Data from USB4F104151__7__11-47-41-152.txt Node

Date: Wed Feb 19 11:47:41 EST 2025
User: louis
Spectrometer: USB4F10415
Trigger mode: 4
Integration Time (sec): 2.250200E-1
Scans to average: 1
Electric dark correction enabled: true
Nonlinearity correction enabled: false
Boxcar width: 0
XAxis mode: Wavelengths
Number of Pixels in Spectrum: 3648
>>>>>Begin Spectral Data<<<<<
178.204	-818.16
178.424	-818.16
178.644	-818.16
178.864	-855.03
179.084	-850.93
179.304	224.25
179.524	76.8
179.744	50.18
179.964	-187.39
180.184	279.55
180.404	146.43
180.624	-254.97
180.844	-132.09
181.064	11.26
181.283	146.43
181.503	-224.25
181.723	-136.19
181.943	-72.7
182.163	381.95
182.383	-197.63
182.602	-199.68
182.822	336.89
183.042	224.25
183.262	-250.88
183.482	-203.77
183.701	230.4
183.921	283.64
184.141	-168.96
184.361	-187.39
184.58	209.92
184.8	218.11
185.02	-306.17
185.239	-33.79
185.459	181.25
185.679	435.19
185.898	-248.83
186.118	-162.81
186.338	287.74
186.557	285.69
186.777	-207.87
186.997	-222.2
187.216	230.4
187.436	459.77
187.655	-121.85
187.875	-41.98
188.095	189.44
188.314	441.34
188.534	-128
188.753	-246.78
188.973	332.79
189.192	498.68
189.412	-267.26
189.631	-152.57
189.851	349.18
190.07	422.91
190.29	-179.2
190.509	-220.16
190.729	216.06
190.948	476.15
191.168	-31.74
191.387	-128
191.607	158.72
191.826	232.44
192.045	-134.14
192.265	-191.49
192.484	240.64
192.704	183.29
192.923	-162.81
193.142	5.12
193.362	377.85
193.581	400.38
193.8	-46.08
194.02	-152.57
194.239	275.45
194.458	304.12
194.678	-123.9
194.897	-349.18
195.116	318.46
195.335	273.4
195.555	-132.09
195.774	-248.83
195.993	359.42
196.212	109.57
196.432	-123.9
196.651	-222.2
196.87	146.43
197.089	510.97
197.308	-162.81
197.528	-148.48
197.747	-17.41
197.966	152.57
198.185	-17.41
198.404	-195.58
198.623	287.74
198.842	353.27
199.062	-97.28
199.281	-111.61
199.5	130.05
199.719	302.08
199.938	-99.33
200.157	-189.44
200.376	340.99
200.595	414.71
200.814	-150.53
201.033	-119.81
201.252	304.12
201.471	211.96
201.69	-158.72
201.909	-72.7
202.128	205.82
202.347	326.65
202.566	-107.52
202.785	-310.27
203.004	78.85
203.223	535.54
203.442	-144.38
203.661	-291.84
203.879	330.75
204.098	310.27
204.317	-263.16
204.536	-1.02
204.755	302.08
204.974	203.77
205.193	-375.8
205.411	-101.37
205.63	332.79
205.849	312.32
206.068	-158.72
206.287	-273.4
206.505	453.63
206.724	95.23
206.943	-201.72
207.162	-132.09
207.381	209.92
207.599	140.29
207.818	-111.61
208.037	-263.16
208.255	193.53
208.474	199.68
208.693	-216.06
208.911	-130.05
209.13	408.57
209.349	291.84
209.567	-109.57
209.786	-173.05
210.005	338.94
210.223	218.11
210.442	-336.89
210.661	-287.74
210.879	279.55
211.098	195.58
211.316	-123.9
211.535	-156.67
211.753	203.77
211.972	289.79
212.191	-197.63
212.409	-156.67
212.628	320.51
212.846	93.18
213.065	-226.3
213.283	-105.47
213.502	201.72
213.72	203.77
213.938	-189.44
214.157	-156.67
214.375	343.03
214.594	140.29
214.812	-109.57
215.031	-152.57
215.249	205.82
215.467	271.36
215.686	-93.18
215.904	-128
216.122	218.11
216.341	398.33
216.559	31.74
216.778	-23.55
216.996	408.57
217.214	181.25
217.432	-173.05
217.651	-275.45
217.869	156.67
218.087	205.82
218.306	-216.06
218.524	-140.29
218.742	203.77
218.96	365.56
219.179	-115.71
219.397	-146.43
219.615	470.01
219.833	293.88
220.051	-216.06
220.27	-62.46
220.488	338.94
220.706	238.59
220.924	-267.26
221.142	-132.09
221.36	265.21
221.578	263.16
221.796	-177.15
222.015	-185.34
222.233	281.6
222.451	345.08
222.669	-183.29
222.887	-74.75
223.105	50.18
223.323	150.53
223.541	-156.67
223.759	-91.13
223.977	160.77
224.195	365.56
224.413	-107.52
224.631	-142.33
224.849	246.78
225.067	506.87
225.285	-99.33
225.503	-230.4
225.721	-64.51
225.939	160.77
226.157	-130.05
226.375	74.75
226.592	107.52
226.81	156.67
227.028	-9.22
227.246	-154.62
227.464	195.58
227.682	279.55
227.9	-144.38
228.117	-91.13
228.335	328.7
228.553	214.01
228.771	-164.86
228.989	-173.05
229.206	312.32
229.424	134.14
229.642	-123.9
229.86	-181.25
230.077	414.71
230.295	197.63
230.513	-35.84
230.731	-136.19
230.948	461.82
231.166	484.34
231.384	-74.75
231.601	-183.29
231.819	502.78
232.037	44.03
232.254	-140.29
232.472	-95.23
232.689	125.95
232.907	433.15
233.125	-185.34
233.342	-146.43
233.56	201.72
233.777	162.81
233.995	-99.33
234.213	-107.52
234.43	328.7
234.648	254.97
234.865	-148.48
235.083	-80.89
235.3	214.01
235.518	234.49
235.735	-97.28
235.953	-62.46
236.17	263.16
236.388	189.44
236.605	37.89
236.822	-123.9
237.04	328.7
237.257	226.3
237.475	-140.29
237.692	-125.95
237.909	330.75
238.127	109.57
238.344	-21.5
238.562	-64.51
238.779	27.65
238.996	-1.02
239.214	-152.57
239.431	-72.7
239.648	154.62
239.865	166.91
240.083	-105.47
240.3	-228.35
240.517	160.77
240.735	183.29
240.952	27.65
241.169	-183.29
241.386	320.51
241.603	158.72
241.821	-140.29
242.038	-58.37
242.255	365.56
242.472	105.47
242.689	-64.51
242.907	-142.33
243.124	175.1
243.341	177.15
243.558	-52.22
243.775	-166.91
243.992	-23.55
244.209	254.97
244.426	-37.89
244.643	-39.94
244.86	203.77
245.078	214.01
245.295	-68.61
245.512	-128
245.729	103.42
245.946	367.61
246.163	-156.67
246.38	-107.52
246.597	214.01
246.814	197.63
247.031	-103.42
247.248	-218.11
247.464	236.54
247.681	189.44
247.898	-103.42
248.115	-11.26
248.332	95.23
248.549	410.62
248.766	-56.32
248.983	-78.85
249.2	263.16
249.417	318.46
249.633	-148.48
249.85	17.41
250.067	173.05
250.284	168.96
250.501	-148.48
250.717	-171.01
250.934	-11.26
251.151	203.77
251.368	-78.85
251.585	-132.09
251.801	289.79
252.018	27.65
252.235	87.04
252.451	-109.57
252.668	168.96
252.885	230.4
253.102	-138.24
253.318	-107.52
253.535	234.49
253.752	89.09
253.968	-152.57
254.185	-154.62
254.401	187.39
254.618	269.31
254.835	-52.22
255.051	-93.18
255.268	252.92
255.484	211.96
255.701	-111.61
255.917	-130.05
256.134	68.61
256.351	207.87
256.567	-107.52
256.784	11.26
257	-17.41
257.217	297.98
257.433	74.75
257.65	-89.09
257.866	355.32
258.082	52.22
258.299	-74.75
258.515	-64.51
258.732	117.76
258.948	52.22
259.165	-64.51
259.381	-177.15
259.597	320.51
259.814	189.44
260.03	-230.4
260.246	-166.91
260.463	306.17
260.679	336.89
260.895	-56.32
261.112	-48.13
261.328	205.82
261.544	50.18
261.761	-168.96
261.977	-101.37
262.193	23.55
262.409	310.27
262.626	29.7
262.842	-97.28
263.058	162.81
263.274	326.65
263.49	1.02
263.707	-97.28
263.923	355.32
264.139	9.22
264.355	-25.6
264.571	-52.22
264.787	185.34
265.004	340.99
265.22	-21.5
265.436	-99.33
265.652	152.57
265.868	279.55
266.084	-226.3
266.3	-91.13
266.516	123.9
266.732	216.06
266.948	-15.36
267.164	-150.53
267.38	371.71
267.596	312.32
267.812	-68.61
268.028	-93.18
268.244	168.96
268.46	234.49
268.676	-66.56
268.892	-80.89
269.108	56.32
269.324	56.32
269.54	-205.82
269.756	-50.18
269.972	68.61
270.188	128
270.403	-101.37
270.619	-80.89
270.835	275.45
271.051	207.87
271.267	-238.59
271.483	-168.96
271.698	318.46
271.914	211.96
272.13	27.65
272.346	-66.56
272.562	173.05
272.777	400.38
272.993	-39.94
273.209	-84.99
273.425	254.97
273.64	-27.65
273.856	-46.08
274.072	-179.2
274.287	35.84
274.503	326.65
274.719	60.42
274.934	-154.62
275.15	70.65
275.366	209.92
275.581	-52.22
275.797	-54.27
276.012	199.68
276.228	99.33
276.444	-107.52
276.659	103.42
276.875	3.07
277.09	44.03
277.306	-37.89
277.521	54.27
277.737	140.29
277.952	187.39
278.168	-99.33
278.383	19.46
278.599	134.14
278.814	230.4
279.03	-152.57
279.245	-35.84
279.461	132.09
279.676	246.78
279.892	-111.61
280.107	-70.65
280.322	89.09
280.538	232.44
280.753	-107.52
280.969	-80.89
281.184	265.21
281.399	273.4
281.615	-27.65
281.83	27.65
282.045	72.7
282.26	72.7
282.476	-101.37
282.691	144.38
282.906	166.91
283.122	211.96
283.337	-111.61
283.552	-107.52
283.767	105.47
283.983	244.73
284.198	-56.32
284.413	-84.99
284.628	31.74
284.843	146.43
285.058	-37.89
285.274	-62.46
285.489	62.46
285.704	246.78
285.919	-37.89
286.134	-60.42
286.349	162.81
286.564	82.94
286.779	27.65
286.995	15.36
287.21	-46.08
287.425	224.25
287.64	-60.42
287.855	109.57
288.07	9.22
288.285	287.74
288.5	29.7
288.715	-13.31
288.93	115.71
289.145	50.18
289.36	-1.02
289.575	-1.02
289.79	291.84
290.004	-39.94
290.219	87.04
290.434	-62.46
290.649	60.42
290.864	93.18
291.079	-56.32
291.294	-25.6
291.509	250.88
291.724	107.52
291.938	-44.03
292.153	-27.65
292.368	154.62
292.583	156.67
292.798	78.85
293.012	1.02
293.227	138.24
293.442	168.96
293.657	48.13
293.871	-72.7
294.086	193.53
294.301	271.36
294.516	-48.13
294.73	15.36
294.945	101.37
295.16	146.43
295.374	13.31
295.589	27.65
295.804	173.05
296.018	68.61
296.233	-21.5
296.447	74.75
296.662	99.33
296.877	386.04
297.091	91.13
297.306	-27.65
297.52	72.7
297.735	293.88
297.949	80.89
298.164	-144.38
298.378	166.91
298.593	52.22
298.807	-39.94
299.022	-39.94
299.236	279.55
299.451	27.65
299.665	27.65
299.88	54.27
300.094	244.73
300.309	175.1
300.523	-56.32
300.737	1.02
300.952	277.5
301.166	228.35
301.381	-68.61
301.595	-101.37
301.809	130.05
302.024	146.43
302.238	-58.37
302.452	132.09
302.667	185.34
302.881	322.56
303.095	25.6
303.309	15.36
303.524	148.48
303.738	117.76
303.952	27.65
304.166	-39.94
304.381	-41.98
304.595	211.96
304.809	-48.13
305.023	-121.85
305.237	1.02
305.452	48.13
305.666	-25.6
305.88	80.89
306.094	195.58
306.308	185.34
306.522	-56.32
306.736	109.57
306.95	246.78
307.164	89.09
307.379	23.55
307.593	27.65
307.807	222.2
308.021	220.16
308.235	105.47
308.449	-82.94
308.663	168.96
308.877	556.02
309.091	7.17
309.305	68.61
309.519	-91.13
309.733	224.25
309.947	-70.65
310.161	-9.22
310.374	191.49
310.588	248.83
310.802	-113.66
311.016	82.94
311.23	201.72
311.444	68.61
311.658	54.27
311.872	201.72
312.085	242.68
312.299	308.22
312.513	152.57
312.727	-25.6
312.941	-25.6
313.154	197.63
313.368	25.6
313.582	-44.03
313.796	203.77
314.009	70.65
314.223	201.72
314.437	138.24
314.651	236.54
314.864	70.65
315.078	35.84
315.292	-123.9
315.505	82.94
315.719	107.52
315.933	97.28
316.146	-60.42
316.36	80.89
316.573	238.59
316.787	214.01
317.001	48.13
317.214	50.18
317.428	185.34
317.641	-76.8
317.855	58.37
318.068	185.34
318.282	136.19
318.495	183.29
318.709	-41.98
318.922	142.33
319.136	246.78
319.349	95.23
319.563	-27.65
319.776	177.15
319.99	-27.65
320.203	27.65
320.417	-23.55
320.63	54.27
320.843	246.78
321.057	-9.22
321.27	66.56
321.483	216.06
321.697	214.01
321.91	-44.03
322.124	-1.02
322.337	187.39
322.55	82.94
322.763	56.32
322.977	-82.94
323.19	115.71
323.403	37.89
323.617	5.12
323.83	224.25
324.043	62.46
324.256	144.38
324.469	-259.07
324.683	80.89
324.896	109.57
325.109	111.61
325.322	-95.23
325.535	89.09
325.748	314.36
325.962	99.33
326.175	-1.02
326.388	-62.46
326.601	281.6
326.814	119.81
327.027	-9.22
327.24	95.23
327.453	-33.79
327.666	226.3
327.879	179.2
328.092	56.32
328.305	197.63
328.518	74.75
328.731	-29.7
328.944	-111.61
329.157	179.2
329.37	50.18
329.583	150.53
329.796	132.09
330.009	-33.79
330.222	328.7
330.435	80.89
330.648	-13.31
330.861	228.35
331.073	87.04
331.286	74.75
331.499	68.61
331.712	46.08
331.925	130.05
332.138	21.5
332.35	-44.03
332.563	158.72
332.776	289.79
332.989	7.17
333.202	-48.13
333.414	203.77
333.627	179.2
333.84	-31.74
334.053	64.51
334.265	50.18
334.478	68.61
334.691	-66.56
334.903	68.61
335.116	121.85
335.329	109.57
335.541	54.27
335.754	171.01
335.966	80.89
336.179	197.63
336.392	-29.7
336.604	39.94
336.817	201.72
337.029	236.54
337.242	33.79
337.454	95.23
337.667	150.53
337.88	334.84
338.092	29.7
338.305	109.57
338.517	168.96
338.729	183.29
338.942	48.13
339.154	-54.27
339.367	-11.26
339.579	242.68
339.792	-82.94
340.004	-17.41
340.217	191.49
340.429	179.2
340.641	-31.74
340.854	-138.24
341.066	185.34
341.278	248.83
341.491	254.97
341.703	7.17
341.915	97.28
342.128	228.35
342.34	1.02
342.552	-58.37
342.764	162.81
342.977	136.19
343.189	74.75
343.401	64.51
343.613	-17.41
343.826	209.92
344.038	-23.55
344.25	93.18
344.462	11.26
344.674	203.77
344.886	-58.37
345.099	50.18
345.311	191.49
345.523	64.51
345.735	-162.81
345.947	113.66
346.159	189.44
346.371	240.64
346.583	21.5
346.795	173.05
347.007	125.95
347.219	189.44
347.431	50.18
347.643	113.66
347.855	74.75
348.067	285.69
348.279	-74.75
348.491	19.46
348.703	336.89
348.915	115.71
349.127	-72.7
349.339	87.04
349.551	80.89
349.763	273.4
349.975	72.7
350.187	74.75
350.399	349.18
350.61	175.1
350.822	-95.23
351.034	1.02
351.246	162.81
351.458	238.59
351.669	56.32
351.881	-39.94
352.093	269.31
352.305	261.12
352.517	-31.74
352.728	58.37
352.94	230.4
353.152	148.48
353.363	-121.85
353.575	25.6
353.787	345.08
353.999	191.49
354.21	173.05
354.422	-87.04
354.633	109.57
354.845	80.89
355.057	37.89
355.268	68.61
355.48	275.45
355.692	-1.02
355.903	70.65
356.115	-160.77
356.326	-103.42
356.538	312.32
356.749	-5.12
356.961	142.33
357.172	142.33
357.384	44.03
357.595	254.97
357.807	-7.17
358.018	113.66
358.23	148.48
358.441	-101.37
358.653	-13.31
358.864	107.52
359.075	41.98
359.287	-15.36
359.498	62.46
359.709	203.77
359.921	162.81
360.132	105.47
360.344	-21.5
360.555	89.09
360.766	189.44
360.977	-76.8
361.189	107.52
361.4	148.48
361.611	265.21
361.823	23.55
362.034	-25.6
362.245	-33.79
362.456	148.48
362.667	101.37
362.879	-103.42
363.09	240.64
363.301	171.01
363.512	-82.94
363.723	-95.23
363.935	97.28
364.146	277.5
364.357	9.22
364.568	-64.51
364.779	-11.26
364.99	203.77
365.201	48.13
365.412	150.53
365.623	-27.65
365.834	211.96
366.045	58.37
366.256	7.17
366.467	207.87
366.678	154.62
366.889	29.7
367.1	39.94
367.311	326.65
367.522	25.6
367.733	33.79
367.944	70.65
368.155	101.37
368.366	326.65
368.577	95.23
368.788	187.39
368.999	99.33
369.209	113.66
369.42	39.94
369.631	324.6
369.842	230.4
370.053	66.56
370.264	33.79
370.474	-115.71
370.685	228.35
370.896	99.33
371.107	84.99
371.317	-23.55
371.528	158.72
371.739	263.16
371.95	72.7
372.16	9.22
372.371	-21.5
372.582	121.85
372.792	-25.6
373.003	123.9
373.214	179.2
373.424	232.44
373.635	21.5
373.846	197.63
374.056	205.82
374.267	181.25
374.477	78.85
374.688	-25.6
374.898	224.25
375.109	23.55
375.319	29.7
375.53	-23.55
375.74	306.17
375.951	56.32
376.161	76.8
376.372	66.56
376.582	121.85
376.793	201.72
377.003	3.07
377.214	9.22
377.424	271.36
377.635	193.53
377.845	7.17
378.055	89.09
378.266	-25.6
378.476	154.62
378.686	31.74
378.897	134.14
379.107	295.93
379.317	244.73
379.528	-62.46
379.738	70.65
379.948	21.5
380.158	236.54
380.369	70.65
380.579	74.75
380.789	107.52
380.999	125.95
381.21	177.15
381.42	222.2
381.63	154.62
381.84	261.12
382.05	123.9
382.261	62.46
382.471	295.93
382.681	68.61
382.891	23.55
383.101	162.81
383.311	80.89
383.521	60.42
383.731	-62.46
383.941	134.14
384.151	64.51
384.361	15.36
384.571	-9.22
384.781	74.75
384.991	271.36
385.201	277.5
385.411	144.38
385.621	78.85
385.831	183.29
386.041	265.21
386.251	87.04
386.461	58.37
386.671	152.57
386.881	207.87
387.091	70.65
387.301	80.89
387.511	80.89
387.72	140.29
387.93	68.61
388.14	-84.99
388.35	171.01
388.56	308.22
388.769	29.7
388.979	41.98
389.189	-1.02
389.399	181.25
389.609	9.22
389.818	19.46
390.028	166.91
390.238	183.29
390.447	-99.33
390.657	19.46
390.867	146.43
391.076	-5.12
391.286	46.08
391.496	-21.5
391.705	125.95
391.915	365.56
392.125	-56.32
392.334	87.04
392.544	365.56
392.753	138.24
392.963	52.22
393.172	23.55
393.382	76.8
393.591	312.32
393.801	-64.51
394.01	56.32
394.22	211.96
394.429	121.85
394.639	144.38
394.848	56.32
395.058	171.01
395.267	91.13
395.477	89.09
395.686	21.5
395.895	547.83
396.105	383.99
396.314	60.42
396.524	50.18
396.733	234.49
396.942	338.94
397.152	37.89
397.361	142.33
397.57	220.16
397.78	97.28
397.989	66.56
398.198	285.69
398.407	95.23
398.617	140.29
398.826	-9.22
399.035	-33.79
399.244	254.97
399.453	162.81
399.663	-39.94
399.872	-97.28
400.081	-27.65
400.29	224.25
400.499	-25.6
400.708	29.7
400.917	181.25
401.127	82.94
401.336	31.74
401.545	306.17
401.754	277.5
401.963	214.01
402.172	44.03
402.381	-62.46
402.59	232.44
402.799	142.33
403.008	97.28
403.217	72.7
403.426	246.78
403.635	-70.65
403.844	-80.89
404.053	-50.18
404.262	109.57
404.471	334.84
404.68	-5.12
404.888	107.52
405.097	70.65
405.306	162.81
405.515	48.13
405.724	27.65
405.933	285.69
406.142	173.05
406.35	95.23
406.559	76.8
406.768	140.29
406.977	392.19
407.185	13.31
407.394	115.71
407.603	31.74
407.812	179.2
408.02	115.71
408.229	23.55
408.438	211.96
408.646	-78.85
408.855	-23.55
409.064	15.36
409.272	123.9
409.481	283.64
409.69	-27.65
409.898	-41.98
410.107	222.2
410.315	164.86
410.524	78.85
410.733	-68.61
410.941	132.09
411.15	236.54
411.358	99.33
411.567	113.66
411.775	154.62
411.984	171.01
412.192	136.19
412.401	1.02
412.609	412.67
412.818	226.3
413.026	164.86
413.234	7.17
413.443	220.16
413.651	31.74
413.86	-70.65
414.068	187.39
414.276	369.66
414.485	97.28
414.693	62.46
414.901	195.58
415.11	203.77
415.318	181.25
415.526	35.84
415.734	119.81
415.943	150.53
416.151	287.74
416.359	1.02
416.567	117.76
416.776	271.36
416.984	275.45
417.192	64.51
417.4	-21.5
417.608	62.46
417.817	17.41
418.025	160.77
418.233	82.94
418.441	56.32
418.649	78.85
418.857	17.41
419.065	136.19
419.273	105.47
419.481	236.54
419.689	17.41
419.897	19.46
420.105	33.79
420.313	240.64
420.521	162.81
420.729	185.34
420.937	144.38
421.145	48.13
421.353	74.75
421.561	103.42
421.769	244.73
421.977	91.13
422.185	21.5
422.393	132.09
422.601	242.68
422.809	246.78
423.017	84.99
423.224	60.42
423.432	283.64
423.64	158.72
423.848	15.36
424.056	15.36
424.263	349.18
424.471	146.43
424.679	191.49
424.887	-19.46
425.094	361.47
425.302	222.2
425.51	-136.19
425.718	39.94
425.925	244.73
426.133	9.22
426.341	209.92
426.548	58.37
426.756	158.72
426.964	195.58
427.171	13.31
427.379	64.51
427.586	279.55
427.794	269.31
428.001	138.24
428.209	177.15
428.417	287.74
428.624	248.83
428.832	138.24
429.039	197.63
429.247	171.01
429.454	195.58
429.662	242.68
429.869	125.95
430.076	240.64
430.284	312.32
430.491	121.85
430.699	121.85
430.906	433.15
431.114	191.49
431.321	150.53
431.528	195.58
431.736	277.5
431.943	254.97
432.15	105.47
432.358	97.28
432.565	457.72
432.772	-7.17
432.979	238.59
433.187	72.7
433.394	394.23
433.601	119.81
433.808	193.53
434.016	271.36
434.223	295.93
434.43	240.64
434.637	130.05
434.844	201.72
435.052	242.68
435.259	340.99
435.466	289.79
435.673	310.27
435.88	447.48
436.087	416.76
436.294	330.75
436.501	295.93
436.708	304.12
436.915	322.56
437.122	379.9
437.329	78.85
437.537	312.32
437.743	361.47
437.95	422.91
438.157	242.68
438.364	392.19
438.571	324.6
438.778	183.29
438.985	343.03
439.192	519.16
439.399	324.6
439.606	279.55
439.813	371.71
440.02	629.75
440.227	752.63
440.433	236.54
440.64	254.97
440.847	295.93
441.054	429.05
441.261	365.56
441.467	330.75
441.674	383.99
441.881	556.02
442.088	357.37
442.294	353.27
442.501	576.5
442.708	730.1
442.914	402.43
443.121	418.81
443.328	576.5
443.534	760.82
443.741	463.86
443.948	304.12
444.154	717.81
444.361	951.28
444.568	549.88
444.774	572.41
444.981	574.46
445.187	908.27
445.394	582.65
445.6	605.17
445.807	762.87
446.013	803.83
446.22	498.68
446.426	707.57
446.633	934.9
446.839	1041.39
447.046	648.18
447.252	736.24
447.459	951.28
447.665	879.6
447.871	883.7
448.078	1092.59
448.284	1168.37
448.491	1238
448.697	1078.26
448.903	1076.21
449.11	1215.47
449.316	1096.69
449.522	1311.72
449.728	1305.58
449.935	1477.61
450.141	1407.98
450.347	1393.64
450.553	1375.21
450.76	1567.72
450.966	1594.34
451.172	1571.82
451.378	1620.97
451.584	1702.89
451.791	2022.37
451.997	1856.48
452.203	1729.51
452.409	2145.25
452.615	2071.52
452.821	1924.07
453.027	1848.29
453.233	2456.54
453.44	2202.59
453.646	1967.07
453.852	2235.36
454.058	2214.88
454.264	2444.25
454.47	2307.04
454.676	2335.71
454.882	2679.77
455.088	2536.41
455.294	2376.67
455.5	2700.25
455.705	2857.94
455.911	2827.22
456.117	2612.18
456.323	2759.64
456.529	2556.89
456.735	2857.94
456.941	2612.18
457.147	2943.96
457.352	3021.78
457.558	2694.1
457.764	2765.78
457.97	2880.47
458.176	2857.94
458.381	3001.3
458.587	2970.58
458.793	2821.08
458.999	2769.88
459.204	3009.49
459.41	2962.39
459.616	2843.6
459.821	3144.66
460.027	2864.08
460.233	2915.28
460.438	2831.32
460.644	2907.09
460.85	2767.83
461.055	2847.7
461.261	2659.29
461.466	2751.45
461.672	2403.29
461.878	2511.83
462.083	2563.03
462.289	2575.32
462.494	2552.79
462.7	2556.89
462.905	2343.9
463.111	2638.81
463.316	2640.86
463.522	2376.67
463.727	2407.39
463.932	2431.96
464.138	2407.39
464.343	2436.06
464.549	2370.52
464.754	2573.27
464.959	2644.95
465.165	2350.04
465.37	2204.64
465.575	2321.37
465.781	2286.56
465.986	2442.2
466.191	2145.25
466.397	2298.84
466.602	2356.19
466.807	1997.79
467.012	2319.32
467.218	2493.4
467.423	2280.41
467.628	2216.93
467.833	2089.95
468.038	2323.42
468.244	2055.14
468.449	2227.17
468.654	2102.24
468.859	2151.39
469.064	2114.53
469.269	2044.9
469.474	2108.38
469.679	2309.08
469.885	2298.84
470.09	2147.3
470.295	2155.49
470.5	2268.13
470.705	2288.61
470.91	2030.56
471.115	2104.29
471.32	2401.24
471.525	2468.83
471.73	2071.52
471.935	2251.74
472.139	2264.03
472.344	2083.81
472.549	2171.87
472.754	2212.83
472.959	2313.18
473.164	2302.94
473.369	2098.14
473.574	2304.99
473.778	2423.77
473.983	2315.23
474.188	2304.99
474.393	2141.15
474.598	2313.18
474.802	2280.41
475.007	2210.78
475.212	2188.25
475.417	2341.85
475.621	2438.11
475.826	2089.95
476.031	2276.32
476.235	2180.06
476.44	2356.19
476.645	2231.26
476.849	2257.89
477.054	2292.7
477.259	2298.84
477.463	2259.93
477.668	2329.56
477.872	2636.76
478.077	2218.97
478.282	2130.91
478.486	2286.56
478.691	2395.1
478.895	2309.08
479.1	2386.91
479.304	2317.28
479.509	2182.11
479.713	2489.31
479.918	2302.94
480.122	2286.56
480.326	2444.25
480.531	2319.32
480.735	2309.08
480.94	2280.41
481.144	2556.89
481.348	2341.85
481.553	2304.99
481.757	2161.63
481.961	2313.18
482.166	2442.2
482.37	2212.83
482.574	2290.65
482.778	2391
482.983	2657.24
483.187	2253.79
483.391	2431.96
483.595	2395.1
483.8	2499.55
484.004	2360.28
484.208	2288.61
484.412	2558.94
484.616	2542.55
484.821	2382.81
485.025	2356.19
485.229	2616.28
485.433	2716.63
485.637	2458.59
485.841	2372.57
486.045	2821.08
486.249	2704.34
486.453	2653.14
486.657	2431.96
486.861	2436.06
487.065	2710.49
487.269	2606.04
487.473	2530.27
487.677	2958.29
487.881	3087.31
488.085	2653.14
488.289	2790.36
488.493	2780.12
488.697	3177.42
488.901	2866.13
489.105	2900.95
489.309	3005.39
489.512	3089.36
489.716	3011.54
489.92	3132.37
490.124	3218.38
490.328	3414.99
490.531	3165.14
490.735	3204.05
490.939	3202
491.143	3464.14
491.346	3226.57
491.55	3226.57
491.754	3523.53
491.958	3505.1
492.161	3412.94
492.365	3406.8
492.569	3652.55
492.772	3644.36
492.976	3767.24
493.18	3589.07
493.383	3763.14
493.587	3875.78
493.79	3943.36
493.994	3728.33
494.197	3894.21
494.401	4039.62
494.605	3984.32
494.808	3961.8
495.012	4348.86
495.215	4553.66
495.419	4402.11
495.622	4082.63
495.825	4389.82
496.029	4463.55
496.232	4365.25
496.436	4375.49
496.639	4842.42
496.843	4602.81
497.046	4594.62
497.249	4760.5
497.453	5049.27
497.656	4950.96
497.859	5184.43
498.063	5020.6
498.266	5446.57
498.469	5170.1
498.673	5266.35
498.876	5366.7
499.079	5485.48
499.282	5542.83
499.485	5548.97
499.689	5778.34
499.892	5952.42
500.095	6052.77
500.298	5964.71
500.501	5927.85
500.705	6310.82
500.908	6304.67
501.111	6437.79
501.314	6562.72
501.517	6933.4
501.72	7041.94
501.923	6833.05
502.126	6976.41
502.329	7461.77
502.532	7529.36
502.735	7455.63
502.938	7568.27
503.141	7695.24
503.344	7650.19
503.547	7926.66
503.75	7818.12
503.953	8135.56
504.156	8391.55
504.359	8477.57
504.562	8311.68
504.765	8833.91
504.968	9106.29
505.17	9196.4
505.373	8977.27
505.576	9407.34
505.779	9612.14
505.982	9390.96
506.185	9640.81
506.387	9931.62
506.59	10302.31
506.793	10144.61
506.996	10087.27
507.198	10746.72
507.401	11123.54
507.604	10861.4
507.807	11234.13
508.009	11408.21
508.212	11676.49
508.415	11590.48
508.617	11600.72
508.82	11909.96
509.022	12004.17
509.225	12215.11
509.428	12237.64
509.63	12649.28
509.833	12688.19
510.035	13318.96
510.238	13335.35
510.44	13464.37
510.643	13996.84
510.845	13849.39
511.048	13906.73
511.25	14371.62
511.453	14547.75
511.655	15131.42
511.858	15125.27
512.06	15514.39
512.262	15383.32
512.465	15549.2
512.667	15672.08
512.87	16149.26
513.072	16270.09
513.274	16820.99
513.477	16751.36
513.679	17179.39
513.881	17388.28
514.084	17500.92
514.286	18060.01
514.488	18111.21
514.69	18717.41
514.893	18387.69
515.095	18797.28
515.297	19110.62
515.499	19319.51
515.701	19751.63
515.904	20009.68
516.106	20546.25
516.308	20642.5
516.51	20527.81
516.712	21009.09
516.914	21463.74
517.116	21838.51
517.318	21854.9
517.52	22131.37
517.722	22481.58
517.925	22764.2
518.127	22745.76
518.329	23354.01
518.531	23128.74
518.733	23732.89
518.935	24035.99
519.136	24218.25
519.338	24783.49
519.54	24992.39
519.742	25531
519.944	25647.74
520.146	26409.58
520.348	26552.94
520.55	26454.64
520.752	26681.96
520.954	27064.93
521.155	27021.92
521.357	27888.21
521.559	28156.5
521.761	28428.88
521.963	28557.9
522.164	28852.81
522.366	29125.19
522.568	29305.41
522.77	29637.18
522.971	30087.73
523.173	30202.42
523.375	30489.13
523.576	30921.26
523.778	31226.4
523.98	31433.25
524.181	31783.45
524.383	32039.45
524.584	31832.6
524.786	32076.31
524.988	32580.11
525.189	32920.07
525.391	33120.77
525.592	33079.82
525.794	33350.15
525.995	33354.24
526.197	33708.54
526.398	34462.19
526.6	34324.98
526.801	34515.44
527.003	34351.6
527.204	34796.01
527.406	35418.6
527.607	35078.63
527.808	35494.37
528.01	35373.54
528.211	35752.41
528.412	36055.51
528.614	36055.51
528.815	36157.91
529.016	37132.75
529.218	36692.43
529.419	36841.93
529.62	36426.2
529.822	37380.55
530.023	37022.16
530.224	37212.62
530.425	37296.58
530.626	37212.62
530.828	37456.32
531.029	38130.11
531.23	37646.79
531.431	37515.72
531.632	37962.17
531.833	38453.69
532.035	38357.43
532.236	38392.25
532.437	38848.94
532.638	38547.89
532.839	38416.82
533.04	38549.94
533.241	38126.01
533.442	39141.8
533.643	38957.49
533.844	38832.56
534.045	39133.61
534.246	38711.73
534.447	39020.97
534.648	39164.33
534.849	39293.35
535.05	39051.69
535.251	39545.25
535.451	39375.27
535.652	39549.35
535.853	39514.53
536.054	39358.89
536.255	39674.27
536.456	39788.96
536.657	39872.93
536.857	39377.32
537.058	39713.19
537.259	39834.02
537.46	39799.2
537.66	40186.27
537.861	40012.19
538.062	39954.85
538.263	39506.34
538.463	39901.6
538.664	40065.44
538.865	40296.86
539.065	40358.3
539.266	40014.24
539.466	40368.54
539.667	39752.1
539.868	40366.49
540.068	40004
540.269	40362.39
540.469	40608.15
540.67	40563.09
540.87	40075.68
541.071	40798.61
541.271	40638.87
541.472	40382.87
541.672	40458.65
541.873	40602
542.073	40151.45
542.274	40255.9
542.474	40405.4
542.675	40352.15
542.875	41138.57
543.075	40528.28
543.276	40251.8
543.476	40911.25
543.676	40636.82
543.877	40581.52
544.077	40589.72
544.277	40706.45
544.478	40530.33
544.678	40939.92
544.878	40442.26
545.078	40602
545.279	40606.1
545.479	40483.22
545.679	40823.19
545.879	40739.22
546.079	41146.76
546.28	41079.18
546.48	40579.48
546.68	41529.73
546.88	41410.95
547.08	41122.19
547.28	40661.4
547.48	40550.81
547.68	41075.09
547.88	40835.47
548.081	41247.11
548.281	41027.98
548.481	41070.99
548.681	41152.91
548.881	41312.65
549.081	41431.43
549.28	41134.48
549.48	41480.58
549.68	41224.59
549.88	41554.31
550.08	40901.01
550.28	41836.93
550.48	41488.77
550.68	41906.56
550.88	41580.93
551.08	41458.06
551.279	41779.59
551.479	41517.45
551.679	41810.31
551.879	41488.77
552.079	41703.81
552.278	41413
552.478	41949.57
552.678	41353.61
552.878	42283.39
553.077	41628.04
553.277	41425.29
553.477	41787.78
553.676	41836.93
553.876	41765.25
554.076	41195.92
554.275	41714.05
554.475	41118.09
554.674	41744.77
554.874	41773.44
555.074	41390.47
555.273	41712
555.473	41871.75
555.672	41331.08
555.872	41761.15
556.071	41408.9
556.271	41996.67
556.47	41542.02
556.67	41195.92
556.869	41568.65
557.068	41531.78
557.268	41308.55
557.467	41171.34
557.667	41415.05
557.866	41320.84
558.065	41214.35
558.265	40843.66
558.464	40726.93
558.663	41410.95
558.863	40870.29
559.062	41126.28
559.261	40573.33
559.461	41195.92
559.66	40458.65
559.859	40622.48
560.058	40384.92
560.258	40595.86
560.457	40356.25
560.656	40323.48
560.855	40081.82
561.054	40608.15
561.253	40475.03
561.453	40196.51
561.652	40094.11
561.851	40399.26
562.05	39856.54
562.249	39788.96
562.448	39870.88
562.647	40253.85
562.846	39692.71
563.045	39850.4
563.244	39438.76
563.443	39995.81
563.642	38900.14
563.841	39322.02
564.04	38967.73
564.239	39137.71
564.438	39045.55
564.637	38676.91
564.836	38638
565.035	38742.45
565.234	38681.01
565.432	38111.67
565.631	37972.41
565.83	38603.19
566.029	37919.17
566.228	37841.34
566.427	37829.05
566.625	37472.71
566.824	37052.87
567.023	37882.3
567.222	36776.4
567.42	37278.15
567.619	37171.66
567.818	36692.43
568.016	36899.28
568.215	36602.32
568.414	36995.53
568.612	36663.76
568.811	36401.62
569.01	36190.68
569.208	36149.72
569.407	36231.64
569.605	35631.58
569.804	35457.51
570.002	35410.4
570.201	35490.27
570.4	35422.69
570.598	35156.46
570.797	34826.73
570.995	34703.85
571.193	34306.55
571.392	34783.73
571.59	33757.69
571.789	34435.57
571.987	34202.1
572.186	34554.35
572.384	33700.35
572.582	34155
572.781	33864.19
572.979	33266.18
573.177	33714.69
573.376	33548.8
573.574	33432.07
573.772	33538.56
573.971	32854.54
574.169	32348.69
574.367	32557.58
574.565	32686.61
574.763	32377.36
574.962	32322.07
575.16	32049.69
575.358	32088.6
575.556	31689.24
575.754	32377.36
575.952	31476.26
576.151	32051.73
576.349	31384.1
576.547	31154.72
576.745	31388.19
576.943	31904.28
577.141	31220.26
577.339	31037.99
577.537	30575.15
577.735	31025.7
577.933	30411.31
578.131	30677.55
578.329	30374.45
578.527	30474.8
578.725	30556.72
578.923	30261.81
579.121	29788.73
579.319	30263.86
579.516	30073.4
579.714	29811.26
579.912	29672
580.11	29710.91
580.308	29774.39
580.506	29588.03
580.704	28469.84
580.901	29254.21
581.099	29530.69
581.297	29219.39
581.495	29211.2
581.692	29153.86
581.89	28734.03
582.088	29227.59
582.285	28572.24
582.483	28912.2
582.681	28588.62
582.878	28605
583.076	28283.47
583.274	28641.87
583.471	28432.97
583.669	28361.3
583.866	27933.27
584.064	28650.06
584.262	27982.42
584.459	27802.2
584.657	27707.99
584.854	28326.48
585.052	27511.39
585.249	27578.97
585.447	27847.26
585.644	27390.56
585.841	27517.53
586.039	27325.02
586.236	27253.34
586.434	27114.08
586.631	27109.99
586.828	26911.33
587.026	27365.98
587.223	27333.21
587.42	27007.59
587.618	27032.16
587.815	26700.39
588.012	26983.01
588.21	26763.88
588.407	27177.57
588.604	26581.61
588.801	26528.36
588.999	26532.46
589.196	26274.42
589.393	26401.39
589.59	26292.85
589.787	26135.15
589.984	26090.1
590.182	26086
590.379	25885.3
590.576	26382.96
590.773	25959.03
590.97	25916.02
591.167	26235.5
591.364	25840.25
591.561	25627.26
591.758	25612.92
591.955	26065.52
592.152	25838.2
592.349	25719.42
592.546	25627.26
592.743	25524.86
592.94	25262.72
593.137	25541.24
593.334	25725.56
593.531	25260.67
593.727	25537.15
593.924	25696.89
594.121	25096.83
594.318	25246.33
594.515	25080.45
594.712	25432.7
594.908	25289.34
595.105	25252.48
595.302	25541.24
595.499	25371.26
595.696	25127.55
595.892	24935.04
596.089	25279.1
596.286	25113.22
596.482	25074.31
596.679	25481.85
596.876	24935.04
597.072	25031.3
597.269	24728.2
597.466	24709.77
597.662	25217.66
597.859	24601.22
598.055	25211.52
598.252	24922.76
598.448	25041.54
598.645	24660.62
598.841	24677
599.038	24998.53
599.234	25033.35
599.431	24619.66
599.627	24593.03
599.824	24926.85
600.02	24617.61
600.217	24842.88
600.413	24334.99
600.609	24724.1
600.806	25082.5
601.002	24611.46
601.198	24183.44
601.395	24683.14
601.591	24576.65
601.787	24408.72
601.984	24165.01
602.18	24842.88
602.376	24355.47
602.572	24322.7
602.769	24439.44
602.965	24040.08
603.161	24384.14
603.357	24132.24
603.553	24273.55
603.75	24128.14
603.946	24005.27
604.142	24040.08
604.338	24220.3
604.534	24468.11
604.73	24216.21
604.926	23837.33
605.122	24314.51
605.318	23878.29
605.514	24060.56
605.71	23827.09
605.906	23866
606.102	24072.85
606.298	24007.31
606.494	23884.44
606.69	23630.49
606.886	23921.3
607.082	23575.19
607.278	23706.26
607.474	23523.99
607.67	24150.67
607.866	23292.57
608.062	23788.18
608.257	23782.04
608.453	23530.14
608.649	23915.16
608.845	23220.89
609.041	23319.2
609.236	23759.51
609.432	23468.7
609.628	23415.45
609.824	23175.84
610.019	23134.88
610.215	23442.07
610.411	23274.14
610.606	23345.82
610.802	23108.26
610.998	23222.94
611.193	23515.8
611.389	23016.1
611.584	23204.51
611.78	22870.69
611.976	23003.81
612.171	22977.19
612.367	23382.68
612.562	22866.6
612.758	22704.81
612.953	22547.11
613.149	23032.48
613.344	22690.47
613.539	23093.92
613.735	22776.48
613.93	23241.37
614.126	22682.28
614.321	22768.29
614.517	22710.95
614.712	22637.22
614.907	22702.76
615.103	22694.57
615.298	22555.3
615.493	22633.13
615.688	22520.49
615.884	22745.76
616.079	22315.69
616.274	22332.08
616.47	22266.54
616.665	22413.99
616.86	22336.17
617.055	22323.88
617.25	21957.3
617.445	22483.62
617.641	21549.75
617.836	22026.93
618.031	21721.78
618.226	22112.94
618.421	21877.43
618.616	22190.77
618.811	22014.64
619.006	22121.13
619.201	21258.94
619.396	21789.36
619.591	21529.27
619.786	21559.99
619.981	21287.61
620.176	21725.88
620.371	21158.59
620.566	21430.97
620.761	21236.41
620.956	21318.33
621.151	20736.71
621.346	21203.64
621.541	20685.51
621.735	21428.92
621.93	21035.71
622.125	20798.15
622.32	20241.1
622.515	20351.69
622.709	20544.2
622.904	20837.06
623.099	20232.91
623.294	20986.56
623.488	20425.42
623.683	20628.17
623.878	19753.68
624.072	20310.73
624.267	20159.18
624.462	20087.5
624.656	20034.25
624.851	20259.53
625.046	20005.58
625.24	19710.68
625.435	19495.64
625.629	19897.04
625.824	19770.07
626.018	19774.16
626.213	19270.36
626.407	19741.39
626.602	19442.39
626.796	19507.93
626.991	19133.15
627.185	19493.59
627.38	19227.35
627.574	19180.25
627.768	19004.13
627.963	19094.24
628.157	19043.04
628.352	18895.58
628.546	18774.75
628.74	19239.64
628.935	18582.24
629.129	18750.18
629.323	18588.39
629.517	18494.18
629.712	18655.97
629.906	18545.38
630.1	18512.61
630.294	18723.55
630.489	18725.6
630.683	18485.99
630.877	18256.62
631.071	18498.28
631.265	18449.13
631.459	18051.82
631.653	17763.06
631.848	17922.8
632.042	18086.64
632.236	17976.05
632.43	17859.31
632.624	18033.39
632.818	17738.48
633.012	17488.63
633.206	17615.6
633.4	17629.94
633.594	17380.09
633.788	17253.11
633.982	17429.24
634.176	17355.51
634.369	17091.32
634.563	17040.12
634.757	16704.26
634.951	17292.02
635.145	17144.57
635.339	17011.45
635.533	16628.48
635.726	16849.66
635.92	16429.83
636.114	16302.86
636.308	16173.83
636.501	16362.25
636.695	16282.38
636.889	15801.1
637.083	15612.69
637.276	15803.15
637.47	15244.06
637.664	15250.2
637.857	15223.58
638.051	15280.92
638.244	15086.36
638.438	14926.62
638.632	14809.89
638.825	14641.95
639.019	14949.15
639.212	14531.36
639.406	14445.35
639.599	14226.21
639.793	14129.96
639.986	13906.73
640.18	13769.52
640.373	13605.68
640.567	13644.59
640.76	13497.14
640.954	13306.68
641.147	12989.24
641.34	12665.66
641.534	12747.58
641.727	12659.52
641.92	12935.99
642.114	12514.11
642.307	12362.56
642.5	12288.84
642.694	11983.69
642.887	11871.05
643.08	11942.73
643.273	11813.71
643.467	11582.29
643.66	11518.8
643.853	11037.53
644.046	11029.34
644.239	11041.62
644.432	10650.46
644.626	10441.57
644.819	10515.3
645.012	10494.82
645.205	10607.45
645.398	10345.31
645.591	9978.73
645.784	9880.43
645.977	9624.43
646.17	9646.96
646.363	9556.85
646.556	9436.02
646.749	9177.97
646.942	9302.9
647.135	9016.18
647.328	9175.92
647.521	9005.94
647.714	8659.84
647.907	8829.82
648.099	8586.11
648.292	8809.34
648.485	8483.71
648.678	8194.95
648.871	8352.64
649.064	8174.47
649.256	8027.01
649.449	7883.66
649.642	7961.48
649.835	7682.95
650.027	7699.34
650.22	7762.83
650.413	7799.69
650.605	7764.87
650.798	7256.98
650.991	7203.73
651.183	7342.99
651.376	7201.68
651.568	7048.08
651.761	7224.21
651.954	7273.36
652.146	6933.4
652.339	7185.3
652.531	7121.81
652.724	6732.7
652.916	6744.99
653.109	6599.58
653.301	6726.55
653.494	6927.25
653.686	6740.89
653.879	6712.22
654.071	6681.5
654.263	6548.38
654.456	6335.39
654.648	6462.37
654.84	6464.41
655.033	6452.13
655.225	6622.11
655.417	6065.06
655.61	6454.17
655.802	6335.39
655.994	6419.36
656.186	5983.14
656.379	6144.93
656.571	6177.7
656.763	5962.66
656.955	5718.95
657.148	5886.89
657.34	5993.38
657.532	5802.92
657.724	5528.49
657.916	5477.29
658.108	5878.69
658.3	5473.2
658.492	5462.96
658.684	5237.68
658.876	5546.92
659.068	5243.82
659.26	5161.91
659.452	5112.75
659.644	5077.94
659.836	5280.69
660.028	4973.49
660.22	4774.84
660.412	4916.15
660.604	4785.08
660.796	4768.7
660.988	4737.98
661.18	4547.51
661.372	4686.78
661.563	4512.7
661.755	4307.9
661.947	4406.2
662.139	4246.46
662.331	4156.35
662.522	3918.79
662.714	3980.23
662.906	3840.97
663.097	3933.12
663.289	3808.2
663.481	3650.5
663.673	3785.67
663.864	3627.98
664.056	3646.41
664.247	3492.81
664.439	3548.11
664.631	3351.5
664.822	3482.57
665.014	3421.13
665.205	3294.16
665.397	3093.46
665.588	3040.21
665.78	3142.61
665.971	3242.96
666.163	2989.01
666.354	2827.22
666.546	2851.8
666.737	2874.32
666.929	2849.75
667.12	2718.68
667.311	2880.47
667.503	2640.86
667.694	2722.77
667.885	2616.28
668.077	2685.91
668.268	2364.38
668.459	2405.34
668.651	2419.68
668.842	2552.79
669.033	2333.66
669.224	2157.54
669.416	2415.58
669.607	2298.84
669.798	2186.21
669.989	2141.15
670.18	2163.68
670.371	2374.62
670.563	1956.83
670.754	2098.14
670.945	1985.51
671.136	2309.08
671.327	1967.07
671.518	1965.03
671.709	1936.35
671.9	2237.41
672.091	2120.67
672.282	1805.28
672.473	1809.38
672.664	1977.31
672.855	1981.41
673.046	1825.76
673.237	1973.22
673.428	1975.27
673.619	1866.72
673.809	1725.41
674	1793
674.191	1948.64
674.382	1776.61
674.573	1612.78
674.764	1567.72
674.954	2028.51
675.145	1659.88
675.336	1672.17
675.527	1563.62
675.717	1647.59
675.908	1698.79
676.099	1678.31
676.289	1407.98
676.48	1645.54
676.671	1704.93
676.861	1526.76
677.052	1457.13
677.243	1657.83
677.433	1532.9
677.624	1620.97
677.814	1526.76
678.005	1713.13
678.195	1829.86
678.386	1410.03
678.576	1489.9
678.767	1522.66
678.957	1795.04
679.148	1526.76
679.338	1541.1
679.529	1809.38
679.719	1575.91
679.909	1567.72
680.1	1508.33
680.29	1668.07
680.481	1532.9
680.671	1571.82
680.861	1616.87
681.052	1805.28
681.242	1659.88
681.432	1747.94
681.622	1506.28
681.813	1690.6
682.003	1807.33
682.193	1584.1
682.383	1756.13
682.573	1778.66
682.764	1893.35
682.954	1770.47
683.144	1907.68
683.334	1729.51
683.524	1821.67
683.714	1967.07
683.904	1901.54
684.094	1928.16
684.284	2106.34
684.474	2122.72
684.664	2128.86
684.854	2173.92
685.044	2348
685.234	2227.17
685.424	2343.9
685.614	2268.13
685.804	2685.91
685.994	2532.31
686.184	2511.83
686.374	2759.64
686.564	2694.1
686.753	2708.44
686.943	2587.61
687.133	2968.53
687.323	2896.85
687.513	2927.57
687.702	2958.29
687.892	3193.81
688.082	3343.31
688.272	3380.17
688.461	3306.45
688.651	3736.52
688.841	3716.04
689.03	3427.28
689.22	3578.83
689.41	3906.5
689.599	3896.26
689.789	4023.23
689.979	4158.4
690.168	4228.03
690.358	4363.2
690.547	4209.6
690.737	4596.67
690.926	4795.32
691.116	4836.28
691.305	4910.01
691.495	4680.63
691.684	5051.31
691.874	5180.34
692.063	5319.6
692.252	5303.22
692.442	5673.9
692.631	5694.38
692.82	5626.79
693.01	5878.69
693.199	5897.13
693.388	6130.59
693.578	6171.55
693.767	6394.78
693.956	6480.8
694.146	6431.65
694.335	6454.17
694.524	6599.58
694.713	7043.99
694.902	7033.75
695.092	6914.97
695.281	7156.63
695.47	7390.1
695.659	7408.53
695.848	7220.11
696.037	7498.64
696.226	7861.13
696.415	7676.81
696.604	8094.6
696.793	8012.68
696.982	8151.94
697.171	8430.46
697.36	8219.52
697.549	8289.15
697.738	8233.86
697.927	8436.61
698.116	8555.39
698.305	8612.73
698.494	8967.03
698.683	8825.72
698.872	9243.51
699.061	8846.2
699.25	9051
699.438	9280.37
699.627	9294.71
699.816	9558.89
700.005	9456.5
700.193	9505.65
700.382	9634.67
700.571	9532.27
700.76	9692.01
700.948	9855.85
701.137	9595.76
701.326	9857.9
701.514	10079.08
701.703	10218.34
701.892	9896.81
702.08	10195.81
702.269	10273.64
702.457	10330.98
702.646	10251.11
702.834	10431.33
703.023	10484.58
703.212	10582.88
703.4	10425.18
703.589	10376.03
703.777	10658.65
703.965	10509.15
704.154	10470.24
704.342	10519.39
704.531	10744.67
704.719	10775.39
704.907	10718.04
705.096	10525.54
705.284	10812.25
705.472	10738.52
705.661	10861.4
705.849	10867.55
706.037	11086.68
706.226	11058.01
706.414	10783.58
706.602	10838.87
706.79	11223.89
706.979	11045.72
707.167	11021.14
707.355	10636.13
707.543	10959.7
707.731	11113.3
707.919	10928.99
708.107	10906.46
708.296	11111.25
708.484	10943.32
708.672	10898.27
708.86	10900.31
709.048	10984.28
709.236	10933.08
709.424	11010.9
709.612	10883.93
709.8	11033.43
709.988	11199.32
710.176	11019.1
710.364	10924.89
710.551	11031.38
710.739	11010.9
710.927	10853.21
711.115	10842.97
711.303	11244.37
711.491	10986.33
711.679	10564.45
711.866	10877.79
712.054	11088.73
712.242	10951.51
712.43	10914.65
712.617	11015
712.805	10818.39
712.993	10836.83
713.181	10521.44
713.368	10767.2
713.556	11103.06
713.744	10431.33
713.931	10953.56
714.119	10767.2
714.306	10789.72
714.494	10566.49
714.682	10697.56
714.869	10453.86
715.057	10767.2
715.244	10484.58
715.432	10802.01
715.619	10556.25
715.807	10746.72
715.994	10859.35
716.182	10435.42
716.369	10503.01
716.556	10705.76
716.744	10392.42
716.931	10214.24
717.119	10462.05
717.306	10498.91
717.493	10453.86
717.681	10345.31
717.868	10222.44
718.055	10537.82
718.242	10142.57
718.43	10279.78
718.617	10074.98
718.804	10140.52
718.991	10206.05
719.179	10025.83
719.366	10017.64
719.553	10238.82
719.74	9894.76
719.927	9890.67
720.114	9753.45
720.301	9923.43
720.488	9808.75
720.676	9825.13
720.863	9921.38
721.05	10099.56
721.237	10140.52
721.424	9685.87
721.611	9763.69
721.798	9532.27
721.985	9687.92
722.172	9411.44
722.358	9636.72
722.545	9632.62
722.732	9657.2
722.919	9431.92
723.106	9261.94
723.293	9429.87
723.48	9380.72
723.667	9444.21
723.853	9239.41
724.04	9554.8
724.227	9460.59
724.414	9198.45
724.6	9343.86
724.787	9495.41
724.974	9423.73
725.161	9180.02
725.347	8932.22
725.534	9239.41
725.72	9225.08
725.907	9116.53
726.094	9096.05
726.28	8954.74
726.467	9026.42
726.653	8598.4
726.84	8864.63
727.027	9104.25
727.213	8811.39
727.4	8846.2
727.586	8559.49
727.773	9012.09
727.959	8747.9
728.145	8676.22
728.332	8440.7
728.518	8727.42
728.705	8711.04
728.891	8489.85
729.077	8534.91
729.264	8416.13
729.45	8520.57
729.636	8608.64
729.823	8242.05
730.009	8827.77
730.195	8405.89
730.382	8278.91
730.568	8264.58
730.754	8307.59
730.94	8321.92
731.126	8231.81
731.313	8067.97
731.499	8293.25
731.685	8258.43
731.871	8108.93
732.057	8096.64
732.243	8373.12
732.429	8229.76
732.615	7979.91
732.801	7953.29
732.987	7902.09
733.173	7981.96
733.359	7863.18
733.545	7777.16
733.731	7891.85
733.917	7986.05
734.103	7908.23
734.289	7795.59
734.475	7650.19
734.661	8061.83
734.847	7469.97
735.033	7480.21
735.219	7654.28
735.404	7693.19
735.59	7500.69
735.776	7394.19
735.962	7670.67
736.148	7773.07
736.333	7463.82
736.519	7476.11
736.705	7472.01
736.89	7279.5
737.076	7265.17
737.262	7201.68
737.447	7330.7
737.633	7134.1
737.819	7205.78
738.004	6953.88
738.19	7068.56
738.375	7218.07
738.561	7361.42
738.747	6988.69
738.932	6945.69
739.118	7273.36
739.303	6974.36
739.489	7105.43
739.674	7021.46
739.859	6787.99
740.045	6570.91
740.23	6706.07
740.416	6554.52
740.601	6734.75
740.786	6546.33
740.972	6411.17
741.157	6497.18
741.342	6445.98
741.528	6349.73
741.713	6527.9
741.898	6464.41
742.084	6445.98
742.269	6431.65
742.454	6286.24
742.639	6581.15
742.824	6253.47
743.01	6343.58
743.195	6282.14
743.38	6310.82
743.565	6189.99
743.75	5958.57
743.935	6030.24
744.12	6339.49
744.305	5944.23
744.49	6001.57
744.675	5772.2
744.86	5866.41
745.045	6138.79
745.23	5694.38
745.415	5657.51
745.6	6091.68
745.785	5700.52
745.97	5733.29
746.155	5606.31
746.34	6026.15
746.525	5888.93
746.71	5718.95
746.895	5333.93
747.079	5432.24
747.264	5432.24
747.449	5516.2
747.634	5309.36
747.819	5579.69
748.003	5401.52
748.188	5077.94
748.373	5102.51
748.557	5481.39
748.742	5176.24
748.927	5079.99
749.111	5057.46
749.296	5186.48
749.481	5262.26
749.665	5059.51
749.85	4959.16
750.034	5024.69
750.219	4969.4
750.404	4793.27
750.588	4772.79
750.773	4873.14
750.957	4797.37
751.141	4615.1
751.326	4953.01
751.51	4660.15
751.695	4692.92
751.879	4533.18
752.064	4629.43
752.248	4443.07
752.432	4774.84
752.617	4533.18
752.801	4416.44
752.985	4520.89
753.17	4699.06
753.354	4441.02
753.538	4453.31
753.722	4438.97
753.907	4383.68
754.091	4117.44
754.275	4058.05
754.459	4043.71
754.643	4111.3
754.828	4092.87
755.012	4023.23
755.196	3990.47
755.38	4150.21
755.564	4000.71
755.748	3775.43
755.932	4053.95
756.116	4010.95
756.3	3906.5
756.484	3793.86
756.668	4074.43
756.852	3797.96
757.036	3576.78
757.22	3654.6
757.404	3754.95
757.588	3851.21
757.772	3699.66
757.956	3654.6
758.14	3879.88
758.323	3488.71
758.507	3601.35
758.691	3552.2
758.875	3701.7
759.059	3857.35
759.242	3472.33
759.426	3386.32
759.61	3517.39
759.794	3367.88
759.977	3537.87
760.161	3759.05
760.345	3521.48
760.528	3445.71
760.712	3408.84
760.895	3214.29
761.079	3341.26
761.263	3101.65
761.446	3046.35
761.63	2927.57
761.813	3234.77
761.997	3021.78
762.18	3103.7
762.364	3271.63
762.547	2835.41
762.731	3107.79
762.914	3113.94
763.098	2939.86
763.281	3077.07
763.464	2974.67
763.648	2876.37
763.831	2909.14
764.015	2966.48
764.198	3322.83
764.381	2845.65
764.564	2741.21
764.748	3044.31
764.931	2993.11
765.114	2804.69
765.297	2972.63
765.481	2929.62
765.664	2843.6
765.847	2894.8
766.03	2841.56
766.213	2804.69
766.397	2868.18
766.58	2745.3
766.763	2792.41
766.946	2839.51
767.129	2702.29
767.312	2780.12
767.495	2735.06
767.678	2765.78
767.861	2735.06
768.044	2675.67
768.227	2726.87
768.41	2800.6
768.593	2859.99
768.776	2784.21
768.959	2778.07
769.142	3015.63
769.324	2745.3
769.507	2595.8
769.69	2649.05
769.873	2753.49
770.056	2946
770.239	2786.26
770.421	2843.6
770.604	2638.81
770.787	2651.1
770.97	2653.14
771.152	2395.1
771.335	2690.01
771.518	2503.64
771.7	2567.13
771.883	2792.41
772.066	2565.08
772.248	2647
772.431	2495.45
772.613	2452.44
772.796	2446.3
772.978	2556.89
773.161	2704.34
773.343	2440.15
773.526	2413.53
773.708	2266.08
773.891	2196.45
774.073	2388.96
774.256	2417.63
774.438	2634.71
774.621	2327.52
774.803	2483.16
774.985	2372.57
775.168	2477.02
775.35	2221.02
775.532	2249.69
775.715	2313.18
775.897	2276.32
776.079	2231.26
776.261	2309.08
776.444	2290.65
776.626	2143.2
776.808	2182.11
776.99	1842.15
777.173	2231.26
777.355	2278.37
777.537	2079.71
777.719	2126.82
777.901	2085.86
778.083	2016.23
778.265	2022.37
778.447	1901.54
778.629	1903.59
778.811	2001.89
778.993	2032.61
779.175	1917.92
779.357	1999.84
779.539	1774.56
779.721	1795.04
779.903	1829.86
780.085	1836
780.267	1997.79
780.449	1729.51
780.631	1846.24
780.812	2010.08
780.994	1889.25
781.176	1672.17
781.358	1547.24
781.54	1754.09
781.721	1915.87
781.903	1586.15
782.085	1719.27
782.267	1858.53
782.448	1524.71
782.63	1756.13
782.812	1711.08
782.993	1772.52
783.175	1848.29
783.357	1528.81
783.538	1596.39
783.72	1588.2
783.901	1668.07
784.083	1618.92
784.264	1547.24
784.446	1434.6
784.627	1412.07
784.809	1549.29
784.99	1385.45
785.172	1602.54
785.353	1537
785.535	1403.88
785.716	1289.2
785.897	1342.44
786.079	1545.19
786.26	1340.4
786.441	1475.56
786.623	1238
786.804	1211.37
786.985	1231.85
787.167	1391.59
787.348	1383.4
787.529	1262.57
787.71	1297.39
787.891	1313.77
788.073	1350.64
788.254	1092.59
788.435	1346.54
788.616	1156.08
788.797	1268.72
788.978	1211.37
789.159	1104.88
789.34	1207.28
789.522	1199.09
789.703	1102.83
789.884	1211.37
790.065	1238
790.246	1450.99
790.427	1217.52
790.607	1188.85
790.788	1248.24
790.969	1082.35
791.15	1186.8
791.331	1020.91
791.512	1025.01
791.693	1055.73
791.874	1074.16
792.054	1303.53
792.235	1123.31
792.416	1025.01
792.597	1031.15
792.778	1135.6
792.958	1061.87
793.139	1143.79
793.32	1137.65
793.5	869.36
793.681	996.34
793.862	1162.22
794.042	1045.49
794.223	873.46
794.404	852.98
794.584	836.6
794.765	1053.68
794.945	947.19
795.126	932.85
795.306	1022.96
795.487	967.67
795.667	855.03
795.848	859.12
796.028	982
796.209	953.33
796.389	1039.34
796.57	883.7
796.75	822.26
796.93	834.55
797.111	775.16
797.291	826.36
797.471	945.14
797.652	803.83
797.832	728.05
798.012	826.36
798.192	742.39
798.373	603.13
798.553	871.41
798.733	852.98
798.913	797.68
799.093	762.87
799.274	787.44
799.454	791.54
799.634	957.43
799.814	900.08
799.994	822.26
800.174	867.31
800.354	824.31
800.534	556.02
800.714	695.29
800.894	510.97
801.074	697.33
801.254	685.05
801.434	914.42
801.614	580.6
801.794	668.66
801.974	4973.49
802.154	541.69
802.334	723.96
802.514	605.17
802.693	621.56
802.873	500.73
803.053	648.18
803.233	816.12
803.413	746.48
803.592	486.39
803.772	533.5
803.952	699.38
804.131	623.61
804.311	680.95
804.491	701.43
804.67	558.07
804.85	531.45
805.03	683
805.209	728.05
805.389	662.52
805.568	695.29
805.748	594.93
805.928	541.69
806.107	746.48
806.287	799.73
806.466	713.72
806.646	492.54
806.825	683
807.004	510.97
807.184	592.89
807.363	633.85
807.543	705.53
807.722	375.8
807.901	736.24
808.081	627.7
808.26	271.36
808.439	584.7
808.619	543.74
808.798	478.2
808.977	627.7
809.156	721.91
809.336	662.52
809.515	562.17
809.694	531.45
809.873	435.19
810.052	470.01
810.231	668.66
810.411	625.65
810.59	635.89
810.769	453.63
810.948	584.7
811.127	351.23
811.306	416.76
811.485	330.75
811.664	551.93
811.843	523.26
812.022	506.87
812.201	388.09
812.38	367.61
812.559	418.81
812.737	556.02
812.916	295.93
813.095	367.61
813.274	637.94
813.453	517.11
813.632	429.05
813.811	474.1
813.989	306.17
814.168	607.22
814.347	310.27
814.526	275.45
814.704	703.48
814.883	687.09
815.062	152.57
815.24	351.23
815.419	230.4
815.598	494.58
815.776	244.73
815.955	355.32
816.133	191.49
816.312	445.43
816.49	302.08
816.669	361.47
816.847	527.35
817.026	465.91
817.204	394.23
817.383	334.84
817.561	383.99
817.74	470.01
817.918	357.37
818.097	314.36
818.275	238.59
818.453	502.78
818.632	420.86
818.81	369.66
818.988	463.86
819.167	416.76
819.345	326.65
819.523	273.4
819.701	340.99
819.879	457.72
820.058	334.84
820.236	291.84
820.414	482.3
820.592	312.32
820.77	349.18
820.948	142.33
821.127	332.79
821.305	402.43
821.483	240.64
821.661	330.75
821.839	408.57
822.017	238.59
822.195	250.88
822.373	336.89
822.551	441.34
822.729	433.15
822.907	216.06
823.085	414.71
823.262	396.28
823.44	261.12
823.618	263.16
823.796	269.31
823.974	289.79
824.152	277.5
824.329	273.4
824.507	322.56
824.685	453.63
824.863	287.74
825.04	386.04
825.218	297.98
825.396	381.95
825.574	320.51
825.751	379.9
825.929	240.64
826.107	181.25
826.284	410.62
826.462	259.07
826.639	130.05
826.817	64.51
826.994	283.64
827.172	113.66
827.349	318.46
827.527	392.19
827.704	316.41
827.882	424.95
828.059	308.22
828.237	230.4
828.414	490.49
828.591	93.18
828.769	140.29
828.946	240.64
829.124	383.99
829.301	422.91
829.478	154.62
829.655	377.85
829.833	273.4
830.01	-25.6
830.187	383.99
830.364	302.08
830.542	420.86
830.719	257.02
830.896	244.73
831.073	351.23
831.25	283.64
831.427	201.72
831.604	148.48
831.782	195.58
831.959	392.19
832.136	187.39
832.313	246.78
832.49	289.79
832.667	359.42
832.844	74.75
833.021	326.65
833.198	302.08
833.374	386.04
833.551	160.77
833.728	220.16
833.905	359.42
834.082	89.09
834.259	289.79
834.436	373.75
834.612	207.87
834.789	388.09
834.966	187.39
835.143	220.16
835.319	132.09
835.496	361.47
835.673	134.14
835.85	224.25
836.026	367.61
836.203	461.82
836.38	218.11
836.556	156.67
836.733	173.05
836.909	459.77
837.086	189.44
837.262	68.61
837.439	175.1
837.616	142.33
837.792	189.44
837.968	250.88
838.145	44.03
838.321	195.58
838.498	173.05
838.674	287.74
838.851	234.49
839.027	187.39
839.203	138.24
839.38	271.36
839.556	138.24
839.732	398.33
839.909	109.57
840.085	171.01
840.261	162.81
840.437	240.64
840.614	136.19
840.79	220.16
840.966	390.14
841.142	295.93
841.318	148.48
841.494	226.3
841.671	369.66
841.847	132.09
842.023	-1.02
842.199	214.01
842.375	467.96
842.551	72.7
842.727	50.18
842.903	295.93
843.079	76.8
843.255	459.77
843.431	117.76
843.607	214.01
843.783	-11.26
843.959	312.32
844.134	193.53
844.31	218.11
844.486	193.53
844.662	109.57
844.838	218.11
845.013	136.19
845.189	357.37
845.365	252.92
845.541	162.81
845.716	230.4
845.892	363.51
846.068	179.2
846.244	140.29
846.419	115.71
846.595	89.09
846.77	76.8
846.946	244.73
847.122	72.7
847.297	156.67
847.473	379.9
847.648	35.84
847.824	64.51
847.999	-13.31
848.175	267.26
848.35	275.45
848.526	277.5
848.701	320.51
848.876	304.12
849.052	269.31
849.227	105.47
849.403	187.39
849.578	205.82
849.753	214.01
849.929	185.34
850.104	35.84
850.279	234.49
850.454	195.58
850.63	207.87
850.805	250.88
850.98	265.21
851.155	89.09
851.33	275.45
851.505	-31.74
851.681	295.93
851.856	152.57
852.031	209.92
852.206	154.62
852.381	121.85
852.556	164.86
852.731	23.55
852.906	338.94
853.081	166.91
853.256	336.89
853.431	-48.13
853.606	140.29
853.781	87.04
853.956	17.41
854.131	156.67
854.305	64.51
854.48	179.2
854.655	121.85
854.83	121.85
855.005	171.01
855.18	199.68
855.354	123.9
855.529	27.65
855.704	199.68
855.879	320.51
856.053	99.33
856.228	160.77
856.403	107.52
856.577	238.59
856.752	66.56
856.926	107.52
857.101	265.21
857.276	48.13
857.45	140.29
857.625	183.29
857.799	154.62
857.974	146.43
858.148	-97.28
858.323	144.38
858.497	150.53
858.672	162.81
858.846	60.42
859.02	164.86
859.195	62.46
859.369	154.62
859.543	181.25
859.718	152.57
859.892	300.03
860.066	285.69
860.241	64.51
860.415	39.94
860.589	168.96
860.763	76.8
860.938	103.42
861.112	60.42
861.286	185.34
861.46	246.78
861.634	138.24
861.808	168.96
861.982	48.13
862.157	19.46
862.331	136.19
862.505	-35.84
862.679	21.5
862.853	95.23
863.027	113.66
863.201	121.85
863.375	48.13
863.549	218.11
863.722	234.49
863.896	154.62
864.07	52.22
864.244	93.18
864.418	185.34
864.592	99.33
864.766	238.59
864.939	95.23
865.113	15.36
865.287	154.62
865.461	27.65
865.634	134.14
865.808	66.56
865.982	50.18
866.156	-72.7
866.329	1.02
866.503	160.77
866.676	189.44
866.85	154.62
867.024	50.18
867.197	173.05
867.371	76.8
867.544	279.55
867.718	-39.94
867.891	146.43
868.065	-9.22
868.238	158.72
868.412	295.93
868.585	84.99
868.759	78.85
868.932	154.62
869.105	-48.13
869.279	183.29
869.452	-31.74
869.625	293.88
869.799	39.94
869.972	-44.03
870.145	52.22
870.319	312.32
870.492	54.27
870.665	111.61
870.838	29.7
871.011	-89.09
871.185	181.25
871.358	15.36
871.531	236.54
871.704	62.46
871.877	171.01
872.05	1.02
872.223	19.46
872.396	295.93
872.569	224.25
872.742	-15.36
872.915	162.81
873.088	140.29
873.261	-54.27
873.434	119.81
873.607	89.09
873.78	345.08
873.953	3.07
874.126	72.7
874.299	160.77
874.471	78.85
874.644	117.76
874.817	171.01
874.99	254.97
875.163	99.33
875.335	166.91
875.508	5.12
875.681	164.86
875.853	189.44
876.026	93.18
876.199	195.58
876.371	74.75
876.544	58.37
876.717	265.21
876.889	58.37
877.062	128
877.234	-39.94
877.407	50.18
877.579	70.65
877.752	148.48
877.924	244.73
878.097	179.2
878.269	187.39
878.442	119.81
878.614	146.43
878.786	205.82
878.959	74.75
879.131	60.42
879.303	-39.94
879.476	95.23
879.648	209.92
879.82	-50.18
879.993	132.09
880.165	50.18
880.337	-33.79
880.509	166.91
880.681	-1.02
880.854	78.85
881.026	140.29
881.198	168.96
881.37	201.72
881.542	123.9
881.714	82.94
881.886	44.03
882.058	171.01
882.23	197.63
882.402	134.14
882.574	89.09
882.746	257.02
882.918	216.06
883.09	162.81
883.262	7.17
883.434	177.15
883.606	-132.09
883.778	105.47
883.95	173.05
884.122	111.61
884.293	269.31
884.465	113.66
884.637	164.86
884.809	33.79
884.98	166.91
885.152	203.77
885.324	125.95
885.496	-9.22
885.667	50.18
885.839	50.18
886.011	44.03
886.182	183.29
886.354	214.01
886.525	164.86
886.697	50.18
886.869	46.08
887.04	52.22
887.212	246.78
887.383	177.15
887.555	101.37
887.726	76.8
887.897	31.74
888.069	115.71
888.24	295.93
888.412	179.2
888.583	107.52
888.754	-7.17
888.926	-9.22
889.097	21.5
889.268	-27.65
889.44	58.37
889.611	-78.85
889.782	27.65
889.953	-48.13
890.125	181.25
890.296	-27.65
890.467	9.22
890.638	21.5
890.809	48.13
890.98	-5.12
891.151	230.4
891.323	177.15
891.494	-70.65
891.665	115.71
891.836	195.58
892.007	25.6
892.178	138.24
892.349	134.14
892.52	97.28
892.691	-3.07
892.862	-7.17
893.032	-95.23
893.203	70.65
893.374	160.77
893.545	130.05
893.716	41.98
893.887	214.01
894.057	66.56
894.228	29.7
894.399	48.13
894.57	252.92
894.74	142.33
894.911	130.05
895.082	107.52
895.253	74.75
895.423	138.24
895.594	216.06
895.764	267.26
895.935	1.02
896.106	82.94
896.276	-50.18
896.447	177.15
896.617	-23.55
896.788	-52.22
896.958	-3.07
897.129	3.07
897.299	-64.51
897.47	242.68
897.64	107.52
897.81	128
897.981	216.06
898.151	39.94
898.322	150.53
898.492	230.4
898.662	-9.22
898.832	3.07
899.003	64.51
899.173	183.29
899.343	-39.94
899.513	-37.89
