Data from USB4F104151__9__11-48-37-176.txt Node

Date: Wed Feb 19 11:48:37 EST 2025
User: louis
Spectrometer: USB4F10415
Trigger mode: 4
Integration Time (sec): 2.250200E-1
Scans to average: 1
Electric dark correction enabled: true
Nonlinearity correction enabled: false
Boxcar width: 0
XAxis mode: Wavelengths
Number of Pixels in Spectrum: 3648
>>>>>Begin Spectral Data<<<<<
178.204	-825.5
178.424	-825.5
178.644	-825.5
178.864	-815.26
179.084	-772.25
179.304	137.04
179.524	132.95
179.744	48.98
179.964	-186.54
180.184	282.45
180.404	157.52
180.624	-290.98
180.844	-141.48
181.064	30.55
181.283	206.67
181.503	-217.26
181.723	-159.91
181.943	-116.9
182.163	452.43
182.383	-266.41
182.602	-225.45
182.822	434
183.042	161.62
183.262	-225.45
183.482	-188.58
183.701	132.95
183.921	194.39
184.141	-207.02
184.361	-153.77
184.58	235.35
184.8	292.69
185.02	-207.02
185.239	-104.62
185.459	227.15
185.679	329.55
185.898	-364.71
186.118	-215.21
186.338	280.4
186.557	304.98
186.777	-223.4
186.997	-231.59
187.216	184.15
187.436	538.45
187.655	-131.24
187.875	-20.65
188.095	124.76
188.314	292.69
188.534	-26.79
188.753	-227.5
188.973	307.02
189.192	417.61
189.412	-260.26
189.631	-200.87
189.851	249.68
190.07	501.58
190.29	-159.91
190.509	-174.25
190.729	153.43
190.948	380.75
191.168	5.97
191.387	-164.01
191.607	143.19
191.826	182.1
192.045	-137.38
192.265	-159.91
192.484	204.63
192.704	124.76
192.923	-170.15
193.142	-71.85
193.362	321.36
193.581	436.05
193.8	-57.51
194.02	-118.95
194.239	190.29
194.458	319.31
194.678	-116.9
194.897	-235.69
195.116	276.31
195.335	198.48
195.555	-100.52
195.774	-254.12
195.993	333.65
196.212	145.24
196.432	-114.86
196.651	-282.79
196.87	167.76
197.089	569.16
197.308	-211.11
197.528	-180.39
197.747	59.22
197.966	190.29
198.185	-30.89
198.404	-262.31
198.623	284.5
198.842	350.03
199.062	-135.34
199.281	-75.95
199.5	225.11
199.719	225.11
199.938	-217.26
200.157	-178.34
200.376	350.03
200.595	366.42
200.814	-121
201.033	-190.63
201.252	485.2
201.471	194.39
201.69	-188.58
201.909	-151.72
202.128	347.98
202.347	237.39
202.566	-121
202.785	-329.89
203.004	143.19
203.223	530.25
203.442	-131.24
203.661	-293.03
203.879	266.07
204.098	255.83
204.317	-268.45
204.536	34.64
204.755	309.07
204.974	378.7
205.193	-241.83
205.411	-96.43
205.63	423.76
205.849	288.59
206.068	-204.97
206.287	-247.97
206.505	356.18
206.724	204.63
206.943	-168.1
207.162	-168.1
207.381	173.91
207.599	163.67
207.818	-108.71
208.037	-219.3
208.255	190.29
208.474	202.58
208.693	-155.82
208.911	-194.73
209.13	358.22
209.349	259.92
209.567	-10.41
209.786	-170.15
210.005	386.9
210.223	139.09
210.442	-348.33
210.661	-313.51
210.879	268.11
211.098	110.42
211.316	-69.8
211.535	-153.77
211.753	153.43
211.972	331.6
212.191	-219.3
212.409	-129.19
212.628	264.02
212.846	53.08
213.065	-254.12
213.283	-84.14
213.502	251.73
213.72	171.86
213.938	-168.1
214.157	-223.4
214.375	319.31
214.594	53.08
214.812	-123.05
215.031	-192.68
215.249	247.63
215.467	249.68
215.686	-86.19
215.904	-118.95
216.122	165.71
216.341	378.7
216.559	18.26
216.778	-88.23
216.996	358.22
217.214	137.04
217.432	-135.34
217.651	-280.74
217.869	247.63
218.087	221.01
218.306	-288.93
218.524	-161.96
218.742	186.19
218.96	278.35
219.179	-209.06
219.397	-211.11
219.615	470.86
219.833	239.44
220.051	-262.31
220.27	-118.95
220.488	390.99
220.706	272.21
220.924	-200.87
221.142	-188.58
221.36	264.02
221.578	235.35
221.796	-209.06
222.015	-88.23
222.233	302.93
222.451	347.98
222.669	-149.67
222.887	-88.23
223.105	175.95
223.323	143.19
223.541	-135.34
223.759	-75.95
223.977	241.49
224.195	397.14
224.413	-108.71
224.631	-51.37
224.849	239.44
225.067	505.68
225.285	-77.99
225.503	-241.83
225.721	-73.9
225.939	147.28
226.157	-104.62
226.375	1.88
226.592	104.28
226.81	182.1
227.028	8.02
227.246	-153.77
227.464	202.58
227.682	253.78
227.9	-157.86
228.117	-2.22
228.335	235.35
228.553	184.15
228.771	-108.71
228.989	-139.43
229.206	208.72
229.424	85.84
229.642	-121
229.86	-135.34
230.077	345.94
230.295	229.2
230.513	16.21
230.731	-112.81
230.948	454.48
231.166	395.09
231.384	-116.9
231.601	-184.49
231.819	411.47
232.037	118.61
232.254	-125.1
232.472	-137.38
232.689	110.42
232.907	317.26
233.125	-186.54
233.342	-290.98
233.56	42.84
233.777	51.03
233.995	-231.59
234.213	-77.99
234.43	302.93
234.648	171.86
234.865	-219.3
235.083	-49.32
235.3	221.01
235.518	282.45
235.735	-116.9
235.953	-155.82
236.17	210.77
236.388	132.95
236.605	16.21
236.822	-67.75
237.04	327.5
237.257	264.02
237.475	-118.95
237.692	-112.81
237.909	403.28
238.127	182.1
238.344	-22.7
238.562	-153.77
238.779	65.36
238.996	-6.31
239.214	-102.57
239.431	-108.71
239.648	124.76
239.865	245.59
240.083	-116.9
240.3	-174.25
240.517	14.17
240.735	128.85
240.952	28.5
241.169	-184.49
241.386	311.12
241.603	112.47
241.821	-184.49
242.038	-137.38
242.255	341.84
242.472	61.27
242.689	-172.2
242.907	-143.53
243.124	108.37
243.341	151.38
243.558	-88.23
243.775	-204.97
243.992	-2.22
244.209	311.12
244.426	-4.27
244.643	-92.33
244.86	106.32
245.078	323.41
245.295	-100.52
245.512	-184.49
245.729	98.13
245.946	247.63
246.163	-118.95
246.38	-186.54
246.597	229.2
246.814	175.95
247.031	-106.67
247.248	-231.59
247.464	243.54
247.681	128.85
247.898	-123.05
248.115	-84.14
248.332	61.27
248.549	333.65
248.766	-6.31
248.983	-94.38
249.2	270.16
249.417	378.7
249.633	-184.49
249.85	-4.27
250.067	91.99
250.284	188.24
250.501	-178.34
250.717	-129.19
250.934	22.36
251.151	241.49
251.368	-112.81
251.585	-137.38
251.801	218.96
252.018	14.17
252.235	10.07
252.451	-176.3
252.668	116.56
252.885	302.93
253.102	-94.38
253.318	-129.19
253.535	91.99
253.752	118.61
253.968	-207.02
254.185	-227.5
254.401	241.49
254.618	317.26
254.835	-45.23
255.051	-102.57
255.268	313.17
255.484	63.32
255.701	-108.71
255.917	-51.37
256.134	57.17
256.351	249.68
256.567	-147.62
256.784	8.02
257	-16.55
257.217	362.32
257.433	42.84
257.65	-159.91
257.866	323.41
258.082	67.41
258.299	-137.38
258.515	-77.99
258.732	132.95
258.948	46.93
259.165	-139.43
259.381	-82.09
259.597	225.11
259.814	124.76
260.03	-108.71
260.246	-145.58
260.463	259.92
260.679	335.7
260.895	-75.95
261.112	-65.71
261.328	229.2
261.544	44.88
261.761	-104.62
261.977	-176.3
262.193	26.45
262.409	257.87
262.626	3.93
262.842	-22.7
263.058	141.14
263.274	325.46
263.49	22.36
263.707	-125.1
263.923	315.22
264.139	14.17
264.355	-30.89
264.571	-53.42
264.787	317.26
265.004	300.88
265.22	-2.22
265.436	-22.7
265.652	98.13
265.868	214.87
266.084	-71.85
266.3	-88.23
266.516	69.46
266.732	208.72
266.948	-84.14
267.164	-225.45
267.38	313.17
267.596	196.43
267.812	24.4
268.028	-96.43
268.244	132.95
268.46	192.34
268.676	-151.72
268.892	-12.46
269.108	104.28
269.324	91.99
269.54	-69.8
269.756	-4.27
269.972	36.69
270.188	200.53
270.403	-161.96
270.619	-112.81
270.835	239.44
271.051	247.63
271.267	-170.15
271.483	-233.64
271.698	290.64
271.914	178
272.13	-18.6
272.346	-211.11
272.562	241.49
272.777	378.7
272.993	-24.75
273.209	-137.38
273.425	266.07
273.64	-59.56
273.856	-118.95
274.072	-313.51
274.287	61.27
274.503	264.02
274.719	44.88
274.934	-188.58
275.15	20.31
275.366	104.28
275.581	-63.66
275.797	-80.04
276.012	132.95
276.228	55.12
276.444	-116.9
276.659	53.08
276.875	48.98
277.09	87.89
277.306	-88.23
277.521	-67.75
277.737	212.82
277.952	147.28
278.168	-65.71
278.383	-92.33
278.599	104.28
278.814	272.21
279.03	-200.87
279.245	36.69
279.461	102.23
279.676	165.71
279.892	32.6
280.107	-28.84
280.322	182.1
280.538	253.78
280.753	-98.47
280.969	-127.14
281.184	227.15
281.399	290.64
281.615	32.6
281.83	44.88
282.045	42.84
282.26	77.65
282.476	-96.43
282.691	5.97
282.906	272.21
283.122	126.8
283.337	-118.95
283.552	-41.13
283.767	59.22
283.983	155.47
284.198	-84.14
284.413	-143.53
284.628	26.45
284.843	141.14
285.058	-10.41
285.274	-94.38
285.489	22.36
285.704	161.62
285.919	-84.14
286.134	-12.46
286.349	124.76
286.564	94.04
286.779	98.13
286.995	-14.51
287.21	-16.55
287.425	272.21
287.64	-84.14
287.855	114.52
288.07	-90.28
288.285	261.97
288.5	-39.08
288.715	8.02
288.93	106.32
289.145	59.22
289.36	-69.8
289.575	-34.99
289.79	237.39
290.004	114.52
290.219	14.17
290.434	-131.24
290.649	59.22
290.864	77.65
291.079	-80.04
291.294	10.07
291.509	204.63
291.724	83.8
291.938	-82.09
292.153	-16.55
292.368	175.95
292.583	206.67
292.798	-20.65
293.012	5.97
293.227	169.81
293.442	94.04
293.657	22.36
293.871	28.5
294.086	212.82
294.301	368.46
294.516	-53.42
294.73	42.84
294.945	135
295.16	159.57
295.374	63.32
295.589	-8.36
295.804	22.36
296.018	83.8
296.233	-39.08
296.447	30.55
296.662	57.17
296.877	380.75
297.091	51.03
297.306	-26.79
297.52	63.32
297.735	202.58
297.949	40.79
298.164	-84.14
298.378	169.81
298.593	18.26
298.807	-69.8
299.022	24.4
299.236	360.27
299.451	67.41
299.665	-125.1
299.88	30.55
300.094	225.11
300.309	38.74
300.523	-57.51
300.737	-20.65
300.952	319.31
301.166	237.39
301.381	-55.47
301.595	-45.23
301.809	79.7
302.024	67.41
302.238	-10.41
302.452	186.19
302.667	155.47
302.881	280.4
303.095	-10.41
303.309	-2.22
303.524	46.93
303.738	20.31
303.952	-4.27
304.166	53.08
304.381	-71.85
304.595	321.36
304.809	-26.79
305.023	-108.71
305.237	151.38
305.452	77.65
305.666	51.03
305.88	44.88
306.094	214.87
306.308	149.33
306.522	-112.81
306.736	51.03
306.95	272.21
307.164	126.8
307.379	73.56
307.593	75.6
307.807	223.06
308.021	233.3
308.235	89.94
308.449	-159.91
308.663	100.18
308.877	487.25
309.091	14.17
309.305	40.79
309.519	-67.75
309.733	233.3
309.947	-61.61
310.161	-53.42
310.374	186.19
310.588	276.31
310.802	-69.8
311.016	-67.75
311.23	141.14
311.444	61.27
311.658	3.93
311.872	173.91
312.085	300.88
312.299	292.69
312.513	171.86
312.727	-80.04
312.941	44.88
313.154	98.13
313.368	-43.18
313.582	38.74
313.796	184.15
314.009	110.42
314.223	184.15
314.437	100.18
314.651	192.34
314.864	38.74
315.078	-30.89
315.292	-98.47
315.505	32.6
315.719	161.62
315.933	55.12
316.146	-86.19
316.36	-45.23
316.573	141.14
316.787	186.19
317.001	67.41
317.214	5.97
317.428	139.09
317.641	-94.38
317.855	-2.22
318.068	135
318.282	55.12
318.495	87.89
318.709	-73.9
318.922	159.57
319.136	253.78
319.349	67.41
319.563	-37.03
319.776	221.01
319.99	-47.27
320.203	-41.13
320.417	3.93
320.63	159.57
320.843	323.41
321.057	-20.65
321.27	-14.51
321.483	274.26
321.697	132.95
321.91	-94.38
322.124	-24.75
322.337	155.47
322.55	-22.7
322.763	-2.22
322.977	-73.9
323.19	34.64
323.403	143.19
323.617	12.12
323.83	180.05
324.043	124.76
324.256	167.76
324.469	-252.07
324.683	57.17
324.896	206.67
325.109	126.8
325.322	-170.15
325.535	24.4
325.748	274.26
325.962	83.8
326.175	-10.41
326.388	-37.03
326.601	210.77
326.814	63.32
327.027	100.18
327.24	81.75
327.453	-28.84
327.666	120.66
327.879	255.83
328.092	67.41
328.305	268.11
328.518	104.28
328.731	26.45
328.944	-10.41
329.157	180.05
329.37	-6.31
329.583	141.14
329.796	110.42
330.009	-59.56
330.222	239.44
330.435	51.03
330.648	-51.37
330.861	190.29
331.073	206.67
331.286	32.6
331.499	-2.22
331.712	42.84
331.925	96.08
332.138	-45.23
332.35	57.17
332.563	96.08
332.776	280.4
332.989	-41.13
333.202	-100.52
333.414	161.62
333.627	151.38
333.84	-57.51
334.053	14.17
334.265	3.93
334.478	81.75
334.691	-57.51
334.903	112.47
335.116	18.26
335.329	159.57
335.541	-14.51
335.754	247.63
335.966	114.52
336.179	175.95
336.392	-28.84
336.604	79.7
336.817	151.38
337.029	218.96
337.242	-0.17
337.454	59.22
337.667	106.32
337.88	261.97
338.092	34.64
338.305	71.51
338.517	38.74
338.729	173.91
338.942	16.21
339.154	-39.08
339.367	-12.46
339.579	204.63
339.792	-118.95
340.004	-4.27
340.217	124.76
340.429	186.19
340.641	26.45
340.854	-131.24
341.066	151.38
341.278	182.1
341.491	147.28
341.703	-63.66
341.915	36.69
342.128	268.11
342.34	71.51
342.552	-26.79
342.764	159.57
342.977	65.36
343.189	42.84
343.401	98.13
343.613	-6.31
343.826	110.42
344.038	-75.95
344.25	34.64
344.462	18.26
344.674	128.85
344.886	-151.72
345.099	34.64
345.311	198.48
345.523	83.8
345.735	-112.81
345.947	34.64
346.159	167.76
346.371	102.23
346.583	-30.89
346.795	71.51
347.007	46.93
347.219	216.91
347.431	-2.22
347.643	104.28
347.855	91.99
348.067	272.21
348.279	-90.28
348.491	-43.18
348.703	313.17
348.915	110.42
349.127	-67.75
349.339	-28.84
349.551	102.23
349.763	216.91
349.975	1.88
350.187	81.75
350.399	362.32
350.61	208.72
350.822	-53.42
351.034	44.88
351.246	180.05
351.458	214.87
351.669	1.88
351.881	-47.27
352.093	239.44
352.305	218.96
352.517	-67.75
352.728	71.51
352.94	122.71
353.152	159.57
353.363	-63.66
353.575	53.08
353.787	399.18
353.999	204.63
354.21	104.28
354.422	-53.42
354.633	126.8
354.845	159.57
355.057	71.51
355.268	-45.23
355.48	241.49
355.692	-116.9
355.903	-75.95
356.115	-88.23
356.326	-59.56
356.538	264.02
356.749	-53.42
356.961	122.71
357.172	120.66
357.384	-20.65
357.595	171.86
357.807	-53.42
358.018	186.19
358.23	173.91
358.441	20.31
358.653	-39.08
358.864	57.17
359.075	-26.79
359.287	-75.95
359.498	-57.51
359.709	212.82
359.921	153.43
360.132	75.6
360.344	-55.47
360.555	71.51
360.766	79.7
360.977	-55.47
361.189	100.18
361.4	149.33
361.611	274.26
361.823	22.36
362.034	22.36
362.245	-18.6
362.456	116.56
362.667	159.57
362.879	-168.1
363.09	225.11
363.301	155.47
363.512	-6.31
363.723	-100.52
363.935	12.12
364.146	218.96
364.357	26.45
364.568	83.8
364.779	8.02
364.99	286.54
365.201	-20.65
365.412	61.27
365.623	-118.95
365.834	139.09
366.045	38.74
366.256	57.17
366.467	188.24
366.678	141.14
366.889	24.4
367.1	-55.47
367.311	270.16
367.522	36.69
367.733	94.04
367.944	36.69
368.155	96.08
368.366	206.67
368.577	34.64
368.788	171.86
368.999	32.6
369.209	120.66
369.42	24.4
369.631	272.21
369.842	206.67
370.053	67.41
370.264	-0.17
370.474	-94.38
370.685	268.11
370.896	75.6
371.107	157.52
371.317	-47.27
371.528	141.14
371.739	329.55
371.95	20.31
372.16	-92.33
372.371	-39.08
372.582	110.42
372.792	-51.37
373.003	118.61
373.214	167.76
373.424	165.71
373.635	14.17
373.846	149.33
374.056	139.09
374.267	198.48
374.477	87.89
374.688	-84.14
374.898	311.12
375.109	151.38
375.319	42.84
375.53	77.65
375.74	216.91
375.951	53.08
376.161	87.89
376.372	38.74
376.582	73.56
376.793	194.39
377.003	1.88
377.214	-45.23
377.424	198.48
377.635	231.25
377.845	42.84
378.055	32.6
378.266	-55.47
378.476	175.95
378.686	-45.23
378.897	20.31
379.107	286.54
379.317	233.3
379.528	-164.01
379.738	51.03
379.948	-67.75
380.158	251.73
380.369	67.41
380.579	-18.6
380.789	192.34
380.999	204.63
381.21	77.65
381.42	110.42
381.63	108.37
381.84	229.2
382.05	46.93
382.261	114.52
382.471	276.31
382.681	38.74
382.891	83.8
383.101	22.36
383.311	26.45
383.521	118.61
383.731	-30.89
383.941	175.95
384.151	81.75
384.361	79.7
384.571	24.4
384.781	-32.94
384.991	304.98
385.201	315.22
385.411	122.71
385.621	77.65
385.831	149.33
386.041	128.85
386.251	36.69
386.461	-10.41
386.671	55.12
386.881	120.66
387.091	5.97
387.301	149.33
387.511	178
387.72	171.86
387.93	12.12
388.14	-139.43
388.35	118.61
388.56	214.87
388.769	-34.99
388.979	32.6
389.189	89.94
389.399	235.35
389.609	32.6
389.818	-39.08
390.028	157.52
390.238	210.77
390.447	-57.51
390.657	32.6
390.867	141.14
391.076	18.26
391.286	-51.37
391.496	-84.14
391.705	94.04
391.915	317.26
392.125	-12.46
392.334	24.4
392.544	276.31
392.753	124.76
392.963	44.88
393.172	-71.85
393.382	83.8
393.591	270.16
393.801	-45.23
394.01	36.69
394.22	171.86
394.429	122.71
394.639	44.88
394.848	79.7
395.058	175.95
395.267	118.61
395.477	147.28
395.686	69.46
395.895	399.18
396.105	247.63
396.314	8.02
396.524	18.26
396.733	91.99
396.942	272.21
397.152	12.12
397.361	130.9
397.57	147.28
397.78	204.63
397.989	89.94
398.198	259.92
398.407	178
398.617	132.95
398.826	5.97
399.035	22.36
399.244	184.15
399.453	55.12
399.663	-49.32
399.872	-86.19
400.081	94.04
400.29	255.83
400.499	-75.95
400.708	40.79
400.917	94.04
401.127	120.66
401.336	18.26
401.545	243.54
401.754	331.6
401.963	239.44
402.172	5.97
402.381	-39.08
402.59	106.32
402.799	210.77
403.008	149.33
403.217	26.45
403.426	229.2
403.635	-47.27
403.844	-86.19
404.053	-26.79
404.262	171.86
404.471	321.36
404.68	18.26
404.888	40.79
405.097	100.18
405.306	157.52
405.515	42.84
405.724	-65.71
405.933	300.88
406.142	151.38
406.35	-55.47
406.559	48.98
406.768	77.65
406.977	417.61
407.185	-4.27
407.394	5.97
407.603	-28.84
407.812	108.37
408.02	112.47
408.229	108.37
408.438	216.91
408.646	-71.85
408.855	-80.04
409.064	-86.19
409.272	67.41
409.481	229.2
409.69	-30.89
409.898	-118.95
410.107	130.9
410.315	206.67
410.524	14.17
410.733	36.69
410.941	259.92
411.15	247.63
411.358	-0.17
411.567	116.56
411.775	243.54
411.984	157.52
412.192	100.18
412.401	-4.27
412.609	331.6
412.818	304.98
413.026	32.6
413.234	67.41
413.443	163.67
413.651	77.65
413.86	-157.86
414.068	266.07
414.276	350.03
414.485	102.23
414.693	61.27
414.901	225.11
415.11	225.11
415.318	171.86
415.526	26.45
415.734	120.66
415.943	175.95
416.151	282.45
416.359	44.88
416.567	44.88
416.776	253.78
416.984	243.54
417.192	91.99
417.4	-0.17
417.608	-26.79
417.817	-43.18
418.025	139.09
418.233	36.69
418.441	-4.27
418.649	57.17
418.857	59.22
419.065	91.99
419.273	118.61
419.481	212.82
419.689	36.69
419.897	-61.61
420.105	20.31
420.313	270.16
420.521	81.75
420.729	79.7
420.937	77.65
421.145	-86.19
421.353	61.27
421.561	83.8
421.769	245.59
421.977	89.94
422.185	116.56
422.393	44.88
422.601	206.67
422.809	194.39
423.017	69.46
423.224	57.17
423.432	300.88
423.64	132.95
423.848	-94.38
424.056	-14.51
424.263	251.73
424.471	77.65
424.679	175.95
424.887	-30.89
425.094	479.05
425.302	182.1
425.51	-67.75
425.718	87.89
425.925	149.33
426.133	26.45
426.341	151.38
426.548	38.74
426.756	36.69
426.964	184.15
427.171	18.26
427.379	24.4
427.586	190.29
427.794	231.25
428.001	167.76
428.209	-12.46
428.417	288.59
428.624	247.63
428.832	75.6
429.039	122.71
429.247	190.29
429.454	190.29
429.662	161.62
429.869	12.12
430.076	313.17
430.284	282.45
430.491	122.71
430.699	63.32
430.906	313.17
431.114	143.19
431.321	139.09
431.528	159.57
431.736	167.76
431.943	227.15
432.15	137.04
432.358	34.64
432.565	450.38
432.772	-69.8
432.979	212.82
433.187	-0.17
433.394	386.9
433.601	163.67
433.808	96.08
434.016	235.35
434.223	249.68
434.43	212.82
434.637	132.95
434.844	247.63
435.052	231.25
435.259	196.43
435.466	206.67
435.673	85.84
435.88	302.93
436.087	417.61
436.294	237.39
436.501	239.44
436.708	257.87
436.915	239.44
437.122	225.11
437.329	102.23
437.537	261.97
437.743	126.8
437.95	229.2
438.157	223.06
438.364	247.63
438.571	298.83
438.778	153.43
438.985	298.83
439.192	386.9
439.399	241.49
439.606	182.1
439.813	327.5
440.02	464.72
440.227	524.11
440.433	247.63
440.64	223.06
440.847	366.42
441.054	286.54
441.261	274.26
441.467	259.92
441.674	266.07
441.881	536.4
442.088	218.96
442.294	261.97
442.501	452.43
442.708	483.15
442.914	218.96
443.121	247.63
443.328	560.97
443.534	597.84
443.741	350.03
443.948	139.09
444.154	524.11
444.361	765.77
444.568	335.7
444.774	440.14
444.981	309.07
445.187	630.6
445.394	393.04
445.6	403.28
445.807	563.02
446.013	452.43
446.22	257.87
446.426	550.73
446.633	665.42
446.839	837.45
447.046	298.83
447.252	657.23
447.459	651.08
447.665	599.88
447.871	599.88
448.078	812.87
448.284	747.34
448.491	870.22
448.697	640.84
448.903	651.08
449.11	827.21
449.316	806.73
449.522	896.84
449.728	849.74
449.935	945.99
450.141	956.23
450.347	1001.29
450.553	866.12
450.76	1081.16
450.966	1005.38
451.172	1021.77
451.378	976.71
451.584	1138.5
451.791	1402.69
451.997	1111.88
452.203	1062.73
452.409	1382.21
452.615	1365.82
452.821	1167.17
453.027	1195.84
453.233	1638.2
453.44	1433.41
453.646	1349.44
453.852	1294.15
454.058	1371.97
454.264	1587.01
454.47	1480.51
454.676	1394.5
454.882	1670.97
455.088	1664.83
455.294	1519.42
455.5	1640.25
455.705	1681.21
455.911	1634.11
456.117	1515.33
456.323	1625.92
456.529	1603.39
456.735	1812.28
456.941	1578.81
457.147	1767.23
457.352	1836.86
457.558	1722.17
457.764	1759.03
457.97	1670.97
458.176	1996.6
458.381	1926.97
458.587	1830.71
458.793	1892.15
458.999	1587.01
459.204	1941.3
459.41	1726.27
459.616	1799.99
459.821	1890.1
460.027	1763.13
460.233	1849.15
460.438	1703.74
460.644	1748.79
460.85	1761.08
461.055	1765.18
461.261	1705.79
461.466	1650.49
461.672	1681.21
461.878	1523.52
462.083	1720.12
462.289	1500.99
462.494	1517.37
462.7	1494.85
462.905	1378.11
463.111	1824.57
463.316	1830.71
463.522	1558.33
463.727	1494.85
463.932	1574.72
464.138	1750.84
464.343	1441.6
464.549	1476.41
464.754	1771.32
464.959	1759.03
465.165	1371.97
465.37	1365.82
465.575	1306.43
465.781	1488.7
465.986	1408.83
466.191	1363.78
466.397	1435.46
466.602	1582.91
466.807	1353.54
467.012	1312.58
467.218	1591.1
467.423	1339.2
467.628	1300.29
467.833	1314.63
468.038	1390.4
468.244	1322.82
468.449	1406.78
468.654	1359.68
468.859	1363.78
469.064	1421.12
469.269	1195.84
469.474	1247.04
469.679	1552.19
469.885	1582.91
470.09	1394.5
470.295	1261.38
470.5	1353.54
470.705	1490.75
470.91	1335.1
471.115	1388.35
471.32	1490.75
471.525	1621.82
471.73	1257.28
471.935	1419.07
472.139	1296.19
472.344	1333.06
472.549	1443.65
472.754	1480.51
472.959	1482.56
473.164	1419.07
473.369	1443.65
473.574	1460.03
473.778	1457.98
473.983	1480.51
474.188	1537.85
474.393	1296.19
474.598	1527.61
474.802	1455.94
475.007	1347.39
475.212	1369.92
475.417	1462.08
475.621	1453.89
475.826	1197.89
476.031	1390.4
476.235	1437.5
476.44	1476.41
476.645	1376.06
476.849	1240.9
477.054	1382.21
477.259	1550.14
477.463	1394.5
477.668	1611.58
477.872	1675.07
478.077	1435.46
478.282	1249.09
478.486	1279.81
478.691	1505.09
478.895	1539.9
479.1	1529.66
479.304	1386.3
479.509	1439.55
479.713	1711.93
479.918	1421.12
480.122	1316.67
480.326	1429.31
480.531	1515.33
480.735	1425.22
480.94	1462.08
481.144	1632.06
481.348	1517.37
481.553	1412.93
481.757	1382.21
481.961	1505.09
482.166	1515.33
482.37	1298.24
482.574	1517.37
482.778	1371.97
482.983	1701.69
483.187	1283.91
483.391	1558.33
483.595	1519.42
483.8	1668.92
484.004	1505.09
484.208	1478.46
484.412	1777.47
484.616	1582.91
484.821	1369.92
485.025	1423.17
485.229	1464.13
485.433	1703.74
485.637	1521.47
485.841	1484.61
486.045	1793.85
486.249	1730.36
486.453	1546.05
486.657	1517.37
486.861	1435.46
487.065	1662.78
487.269	1511.23
487.473	1423.17
487.677	1779.51
487.881	2015.03
488.085	1656.64
488.289	1795.9
488.493	1703.74
488.697	2078.52
488.901	1879.86
489.105	1787.71
489.309	1853.24
489.512	2023.22
489.716	1896.25
489.92	1859.38
490.124	2021.17
490.328	2189.11
490.531	1857.34
490.735	1910.58
490.939	1933.11
491.143	2082.61
491.346	1937.21
491.55	1969.98
491.754	2058.04
491.958	2084.66
492.161	2166.58
492.365	1992.5
492.569	2203.44
492.772	2322.23
492.976	2203.44
493.18	2176.82
493.383	2223.92
493.587	2428.72
493.79	2279.22
493.994	2189.11
494.197	2320.18
494.401	2406.19
494.605	2352.95
494.808	2271.03
495.012	2471.73
495.215	2758.44
495.419	2795.31
495.622	2424.62
495.825	2733.87
496.029	2750.25
496.232	2672.43
496.436	2600.75
496.639	2887.47
496.843	2772.78
497.046	2756.4
497.249	2926.38
497.453	2969.38
497.656	2866.99
497.859	3051.3
498.063	2934.57
498.266	3329.83
498.469	3075.88
498.673	3063.59
498.876	3053.35
499.079	3278.63
499.282	3428.13
499.485	3385.12
499.689	3450.66
499.892	3501.86
500.095	3677.98
500.298	3573.53
500.501	3557.15
500.705	3854.11
500.908	3764
501.111	3802.91
501.314	3989.27
501.517	4314.9
501.72	4142.87
501.923	4063
502.126	4065.05
502.329	4423.44
502.532	4292.37
502.735	4288.28
502.938	4577.04
503.141	4499.22
503.344	4370.19
503.547	4693.77
503.75	4722.45
503.953	4792.08
504.156	4974.35
504.359	4812.56
504.562	4900.62
504.765	5166.85
504.968	5377.8
505.17	5076.74
505.373	5166.85
505.576	5699.33
505.779	5560.06
505.982	5611.26
506.185	5652.22
506.387	5895.93
506.59	6059.77
506.793	5875.45
506.996	6156.02
507.198	6485.75
507.401	6504.18
507.604	6242.04
507.807	6416.12
508.009	6696.69
508.212	6903.53
508.415	6803.18
508.617	6860.52
508.82	7061.23
509.022	6958.83
509.225	7122.66
509.428	7304.93
509.63	7554.79
509.833	7487.2
510.035	7939.8
510.238	7827.17
510.44	7861.98
510.643	8050.39
510.845	8105.69
511.048	8140.51
511.25	8341.21
511.453	8404.69
511.655	8834.77
511.858	8769.23
512.06	9082.57
512.262	8742.61
512.465	9115.34
512.667	9017.04
512.87	9316.04
513.072	9742.02
513.274	9666.24
513.477	9477.83
513.679	10061.5
513.881	10067.64
514.084	9952.96
514.286	10329.78
514.488	10538.68
514.69	10704.56
514.893	10639.03
515.095	10788.53
515.297	11155.12
515.499	11419.3
515.701	11183.79
515.904	11462.31
516.106	11976.35
516.308	11789.99
516.51	11867.81
516.712	12045.98
516.914	12402.33
517.116	12557.97
517.318	12359.32
517.52	12725.91
517.722	13072.01
517.925	13039.25
518.127	13203.08
518.329	13465.22
518.531	13416.07
518.733	13766.28
518.935	14034.56
519.136	13993.6
519.338	14134.91
519.54	14532.22
519.742	14448.25
519.944	14716.53
520.146	15185.52
520.348	14929.52
520.55	15103.6
520.752	15203.95
520.954	15533.67
521.155	15429.23
521.357	15793.76
521.559	16156.25
521.761	16375.39
521.963	16305.76
522.164	16356.96
522.366	16496.22
522.568	16797.27
522.77	16983.63
522.971	17112.66
523.173	16975.44
523.375	17589.83
523.576	17294.93
523.778	17604.17
523.98	17804.87
524.181	18024
524.383	18032.19
524.584	18282.05
524.786	18175.55
524.988	18425.4
525.189	18857.53
525.391	18730.55
525.592	18726.46
525.794	19023.41
525.995	19097.14
526.197	19281.46
526.398	19512.88
526.6	19645.99
526.801	19502.64
527.003	19428.91
527.204	19605.03
527.406	20135.46
527.607	19873.32
527.808	19901.99
528.01	19895.85
528.211	20493.85
528.412	20567.58
528.614	20680.22
528.815	20555.29
529.016	20784.66
529.218	20866.58
529.419	20942.36
529.62	20637.21
529.822	21202.45
530.023	20981.27
530.224	21005.84
530.425	21202.45
530.626	21112.34
530.828	21177.87
531.029	21444.11
531.23	21587.47
531.431	21364.24
531.632	21616.14
531.833	21403.15
532.035	21538.32
532.236	21509.65
532.437	21814.79
532.638	21653
532.839	21708.3
533.04	22210.05
533.241	21849.61
533.442	21923.33
533.643	21837.32
533.844	22277.63
534.045	22144.52
534.246	22154.76
534.447	22150.66
534.648	21915.14
534.849	22615.55
535.05	22162.95
535.251	22111.75
535.451	22418.94
535.652	22504.96
535.853	22367.74
536.054	22306.3
536.255	22369.79
536.456	22296.07
536.657	22611.45
536.857	22308.35
537.058	22482.43
537.259	22691.32
537.46	22564.35
537.66	22464
537.861	22439.42
538.062	22482.43
538.263	22414.85
538.463	22332.93
538.664	22857.21
538.865	22468.09
539.065	22558.21
539.266	22251.01
539.466	23055.86
539.667	22396.42
539.868	22797.82
540.068	22636.03
540.269	22894.07
540.469	22769.15
540.67	22437.37
540.87	22928.89
541.071	22509.05
541.271	23119.35
541.472	22949.37
541.672	22896.12
541.873	22672.89
542.073	22527.49
542.274	22853.11
542.474	22767.1
542.675	22926.84
542.875	23049.72
543.075	22752.76
543.276	23031.29
543.476	23088.63
543.676	23051.77
543.877	23049.72
544.077	22892.02
544.277	23322.1
544.478	23002.61
544.678	23123.44
544.878	22980.09
545.078	23207.41
545.279	23188.98
545.479	22629.88
545.679	23252.47
545.879	23109.11
546.079	23377.39
546.28	22924.79
546.48	22998.52
546.68	23459.31
546.88	23373.3
547.08	23315.95
547.28	23219.7
547.48	22959.61
547.68	23246.32
547.88	23231.99
548.081	23586.29
548.281	23113.2
548.481	23078.39
548.681	23004.66
548.881	23197.17
549.081	23524.85
549.28	23047.67
549.48	23377.39
549.68	23260.66
549.88	23528.94
550.08	23344.63
550.28	23293.43
550.48	23334.39
550.68	23819.75
550.88	23674.35
551.08	23504.37
551.279	23762.41
551.479	23444.98
551.679	23725.55
551.879	23444.98
552.079	23205.36
552.278	23692.78
552.478	23498.22
552.678	23596.53
552.878	23578.09
553.077	23504.37
553.277	23318
553.477	23895.53
553.676	23662.06
553.876	23539.18
554.076	23547.37
554.275	23643.63
554.475	23117.3
554.674	23643.63
554.874	23391.73
555.074	23500.27
555.273	23530.99
555.473	23530.99
555.672	23418.35
555.872	23430.64
556.071	23459.31
556.271	23725.55
556.47	23635.44
556.67	23197.17
556.869	23168.5
557.068	23485.93
557.268	23582.19
557.467	23315.95
557.667	23383.54
557.866	23246.32
558.065	23186.93
558.265	23059.96
558.464	23174.64
558.663	23559.66
558.863	23324.15
559.062	23182.84
559.261	23096.82
559.461	23494.13
559.66	23137.78
559.859	22867.45
560.058	22971.89
560.258	22865.4
560.457	22896.12
560.656	23242.23
560.855	22924.79
561.054	23051.77
561.253	22810.11
561.453	22660.6
561.652	22806.01
561.851	22969.85
562.05	22722.04
562.249	21941.77
562.448	22836.73
562.647	22504.96
562.846	22644.22
563.045	22337.02
563.244	22441.47
563.443	22582.78
563.642	22316.54
563.841	22267.39
564.04	21849.61
564.239	22402.56
564.438	21894.66
564.637	22162.95
564.836	22150.66
565.035	22027.78
565.234	21874.18
565.432	21773.83
565.631	21708.3
565.83	21816.84
566.029	21546.51
566.228	21577.23
566.427	21523.98
566.625	21327.38
566.824	21282.32
567.023	21214.74
567.222	20772.38
567.42	21218.83
567.619	21116.44
567.818	20782.62
568.016	21124.63
568.215	21016.08
568.414	21048.85
568.612	20807.19
568.811	20567.58
569.01	20610.59
569.208	20358.69
569.407	20516.38
569.605	20495.9
569.804	20641.31
570.002	20256.29
570.201	20106.79
570.4	19883.56
570.598	19979.81
570.797	19691.05
570.995	19838.5
571.193	19574.31
571.392	19988
571.59	19256.88
571.789	19576.36
571.987	19443.24
572.186	19832.36
572.384	19162.67
572.582	19328.56
572.781	19283.5
572.979	18785.85
573.177	19193.39
573.376	18986.55
573.574	18972.21
573.772	19068.47
573.971	18740.79
574.169	18570.81
574.367	18587.19
574.565	18634.3
574.763	18511.42
574.962	18308.67
575.16	18241.09
575.358	18466.36
575.556	18169.41
575.754	18351.68
575.952	17993.28
576.151	18406.97
576.349	17909.32
576.547	17890.88
576.745	17968.71
576.943	18136.64
577.141	17684.04
577.339	17811.01
577.537	17432.14
577.735	17874.5
577.933	17737.29
578.131	17604.17
578.329	17122.9
578.527	17391.18
578.725	17505.87
578.923	17315.41
579.121	17296.97
579.319	17315.41
579.516	17180.24
579.714	17024.59
579.912	17104.46
580.11	17159.76
580.308	16895.57
580.506	16498.27
580.704	16561.75
580.901	16967.25
581.099	17307.21
581.297	16490.07
581.495	16635.48
581.692	16975.44
581.89	16746.07
582.088	16879.19
582.285	16455.26
582.483	16631.38
582.681	16488.03
582.878	16361.05
583.076	16236.13
583.274	16723.54
583.471	16422.49
583.669	16246.37
583.866	15912.55
584.064	16098.91
584.262	16033.38
584.459	15902.31
584.657	15769.19
584.854	16326.24
585.052	16029.28
585.249	15947.36
585.447	16238.17
585.644	15603.3
585.841	16051.81
586.039	15750.76
586.236	15683.17
586.434	15838.82
586.631	15822.44
586.828	15494.76
587.026	15461.99
587.223	15668.84
587.42	15537.77
587.618	15488.62
587.815	15578.73
588.012	15320.68
588.21	15371.88
588.407	15588.97
588.604	15271.53
588.801	15242.86
588.999	15425.13
589.196	15162.99
589.393	15179.37
589.59	15322.73
589.787	15314.54
589.984	15246.96
590.182	15019.63
590.379	14878.32
590.576	15203.95
590.773	15154.8
590.97	14941.81
591.167	15222.38
591.364	15062.64
591.561	14820.98
591.758	14831.22
591.955	15003.25
592.152	14796.4
592.349	14773.88
592.546	14700.15
592.743	14837.36
592.94	14622.33
593.137	14857.84
593.334	14722.68
593.531	14825.08
593.727	14726.77
593.924	14753.4
594.121	14589.56
594.318	14751.35
594.515	14601.85
594.712	15013.49
594.908	14673.53
595.105	14558.84
595.302	14603.89
595.499	14624.37
595.696	14640.76
595.892	14503.54
596.089	14673.53
596.286	14524.02
596.482	14331.51
596.679	14495.35
596.876	14487.16
597.072	14573.17
597.269	14440.06
597.466	14366.33
597.662	14245.5
597.859	14272.12
598.055	14313.08
598.252	14456.44
598.448	14651
598.645	14499.45
598.841	14134.91
599.038	14468.73
599.234	14626.42
599.431	14243.45
599.627	14323.32
599.824	14585.46
600.02	14134.91
600.217	14370.43
600.413	14098.05
600.609	14003.84
600.806	14599.8
601.002	14382.71
601.198	13880.96
601.395	13997.7
601.591	14280.32
601.787	14079.61
601.984	13870.72
602.18	14286.46
602.376	13928.06
602.572	13829.76
602.769	14136.96
602.965	14061.18
603.161	14413.43
603.357	14061.18
603.553	14227.07
603.75	13969.02
603.946	14153.34
604.142	13854.34
604.338	13909.63
604.534	13983.36
604.73	13969.02
604.926	13704.84
605.122	14009.98
605.318	13858.43
605.514	13708.93
605.71	13749.89
605.906	13885.06
606.102	13784.71
606.298	14055.04
606.494	14028.42
606.69	13735.56
606.886	13823.62
607.082	13518.47
607.278	13762.18
607.474	13581.96
607.67	13895.3
607.866	13348.49
608.062	13702.79
608.257	13487.75
608.453	13661.83
608.649	13790.85
608.845	13463.18
609.041	13522.57
609.236	13729.41
609.432	13575.81
609.628	13448.84
609.824	13532.81
610.019	13315.72
610.215	13708.93
610.411	13454.98
610.606	13448.84
610.802	13405.83
610.998	13377.16
611.193	13606.53
611.389	13258.38
611.584	13667.97
611.78	13082.25
611.976	13188.75
612.171	13569.67
612.367	13500.04
612.562	13325.96
612.758	13229.71
612.953	12961.42
613.149	13297.29
613.344	12926.61
613.539	13459.08
613.735	13174.41
613.93	13510.28
614.126	13313.67
614.321	13332.11
614.517	13411.98
614.712	13264.52
614.907	13149.84
615.103	12981.9
615.298	13072.01
615.493	13129.36
615.688	12818.07
615.884	13151.88
616.079	13053.58
616.274	12906.13
616.47	12764.82
616.665	12701.33
616.86	12938.9
617.055	12816.02
617.25	12787.35
617.445	12854.93
617.641	12623.51
617.836	12967.57
618.031	12652.18
618.226	13008.53
618.421	12805.78
618.616	12877.46
618.811	12654.23
619.006	12947.09
619.201	12486.29
619.396	12725.91
619.591	12398.23
619.786	12494.49
619.981	12539.54
620.176	12639.89
620.371	12453.53
620.566	12418.71
620.761	12363.42
620.956	12447.38
621.151	12066.46
621.346	12373.66
621.541	11779.75
621.735	12328.6
621.93	12062.37
622.125	12007.07
622.32	11888.29
622.515	12207.77
622.709	12205.72
622.904	11947.68
623.099	11929.25
623.294	12129.95
623.488	11841.18
623.683	11839.14
623.878	11636.39
624.072	11912.86
624.267	11572.9
624.462	11669.16
624.656	11329.19
624.851	11851.42
625.046	11636.39
625.24	11531.94
625.435	11454.12
625.629	11552.42
625.824	11839.14
626.018	11464.36
626.213	11114.16
626.407	11540.13
626.602	11439.78
626.796	11456.17
626.991	11316.9
627.185	11185.83
627.38	11056.81
627.574	11171.5
627.768	11081.39
627.963	11132.59
628.157	11208.36
628.352	10999.47
628.546	10919.6
628.74	11228.84
628.935	10858.16
629.129	10991.28
629.323	10913.45
629.517	10800.82
629.712	10833.58
629.906	10616.5
630.1	10833.58
630.294	10880.69
630.489	10749.62
630.683	10684.08
630.877	10522.29
631.071	10704.56
631.265	10589.88
631.459	10532.53
631.653	10475.19
631.848	10585.78
632.042	10512.05
632.236	10389.17
632.43	10319.54
632.624	10581.68
632.818	10346.17
633.012	10145.47
633.206	10225.34
633.4	10204.86
633.594	10327.74
633.788	10094.27
633.982	10104.51
634.176	10161.85
634.369	10178.23
634.563	9905.85
634.757	9612.99
634.951	10153.66
635.145	10045.12
635.339	9780.93
635.533	9678.53
635.726	10012.35
635.92	9658.05
636.114	9623.23
636.308	9264.84
636.501	9617.09
636.695	9615.04
636.889	9037.52
637.083	9014.99
637.276	9307.85
637.47	8795.86
637.664	8953.55
637.857	8812.24
638.051	9045.71
638.244	8974.03
638.438	8560.34
638.632	8572.63
638.825	8410.84
639.019	8867.53
639.212	8429.27
639.406	8427.22
639.599	8406.74
639.793	8398.55
639.986	7847.65
640.18	8136.41
640.373	8034.01
640.567	7956.19
640.76	8038.11
640.954	7874.27
641.147	7735.01
641.34	7577.31
641.534	7591.65
641.727	7413.48
641.92	7601.89
642.114	7442.15
642.307	7427.81
642.5	7137
642.694	6952.68
642.887	7005.93
643.08	7112.42
643.273	6917.87
643.467	6854.38
643.66	6590.19
643.853	6487.79
644.046	6430.45
644.239	6528.75
644.432	6190.84
644.626	6084.34
644.819	5983.99
645.012	6270.71
645.205	6223.61
645.398	6043.39
645.591	5848.83
645.784	5830.4
645.977	5779.2
646.17	5576.45
646.363	5623.55
646.556	5564.16
646.749	5424.9
646.942	5422.85
647.135	5451.52
647.328	5523.2
647.521	5353.22
647.714	5070.6
647.907	5136.13
648.099	5226.25
648.292	5295.88
648.485	5015.3
648.678	4810.51
648.871	4939.53
649.064	4996.87
649.256	4880.14
649.449	4538.13
649.642	4546.32
649.835	4634.38
650.027	4509.46
650.22	4570.9
650.413	4400.91
650.605	4493.07
650.798	4392.72
650.991	4290.32
651.183	4437.78
651.376	4351.76
651.568	4398.87
651.761	4042.52
651.954	4421.39
652.146	4112.15
652.339	4237.08
652.531	4161.3
652.724	3933.98
652.916	4151.06
653.109	3628.83
653.301	4009.75
653.494	4216.6
653.686	4067.1
653.879	3911.45
654.071	3882.78
654.263	3835.67
654.456	3886.87
654.648	3880.73
654.84	3743.52
655.033	3718.94
655.225	3893.02
655.417	3467.04
655.61	3755.8
655.802	3761.95
655.994	3731.23
656.186	3518.24
656.379	3571.49
656.571	3546.91
656.763	3510.05
656.955	3358.5
657.148	3290.92
657.34	3614.49
657.532	3483.42
657.724	3397.41
657.916	3274.53
658.108	3555.1
658.3	3153.7
658.492	3350.31
658.684	3047.21
658.876	3344.16
659.068	3055.4
659.26	2903.85
659.452	2963.24
659.644	3094.31
659.836	3270.44
660.028	2881.32
660.22	2703.15
660.412	2940.71
660.604	2795.31
660.796	2731.82
660.988	2692.91
661.18	2774.83
661.372	2746.16
661.563	2617.13
661.755	2486.06
661.947	2434.86
662.139	2500.4
662.331	2424.62
662.522	2377.52
662.714	2389.81
662.906	2338.61
663.097	2162.48
663.289	2017.08
663.481	2000.69
663.673	2277.17
663.864	2082.61
664.056	2158.39
664.247	2152.24
664.439	2213.68
664.631	2070.33
664.822	1984.31
665.014	2068.28
665.205	1843
665.397	1818.43
665.588	1879.86
665.78	1976.12
665.971	2092.85
666.163	1638.2
666.354	1576.77
666.546	1607.48
666.737	1697.6
666.929	1500.99
667.12	1566.53
667.311	1683.26
667.503	1591.1
667.694	1595.2
667.885	1541.95
668.077	1548.09
668.268	1382.21
668.459	1433.41
668.651	1367.87
668.842	1527.61
669.033	1367.87
669.224	1238.85
669.416	1574.72
669.607	1412.93
669.798	1199.94
669.989	1275.71
670.18	1128.26
670.371	1365.82
670.563	1111.88
670.754	1308.48
670.945	1240.9
671.136	1439.55
671.327	1255.23
671.518	1175.36
671.709	1201.99
671.9	1365.82
672.091	1359.68
672.282	1052.49
672.473	1001.29
672.664	1019.72
672.855	1244.99
673.046	1017.67
673.237	1158.98
673.428	1118.02
673.619	1138.5
673.809	1005.38
674	1058.63
674.191	1281.86
674.382	1054.53
674.573	966.47
674.764	923.46
674.954	1222.47
675.145	896.84
675.336	816.97
675.527	792.39
675.717	1005.38
675.908	1001.29
676.099	796.49
676.289	855.88
676.48	784.2
676.671	1079.11
676.861	862.02
677.052	835.4
677.243	1072.96
677.433	806.73
677.624	1077.06
677.814	960.33
678.005	958.28
678.195	1111.88
678.386	833.35
678.576	782.15
678.767	773.96
678.957	945.99
679.148	937.8
679.338	939.85
679.529	1011.53
679.719	862.02
679.909	948.04
680.1	753.48
680.29	1052.49
680.481	911.18
680.671	880.46
680.861	845.64
681.052	993.09
681.242	872.26
681.432	913.22
681.622	790.35
681.813	878.41
682.003	845.64
682.193	892.74
682.383	913.22
682.573	970.57
682.764	970.57
682.954	941.89
683.144	1126.21
683.334	1025.86
683.524	1054.53
683.714	1077.06
683.904	1095.49
684.094	1148.74
684.284	1103.68
684.474	1115.97
684.664	1152.84
684.854	1210.18
685.044	1349.44
685.234	1142.6
685.424	1138.5
685.614	1208.13
685.804	1556.29
685.994	1392.45
686.184	1347.39
686.374	1574.72
686.564	1478.46
686.753	1521.47
686.943	1331.01
687.133	1632.06
687.323	1550.14
687.513	1603.39
687.702	1589.05
687.892	1615.68
688.082	1904.44
688.272	1707.84
688.461	1867.58
688.651	2078.52
688.841	2027.32
689.03	1912.63
689.22	1937.21
689.41	2119.48
689.599	2340.66
689.789	2068.28
689.979	2332.47
690.168	2400.05
690.358	2481.97
690.547	2336.56
690.737	2502.45
690.926	2729.77
691.116	2625.33
691.305	2641.71
691.495	2684.72
691.684	2744.11
691.874	2836.27
692.063	2887.47
692.252	2909.99
692.442	3321.63
692.631	3141.41
692.82	2975.53
693.01	3284.77
693.199	3407.65
693.388	3376.93
693.578	3471.14
693.767	3548.96
693.956	3749.66
694.146	3557.15
694.335	3551.01
694.524	3471.14
694.713	4050.71
694.902	3839.77
695.092	3764
695.281	3981.08
695.47	4081.43
695.659	4044.57
695.848	3942.17
696.037	4026.14
696.226	4398.87
696.415	4312.85
696.604	4704.01
696.793	4378.39
696.982	4572.94
697.171	4726.54
697.36	4466.45
697.549	4527.89
697.738	4441.87
697.927	4644.62
698.116	4544.27
698.305	4738.83
698.494	4818.7
698.683	5000.97
698.872	4851.47
699.061	4892.43
699.25	5035.78
699.438	5119.75
699.627	4978.44
699.816	5238.53
700.005	4960.01
700.193	5199.62
700.382	5179.14
700.571	5275.4
700.76	5451.52
700.948	5594.88
701.137	5351.17
701.326	5336.84
701.514	5547.78
701.703	5676.8
701.892	5527.3
702.08	5582.59
702.269	5523.2
702.457	5410.56
702.646	5598.98
702.834	5428.99
703.023	5873.4
703.212	5818.11
703.4	5596.93
703.589	5578.5
703.777	5721.85
703.965	5529.34
704.154	5691.13
704.342	5598.98
704.531	5795.58
704.719	5838.59
704.907	5871.36
705.096	5588.74
705.284	5762.81
705.472	5832.44
705.661	5687.04
705.849	5795.58
706.037	6037.24
706.226	5990.14
706.414	5975.8
706.602	5752.57
706.79	5924.6
706.979	5805.82
707.167	5830.4
707.355	5637.89
707.543	6049.53
707.731	5971.71
707.919	5873.4
708.107	5670.65
708.296	5914.36
708.484	5838.59
708.672	5969.66
708.86	5877.5
709.048	6108.92
709.236	5783.29
709.424	5938.94
709.612	5977.85
709.8	5773.05
709.988	6006.52
710.176	5957.37
710.364	5902.08
710.551	5986.04
710.739	5918.46
710.927	5715.71
711.115	5918.46
711.303	6135.54
711.491	6096.63
711.679	5629.7
711.866	6000.38
712.054	6018.81
712.242	5885.69
712.43	5979.9
712.617	5750.53
712.805	5859.07
712.993	5848.83
713.181	5422.85
713.368	5746.43
713.556	5912.32
713.744	5734.14
713.931	5861.12
714.119	5695.23
714.306	5883.64
714.494	5512.96
714.682	5719.81
714.869	5496.58
715.057	5736.19
715.244	5750.53
715.432	5695.23
715.619	5484.29
715.807	5609.22
715.994	5572.35
716.182	5592.83
716.369	5695.23
716.556	5807.87
716.744	5517.06
716.931	5314.31
717.119	5588.74
717.306	5617.41
717.493	5719.81
717.681	5404.42
717.868	5388.04
718.055	5680.89
718.242	5388.04
718.43	5271.3
718.617	5459.71
718.804	5334.79
718.991	5605.12
719.179	5316.36
719.366	5132.04
719.553	5359.36
719.74	5404.42
719.927	5152.52
720.114	5166.85
720.301	5156.61
720.488	5181.19
720.676	4957.96
720.863	5277.44
721.05	5539.58
721.237	5474.05
721.424	5242.63
721.611	5189.38
721.798	4998.92
721.985	5205.77
722.172	5080.84
722.358	4996.87
722.545	5365.51
722.732	5193.48
722.919	5129.99
723.106	4947.72
723.293	5003.02
723.48	5050.12
723.667	4998.92
723.853	5011.21
724.04	5078.79
724.227	5115.66
724.414	5005.06
724.6	4787.98
724.787	4910.86
724.974	5125.9
725.161	4802.32
725.347	4579.09
725.534	4980.49
725.72	4888.33
725.907	4775.69
726.094	4859.66
726.28	4912.91
726.467	4843.28
726.653	4591.38
726.84	4671.25
727.027	4833.04
727.213	4673.29
727.4	4757.26
727.586	4646.67
727.773	4628.24
727.959	4433.68
728.145	4654.86
728.332	4564.75
728.518	4572.94
728.705	4757.26
728.891	4474.64
729.077	4501.26
729.264	4568.85
729.45	4607.76
729.636	4470.55
729.823	4419.35
730.009	4601.62
730.195	4632.33
730.382	4513.55
730.568	4370.19
730.754	4452.11
730.94	4296.47
731.126	4454.16
731.313	4212.5
731.499	4292.37
731.685	4646.67
731.871	4323.09
732.057	4249.36
732.243	4622.09
732.429	4484.88
732.615	4362
732.801	4196.12
732.987	4316.95
733.173	4181.78
733.359	4204.31
733.545	4159.25
733.731	4132.63
733.917	4296.47
734.103	4206.36
734.289	4198.17
734.475	4173.59
734.661	4419.35
734.847	4067.1
735.033	4028.18
735.219	4161.3
735.404	4067.1
735.59	3931.93
735.776	3917.59
735.962	4155.16
736.148	4067.1
736.333	3927.83
736.519	3874.59
736.705	3884.83
736.89	3852.06
737.076	3761.95
737.262	3800.86
737.447	3860.25
737.633	3825.43
737.819	3911.45
738.004	3696.41
738.19	3862.3
738.375	3878.68
738.561	3786.52
738.747	3718.94
738.932	3764
739.118	4157.21
739.303	3768.09
739.489	3811.1
739.674	3802.91
739.859	3495.71
740.045	3528.48
740.23	3415.84
740.416	3292.96
740.601	3632.93
740.786	3536.67
740.972	3395.36
741.157	3417.89
741.342	3338.02
741.528	3417.89
741.713	3622.69
741.898	3409.7
742.084	3475.23
742.269	3387.17
742.454	3395.36
742.639	3518.24
742.824	3381.03
743.01	3495.71
743.195	3399.46
743.38	3499.81
743.565	3436.32
743.75	3280.68
743.935	3290.92
744.12	3501.86
744.305	3157.8
744.49	3274.53
744.675	3137.32
744.86	3219.24
745.045	3266.34
745.23	2965.29
745.415	3178.28
745.6	3313.44
745.785	3168.04
745.97	3030.82
746.155	3122.98
746.34	3272.48
746.525	3008.3
746.71	3133.22
746.895	2932.52
747.079	2920.23
747.264	3010.34
747.449	2977.58
747.634	2950.95
747.819	3125.03
748.003	2879.27
748.188	2670.38
748.373	2866.99
748.557	2934.57
748.742	2830.12
748.927	2719.53
749.111	2746.16
749.296	2740.01
749.481	2877.23
749.665	2838.31
749.85	2508.59
750.034	2887.47
750.219	2840.36
750.404	2512.69
750.588	2584.37
750.773	2660.14
750.957	2676.52
751.141	2625.33
751.326	2592.56
751.51	2602.8
751.695	2627.37
751.879	2529.07
752.064	2623.28
752.248	2498.35
752.432	2821.93
752.617	2420.53
752.801	2602.8
752.985	2469.68
753.17	2660.14
753.354	2242.36
753.538	2381.62
753.722	2336.56
753.907	2322.23
754.091	2156.34
754.275	2211.64
754.459	2209.59
754.643	2305.84
754.828	2219.83
755.012	2207.54
755.196	2293.55
755.38	2387.76
755.564	2197.3
755.748	1998.65
755.932	2369.33
756.116	2273.07
756.3	2121.52
756.484	2156.34
756.668	2250.55
756.852	2099
757.036	1986.36
757.22	2015.03
757.404	2148.15
757.588	2099
757.772	2156.34
757.956	1980.22
758.14	2185.01
758.323	2043.7
758.507	2000.69
758.691	1836.86
758.875	2223.92
759.059	2090.81
759.242	1797.95
759.426	1959.74
759.61	1965.88
759.794	1840.95
759.977	1828.67
760.161	2107.19
760.345	2023.22
760.528	2015.03
760.712	1644.35
760.895	1677.12
761.079	1808.19
761.263	1650.49
761.446	1632.06
761.63	1548.09
761.813	1787.71
761.997	1634.11
762.18	1513.28
762.364	1713.98
762.547	1521.47
762.731	1736.51
762.914	1625.92
763.098	1498.94
763.281	1689.4
763.464	1668.92
763.648	1601.34
763.831	1546.05
764.015	1582.91
764.198	1763.13
764.381	1535.81
764.564	1533.76
764.748	1658.68
764.931	1761.08
765.114	1457.98
765.297	1683.26
765.481	1410.88
765.664	1621.82
765.847	1529.66
766.03	1460.03
766.213	1580.86
766.397	1621.82
766.58	1394.5
766.763	1505.09
766.946	1617.72
767.129	1478.46
767.312	1574.72
767.495	1509.18
767.678	1630.01
767.861	1666.88
768.044	1490.75
768.227	1574.72
768.41	1687.36
768.593	1593.15
768.776	1562.43
768.959	1566.53
769.142	1867.58
769.324	1535.81
769.507	1544
769.69	1453.89
769.873	1574.72
770.056	1912.63
770.239	1500.99
770.421	1695.55
770.604	1744.7
770.787	1578.81
770.97	1515.33
771.152	1472.32
771.335	1732.41
771.518	1271.62
771.7	1541.95
771.883	1654.59
772.066	1595.2
772.248	1703.74
772.431	1529.66
772.613	1591.1
772.796	1515.33
772.978	1552.19
773.161	1470.27
773.343	1337.15
773.526	1496.89
773.708	1279.81
773.891	1339.2
774.073	1333.06
774.256	1335.1
774.438	1736.51
774.621	1257.28
774.803	1470.27
774.985	1398.59
775.168	1460.03
775.35	1302.34
775.532	1322.82
775.715	1365.82
775.897	1490.75
776.079	1308.48
776.261	1359.68
776.444	1421.12
776.626	1359.68
776.808	1271.62
776.99	1111.88
777.173	1359.68
777.355	1390.4
777.537	1279.81
777.719	1236.8
777.901	1369.92
778.083	1251.14
778.265	1050.44
778.447	1333.06
778.629	1331.01
778.811	1230.66
778.993	1253.19
779.175	1251.14
779.357	1224.51
779.539	1132.36
779.721	1240.9
779.903	1226.56
780.085	1187.65
780.267	1181.51
780.449	1101.64
780.631	1189.7
780.812	1318.72
780.994	1144.64
781.176	1009.48
781.358	1040.2
781.54	1128.26
781.721	1294.15
781.903	984.9
782.085	1003.33
782.267	1247.04
782.448	896.84
782.63	943.94
782.812	1075.01
782.993	1206.08
783.175	1167.17
783.357	960.33
783.538	1015.62
783.72	1042.25
783.901	1083.2
784.083	995.14
784.264	941.89
784.446	874.31
784.627	845.64
784.809	1001.29
784.99	917.32
785.172	1095.49
785.353	993.09
785.535	905.03
785.716	864.07
785.897	757.58
786.079	972.61
786.26	888.65
786.441	894.79
786.623	771.91
786.804	812.87
786.985	878.41
787.167	911.18
787.348	905.03
787.529	831.3
787.71	900.94
787.891	829.26
788.073	874.31
788.254	737.1
788.435	917.32
788.616	843.59
788.797	741.19
788.978	880.46
789.159	710.47
789.34	870.22
789.522	790.35
789.703	845.64
789.884	782.15
790.065	831.3
790.246	956.23
790.427	806.73
790.607	796.49
790.788	769.87
790.969	759.63
791.15	890.7
791.331	657.23
791.512	692.04
791.693	632.65
791.874	798.54
792.054	962.37
792.235	687.95
792.416	659.28
792.597	581.45
792.778	724.81
792.958	632.65
793.139	757.58
793.32	673.61
793.5	497.49
793.681	677.71
793.862	814.92
794.042	698.19
794.223	419.66
794.404	577.36
794.584	477.01
794.765	630.6
794.945	560.97
795.126	630.6
795.306	689.99
795.487	642.89
795.667	534.35
795.848	558.92
796.028	743.24
796.209	659.28
796.389	743.24
796.57	544.59
796.75	517.97
796.93	661.32
797.111	507.73
797.291	556.88
797.471	646.99
797.652	526.16
797.832	458.57
798.012	608.08
798.192	530.25
798.373	468.81
798.553	491.34
798.733	552.78
798.913	548.68
799.093	542.54
799.274	466.77
799.454	538.45
799.634	735.05
799.814	769.87
799.994	618.32
800.174	589.64
800.354	628.56
800.534	376.66
800.714	409.42
800.894	333.65
801.074	405.33
801.254	419.66
801.434	706.38
801.614	419.66
801.794	409.42
801.974	4222.74
802.154	485.2
802.334	587.6
802.514	493.39
802.693	530.25
802.873	356.18
803.053	589.64
803.233	528.21
803.413	546.64
803.592	378.7
803.772	356.18
803.952	544.59
804.131	286.54
804.311	499.53
804.491	470.86
804.67	460.62
804.85	366.42
805.03	550.73
805.209	659.28
805.389	507.73
805.568	366.42
805.748	384.85
805.928	440.14
806.107	542.54
806.287	499.53
806.466	413.52
806.646	374.61
806.825	438.09
807.004	429.9
807.184	427.85
807.363	421.71
807.543	509.77
807.722	372.56
807.901	542.54
808.081	456.53
808.26	255.83
808.439	440.14
808.619	345.94
808.798	264.02
808.977	546.64
809.156	616.27
809.336	405.33
809.515	370.51
809.694	350.03
809.873	341.84
810.052	264.02
810.231	513.87
810.411	485.2
810.59	540.49
810.769	274.26
810.948	403.28
811.127	178
811.306	462.67
811.485	347.98
811.664	364.37
811.843	386.9
812.022	470.86
812.201	229.2
812.38	243.54
812.559	270.16
812.737	376.66
812.916	165.71
813.095	225.11
813.274	378.7
813.453	431.95
813.632	319.31
813.811	403.28
813.989	171.86
814.168	503.63
814.347	149.33
814.526	401.23
814.704	622.41
814.883	544.59
815.062	149.33
815.24	331.6
815.419	190.29
815.598	442.19
815.776	94.04
815.955	304.98
816.133	114.52
816.312	343.89
816.49	163.67
816.669	288.59
816.847	304.98
817.026	421.71
817.204	251.73
817.383	280.4
817.561	204.63
817.74	446.29
817.918	239.44
818.097	196.43
818.275	286.54
818.453	362.32
818.632	272.21
818.81	184.15
818.988	251.73
819.167	231.25
819.345	296.78
819.523	98.13
819.701	364.37
819.879	368.46
820.058	339.79
820.236	161.62
820.414	325.46
820.592	374.61
820.77	249.68
820.948	169.81
821.127	290.64
821.305	399.18
821.483	100.18
821.661	292.69
821.839	423.76
822.017	239.44
822.195	196.43
822.373	255.83
822.551	253.78
822.729	382.8
822.907	94.04
823.085	302.93
823.262	358.22
823.44	122.71
823.618	251.73
823.796	235.35
823.974	323.41
824.152	266.07
824.329	253.78
824.507	212.82
824.685	331.6
824.863	241.49
825.04	147.28
825.218	190.29
825.396	335.7
825.574	290.64
825.751	251.73
825.929	214.87
826.107	141.14
826.284	239.44
826.462	137.04
826.639	155.47
826.817	132.95
826.994	284.5
827.172	51.03
827.349	208.72
827.527	315.22
827.704	223.06
827.882	278.35
828.059	196.43
828.237	135
828.414	345.94
828.591	18.26
828.769	128.85
828.946	165.71
829.124	411.47
829.301	180.05
829.478	159.57
829.655	227.15
829.833	335.7
830.01	-6.31
830.187	339.79
830.364	221.01
830.542	235.35
830.719	178
830.896	249.68
831.073	343.89
831.25	337.74
831.427	151.38
831.604	151.38
831.782	106.32
831.959	231.25
832.136	165.71
832.313	184.15
832.49	175.95
832.667	284.5
832.844	135
833.021	356.18
833.198	288.59
833.374	231.25
833.551	202.58
833.728	128.85
833.905	327.5
834.082	-14.51
834.259	251.73
834.436	233.3
834.612	243.54
834.789	331.6
834.966	190.29
835.143	120.66
835.319	67.41
835.496	307.02
835.673	198.48
835.85	239.44
836.026	274.26
836.203	331.6
836.38	96.08
836.556	46.93
836.733	124.76
836.909	345.94
837.086	122.71
837.262	-59.56
837.439	198.48
837.616	153.43
837.792	186.19
837.968	145.24
838.145	-69.8
838.321	155.47
838.498	184.15
838.674	235.35
838.851	294.74
839.027	102.23
839.203	120.66
839.38	321.36
839.556	196.43
839.732	309.07
839.909	89.94
840.085	75.6
840.261	38.74
840.437	198.48
840.614	208.72
840.79	214.87
840.966	304.98
841.142	190.29
841.318	124.76
841.494	145.24
841.671	319.31
841.847	46.93
842.023	-20.65
842.199	83.8
842.375	464.72
842.551	-20.65
842.727	96.08
842.903	212.82
843.079	69.46
843.255	397.14
843.431	135
843.607	249.68
843.783	-55.47
843.959	311.12
844.134	100.18
844.31	292.69
844.486	182.1
844.662	124.76
844.838	132.95
845.013	59.22
845.189	399.18
845.365	296.78
845.541	63.32
845.716	186.19
845.892	399.18
846.068	182.1
846.244	108.37
846.419	135
846.595	108.37
846.77	137.04
846.946	190.29
847.122	63.32
847.297	98.13
847.473	405.33
847.648	44.88
847.824	57.17
847.999	-61.61
848.175	208.72
848.35	190.29
848.526	286.54
848.701	335.7
848.876	255.83
849.052	307.02
849.227	94.04
849.403	145.24
849.578	163.67
849.753	161.62
849.929	22.36
850.104	1.88
850.279	173.91
850.454	190.29
850.63	239.44
850.805	206.67
850.98	188.24
851.155	83.8
851.33	266.07
851.505	149.33
851.681	288.59
851.856	-6.31
852.031	120.66
852.206	202.58
852.381	26.45
852.556	46.93
852.731	94.04
852.906	243.54
853.081	296.78
853.256	188.24
853.431	89.94
853.606	149.33
853.781	22.36
853.956	-90.28
854.131	139.09
854.305	124.76
854.48	151.38
854.655	-6.31
854.83	91.99
855.005	81.75
855.18	171.86
855.354	79.7
855.529	75.6
855.704	188.24
855.879	233.3
856.053	20.31
856.228	96.08
856.403	24.4
856.577	198.48
856.752	-84.14
856.926	65.36
857.101	188.24
857.276	32.6
857.45	159.57
857.625	139.09
857.799	272.21
857.974	87.89
858.148	-116.9
858.323	71.51
858.497	130.9
858.672	108.37
858.846	63.32
859.02	235.35
859.195	-20.65
859.369	171.86
859.543	202.58
859.718	180.05
859.892	178
860.066	223.06
860.241	42.84
860.415	-18.6
860.589	143.19
860.763	118.61
860.938	159.57
861.112	83.8
861.286	135
861.46	243.54
861.634	163.67
861.808	141.14
861.982	85.84
862.157	34.64
862.331	57.17
862.505	-118.95
862.679	-57.51
862.853	69.46
863.027	55.12
863.201	141.14
863.375	139.09
863.549	235.35
863.722	180.05
863.896	202.58
864.07	36.69
864.244	51.03
864.418	231.25
864.592	102.23
864.766	255.83
864.939	175.95
865.113	22.36
865.287	202.58
865.461	16.21
865.634	108.37
865.808	69.46
865.982	55.12
866.156	59.22
866.329	-2.22
866.503	96.08
866.676	165.71
866.85	239.44
867.024	91.99
867.197	227.15
867.371	57.17
867.544	241.49
867.718	-12.46
867.891	202.58
868.065	-49.32
868.238	182.1
868.412	300.88
868.585	51.03
868.759	32.6
868.932	171.86
869.105	-80.04
869.279	141.14
869.452	-125.1
869.625	311.12
869.799	116.56
869.972	-94.38
870.145	8.02
870.319	259.92
870.492	44.88
870.665	116.56
870.838	-65.71
871.011	-178.34
871.185	124.76
871.358	173.91
871.531	190.29
871.704	71.51
871.877	106.32
872.05	1.88
872.223	-39.08
872.396	229.2
872.569	245.59
872.742	-47.27
872.915	112.47
873.088	91.99
873.261	67.41
873.434	94.04
873.607	91.99
873.78	292.69
873.953	-61.61
874.126	94.04
874.299	145.24
874.471	100.18
874.644	94.04
874.817	141.14
874.99	235.35
875.163	38.74
875.335	221.01
875.508	44.88
875.681	194.39
875.853	120.66
876.026	184.15
876.199	198.48
876.371	-32.94
876.544	94.04
876.717	175.95
876.889	108.37
877.062	122.71
877.234	69.46
877.407	83.8
877.579	141.14
877.752	112.47
877.924	251.73
878.097	149.33
878.269	159.57
878.442	190.29
878.614	270.16
878.786	237.39
878.959	-4.27
879.131	143.19
879.303	-116.9
879.476	96.08
879.648	180.05
879.82	-71.85
879.993	143.19
880.165	65.36
880.337	-53.42
880.509	87.89
880.681	-145.58
880.854	5.97
881.026	130.9
881.198	155.47
881.37	132.95
881.542	184.15
881.714	53.08
881.886	-20.65
882.058	77.65
882.23	147.28
882.402	132.95
882.574	81.75
882.746	278.35
882.918	339.79
883.09	106.32
883.262	65.36
883.434	194.39
883.606	-69.8
883.778	48.98
883.95	212.82
884.122	163.67
884.293	198.48
884.465	79.7
884.637	210.77
884.809	100.18
884.98	124.76
885.152	175.95
885.324	137.04
885.496	14.17
885.667	67.41
885.839	100.18
886.011	51.03
886.182	198.48
886.354	214.87
886.525	186.19
886.697	106.32
886.869	28.5
887.04	69.46
887.212	261.97
887.383	155.47
887.555	91.99
887.726	96.08
887.897	130.9
888.069	61.27
888.24	259.92
888.412	212.82
888.583	-39.08
888.754	67.41
888.926	-86.19
889.097	75.6
889.268	12.12
889.44	-10.41
889.611	-75.95
889.782	-26.79
889.953	-24.75
890.125	118.61
890.296	3.93
890.467	26.45
890.638	-4.27
890.809	28.5
890.98	-10.41
891.151	186.19
891.323	245.59
891.494	-37.03
891.665	145.24
891.836	135
892.007	63.32
892.178	128.85
892.349	143.19
892.52	67.41
892.691	184.15
892.862	63.32
893.032	-104.62
893.203	83.8
893.374	161.62
893.545	124.76
893.716	73.56
893.887	278.35
894.057	-102.57
894.228	110.42
894.399	61.27
894.57	270.16
894.74	120.66
894.911	196.43
895.082	118.61
895.253	-10.41
895.423	124.76
895.594	190.29
895.764	116.56
895.935	-80.04
896.106	44.88
896.276	-28.84
896.447	122.71
896.617	-88.23
896.788	-43.18
896.958	-53.42
897.129	77.65
897.299	-16.55
897.47	214.87
897.64	104.28
897.81	32.6
897.981	157.52
898.151	40.79
898.322	130.9
898.492	268.11
898.662	63.32
898.832	8.02
899.003	38.74
899.173	192.34
899.343	1.88
899.513	-65.71
