Data from USB4F104151__29__12-20-00-616.txt Node

Date: Wed Feb 19 12:20:00 EST 2025
User: louis
Spectrometer: USB4F10415
Trigger mode: 4
Integration Time (sec): 2.250200E-1
Scans to average: 1
Electric dark correction enabled: true
Nonlinearity correction enabled: false
Boxcar width: 0
XAxis mode: Wavelengths
Number of Pixels in Spectrum: 3648
>>>>>Begin Spectral Data<<<<<
178.204	-845.64
178.424	-845.64
178.644	-845.64
178.864	-839.5
179.084	-737.1
179.304	129.19
179.524	30.89
179.744	67.75
179.964	-186.19
180.184	184.49
180.404	92.33
180.624	-231.25
180.844	-135
181.064	26.79
181.283	258.21
181.503	-216.91
181.723	-20.31
181.943	-42.84
182.163	448.68
182.383	-151.38
182.602	-120.66
182.822	391.33
183.042	268.45
183.262	-212.82
183.482	-137.04
183.701	176.3
183.921	262.31
184.141	-147.28
184.361	-91.99
184.58	348.33
184.8	139.43
185.02	-202.58
185.239	-40.79
185.459	333.99
185.679	391.33
185.898	-247.63
186.118	-214.87
186.338	315.56
186.557	346.28
186.777	-251.73
186.997	-239.44
187.216	254.12
187.436	528.55
187.655	-89.94
187.875	-1.88
188.095	211.11
188.314	348.33
188.534	-65.36
188.753	-282.45
188.973	434.34
189.192	413.86
189.412	-282.45
189.631	-135
189.851	305.32
190.07	491.68
190.29	-157.52
190.509	-251.73
190.729	194.73
190.948	411.81
191.168	-32.6
191.387	-153.43
191.607	118.95
191.826	344.23
192.045	-83.8
192.265	-237.39
192.484	284.84
192.704	112.81
192.923	-100.18
193.142	-48.98
193.362	282.79
193.581	309.41
193.8	-87.89
194.02	-147.28
194.239	254.12
194.458	329.89
194.678	-112.47
194.897	-216.91
195.116	250.02
195.335	297.13
195.555	-141.14
195.774	-294.74
195.993	331.94
196.212	219.3
196.432	-98.13
196.651	-302.93
196.87	200.87
197.089	669.86
197.308	-175.95
197.528	-132.95
197.747	63.66
197.966	121
198.185	-83.8
198.404	-212.82
198.623	241.83
198.842	442.53
199.062	-122.71
199.281	-81.75
199.5	223.4
199.719	264.36
199.938	-284.5
200.157	-178
200.376	391.33
200.595	424.1
200.814	-69.46
201.033	-147.28
201.252	463.01
201.471	290.98
201.69	-231.25
201.909	-227.15
202.128	278.69
202.347	313.51
202.566	-96.08
202.785	-313.17
203.004	149.67
203.223	489.64
203.442	-239.44
203.661	-206.67
203.879	282.79
204.098	317.61
204.317	-147.28
204.536	-42.84
204.755	356.52
204.974	309.41
205.193	-259.92
205.411	-65.36
205.63	415.91
205.849	344.23
206.068	-190.29
206.287	-253.78
206.505	436.39
206.724	100.52
206.943	-188.24
207.162	-184.15
207.381	190.63
207.599	161.96
207.818	-59.22
208.037	-261.97
208.255	227.5
208.474	254.12
208.693	-178
208.911	-96.08
209.13	301.22
209.349	362.66
209.567	-20.31
209.786	-163.67
210.005	377
210.223	250.02
210.442	-296.78
210.661	-171.86
210.879	266.41
211.098	145.58
211.316	-112.47
211.535	-147.28
211.753	295.08
211.972	327.85
212.191	-178
212.409	-178
212.628	288.93
212.846	121
213.065	-231.25
213.283	-83.8
213.502	164.01
213.72	198.82
213.938	-198.48
214.157	-233.3
214.375	245.93
214.594	127.14
214.812	-112.47
215.031	-184.15
215.249	280.74
215.467	196.78
215.686	-96.08
215.904	-180.05
216.122	235.69
216.341	481.44
216.559	4.27
216.778	-59.22
216.996	422.05
217.214	288.93
217.432	-124.76
217.651	-290.64
217.869	270.5
218.087	286.89
218.306	-161.62
218.524	-198.48
218.742	184.49
218.96	387.24
219.179	-212.82
219.397	-200.53
219.615	546.98
219.833	295.08
220.051	-210.77
220.27	-51.03
220.488	399.52
220.706	225.45
220.924	-182.1
221.142	-190.29
221.36	264.36
221.578	207.02
221.796	-186.19
222.015	-44.88
222.233	233.64
222.451	381.09
222.669	-36.69
222.887	-85.84
223.105	174.25
223.323	229.54
223.541	-169.81
223.759	-110.42
223.977	143.53
224.195	430.24
224.413	-122.71
224.631	-32.6
224.849	184.49
225.067	538.79
225.285	-53.08
225.503	-225.11
225.721	-30.55
225.939	215.21
226.157	-188.24
226.375	65.71
226.592	139.43
226.81	221.35
227.028	73.9
227.246	-100.18
227.464	276.65
227.682	288.93
227.9	-71.51
228.117	-44.88
228.335	260.26
228.553	155.82
228.771	-216.91
228.989	-155.47
229.206	295.08
229.424	147.62
229.642	-173.91
229.86	-169.81
230.077	446.63
230.295	174.25
230.513	-40.79
230.731	-141.14
230.948	481.44
231.166	409.76
231.384	-83.8
231.601	-153.43
231.819	372.9
232.037	73.9
232.254	-71.51
232.472	-98.13
232.689	178.34
232.907	415.91
233.125	-227.15
233.342	-233.3
233.56	98.47
233.777	129.19
233.995	-178
234.213	-135
234.43	262.31
234.648	207.02
234.865	-141.14
235.083	-16.21
235.3	315.56
235.518	293.03
235.735	-128.85
235.953	-102.23
236.17	204.97
236.388	137.38
236.605	88.23
236.822	-96.08
237.04	356.52
237.257	278.69
237.475	-227.15
237.692	-128.85
237.909	362.66
238.127	196.78
238.344	-34.64
238.562	-87.89
238.779	110.76
238.996	71.85
239.214	-55.12
239.431	-116.56
239.648	84.14
239.865	241.83
240.083	-89.94
240.3	-145.24
240.517	137.38
240.735	172.2
240.952	8.36
241.169	-196.43
241.386	362.66
241.603	161.96
241.821	-85.84
242.038	-128.85
242.255	354.47
242.472	26.79
242.689	-124.76
242.907	-126.8
243.124	239.78
243.341	204.97
243.558	-89.94
243.775	-243.54
243.992	114.86
244.209	266.41
244.426	-65.36
244.643	-65.36
244.86	100.52
245.078	381.09
245.295	-18.26
245.512	-163.67
245.729	112.81
245.946	368.81
246.163	-161.62
246.38	-116.56
246.597	202.92
246.814	170.15
247.031	-36.69
247.248	-161.62
247.464	381.09
247.681	198.82
247.898	-98.13
248.115	-112.47
248.332	84.14
248.549	325.8
248.766	8.36
248.983	-108.37
249.2	301.22
249.417	344.23
249.633	-108.37
249.85	-24.4
250.067	204.97
250.284	204.97
250.501	-188.24
250.717	-137.04
250.934	43.18
251.151	161.96
251.368	-59.22
251.585	-157.52
251.801	284.84
252.018	92.33
252.235	32.94
252.451	-196.43
252.668	233.64
252.885	331.94
253.102	-77.65
253.318	-108.37
253.535	127.14
253.752	168.1
253.968	-98.13
254.185	-210.77
254.401	233.64
254.618	284.84
254.835	-94.04
255.051	-87.89
255.268	397.48
255.484	227.5
255.701	-79.7
255.917	-137.04
256.134	57.51
256.351	133.29
256.567	-147.28
256.784	24.75
257	-67.41
257.217	368.81
257.433	104.62
257.65	-141.14
257.866	354.47
258.082	88.23
258.299	-79.7
258.515	-59.22
258.732	227.5
258.948	155.82
259.165	-116.56
259.381	-96.08
259.597	286.89
259.814	194.73
260.03	-126.8
260.246	-59.22
260.463	350.37
260.679	299.17
260.895	-22.36
261.112	-63.32
261.328	198.82
261.544	125.1
261.761	-128.85
261.977	-143.19
262.193	73.9
262.409	317.61
262.626	-34.64
262.842	-130.9
263.058	215.21
263.274	252.07
263.49	-40.79
263.707	-165.71
263.923	346.28
264.139	59.56
264.355	-46.93
264.571	-57.17
264.787	317.61
265.004	293.03
265.22	-57.17
265.436	-157.52
265.652	198.82
265.868	299.17
266.084	-132.95
266.3	-106.32
266.516	63.66
266.732	317.61
266.948	-63.32
267.164	-221.01
267.38	366.76
267.596	262.31
267.812	20.65
268.028	-57.17
268.244	116.9
268.46	342.18
268.676	-59.22
268.892	8.36
269.108	96.43
269.324	98.47
269.54	-91.99
269.756	-42.84
269.972	75.95
270.188	73.9
270.403	-124.76
270.619	-128.85
270.835	237.74
271.051	104.62
271.267	-114.52
271.483	-173.91
271.698	243.88
271.914	245.93
272.13	8.36
272.346	-26.45
272.562	305.32
272.777	485.54
272.993	-24.4
273.209	-137.04
273.425	317.61
273.64	16.55
273.856	-44.88
274.072	-245.59
274.287	159.91
274.503	274.6
274.719	2.22
274.934	-118.61
275.15	-12.12
275.366	149.67
275.581	-132.95
275.797	-67.41
276.012	229.54
276.228	88.23
276.444	-67.41
276.659	73.9
276.875	108.71
277.09	92.33
277.306	-5.97
277.521	-22.36
277.737	243.88
277.952	200.87
278.168	-85.84
278.383	-10.07
278.599	172.2
278.814	172.2
279.03	-118.61
279.245	67.75
279.461	213.16
279.676	207.02
279.892	-96.08
280.107	-132.95
280.322	55.47
280.538	221.35
280.753	-79.7
280.969	-77.65
281.184	211.11
281.399	301.22
281.615	-67.41
281.83	41.13
282.045	92.33
282.26	20.65
282.476	-38.74
282.691	37.03
282.906	194.73
283.122	141.48
283.337	-34.64
283.552	12.46
283.767	127.14
283.983	170.15
284.198	10.41
284.413	-38.74
284.628	20.65
284.843	166.06
285.058	39.08
285.274	-73.56
285.489	98.47
285.704	235.69
285.919	-20.31
286.134	24.75
286.349	200.87
286.564	88.23
286.779	57.51
286.995	-22.36
287.21	41.13
287.425	293.03
287.64	-48.98
287.855	71.85
288.07	0.17
288.285	290.98
288.5	-5.97
288.715	20.65
288.93	116.9
289.145	96.43
289.36	-65.36
289.575	12.46
289.79	274.6
290.004	104.62
290.219	-24.4
290.434	-3.93
290.649	84.14
290.864	110.76
291.079	-3.93
291.294	-26.45
291.509	211.11
291.724	37.03
291.938	55.47
292.153	12.46
292.368	157.86
292.583	219.3
292.798	30.89
293.012	18.6
293.227	215.21
293.442	153.77
293.657	125.1
293.871	-18.26
294.086	288.93
294.301	325.8
294.516	16.55
294.73	34.99
294.945	84.14
295.16	202.92
295.374	59.56
295.589	20.65
295.804	98.47
296.018	172.2
296.233	6.31
296.447	32.94
296.662	180.39
296.877	340.13
297.091	47.27
297.306	24.75
297.52	137.38
297.735	235.69
297.949	8.36
298.164	-120.66
298.378	196.78
298.593	80.04
298.807	-30.55
299.022	59.56
299.236	344.23
299.451	129.19
299.665	45.23
299.88	12.46
300.094	290.98
300.309	168.1
300.523	-5.97
300.737	-40.79
300.952	239.78
301.166	215.21
301.381	-100.18
301.595	-147.28
301.809	180.39
302.024	61.61
302.238	28.84
302.452	180.39
302.667	186.54
302.881	301.22
303.095	61.61
303.309	41.13
303.524	80.04
303.738	164.01
303.952	-16.21
304.166	-8.02
304.381	-157.52
304.595	254.12
304.809	-34.64
305.023	-63.32
305.237	123.05
305.452	71.85
305.666	-83.8
305.88	69.8
306.094	215.21
306.308	145.58
306.522	-40.79
306.736	102.57
306.95	299.17
307.164	108.71
307.379	18.6
307.593	47.27
307.807	344.23
308.021	227.5
308.235	106.67
308.449	-114.52
308.663	100.52
308.877	503.97
309.091	43.18
309.305	67.75
309.519	-10.07
309.733	282.79
309.947	-169.81
310.161	-106.32
310.374	174.25
310.588	325.8
310.802	-73.56
311.016	-20.31
311.23	254.12
311.444	30.89
311.658	92.33
311.872	192.68
312.085	321.7
312.299	325.8
312.513	174.25
312.727	-57.17
312.941	98.47
313.154	92.33
313.368	0.17
313.582	6.31
313.796	202.92
314.009	168.1
314.223	127.14
314.437	84.14
314.651	272.55
314.864	63.66
315.078	-26.45
315.292	-112.47
315.505	100.52
315.719	186.54
315.933	67.75
316.146	-71.51
316.36	-28.5
316.573	297.13
316.787	141.48
317.001	22.7
317.214	41.13
317.428	202.92
317.641	-96.08
317.855	-34.64
318.068	198.82
318.282	164.01
318.495	88.23
318.709	-5.97
318.922	227.5
319.136	358.57
319.349	49.32
319.563	-65.36
319.776	243.88
319.99	-83.8
320.203	10.41
320.417	18.6
320.63	198.82
320.843	333.99
321.057	-3.93
321.27	2.22
321.483	327.85
321.697	233.64
321.91	2.22
322.124	26.79
322.337	172.2
322.55	53.42
322.763	-57.17
322.977	-108.37
323.19	84.14
323.403	116.9
323.617	43.18
323.83	252.07
324.043	131.24
324.256	225.45
324.469	-223.06
324.683	135.34
324.896	49.32
325.109	125.1
325.322	-126.8
325.535	129.19
325.748	389.28
325.962	164.01
326.175	77.99
326.388	-65.36
326.601	192.68
326.814	-36.69
327.027	-18.26
327.24	100.52
327.453	-26.45
327.666	184.49
327.879	133.29
328.092	114.86
328.305	270.5
328.518	116.9
328.731	39.08
328.944	-71.51
329.157	186.54
329.37	8.36
329.583	153.77
329.796	108.71
330.009	-67.41
330.222	239.78
330.435	125.1
330.648	49.32
330.861	262.31
331.073	151.72
331.286	92.33
331.499	0.17
331.712	45.23
331.925	223.4
332.138	80.04
332.35	-77.65
332.563	102.57
332.776	383.14
332.989	-30.55
333.202	-106.32
333.414	227.5
333.627	131.24
333.84	0.17
334.053	118.95
334.265	47.27
334.478	-30.55
334.691	-46.93
334.903	147.62
335.116	96.43
335.329	71.85
335.541	34.99
335.754	194.73
335.966	121
336.179	233.64
336.392	6.31
336.604	14.51
336.817	178.34
337.029	161.96
337.242	-75.6
337.454	34.99
337.667	260.26
337.88	243.88
338.092	94.38
338.305	102.57
338.517	155.82
338.729	221.35
338.942	139.43
339.154	-81.75
339.367	-1.88
339.579	221.35
339.792	-94.04
340.004	14.51
340.217	166.06
340.429	211.11
340.641	-108.37
340.854	-67.41
341.066	190.63
341.278	213.16
341.491	141.48
341.703	-116.56
341.915	-53.08
342.128	301.22
342.34	24.75
342.552	-108.37
342.764	190.63
342.977	182.44
343.189	-3.93
343.401	41.13
343.613	41.13
343.826	202.92
344.038	-59.22
344.25	90.28
344.462	37.03
344.674	90.28
344.886	-102.23
345.099	90.28
345.311	186.54
345.523	143.53
345.735	-100.18
345.947	129.19
346.159	139.43
346.371	225.45
346.583	34.99
346.795	143.53
347.007	61.61
347.219	276.65
347.431	75.95
347.643	186.54
347.855	75.95
348.067	293.03
348.279	-83.8
348.491	39.08
348.703	211.11
348.915	102.57
349.127	51.37
349.339	73.9
349.551	114.86
349.763	286.89
349.975	75.95
350.187	86.19
350.399	299.17
350.61	129.19
350.822	80.04
351.034	2.22
351.246	258.21
351.458	223.4
351.669	41.13
351.881	-16.21
352.093	350.37
352.305	225.45
352.517	-20.31
352.728	114.86
352.94	141.48
353.152	262.31
353.363	-137.04
353.575	82.09
353.787	452.77
353.999	297.13
354.21	137.38
354.422	-87.89
354.633	217.26
354.845	172.2
355.057	69.8
355.268	41.13
355.48	276.65
355.692	22.7
355.903	8.36
356.115	-63.32
356.326	-61.27
356.538	301.22
356.749	-1.88
356.961	164.01
357.172	207.02
357.384	12.46
357.595	200.87
357.807	2.22
358.018	110.76
358.23	180.39
358.441	-10.07
358.653	16.55
358.864	149.67
359.075	18.6
359.287	67.75
359.498	49.32
359.709	229.54
359.921	262.31
360.132	118.95
360.344	22.7
360.555	80.04
360.766	288.93
360.977	-100.18
361.189	90.28
361.4	192.68
361.611	350.37
361.823	67.75
362.034	24.75
362.245	24.75
362.456	155.82
362.667	145.58
362.879	-137.04
363.09	213.16
363.301	186.54
363.512	-24.4
363.723	-12.12
363.935	63.66
364.146	301.22
364.357	-79.7
364.568	-1.88
364.779	-16.21
364.99	278.69
365.201	-3.93
365.412	137.38
365.623	24.75
365.834	174.25
366.045	37.03
366.256	37.03
366.467	202.92
366.678	202.92
366.889	55.47
367.1	-5.97
367.311	278.69
367.522	198.82
367.733	118.95
367.944	-1.88
368.155	155.82
368.366	235.69
368.577	82.09
368.788	141.48
368.999	161.96
369.209	121
369.42	159.91
369.631	424.1
369.842	237.74
370.053	131.24
370.264	-5.97
370.474	-83.8
370.685	288.93
370.896	71.85
371.107	121
371.317	94.38
371.528	196.78
371.739	360.61
371.95	59.56
372.16	10.41
372.371	6.31
372.582	147.62
372.792	-5.97
373.003	121
373.214	129.19
373.424	213.16
373.635	-57.17
373.846	149.67
374.056	243.88
374.267	166.06
374.477	75.95
374.688	39.08
374.898	209.06
375.109	202.92
375.319	18.6
375.53	-18.26
375.74	317.61
375.951	63.66
376.161	186.54
376.372	84.14
376.582	86.19
376.793	286.89
377.003	14.51
377.214	-44.88
377.424	270.5
377.635	172.2
377.845	43.18
378.055	121
378.266	73.9
378.476	178.34
378.686	24.75
378.897	82.09
379.107	354.47
379.317	243.88
379.528	-114.52
379.738	98.47
379.948	-8.02
380.158	245.93
380.369	57.51
380.579	84.14
380.789	229.54
380.999	211.11
381.21	149.67
381.42	245.93
381.63	198.82
381.84	276.65
382.05	129.19
382.261	118.95
382.471	315.56
382.681	106.67
382.891	80.04
383.101	133.29
383.311	159.91
383.521	47.27
383.731	-30.55
383.941	182.44
384.151	270.5
384.361	90.28
384.571	-8.02
384.781	41.13
384.991	323.75
385.201	352.42
385.411	233.64
385.621	-3.93
385.831	264.36
386.041	188.58
386.251	92.33
386.461	151.72
386.671	184.49
386.881	223.4
387.091	-26.45
387.301	114.86
387.511	153.77
387.72	106.67
387.93	153.77
388.14	-14.17
388.35	221.35
388.56	374.95
388.769	16.55
388.979	34.99
389.189	200.87
389.399	264.36
389.609	49.32
389.818	77.99
390.028	239.78
390.238	202.92
390.447	-104.28
390.657	-16.21
390.867	178.34
391.076	170.15
391.286	8.36
391.496	49.32
391.705	186.54
391.915	383.14
392.125	8.36
392.334	104.62
392.544	297.13
392.753	166.06
392.963	41.13
393.172	20.65
393.382	176.3
393.591	415.91
393.801	6.31
394.01	75.95
394.22	323.75
394.429	182.44
394.639	43.18
394.848	106.67
395.058	223.4
395.267	235.69
395.477	110.76
395.686	57.51
395.895	501.92
396.105	342.18
396.314	39.08
396.524	77.99
396.733	131.24
396.942	327.85
397.152	112.81
397.361	135.34
397.57	143.53
397.78	170.15
397.989	194.73
398.198	305.32
398.407	174.25
398.617	118.95
398.826	116.9
399.035	-38.74
399.244	231.59
399.453	243.88
399.663	32.94
399.872	-118.61
400.081	90.28
400.29	368.81
400.499	6.31
400.708	157.86
400.917	157.86
401.127	159.91
401.336	-63.32
401.545	303.27
401.754	325.8
401.963	303.27
402.172	135.34
402.381	-48.98
402.59	321.7
402.799	153.77
403.008	217.26
403.217	88.23
403.426	276.65
403.635	41.13
403.844	0.17
404.053	41.13
404.262	135.34
404.471	374.95
404.68	123.05
404.888	67.75
405.097	182.44
405.306	170.15
405.515	145.58
405.724	61.61
405.933	331.94
406.142	252.07
406.35	73.9
406.559	172.2
406.768	219.3
406.977	499.88
407.185	94.38
407.394	161.96
407.603	102.57
407.812	250.02
408.02	219.3
408.229	96.43
408.438	299.17
408.646	-18.26
408.855	67.75
409.064	63.66
409.272	219.3
409.481	219.3
409.69	-48.98
409.898	-42.84
410.107	209.06
410.315	331.94
410.524	102.57
410.733	100.52
410.941	213.16
411.15	317.61
411.358	84.14
411.567	182.44
411.775	245.93
411.984	266.41
412.192	129.19
412.401	82.09
412.609	495.78
412.818	321.7
413.026	135.34
413.234	71.85
413.443	260.26
413.651	215.21
413.86	-96.08
414.068	241.83
414.276	503.97
414.485	90.28
414.693	139.43
414.901	237.74
415.11	333.99
415.318	190.63
415.526	88.23
415.734	237.74
415.943	293.03
416.151	417.96
416.359	-3.93
416.567	127.14
416.776	389.28
416.984	344.23
417.192	209.06
417.4	112.81
417.608	176.3
417.817	86.19
418.025	229.54
418.233	125.1
418.441	133.29
418.649	84.14
418.857	153.77
419.065	176.3
419.273	180.39
419.481	223.4
419.689	166.06
419.897	118.95
420.105	149.67
420.313	401.57
420.521	204.97
420.729	186.54
420.937	227.5
421.145	88.23
421.353	168.1
421.561	278.69
421.769	374.95
421.977	123.05
422.185	137.38
422.393	102.57
422.601	305.32
422.809	262.31
423.017	141.48
423.224	123.05
423.432	497.83
423.64	252.07
423.848	94.38
424.056	145.58
424.263	417.96
424.471	295.08
424.679	274.6
424.887	159.91
425.094	532.64
425.302	325.8
425.51	49.32
425.718	223.4
425.925	295.08
426.133	233.64
426.341	264.36
426.548	145.58
426.756	280.74
426.964	385.19
427.171	188.58
427.379	215.21
427.586	319.65
427.794	379.04
428.001	286.89
428.209	284.84
428.417	514.21
428.624	444.58
428.832	256.17
429.039	254.12
429.247	387.24
429.454	393.38
429.662	293.03
429.869	211.11
430.076	352.42
430.284	440.48
430.491	256.17
430.699	276.65
430.906	530.59
431.114	481.44
431.321	286.89
431.528	342.18
431.736	364.71
431.943	327.85
432.15	319.65
432.358	225.45
432.565	643.23
432.772	112.81
432.979	481.44
433.187	399.52
433.394	587.94
433.601	391.33
433.808	399.52
434.016	407.72
434.223	471.2
434.43	526.5
434.637	368.81
434.844	489.64
435.052	563.36
435.259	589.99
435.466	506.02
435.673	473.25
435.88	817.31
436.087	657.57
436.294	745.63
436.501	606.37
436.708	719.01
436.915	706.72
437.122	655.52
437.329	483.49
437.537	618.66
437.743	802.97
437.95	768.16
438.157	637.09
438.364	768.16
438.571	641.18
438.778	606.37
438.985	776.35
439.192	852.13
439.399	825.5
439.606	682.14
439.813	794.78
440.02	1218.71
440.227	1233.05
440.433	805.02
440.64	786.59
440.847	856.22
441.054	966.81
441.261	905.37
441.467	921.76
441.674	952.48
441.881	1142.94
442.088	1007.77
442.294	979.1
442.501	1136.79
442.708	1380.5
442.914	1001.63
443.121	1071.26
443.328	1345.69
443.534	1409.17
443.741	1138.84
443.948	975
444.154	1427.6
444.361	1407.13
444.568	1228.95
444.774	1370.26
444.981	1419.41
445.187	1613.97
445.394	1521.81
445.6	1427.6
445.807	1718.42
446.013	1677.46
446.22	1390.74
446.426	1810.58
446.633	1865.87
446.839	2191.5
447.046	1669.27
447.252	1876.11
447.459	1900.69
447.665	1863.82
447.871	1976.46
448.078	2308.23
448.284	2195.59
448.491	2451.59
448.697	2351.24
448.903	2257.03
449.11	2515.08
449.316	2465.93
449.522	2623.62
449.728	2617.47
449.935	2781.31
450.141	2816.13
450.347	2889.85
450.553	2898.05
450.76	3117.18
450.966	3211.39
451.172	3184.76
451.378	3176.57
451.584	3426.42
451.791	3678.32
451.997	3631.22
452.203	3526.77
452.409	3993.71
452.615	3944.56
452.821	3557.49
453.027	3606.64
453.233	4272.23
453.44	4100.2
453.646	3850.35
453.852	4143.21
454.058	4292.71
454.264	4515.94
454.47	4540.52
454.676	4481.13
454.882	4870.24
455.088	4808.8
455.294	4884.58
455.5	5095.52
455.705	5279.83
455.911	5019.74
456.117	4749.41
456.323	4941.92
456.529	4763.75
456.735	5318.75
456.941	4978.78
457.147	5365.85
457.352	5142.62
457.558	5185.63
457.764	5046.37
457.97	5245.02
458.176	5335.13
458.381	5560.41
458.587	5347.42
458.793	5359.7
458.999	5220.44
459.204	5584.98
459.41	5353.56
459.616	5171.29
459.821	5388.38
460.027	5378.14
460.233	5376.09
460.438	5189.72
460.644	5296.22
460.85	5222.49
461.055	5187.68
461.261	5240.92
461.466	4827.23
461.672	4722.79
461.878	4767.84
462.083	4948.06
462.289	4507.75
462.494	4790.37
462.7	4466.79
462.905	4317.29
463.111	4685.92
463.316	4833.38
463.522	4464.74
463.727	4501.61
463.932	4698.21
464.138	4542.57
464.343	4573.28
464.549	4513.89
464.754	4943.97
464.959	4812.9
465.165	4427.88
465.37	4272.23
465.575	4292.71
465.781	4352.1
465.986	4302.95
466.191	4102.25
466.397	4290.67
466.602	4200.55
466.807	4118.64
467.012	4253.8
467.218	4378.73
467.423	4153.45
467.628	4104.3
467.833	4268.14
468.038	4427.88
468.244	4053.1
468.449	4264.04
468.654	4241.51
468.859	4175.98
469.064	4294.76
469.269	3885.17
469.474	4053.1
469.679	4507.75
469.885	4251.75
470.09	4145.26
470.295	4161.64
470.5	4122.73
470.705	4360.3
470.91	4157.55
471.115	4145.26
471.32	4440.17
471.525	4577.38
471.73	4135.02
471.935	4202.6
472.139	4251.75
472.344	4153.45
472.549	4276.33
472.754	4247.66
472.959	4454.5
473.164	4356.2
473.369	4438.12
473.574	4520.04
473.778	4720.74
473.983	4431.98
474.188	4608.1
474.393	4094.06
474.598	4620.39
474.802	4407.4
475.007	4329.58
475.212	4290.67
475.417	4388.97
475.621	4530.28
475.826	4235.37
476.031	4382.82
476.235	4438.12
476.44	4511.85
476.645	4235.37
476.849	4331.62
477.054	4571.24
477.259	4448.36
477.463	4620.39
477.668	4589.67
477.872	4841.57
478.077	4474.98
478.282	4124.78
478.486	4485.22
478.691	4470.89
478.895	4561
479.1	4616.29
479.304	4524.13
479.509	4499.56
479.713	4628.58
479.918	4454.5
480.122	4333.67
480.326	4561
480.531	4649.06
480.735	4546.66
480.94	4325.48
481.144	4939.87
481.348	4690.02
481.553	4454.5
481.757	4401.26
481.961	4679.78
482.166	4692.07
482.37	4511.85
482.574	4425.83
482.778	4491.37
482.983	4900.96
483.187	4606.05
483.391	4579.43
483.595	4690.02
483.8	4855.9
484.004	4702.31
484.208	4718.69
484.412	5060.7
484.616	4755.55
484.821	4700.26
485.025	4710.5
485.229	4716.64
485.433	4958.3
485.637	4872.29
485.841	4845.66
486.045	5032.03
486.249	5228.63
486.453	4880.48
486.657	5044.32
486.861	5087.33
487.065	4958.3
487.269	5077.09
487.473	4880.48
487.677	5472.34
487.881	5646.42
488.085	5249.11
488.289	5212.25
488.493	5341.27
488.697	5773.39
488.901	5519.45
489.105	5427.29
489.309	5582.93
489.512	5871.7
489.716	5613.65
489.92	5574.74
490.124	5859.41
490.328	6037.58
490.531	5918.8
490.735	5961.81
490.939	6068.3
491.143	6187.08
491.346	6002.77
491.55	6121.55
491.754	6174.8
491.958	6162.51
492.161	6240.33
492.365	6074.45
492.569	6494.28
492.772	6533.19
492.976	6461.51
493.18	6314.06
493.383	6793.28
493.587	6598.73
493.79	6824
493.994	6645.83
494.197	6934.59
494.401	6965.31
494.605	6797.38
494.808	7123.01
495.012	7202.88
495.215	7475.26
495.419	7331.9
495.622	7137.34
495.825	7497.78
496.029	7430.2
496.232	7499.83
496.436	7653.43
496.639	8052.78
496.843	7604.28
497.046	7856.18
497.249	7948.34
497.453	7995.44
497.656	7997.49
497.859	8108.08
498.063	8210.48
498.266	8679.46
498.469	8222.77
498.673	8253.48
498.876	8656.93
499.079	8755.24
499.282	8841.25
499.485	9021.47
499.689	9078.82
499.892	9320.48
500.095	9127.97
500.298	9494.55
500.501	9230.37
500.705	9668.63
500.908	9887.76
501.111	9883.67
501.314	9820.18
501.517	10164.24
501.72	10297.36
501.923	10229.77
502.126	10366.99
502.329	10895.36
502.532	10889.22
502.735	10719.24
502.938	11147.26
503.141	11063.3
503.344	11214.85
503.547	11350.01
503.75	11448.32
503.953	11628.54
504.156	11872.25
504.359	11771.9
504.562	11659.26
504.765	12351.47
504.968	12398.57
505.17	12586.99
505.373	12611.56
505.576	13139.94
505.779	13070.31
505.982	13072.36
506.185	13461.47
506.387	13463.52
506.59	13715.42
506.793	14176.21
506.996	13793.24
507.198	14534.6
507.401	14729.16
507.604	14403.53
507.807	14921.67
508.009	14968.77
508.212	15267.78
508.415	15214.53
508.617	15374.27
508.82	15693.76
509.022	15708.09
509.225	16248.75
509.428	16058.29
509.63	16617.39
509.833	16502.7
510.035	17479.58
510.238	16865.19
510.44	17377.19
510.643	17577.89
510.845	17633.18
511.048	17829.79
511.25	17981.34
511.453	18435.99
511.655	18929.55
511.858	18868.11
512.06	19158.92
512.262	19257.22
512.465	19289.99
512.667	19513.22
512.87	19838.84
513.072	20506.48
513.274	20481.91
513.477	20688.75
513.679	21120.87
513.881	21104.49
514.084	21505.89
514.286	21540.71
514.488	21706.59
514.69	22161.24
514.893	22409.04
515.095	22812.49
515.297	22896.46
515.499	22966.09
515.701	23121.74
515.904	23527.24
516.106	24475.45
516.308	24270.65
516.51	24549.17
516.712	24457.01
516.914	25091.88
517.116	25456.42
517.318	25487.14
517.52	25722.66
517.722	26345.24
517.925	26060.57
518.127	26703.64
518.329	27070.22
518.531	26834.71
518.733	27473.67
518.935	27649.8
519.136	28000
519.338	28350.2
519.54	28626.68
519.742	28622.58
519.944	29183.73
520.146	29556.46
520.348	29957.86
520.55	30133.98
520.752	30441.18
520.954	30500.57
521.155	30463.71
521.357	30973.65
521.559	31446.73
521.761	32296.64
521.963	31977.15
522.164	32200.38
522.366	32163.52
522.568	32736.95
522.77	33130.16
522.971	33746.6
523.173	33283.76
523.375	33851.05
523.576	33414.83
523.778	34457.24
523.98	34274.98
524.181	34985.62
524.383	34948.76
524.584	35503.76
524.786	35313.3
524.988	35528.33
525.189	35917.45
525.391	36259.46
525.592	36243.07
525.794	36421.25
525.995	36742.78
526.197	36591.23
526.398	37011.06
526.6	37256.82
526.801	37701.23
527.003	37187.19
527.204	37248.63
527.406	38706.78
527.607	38028.9
527.808	38252.13
528.01	38145.64
528.211	38571.61
528.412	39155.29
528.614	39099.99
528.815	39132.76
529.016	39644.75
529.218	39290.45
529.419	39337.55
529.62	39366.23
529.822	39450.19
530.023	39867.98
530.224	39630.41
530.425	40070.73
530.626	39552.59
530.828	39636.56
531.029	40492.61
531.23	39818.83
531.431	40216.13
531.632	40756.8
531.833	40916.54
532.035	40336.96
532.236	40554.05
532.437	41061.94
532.638	40488.51
532.839	41156.15
533.04	41539.12
533.241	40859.2
533.442	41459.25
533.643	40699.45
533.844	41186.87
534.045	41893.42
534.246	40754.75
534.447	41608.75
534.648	41498.16
534.849	41702.96
535.05	41487.92
535.251	41446.96
535.451	41678.38
535.652	41504.31
535.853	41485.87
536.054	42014.25
536.255	41887.28
536.456	41430.58
536.657	42186.28
536.857	41739.82
537.058	42079.78
537.259	41963.05
537.46	42012.2
537.66	41795.12
537.861	41893.42
538.062	42012.2
538.263	42061.35
538.463	41598.51
538.664	41928.23
538.865	42661.41
539.065	42268.2
539.266	42104.36
539.466	42348.07
539.667	41621.04
539.868	42278.44
540.068	42210.85
540.269	42243.62
540.469	42507.81
540.67	42182.18
540.87	42565.15
541.071	42231.33
541.271	42575.39
541.472	42356.26
541.672	42083.88
541.873	42401.32
542.073	42200.61
542.274	42989.08
542.474	42208.81
542.675	42606.11
542.875	43091.48
543.075	42378.79
543.276	42442.28
543.476	43046.43
543.676	42307.11
543.877	43081.24
544.077	42792.48
544.277	43071
544.478	42743.33
544.678	43015.71
544.878	43009.56
545.078	42704.42
545.279	43042.33
545.479	42487.33
545.679	42901.02
545.879	43189.78
546.079	43318.81
546.28	42952.22
546.48	43243.03
546.68	43365.91
546.88	43159.06
547.08	43099.67
547.28	43122.2
547.48	43335.19
547.68	43464.21
547.88	43081.24
548.081	43484.69
548.281	43058.71
548.481	43245.08
548.681	43447.83
548.881	43322.9
549.081	43484.69
549.28	43353.62
549.48	43568.66
549.68	43574.8
549.88	44070.41
550.08	43265.56
550.28	43968.01
550.48	43445.78
550.68	43968.01
550.88	43458.07
551.08	43476.5
551.279	43757.07
551.479	43380.24
551.679	43824.65
551.879	43370
552.079	44117.51
552.278	43974.16
552.478	44348.93
552.678	43546.13
552.878	44144.14
553.077	43554.32
553.277	43632.14
553.477	44422.66
553.676	44211.72
553.876	44172.81
554.076	43714.06
554.275	43787.79
554.475	42980.89
554.674	44133.9
554.874	44039.69
555.074	43681.3
555.273	44076.55
555.473	43957.77
555.672	43709.97
555.872	43908.62
556.071	43763.21
556.271	44295.69
556.47	43566.61
556.67	43136.54
556.869	43572.75
557.068	44201.48
557.268	43542.03
557.467	43474.45
557.667	43470.36
557.866	43636.24
558.065	43613.71
558.265	43007.51
558.464	43337.24
558.663	43771.41
558.863	43261.46
559.062	43601.43
559.261	42976.79
559.461	43681.3
559.66	42759.71
559.859	42774.05
560.058	42765.85
560.258	42804.77
560.457	42712.61
560.656	43042.33
560.855	42608.16
561.054	42903.07
561.253	42882.59
561.453	43183.64
561.652	43025.95
561.851	43181.59
562.05	42294.82
562.249	42143.27
562.448	42991.13
562.647	42610.21
562.846	42583.58
563.045	42384.93
563.244	42016.3
563.443	42593.82
563.642	41651.76
563.841	41911.85
564.04	41383.48
564.239	42219.05
564.438	41879.08
564.637	41459.25
564.836	41940.52
565.035	41236.02
565.234	41588.27
565.432	41299.51
565.631	41096.76
565.83	41174.58
566.029	41104.95
566.228	40810.04
566.427	40623.68
566.625	40635.97
566.824	40429.12
567.023	40664.64
567.222	39654.99
567.42	40562.24
567.619	40549.95
567.818	40425.03
568.016	40166.98
568.215	40865.34
568.414	40173.13
568.612	40513.09
568.811	39663.18
569.01	39908.94
569.208	39208.53
569.407	39820.88
569.605	38694.49
569.804	39104.09
570.002	39239.25
570.201	39169.62
570.4	39003.74
570.598	38729.31
570.797	38760.03
570.995	38438.5
571.193	38411.87
571.392	38622.81
571.59	38139.49
571.789	38424.16
571.987	37971.56
572.186	38028.9
572.384	37518.96
572.582	38055.53
572.781	38057.57
572.979	37262.96
573.177	37652.08
573.376	37545.58
573.574	36877.94
573.772	37416.56
573.971	36595.32
574.169	36720.25
574.367	36517.5
574.565	36855.42
574.763	36867.7
574.962	36505.21
575.16	36159.11
575.358	36107.91
575.556	35989.13
575.754	36292.22
575.952	35909.25
576.151	36132.48
576.349	35999.37
576.547	35368.59
576.745	35280.53
576.943	35712.65
577.141	35464.85
577.339	35387.02
577.537	35288.72
577.735	35407.5
577.933	34905.75
578.131	34672.28
578.329	34920.09
578.527	34893.46
578.725	34952.85
578.923	34672.28
579.121	34379.42
579.319	34377.37
579.516	34256.54
579.714	34373.28
579.912	34160.29
580.11	33955.49
580.308	34082.47
580.506	33920.68
580.704	33349.29
580.901	34369.18
581.099	34068.13
581.297	33468.08
581.495	33537.71
581.692	33687.21
581.89	33121.97
582.088	33824.42
582.285	33164.98
582.483	33824.42
582.681	33447.6
582.878	33130.16
583.076	33181.36
583.274	33402.54
583.471	33179.31
583.669	32908.98
583.866	32767.67
584.064	32941.75
584.262	32220.86
584.459	32708.28
584.657	32399.04
584.854	33101.49
585.052	32220.86
585.249	32413.37
585.447	32485.05
585.644	31925.96
585.841	32730.81
586.039	32407.23
586.236	31706.82
586.434	31919.81
586.631	31438.54
586.828	31913.67
587.026	32042.69
587.223	31811.27
587.42	31858.37
587.618	31778.5
587.815	31364.81
588.012	31538.89
588.21	31313.61
588.407	31401.68
588.604	31379.15
588.801	31422.16
588.999	31332.04
589.196	31030.99
589.393	31088.34
589.59	31108.82
589.787	31438.54
589.984	31151.82
590.182	30838.48
590.379	31274.7
590.576	31020.75
590.773	30877.4
590.97	30795.48
591.167	30942.93
591.364	30629.59
591.561	30602.97
591.758	30717.65
591.955	30957.27
592.152	31082.19
592.349	30195.42
592.546	30822.1
592.743	30357.21
592.94	30185.18
593.137	30584.54
593.334	30897.88
593.531	30465.75
593.727	30549.72
593.924	30453.47
594.121	30320.35
594.318	30709.46
594.515	30451.42
594.712	30359.26
594.908	30023.39
595.105	30420.7
595.302	30260.96
595.499	30303.96
595.696	30080.74
595.892	30004.96
596.089	30766.81
596.286	30207.71
596.482	30201.57
596.679	30469.85
596.876	29812.45
597.072	29959.91
597.269	29875.94
597.466	29892.32
597.662	29538.02
597.859	30039.78
598.055	30162.65
598.252	29970.15
598.448	30236.38
598.645	29869.79
598.841	29495.02
599.038	30334.68
599.234	30138.08
599.431	29728.49
599.627	29908.71
599.824	30314.2
600.02	29906.66
600.217	29699.81
600.413	29751.01
600.609	29669.09
600.806	30035.68
601.002	29857.51
601.198	29322.99
601.395	29310.7
601.591	29808.36
601.787	29638.37
601.984	29445.87
602.18	29935.33
602.376	29951.71
602.572	30064.35
602.769	29572.84
602.965	29286.12
603.161	29800.16
603.357	29261.55
603.553	29957.86
603.75	29417.19
603.946	29427.43
604.142	29284.08
604.338	29230.83
604.534	29495.02
604.73	29021.94
604.926	29050.61
605.122	29669.09
605.318	29243.12
605.514	29163.25
605.71	29085.42
605.906	29179.63
606.102	29329.13
606.298	29482.73
606.494	28886.77
606.69	29417.19
606.886	29316.84
607.082	29017.84
607.278	28950.26
607.474	28458.74
607.67	29193.97
607.866	28610.29
608.062	29105.9
608.257	28880.63
608.453	28624.63
608.649	29095.66
608.845	28741.36
609.041	28882.67
609.236	29081.33
609.432	28919.54
609.628	29028.08
609.824	28579.57
610.019	28620.53
610.215	29007.6
610.411	28944.11
610.606	28686.07
610.802	28946.16
610.998	28821.23
611.193	28980.98
611.389	28528.38
611.584	28706.55
611.78	28415.74
611.976	28444.41
612.171	28876.53
612.367	28987.12
612.562	28907.25
612.758	28178.17
612.953	28393.21
613.149	28946.16
613.344	28606.2
613.539	28958.45
613.735	28647.16
613.93	28376.83
614.126	28565.24
614.321	28507.9
614.517	28405.5
614.712	28464.89
614.907	28440.31
615.103	28561.14
615.298	28233.47
615.493	28559.09
615.688	28309.24
615.884	28897.01
616.079	28215.04
616.274	28382.97
616.47	28505.85
616.665	28440.31
616.86	28253.95
617.055	28223.23
617.25	28169.98
617.445	28450.55
617.641	28268.28
617.836	28071.68
618.031	27617.03
618.226	28442.36
618.421	28305.15
618.616	28208.89
618.811	27569.93
619.006	28210.94
619.201	27666.18
619.396	28098.3
619.591	27410.18
619.786	27832.07
619.981	27549.45
620.176	27805.44
620.371	27434.76
620.566	27303.69
620.761	27363.08
620.956	27879.17
621.151	27285.26
621.346	27504.39
621.541	26652.44
621.735	27576.07
621.93	26728.21
622.125	27029.26
622.32	26398.49
622.515	26824.47
622.709	26767.12
622.904	26730.26
623.099	26578.71
623.294	26795.79
623.488	26650.39
623.683	26459.93
623.878	26099.48
624.072	26576.66
624.267	26212.12
624.462	26103.58
624.656	25616.16
624.851	26128.16
625.046	25929.5
625.24	25644.84
625.435	25622.31
625.629	26017.57
625.824	25972.51
626.018	25816.86
626.213	24993.58
626.407	25325.35
626.602	25444.13
626.796	25468.71
626.991	25167.66
627.185	25173.8
627.38	25470.76
627.574	25091.88
627.768	24966.96
627.963	24780.59
628.157	24710.96
628.352	24856.37
628.546	24201.02
628.74	24743.73
628.935	24366.9
629.129	24645.43
629.323	24364.85
629.517	24368.95
629.712	24430.39
629.906	24704.82
630.1	23949.12
630.294	24479.54
630.489	24211.26
630.683	24461.11
630.877	23998.27
631.071	24080.19
631.265	23949.12
631.459	23779.14
631.653	23568.2
631.848	24258.36
632.042	23762.75
632.236	23414.6
632.43	23473.99
632.624	23717.7
632.818	23222.09
633.012	23138.12
633.206	22843.21
633.4	23357.25
633.594	22720.34
633.788	22706
633.982	22972.24
634.176	23072.59
634.369	22781.78
634.563	22689.62
634.757	22290.26
634.951	22726.48
635.145	22736.72
635.339	22353.75
635.533	22126.43
635.726	22157.14
635.92	21702.5
636.114	21739.36
636.308	21596
636.501	21475.17
636.695	21770.08
636.889	21124.97
637.083	20649.84
637.276	21135.21
637.47	20666.22
637.664	20805.49
637.857	20604.78
638.051	20756.33
638.244	20348.79
638.438	20096.89
638.632	20242.29
638.825	19949.43
639.019	20199.29
639.212	19517.31
639.406	19492.74
639.599	19638.14
639.793	19480.45
639.986	19081.1
640.18	19111.82
640.373	19126.15
640.567	18294.68
640.76	18407.31
640.954	18407.31
641.147	18184.09
641.34	17909.66
641.534	18065.3
641.727	17604.51
641.92	17930.14
642.114	17512.35
642.307	17407.91
642.5	17049.51
642.694	16967.59
642.887	16881.58
643.08	16758.7
643.273	16660.4
643.467	16500.65
643.66	16308.15
643.853	15896.5
644.046	15736.76
644.239	16056.25
644.432	15628.22
644.626	15259.59
644.819	14858.18
645.012	15093.7
645.205	15065.03
645.398	14919.62
645.591	14763.98
645.784	14512.08
645.977	14559.18
646.17	14327.76
646.363	14157.78
646.556	14079.96
646.749	13989.85
646.942	13965.27
647.135	13606.88
647.328	13649.88
647.521	13625.31
647.714	13113.31
647.907	13240.29
648.099	13291.49
648.292	13299.68
648.485	13146.08
648.678	12597.23
648.871	12869.61
649.064	12558.32
649.256	12343.28
649.449	12464.11
649.642	12279.79
649.835	12236.78
650.027	11978.74
650.22	12003.32
650.413	12064.75
650.605	12042.23
650.798	11902.97
650.991	11458.56
651.183	11687.93
651.376	11534.33
651.568	11640.83
651.761	11376.64
651.954	11530.23
652.146	11425.79
652.339	11405.31
652.531	11354.11
652.724	11278.33
652.916	10930.18
653.109	10745.86
653.301	10903.56
653.494	11282.43
653.686	10864.64
653.879	10840.07
654.071	10895.36
654.263	10592.27
654.456	10516.49
654.648	10547.21
654.84	10440.72
655.033	10434.57
655.225	10682.38
655.417	10072.08
655.61	10385.42
655.802	10557.45
655.994	10266.64
656.186	9861.14
656.379	9779.22
656.571	9961.49
656.763	9791.51
656.955	9803.8
657.148	9855
657.34	9852.95
657.532	9814.04
657.724	9418.78
657.916	9502.75
658.108	9541.66
658.3	9402.4
658.492	9445.4
658.684	9078.82
658.876	9269.28
659.068	8919.07
659.26	8802.34
659.452	8859.68
659.644	8917.03
659.836	9035.81
660.028	8785.96
660.22	8413.23
660.412	8626.22
660.604	8386.6
660.796	8366.12
660.988	8294.44
661.18	8282.16
661.372	8085.55
661.563	8007.73
661.755	7772.21
661.947	7624.76
662.139	7794.74
662.331	7770.16
662.522	7514.17
662.714	7344.19
662.906	7346.23
663.097	7329.85
663.289	7166.01
663.481	7129.15
663.673	7241.79
663.864	7055.42
664.056	6760.52
664.247	6934.59
664.439	7039.04
664.631	6590.53
664.822	6494.28
665.014	6936.64
665.205	6658.12
665.397	6226
665.588	6365.26
665.78	6326.35
665.971	6406.22
666.163	6281.29
666.354	6074.45
666.546	6056.01
666.737	5933.14
666.929	6027.34
667.12	5836.88
667.311	5990.48
667.503	5818.45
667.694	5802.07
667.885	5679.19
668.077	5650.52
668.268	5423.19
668.459	5556.31
668.651	5277.79
668.842	5625.94
669.033	5417.05
669.224	5318.75
669.416	5431.38
669.607	5242.97
669.798	5189.72
669.989	5036.13
670.18	5144.67
670.371	5046.37
670.563	4866.14
670.754	5185.63
670.945	5029.98
671.136	5081.18
671.327	4880.48
671.518	4773.99
671.709	4929.63
671.9	5144.67
672.091	5062.75
672.282	4796.51
672.473	4595.81
672.664	4919.39
672.855	4913.25
673.046	4700.26
673.237	4847.71
673.428	4831.33
673.619	4896.86
673.809	4601.96
674	4700.26
674.191	4984.93
674.382	4692.07
674.573	4497.51
674.764	4612.2
674.954	4708.45
675.145	4417.64
675.336	4339.82
675.527	4411.5
675.717	4554.85
675.908	4655.2
676.099	4434.02
676.289	4401.26
676.48	4356.2
676.671	4470.89
676.861	4642.92
677.052	4325.48
677.243	4386.92
677.433	4431.98
677.624	4493.41
677.814	4440.17
678.005	4493.41
678.195	4761.7
678.386	4528.23
678.576	4452.45
678.767	4341.86
678.957	4511.85
679.148	4653.16
679.338	4601.96
679.529	4655.2
679.719	4675.68
679.909	4782.18
680.1	4593.76
680.29	4964.45
680.481	4395.11
680.671	4696.16
680.861	4630.63
681.052	4735.07
681.242	4753.51
681.432	4868.19
681.622	4784.23
681.813	4755.55
682.003	4935.78
682.193	4649.06
682.383	4927.58
682.573	4950.11
682.764	5056.61
682.954	5187.68
683.144	5247.07
683.334	5351.51
683.524	5249.11
683.714	5306.46
683.904	5255.26
684.094	5367.9
684.284	5623.89
684.474	5511.25
684.664	5847.12
684.854	5722.2
685.044	5732.44
685.234	5625.94
685.424	5748.82
685.614	5763.15
685.804	6215.76
685.994	5918.8
686.184	6127.69
686.374	6314.06
686.564	6158.41
686.753	6504.52
686.943	6176.84
687.133	6582.34
687.323	6494.28
687.513	6574.15
687.702	6639.69
687.892	6774.85
688.082	7102.53
688.272	7182.4
688.461	7024.7
688.651	7561.27
688.841	7489.59
689.03	7198.78
689.22	7508.02
689.41	7864.37
689.599	7876.66
689.789	7751.73
689.979	7821.36
690.168	8161.33
690.358	8335.4
690.547	8286.25
690.737	8398.89
690.926	8788
691.116	8499.24
691.305	8839.2
691.495	8810.53
691.684	8931.36
691.874	9015.33
692.063	9089.06
692.252	9140.26
692.442	9709.59
692.631	9347.1
692.82	9173.02
693.01	9680.92
693.199	9678.87
693.388	10018.83
693.578	10154
693.767	10072.08
693.956	10264.59
694.146	10194.96
694.335	10317.84
694.524	10299.41
694.713	10965
694.902	10934.28
695.092	10706.95
695.281	10719.24
695.47	11061.25
695.659	10893.32
695.848	11167.74
696.037	11065.35
696.226	11698.17
696.415	11212.8
696.604	11515.9
696.793	11659.26
696.982	11743.22
697.171	11941.88
697.36	11798.52
697.549	11651.06
697.738	11591.67
697.927	11931.64
698.116	11859.96
698.305	11984.88
698.494	12285.94
698.683	12097.52
698.872	12238.83
699.061	12060.66
699.25	12500.97
699.438	12632.04
699.627	12339.18
699.816	12558.32
700.005	12472.3
700.193	12259.31
700.382	12713.96
700.571	12609.51
700.76	12781.54
700.948	12836.84
701.137	12632.04
701.326	13025.25
701.514	12679.15
701.703	12828.65
701.892	12867.56
702.08	13072.36
702.269	12775.4
702.457	12810.22
702.646	12949.48
702.834	12656.62
703.023	13002.72
703.212	13180.9
703.4	12724.2
703.589	12654.57
703.777	13135.84
703.965	13039.59
704.154	12972
704.342	13031.4
704.531	13168.61
704.719	12890.09
704.907	12879.85
705.096	12902.37
705.284	13111.27
705.472	13127.65
705.661	12961.76
705.849	12885.99
706.037	13144.03
706.226	13152.23
706.414	12892.13
706.602	12716.01
706.79	13207.52
706.979	13023.2
707.167	13031.4
707.355	12689.39
707.543	13072.36
707.731	13021.16
707.919	13025.25
708.107	12666.86
708.296	12830.69
708.484	12730.34
708.672	12804.07
708.86	12623.85
709.048	13004.77
709.236	12564.46
709.424	12914.66
709.612	12761.06
709.8	12773.35
709.988	12511.21
710.176	12615.66
710.364	12574.7
710.551	12613.61
710.739	12546.03
710.927	12507.12
711.115	12335.09
711.303	12785.64
711.491	12529.64
711.679	12400.62
711.866	12249.07
712.054	12632.04
712.242	12402.67
712.43	12611.56
712.617	12339.18
712.805	12314.61
712.993	12175.34
713.181	12097.52
713.368	12175.34
713.556	12394.48
713.744	12034.04
713.931	12136.43
714.119	12025.84
714.306	12376.05
714.494	11868.15
714.682	11780.09
714.869	11646.97
715.057	12070.9
715.244	11716.6
715.432	11902.97
715.619	11630.59
715.807	11657.21
715.994	11882.49
716.182	11405.31
716.369	11532.28
716.556	11720.7
716.744	11444.22
716.931	11261.95
717.119	11333.63
717.306	11569.15
717.493	11626.49
717.681	11425.79
717.868	11001.86
718.055	11280.38
718.242	11132.93
718.43	11120.64
718.617	10911.75
718.804	11046.91
718.991	11243.52
719.179	10743.81
719.366	10739.72
719.553	10919.94
719.74	10813.45
719.927	10557.45
720.114	10682.38
720.301	10563.59
720.488	10647.56
720.676	10477.58
720.863	10760.2
721.05	11005.95
721.237	10702.86
721.424	10555.4
721.611	10467.34
721.798	10334.22
721.985	10291.21
722.172	10162.19
722.358	9971.73
722.545	10504.2
722.732	10270.73
722.919	10162.19
723.106	9992.21
723.293	9977.87
723.48	10164.24
723.667	9953.3
723.853	9934.87
724.04	10031.12
724.227	9971.73
724.414	9572.38
724.6	9676.82
724.787	9760.79
724.974	9963.54
725.161	9672.73
725.347	9404.44
725.534	9660.44
725.72	9340.96
725.907	9400.35
726.094	9238.56
726.28	9324.57
726.467	9459.74
726.653	9187.36
726.84	9107.49
727.027	9549.85
727.213	9265.18
727.4	9414.68
727.586	8988.71
727.773	9254.94
727.959	9152.54
728.145	9220.13
728.332	8962.08
728.518	8906.79
728.705	9041.95
728.891	8642.6
729.077	8855.59
729.264	8753.19
729.45	8828.96
729.636	8781.86
729.823	8554.54
730.009	8849.44
730.195	8472.62
730.382	8517.67
730.568	8388.65
730.754	8792.1
730.94	8421.42
731.126	8630.31
731.313	8249.39
731.499	8572.97
731.685	8572.97
731.871	8257.58
732.057	8214.57
732.243	8546.34
732.429	8255.53
732.615	8288.3
732.801	8157.23
732.987	8042.54
733.173	8175.66
733.359	8024.11
733.545	7997.49
733.731	8050.74
733.917	8341.55
734.103	8050.74
734.289	8126.51
734.475	7811.12
734.661	8046.64
734.847	7854.13
735.033	7716.92
735.219	7960.63
735.404	7833.65
735.59	7753.78
735.776	7503.93
735.962	7718.96
736.148	7571.51
736.333	7718.96
736.519	7649.33
736.705	7725.11
736.89	7417.91
737.076	7379
737.262	7280.7
737.447	7225.4
737.633	7200.83
737.819	7237.69
738.004	7297.08
738.19	7235.64
738.375	7192.64
738.561	7096.38
738.747	7202.88
738.932	7004.22
739.118	7215.16
739.303	7149.63
739.489	6852.67
739.674	7006.27
739.859	6783.04
740.045	6891.59
740.23	6789.19
740.416	6590.53
740.601	6854.72
740.786	6588.49
740.972	6635.59
741.157	6838.34
741.342	6473.8
741.528	6516.81
741.713	6588.49
741.898	6561.86
742.084	6635.59
742.269	6316.11
742.454	6363.21
742.639	6541.38
742.824	6336.59
743.01	6455.37
743.195	6445.13
743.38	6422.6
743.565	6355.02
743.75	6215.76
743.935	6135.89
744.12	6221.9
744.305	5963.86
744.49	5916.75
744.675	5937.23
744.86	5888.08
745.045	6226
745.23	5802.07
745.415	5908.56
745.6	6185.04
745.785	5904.46
745.97	5949.52
746.155	5683.28
746.34	5935.18
746.525	5636.18
746.71	5705.81
746.895	5470.3
747.079	5648.47
747.264	5445.72
747.449	5488.73
747.634	5427.29
747.819	5462.1
748.003	5580.89
748.188	5245.02
748.373	5312.6
748.557	5505.11
748.742	5365.85
748.927	5060.7
749.111	5134.43
749.296	5206.11
749.481	5382.23
749.665	5003.36
749.85	4886.62
750.034	5122.14
750.219	4997.21
750.404	4931.68
750.588	4753.51
750.773	4812.9
750.957	4872.29
751.141	4585.57
751.326	4847.71
751.51	4702.31
751.695	4667.49
751.879	4544.61
752.064	4819.04
752.248	4694.12
752.432	4857.95
752.617	4536.42
752.801	4626.53
752.985	4657.25
753.17	4671.59
753.354	4393.06
753.538	4376.68
753.722	4460.65
753.907	4323.43
754.091	4235.37
754.275	4378.73
754.459	4163.69
754.643	4186.22
754.828	4053.1
755.012	4077.68
755.196	3917.93
755.38	4208.75
755.564	3917.93
755.748	3977.33
755.932	4241.51
756.116	4212.84
756.3	3930.22
756.484	3958.89
756.668	4032.62
756.852	3743.86
757.036	3825.78
757.22	3825.78
757.404	3758.19
757.588	3704.95
757.772	3770.48
757.956	3670.13
758.14	3889.26
758.323	3643.51
758.507	3631.22
758.691	3539.06
758.875	3893.36
759.059	3745.91
759.242	3369.08
759.426	3565.68
759.61	3389.56
759.794	3291.26
759.977	3346.55
760.161	3692.66
760.345	3506.29
760.528	3340.41
760.712	3113.08
760.895	3102.84
761.079	3244.15
761.263	3037.31
761.446	2863.23
761.63	2936.96
761.813	3049.6
761.997	2867.33
762.18	2971.77
762.364	2906.24
762.547	2896
762.731	2900.09
762.914	3057.79
763.098	2834.56
763.281	3068.03
763.464	2877.57
763.648	2896
763.831	2848.9
764.015	2838.66
764.198	3061.88
764.381	2812.03
764.564	2777.22
764.748	2977.92
764.931	2922.62
765.114	2777.22
765.297	2891.9
765.481	2826.37
765.664	2924.67
765.847	2828.42
766.03	2824.32
766.213	2752.64
766.397	2932.86
766.58	2764.93
766.763	2746.5
766.946	2852.99
767.129	2713.73
767.312	2791.55
767.495	2840.7
767.678	2736.26
767.861	2791.55
768.044	2752.64
768.227	2879.61
768.41	2936.96
768.593	2865.28
768.776	2756.74
768.959	2750.59
769.142	2951.29
769.324	2773.12
769.507	2658.43
769.69	2683.01
769.873	2752.64
770.056	3102.84
770.239	2728.07
770.421	2859.14
770.604	2930.81
770.787	2715.78
770.97	2795.65
771.152	2533.51
771.335	2877.57
771.518	2564.23
771.7	2580.61
771.883	2840.7
772.066	2687.11
772.248	2789.5
772.431	2777.22
772.613	2500.74
772.796	2650.24
772.978	2742.4
773.161	2812.03
773.343	2390.15
773.526	2562.18
773.708	2297.99
773.891	2265.22
774.073	2476.16
774.256	2447.49
774.438	2807.94
774.621	2306.18
774.803	2486.4
774.985	2496.64
775.168	2603.14
775.35	2308.23
775.532	2250.89
775.715	2347.14
775.897	2447.49
776.079	2246.79
776.261	2320.52
776.444	2386.05
776.626	2224.26
776.808	2334.86
776.99	2027.66
777.173	2267.27
777.355	2343.05
777.537	2134.15
777.719	2220.17
777.901	2275.46
778.083	2107.53
778.265	2005.13
778.447	2082.95
778.629	2173.07
778.811	2203.79
778.993	2187.4
779.175	2042
779.357	2103.43
779.539	1910.93
779.721	2013.32
779.903	1960.08
780.085	2076.81
780.267	2058.38
780.449	1892.49
780.631	1912.97
780.812	2111.63
780.994	1980.56
781.176	1929.36
781.358	1841.29
781.54	1955.98
781.721	1988.75
781.903	1808.53
782.085	1824.91
782.267	2082.95
782.448	1732.75
782.63	1781.9
782.812	1620.11
782.993	1900.69
783.175	1947.79
783.357	1663.12
783.538	1783.95
783.72	1656.98
783.901	1904.78
784.083	1648.79
784.264	1527.96
784.446	1628.31
784.627	1538.2
784.809	1663.12
784.99	1431.7
785.172	1695.89
785.353	1603.73
785.535	1548.44
785.716	1548.44
785.897	1384.6
786.079	1632.4
786.26	1482.9
786.441	1573.01
786.623	1411.22
786.804	1491.09
786.985	1390.74
787.167	1392.79
787.348	1474.71
787.529	1511.57
787.71	1523.86
787.891	1503.38
788.073	1521.81
788.254	1286.3
788.435	1587.35
788.616	1319.06
788.797	1337.49
788.978	1441.94
789.159	1333.4
789.34	1411.22
789.522	1429.65
789.703	1280.15
789.884	1386.65
790.065	1435.8
790.246	1562.77
790.427	1333.4
790.607	1224.86
790.788	1374.36
790.969	1214.62
791.15	1355.93
791.331	1247.38
791.512	1196.18
791.693	1198.23
791.874	1210.52
792.054	1441.94
792.235	1310.87
792.416	1171.61
792.597	1134.75
792.778	1202.33
792.958	1136.79
793.139	1257.62
793.32	1089.69
793.5	997.53
793.681	1235.1
793.862	1353.88
794.042	1206.42
794.223	886.94
794.404	997.53
794.584	1022.11
794.765	1144.99
794.945	1118.36
795.126	1106.07
795.306	1183.9
795.487	1126.55
795.667	1001.63
795.848	1063.07
796.028	1147.03
796.209	1091.74
796.389	1177.75
796.57	886.94
796.75	954.52
796.93	1087.64
797.111	911.52
797.291	850.08
797.471	1112.22
797.652	993.44
797.832	921.76
798.012	991.39
798.192	991.39
798.373	878.75
798.553	870.56
798.733	1024.16
798.913	835.74
799.093	1011.87
799.274	866.46
799.454	944.28
799.634	1046.68
799.814	1067.16
799.994	919.71
800.174	1001.63
800.354	1054.87
800.534	757.92
800.714	913.56
800.894	800.93
801.074	802.97
801.254	829.6
801.434	1063.07
801.614	815.26
801.794	774.3
801.974	4864.1
802.154	805.02
802.334	850.08
802.514	821.41
802.693	903.32
802.873	680.1
803.053	1009.82
803.233	833.69
803.413	839.84
803.592	630.95
803.772	716.96
803.952	858.27
804.131	768.16
804.311	932
804.491	776.35
804.67	766.11
804.85	778.4
805.03	774.3
805.209	972.96
805.389	774.3
805.568	798.88
805.748	710.82
805.928	735.39
806.107	921.76
806.287	755.87
806.466	841.89
806.646	782.49
806.825	819.36
807.004	684.19
807.184	778.4
807.363	716.96
807.543	821.41
807.722	628.9
807.901	819.36
808.081	682.14
808.26	528.55
808.439	798.88
808.619	614.56
808.798	645.28
808.977	878.75
809.156	985.24
809.336	772.25
809.515	663.71
809.694	657.57
809.873	704.67
810.052	604.32
810.231	792.73
810.411	805.02
810.59	827.55
810.769	553.12
810.948	719.01
811.127	426.15
811.306	612.51
811.485	446.63
811.664	770.21
811.843	612.51
812.022	678.05
812.201	561.31
812.38	463.01
812.559	616.61
812.737	630.95
812.916	479.4
813.095	546.98
813.274	708.77
813.453	614.56
813.632	565.41
813.811	596.13
813.989	434.34
814.168	733.34
814.347	426.15
814.526	645.28
814.704	782.49
814.883	778.4
815.062	417.96
815.24	489.64
815.419	456.87
815.598	719.01
815.776	350.37
815.955	506.02
816.133	325.8
816.312	688.29
816.49	485.54
816.669	508.07
816.847	501.92
817.026	630.95
817.204	493.73
817.383	524.45
817.561	450.72
817.74	581.79
817.918	436.39
818.097	467.11
818.275	440.48
818.453	622.75
818.632	512.16
818.81	374.95
818.988	489.64
819.167	454.82
819.345	438.44
819.523	342.18
819.701	649.38
819.879	536.74
820.058	538.79
820.236	446.63
820.414	538.79
820.592	387.24
820.77	325.8
820.948	270.5
821.127	411.81
821.305	524.45
821.483	325.8
821.661	430.24
821.839	479.4
822.017	374.95
822.195	313.51
822.373	420
822.551	524.45
822.729	446.63
822.907	346.28
823.085	495.78
823.262	465.06
823.44	372.9
823.618	436.39
823.796	397.48
823.974	438.44
824.152	323.75
824.329	393.38
824.507	440.48
824.685	581.79
824.863	518.31
825.04	360.61
825.218	366.76
825.396	420
825.574	481.44
825.751	360.61
825.929	317.61
826.107	450.72
826.284	581.79
826.462	288.93
826.639	202.92
826.817	258.21
826.994	495.78
827.172	207.02
827.349	407.72
827.527	493.73
827.704	465.06
827.882	493.73
828.059	331.94
828.237	409.76
828.414	524.45
828.591	164.01
828.769	333.99
828.946	307.37
829.124	538.79
829.301	422.05
829.478	260.26
829.655	456.87
829.833	399.52
830.01	129.19
830.187	501.92
830.364	381.09
830.542	372.9
830.719	356.52
830.896	276.65
831.073	401.57
831.25	417.96
831.427	194.73
831.604	266.41
831.782	331.94
831.959	424.1
832.136	338.09
832.313	354.47
832.49	319.65
832.667	471.2
832.844	241.83
833.021	497.83
833.198	493.73
833.374	389.28
833.551	366.76
833.728	278.69
833.905	409.76
834.082	114.86
834.259	438.44
834.436	460.96
834.612	247.97
834.789	516.26
834.966	356.52
835.143	307.37
835.319	176.3
835.496	360.61
835.673	280.74
835.85	284.84
836.026	440.48
836.203	491.68
836.38	172.2
836.556	223.4
836.733	207.02
836.909	612.51
837.086	172.2
837.262	57.51
837.439	344.23
837.616	276.65
837.792	284.84
837.968	247.97
838.145	139.43
838.321	311.46
838.498	368.81
838.674	399.52
838.851	350.37
839.027	239.78
839.203	266.41
839.38	391.33
839.556	288.93
839.732	385.19
839.909	264.36
840.085	168.1
840.261	207.02
840.437	317.61
840.614	258.21
840.79	237.74
840.966	434.34
841.142	366.76
841.318	284.84
841.494	159.91
841.671	417.96
841.847	229.54
842.023	106.67
842.199	284.84
842.375	471.2
842.551	59.56
842.727	143.53
842.903	422.05
843.079	204.97
843.255	434.34
843.431	223.4
843.607	399.52
843.783	-26.45
843.959	473.25
844.134	188.58
844.31	317.61
844.486	223.4
844.662	233.64
844.838	231.59
845.013	166.06
845.189	440.48
845.365	243.88
845.541	229.54
845.716	262.31
845.892	475.3
846.068	194.73
846.244	223.4
846.419	155.82
846.595	168.1
846.77	100.52
846.946	204.97
847.122	209.06
847.297	221.35
847.473	571.55
847.648	43.18
847.824	137.38
847.999	55.47
848.175	284.84
848.35	336.04
848.526	473.25
848.701	424.1
848.876	385.19
849.052	420
849.227	135.34
849.403	293.03
849.578	178.34
849.753	282.79
849.929	174.25
850.104	63.66
850.279	319.65
850.454	141.48
850.63	159.91
850.805	245.93
850.98	325.8
851.155	186.54
851.33	286.89
851.505	145.58
851.681	393.38
851.856	135.34
852.031	239.78
852.206	325.8
852.381	73.9
852.556	211.11
852.731	186.54
852.906	274.6
853.081	299.17
853.256	315.56
853.431	149.67
853.606	131.24
853.781	112.81
853.956	59.56
854.131	157.86
854.305	149.67
854.48	260.26
854.655	86.19
854.83	121
855.005	297.13
855.18	276.65
855.354	73.9
855.529	133.29
855.704	260.26
855.879	295.08
856.053	43.18
856.228	184.49
856.403	139.43
856.577	329.89
856.752	51.37
856.926	170.15
857.101	360.61
857.276	47.27
857.45	211.11
857.625	190.63
857.799	295.08
857.974	174.25
858.148	53.42
858.323	217.26
858.497	168.1
858.672	145.58
858.846	141.48
859.02	233.64
859.195	118.95
859.369	219.3
859.543	301.22
859.718	147.62
859.892	356.52
860.066	256.17
860.241	143.53
860.415	-20.31
860.589	278.69
860.763	223.4
860.938	170.15
861.112	196.78
861.286	135.34
861.46	190.63
861.634	143.53
861.808	145.58
861.982	161.96
862.157	129.19
862.331	209.06
862.505	-10.07
862.679	45.23
862.853	198.82
863.027	123.05
863.201	137.38
863.375	96.43
863.549	241.83
863.722	260.26
863.896	260.26
864.07	110.76
864.244	221.35
864.418	243.88
864.592	123.05
864.766	237.74
864.939	256.17
865.113	86.19
865.287	247.97
865.461	77.99
865.634	211.11
865.808	164.01
865.982	69.8
866.156	71.85
866.329	43.18
866.503	131.24
866.676	219.3
866.85	245.93
867.024	131.24
867.197	245.93
867.371	104.62
867.544	311.46
867.718	-48.98
867.891	270.5
868.065	41.13
868.238	223.4
868.412	352.42
868.585	135.34
868.759	49.32
868.932	196.78
869.105	77.99
869.279	254.12
869.452	14.51
869.625	305.32
869.799	186.54
869.972	24.75
870.145	104.62
870.319	379.04
870.492	96.43
870.665	80.04
870.838	-85.84
871.011	-38.74
871.185	190.63
871.358	98.47
871.531	192.68
871.704	37.03
871.877	159.91
872.05	61.61
872.223	14.51
872.396	336.04
872.569	364.71
872.742	22.7
872.915	170.15
873.088	186.54
873.261	104.62
873.434	194.73
873.607	127.14
873.78	424.1
873.953	34.99
874.126	153.77
874.299	188.58
874.471	164.01
874.644	180.39
874.817	217.26
874.99	315.56
875.163	182.44
875.335	284.84
875.508	75.95
875.681	186.54
875.853	243.88
876.026	168.1
876.199	278.69
876.371	118.95
876.544	116.9
876.717	219.3
876.889	151.72
877.062	198.82
877.234	77.99
877.407	112.81
877.579	161.96
877.752	41.13
877.924	284.84
878.097	235.69
878.269	82.09
878.442	166.06
878.614	243.88
878.786	192.68
878.959	118.95
879.131	184.49
879.303	-98.13
879.476	180.39
879.648	233.64
879.82	8.36
879.993	147.62
880.165	84.14
880.337	-24.4
880.509	161.96
880.681	28.84
880.854	41.13
881.026	237.74
881.198	116.9
881.37	239.78
881.542	231.59
881.714	100.52
881.886	61.61
882.058	155.82
882.23	180.39
882.402	47.27
882.574	190.63
882.746	301.22
882.918	303.27
883.09	139.43
883.262	98.47
883.434	266.41
883.606	-59.22
883.778	129.19
883.95	153.77
884.122	45.23
884.293	333.99
884.465	67.75
884.637	170.15
884.809	61.61
884.98	207.02
885.152	202.92
885.324	200.87
885.496	90.28
885.667	82.09
885.839	69.8
886.011	172.2
886.182	260.26
886.354	254.12
886.525	270.5
886.697	112.81
886.869	104.62
887.04	92.33
887.212	247.97
887.383	237.74
887.555	133.29
887.726	53.42
887.897	-20.31
888.069	106.67
888.24	329.89
888.412	166.06
888.583	108.71
888.754	73.9
888.926	18.6
889.097	69.8
889.268	-89.94
889.44	63.66
889.611	-38.74
889.782	-8.02
889.953	63.66
890.125	262.31
890.296	59.56
890.467	123.05
890.638	16.55
890.809	141.48
890.98	82.09
891.151	284.84
891.323	274.6
891.494	-26.45
891.665	108.71
891.836	190.63
892.007	98.47
892.178	198.82
892.349	108.71
892.52	43.18
892.691	168.1
892.862	75.95
893.032	-18.26
893.203	123.05
893.374	133.29
893.545	135.34
893.716	88.23
893.887	305.32
894.057	-67.41
894.228	-16.21
894.399	-14.17
894.57	325.8
894.74	131.24
894.911	147.62
895.082	73.9
895.253	96.43
895.423	129.19
895.594	225.45
895.764	192.68
895.935	-44.88
896.106	155.82
896.276	-53.08
896.447	145.58
896.617	-32.6
896.788	39.08
896.958	-69.46
897.129	71.85
897.299	-10.07
897.47	262.31
897.64	170.15
897.81	170.15
897.981	213.16
898.151	22.7
898.322	116.9
898.492	198.82
898.662	14.51
898.832	41.13
899.003	73.9
899.173	225.45
899.343	8.36
899.513	-1.88
