Data from USB4F104151__30__12-20-06-691.txt Node

Date: Wed Feb 19 12:20:06 EST 2025
User: louis
Spectrometer: USB4F10415
Trigger mode: 4
Integration Time (sec): 2.250200E-1
Scans to average: 1
Electric dark correction enabled: true
Nonlinearity correction enabled: false
Boxcar width: 0
XAxis mode: Wavelengths
Number of Pixels in Spectrum: 3648
>>>>>Begin Spectral Data<<<<<
178.204	-796.83
178.424	-796.83
178.644	-796.83
178.864	-866.46
179.084	-800.93
179.304	89.94
179.524	120.66
179.744	-65.71
179.964	-182.44
180.184	171.86
180.404	212.82
180.624	-258.21
180.844	-90.28
181.064	94.04
181.283	218.96
181.503	-237.74
181.723	-73.9
181.943	-106.67
182.163	415.57
182.383	-247.97
182.602	-223.4
182.822	407.38
183.042	251.73
183.262	-262.31
183.482	-215.21
183.701	202.58
183.921	202.58
184.141	-139.43
184.361	-164.01
184.58	216.91
184.8	196.43
185.02	-164.01
185.239	-55.47
185.459	282.45
185.679	493.39
185.898	-245.93
186.118	-272.55
186.338	239.44
186.557	341.84
186.777	-243.88
186.997	-264.36
187.216	165.71
187.436	491.34
187.655	-94.38
187.875	-10.41
188.095	233.3
188.314	356.18
188.534	-118.95
188.753	-268.45
188.973	364.37
189.192	413.52
189.412	-190.63
189.631	-198.82
189.851	274.26
190.07	552.78
190.29	-233.64
190.509	-262.31
190.729	132.95
190.948	481.1
191.168	-53.42
191.387	-217.26
191.607	200.53
191.826	261.97
192.045	-67.75
192.265	-215.21
192.484	259.92
192.704	204.63
192.923	-153.77
193.142	34.64
193.362	311.12
193.581	401.23
193.8	-127.14
194.02	-104.62
194.239	255.83
194.458	390.99
194.678	-118.95
194.897	-293.03
195.116	196.43
195.335	253.78
195.555	-229.54
195.774	-256.17
195.993	419.66
196.212	266.07
196.432	-118.95
196.651	-239.78
196.87	122.71
197.089	505.68
197.308	-159.91
197.528	-92.33
197.747	-121
197.966	206.67
198.185	-65.71
198.404	-295.08
198.623	206.67
198.842	347.98
199.062	-157.86
199.281	-104.62
199.5	200.53
199.719	243.54
199.938	-198.82
200.157	-211.11
200.376	384.85
200.595	493.39
200.814	-200.87
201.033	-155.82
201.252	425.81
201.471	259.92
201.69	-161.96
201.909	-196.78
202.128	223.06
202.347	294.74
202.566	-110.76
202.785	-325.8
203.004	94.04
203.223	532.3
203.442	-172.2
203.661	-272.55
203.879	311.12
204.098	350.03
204.317	-237.74
204.536	-8.36
204.755	315.22
204.974	309.07
205.193	-288.93
205.411	-61.61
205.63	335.7
205.849	276.31
206.068	-186.54
206.287	-311.46
206.505	489.29
206.724	233.3
206.943	-223.4
207.162	-233.64
207.381	292.69
207.599	194.39
207.818	-102.57
208.037	-284.84
208.255	171.86
208.474	237.39
208.693	-188.58
208.911	-157.86
209.13	431.95
209.349	300.88
209.567	-20.65
209.786	-182.44
210.005	339.79
210.223	247.63
210.442	-383.14
210.661	-268.45
210.879	302.93
211.098	165.71
211.316	-182.44
211.535	-223.4
211.753	307.02
211.972	251.73
212.191	-200.87
212.409	-143.53
212.628	417.61
212.846	112.47
213.065	-254.12
213.283	-106.67
213.502	268.11
213.72	178
213.938	-198.82
214.157	-123.05
214.375	296.78
214.594	151.38
214.812	-164.01
215.031	-166.06
215.249	182.1
215.467	243.54
215.686	-67.75
215.904	-102.57
216.122	249.68
216.341	450.38
216.559	-16.55
216.778	-49.32
216.996	429.9
217.214	212.82
217.432	-157.86
217.651	-264.36
217.869	204.63
218.087	237.39
218.306	-229.54
218.524	-116.9
218.742	243.54
218.96	261.97
219.179	-141.48
219.397	-164.01
219.615	513.87
219.833	294.74
220.051	-264.36
220.27	-77.99
220.488	325.46
220.706	276.31
220.924	-161.96
221.142	-186.54
221.36	225.11
221.578	286.54
221.796	-67.75
222.015	-96.43
222.233	317.26
222.451	452.43
222.669	-67.75
222.887	-59.56
223.105	112.47
223.323	153.43
223.541	-157.86
223.759	-108.71
223.977	214.87
224.195	354.13
224.413	-133.29
224.631	-211.11
224.849	268.11
225.067	481.1
225.285	-102.57
225.503	-198.82
225.721	-55.47
225.939	227.15
226.157	-82.09
226.375	-6.31
226.592	55.12
226.81	161.62
227.028	-34.99
227.246	-108.71
227.464	313.17
227.682	339.79
227.9	-192.68
228.117	-59.56
228.335	300.88
228.553	214.87
228.771	-243.88
228.989	-118.95
229.206	323.41
229.424	139.09
229.642	-204.97
229.86	-106.67
230.077	493.39
230.295	165.71
230.513	-98.47
230.731	-159.91
230.948	448.33
231.166	440.14
231.384	-69.8
231.601	-194.73
231.819	505.68
232.037	89.94
232.254	-153.77
232.472	-153.77
232.689	147.28
232.907	296.78
233.125	-272.55
233.342	-260.26
233.56	169.81
233.777	116.56
233.995	-155.82
234.213	-131.24
234.43	341.84
234.648	124.76
234.865	-196.78
235.083	-49.32
235.3	157.52
235.518	286.54
235.735	-104.62
235.953	-51.37
236.17	360.27
236.388	161.62
236.605	63.32
236.822	-49.32
237.04	372.56
237.257	350.03
237.475	-123.05
237.692	-157.86
237.909	352.08
238.127	73.56
238.344	-28.84
238.562	-73.9
238.779	116.56
238.996	5.97
239.214	-53.42
239.431	-135.34
239.648	130.9
239.865	284.5
240.083	-106.67
240.3	-241.83
240.517	130.9
240.735	188.24
240.952	69.46
241.169	-219.3
241.386	317.26
241.603	161.62
241.821	-166.06
242.038	-135.34
242.255	317.26
242.472	26.45
242.689	-88.23
242.907	-159.91
243.124	272.21
243.341	243.54
243.558	-114.86
243.775	-243.88
243.992	71.51
244.209	264.02
244.426	34.64
244.643	-110.76
244.86	216.91
245.078	288.59
245.295	-86.19
245.512	-147.62
245.729	122.71
245.946	253.78
246.163	-69.8
246.38	-137.38
246.597	247.63
246.814	159.57
247.031	-16.55
247.248	-272.55
247.464	268.11
247.681	261.97
247.898	-145.58
248.115	-43.18
248.332	55.12
248.549	364.37
248.766	-71.85
248.983	-26.79
249.2	282.45
249.417	372.56
249.633	-110.76
249.85	-30.89
250.067	235.35
250.284	83.8
250.501	-190.63
250.717	-166.06
250.934	63.32
251.151	192.34
251.368	-80.04
251.585	-131.24
251.801	161.62
252.018	18.26
252.235	55.12
252.451	-217.26
252.668	81.75
252.885	302.93
253.102	-51.37
253.318	-121
253.535	102.23
253.752	96.08
253.968	-82.09
254.185	-192.68
254.401	294.74
254.618	188.24
254.835	-153.77
255.051	-75.95
255.268	343.89
255.484	202.58
255.701	-14.51
255.917	-34.99
256.134	165.71
256.351	229.2
256.567	-180.39
256.784	-34.99
257	38.74
257.217	360.27
257.433	51.03
257.65	-123.05
257.866	294.74
258.082	-8.36
258.299	-145.58
258.515	-106.67
258.732	178
258.948	116.56
259.165	-116.9
259.381	-239.78
259.597	331.6
259.814	229.2
260.03	-147.62
260.246	-141.48
260.463	354.13
260.679	378.7
260.895	-57.51
261.112	-14.51
261.328	175.95
261.544	108.37
261.761	-131.24
261.977	-172.2
262.193	22.36
262.409	370.51
262.626	-8.36
262.842	-125.1
263.058	96.08
263.274	288.59
263.49	-22.7
263.707	-180.39
263.923	366.42
264.139	-59.56
264.355	-75.95
264.571	8.02
264.787	333.65
265.004	294.74
265.22	-41.13
265.436	-145.58
265.652	155.47
265.868	323.41
266.084	-137.38
266.3	-182.44
266.516	55.12
266.732	243.54
266.948	-73.9
267.164	-186.54
267.38	300.88
267.596	268.11
267.812	20.31
268.028	-86.19
268.244	180.05
268.46	264.02
268.676	-92.33
268.892	-41.13
269.108	104.28
269.324	-39.08
269.54	-108.71
269.756	-71.85
269.972	79.7
270.188	190.29
270.403	-176.3
270.619	-59.56
270.835	227.15
271.051	145.24
271.267	-143.53
271.483	-151.72
271.698	339.79
271.914	223.06
272.13	-53.42
272.346	-121
272.562	280.4
272.777	327.5
272.993	-28.84
273.209	-131.24
273.425	313.17
273.64	-14.51
273.856	-102.57
274.072	-237.74
274.287	112.47
274.503	270.16
274.719	55.12
274.934	-116.9
275.15	-8.36
275.366	167.76
275.581	-100.52
275.797	-41.13
276.012	210.77
276.228	55.12
276.444	-65.71
276.659	71.51
276.875	98.13
277.09	81.75
277.306	-67.75
277.521	-55.47
277.737	206.67
277.952	104.28
278.168	-73.9
278.383	-22.7
278.599	100.18
278.814	339.79
279.03	-98.47
279.245	65.36
279.461	151.38
279.676	245.59
279.892	-86.19
280.107	-8.36
280.322	100.18
280.538	268.11
280.753	-172.2
280.969	-131.24
281.184	198.48
281.399	184.15
281.615	-47.27
281.83	42.84
282.045	-20.65
282.26	96.08
282.476	-49.32
282.691	108.37
282.906	212.82
283.122	159.57
283.337	-32.94
283.552	-73.9
283.767	46.93
283.983	270.16
284.198	-90.28
284.413	-24.75
284.628	-32.94
284.843	196.43
285.058	-43.18
285.274	-104.62
285.489	32.6
285.704	247.63
285.919	-63.66
286.134	-112.81
286.349	151.38
286.564	98.13
286.779	48.98
286.995	-65.71
287.21	69.46
287.425	227.15
287.64	-59.56
287.855	137.04
288.07	36.69
288.285	251.73
288.5	67.41
288.715	-39.08
288.93	155.47
289.145	14.17
289.36	-49.32
289.575	3.93
289.79	311.12
290.004	24.4
290.219	-10.41
290.434	-92.33
290.649	81.75
290.864	96.08
291.079	-86.19
291.294	-0.17
291.509	194.39
291.724	163.67
291.938	-88.23
292.153	-37.03
292.368	128.85
292.583	163.67
292.798	30.55
293.012	-14.51
293.227	104.28
293.442	8.02
293.657	61.27
293.871	22.36
294.086	264.02
294.301	302.93
294.516	32.6
294.73	-12.46
294.945	100.18
295.16	132.95
295.374	-28.84
295.589	-55.47
295.804	116.56
296.018	110.42
296.233	-73.9
296.447	-2.22
296.662	79.7
296.877	382.8
297.091	26.45
297.306	-0.17
297.52	36.69
297.735	233.3
297.949	-45.23
298.164	-151.72
298.378	149.33
298.593	51.03
298.807	-20.65
299.022	59.22
299.236	288.59
299.451	40.79
299.665	-39.08
299.88	-26.79
300.094	298.83
300.309	196.43
300.523	40.79
300.737	-71.85
300.952	212.82
301.166	231.25
301.381	-65.71
301.595	-123.05
301.809	178
302.024	114.52
302.238	-32.94
302.452	157.52
302.667	153.43
302.881	345.94
303.095	40.79
303.309	5.97
303.524	102.23
303.738	-16.55
303.952	-49.32
304.166	57.17
304.381	-125.1
304.595	251.73
304.809	14.17
305.023	-34.99
305.237	91.99
305.452	63.32
305.666	-30.89
305.88	28.5
306.094	270.16
306.308	196.43
306.522	-34.99
306.736	61.27
306.95	311.12
307.164	79.7
307.379	3.93
307.593	75.6
307.807	268.11
308.021	178
308.235	89.94
308.449	-98.47
308.663	169.81
308.877	542.54
309.091	65.36
309.305	118.61
309.519	-75.95
309.733	284.5
309.947	-8.36
310.161	-45.23
310.374	182.1
310.588	231.25
310.802	-55.47
311.016	-67.75
311.23	237.39
311.444	75.6
311.658	10.07
311.872	186.19
312.085	284.5
312.299	288.59
312.513	102.23
312.727	-24.75
312.941	40.79
313.154	259.92
313.368	57.17
313.582	69.46
313.796	186.19
314.009	87.89
314.223	135
314.437	32.6
314.651	255.83
314.864	112.47
315.078	-18.6
315.292	5.97
315.505	145.24
315.719	112.47
315.933	61.27
316.146	-114.86
316.36	91.99
316.573	194.39
316.787	169.81
317.001	81.75
317.214	-8.36
317.428	130.9
317.641	-82.09
317.855	-12.46
318.068	178
318.282	175.95
318.495	116.56
318.709	-86.19
318.922	151.38
319.136	235.35
319.349	44.88
319.563	5.97
319.776	229.2
319.99	-32.94
320.203	48.98
320.417	-22.7
320.63	178
320.843	243.54
321.057	104.28
321.27	5.97
321.483	251.73
321.697	245.59
321.91	10.07
322.124	34.64
322.337	159.57
322.55	77.65
322.763	67.41
322.977	-75.95
323.19	61.27
323.403	100.18
323.617	75.6
323.83	180.05
324.043	87.89
324.256	147.28
324.469	-217.26
324.683	132.95
324.896	65.36
325.109	96.08
325.322	-133.29
325.535	46.93
325.748	286.54
325.962	128.85
326.175	18.26
326.388	-49.32
326.601	218.96
326.814	16.21
327.027	100.18
327.24	118.61
327.453	-82.09
327.666	223.06
327.879	196.43
328.092	46.93
328.305	276.31
328.518	10.07
328.731	-55.47
328.944	-123.05
329.157	194.39
329.37	42.84
329.583	69.46
329.796	141.14
330.009	-114.86
330.222	204.63
330.435	53.08
330.648	-18.6
330.861	188.24
331.073	120.66
331.286	108.37
331.499	5.97
331.712	135
331.925	98.13
332.138	118.61
332.35	-20.65
332.563	65.36
332.776	343.89
332.989	28.5
333.202	-149.67
333.414	145.24
333.627	143.19
333.84	-67.75
334.053	65.36
334.265	5.97
334.478	30.55
334.691	-43.18
334.903	100.18
335.116	128.85
335.329	155.47
335.541	-4.27
335.754	184.15
335.966	38.74
336.179	157.52
336.392	48.98
336.604	14.17
336.817	182.1
337.029	311.12
337.242	-90.28
337.454	108.37
337.667	175.95
337.88	237.39
338.092	91.99
338.305	42.84
338.517	96.08
338.729	145.24
338.942	81.75
339.154	-149.67
339.367	5.97
339.579	216.91
339.792	-166.06
340.004	-22.7
340.217	46.93
340.429	255.83
340.641	-131.24
340.854	-65.71
341.066	114.52
341.278	309.07
341.491	112.47
341.703	-24.75
341.915	-4.27
342.128	335.7
342.34	10.07
342.552	-28.84
342.764	194.39
342.977	202.58
343.189	20.31
343.401	122.71
343.613	1.88
343.826	155.47
344.038	-6.31
344.25	122.71
344.462	143.19
344.674	163.67
344.886	-73.9
345.099	30.55
345.311	153.43
345.523	175.95
345.735	-84.14
345.947	-28.84
346.159	202.58
346.371	159.57
346.583	-63.66
346.795	114.52
347.007	126.8
347.219	180.05
347.431	-14.51
347.643	132.95
347.855	141.14
348.067	304.98
348.279	-75.95
348.491	-20.65
348.703	319.31
348.915	155.47
349.127	-65.71
349.339	20.31
349.551	167.76
349.763	175.95
349.975	-28.84
350.187	87.89
350.399	374.61
350.61	55.12
350.822	-12.46
351.034	-47.27
351.246	204.63
351.458	173.91
351.669	-34.99
351.881	5.97
352.093	333.65
352.305	202.58
352.517	-28.84
352.728	124.76
352.94	204.63
353.152	292.69
353.363	-135.34
353.575	73.56
353.787	321.36
353.999	255.83
354.21	171.86
354.422	-67.75
354.633	153.43
354.845	149.33
355.057	8.02
355.268	-6.31
355.48	243.54
355.692	-84.14
355.903	-6.31
356.115	-174.25
356.326	-82.09
356.538	335.7
356.749	-34.99
356.961	96.08
357.172	196.43
357.384	-16.55
357.595	245.59
357.807	-34.99
358.018	112.47
358.23	253.78
358.441	-12.46
358.653	-71.85
358.864	114.52
359.075	-39.08
359.287	22.36
359.498	55.12
359.709	290.64
359.921	202.58
360.132	83.8
360.344	-86.19
360.555	114.52
360.766	196.43
360.977	16.21
361.189	61.27
361.4	116.56
361.611	251.73
361.823	87.89
362.034	-43.18
362.245	-67.75
362.456	171.86
362.667	81.75
362.879	-131.24
363.09	266.07
363.301	106.32
363.512	28.5
363.723	-16.55
363.935	132.95
364.146	270.16
364.357	46.93
364.568	-43.18
364.779	-30.89
364.99	274.26
365.201	42.84
365.412	169.81
365.623	-24.75
365.834	223.06
366.045	38.74
366.256	65.36
366.467	223.06
366.678	128.85
366.889	20.31
367.1	30.55
367.311	331.6
367.522	75.6
367.733	75.6
367.944	46.93
368.155	206.67
368.366	292.69
368.577	26.45
368.788	108.37
368.999	112.47
369.209	116.56
369.42	94.04
369.631	440.14
369.842	180.05
370.053	141.14
370.264	-10.41
370.474	-59.56
370.685	192.34
370.896	87.89
371.107	38.74
371.317	-88.23
371.528	106.32
371.739	397.14
371.95	24.4
372.16	-16.55
372.371	18.26
372.582	180.05
372.792	-75.95
373.003	108.37
373.214	157.52
373.424	173.91
373.635	10.07
373.846	124.76
374.056	169.81
374.267	104.28
374.477	128.85
374.688	-14.51
374.898	259.92
375.109	143.19
375.319	24.4
375.53	5.97
375.74	311.12
375.951	48.98
376.161	87.89
376.372	89.94
376.582	77.65
376.793	296.78
377.003	12.12
377.214	5.97
377.424	247.63
377.635	122.71
377.845	-57.51
378.055	-4.27
378.266	-6.31
378.476	139.09
378.686	67.41
378.897	73.56
379.107	317.26
379.317	264.02
379.528	-6.31
379.738	65.36
379.948	-18.6
380.158	237.39
380.369	22.36
380.579	73.56
380.789	153.43
380.999	155.47
381.21	178
381.42	194.39
381.63	151.38
381.84	276.31
382.05	77.65
382.261	75.6
382.471	360.27
382.681	130.9
382.891	63.32
383.101	38.74
383.311	-28.84
383.521	51.03
383.731	-32.94
383.941	257.87
384.151	153.43
384.361	73.56
384.571	12.12
384.781	116.56
384.991	302.93
385.201	448.33
385.411	169.81
385.621	75.6
385.831	216.91
386.041	173.91
386.251	51.03
386.461	59.22
386.671	130.9
386.881	157.52
387.091	-24.75
387.301	65.36
387.511	124.76
387.72	126.8
387.93	116.56
388.14	-102.57
388.35	225.11
388.56	347.98
388.769	46.93
388.979	-39.08
389.189	38.74
389.399	102.23
389.609	57.17
389.818	91.99
390.028	218.96
390.238	155.47
390.447	-51.37
390.657	-18.6
390.867	141.14
391.076	44.88
391.286	14.17
391.496	-6.31
391.705	135
391.915	440.14
392.125	-10.41
392.334	116.56
392.544	317.26
392.753	130.9
392.963	-26.79
393.172	5.97
393.382	34.64
393.591	304.98
393.801	30.55
394.01	59.22
394.22	227.15
394.429	132.95
394.639	12.12
394.848	96.08
395.058	214.87
395.267	163.67
395.477	79.7
395.686	48.98
395.895	450.38
396.105	239.44
396.314	122.71
396.524	132.95
396.733	165.71
396.942	282.45
397.152	18.26
397.361	178
397.57	214.87
397.78	202.58
397.989	59.22
398.198	229.2
398.407	155.47
398.617	147.28
398.826	89.94
399.035	-39.08
399.244	229.2
399.453	218.96
399.663	16.21
399.872	-77.99
400.081	100.18
400.29	388.94
400.499	-0.17
400.708	139.09
400.917	147.28
401.127	87.89
401.336	-10.41
401.545	327.5
401.754	298.83
401.963	243.54
402.172	79.7
402.381	-4.27
402.59	225.11
402.799	210.77
403.008	298.83
403.217	85.84
403.426	313.17
403.635	38.74
403.844	-30.89
404.053	8.02
404.262	173.91
404.471	321.36
404.68	167.76
404.888	128.85
405.097	128.85
405.306	130.9
405.515	69.46
405.724	-26.79
405.933	321.36
406.142	261.97
406.35	63.32
406.559	44.88
406.768	141.14
406.977	407.38
407.185	110.42
407.394	57.17
407.603	34.64
407.812	235.35
408.02	122.71
408.229	98.13
408.438	347.98
408.646	44.88
408.855	46.93
409.064	24.4
409.272	163.67
409.481	235.35
409.69	28.5
409.898	18.26
410.107	239.44
410.315	358.22
410.524	102.23
410.733	61.27
410.941	292.69
411.15	319.31
411.358	48.98
411.567	227.15
411.775	225.11
411.984	206.67
412.192	69.46
412.401	59.22
412.609	436.05
412.818	278.35
413.026	102.23
413.234	96.08
413.443	323.41
413.651	28.5
413.86	-180.39
414.068	286.54
414.276	489.29
414.485	116.56
414.693	28.5
414.901	198.48
415.11	241.49
415.318	169.81
415.526	69.46
415.734	235.35
415.943	268.11
416.151	292.69
416.359	-6.31
416.567	212.82
416.776	296.78
416.984	251.73
417.192	163.67
417.4	20.31
417.608	96.08
417.817	26.45
418.025	178
418.233	194.39
418.441	118.61
418.649	83.8
418.857	18.26
419.065	110.42
419.273	32.6
419.481	139.09
419.689	59.22
419.897	-2.22
420.105	77.65
420.313	335.7
420.521	118.61
420.729	198.48
420.937	135
421.145	106.32
421.353	141.14
421.561	259.92
421.769	243.54
421.977	98.13
422.185	53.08
422.393	32.6
422.601	302.93
422.809	171.86
423.017	73.56
423.224	30.55
423.432	413.52
423.64	231.25
423.848	87.89
424.056	69.46
424.263	337.74
424.471	200.53
424.679	210.77
424.887	44.88
425.094	438.09
425.302	245.59
425.51	-24.75
425.718	55.12
425.925	102.23
426.133	137.04
426.341	190.29
426.548	32.6
426.756	153.43
426.964	366.42
427.171	96.08
427.379	63.32
427.586	196.43
427.794	319.31
428.001	165.71
428.209	137.04
428.417	333.65
428.624	347.98
428.832	165.71
429.039	196.43
429.247	292.69
429.454	251.73
429.662	223.06
429.869	147.28
430.076	311.12
430.284	329.55
430.491	202.58
430.699	124.76
430.906	524.11
431.114	296.78
431.321	202.58
431.528	108.37
431.736	300.88
431.943	239.44
432.15	159.57
432.358	112.47
432.565	517.97
432.772	28.5
432.979	272.21
433.187	108.37
433.394	413.52
433.601	235.35
433.808	188.24
434.016	272.21
434.223	390.99
434.43	358.22
434.637	218.96
434.844	304.98
435.052	362.32
435.259	358.22
435.466	223.06
435.673	268.11
435.88	427.85
436.087	446.29
436.294	479.05
436.501	315.22
436.708	382.8
436.915	417.61
437.122	415.57
437.329	135
437.537	259.92
437.743	483.15
437.95	388.94
438.157	300.88
438.364	487.25
438.571	460.62
438.778	274.26
438.985	393.04
439.192	554.83
439.399	415.57
439.606	393.04
439.813	468.81
440.02	792.39
440.227	747.34
440.433	503.63
440.64	417.61
440.847	509.77
441.054	544.59
441.261	409.42
441.467	429.9
441.674	509.77
441.881	681.8
442.088	423.76
442.294	468.81
442.501	687.95
442.708	796.49
442.914	565.07
443.121	530.25
443.328	716.62
443.534	888.65
443.741	622.41
443.948	489.29
444.154	849.74
444.361	927.56
444.568	683.85
444.774	700.23
444.981	608.08
445.187	980.81
445.394	704.33
445.6	716.62
445.807	839.5
446.013	839.5
446.22	741.19
446.426	960.33
446.633	1056.58
446.839	1226.56
447.046	767.82
447.252	1050.44
447.459	1142.6
447.665	923.46
447.871	941.89
448.078	1269.57
448.284	1251.14
448.491	1310.53
448.697	1126.21
448.903	1220.42
449.11	1429.31
449.316	1320.77
449.522	1359.68
449.728	1322.82
449.935	1613.63
450.141	1400.64
450.347	1503.04
450.553	1462.08
450.76	1617.72
450.966	1736.51
451.172	1566.53
451.378	1566.53
451.584	1771.32
451.791	2000.69
451.997	1972.02
452.203	1816.38
452.409	2139.96
452.615	2225.97
452.821	1855.29
453.027	1859.38
453.233	2436.91
453.44	2271.03
453.646	2041.65
453.852	2283.31
454.058	2209.59
454.264	2522.93
454.47	2479.92
454.676	2254.64
454.882	2684.72
455.088	2477.87
455.294	2381.62
455.5	2651.95
455.705	2848.55
455.911	2656.04
456.117	2588.46
456.323	2746.16
456.529	2551.6
456.735	2733.87
456.941	2580.27
457.147	2862.89
457.352	2793.26
457.558	2707.24
457.764	2740.01
457.97	2641.71
458.176	2871.08
458.381	2832.17
458.587	3020.58
458.793	2866.99
458.999	2737.96
459.204	2989.86
459.41	2866.99
459.616	2832.17
459.821	2897.71
460.027	2778.92
460.233	2928.42
460.438	2684.72
460.644	2817.83
460.85	2803.5
461.055	2772.78
461.261	2694.96
461.466	2471.73
461.672	2502.45
461.878	2463.54
462.083	2572.08
462.289	2326.32
462.494	2434.86
462.7	2424.62
462.905	2256.69
463.111	2643.76
463.316	2654
463.522	2328.37
463.727	2338.61
463.932	2529.07
464.138	2543.41
464.343	2375.47
464.549	2340.66
464.754	2643.76
464.959	2574.13
465.165	2344.75
465.37	2273.07
465.575	2266.93
465.781	2336.56
465.986	2217.78
466.191	2084.66
466.397	2287.41
466.602	2336.56
466.807	2082.61
467.012	2248.5
467.218	2406.19
467.423	2252.59
467.628	2074.42
467.833	2225.97
468.038	2324.27
468.244	2058.04
468.449	2142
468.654	2203.44
468.859	2244.4
469.064	2152.24
469.269	2074.42
469.474	2064.18
469.679	2406.19
469.885	2434.86
470.09	2219.83
470.295	2160.44
470.5	2332.47
470.705	2395.95
470.91	2277.17
471.115	2295.6
471.32	2377.52
471.525	2479.92
471.73	2053.94
471.935	2215.73
472.139	2125.62
472.344	2215.73
472.549	2187.06
472.754	2275.12
472.959	2369.33
473.164	2199.35
473.369	2203.44
473.574	2350.9
473.778	2381.62
473.983	2447.15
474.188	2424.62
474.393	2205.49
474.598	2475.82
474.802	2383.66
475.007	2301.75
475.212	2193.2
475.417	2283.31
475.621	2465.58
475.826	2221.88
476.031	2357.04
476.235	2455.34
476.44	2488.11
476.645	2209.59
476.849	2221.88
477.054	2445.1
477.259	2301.75
477.463	2408.24
477.668	2426.67
477.872	2797.35
478.077	2422.58
478.282	2217.78
478.486	2258.74
478.691	2420.53
478.895	2408.24
479.1	2488.11
479.304	2348.85
479.509	2381.62
479.713	2629.42
479.918	2373.43
480.122	2357.04
480.326	2451.25
480.531	2533.17
480.735	2432.82
480.94	2271.03
481.144	2604.85
481.348	2529.07
481.553	2344.75
481.757	2256.69
481.961	2498.35
482.166	2455.34
482.37	2334.51
482.574	2416.43
482.778	2314.03
482.983	2572.08
483.187	2322.23
483.391	2522.93
483.595	2553.65
483.8	2588.46
484.004	2649.9
484.208	2563.89
484.412	2774.83
484.616	2697
484.821	2539.31
485.025	2494.26
485.229	2576.17
485.433	2633.52
485.637	2565.93
485.841	2563.89
486.045	2864.94
486.249	2848.55
486.453	2658.09
486.657	2625.33
486.861	2643.76
487.065	2819.88
487.269	2588.46
487.473	2545.45
487.677	2879.27
487.881	3127.08
488.085	2836.27
488.289	2897.71
488.493	2846.51
488.697	3184.42
488.901	2981.67
489.105	2916.14
489.309	3055.4
489.512	3147.56
489.716	3069.73
489.92	3088.17
490.124	3235.62
490.328	3372.83
490.531	3045.16
490.735	3100.45
490.939	3352.35
491.143	3364.64
491.346	3202.85
491.55	3270.44
491.754	3440.42
491.958	3403.55
492.161	3485.47
492.365	3430.18
492.569	3460.9
492.772	3661.6
492.976	3307.3
493.18	3295.01
493.383	3723.04
493.587	3675.93
493.79	3639.07
493.994	3546.91
494.197	3673.89
494.401	3997.46
494.605	3622.69
494.808	3870.49
495.012	3962.65
495.215	4224.79
495.419	3974.94
495.622	3915.55
495.825	4028.18
496.029	4085.53
496.232	4194.07
496.436	3954.46
496.639	4402.96
496.843	4126.49
497.046	4106.01
497.249	4388.63
497.453	4585.23
497.656	4370.19
497.859	4456.21
498.063	4718.35
498.266	4599.57
498.469	4439.83
498.673	4523.79
498.876	4656.91
499.079	4785.93
499.282	4917
499.485	4826.89
499.689	4968.2
499.892	5181.19
500.095	4982.54
500.298	5199.62
500.501	5023.5
500.705	5250.82
500.908	5340.93
501.111	5302.02
501.314	5353.22
501.517	5617.41
501.72	5670.65
501.923	5465.86
502.126	5410.56
502.329	5973.75
502.532	6078.2
502.735	5789.44
502.938	6278.9
503.141	6182.65
503.344	6076.15
503.547	6371.06
503.75	6022.91
503.953	6461.17
504.156	6758.13
504.359	6520.56
504.562	6403.83
504.765	6917.87
504.968	7077.61
505.17	6952.68
505.373	6985.45
505.576	7165.67
505.779	7173.86
505.982	7304.93
506.185	7259.88
506.387	7546.59
506.59	7872.22
506.793	7591.65
506.996	7698.14
507.198	8005.34
507.401	8144.6
507.604	7945.95
507.807	8173.27
508.009	8578.77
508.212	8541.91
508.415	8298.2
508.617	8330.97
508.82	8654.55
509.022	8503
509.225	8867.53
509.428	8951.5
509.63	9234.12
509.833	9162.44
510.035	9606.85
510.238	9404.1
510.44	9598.66
510.643	9803.46
510.845	9889.47
511.048	9940.67
511.25	10139.32
511.453	10303.16
511.655	10530.48
511.858	10294.97
512.06	10759.86
512.262	10698.42
512.465	10786.48
512.667	10669.75
512.87	10970.8
513.072	11327.14
513.274	11005.61
513.477	11484.84
513.679	11685.54
513.881	11761.31
514.084	11701.92
514.286	11853.47
514.488	12250.78
514.69	12498.58
514.893	12242.59
515.095	12525.21
515.297	12707.48
515.499	13022.86
515.701	12807.83
515.904	13106.83
516.106	13612.68
516.308	13532.81
516.51	13598.34
516.712	13639.3
516.914	14212.73
517.116	13940.35
517.318	13997.7
517.52	14079.61
517.722	14454.39
517.925	14751.35
518.127	14659.19
518.329	14884.47
518.531	14866.03
518.733	15339.12
518.935	15453.8
519.136	15580.78
519.338	15767.14
519.54	16207.45
519.742	15949.41
519.944	16352.86
520.146	16660.06
520.348	16698.97
520.55	16756.31
520.752	16801.36
520.954	17292.88
521.155	17151.57
521.357	17401.42
521.559	17716.81
521.761	18150.98
521.963	18122.3
522.164	18421.31
522.366	18241.09
522.568	18470.46
522.77	18691.64
522.971	18814.52
523.173	18372.16
523.375	19031.6
523.576	18677.3
523.778	19113.52
523.98	19346.99
524.181	19656.23
524.383	19523.12
524.584	19588.65
524.786	19893.8
524.988	19725.86
525.189	20168.23
525.391	20667.93
525.592	20082.21
525.794	20651.55
525.995	20721.18
526.197	20444.7
526.398	20581.92
526.6	21093.91
526.801	21376.53
527.003	20805.14
527.204	21270.03
527.406	21710.35
527.607	21679.63
527.808	21693.96
528.01	21423.63
528.211	21773.83
528.412	21902.86
528.614	22046.21
528.815	22134.28
529.016	22466.05
529.218	22171.14
529.419	22289.92
529.62	22320.64
529.822	22656.51
530.023	22617.6
530.224	22435.33
530.425	22556.16
530.626	22412.8
530.828	22265.35
531.029	22889.98
531.23	23096.82
531.431	22771.19
531.632	22984.18
531.833	22955.51
532.035	22867.45
532.236	22980.09
532.437	23512.56
532.638	23111.16
532.839	23131.64
533.04	23721.45
533.241	23258.61
533.442	23442.93
533.643	23307.76
533.844	23336.43
534.045	23438.83
534.246	23477.74
534.447	23444.98
534.648	23408.11
534.849	23858.67
535.05	23580.14
535.251	23361.01
535.451	23819.75
535.652	23823.85
535.853	23516.65
536.054	23768.55
536.255	23934.44
536.456	23875.05
536.657	24012.26
536.857	23574
537.058	24018.41
537.259	23944.68
537.46	23774.7
537.66	23643.63
537.861	24149.48
538.062	23805.42
538.263	23672.3
538.463	23696.88
538.664	24319.46
538.865	23832.04
539.065	23922.15
539.266	24032.74
539.466	24313.31
539.667	23793.13
539.868	24075.75
540.068	23786.99
540.269	24155.62
540.469	24085.99
540.67	24018.41
540.87	24112.61
541.071	24108.52
541.271	24002.02
541.472	23987.69
541.672	24522.21
541.873	24321.51
542.073	23930.34
542.274	24382.95
542.474	24247.78
542.675	24194.53
542.875	24329.7
543.075	24247.78
543.276	23815.66
543.476	24364.51
543.676	24139.24
543.877	24430.05
544.077	24282.59
544.277	24364.51
544.478	24085.99
544.678	24532.45
544.878	24292.83
545.078	24327.65
545.279	24618.46
545.479	24245.73
545.679	24362.47
545.879	24704.48
546.079	24833.5
546.28	24081.89
546.48	24364.51
546.68	24753.63
546.88	24538.59
547.08	24296.93
547.28	24647.13
547.48	24085.99
547.68	24716.76
547.88	24428
548.081	24569.31
548.281	24274.4
548.481	24399.33
548.681	24423.9
548.881	24657.37
549.081	24866.27
549.28	24397.28
549.48	24931.8
549.68	24655.33
549.88	24810.97
550.08	24460.77
550.28	24978.9
550.48	24974.81
550.68	24559.07
550.88	24782.3
551.08	24880.6
551.279	25007.58
551.479	24597.98
551.679	25140.69
551.879	24727
552.079	24827.35
552.278	24966.62
552.478	24937.94
552.678	24929.75
552.878	25247.19
553.077	24878.55
553.277	24770.01
553.477	25402.83
553.676	24966.62
553.876	25015.77
554.076	24688.09
554.275	24856.03
554.475	24677.85
554.674	25228.76
554.874	24776.16
555.074	24559.07
555.273	24972.76
555.473	25114.07
555.672	24776.16
555.872	25071.06
556.071	24966.62
556.271	25220.56
556.47	24790.49
556.67	24448.48
556.869	24507.87
557.068	24823.26
557.268	24765.92
557.467	24835.55
557.667	24722.91
557.866	25001.43
558.065	25048.54
558.265	24380.9
558.464	24352.23
558.663	24798.68
558.863	24425.95
559.062	24804.83
559.261	24178.15
559.461	24767.96
559.66	24430.05
559.859	24382.95
560.058	24436.19
560.258	24505.82
560.457	24284.64
560.656	24276.45
560.855	24225.25
561.054	24382.95
561.253	24313.31
561.453	24563.17
561.652	24014.31
561.851	24636.89
562.05	24073.7
562.249	23803.37
562.448	24356.32
562.647	24061.41
562.846	24120.81
563.045	24059.37
563.244	23899.62
563.443	24286.69
563.642	23741.93
563.841	23647.72
564.04	23459.31
564.239	24075.75
564.438	23975.4
564.637	23563.76
564.836	23666.16
565.035	23225.84
565.234	23197.17
565.432	23264.75
565.631	23287.28
565.83	23498.22
566.029	23281.14
566.228	22908.41
566.427	23086.58
566.625	22902.26
566.824	22795.77
567.023	23041.53
567.222	22664.7
567.42	22822.39
567.619	22969.85
567.818	22435.33
568.016	22672.89
568.215	22601.21
568.414	22599.16
568.612	22834.68
568.811	22314.5
569.01	22345.22
569.208	22128.13
569.407	22255.11
569.605	21777.93
569.804	22273.54
570.002	21904.9
570.201	21855.75
570.4	21878.28
570.598	22093.32
570.797	21919.24
570.995	21440.01
571.193	21483.02
571.392	21489.17
571.59	21186.07
571.789	21515.79
571.987	21614.09
572.186	21472.78
572.384	21284.37
572.582	21085.72
572.781	21356.05
572.979	20813.34
573.177	20856.34
573.376	21042.71
573.574	20909.59
573.772	20776.47
573.971	20354.59
574.169	20168.23
574.367	20440.61
574.565	20624.92
574.763	20647.45
574.962	20508.19
575.16	20180.51
575.358	20026.92
575.556	20145.7
575.754	20209.18
575.952	20049.44
576.151	20188.71
576.349	20031.01
576.547	19729.96
576.745	19742.25
576.943	20047.4
577.141	19689
577.339	19535.4
577.537	19570.22
577.735	20071.97
577.933	19476.01
578.131	19639.85
578.329	19613.23
578.527	19338.8
578.725	19568.17
578.923	19326.51
579.121	18970.16
579.319	18867.77
579.516	19140.15
579.714	19121.71
579.912	19082.8
580.11	19107.38
580.308	19172.91
580.506	18818.61
580.704	18173.5
580.901	18906.68
581.099	19041.84
581.297	18826.81
581.495	18503.23
581.692	18939.44
581.89	18851.38
582.088	18726.46
582.285	18394.68
582.483	18650.68
582.681	18597.43
582.878	18257.47
583.076	18118.21
583.274	18560.57
583.471	18425.4
583.669	17987.14
583.866	18050.63
584.064	18316.86
584.262	18009.67
584.459	17968.71
584.657	18030.15
584.854	18441.79
585.052	18005.57
585.249	17884.74
585.447	17976.9
585.644	17706.57
585.841	18136.64
586.039	18067.01
586.236	17808.97
586.434	17935.94
586.631	17409.61
586.828	17520.2
587.026	17786.44
587.223	17671.75
587.42	17638.98
587.618	17743.43
587.815	17479.24
588.012	17706.57
588.21	17174.1
588.407	17780.29
588.604	17278.54
588.801	17294.93
588.999	17397.32
589.196	17296.97
589.393	17278.54
589.59	17342.03
589.787	17335.88
589.984	17081.94
590.182	17055.31
590.379	17219.15
590.576	17086.03
590.773	17018.45
590.97	16959.06
591.167	17159.76
591.364	17034.83
591.561	16795.22
591.758	16981.59
591.955	17260.11
592.152	17221.2
592.349	16903.76
592.546	17034.83
592.743	16934.48
592.94	16633.43
593.137	16660.06
593.334	16881.24
593.531	16707.16
593.727	16942.67
593.924	16942.67
594.121	16690.77
594.318	17077.84
594.515	16711.25
594.712	17014.35
594.908	16684.63
595.105	16957.01
595.302	16594.52
595.499	16610.9
595.696	16877.14
595.892	16713.3
596.089	16875.09
596.286	16682.58
596.482	16596.57
596.679	16807.51
596.876	16662.1
597.072	16696.92
597.269	16547.42
597.466	16561.75
597.662	16391.77
597.859	16336.48
598.055	16438.87
598.252	16399.96
598.448	16750.17
598.645	16627.29
598.841	16367.2
599.038	16938.58
599.234	16877.14
599.431	16383.58
599.627	16412.25
599.824	16567.9
600.02	16334.43
600.217	16483.93
600.413	16309.85
600.609	16459.35
600.806	16668.25
601.002	16324.19
601.198	16084.58
601.395	16418.39
601.591	16668.25
601.787	16406.11
601.984	16418.39
602.18	16701.01
602.376	16229.98
602.572	16289.37
602.769	16473.69
602.965	16416.35
603.161	16434.78
603.357	16252.51
603.553	16203.36
603.75	16166.49
603.946	16283.23
604.142	16467.55
604.338	16107.1
604.534	16457.31
604.73	16211.55
604.926	16045.66
605.122	16397.92
605.318	16158.3
605.514	16293.47
605.71	15920.74
605.906	16242.27
606.102	16195.17
606.298	16496.22
606.494	15937.12
606.69	16457.31
606.886	16414.3
607.082	16090.72
607.278	16141.92
607.474	15875.68
607.67	16199.26
607.866	15933.03
608.062	16318.04
608.257	15849.06
608.453	15701.61
608.649	16150.11
608.845	16084.58
609.041	15935.07
609.236	16092.77
609.432	16037.47
609.628	15941.22
609.824	15785.57
610.019	15769.19
610.215	15920.74
610.411	15859.3
610.606	15928.93
610.802	15984.23
610.998	16008.8
611.193	16010.85
611.389	15660.65
611.584	15953.51
611.78	15564.39
611.976	15804
612.171	15894.11
612.367	15976.03
612.562	15890.02
612.758	15861.35
612.953	15613.54
613.149	16111.2
613.344	15695.46
613.539	16035.42
613.735	16025.18
613.93	15828.58
614.126	15785.57
614.321	15908.45
614.517	15957.6
614.712	16066.14
614.907	15720.04
615.103	15642.21
615.298	15695.46
615.493	15842.92
615.688	15459.95
615.884	15918.69
616.079	15339.12
616.274	15738.47
616.47	15490.66
616.665	15509.1
616.86	15617.64
617.055	15720.04
617.25	15613.54
617.445	15638.12
617.641	15478.38
617.836	15490.66
618.031	15398.51
618.226	15607.4
618.421	15517.29
618.616	15693.41
618.811	15197.81
619.006	15373.93
619.201	15165.04
619.396	15459.95
619.591	15060.59
619.786	15425.13
619.981	15197.81
620.176	15545.96
620.371	14986.86
620.566	15093.36
620.761	15251.05
620.956	15253.1
621.151	15021.68
621.346	15255.15
621.541	14853.75
621.735	15187.57
621.93	14812.79
622.125	14732.92
622.32	14562.94
622.515	14763.64
622.709	14618.23
622.904	14773.88
623.099	14507.64
623.294	14698.1
623.488	14702.2
623.683	14501.5
623.878	14407.29
624.072	14741.11
624.267	14493.3
624.462	14280.32
624.656	14046.85
624.851	14679.67
625.046	14341.75
625.24	14177.92
625.435	14233.21
625.629	14333.56
625.824	14417.53
626.018	14161.53
626.213	13964.93
626.407	14081.66
626.602	14130.81
626.796	14294.65
626.991	14120.57
627.185	14028.42
627.38	13885.06
627.574	13760.13
627.768	13805.19
627.963	13848.19
628.157	13751.94
628.352	13637.25
628.546	13352.59
628.74	13727.36
628.935	13553.29
629.129	13526.66
629.323	13434.5
629.517	13469.32
629.712	13495.94
629.906	13358.73
630.1	13430.41
630.294	13516.42
630.489	13147.79
630.683	13350.54
630.877	12836.5
631.071	13190.8
631.265	13082.25
631.459	13203.08
631.653	12924.56
631.848	13162.12
632.042	12986
632.236	12936.85
632.43	12920.46
632.624	13217.42
632.818	12895.89
633.012	12764.82
633.206	12504.73
633.4	12801.68
633.594	12670.61
633.788	12527.25
633.982	12576.41
634.176	12850.83
634.369	12633.75
634.563	12138.14
634.757	12330.65
634.951	12584.6
635.145	12494.49
635.339	12146.33
635.533	12377.75
635.726	12338.84
635.92	11992.73
636.114	11929.25
636.308	11746.98
636.501	11773.6
636.695	11837.09
636.889	11435.69
637.083	11761.31
637.276	11536.04
637.47	11562.66
637.664	11173.55
637.857	11185.83
638.051	11269.8
638.244	11321
638.438	11249.32
638.632	10935.98
638.825	10782.38
639.019	11140.78
639.212	10753.71
639.406	10811.06
639.599	10675.89
639.793	10825.39
639.986	10389.17
640.18	10608.31
640.373	10520.24
640.567	10405.56
640.76	10354.36
640.954	10122.94
641.147	10073.79
641.34	10147.51
641.534	9903.81
641.727	9664.19
641.92	9924.29
642.114	9506.5
642.307	9455.3
642.5	9359.05
642.694	9281.22
642.887	9227.98
643.08	9529.03
643.273	9086.67
643.467	8883.92
643.66	9168.59
643.853	8746.7
644.046	8730.32
644.239	8634.07
644.432	8586.96
644.626	8267.48
644.819	8220.38
645.012	8349.4
645.205	8333.01
645.398	8369.88
645.591	8056.54
645.784	8017.63
645.977	8005.34
646.17	7786.21
646.363	7644.9
646.556	7874.27
646.749	7542.5
646.942	7558.88
647.135	7616.23
647.328	7698.14
647.521	7487.2
647.714	7208.68
647.907	7493.35
648.099	7229.16
648.292	7395.04
648.485	7380.71
648.678	7026.41
648.871	7073.51
649.064	7163.62
649.256	6883.05
649.449	6756.08
649.642	6645.49
649.835	6825.71
650.027	6579.95
650.22	6764.27
650.413	6584.05
650.605	6725.36
650.798	6506.23
650.991	6276.85
651.183	6455.03
651.376	6391.54
651.568	6289.14
651.761	6164.22
651.954	6426.36
652.146	6293.24
652.339	6354.68
652.531	6108.92
652.724	5947.13
652.916	5895.93
653.109	5717.76
653.301	5986.04
653.494	6043.39
653.686	6051.58
653.879	6014.71
654.071	5816.06
654.263	5750.53
654.456	5873.4
654.648	5621.5
654.84	5672.7
655.033	5631.74
655.225	5824.25
655.417	5394.18
655.61	5424.9
655.802	5644.03
655.994	5832.44
656.186	5211.91
656.379	5508.87
656.571	5345.03
656.763	5312.26
656.955	5322.5
657.148	5093.13
657.34	5512.96
657.532	5195.53
657.724	5162.76
657.916	5093.13
658.108	5363.46
658.3	5179.14
658.492	4908.81
658.684	4812.56
658.876	5156.61
659.068	4669.2
659.26	4486.93
659.452	4618
659.644	4742.92
659.836	4964.11
660.028	4661.01
660.22	4529.94
660.412	4507.41
660.604	4589.33
660.796	4368.15
660.988	4523.79
661.18	4540.18
661.372	4423.44
661.563	4321.04
661.755	4183.83
661.947	4224.79
662.139	4314.9
662.331	4259.6
662.522	3972.89
662.714	4083.48
662.906	3843.87
663.097	3925.79
663.289	3776.28
663.481	3727.13
663.673	3915.55
663.864	3686.17
664.056	3727.13
664.247	3610.4
664.439	3811.1
664.631	3665.69
664.822	3600.16
665.014	3776.28
665.205	3495.71
665.397	3362.59
665.588	3358.5
665.78	3462.94
665.971	3421.99
666.163	3264.29
666.354	3227.43
666.546	3231.52
666.737	3188.52
666.929	3125.03
667.12	2953
667.311	3252
667.503	3059.49
667.694	3073.83
667.885	3045.16
668.077	3004.2
668.268	2770.73
668.459	2731.82
668.651	2823.98
668.842	2881.32
669.033	2727.72
669.224	2694.96
669.416	2899.75
669.607	2774.83
669.798	2631.47
669.989	2494.26
670.18	2578.22
670.371	2830.12
670.563	2565.93
670.754	2694.96
670.945	2541.36
671.136	2756.4
671.327	2463.54
671.518	2565.93
671.709	2555.69
671.9	2723.63
672.091	2740.01
672.282	2465.58
672.473	2430.77
672.664	2369.33
672.855	2531.12
673.046	2297.65
673.237	2373.43
673.428	2367.28
673.619	2627.37
673.809	2314.03
674	2340.66
674.191	2488.11
674.382	2426.67
674.573	2232.12
674.764	2248.5
674.954	2631.47
675.145	2303.79
675.336	2101.05
675.527	2170.68
675.717	2359.09
675.908	2254.64
676.099	2223.92
676.289	2309.94
676.48	2182.96
676.671	2357.04
676.861	2166.58
677.052	2021.17
677.243	2217.78
677.433	2182.96
677.624	2303.79
677.814	2256.69
678.005	2293.55
678.195	2531.12
678.386	2131.76
678.576	2101.05
678.767	2062.13
678.957	2277.17
679.148	2301.75
679.338	2260.79
679.529	2410.29
679.719	2291.51
679.909	2285.36
680.1	2203.44
680.29	2377.52
680.481	2330.42
680.671	2223.92
680.861	2215.73
681.052	2424.62
681.242	2258.74
681.432	2428.72
681.622	2387.76
681.813	2287.41
682.003	2361.14
682.193	2248.5
682.383	2348.85
682.573	2531.12
682.764	2426.67
682.954	2418.48
683.144	2711.34
683.334	2539.31
683.524	2762.54
683.714	2641.71
683.904	2670.38
684.094	2721.58
684.284	2725.68
684.474	2682.67
684.664	2668.33
684.854	2899.75
685.044	2940.71
685.234	2918.18
685.424	2924.33
685.614	2860.84
685.804	3020.58
685.994	3043.11
686.184	3114.79
686.374	3237.67
686.564	3182.37
686.753	3292.96
686.943	3127.08
687.133	3329.83
687.323	3338.02
687.513	3434.27
687.702	3295.01
687.892	3503.9
688.082	3673.89
688.272	3671.84
688.461	3579.68
688.651	3950.36
688.841	3884.83
689.03	3725.08
689.22	3778.33
689.41	4206.36
689.599	4034.33
689.789	4011.8
689.979	4235.03
690.168	4388.63
690.358	4347.67
690.547	4321.04
690.737	4362
690.926	4544.27
691.116	4640.53
691.305	4638.48
691.495	4577.04
691.684	4714.25
691.874	4861.71
692.063	4675.34
692.252	4935.43
692.442	5170.95
692.631	5064.46
692.82	5123.85
693.01	5101.32
693.199	5279.49
693.388	5406.47
693.578	5304.07
693.767	5426.95
693.956	5707.52
694.146	5576.45
694.335	5572.35
694.524	5525.25
694.713	5875.45
694.902	6006.52
695.092	5846.78
695.281	5744.38
695.47	5990.14
695.659	5857.02
695.848	5990.14
696.037	6098.68
696.226	6129.4
696.415	6209.27
696.604	6481.65
696.793	6164.22
696.982	6305.53
697.171	6426.36
697.36	6172.41
697.549	6442.74
697.738	6387.44
697.927	6649.58
698.116	6414.07
698.305	6485.75
698.494	6743.79
698.683	6672.11
698.872	6639.34
699.061	6629.1
699.25	6774.51
699.438	6643.44
699.627	6739.69
699.816	6926.06
700.005	6792.94
700.193	6932.2
700.382	7044.84
700.571	6815.47
700.76	7157.48
700.948	7010.03
701.137	6782.7
701.326	7075.56
701.514	6921.96
701.703	7257.83
701.892	6971.11
702.08	7081.71
702.269	7128.81
702.457	7071.47
702.646	6944.49
702.834	6883.05
703.023	7165.67
703.212	7395.04
703.4	7091.95
703.589	7134.95
703.777	7339.75
703.965	7085.8
704.154	6977.26
704.342	7165.67
704.531	7085.8
704.719	7098.09
704.907	7200.49
705.096	6940.4
705.284	7057.13
705.472	7343.85
705.661	7376.61
705.849	7296.74
706.037	7732.96
706.226	7433.96
706.414	7325.41
706.602	7030.51
706.79	7302.89
706.979	7225.06
707.167	7227.11
707.355	7177.96
707.543	7470.82
707.731	7288.55
707.919	7335.65
708.107	7077.61
708.296	7253.73
708.484	7247.59
708.672	7208.68
708.86	7165.67
709.048	7401.19
709.236	7204.58
709.424	7306.98
709.612	7202.54
709.8	6874.86
709.988	7315.17
710.176	7118.57
710.364	7124.71
710.551	7302.89
710.739	7153.38
710.927	6864.62
711.115	7034.6
711.303	7235.3
711.491	7169.77
711.679	6917.87
711.866	7071.47
712.054	7083.75
712.242	7134.95
712.43	7288.55
712.617	6885.1
712.805	7061.23
712.993	7036.65
713.181	6715.12
713.368	7034.6
713.556	6868.72
713.744	6823.66
713.931	6977.26
714.119	6729.45
714.306	6997.74
714.494	6815.47
714.682	6729.45
714.869	6618.86
715.057	7063.27
715.244	6698.74
715.432	6680.3
715.619	6575.86
715.807	6919.92
715.994	6668.02
716.182	6661.87
716.369	6737.65
716.556	7003.88
716.744	6450.93
716.931	6358.77
717.119	6586.1
717.306	6741.74
717.493	6600.43
717.681	6528.75
717.868	6389.49
718.055	6512.37
718.242	6534.9
718.43	6213.37
718.617	6315.76
718.804	6360.82
718.991	6319.86
719.179	6340.34
719.366	6221.56
719.553	6493.94
719.74	6233.85
719.927	6108.92
720.114	6041.34
720.301	6166.26
720.488	6100.73
720.676	6082.3
720.863	6117.11
721.05	6389.49
721.237	6127.35
721.424	6166.26
721.611	5961.47
721.798	5979.9
721.985	5883.64
722.172	6070.01
722.358	5801.72
722.545	6102.78
722.732	5893.88
722.919	5996.28
723.106	5801.72
723.293	5895.93
723.48	5859.07
723.667	5766.91
723.853	5754.62
724.04	5803.77
724.227	5969.66
724.414	5617.41
724.6	5488.39
724.787	5861.12
724.974	5834.49
725.161	5807.87
725.347	5492.48
725.534	5756.67
725.72	5721.85
725.907	5492.48
726.094	5447.43
726.28	5623.55
726.467	5527.3
726.653	5283.59
726.84	5365.51
727.027	5652.22
727.213	5277.44
727.4	5525.25
727.586	5373.7
727.773	5310.21
727.959	5367.56
728.145	5342.98
728.332	5166.85
728.518	5326.6
728.705	5521.15
728.891	5177.09
729.077	5248.77
729.264	5289.73
729.45	5195.53
729.636	5115.66
729.823	5117.7
730.009	5248.77
730.195	5175.05
730.382	5078.79
730.568	5056.26
730.754	5062.41
730.94	4976.39
731.126	4984.59
731.313	5027.59
731.499	5134.09
731.685	5240.58
731.871	4976.39
732.057	4896.52
732.243	5052.17
732.429	4892.43
732.615	4898.57
732.801	4835.08
732.987	4994.83
733.173	4845.32
733.359	4785.93
733.545	4749.07
733.731	4919.05
733.917	4929.29
734.103	4726.54
734.289	4720.4
734.475	4757.26
734.661	5005.06
734.847	4652.81
735.033	4708.11
735.219	4759.31
735.404	4462.35
735.59	4466.45
735.776	4507.41
735.962	4824.84
736.148	4691.73
736.333	4540.18
736.519	4642.57
736.705	4620.05
736.89	4564.75
737.076	4335.38
737.262	4431.63
737.447	4347.67
737.633	4495.12
737.819	4380.43
738.004	4355.86
738.19	4495.12
738.375	4603.66
738.561	4343.57
738.747	4339.48
738.932	4253.46
739.118	4656.91
739.303	4339.48
739.489	4333.33
739.674	4200.21
739.859	3989.27
740.045	4097.81
740.23	4095.77
740.416	3942.17
740.601	4312.85
740.786	4060.95
740.972	3907.35
741.157	3997.46
741.342	3825.43
741.528	3868.44
741.713	4019.99
741.898	3956.5
742.084	4077.34
742.269	3931.93
742.454	3850.01
742.639	4255.51
742.824	3897.11
743.01	4122.39
743.195	3905.31
743.38	3880.73
743.565	4028.18
743.75	3770.14
743.935	3630.88
744.12	4138.77
744.305	3540.77
744.49	3698.46
744.675	3802.91
744.86	3702.56
745.045	3893.02
745.23	3616.54
745.415	3524.38
745.6	3757.85
745.785	3620.64
745.97	3673.89
746.155	3546.91
746.34	3843.87
746.525	3514.14
746.71	3553.06
746.895	3307.3
747.079	3381.03
747.264	3530.53
747.449	3344.16
747.634	3393.31
747.819	3464.99
748.003	3426.08
748.188	3133.22
748.373	3360.55
748.557	3374.88
748.742	3405.6
748.927	3098.41
749.111	3069.73
749.296	3221.28
749.481	3387.17
749.665	3200.8
749.85	3034.92
750.034	3303.2
750.219	3249.96
750.404	2903.85
750.588	2844.46
750.773	3006.25
750.957	3057.45
751.141	2735.92
751.326	2873.13
751.51	2922.28
751.695	3092.26
751.879	2801.45
752.064	2977.58
752.248	2987.82
752.432	3122.98
752.617	2727.72
752.801	2907.94
752.985	2742.06
753.17	2981.67
753.354	2668.33
753.538	2664.24
753.722	2721.58
753.907	2815.79
754.091	2606.89
754.275	2694.96
754.459	2533.17
754.643	2635.57
754.828	2658.09
755.012	2619.18
755.196	2535.21
755.38	2744.11
755.564	2545.45
755.748	2537.26
755.932	2662.19
756.116	2746.16
756.3	2418.48
756.484	2361.14
756.668	2674.48
756.852	2238.26
757.036	2367.28
757.22	2383.66
757.404	2381.62
757.588	2348.85
757.772	2498.35
757.956	2445.1
758.14	2565.93
758.323	2340.66
758.507	2348.85
758.691	2256.69
758.875	2463.54
759.059	2463.54
759.242	2041.65
759.426	2244.4
759.61	2213.68
759.794	1978.17
759.977	2019.13
760.161	2393.9
760.345	2191.16
760.528	2023.22
760.712	1865.53
760.895	1933.11
761.079	1931.06
761.263	1791.8
761.446	1775.42
761.63	1713.98
761.813	1881.91
761.997	1689.4
762.18	1744.7
762.364	1924.92
762.547	1705.79
762.731	1816.38
762.914	1797.95
763.098	1668.92
763.281	1716.03
763.464	1759.03
763.648	1603.39
763.831	1697.6
764.015	1652.54
764.198	1840.95
764.381	1664.83
764.564	1724.22
764.748	1830.71
764.931	1843
765.114	1660.73
765.297	1873.72
765.481	1750.84
765.664	1771.32
765.847	1820.47
766.03	1701.69
766.213	1926.97
766.397	1759.03
766.58	1570.62
766.763	1877.82
766.946	1789.75
767.129	1740.6
767.312	1677.12
767.495	1654.59
767.678	1834.81
767.861	1873.72
768.044	1761.08
768.227	1734.46
768.41	1920.82
768.593	1910.58
768.776	1824.57
768.959	1722.17
769.142	2168.63
769.324	1738.55
769.507	1730.36
769.69	1771.32
769.873	1869.62
770.056	2023.22
770.239	1775.42
770.421	1871.67
770.604	2004.79
770.787	1771.32
770.97	1775.42
771.152	1619.77
771.335	1857.34
771.518	1652.54
771.7	1689.4
771.883	1849.15
772.066	1726.27
772.248	1863.48
772.431	1857.34
772.613	1759.03
772.796	1777.47
772.978	1861.43
773.161	1750.84
773.343	1523.52
773.526	1646.4
773.708	1513.28
773.891	1369.92
774.073	1677.12
774.256	1652.54
774.438	2041.65
774.621	1402.69
774.803	1621.82
774.985	1646.4
775.168	1720.12
775.35	1599.29
775.532	1644.35
775.715	1562.43
775.897	1750.84
776.079	1535.81
776.261	1539.9
776.444	1582.91
776.626	1523.52
776.808	1541.95
776.99	1341.25
777.173	1595.2
777.355	1517.37
777.537	1429.31
777.719	1447.74
777.901	1515.33
778.083	1425.22
778.265	1359.68
778.447	1447.74
778.629	1410.88
778.811	1597.24
778.993	1441.6
779.175	1445.7
779.357	1490.75
779.539	1285.95
779.721	1417.02
779.903	1392.45
780.085	1396.54
780.267	1486.65
780.449	1300.29
780.631	1318.72
780.812	1552.19
780.994	1394.5
781.176	1169.22
781.358	1183.56
781.54	1400.64
781.721	1464.13
781.903	1244.99
782.085	1206.08
782.267	1400.64
782.448	1107.78
782.63	1308.48
782.812	1292.1
782.993	1423.17
783.175	1380.16
783.357	1136.45
783.538	1285.95
783.72	1120.07
783.901	1308.48
784.083	1210.18
784.264	1226.56
784.446	1134.4
784.627	1029.96
784.809	1146.69
784.99	1048.39
785.172	1185.6
785.353	1140.55
785.535	1056.58
785.716	939.85
785.897	1083.2
786.079	1091.4
786.26	1005.38
786.441	1095.49
786.623	913.22
786.804	1009.48
786.985	984.9
787.167	999.24
787.348	1034.05
787.529	984.9
787.71	1072.96
787.891	1032.01
788.073	995.14
788.254	929.61
788.435	1105.73
788.616	913.22
788.797	880.46
788.978	1005.38
789.159	868.17
789.34	1013.57
789.522	1025.86
789.703	890.7
789.884	939.85
790.065	1038.15
790.246	1177.41
790.427	859.98
790.607	945.99
790.788	1015.62
790.969	829.26
791.15	935.75
791.331	825.16
791.512	786.25
791.693	915.27
791.874	960.33
792.054	966.47
792.235	892.74
792.416	761.67
792.597	804.68
792.778	810.82
792.958	821.06
793.139	945.99
793.32	827.21
793.5	726.86
793.681	950.09
793.862	829.26
794.042	888.65
794.223	603.98
794.404	700.23
794.584	614.22
794.765	792.39
794.945	825.16
795.126	759.63
795.306	964.42
795.487	886.6
795.667	751.43
795.848	665.42
796.028	743.24
796.209	733
796.389	849.74
796.57	628.56
796.75	595.79
796.93	806.73
797.111	659.28
797.291	624.46
797.471	782.15
797.652	753.48
797.832	628.56
798.012	751.43
798.192	634.7
798.373	472.91
798.553	720.71
798.733	816.97
798.913	642.89
799.093	673.61
799.274	653.13
799.454	661.32
799.634	864.07
799.814	788.3
799.994	663.37
800.174	681.8
800.354	745.29
800.534	485.2
800.714	624.46
800.894	499.53
801.074	583.5
801.254	646.99
801.434	730.95
801.614	546.64
801.794	536.4
801.974	4681.49
802.154	597.84
802.334	673.61
802.514	507.73
802.693	612.17
802.873	464.72
803.053	679.75
803.233	743.24
803.413	671.56
803.592	513.87
803.772	493.39
803.952	550.73
804.131	528.21
804.311	663.37
804.491	554.83
804.67	636.75
804.85	474.96
805.03	591.69
805.209	749.39
805.389	507.73
805.568	509.77
805.748	540.49
805.928	515.92
806.107	743.24
806.287	589.64
806.466	599.88
806.646	487.25
806.825	624.46
807.004	513.87
807.184	597.84
807.363	569.16
807.543	620.36
807.722	530.25
807.901	692.04
808.081	477.01
808.26	302.93
808.439	511.82
808.619	481.1
808.798	403.28
808.977	583.5
809.156	714.57
809.336	563.02
809.515	425.81
809.694	474.96
809.873	466.77
810.052	499.53
810.231	630.6
810.411	595.79
810.59	624.46
810.769	505.68
810.948	603.98
811.127	317.26
811.306	462.67
811.485	456.53
811.664	569.16
811.843	515.92
812.022	569.16
812.201	442.19
812.38	309.07
812.559	429.9
812.737	563.02
812.916	364.37
813.095	356.18
813.274	546.64
813.453	423.76
813.632	411.47
813.811	479.05
813.989	237.39
814.168	405.33
814.347	231.25
814.526	339.79
814.704	653.13
814.883	657.23
815.062	200.53
815.24	317.26
815.419	366.42
815.598	573.26
815.776	249.68
815.955	382.8
816.133	186.19
816.312	415.57
816.49	229.2
816.669	368.46
816.847	423.76
817.026	460.62
817.204	270.16
817.383	325.46
817.561	331.6
817.74	460.62
817.918	331.6
818.097	253.78
818.275	333.65
818.453	460.62
818.632	366.42
818.81	284.5
818.988	362.32
819.167	339.79
819.345	272.21
819.523	233.3
819.701	442.19
819.879	440.14
820.058	436.05
820.236	362.32
820.414	436.05
820.592	356.18
820.77	282.45
820.948	147.28
821.127	362.32
821.305	360.27
821.483	171.86
821.661	390.99
821.839	415.57
822.017	261.97
822.195	261.97
822.373	288.59
822.551	309.07
822.729	382.8
822.907	253.78
823.085	288.59
823.262	368.46
823.44	218.96
823.618	362.32
823.796	274.26
823.974	343.89
824.152	239.44
824.329	300.88
824.507	294.74
824.685	407.38
824.863	425.81
825.04	225.11
825.218	255.83
825.396	388.94
825.574	354.13
825.751	327.5
825.929	319.31
826.107	202.58
826.284	401.23
826.462	270.16
826.639	175.95
826.817	210.77
826.994	413.52
827.172	212.82
827.349	300.88
827.527	296.78
827.704	341.84
827.882	378.7
828.059	223.06
828.237	188.24
828.414	388.94
828.591	75.6
828.769	319.31
828.946	253.78
829.124	477.01
829.301	362.32
829.478	214.87
829.655	337.74
829.833	290.64
830.01	44.88
830.187	372.56
830.364	333.65
830.542	339.79
830.719	315.22
830.896	327.5
831.073	382.8
831.25	368.46
831.427	261.97
831.604	278.35
831.782	208.72
831.959	378.7
832.136	245.59
832.313	286.54
832.49	261.97
832.667	331.6
832.844	171.86
833.021	421.71
833.198	352.08
833.374	280.4
833.551	223.06
833.728	169.81
833.905	464.72
834.082	85.84
834.259	401.23
834.436	403.28
834.612	227.15
834.789	444.24
834.966	204.63
835.143	243.54
835.319	96.08
835.496	358.22
835.673	225.11
835.85	309.07
836.026	395.09
836.203	466.77
836.38	141.14
836.556	188.24
836.733	196.43
836.909	560.97
837.086	173.91
837.262	61.27
837.439	390.99
837.616	180.05
837.792	221.01
837.968	208.72
838.145	130.9
838.321	270.16
838.498	206.67
838.674	221.01
838.851	315.22
839.027	116.56
839.203	202.58
839.38	319.31
839.556	190.29
839.732	409.42
839.909	180.05
840.085	235.35
840.261	178
840.437	280.4
840.614	204.63
840.79	268.11
840.966	364.37
841.142	356.18
841.318	243.54
841.494	171.86
841.671	489.29
841.847	147.28
842.023	59.22
842.199	212.82
842.375	462.67
842.551	65.36
842.727	18.26
842.903	331.6
843.079	151.38
843.255	411.47
843.431	204.63
843.607	309.07
843.783	-108.71
843.959	323.41
844.134	81.75
844.31	321.36
844.486	186.19
844.662	137.04
844.838	319.31
845.013	169.81
845.189	370.51
845.365	276.31
845.541	178
845.716	249.68
845.892	495.44
846.068	116.56
846.244	171.86
846.419	128.85
846.595	147.28
846.77	161.62
846.946	253.78
847.122	202.58
847.297	196.43
847.473	466.77
847.648	104.28
847.824	192.34
847.999	18.26
848.175	237.39
848.35	237.39
848.526	415.57
848.701	399.18
848.876	366.42
849.052	350.03
849.227	206.67
849.403	259.92
849.578	229.2
849.753	231.25
849.929	171.86
850.104	85.84
850.279	315.22
850.454	188.24
850.63	276.31
850.805	163.67
850.98	186.19
851.155	253.78
851.33	167.76
851.505	122.71
851.681	386.9
851.856	151.38
852.031	229.2
852.206	280.4
852.381	128.85
852.556	75.6
852.731	130.9
852.906	378.7
853.081	194.39
853.256	309.07
853.431	96.08
853.606	231.25
853.781	91.99
853.956	-67.75
854.131	51.03
854.305	108.37
854.48	190.29
854.655	48.98
854.83	110.42
855.005	182.1
855.18	272.21
855.354	130.9
855.529	79.7
855.704	268.11
855.879	282.45
856.053	44.88
856.228	259.92
856.403	130.9
856.577	325.46
856.752	26.45
856.926	73.56
857.101	307.02
857.276	85.84
857.45	175.95
857.625	116.56
857.799	309.07
857.974	157.52
858.148	-75.95
858.323	231.25
858.497	145.24
858.672	46.93
858.846	46.93
859.02	178
859.195	81.75
859.369	155.47
859.543	212.82
859.718	204.63
859.892	288.59
860.066	243.54
860.241	51.03
860.415	57.17
860.589	229.2
860.763	210.77
860.938	190.29
861.112	165.71
861.286	137.04
861.46	231.25
861.634	81.75
861.808	145.24
861.982	112.47
862.157	120.66
862.331	122.71
862.505	-63.66
862.679	46.93
862.853	85.84
863.027	161.62
863.201	169.81
863.375	69.46
863.549	251.73
863.722	288.59
863.896	200.53
864.07	46.93
864.244	229.2
864.418	163.67
864.592	206.67
864.766	294.74
864.939	190.29
865.113	91.99
865.287	259.92
865.461	73.56
865.634	206.67
865.808	137.04
865.982	57.17
866.156	46.93
866.329	46.93
866.503	202.58
866.676	225.11
866.85	264.02
867.024	46.93
867.197	169.81
867.371	206.67
867.544	251.73
867.718	-2.22
867.891	272.21
868.065	28.5
868.238	155.47
868.412	302.93
868.585	157.52
868.759	85.84
868.932	94.04
869.105	-0.17
869.279	247.63
869.452	-45.23
869.625	284.5
869.799	87.89
869.972	-6.31
870.145	67.41
870.319	339.79
870.492	61.27
870.665	69.46
870.838	-6.31
871.011	-63.66
871.185	106.32
871.358	143.19
871.531	276.31
871.704	118.61
871.877	225.11
872.05	110.42
872.223	104.28
872.396	388.94
872.569	259.92
872.742	-26.79
872.915	151.38
873.088	53.08
873.261	30.55
873.434	210.77
873.607	79.7
873.78	331.6
873.953	26.45
874.126	77.65
874.299	73.56
874.471	126.8
874.644	83.8
874.817	192.34
874.99	278.35
875.163	165.71
875.335	218.96
875.508	-28.84
875.681	143.19
875.853	218.96
876.026	182.1
876.199	118.61
876.371	10.07
876.544	32.6
876.717	157.52
876.889	79.7
877.062	157.52
877.234	38.74
877.407	145.24
877.579	96.08
877.752	46.93
877.924	300.88
878.097	253.78
878.269	110.42
878.442	145.24
878.614	290.64
878.786	165.71
878.959	67.41
879.131	139.09
879.303	-43.18
879.476	137.04
879.648	190.29
879.82	42.84
879.993	55.12
880.165	85.84
880.337	-43.18
880.509	145.24
880.681	8.02
880.854	130.9
881.026	227.15
881.198	124.76
881.37	202.58
881.542	149.33
881.714	120.66
881.886	42.84
882.058	87.89
882.23	210.77
882.402	79.7
882.574	196.43
882.746	304.98
882.918	286.54
883.09	116.56
883.262	87.89
883.434	102.23
883.606	-51.37
883.778	157.52
883.95	208.72
884.122	81.75
884.293	259.92
884.465	106.32
884.637	274.26
884.809	175.95
884.98	190.29
885.152	130.9
885.324	159.57
885.496	69.46
885.667	173.91
885.839	87.89
886.011	65.36
886.182	200.53
886.354	284.5
886.525	198.48
886.697	65.36
886.869	32.6
887.04	165.71
887.212	296.78
887.383	302.93
887.555	194.39
887.726	73.56
887.897	48.98
888.069	122.71
888.24	276.31
888.412	155.47
888.583	116.56
888.754	8.02
888.926	-100.52
889.097	83.8
889.268	-45.23
889.44	-6.31
889.611	-20.65
889.782	79.7
889.953	-2.22
890.125	128.85
890.296	120.66
890.467	159.57
890.638	102.23
890.809	120.66
890.98	48.98
891.151	124.76
891.323	245.59
891.494	16.21
891.665	110.42
891.836	130.9
892.007	89.94
892.178	112.47
892.349	229.2
892.52	89.94
892.691	141.14
892.862	69.46
893.032	3.93
893.203	124.76
893.374	169.81
893.545	118.61
893.716	-28.84
893.887	321.36
894.057	-0.17
894.228	32.6
894.399	53.08
894.57	393.04
894.74	114.52
894.911	130.9
895.082	149.33
895.253	112.47
895.423	135
895.594	231.25
895.764	216.91
895.935	-84.14
896.106	135
896.276	34.64
896.447	184.15
896.617	22.36
896.788	-135.34
896.958	34.64
897.129	46.93
897.299	69.46
897.47	325.46
897.64	81.75
897.81	135
897.981	173.91
898.151	-14.51
898.322	141.14
898.492	188.24
898.662	55.12
898.832	71.51
899.003	30.55
899.173	284.5
899.343	-57.51
899.513	83.8
