Data from USB4F104151__25__13-10-40-405.txt Node

Date: Fri Mar 14 13:10:40 EDT 2025
User: louis
Spectrometer: USB4F10415
Trigger mode: 4
Integration Time (sec): 2.000000E-2
Scans to average: 1
Electric dark correction enabled: true
Nonlinearity correction enabled: false
Boxcar width: 0
XAxis mode: Wavelengths
Number of Pixels in Spectrum: 3648
>>>>>Begin Spectral Data<<<<<
178.204	-0.17
178.424	-0.17
178.644	-0.17
178.864	-123.05
179.084	-110.76
179.304	-55.47
179.524	30.55
179.744	48.98
179.964	-6.31
180.184	5.97
180.404	-63.66
180.624	55.12
180.844	-12.46
181.064	-84.14
181.283	57.17
181.503	-16.55
181.723	40.79
181.943	-26.79
182.163	44.88
182.383	-12.46
182.602	14.17
182.822	42.84
183.042	-24.75
183.262	38.74
183.482	-22.7
183.701	-20.65
183.921	-32.94
184.141	48.98
184.361	-0.17
184.58	87.89
184.8	30.55
185.02	42.84
185.239	57.17
185.459	28.5
185.679	1.88
185.898	53.08
186.118	69.46
186.338	-24.75
186.557	34.64
186.777	40.79
186.997	26.45
187.216	-32.94
187.436	73.56
187.655	46.93
187.875	-39.08
188.095	28.5
188.314	114.52
188.534	16.21
188.753	36.69
188.973	10.07
189.192	106.32
189.412	26.45
189.631	-0.17
189.851	61.27
190.07	42.84
190.29	67.41
190.509	73.56
190.729	42.84
190.948	32.6
191.168	122.71
191.387	65.36
191.607	-6.31
191.826	24.4
192.045	104.28
192.265	26.45
192.484	75.6
192.704	55.12
192.923	-22.7
193.142	112.47
193.362	104.28
193.581	48.98
193.8	-32.94
194.02	63.32
194.239	46.93
194.458	1.88
194.678	18.26
194.897	65.36
195.116	12.12
195.335	3.93
195.555	-2.22
195.774	57.17
195.993	89.94
196.212	-2.22
196.432	-0.17
196.651	16.21
196.87	28.5
197.089	34.64
197.308	87.89
197.528	-22.7
197.747	-8.36
197.966	1.88
198.185	22.36
198.404	44.88
198.623	22.36
198.842	32.6
199.062	16.21
199.281	24.4
199.5	20.31
199.719	24.4
199.938	8.02
200.157	71.51
200.376	38.74
200.595	122.71
200.814	14.17
201.033	42.84
201.252	26.45
201.471	96.08
201.69	81.75
201.909	106.32
202.128	34.64
202.347	100.18
202.566	5.97
202.785	22.36
203.004	-20.65
203.223	77.65
203.442	44.88
203.661	-55.47
203.879	40.79
204.098	44.88
204.317	26.45
204.536	61.27
204.755	12.12
204.974	73.56
205.193	34.64
205.411	100.18
205.63	24.4
205.849	-14.51
206.068	8.02
206.287	8.02
206.505	91.99
206.724	100.18
206.943	-6.31
207.162	10.07
207.381	22.36
207.599	48.98
207.818	44.88
208.037	22.36
208.255	5.97
208.474	61.27
208.693	38.74
208.911	-16.55
209.13	3.93
209.349	20.31
209.567	24.4
209.786	46.93
210.005	100.18
210.223	-2.22
210.442	-37.03
210.661	147.28
210.879	71.51
211.098	10.07
211.316	46.93
211.535	-6.31
211.753	-28.84
211.972	69.46
212.191	18.26
212.409	69.46
212.628	63.32
212.846	-2.22
213.065	26.45
213.283	-20.65
213.502	3.93
213.72	28.5
213.938	18.26
214.157	165.71
214.375	46.93
214.594	75.6
214.812	22.36
215.031	59.22
215.249	48.98
215.467	51.03
215.686	61.27
215.904	145.24
216.122	79.7
216.341	32.6
216.559	14.17
216.778	-0.17
216.996	122.71
217.214	71.51
217.432	5.97
217.651	-8.36
217.869	-77.99
218.087	-47.27
218.306	26.45
218.524	14.17
218.742	26.45
218.96	63.32
219.179	36.69
219.397	48.98
219.615	91.99
219.833	85.84
220.051	-18.6
220.27	104.28
220.488	8.02
220.706	5.97
220.924	48.98
221.142	53.08
221.36	42.84
221.578	44.88
221.796	59.22
222.015	40.79
222.233	65.36
222.451	16.21
222.669	16.21
222.887	40.79
223.105	-24.75
223.323	16.21
223.541	18.26
223.759	-12.46
223.977	26.45
224.195	83.8
224.413	-4.27
224.631	38.74
224.849	32.6
225.067	75.6
225.285	42.84
225.503	-8.36
225.721	12.12
225.939	30.55
226.157	-47.27
226.375	112.47
226.592	44.88
226.81	71.51
227.028	40.79
227.246	77.65
227.464	75.6
227.682	69.46
227.9	30.55
228.117	30.55
228.335	61.27
228.553	-8.36
228.771	28.5
228.989	20.31
229.206	-4.27
229.424	16.21
229.642	-20.65
229.86	30.55
230.077	51.03
230.295	79.7
230.513	12.12
230.731	57.17
230.948	94.04
231.166	59.22
231.384	16.21
231.601	44.88
231.819	14.17
232.037	75.6
232.254	-82.09
232.472	32.6
232.689	28.5
232.907	1.88
233.125	-4.27
233.342	5.97
233.56	73.56
233.777	-26.79
233.995	116.56
234.213	73.56
234.43	-12.46
234.648	-4.27
234.865	-32.94
235.083	-8.36
235.3	32.6
235.518	57.17
235.735	61.27
235.953	87.89
236.17	67.41
236.388	61.27
236.605	10.07
236.822	83.8
237.04	40.79
237.257	-41.13
237.475	16.21
237.692	98.13
237.909	-39.08
238.127	87.89
238.344	-30.89
238.562	32.6
238.779	-41.13
238.996	55.12
239.214	40.79
239.431	71.51
239.648	10.07
239.865	28.5
240.083	81.75
240.3	-18.6
240.517	-24.75
240.735	59.22
240.952	-32.94
241.169	34.64
241.386	-0.17
241.603	24.4
241.821	149.33
242.038	-8.36
242.255	38.74
242.472	10.07
242.689	10.07
242.907	143.19
243.124	61.27
243.341	61.27
243.558	-14.51
243.775	32.6
243.992	-57.51
244.209	42.84
244.426	71.51
244.643	-12.46
244.86	-67.75
245.078	53.08
245.295	48.98
245.512	79.7
245.729	-12.46
245.946	184.15
246.163	59.22
246.38	83.8
246.597	10.07
246.814	-8.36
247.031	40.79
247.248	24.4
247.464	-28.84
247.681	-32.94
247.898	-37.03
248.115	18.26
248.332	-24.75
248.549	57.17
248.766	108.37
248.983	110.42
249.2	61.27
249.417	51.03
249.633	55.12
249.85	96.08
250.067	57.17
250.284	18.26
250.501	55.12
250.717	-2.22
250.934	-61.61
251.151	-8.36
251.368	44.88
251.585	69.46
251.801	40.79
252.018	48.98
252.235	30.55
252.451	51.03
252.668	1.88
252.885	42.84
253.102	24.4
253.318	18.26
253.535	57.17
253.752	-0.17
253.968	-49.32
254.185	32.6
254.401	-4.27
254.618	-2.22
254.835	44.88
255.051	38.74
255.268	106.32
255.484	1.88
255.701	-51.37
255.917	59.22
256.134	65.36
256.351	106.32
256.567	57.17
256.784	106.32
257	-22.7
257.217	32.6
257.433	-12.46
257.65	8.02
257.866	38.74
258.082	-24.75
258.299	-4.27
258.515	75.6
258.732	30.55
258.948	3.93
259.165	51.03
259.381	-0.17
259.597	44.88
259.814	59.22
260.03	69.46
260.246	16.21
260.463	42.84
260.679	96.08
260.895	18.26
261.112	18.26
261.328	-34.99
261.544	57.17
261.761	89.94
261.977	34.64
262.193	-0.17
262.409	36.69
262.626	32.6
262.842	69.46
263.058	-12.46
263.274	104.28
263.49	-6.31
263.707	32.6
263.923	77.65
264.139	-8.36
264.355	81.75
264.571	44.88
264.787	40.79
265.004	34.64
265.22	-28.84
265.436	69.46
265.652	-4.27
265.868	69.46
266.084	42.84
266.3	65.36
266.516	-34.99
266.732	51.03
266.948	69.46
267.164	46.93
267.38	18.26
267.596	65.36
267.812	75.6
268.028	10.07
268.244	16.21
268.46	-34.99
268.676	69.46
268.892	73.56
269.108	1.88
269.324	22.36
269.54	38.74
269.756	20.31
269.972	16.21
270.188	57.17
270.403	3.93
270.619	16.21
270.835	55.12
271.051	-2.22
271.267	44.88
271.483	83.8
271.698	36.69
271.914	48.98
272.13	-41.13
272.346	83.8
272.562	81.75
272.777	-2.22
272.993	77.65
273.209	26.45
273.425	48.98
273.64	3.93
273.856	-4.27
274.072	-12.46
274.287	28.5
274.503	-41.13
274.719	67.41
274.934	51.03
275.15	-39.08
275.366	-4.27
275.581	10.07
275.797	104.28
276.012	26.45
276.228	48.98
276.444	57.17
276.659	-0.17
276.875	46.93
277.09	10.07
277.306	71.51
277.521	98.13
277.737	20.31
277.952	24.4
278.168	28.5
278.383	1.88
278.599	-28.84
278.814	18.26
279.03	57.17
279.245	110.42
279.461	75.6
279.676	69.46
279.892	65.36
280.107	20.31
280.322	40.79
280.538	38.74
280.753	-69.8
280.969	65.36
281.184	67.41
281.399	51.03
281.615	20.31
281.83	-6.31
282.045	-39.08
282.26	40.79
282.476	-26.79
282.691	10.07
282.906	67.41
283.122	-12.46
283.337	8.02
283.552	-16.55
283.767	-24.75
283.983	67.41
284.198	-8.36
284.413	51.03
284.628	-12.46
284.843	46.93
285.058	65.36
285.274	85.84
285.489	-49.32
285.704	30.55
285.919	-41.13
286.134	3.93
286.349	-65.71
286.564	34.64
286.779	-14.51
286.995	-10.41
287.21	69.46
287.425	57.17
287.64	-16.55
287.855	55.12
288.07	30.55
288.285	24.4
288.5	89.94
288.715	28.5
288.93	-6.31
289.145	-26.79
289.36	1.88
289.575	28.5
289.79	-0.17
290.004	42.84
290.219	5.97
290.434	53.08
290.649	-59.56
290.864	40.79
291.079	1.88
291.294	38.74
291.509	57.17
291.724	-8.36
291.938	-24.75
292.153	-0.17
292.368	-2.22
292.583	28.5
292.798	3.93
293.012	79.7
293.227	32.6
293.442	10.07
293.657	-0.17
293.871	26.45
294.086	96.08
294.301	65.36
294.516	44.88
294.73	16.21
294.945	22.36
295.16	12.12
295.374	83.8
295.589	24.4
295.804	61.27
296.018	-32.94
296.233	53.08
296.447	79.7
296.662	53.08
296.877	32.6
297.091	67.41
297.306	-18.6
297.52	8.02
297.735	30.55
297.949	1.88
298.164	42.84
298.378	12.12
298.593	-6.31
298.807	-26.79
299.022	32.6
299.236	53.08
299.451	73.56
299.665	57.17
299.88	91.99
300.094	-2.22
300.309	-24.75
300.523	59.22
300.737	-6.31
300.952	63.32
301.166	51.03
301.381	26.45
301.595	79.7
301.809	-8.36
302.024	26.45
302.238	59.22
302.452	51.03
302.667	-14.51
302.881	94.04
303.095	-30.89
303.309	26.45
303.524	26.45
303.738	79.7
303.952	48.98
304.166	20.31
304.381	-32.94
304.595	108.37
304.809	10.07
305.023	10.07
305.237	16.21
305.452	94.04
305.666	-47.27
305.88	98.13
306.094	98.13
306.308	26.45
306.522	77.65
306.736	16.21
306.95	-16.55
307.164	36.69
307.379	3.93
307.593	65.36
307.807	48.98
308.021	10.07
308.235	51.03
308.449	-16.55
308.663	-20.65
308.877	100.18
309.091	112.47
309.305	65.36
309.519	-18.6
309.733	42.84
309.947	48.98
310.161	108.37
310.374	-14.51
310.588	67.41
310.802	55.12
311.016	-0.17
311.23	10.07
311.444	34.64
311.658	32.6
311.872	83.8
312.085	67.41
312.299	63.32
312.513	42.84
312.727	-8.36
312.941	-41.13
313.154	75.6
313.368	16.21
313.582	32.6
313.796	26.45
314.009	5.97
314.223	65.36
314.437	67.41
314.651	73.56
314.864	-20.65
315.078	98.13
315.292	67.41
315.505	48.98
315.719	-0.17
315.933	59.22
316.146	1.88
316.36	18.26
316.573	81.75
316.787	16.21
317.001	65.36
317.214	-0.17
317.428	32.6
317.641	22.36
317.855	85.84
318.068	34.64
318.282	44.88
318.495	57.17
318.709	-8.36
318.922	40.79
319.136	30.55
319.349	10.07
319.563	22.36
319.776	77.65
319.99	-77.99
320.203	94.04
320.417	-37.03
320.63	46.93
320.843	108.37
321.057	32.6
321.27	114.52
321.483	20.31
321.697	118.61
321.91	3.93
322.124	77.65
322.337	55.12
322.55	26.45
322.763	57.17
322.977	40.79
323.19	5.97
323.403	20.31
323.617	48.98
323.83	63.32
324.043	40.79
324.256	3.93
324.469	28.5
324.683	28.5
324.896	3.93
325.109	-53.42
325.322	53.08
325.535	96.08
325.748	77.65
325.962	73.56
326.175	-12.46
326.388	61.27
326.601	73.56
326.814	3.93
327.027	-6.31
327.24	108.37
327.453	-41.13
327.666	81.75
327.879	57.17
328.092	61.27
328.305	32.6
328.518	51.03
328.731	114.52
328.944	59.22
329.157	30.55
329.37	114.52
329.583	57.17
329.796	59.22
330.009	-22.7
330.222	69.46
330.435	51.03
330.648	28.5
330.861	5.97
331.073	89.94
331.286	26.45
331.499	-4.27
331.712	36.69
331.925	61.27
332.138	48.98
332.35	118.61
332.563	-14.51
332.776	73.56
332.989	34.64
333.202	16.21
333.414	53.08
333.627	55.12
333.84	-2.22
334.053	73.56
334.265	67.41
334.478	77.65
334.691	-10.41
334.903	24.4
335.116	-61.61
335.329	48.98
335.541	89.94
335.754	46.93
335.966	-51.37
336.179	8.02
336.392	48.98
336.604	53.08
336.817	28.5
337.029	48.98
337.242	30.55
337.454	69.46
337.667	1.88
337.88	65.36
338.092	10.07
338.305	24.4
338.517	-24.75
338.729	32.6
338.942	38.74
339.154	-2.22
339.367	10.07
339.579	46.93
339.792	94.04
340.004	-0.17
340.217	55.12
340.429	5.97
340.641	57.17
340.854	3.93
341.066	65.36
341.278	48.98
341.491	81.75
341.703	32.6
341.915	79.7
342.128	-4.27
342.34	-14.51
342.552	106.32
342.764	5.97
342.977	53.08
343.189	96.08
343.401	77.65
343.613	-51.37
343.826	1.88
344.038	53.08
344.25	100.18
344.462	65.36
344.674	67.41
344.886	59.22
345.099	16.21
345.311	87.89
345.523	79.7
345.735	5.97
345.947	73.56
346.159	8.02
346.371	12.12
346.583	42.84
346.795	51.03
347.007	46.93
347.219	38.74
347.431	44.88
347.643	137.04
347.855	-8.36
348.067	-18.6
348.279	32.6
348.491	65.36
348.703	16.21
348.915	-0.17
349.127	30.55
349.339	100.18
349.551	63.32
349.763	83.8
349.975	38.74
350.187	8.02
350.399	165.71
350.61	30.55
350.822	53.08
351.034	46.93
351.246	83.8
351.458	57.17
351.669	69.46
351.881	114.52
352.093	85.84
352.305	77.65
352.517	69.46
352.728	83.8
352.94	14.17
353.152	55.12
353.363	-53.42
353.575	48.98
353.787	32.6
353.999	57.17
354.21	44.88
354.422	-10.41
354.633	18.26
354.845	91.99
355.057	20.31
355.268	42.84
355.48	28.5
355.692	55.12
355.903	34.64
356.115	59.22
356.326	-6.31
356.538	114.52
356.749	51.03
356.961	32.6
357.172	-49.32
357.384	22.36
357.595	81.75
357.807	16.21
358.018	51.03
358.23	44.88
358.441	44.88
358.653	22.36
358.864	-0.17
359.075	42.84
359.287	16.21
359.498	5.97
359.709	65.36
359.921	-8.36
360.132	65.36
360.344	51.03
360.555	34.64
360.766	55.12
360.977	53.08
361.189	63.32
361.4	98.13
361.611	98.13
361.823	122.71
362.034	83.8
362.245	26.45
362.456	57.17
362.667	16.21
362.879	51.03
363.09	40.79
363.301	-37.03
363.512	65.36
363.723	42.84
363.935	79.7
364.146	65.36
364.357	44.88
364.568	24.4
364.779	-45.23
364.99	89.94
365.201	98.13
365.412	116.56
365.623	59.22
365.834	67.41
366.045	67.41
366.256	98.13
366.467	16.21
366.678	30.55
366.889	53.08
367.1	118.61
367.311	87.89
367.522	61.27
367.733	36.69
367.944	98.13
368.155	48.98
368.366	63.32
368.577	130.9
368.788	85.84
368.999	65.36
369.209	120.66
369.42	57.17
369.631	143.19
369.842	65.36
370.053	-12.46
370.264	71.51
370.474	91.99
370.685	16.21
370.896	65.36
371.107	124.76
371.317	130.9
371.528	36.69
371.739	-34.99
371.95	48.98
372.16	69.46
372.371	26.45
372.582	8.02
372.792	67.41
373.003	44.88
373.214	-32.94
373.424	112.47
373.635	28.5
373.846	130.9
374.056	-8.36
374.267	14.17
374.477	98.13
374.688	8.02
374.898	34.64
375.109	26.45
375.319	44.88
375.53	28.5
375.74	147.28
375.951	32.6
376.161	1.88
376.372	59.22
376.582	-49.32
376.793	98.13
377.003	-20.65
377.214	12.12
377.424	57.17
377.635	73.56
377.845	46.93
378.055	34.64
378.266	65.36
378.476	46.93
378.686	16.21
378.897	71.51
379.107	153.43
379.317	8.02
379.528	118.61
379.738	20.31
379.948	-22.7
380.158	102.23
380.369	18.26
380.579	57.17
380.789	-4.27
380.999	48.98
381.21	83.8
381.42	67.41
381.63	16.21
381.84	89.94
382.05	100.18
382.261	24.4
382.471	28.5
382.681	-32.94
382.891	10.07
383.101	24.4
383.311	75.6
383.521	36.69
383.731	16.21
383.941	71.51
384.151	81.75
384.361	48.98
384.571	14.17
384.781	94.04
384.991	79.7
385.201	51.03
385.411	59.22
385.621	69.46
385.831	118.61
386.041	85.84
386.251	10.07
386.461	51.03
386.671	-20.65
386.881	114.52
387.091	-10.41
387.301	69.46
387.511	22.36
387.72	100.18
387.93	118.61
388.14	-6.31
388.35	30.55
388.56	104.28
388.769	16.21
388.979	114.52
389.189	-51.37
389.399	48.98
389.609	96.08
389.818	89.94
390.028	96.08
390.238	120.66
390.447	46.93
390.657	102.23
390.867	38.74
391.076	71.51
391.286	98.13
391.496	53.08
391.705	-47.27
391.915	118.61
392.125	5.97
392.334	98.13
392.544	137.04
392.753	14.17
392.963	48.98
393.172	57.17
393.382	75.6
393.591	63.32
393.801	48.98
394.01	87.89
394.22	59.22
394.429	87.89
394.639	32.6
394.848	145.24
395.058	79.7
395.267	59.22
395.477	85.84
395.686	-6.31
395.895	75.6
396.105	155.47
396.314	112.47
396.524	69.46
396.733	75.6
396.942	94.04
397.152	36.69
397.361	36.69
397.57	28.5
397.78	108.37
397.989	77.65
398.198	143.19
398.407	73.56
398.617	38.74
398.826	96.08
399.035	94.04
399.244	147.28
399.453	102.23
399.663	141.14
399.872	75.6
400.081	98.13
400.29	89.94
400.499	51.03
400.708	124.76
400.917	132.95
401.127	61.27
401.336	51.03
401.545	57.17
401.754	96.08
401.963	128.85
402.172	75.6
402.381	85.84
402.59	106.32
402.799	81.75
403.008	89.94
403.217	75.6
403.426	91.99
403.635	57.17
403.844	36.69
404.053	208.72
404.262	94.04
404.471	126.8
404.68	163.67
404.888	137.04
405.097	178
405.306	163.67
405.515	106.32
405.724	124.76
405.933	171.86
406.142	155.47
406.35	169.81
406.559	91.99
406.768	141.14
406.977	243.54
407.185	227.15
407.394	147.28
407.603	147.28
407.812	202.58
408.02	214.87
408.229	198.48
408.438	169.81
408.646	173.91
408.855	221.01
409.064	186.19
409.272	192.34
409.481	319.31
409.69	239.44
409.898	237.39
410.107	259.92
410.315	327.5
410.524	304.98
410.733	317.26
410.941	333.65
411.15	315.22
411.358	323.41
411.567	407.38
411.775	374.61
411.984	399.18
412.192	444.24
412.401	409.42
412.609	479.05
412.818	577.36
413.026	393.04
413.234	352.08
413.443	477.01
413.651	511.82
413.86	497.49
414.068	505.68
414.276	575.31
414.485	483.15
414.693	550.73
414.901	630.6
415.11	616.27
415.318	610.12
415.526	657.23
415.734	685.9
415.943	751.43
416.151	696.14
416.359	634.7
416.567	853.83
416.776	800.59
416.984	890.7
417.192	870.22
417.4	878.41
417.608	821.06
417.817	878.41
418.025	876.36
418.233	1042.25
418.441	859.98
418.649	968.52
418.857	1062.73
419.065	1130.31
419.273	1068.87
419.481	1111.88
419.689	1179.46
419.897	1265.47
420.105	1290.05
420.313	1455.94
420.521	1369.92
420.729	1367.87
420.937	1392.45
421.145	1425.22
421.353	1544
421.561	1638.2
421.769	1582.91
421.977	1789.75
422.185	1761.08
422.393	1875.77
422.601	1918.78
422.809	1924.92
423.017	2092.85
423.224	2088.76
423.432	2135.86
423.64	2178.87
423.848	2385.71
424.056	2293.55
424.263	2441.01
424.471	2502.45
424.679	2455.34
424.887	2631.47
425.094	2733.87
425.302	2850.6
425.51	2834.22
425.718	2946.86
425.925	2899.75
426.133	3145.51
426.341	3190.56
426.548	3436.32
426.756	3454.75
426.964	3442.46
427.171	3596.06
427.379	3653.41
427.586	3809.05
427.794	3882.78
428.001	4071.19
428.209	4224.79
428.417	4237.08
428.624	4531.98
428.832	4570.9
429.039	4493.07
429.247	4499.22
429.454	4812.56
429.662	5062.41
429.869	4808.46
430.076	5304.07
430.284	4992.78
430.491	5281.54
430.699	5572.35
430.906	5547.78
431.114	5869.31
431.321	5861.12
431.528	5981.95
431.736	6391.54
431.943	6670.06
432.15	6420.21
432.358	6625.01
432.565	6960.88
432.772	6874.86
432.979	7272.17
433.187	7519.97
433.394	7370.47
433.601	7913.18
433.808	8089.31
434.016	7890.65
434.223	8214.23
434.43	8564.43
434.637	8609.49
434.844	9023.18
435.052	9201.35
435.259	9105.1
435.466	9270.98
435.673	9168.59
435.88	9731.78
436.087	10059.45
436.294	10221.24
436.501	9979.58
436.708	10518.2
436.915	10772.14
437.122	11015.85
437.329	11146.92
437.537	11361.96
437.743	11744.93
437.95	11503.27
438.157	12050.08
438.364	12664.47
438.571	12484.25
438.778	12449.43
438.985	13831.81
439.192	13305.48
439.399	13532.81
439.606	13334.15
439.813	13969.02
440.02	15068.78
440.227	14734.96
440.433	14665.33
440.64	15148.65
440.847	15181.42
441.054	15226.48
441.261	16223.84
441.467	16297.56
441.674	16535.13
441.881	17100.37
442.088	17098.32
442.294	16768.6
442.501	17251.92
442.708	17761.86
442.914	18368.06
443.121	19119.67
443.328	18730.55
443.534	19908.13
443.741	19621.42
443.948	19240.5
444.154	20538.91
444.361	20450.85
444.568	20461.09
444.774	20536.86
444.981	20788.76
445.187	21392.91
445.394	22388.22
445.6	22115.84
445.807	24126.95
446.013	23145.97
446.22	23768.55
446.426	24896.99
446.633	24716.76
446.839	25812.43
447.046	24575.45
447.252	25855.43
447.459	26209.73
447.665	25837
447.871	27153.85
448.078	28157.35
448.284	26953.15
448.491	27696.56
448.697	28853.66
448.903	29318.55
449.11	28954.01
449.316	28951.96
449.522	29541.78
449.728	30291.34
449.935	30418.31
450.141	30592.39
450.347	31278.46
450.553	30301.57
450.76	30758.27
450.966	31481.2
451.172	31387
451.378	32406.89
451.584	31350.13
451.791	32705.89
451.997	32255.34
452.203	32929.12
452.409	32826.72
452.615	32361.83
452.821	31735.15
453.027	31268.22
453.233	33060.19
453.44	31806.83
453.646	32140.65
453.852	31980.91
454.058	32861.54
454.264	31874.41
454.47	32621.92
454.676	31710.58
454.882	32791.9
455.088	29990.28
455.294	30279.05
455.5	31102.33
455.705	31323.51
455.911	30014.86
456.117	29500.82
456.323	28880.28
456.529	27661.74
456.735	28792.22
456.941	28063.15
457.147	27534.77
457.352	26860.99
457.558	26465.73
457.764	26549.7
457.97	25998.79
458.176	25650.64
458.381	25556.43
458.587	24126.95
458.793	24464.86
458.999	22988.28
459.204	24563.17
459.41	23946.73
459.616	22613.5
459.821	22547.97
460.027	22308.35
460.233	21777.93
460.438	20909.59
460.644	21038.61
460.85	20352.54
461.055	19875.37
461.261	19842.6
461.466	18345.53
461.672	17559.11
461.878	18785.85
462.083	17890.88
462.289	17589.83
462.494	17358.41
462.7	16328.28
462.905	15844.96
463.111	16504.41
463.316	16658.01
463.522	16354.91
463.727	16133.73
463.932	16334.43
464.138	16023.14
464.343	16328.28
464.549	15564.39
464.754	16270.94
464.959	15902.31
465.165	15763.04
465.37	15328.88
465.575	14726.77
465.781	15607.4
465.986	15623.78
466.191	14829.17
466.397	14724.72
466.602	13946.5
466.807	14478.97
467.012	14481.02
467.218	14415.48
467.423	14333.56
467.628	14245.5
467.833	15097.45
468.038	14296.7
468.244	14120.57
468.449	14581.37
468.654	14120.57
468.859	14231.16
469.064	13960.83
469.269	13397.64
469.474	13616.77
469.679	13680.26
469.885	13268.62
470.09	13549.19
470.295	13508.23
470.5	13018.77
470.705	13483.66
470.91	13108.88
471.115	12940.94
471.32	13162.12
471.525	12947.09
471.73	12394.14
471.935	12504.73
472.139	12052.13
472.344	12478.1
472.549	12127.9
472.754	11878.05
472.959	11861.66
473.164	11533.99
473.369	11548.33
473.574	11998.88
473.778	11599.52
473.983	11556.52
474.188	11450.02
474.393	11095.72
474.598	11286.19
474.802	11052.72
475.007	10964.65
475.212	11159.21
475.417	10741.43
475.621	10643.12
475.826	10722.99
476.031	10272.44
476.235	10137.27
476.44	10282.68
476.645	10376.89
476.849	9948.86
477.054	10045.12
477.259	9840.32
477.463	9955.01
477.668	9813.7
477.872	9797.31
478.077	9637.57
478.282	9162.44
478.486	9232.07
478.691	9217.74
478.895	9178.83
479.1	9129.67
479.304	9082.57
479.509	8945.36
479.713	9094.86
479.918	8681.17
480.122	8699.6
480.326	8820.43
480.531	8826.57
480.735	8853.2
480.94	8670.93
481.144	8949.45
481.348	8773.33
481.553	8574.67
481.757	8349.4
481.961	8562.39
482.166	8519.38
482.37	8515.28
482.574	8298.2
482.778	8523.48
482.983	8670.93
483.187	8556.24
483.391	8576.72
483.595	8337.11
483.8	8478.42
484.004	8421.08
484.208	8650.45
484.412	8535.76
484.616	8421.08
484.821	8443.6
485.025	8152.79
485.229	8488.66
485.433	8392.41
485.637	8453.84
485.841	8515.28
486.045	8244.95
486.249	8369.88
486.453	8433.36
486.657	8414.93
486.861	8316.63
487.065	8398.55
487.269	8396.5
487.473	8310.49
487.677	8478.42
487.881	8605.39
488.085	8423.12
488.289	8330.97
488.493	8425.17
488.697	8445.65
488.901	8543.95
489.105	8470.23
489.309	8509.14
489.512	8523.48
489.716	8451.8
489.92	8523.48
490.124	8492.76
490.328	8888.01
490.531	8541.91
490.735	8541.91
490.939	8713.94
491.143	8715.98
491.346	8832.72
491.55	8718.03
491.754	8636.11
491.958	8849.1
492.161	8783.57
492.365	8814.29
492.569	8965.84
492.772	8918.73
492.976	8802
493.18	9012.94
493.383	8961.74
493.587	9152.2
493.79	9180.87
493.994	9240.26
494.197	9297.61
494.401	9447.11
494.605	9193.16
494.808	9594.56
495.012	9596.61
495.215	9461.44
495.419	9623.23
495.622	9625.28
495.825	9731.78
496.029	9799.36
496.232	10243.77
496.436	10096.32
496.639	10440.37
496.843	10098.36
497.046	10325.69
497.249	10380.98
497.453	10477.24
497.656	10458.81
497.859	10639.03
498.063	10671.79
498.266	10974.89
498.469	10757.81
498.673	10985.13
498.876	11034.28
499.079	11253.42
499.282	11177.64
499.485	11558.56
499.689	11677.35
499.892	11876
500.095	11746.98
500.298	12275.35
500.501	11972.25
500.705	12318.36
500.908	12492.44
501.111	12598.93
501.314	12525.21
501.517	12592.79
501.72	12945.04
501.923	12775.06
502.126	13411.98
502.329	13282.95
502.532	13500.04
502.735	13569.67
502.938	13715.08
503.141	13756.04
503.344	14044.8
503.547	13930.11
503.75	14524.02
503.953	14558.84
504.156	14659.19
504.359	14712.44
504.562	15029.87
504.765	15044.21
504.968	15324.78
505.17	15443.56
505.373	15701.61
505.576	15808.1
505.779	15963.75
505.982	15967.84
506.185	16305.76
506.387	16240.22
506.59	16543.32
506.793	16887.38
506.996	16877.14
507.198	17344.08
507.401	17153.62
507.604	17405.52
507.807	17923.65
508.009	17931.84
508.212	17958.47
508.415	18230.85
508.617	18560.57
508.82	18552.38
509.022	18462.27
509.225	18857.53
509.428	19195.44
509.63	19363.37
509.833	19406.38
510.035	19785.26
510.238	19670.57
510.44	19998.24
510.643	20332.06
510.845	20663.83
511.048	20346.4
511.25	20885.01
511.453	20766.23
511.655	21497.36
511.858	21313.04
512.06	21681.67
512.262	21937.67
512.465	21874.18
512.667	22339.07
512.87	22265.35
513.072	22535.68
513.274	22844.92
513.477	22826.49
513.679	23330.29
513.881	23590.38
514.084	23430.64
514.286	23981.54
514.488	23690.73
514.69	24440.29
514.893	24753.63
515.095	24483.3
515.297	24944.09
515.499	24946.14
515.701	25642.45
515.904	25953.74
516.106	25931.21
516.308	26273.22
516.51	26332.61
516.712	26674.62
516.914	26975.67
517.116	27053.5
517.318	27405.75
517.52	27438.51
517.722	27684.27
517.925	27819.44
518.127	28347.81
518.329	28614.05
518.531	28255.65
518.733	28624.29
518.935	29017.5
519.136	29324.69
519.338	29816.21
519.54	29672.85
519.742	30070.15
519.944	30279.05
520.146	30813.57
520.348	30870.91
520.55	30649.73
520.752	30903.68
520.954	31673.71
521.155	31227.26
521.357	31628.66
521.559	32075.12
521.761	32298.34
521.963	32558.44
522.164	32818.53
522.366	32884.06
522.568	33310.04
522.77	33262.94
522.971	33611.09
523.173	33271.13
523.375	33615.19
523.576	34045.26
523.778	34217.29
523.98	34399.56
524.181	34583.88
524.383	34755.91
524.584	35181.88
524.786	34594.12
524.988	35263.8
525.189	36101.42
525.391	35730.74
525.592	36230.44
525.794	35951.92
525.995	36218.16
526.197	36353.32
526.398	36269.36
526.6	36527.4
526.801	36574.5
527.003	36848.93
527.204	36748.58
527.406	37543.19
527.607	37326.11
527.808	37569.82
528.01	36662.57
528.211	37469.47
528.412	38206.73
528.614	37707.03
528.815	37934.35
529.016	38278.41
529.218	38237.45
529.419	38149.39
529.62	38397.2
529.822	38292.75
530.023	38352.14
530.224	38518.03
530.425	38728.97
530.626	38247.69
530.828	38323.47
531.029	39310.59
531.23	38677.77
531.431	38669.58
531.632	38634.76
531.833	38911.24
532.035	39109.89
532.236	39163.14
532.437	39400.7
532.638	38909.19
532.839	39087.36
533.04	39423.23
533.241	38673.67
533.442	39900.4
533.643	39224.57
533.844	39247.1
534.045	39824.63
534.246	39200
534.447	39798.01
534.648	39527.67
534.849	39564.54
535.05	38882.56
535.251	39273.73
535.451	39472.38
535.652	39595.26
535.853	39171.33
536.054	39496.95
536.255	39675.13
536.456	39228.67
536.657	39781.62
536.857	39216.38
537.058	39462.14
537.259	39845.11
537.46	39585.02
537.66	39660.79
537.861	39949.56
538.062	39474.43
538.263	39714.04
538.463	39087.36
538.664	39546.11
538.865	39623.93
539.065	39775.48
539.266	39273.73
539.466	39775.48
539.667	39439.61
539.868	40133.87
540.068	39527.67
540.269	39550.2
540.469	39642.36
540.67	39240.96
540.87	39382.27
541.071	39431.42
541.271	39955.7
541.472	39109.89
541.672	39513.34
541.873	39116.03
542.073	38819.08
542.274	39638.26
542.474	39580.92
542.675	38982.91
542.875	39888.12
543.075	39322.88
543.276	39281.92
543.476	39703.8
543.676	39482.62
543.877	40103.15
544.077	39296.25
544.277	39691.51
544.478	39210.24
544.678	39101.7
544.878	39494.91
545.078	39546.11
545.279	39200
545.479	38966.53
545.679	39320.83
545.879	39218.43
546.079	39396.6
546.28	39494.91
546.48	39664.89
546.68	39392.51
546.88	39392.51
547.08	39298.3
547.28	38970.63
547.48	38882.56
547.68	39083.26
547.88	38788.36
548.081	39419.13
548.281	39136.51
548.481	39036.16
548.681	39126.27
548.881	39034.11
549.081	39273.73
549.28	39103.74
549.48	39453.95
549.68	39099.65
549.88	39779.57
550.08	38921.48
550.28	39103.74
550.48	38980.87
550.68	39427.32
550.88	39159.04
551.08	38991.11
551.279	39222.53
551.479	38819.08
551.679	39177.47
551.879	38831.36
552.079	39036.16
552.278	38673.67
552.478	38921.48
552.678	38989.06
552.878	38884.61
553.077	38997.25
553.277	38722.82
553.477	39124.22
553.676	38679.82
553.876	38909.19
554.076	38565.13
554.275	38776.07
554.475	38530.31
554.674	38866.18
554.874	38821.12
555.074	38591.75
555.273	38585.61
555.473	38464.78
555.672	37979.41
555.872	38458.63
556.071	38315.28
556.271	38802.69
556.47	38317.32
556.67	38343.95
556.869	38464.78
557.068	38147.34
557.268	38264.08
557.467	38366.48
557.667	38085.9
557.866	38305.04
558.065	38038.8
558.265	37788.95
558.464	37702.93
558.663	38259.98
558.863	37506.33
559.062	38350.09
559.261	37788.95
559.461	37870.87
559.66	37340.44
559.859	38006.03
560.058	37307.68
560.258	37496.09
560.457	37520.66
560.656	37711.13
560.855	37238.05
561.054	37561.62
561.253	37172.51
561.453	37342.49
561.652	37387.55
561.851	37457.18
562.05	37018.91
562.249	36967.71
562.448	37315.87
562.647	36791.59
562.846	36846.88
563.045	36883.75
563.244	36662.57
563.443	37381.4
563.642	36234.54
563.841	36468.01
564.04	36406.57
564.239	36793.64
564.438	36169.01
564.637	36328.75
564.836	36474.15
565.035	36037.94
565.234	36488.49
565.432	36394.28
565.631	35874.1
565.83	35857.71
566.029	35566.9
566.228	35847.47
566.427	35786.04
566.625	35642.68
566.824	35591.48
567.023	35704.12
567.222	35071.29
567.42	35239.23
567.619	35020.09
567.818	35116.35
568.016	35423.54
568.215	35253.56
568.414	34864.45
568.612	35173.69
568.811	34751.81
569.01	34970.94
569.208	34321.74
569.407	34714.95
569.605	34524.49
569.804	34469.19
570.002	34323.79
570.201	34561.35
570.4	33879.38
570.598	33850.7
570.797	33912.14
570.995	33983.82
571.193	33508.69
571.392	33971.53
571.59	33439.06
571.789	33858.9
571.987	33615.19
572.186	33189.21
572.384	33217.88
572.582	33451.35
572.781	33377.62
572.979	32775.52
573.177	33328.47
573.376	33066.33
573.574	32666.98
573.772	32972.13
573.971	32937.31
574.169	32286.06
574.367	32550.24
574.565	32787.81
574.763	32284.01
574.962	32443.75
575.16	31735.15
575.358	31782.26
575.556	31677.81
575.754	32056.68
575.952	31786.35
576.151	32263.53
576.349	31896.94
576.547	31327.61
576.745	31841.65
576.943	31272.31
577.141	31587.7
577.339	31477.11
577.537	31556.98
577.735	31153.53
577.933	30922.11
578.131	31395.19
578.329	31024.51
578.527	30639.49
578.725	30971.26
578.923	31073.66
579.121	30698.88
579.319	30444.93
579.516	30688.64
579.714	30385.54
579.912	30743.94
580.11	30199.18
580.308	30678.4
580.506	30127.5
580.704	29822.35
580.901	30133.64
581.099	30049.67
581.297	29511.06
581.495	29924.75
581.692	30018.96
581.89	29494.68
582.088	29969.8
582.285	29523.35
582.483	29595.03
582.681	29848.97
582.878	29631.89
583.076	29062.55
583.274	29730.19
583.471	28497.31
583.669	29181.34
583.866	29164.95
584.064	29072.79
584.262	29029.79
584.459	28784.03
584.657	28951.96
584.854	29035.93
585.052	28165.54
585.249	28513.7
585.447	28589.47
585.644	28059.05
585.841	28233.13
586.039	28677.54
586.236	27649.46
586.434	27893.16
586.631	27950.51
586.828	28063.15
587.026	27739.57
587.223	27770.29
587.42	27790.77
587.618	27567.54
587.815	27176.37
588.012	27342.26
588.21	27284.92
588.407	27327.92
588.604	27168.18
588.801	26940.86
588.999	27184.57
589.196	27049.4
589.393	27221.43
589.59	26582.46
589.787	26746.3
589.984	26662.33
590.182	26310.08
590.379	26660.29
590.576	26273.22
590.773	26445.25
590.97	26435.01
591.167	26265.03
591.364	25972.17
591.561	26222.02
591.758	25664.97
591.955	25951.69
592.152	25929.16
592.349	25654.73
592.546	26031.56
592.743	25585.1
592.94	25245.14
593.137	25320.91
593.334	25282
593.531	25097.69
593.727	25322.96
593.924	25236.95
594.121	25066.97
594.318	25273.81
594.515	24966.62
594.712	25208.28
594.908	24659.42
595.105	24974.81
595.302	24540.64
595.499	24669.66
595.696	24684
595.892	24471.01
596.089	24569.31
596.286	24370.66
596.482	24372.71
596.679	23907.82
596.876	24075.75
597.072	24057.32
597.269	24317.41
597.466	23891.43
597.662	23987.69
597.859	23627.24
598.055	23997.93
598.252	23602.67
598.448	23543.28
598.645	23463.41
598.841	23256.56
599.038	23361.01
599.234	23420.4
599.431	23418.35
599.627	22668.8
599.824	23231.99
600.02	22740.47
600.217	22787.58
600.413	22715.9
600.609	22609.4
600.806	22822.39
601.002	22703.61
601.198	22842.87
601.395	22269.44
601.591	22732.28
601.787	22638.08
601.984	22226.43
602.18	22490.62
602.376	22001.16
602.572	22040.07
602.769	21939.72
602.965	21968.39
603.161	21816.84
603.357	21544.46
603.553	21896.71
603.75	21736.97
603.946	21704.2
604.142	21771.79
604.338	21374.48
604.534	21657.1
604.73	21339.66
604.926	21243.41
605.122	21622.28
605.318	21333.52
605.514	21091.86
605.71	21089.81
605.906	20987.41
606.102	20915.73
606.298	20954.65
606.494	20909.59
606.69	20895.25
606.886	21126.67
607.082	20813.34
607.278	20704.79
607.474	20629.02
607.67	21005.84
607.866	20430.37
608.062	20538.91
608.257	20442.65
608.453	20471.32
608.649	20461.09
608.845	20262.43
609.041	20080.16
609.236	20125.22
609.432	20080.16
609.628	20037.16
609.824	20028.96
610.019	19883.56
610.215	20102.69
610.411	19949.09
610.606	19854.89
610.802	19848.74
610.998	19744.3
611.193	20006.44
611.389	19742.25
611.584	19783.21
611.78	19549.74
611.976	19609.13
612.171	19678.76
612.367	19680.81
612.562	19478.06
612.758	19099.19
612.953	19308.08
613.149	19703.34
613.344	19283.5
613.539	19355.18
613.735	19326.51
613.93	19506.73
614.126	19154.48
614.321	19377.71
614.517	18812.47
614.712	19111.47
614.907	18990.64
615.103	19107.38
615.298	18945.59
615.493	18961.97
615.688	18759.22
615.884	19342.89
616.079	18728.5
616.274	18794.04
616.47	18556.47
616.665	18703.93
616.86	18384.44
617.055	18853.43
617.25	18388.54
617.445	18751.03
617.641	18261.57
617.836	18478.65
618.031	18234.94
618.226	18587.19
618.421	18181.7
618.616	18312.77
618.811	18136.64
619.006	18280
619.201	18110.02
619.396	18011.71
619.591	17776.2
619.786	17821.25
619.981	17432.14
620.176	17753.67
620.371	17350.22
620.566	17546.83
620.761	17407.56
620.956	17419.85
621.151	17200.72
621.346	17075.79
621.541	16860.76
621.735	17413.71
621.93	16909.91
622.125	16694.87
622.32	16748.12
622.515	17118.8
622.709	16660.06
622.904	16555.61
623.099	16268.89
623.294	16531.03
623.488	16277.08
623.683	16162.4
623.878	16031.33
624.072	16086.62
624.267	16080.48
624.462	15908.45
624.656	15556.2
624.851	15742.57
625.046	15779.43
625.24	15537.77
625.435	15353.45
625.629	15490.66
625.824	15371.88
626.018	15322.73
626.213	15044.21
626.407	15279.72
626.602	14984.82
626.796	14993.01
626.991	14962.29
627.185	14802.55
627.38	14851.7
627.574	14640.76
627.768	14528.12
627.963	14433.91
628.157	14386.81
628.352	14356.09
628.546	14261.88
628.74	14231.16
628.935	13969.02
629.129	14163.58
629.323	13950.59
629.517	13727.36
629.712	13835.91
629.906	13854.34
630.1	13708.93
630.294	13745.8
630.489	13457.03
630.683	13526.66
630.877	13395.59
631.071	13452.94
631.265	13207.18
631.459	13235.85
631.653	12998.29
631.848	13096.59
632.042	12971.66
632.236	13029.01
632.43	12834.45
632.624	13026.96
632.818	12762.77
633.012	12910.22
633.206	12666.52
633.4	12799.63
633.594	12523.16
633.788	12568.21
633.982	12234.39
634.176	12420.76
634.369	12033.69
634.563	12084.89
634.757	12113.56
634.951	11904.67
635.145	11990.69
635.339	11910.82
635.533	11755.17
635.726	11824.8
635.92	11839.14
636.114	11634.34
636.308	11644.58
636.501	11710.11
636.695	11460.26
636.889	11445.93
637.083	11310.76
637.276	11411.11
637.47	11441.83
637.664	11060.91
637.857	11290.28
638.051	10964.65
638.244	10921.65
638.438	10890.93
638.632	10956.46
638.825	10919.6
639.019	10933.93
639.212	10733.23
639.406	10737.33
639.599	10669.75
639.793	10364.6
639.986	10475.19
640.18	10706.61
640.373	10405.56
640.567	10239.67
640.76	10528.44
640.954	10282.68
641.147	10256.06
641.34	10282.68
641.534	10165.95
641.727	10190.52
641.92	10063.55
642.114	9871.04
642.307	9944.77
642.5	9930.43
642.694	9672.39
642.887	9549.51
643.08	9584.32
643.273	9846.46
643.467	9660.1
643.66	9463.49
643.853	9531.08
644.046	9313.99
644.239	9244.36
644.432	9309.9
644.626	9322.18
644.819	9240.26
645.012	9131.72
645.205	9277.13
645.398	9129.67
645.591	9021.13
645.784	9082.57
645.977	8961.74
646.17	8808.14
646.363	8693.46
646.556	8505.04
646.749	8703.7
646.942	8994.51
647.135	8806.09
647.328	8677.07
647.521	8523.48
647.714	8593.11
647.907	8597.2
648.099	8439.51
648.292	8443.6
648.485	8470.23
648.678	8216.28
648.871	8183.51
649.064	8218.33
649.256	8316.63
649.449	8320.73
649.642	7952.09
649.835	8136.41
650.027	7868.13
650.22	8136.41
650.413	7982.81
650.605	7769.82
650.798	7765.73
650.991	7692
651.183	7653.09
651.376	7749.34
651.568	7784.16
651.761	7722.72
651.954	7716.58
652.146	7491.3
652.339	7577.31
652.531	7372.52
652.724	7536.35
652.916	7360.23
653.109	7276.26
653.301	7405.28
653.494	7331.56
653.686	7079.66
653.879	7401.19
654.071	7227.11
654.263	7122.66
654.456	6995.69
654.648	7257.83
654.84	7100.14
655.033	7270.12
655.225	6891.24
655.417	6956.78
655.61	6807.28
655.802	7024.36
655.994	6700.78
656.186	6756.08
656.379	6772.46
656.571	6768.37
656.763	6835.95
656.955	6704.88
657.148	6727.41
657.34	6723.31
657.532	6506.23
657.724	6594.29
657.916	6405.88
658.108	6465.27
658.3	6225.65
658.492	6455.03
658.684	6356.72
658.876	6244.09
659.068	6199.03
659.26	6188.79
659.452	6127.35
659.644	6178.55
659.836	6096.63
660.028	6121.21
660.22	5930.75
660.412	5936.89
660.604	5971.71
660.796	6063.86
660.988	5916.41
661.18	5871.36
661.372	5881.6
661.563	5836.54
661.755	5852.92
661.947	5838.59
662.139	5705.47
662.331	5779.2
662.522	5760.77
662.714	5553.92
662.906	5605.12
663.097	5568.26
663.289	5654.27
663.481	5568.26
663.673	5517.06
663.864	5418.75
664.056	5424.9
664.247	5385.99
664.439	5404.42
664.631	5523.2
664.822	5345.03
665.014	5222.15
665.205	5302.02
665.397	5246.73
665.588	5189.38
665.78	5072.65
665.971	5152.52
666.163	5447.43
666.354	5295.88
666.546	5160.71
666.737	5099.27
666.929	5033.74
667.12	5115.66
667.311	5013.26
667.503	4964.11
667.694	4992.78
667.885	4859.66
668.077	4957.96
668.268	4845.32
668.459	4818.7
668.651	4718.35
668.842	4771.6
669.033	4736.78
669.224	4738.83
669.416	4687.63
669.607	4820.75
669.798	4605.71
669.989	4685.58
670.18	4765.45
670.371	4458.26
670.563	4456.21
670.754	4577.04
670.945	4517.65
671.136	4396.82
671.327	4560.66
671.518	4568.85
671.709	4386.58
671.9	4464.4
672.091	4325.14
672.282	4368.15
672.473	4605.71
672.664	4333.33
672.855	4306.71
673.046	4282.13
673.237	4292.37
673.428	4284.18
673.619	4323.09
673.809	4142.87
674	4144.92
674.191	4103.96
674.382	4185.88
674.573	4243.22
674.764	4259.6
674.954	4218.64
675.145	3972.89
675.336	4065.05
675.527	4153.11
675.717	3921.69
675.908	4022.04
676.099	4095.77
676.289	3940.12
676.48	4085.53
676.671	3850.01
676.861	3999.51
677.052	3878.68
677.243	4003.61
677.433	3882.78
677.624	4001.56
677.814	3768.09
678.005	3835.67
678.195	3845.91
678.386	3704.6
678.576	3917.59
678.767	3761.95
678.957	3764
679.148	3727.13
679.338	3741.47
679.529	3686.17
679.719	3772.19
679.909	3712.8
680.1	3692.32
680.29	3505.95
680.481	3608.35
680.671	3583.77
680.861	3589.92
681.052	3585.82
681.242	3680.03
681.432	3555.1
681.622	3397.41
681.813	3524.38
682.003	3434.27
682.193	3333.92
682.383	3557.15
682.573	3575.58
682.764	3467.04
682.954	3399.46
683.144	3426.08
683.334	3385.12
683.524	3301.15
683.714	3485.47
683.904	3440.42
684.094	3417.89
684.284	3331.87
684.474	3262.24
684.664	3448.61
684.854	3321.63
685.044	3299.11
685.234	3280.68
685.424	3297.06
685.614	3215.14
685.804	3327.78
685.994	3274.53
686.184	3278.63
686.374	3190.56
686.564	3198.76
686.753	3270.44
686.943	3155.75
687.133	3174.18
687.323	3168.04
687.513	3307.3
687.702	3141.41
687.892	3051.3
688.082	2987.82
688.272	3049.25
688.461	3000.1
688.651	3122.98
688.841	3063.59
689.03	3172.13
689.22	3022.63
689.41	2981.67
689.599	3026.73
689.789	2969.38
689.979	2887.47
690.168	3036.97
690.358	3043.11
690.547	2885.42
690.737	2871.08
690.926	2948.9
691.116	2907.94
691.305	2998.06
691.495	3000.1
691.684	2815.79
691.874	2780.97
692.063	2883.37
692.252	2758.44
692.442	2721.58
692.631	2807.59
692.82	2699.05
693.01	2770.73
693.199	2737.96
693.388	2735.92
693.578	2772.78
693.767	2746.16
693.956	2635.57
694.146	2787.11
694.335	2768.68
694.524	2719.53
694.713	2711.34
694.902	2572.08
695.092	2674.48
695.281	2668.33
695.47	2795.31
695.659	2645.8
695.848	2547.5
696.037	2717.48
696.226	2733.87
696.415	2574.13
696.604	2621.23
696.793	2598.7
696.982	2639.66
697.171	2608.94
697.36	2520.88
697.549	2604.85
697.738	2559.79
697.927	2520.88
698.116	2654
698.305	2436.91
698.494	2402.1
698.683	2596.65
698.872	2588.46
699.061	2479.92
699.25	2469.68
699.438	2445.1
699.627	2543.41
699.816	2551.6
700.005	2508.59
700.193	2512.69
700.382	2610.99
700.571	2527.02
700.76	2461.49
700.948	2557.74
701.137	2324.27
701.326	2434.86
701.514	2420.53
701.703	2555.69
701.892	2463.54
702.08	2596.65
702.269	2500.4
702.457	2555.69
702.646	2451.25
702.834	2391.86
703.023	2471.73
703.212	2516.78
703.4	2385.71
703.589	2479.92
703.777	2465.58
703.965	2469.68
704.154	2443.06
704.342	2451.25
704.531	2465.58
704.719	2361.14
704.907	2428.72
705.096	2430.77
705.284	2461.49
705.472	2451.25
705.661	2432.82
705.849	2559.79
706.037	2426.67
706.226	2477.87
706.414	2541.36
706.602	2455.34
706.79	2555.69
706.979	2420.53
707.167	2518.83
707.355	2361.14
707.543	2357.04
707.731	2561.84
707.919	2492.21
708.107	2428.72
708.296	2408.24
708.484	2334.51
708.672	2402.1
708.86	2465.58
709.048	2434.86
709.236	2311.99
709.424	2326.32
709.612	2342.71
709.8	2416.43
709.988	2459.44
710.176	2453.3
710.364	2438.96
710.551	2320.18
710.739	2316.08
710.927	2352.95
711.115	2328.37
711.303	2363.19
711.491	2352.95
711.679	2346.8
711.866	2354.99
712.054	2338.61
712.242	2400.05
712.43	2373.43
712.617	2264.88
712.805	2352.95
712.993	2328.37
713.181	2361.14
713.368	2318.13
713.556	2459.44
713.744	2330.42
713.931	2326.32
714.119	2555.69
714.306	2354.99
714.494	2316.08
714.682	2416.43
714.869	2342.71
715.057	2373.43
715.244	2318.13
715.432	2395.95
715.619	2336.56
715.807	2381.62
715.994	2318.13
716.182	2207.54
716.369	2207.54
716.556	2348.85
716.744	2371.38
716.931	2375.47
717.119	2338.61
717.306	2289.46
717.493	2350.9
717.681	2277.17
717.868	2264.88
718.055	2359.09
718.242	2180.92
718.43	2285.36
718.617	2381.62
718.804	2295.6
718.991	2262.83
719.179	2244.4
719.366	2238.26
719.553	2279.22
719.74	2217.78
719.927	2254.64
720.114	2318.13
720.301	2219.83
720.488	2142
720.676	2322.23
720.863	2322.23
721.05	2287.41
721.237	2254.64
721.424	2336.56
721.611	2156.34
721.798	2119.48
721.985	2268.98
722.172	2307.89
722.358	2230.07
722.545	2160.44
722.732	2252.59
722.919	2320.18
723.106	2195.25
723.293	2223.92
723.48	2223.92
723.667	2248.5
723.853	2170.68
724.04	2314.03
724.227	2279.22
724.414	2223.92
724.6	2307.89
724.787	2254.64
724.974	2311.99
725.161	2254.64
725.347	2174.77
725.534	2185.01
725.72	2193.2
725.907	2209.59
726.094	2223.92
726.28	2129.72
726.467	2144.05
726.653	2051.89
726.84	2250.55
727.027	2203.44
727.213	2170.68
727.4	2248.5
727.586	2209.59
727.773	2242.36
727.959	2131.76
728.145	2240.31
728.332	2111.29
728.518	2236.21
728.705	2301.75
728.891	2160.44
729.077	2142
729.264	2064.18
729.45	2154.29
729.636	2205.49
729.823	2117.43
730.009	2215.73
730.195	2099
730.382	2215.73
730.568	2064.18
730.754	2182.96
730.94	2127.67
731.126	2178.87
731.313	2281.27
731.499	2103.09
731.685	2195.25
731.871	2017.08
732.057	2228.02
732.243	2176.82
732.429	2250.55
732.615	2080.57
732.801	2053.94
732.987	2080.57
733.173	2058.04
733.359	2047.8
733.545	2117.43
733.731	2172.72
733.917	2230.07
734.103	2092.85
734.289	2096.95
734.475	1994.55
734.661	2086.71
734.847	2068.28
735.033	1961.78
735.219	1992.5
735.404	2146.1
735.59	2064.18
735.776	2064.18
735.962	2076.47
736.148	2021.17
736.333	2084.66
736.519	2021.17
736.705	2137.91
736.89	2172.72
737.076	2006.84
737.262	1951.54
737.447	2006.84
737.633	1955.64
737.819	1998.65
738.004	2072.37
738.19	2025.27
738.375	1865.53
738.561	2019.13
738.747	2010.93
738.932	1896.25
739.118	2023.22
739.303	2113.33
739.489	1881.91
739.674	1877.82
739.859	1910.58
740.045	1871.67
740.23	2029.37
740.416	1857.34
740.601	1902.39
740.786	1922.87
740.972	1877.82
741.157	1902.39
741.342	1843
741.528	1892.15
741.713	1824.57
741.898	1902.39
742.084	1888.06
742.269	1910.58
742.454	1810.23
742.639	1935.16
742.824	1941.3
743.01	2010.93
743.195	1851.19
743.38	1865.53
743.565	1832.76
743.75	1789.75
743.935	1845.05
744.12	1767.23
744.305	1777.47
744.49	1736.51
744.675	1883.96
744.86	1791.8
745.045	1812.28
745.23	1785.66
745.415	1632.06
745.6	1769.27
745.785	1707.84
745.97	1689.4
746.155	1681.21
746.34	1683.26
746.525	1718.08
746.71	1652.54
746.895	1703.74
747.079	1697.6
747.264	1802.04
747.449	1627.96
747.634	1597.24
747.819	1636.16
748.003	1670.97
748.188	1576.77
748.373	1662.78
748.557	1556.29
748.742	1527.61
748.927	1605.44
749.111	1525.57
749.296	1505.09
749.481	1500.99
749.665	1656.64
749.85	1417.02
750.034	1457.98
750.219	1507.13
750.404	1425.22
750.588	1548.09
750.773	1484.61
750.957	1470.27
751.141	1468.22
751.326	1525.57
751.51	1425.22
751.695	1474.37
751.879	1384.26
752.064	1394.5
752.248	1417.02
752.432	1449.79
752.617	1419.07
752.801	1353.54
752.985	1378.11
753.17	1490.75
753.354	1361.73
753.538	1277.76
753.722	1357.63
753.907	1249.09
754.091	1238.85
754.275	1189.7
754.459	1304.39
754.643	1277.76
754.828	1218.37
755.012	1218.37
755.196	1171.27
755.38	1257.28
755.564	1271.62
755.748	1310.53
755.932	1222.47
756.116	1261.38
756.3	1144.64
756.484	1238.85
756.668	1187.65
756.852	1072.96
757.036	1222.47
757.22	1156.93
757.404	1158.98
757.588	1222.47
757.772	1191.75
757.956	1152.84
758.14	1179.46
758.323	1130.31
758.507	1124.16
758.691	1081.16
758.875	1093.44
759.059	1138.5
759.242	1115.97
759.426	1046.34
759.61	1099.59
759.794	954.18
759.977	1034.05
760.161	1132.36
760.345	1056.58
760.528	1034.05
760.712	1130.31
760.895	1066.82
761.079	1142.6
761.263	1001.29
761.446	1015.62
761.63	982.85
761.813	1001.29
761.997	1003.33
762.18	960.33
762.364	982.85
762.547	986.95
762.731	925.51
762.914	933.7
763.098	993.09
763.281	956.23
763.464	888.65
763.648	966.47
763.831	943.94
764.015	991.05
764.198	948.04
764.381	909.13
764.564	845.64
764.748	1009.48
764.931	966.47
765.114	872.26
765.297	984.9
765.481	986.95
765.664	933.7
765.847	929.61
766.03	919.37
766.213	962.37
766.397	786.25
766.58	923.46
766.763	933.7
766.946	845.64
767.129	935.75
767.312	862.02
767.495	884.55
767.678	864.07
767.861	888.65
768.044	888.65
768.227	939.85
768.41	864.07
768.593	876.36
768.776	927.56
768.959	909.13
769.142	845.64
769.324	835.4
769.507	855.88
769.69	857.93
769.873	857.93
770.056	925.51
770.239	833.35
770.421	892.74
770.604	769.87
770.787	823.11
770.97	804.68
771.152	821.06
771.335	859.98
771.518	823.11
771.7	835.4
771.883	829.26
772.066	751.43
772.248	800.59
772.431	839.5
772.613	802.63
772.796	800.59
772.978	862.02
773.161	814.92
773.343	753.48
773.526	761.67
773.708	788.3
773.891	683.85
774.073	794.44
774.256	739.15
774.438	761.67
774.621	687.95
774.803	763.72
774.985	786.25
775.168	673.61
775.35	646.99
775.532	696.14
775.715	716.62
775.897	665.42
776.079	689.99
776.261	767.82
776.444	689.99
776.626	728.91
776.808	694.09
776.99	649.04
777.173	712.52
777.355	646.99
777.537	589.64
777.719	739.15
777.901	681.8
778.083	589.64
778.265	628.56
778.447	696.14
778.629	573.26
778.811	630.6
778.993	694.09
779.175	620.36
779.357	606.03
779.539	606.03
779.721	591.69
779.903	614.22
780.085	601.93
780.267	606.03
780.449	616.27
780.631	567.12
780.812	589.64
780.994	655.18
781.176	601.93
781.358	591.69
781.54	548.68
781.721	540.49
781.903	505.68
782.085	591.69
782.267	511.82
782.448	481.1
782.63	503.63
782.812	517.97
782.993	560.97
783.175	560.97
783.357	460.62
783.538	534.35
783.72	485.2
783.901	454.48
784.083	507.73
784.264	536.4
784.446	407.38
784.627	477.01
784.809	487.25
784.99	468.81
785.172	454.48
785.353	431.95
785.535	481.1
785.716	481.1
785.897	431.95
786.079	458.57
786.26	436.05
786.441	436.05
786.623	450.38
786.804	421.71
786.985	413.52
787.167	397.14
787.348	438.09
787.529	466.77
787.71	376.66
787.891	454.48
788.073	304.98
788.254	368.46
788.435	401.23
788.616	370.51
788.797	366.42
788.978	415.57
789.159	466.77
789.34	382.8
789.522	417.61
789.703	452.43
789.884	409.42
790.065	368.46
790.246	411.47
790.427	436.05
790.607	372.56
790.788	329.55
790.969	425.81
791.15	311.12
791.331	329.55
791.512	374.61
791.693	354.13
791.874	315.22
792.054	425.81
792.235	315.22
792.416	284.5
792.597	253.78
792.778	337.74
792.958	364.37
793.139	339.79
793.32	362.32
793.5	329.55
793.681	386.9
793.862	272.21
794.042	341.84
794.223	294.74
794.404	333.65
794.584	255.83
794.765	298.83
794.945	350.03
795.126	356.18
795.306	368.46
795.487	364.37
795.667	280.4
795.848	298.83
796.028	333.65
796.209	292.69
796.389	343.89
796.57	266.07
796.75	288.59
796.93	321.36
797.111	266.07
797.291	278.35
797.471	288.59
797.652	253.78
797.832	212.82
798.012	274.26
798.192	225.11
798.373	272.21
798.553	229.2
798.733	315.22
798.913	257.87
799.093	180.05
799.274	233.3
799.454	331.6
799.634	292.69
799.814	231.25
799.994	190.29
800.174	278.35
800.354	249.68
800.534	243.54
800.714	251.73
800.894	198.48
801.074	235.35
801.254	167.76
801.434	300.88
801.614	251.73
801.794	212.82
801.974	720.71
802.154	223.06
802.334	167.76
802.514	223.06
802.693	180.05
802.873	188.24
803.053	206.67
803.233	243.54
803.413	257.87
803.592	216.91
803.772	253.78
803.952	251.73
804.131	198.48
804.311	200.53
804.491	268.11
804.67	212.82
804.85	157.52
805.03	196.43
805.209	216.91
805.389	169.81
805.568	114.52
805.748	188.24
805.928	245.59
806.107	235.35
806.287	212.82
806.466	180.05
806.646	112.47
806.825	255.83
807.004	255.83
807.184	212.82
807.363	294.74
807.543	190.29
807.722	116.56
807.901	276.31
808.081	135
808.26	130.9
808.439	182.1
808.619	153.43
808.798	214.87
808.977	178
809.156	223.06
809.336	196.43
809.515	116.56
809.694	135
809.873	225.11
810.052	157.52
810.231	159.57
810.411	180.05
810.59	147.28
810.769	130.9
810.948	139.09
811.127	137.04
811.306	77.65
811.485	143.19
811.664	214.87
811.843	165.71
812.022	196.43
812.201	157.52
812.38	182.1
812.559	173.91
812.737	155.47
812.916	108.37
813.095	137.04
813.274	147.28
813.453	180.05
813.632	190.29
813.811	186.19
813.989	87.89
814.168	98.13
814.347	96.08
814.526	163.67
814.704	221.01
814.883	171.86
815.062	130.9
815.24	196.43
815.419	75.6
815.598	124.76
815.776	143.19
815.955	163.67
816.133	186.19
816.312	153.43
816.49	130.9
816.669	141.14
816.847	122.71
817.026	114.52
817.204	147.28
817.383	167.76
817.561	157.52
817.74	214.87
817.918	118.61
818.097	65.36
818.275	145.24
818.453	149.33
818.632	139.09
818.81	149.33
818.988	130.9
819.167	157.52
819.345	114.52
819.523	159.57
819.701	53.08
819.879	171.86
820.058	118.61
820.236	171.86
820.414	106.32
820.592	118.61
820.77	157.52
820.948	102.23
821.127	98.13
821.305	143.19
821.483	81.75
821.661	73.56
821.839	188.24
822.017	122.71
822.195	89.94
822.373	94.04
822.551	147.28
822.729	120.66
822.907	83.8
823.085	96.08
823.262	79.7
823.44	159.57
823.618	81.75
823.796	53.08
823.974	106.32
824.152	114.52
824.329	73.56
824.507	67.41
824.685	143.19
824.863	69.46
825.04	157.52
825.218	77.65
825.396	100.18
825.574	81.75
825.751	178
825.929	81.75
826.107	22.36
826.284	163.67
826.462	116.56
826.639	145.24
826.817	98.13
826.994	116.56
827.172	89.94
827.349	110.42
827.527	110.42
827.704	122.71
827.882	149.33
828.059	98.13
828.237	126.8
828.414	212.82
828.591	30.55
828.769	51.03
828.946	87.89
829.124	65.36
829.301	96.08
829.478	122.71
829.655	-55.47
829.833	118.61
830.01	91.99
830.187	42.84
830.364	48.98
830.542	55.12
830.719	110.42
830.896	85.84
831.073	91.99
831.25	-14.51
831.427	42.84
831.604	57.17
831.782	106.32
831.959	73.56
832.136	75.6
832.313	124.76
832.49	20.31
832.667	16.21
832.844	94.04
833.021	65.36
833.198	40.79
833.374	22.36
833.551	124.76
833.728	112.47
833.905	143.19
834.082	124.76
834.259	96.08
834.436	98.13
834.612	122.71
834.789	77.65
834.966	14.17
835.143	96.08
835.319	69.46
835.496	77.65
835.673	120.66
835.85	59.22
836.026	34.64
836.203	83.8
836.38	75.6
836.556	110.42
836.733	26.45
836.909	94.04
837.086	-14.51
837.262	81.75
837.439	73.56
837.616	44.88
837.792	14.17
837.968	46.93
838.145	65.36
838.321	81.75
838.498	71.51
838.674	73.56
838.851	36.69
839.027	79.7
839.203	30.55
839.38	116.56
839.556	85.84
839.732	124.76
839.909	44.88
840.085	81.75
840.261	-18.6
840.437	53.08
840.614	67.41
840.79	94.04
840.966	48.98
841.142	102.23
841.318	-24.75
841.494	65.36
841.671	42.84
841.847	75.6
842.023	28.5
842.199	71.51
842.375	79.7
842.551	28.5
842.727	-4.27
842.903	-0.17
843.079	36.69
843.255	57.17
843.431	106.32
843.607	34.64
843.783	-26.79
843.959	61.27
844.134	-39.08
844.31	73.56
844.486	-4.27
844.662	135
844.838	3.93
845.013	-0.17
845.189	32.6
845.365	55.12
845.541	-26.79
845.716	65.36
845.892	51.03
846.068	61.27
846.244	38.74
846.419	124.76
846.595	-2.22
846.77	63.32
846.946	100.18
847.122	48.98
847.297	-2.22
847.473	85.84
847.648	10.07
847.824	8.02
847.999	1.88
848.175	-57.51
848.35	55.12
848.526	102.23
848.701	116.56
848.876	108.37
849.052	-18.6
849.227	32.6
849.403	40.79
849.578	8.02
849.753	30.55
849.929	22.36
850.104	22.36
850.279	-32.94
850.454	96.08
850.63	85.84
850.805	53.08
850.98	30.55
851.155	69.46
851.33	106.32
851.505	-0.17
851.681	77.65
851.856	16.21
852.031	71.51
852.206	73.56
852.381	96.08
852.556	104.28
852.731	32.6
852.906	59.22
853.081	46.93
853.256	22.36
853.431	18.26
853.606	48.98
853.781	91.99
853.956	28.5
854.131	24.4
854.305	65.36
854.48	34.64
854.655	-0.17
854.83	53.08
855.005	73.56
855.18	28.5
855.354	79.7
855.529	20.31
855.704	40.79
855.879	69.46
856.053	67.41
856.228	12.12
856.403	81.75
856.577	65.36
856.752	53.08
856.926	34.64
857.101	73.56
857.276	16.21
857.45	24.4
857.625	42.84
857.799	32.6
857.974	85.84
858.148	-10.41
858.323	1.88
858.497	36.69
858.672	-67.75
858.846	-32.94
859.02	79.7
859.195	26.45
859.369	30.55
859.543	18.26
859.718	3.93
859.892	3.93
860.066	8.02
860.241	65.36
860.415	-65.71
860.589	22.36
860.763	40.79
860.938	30.55
861.112	57.17
861.286	14.17
861.46	20.31
861.634	20.31
861.808	46.93
861.982	48.98
862.157	57.17
862.331	132.95
862.505	42.84
862.679	38.74
862.853	53.08
863.027	10.07
863.201	77.65
863.375	-34.99
863.549	-0.17
863.722	-6.31
863.896	28.5
864.07	-2.22
864.244	55.12
864.418	30.55
864.592	8.02
864.766	-32.94
864.939	34.64
865.113	106.32
865.287	75.6
865.461	-100.52
865.634	30.55
865.808	24.4
865.982	36.69
866.156	24.4
866.329	-16.55
866.503	5.97
866.676	61.27
866.85	44.88
867.024	-22.7
867.197	42.84
867.371	73.56
867.544	-16.55
867.718	28.5
867.891	1.88
868.065	-0.17
868.238	-47.27
868.412	51.03
868.585	34.64
868.759	-8.36
868.932	-18.6
869.105	-4.27
869.279	57.17
869.452	-8.36
869.625	18.26
869.799	65.36
869.972	-37.03
870.145	24.4
870.319	5.97
870.492	40.79
870.665	18.26
870.838	-28.84
871.011	-24.75
871.185	-2.22
871.358	-16.55
871.531	46.93
871.704	85.84
871.877	22.36
872.05	-18.6
872.223	26.45
872.396	-0.17
872.569	3.93
872.742	-37.03
872.915	42.84
873.088	10.07
873.261	-47.27
873.434	71.51
873.607	-47.27
873.78	22.36
873.953	-22.7
874.126	48.98
874.299	59.22
874.471	-0.17
874.644	12.12
874.817	-4.27
874.99	-4.27
875.163	32.6
875.335	67.41
875.508	12.12
875.681	-24.75
875.853	20.31
876.026	69.46
876.199	36.69
876.371	69.46
876.544	14.17
876.717	36.69
876.889	12.12
877.062	22.36
877.234	-39.08
877.407	-49.32
877.579	8.02
877.752	30.55
877.924	16.21
878.097	94.04
878.269	69.46
878.442	34.64
878.614	24.4
878.786	-12.46
878.959	-4.27
879.131	42.84
879.303	1.88
879.476	-34.99
879.648	8.02
879.82	51.03
879.993	12.12
880.165	63.32
880.337	22.36
880.509	20.31
880.681	-14.51
880.854	-37.03
881.026	-24.75
881.198	34.64
881.37	-4.27
881.542	-47.27
881.714	-37.03
881.886	-20.65
882.058	-10.41
882.23	16.21
882.402	67.41
882.574	-49.32
882.746	-32.94
882.918	16.21
883.09	16.21
883.262	22.36
883.434	34.64
883.606	-57.51
883.778	-0.17
883.95	57.17
884.122	-8.36
884.293	-30.89
884.465	89.94
884.637	18.26
884.809	-2.22
884.98	40.79
885.152	5.97
885.324	-39.08
885.496	3.93
885.667	-57.51
885.839	65.36
886.011	57.17
886.182	48.98
886.354	34.64
886.525	32.6
886.697	24.4
886.869	5.97
887.04	40.79
887.212	63.32
887.383	-4.27
887.555	8.02
887.726	3.93
887.897	10.07
888.069	102.23
888.24	34.64
888.412	10.07
888.583	-53.42
888.754	51.03
888.926	-88.23
889.097	38.74
889.268	-8.36
889.44	40.79
889.611	44.88
889.782	32.6
889.953	-26.79
890.125	-0.17
890.296	-61.61
890.467	-59.56
890.638	8.02
890.809	51.03
890.98	36.69
891.151	63.32
891.323	32.6
891.494	-34.99
891.665	36.69
891.836	16.21
892.007	-16.55
892.178	20.31
892.349	18.26
892.52	-16.55
892.691	-63.66
892.862	28.5
893.032	44.88
893.203	5.97
893.374	-65.71
893.545	1.88
893.716	48.98
893.887	85.84
894.057	18.26
894.228	-0.17
894.399	26.45
894.57	110.42
894.74	10.07
894.911	16.21
895.082	20.31
895.253	34.64
895.423	-0.17
895.594	32.6
895.764	-18.6
895.935	-22.7
896.106	-26.79
896.276	42.84
896.447	51.03
896.617	-26.79
896.788	42.84
896.958	-32.94
897.129	-22.7
897.299	36.69
897.47	81.75
897.64	-53.42
897.81	-0.17
897.981	24.4
898.151	20.31
898.322	-55.47
898.492	38.74
898.662	-69.8
898.832	-10.41
899.003	24.4
899.173	26.45
899.343	-8.36
899.513	-22.7
