Data from USB4F104151__96__13-14-05-763.txt Node

Date: Fri Mar 14 13:14:05 EDT 2025
User: louis
Spectrometer: USB4F10415
Trigger mode: 4
Integration Time (sec): 2.000000E-2
Scans to average: 1
Electric dark correction enabled: true
Nonlinearity correction enabled: false
Boxcar width: 0
XAxis mode: Wavelengths
Number of Pixels in Spectrum: 3648
>>>>>Begin Spectral Data<<<<<
178.204	-101.2
178.424	-101.2
178.644	-101.2
178.864	-70.48
179.084	-105.3
179.304	38.06
179.524	-23.38
179.744	38.06
179.964	-9.05
180.184	13.48
180.404	52.39
180.624	-4.95
180.844	13.48
181.064	-7
181.283	-64.34
181.503	-25.43
181.723	-21.33
181.943	-9.05
182.163	-4.95
182.383	-21.33
182.602	74.92
182.822	21.67
183.042	-0.85
183.262	29.87
183.482	33.96
183.701	11.43
183.921	99.5
184.141	1.19
184.361	27.82
184.58	40.11
184.8	27.82
185.02	-29.52
185.239	17.58
185.459	17.58
185.679	11.43
185.898	64.68
186.118	124.07
186.338	-17.24
186.557	81.07
186.777	-23.38
186.997	-19.29
187.216	31.91
187.436	115.88
187.655	-17.24
187.875	21.67
188.095	48.3
188.314	-19.29
188.534	109.74
188.753	19.63
188.973	46.25
189.192	79.02
189.412	76.97
189.631	3.24
189.851	29.87
190.07	56.49
190.29	11.43
190.509	-29.52
190.729	15.53
190.948	68.78
191.168	89.26
191.387	19.63
191.607	36.01
191.826	46.25
192.045	33.96
192.265	11.43
192.484	-37.72
192.704	46.25
192.923	-101.2
193.142	60.59
193.362	11.43
193.581	27.82
193.8	-4.95
194.02	52.39
194.239	5.29
194.458	27.82
194.678	64.68
194.897	11.43
195.116	-35.67
195.335	62.63
195.555	62.63
195.774	13.48
195.993	111.78
196.212	44.2
196.432	40.11
196.651	31.91
196.87	48.3
197.089	23.72
197.308	44.2
197.528	-2.9
197.747	-39.76
197.966	-13.14
198.185	13.48
198.404	101.55
198.623	50.35
198.842	40.11
199.062	38.06
199.281	-4.95
199.5	56.49
199.719	52.39
199.938	64.68
200.157	25.77
200.376	19.63
200.595	33.96
200.814	81.07
201.033	-2.9
201.252	25.77
201.471	36.01
201.69	56.49
201.909	31.91
202.128	15.53
202.347	40.11
202.566	-13.14
202.785	5.29
203.004	-27.48
203.223	46.25
203.442	85.16
203.661	-13.14
203.879	56.49
204.098	-23.38
204.317	29.87
204.536	70.83
204.755	13.48
204.974	27.82
205.193	38.06
205.411	52.39
205.63	11.43
205.849	19.63
206.068	38.06
206.287	-21.33
206.505	115.88
206.724	-29.52
206.943	-39.76
207.162	27.82
207.381	3.24
207.599	-2.9
207.818	19.63
208.037	-13.14
208.255	-43.86
208.474	31.91
208.693	25.77
208.911	-21.33
209.13	79.02
209.349	50.35
209.567	19.63
209.786	25.77
210.005	-4.95
210.223	23.72
210.442	72.87
210.661	-50
210.879	-33.62
211.098	27.82
211.316	54.44
211.535	-25.43
211.753	-4.95
211.972	79.02
212.191	27.82
212.409	50.35
212.628	31.91
212.846	-15.19
213.065	-58.2
213.283	72.87
213.502	13.48
213.72	-2.9
213.938	-4.95
214.157	23.72
214.375	15.53
214.594	21.67
214.812	48.3
215.031	38.06
215.249	-33.62
215.467	21.67
215.686	38.06
215.904	-19.29
216.122	21.67
216.341	13.48
216.559	19.63
216.778	81.07
216.996	60.59
217.214	11.43
217.432	-2.9
217.651	-2.9
217.869	-4.95
218.087	-19.29
218.306	42.15
218.524	79.02
218.742	-60.24
218.96	31.91
219.179	-31.57
219.397	36.01
219.615	25.77
219.833	36.01
220.051	-2.9
220.27	27.82
220.488	19.63
220.706	17.58
220.924	-0.85
221.142	-13.14
221.36	50.35
221.578	72.87
221.796	27.82
222.015	-9.05
222.233	31.91
222.451	7.34
222.669	-7
222.887	48.3
223.105	-9.05
223.323	13.48
223.541	-43.86
223.759	-17.24
223.977	-13.14
224.195	19.63
224.413	56.49
224.631	23.72
224.849	-52.05
225.067	91.31
225.285	29.87
225.503	91.31
225.721	-21.33
225.939	5.29
226.157	31.91
226.375	111.78
226.592	11.43
226.81	58.54
227.028	58.54
227.246	19.63
227.464	-39.76
227.682	13.48
227.9	-35.67
228.117	-19.29
228.335	7.34
228.553	44.2
228.771	17.58
228.989	27.82
229.206	40.11
229.424	5.29
229.642	13.48
229.86	1.19
230.077	60.59
230.295	-27.48
230.513	1.19
230.731	48.3
230.948	79.02
231.166	-39.76
231.384	29.87
231.601	-25.43
231.819	50.35
232.037	31.91
232.254	-11.09
232.472	95.4
232.689	-60.24
232.907	5.29
233.125	13.48
233.342	27.82
233.56	-11.09
233.777	5.29
233.995	3.24
234.213	38.06
234.43	44.2
234.648	5.29
234.865	29.87
235.083	-17.24
235.3	107.69
235.518	64.68
235.735	3.24
235.953	52.39
236.17	25.77
236.388	72.87
236.605	5.29
236.822	95.4
237.04	70.83
237.257	-17.24
237.475	-56.15
237.692	40.11
237.909	46.25
238.127	36.01
238.344	52.39
238.562	115.88
238.779	-56.15
238.996	23.72
239.214	48.3
239.431	3.24
239.648	38.06
239.865	13.48
240.083	13.48
240.3	-9.05
240.517	111.78
240.735	-11.09
240.952	-11.09
241.169	-2.9
241.386	42.15
241.603	15.53
241.821	-7
242.038	113.83
242.255	83.11
242.472	76.97
242.689	36.01
242.907	95.4
243.124	76.97
243.341	5.29
243.558	76.97
243.775	11.43
243.992	-47.96
244.209	33.96
244.426	40.11
244.643	3.24
244.86	93.35
245.078	11.43
245.295	81.07
245.512	-17.24
245.729	44.2
245.946	83.11
246.163	109.74
246.38	93.35
246.597	40.11
246.814	56.49
247.031	33.96
247.248	-19.29
247.464	-13.14
247.681	52.39
247.898	36.01
248.115	56.49
248.332	-2.9
248.549	42.15
248.766	-2.9
248.983	74.92
249.2	54.44
249.417	48.3
249.633	-0.85
249.85	27.82
250.067	40.11
250.284	15.53
250.501	33.96
250.717	7.34
250.934	-31.57
251.151	46.25
251.368	-33.62
251.585	66.73
251.801	-9.05
252.018	48.3
252.235	58.54
252.451	-29.52
252.668	-39.76
252.885	109.74
253.102	60.59
253.318	-17.24
253.535	-47.96
253.752	-33.62
253.968	-13.14
254.185	56.49
254.401	-58.2
254.618	3.24
254.835	-21.33
255.051	44.2
255.268	52.39
255.484	25.77
255.701	1.19
255.917	72.87
256.134	-11.09
256.351	42.15
256.567	-2.9
256.784	87.21
257	-23.38
257.217	52.39
257.433	17.58
257.65	62.63
257.866	70.83
258.082	-11.09
258.299	33.96
258.515	68.78
258.732	-2.9
258.948	5.29
259.165	21.67
259.381	38.06
259.597	-4.95
259.814	89.26
260.03	29.87
260.246	62.63
260.463	60.59
260.679	72.87
260.895	74.92
261.112	11.43
261.328	19.63
261.544	-2.9
261.761	29.87
261.977	15.53
262.193	-9.05
262.409	62.63
262.626	36.01
262.842	46.25
263.058	109.74
263.274	38.06
263.49	11.43
263.707	-0.85
263.923	9.39
264.139	126.12
264.355	17.58
264.571	46.25
264.787	-15.19
265.004	9.39
265.22	21.67
265.436	74.92
265.652	-11.09
265.868	60.59
266.084	7.34
266.3	33.96
266.516	44.2
266.732	36.01
266.948	-4.95
267.164	7.34
267.38	46.25
267.596	54.44
267.812	3.24
268.028	31.91
268.244	40.11
268.46	60.59
268.676	46.25
268.892	60.59
269.108	-15.19
269.324	54.44
269.54	7.34
269.756	60.59
269.972	-29.52
270.188	60.59
270.403	-29.52
270.619	-52.05
270.835	42.15
271.051	93.35
271.267	36.01
271.483	29.87
271.698	21.67
271.914	31.91
272.13	-33.62
272.346	11.43
272.562	5.29
272.777	113.83
272.993	5.29
273.209	23.72
273.425	76.97
273.64	46.25
273.856	21.67
274.072	-11.09
274.287	7.34
274.503	50.35
274.719	-2.9
274.934	76.97
275.15	-17.24
275.366	-13.14
275.581	-0.85
275.797	38.06
276.012	-47.96
276.228	-11.09
276.444	7.34
276.659	36.01
276.875	11.43
277.09	72.87
277.306	-17.24
277.521	81.07
277.737	64.68
277.952	76.97
278.168	89.26
278.383	83.11
278.599	19.63
278.814	-58.2
279.03	27.82
279.245	23.72
279.461	52.39
279.676	7.34
279.892	40.11
280.107	38.06
280.322	58.54
280.538	25.77
280.753	19.63
280.969	27.82
281.184	68.78
281.399	50.35
281.615	36.01
281.83	68.78
282.045	7.34
282.26	-4.95
282.476	27.82
282.691	15.53
282.906	42.15
283.122	33.96
283.337	36.01
283.552	38.06
283.767	-35.67
283.983	46.25
284.198	23.72
284.413	27.82
284.628	-43.86
284.843	76.97
285.058	42.15
285.274	27.82
285.489	-41.81
285.704	128.17
285.919	-13.14
286.134	-11.09
286.349	3.24
286.564	70.83
286.779	79.02
286.995	27.82
287.21	60.59
287.425	38.06
287.64	52.39
287.855	-37.72
288.07	1.19
288.285	64.68
288.5	23.72
288.715	38.06
288.93	-17.24
289.145	-19.29
289.36	25.77
289.575	48.3
289.79	29.87
290.004	-35.67
290.219	66.73
290.434	21.67
290.649	111.78
290.864	-78.68
291.079	-0.85
291.294	19.63
291.509	-13.14
291.724	5.29
291.938	-11.09
292.153	29.87
292.368	36.01
292.583	13.48
292.798	27.82
293.012	46.25
293.227	-54.1
293.442	-4.95
293.657	48.3
293.871	-13.14
294.086	-7
294.301	68.78
294.516	27.82
294.73	-43.86
294.945	-25.43
295.16	68.78
295.374	76.97
295.589	33.96
295.804	38.06
296.018	68.78
296.233	70.83
296.447	1.19
296.662	-17.24
296.877	74.92
297.091	3.24
297.306	31.91
297.52	13.48
297.735	-17.24
297.949	-25.43
298.164	-11.09
298.378	-62.29
298.593	87.21
298.807	13.48
299.022	3.24
299.236	56.49
299.451	5.29
299.665	-17.24
299.88	-9.05
300.094	-41.81
300.309	52.39
300.523	70.83
300.737	50.35
300.952	36.01
301.166	44.2
301.381	93.35
301.595	-4.95
301.809	-9.05
302.024	-82.77
302.238	29.87
302.452	-2.9
302.667	11.43
302.881	21.67
303.095	68.78
303.309	60.59
303.524	38.06
303.738	103.59
303.952	-52.05
304.166	-0.85
304.381	11.43
304.595	109.74
304.809	9.39
305.023	27.82
305.237	15.53
305.452	29.87
305.666	21.67
305.88	-7
306.094	-11.09
306.308	46.25
306.522	21.67
306.736	23.72
306.95	-27.48
307.164	46.25
307.379	31.91
307.593	70.83
307.807	29.87
308.021	-2.9
308.235	31.91
308.449	21.67
308.663	36.01
308.877	101.55
309.091	11.43
309.305	52.39
309.519	33.96
309.733	85.16
309.947	-11.09
310.161	17.58
310.374	115.88
310.588	9.39
310.802	-43.86
311.016	46.25
311.23	46.25
311.444	62.63
311.658	3.24
311.872	31.91
312.085	85.16
312.299	97.45
312.513	60.59
312.727	-9.05
312.941	3.24
313.154	36.01
313.368	-27.48
313.582	48.3
313.796	1.19
314.009	44.2
314.223	48.3
314.437	3.24
314.651	117.93
314.864	-37.72
315.078	-7
315.292	-9.05
315.505	19.63
315.719	64.68
315.933	66.73
316.146	48.3
316.36	36.01
316.573	107.69
316.787	5.29
317.001	54.44
317.214	-13.14
317.428	50.35
317.641	33.96
317.855	27.82
318.068	-25.43
318.282	11.43
318.495	72.87
318.709	56.49
318.922	9.39
319.136	91.31
319.349	68.78
319.563	52.39
319.776	54.44
319.99	36.01
320.203	23.72
320.417	21.67
320.63	-50
320.843	119.98
321.057	23.72
321.27	89.26
321.483	36.01
321.697	46.25
321.91	119.98
322.124	19.63
322.337	13.48
322.55	-52.05
322.763	48.3
322.977	11.43
323.19	-58.2
323.403	36.01
323.617	-7
323.83	40.11
324.043	13.48
324.256	48.3
324.469	83.11
324.683	93.35
324.896	70.83
325.109	17.58
325.322	15.53
325.535	3.24
325.748	36.01
325.962	23.72
326.175	87.21
326.388	76.97
326.601	31.91
326.814	87.21
327.027	11.43
327.24	58.54
327.453	-4.95
327.666	66.73
327.879	33.96
328.092	48.3
328.305	58.54
328.518	113.83
328.731	5.29
328.944	46.25
329.157	3.24
329.37	48.3
329.583	21.67
329.796	13.48
330.009	46.25
330.222	-11.09
330.435	-50
330.648	3.24
330.861	-56.15
331.073	46.25
331.286	-21.33
331.499	11.43
331.712	54.44
331.925	52.39
332.138	68.78
332.35	21.67
332.563	-37.72
332.776	29.87
332.989	5.29
333.202	13.48
333.414	50.35
333.627	27.82
333.84	19.63
334.053	85.16
334.265	27.82
334.478	68.78
334.691	9.39
334.903	122.02
335.116	38.06
335.329	109.74
335.541	-4.95
335.754	29.87
335.966	13.48
336.179	33.96
336.392	15.53
336.604	68.78
336.817	7.34
337.029	48.3
337.242	46.25
337.454	36.01
337.667	1.19
337.88	66.73
338.092	27.82
338.305	128.17
338.517	-35.67
338.729	56.49
338.942	66.73
339.154	27.82
339.367	113.83
339.579	-54.1
339.792	-29.52
340.004	48.3
340.217	48.3
340.429	-11.09
340.641	-21.33
340.854	52.39
341.066	-9.05
341.278	36.01
341.491	21.67
341.703	27.82
341.915	-17.24
342.128	27.82
342.34	48.3
342.552	44.2
342.764	81.07
342.977	38.06
343.189	27.82
343.401	48.3
343.613	-43.86
343.826	111.78
344.038	40.11
344.25	17.58
344.462	25.77
344.674	36.01
344.886	70.83
345.099	89.26
345.311	7.34
345.523	27.82
345.735	-2.9
345.947	115.88
346.159	11.43
346.371	36.01
346.583	124.07
346.795	101.55
347.007	19.63
347.219	25.77
347.431	-50
347.643	56.49
347.855	3.24
348.067	27.82
348.279	89.26
348.491	-13.14
348.703	33.96
348.915	66.73
349.127	44.2
349.339	-13.14
349.551	3.24
349.763	74.92
349.975	64.68
350.187	117.93
350.399	72.87
350.61	3.24
350.822	11.43
351.034	27.82
351.246	27.82
351.458	-4.95
351.669	72.87
351.881	74.92
352.093	93.35
352.305	79.02
352.517	-64.34
352.728	44.2
352.94	36.01
353.152	36.01
353.363	23.72
353.575	29.87
353.787	27.82
353.999	5.29
354.21	81.07
354.422	-39.76
354.633	36.01
354.845	52.39
355.057	36.01
355.268	52.39
355.48	11.43
355.692	79.02
355.903	40.11
356.115	29.87
356.326	-35.67
356.538	56.49
356.749	101.55
356.961	7.34
357.172	31.91
357.384	-19.29
357.595	46.25
357.807	19.63
358.018	58.54
358.23	87.21
358.441	5.29
358.653	-37.72
358.864	74.92
359.075	-50
359.287	-27.48
359.498	76.97
359.709	11.43
359.921	60.59
360.132	13.48
360.344	109.74
360.555	-17.24
360.766	111.78
360.977	13.48
361.189	-17.24
361.4	3.24
361.611	36.01
361.823	46.25
362.034	44.2
362.245	25.77
362.456	48.3
362.667	-25.43
362.879	-15.19
363.09	23.72
363.301	93.35
363.512	36.01
363.723	66.73
363.935	-19.29
364.146	38.06
364.357	29.87
364.568	1.19
364.779	11.43
364.99	97.45
365.201	21.67
365.412	83.11
365.623	-15.19
365.834	21.67
366.045	115.88
366.256	36.01
366.467	48.3
366.678	11.43
366.889	21.67
367.1	-60.24
367.311	19.63
367.522	-66.39
367.733	-7
367.944	38.06
368.155	-9.05
368.366	46.25
368.577	40.11
368.788	5.29
368.999	3.24
369.209	21.67
369.42	19.63
369.631	122.02
369.842	54.44
370.053	95.4
370.264	21.67
370.474	44.2
370.685	13.48
370.896	76.97
371.107	27.82
371.317	46.25
371.528	52.39
371.739	109.74
371.95	89.26
372.16	31.91
372.371	9.39
372.582	58.54
372.792	-13.14
373.003	54.44
373.214	-7
373.424	23.72
373.635	-72.53
373.846	19.63
374.056	105.64
374.267	38.06
374.477	-4.95
374.688	134.31
374.898	60.59
375.109	46.25
375.319	-4.95
375.53	33.96
375.74	87.21
375.951	89.26
376.161	-7
376.372	50.35
376.582	15.53
376.793	46.25
377.003	29.87
377.214	-11.09
377.424	1.19
377.635	38.06
377.845	66.73
378.055	25.77
378.266	21.67
378.476	-31.57
378.686	25.77
378.897	-7
379.107	11.43
379.317	74.92
379.528	68.78
379.738	64.68
379.948	-27.48
380.158	36.01
380.369	11.43
380.579	52.39
380.789	-41.81
380.999	54.44
381.21	111.78
381.42	119.98
381.63	-13.14
381.84	134.31
382.05	52.39
382.261	50.35
382.471	-37.72
382.681	40.11
382.891	122.02
383.101	27.82
383.311	40.11
383.521	-9.05
383.731	-68.44
383.941	23.72
384.151	60.59
384.361	31.91
384.571	23.72
384.781	89.26
384.991	52.39
385.201	152.74
385.411	62.63
385.621	33.96
385.831	27.82
386.041	54.44
386.251	44.2
386.461	11.43
386.671	-19.29
386.881	-9.05
387.091	-11.09
387.301	33.96
387.511	-27.48
387.72	42.15
387.93	44.2
388.14	-95.06
388.35	-13.14
388.56	29.87
388.769	132.26
388.979	33.96
389.189	15.53
389.399	56.49
389.609	-9.05
389.818	54.44
390.028	76.97
390.238	56.49
390.447	-4.95
390.657	48.3
390.867	21.67
391.076	64.68
391.286	40.11
391.496	11.43
391.705	83.11
391.915	64.68
392.125	107.69
392.334	83.11
392.544	21.67
392.753	101.55
392.963	93.35
393.172	50.35
393.382	-19.29
393.591	81.07
393.801	95.4
394.01	76.97
394.22	54.44
394.429	11.43
394.639	13.48
394.848	81.07
395.058	72.87
395.267	5.29
395.477	62.63
395.686	93.35
395.895	113.83
396.105	95.4
396.314	40.11
396.524	33.96
396.733	52.39
396.942	95.4
397.152	52.39
397.361	74.92
397.57	79.02
397.78	19.63
397.989	29.87
398.198	-15.19
398.407	74.92
398.617	36.01
398.826	74.92
399.035	5.29
399.244	72.87
399.453	81.07
399.663	99.5
399.872	126.12
400.081	13.48
400.29	-0.85
400.499	66.73
400.708	132.26
400.917	52.39
401.127	-2.9
401.336	15.53
401.545	46.25
401.754	115.88
401.963	111.78
402.172	107.69
402.381	109.74
402.59	85.16
402.799	134.31
403.008	126.12
403.217	115.88
403.426	54.44
403.635	70.83
403.844	122.02
404.053	111.78
404.262	3.24
404.471	66.73
404.68	89.26
404.888	44.2
405.097	109.74
405.306	101.55
405.515	62.63
405.724	76.97
405.933	97.45
406.142	154.79
406.35	124.07
406.559	136.36
406.768	93.35
406.977	197.8
407.185	132.26
407.394	134.31
407.603	93.35
407.812	150.7
408.02	142.5
408.229	52.39
408.438	191.66
408.646	136.36
408.855	165.03
409.064	142.5
409.272	113.83
409.481	191.66
409.69	117.93
409.898	136.36
410.107	171.18
410.315	128.17
410.524	197.8
410.733	162.98
410.941	146.6
411.15	167.08
411.358	259.24
411.567	279.72
411.775	189.61
411.984	259.24
412.192	281.77
412.401	277.67
412.609	232.62
412.818	294.05
413.026	296.1
413.234	279.72
413.443	300.2
413.651	275.62
413.86	369.83
414.068	347.3
414.276	339.11
414.485	353.45
414.693	418.98
414.901	431.27
415.11	461.99
415.318	349.35
415.526	425.12
415.734	429.22
415.943	433.32
416.151	478.37
416.359	461.99
416.567	496.8
416.776	535.71
416.984	591.01
417.192	605.35
417.4	511.14
417.608	470.18
417.817	543.91
418.025	627.87
418.233	724.13
418.441	646.3
418.649	629.92
418.857	709.79
419.065	777.37
419.273	629.92
419.481	824.48
419.689	828.57
419.897	861.34
420.105	933.02
420.313	896.16
420.521	990.36
420.729	838.81
420.937	978.08
421.145	1041.56
421.353	961.69
421.561	1082.52
421.769	1051.8
421.977	1258.65
422.185	1141.91
422.393	1168.54
422.601	1383.57
422.809	1301.65
423.017	1197.21
423.224	1365.14
423.432	1393.81
423.64	1334.42
423.848	1619.09
424.056	1496.21
424.263	1584.27
424.471	1655.95
424.679	1602.71
424.887	1756.3
425.094	1768.59
425.302	1809.55
425.51	2002.06
425.718	1864.85
425.925	1776.78
426.133	2047.12
426.341	2004.11
426.548	2241.67
426.756	2180.23
426.964	2231.43
427.171	2339.97
427.379	2444.42
427.586	2401.41
427.794	2616.45
428.001	2661.51
428.209	2768
428.417	2641.03
428.624	2907.26
428.832	2954.37
429.039	2905.21
429.247	2872.45
429.454	3079.29
429.662	3378.3
429.869	3206.27
430.076	3437.69
430.284	3357.82
430.491	3476.6
430.699	3697.78
430.906	3679.35
431.114	3740.79
431.321	3804.27
431.528	3857.52
431.736	4129.9
431.943	4297.83
432.15	4279.4
432.358	4258.92
432.565	4539.49
432.772	4433
432.979	4693.09
433.187	4689
433.394	4889.7
433.601	5127.26
433.808	5067.87
434.016	5131.36
434.223	5262.43
434.43	5606.49
434.637	5592.15
434.844	5934.16
435.052	5948.5
435.259	6040.65
435.466	6190.16
435.673	6075.47
435.88	6253.64
436.087	6790.21
436.294	6773.83
436.501	6440.01
436.708	6691.91
436.915	6818.88
437.122	7248.96
437.329	7205.95
437.537	7322.68
437.743	7621.69
437.95	7507
438.157	7664.69
438.364	8100.91
438.571	8248.36
438.778	8086.58
438.985	9006.11
439.192	8563.75
439.399	8852.52
439.606	8635.43
439.813	9301.02
440.02	9831.44
440.227	9411.61
440.433	9677.85
440.64	9731.09
440.847	9819.16
441.054	9851.92
441.261	10619.91
441.467	10345.48
441.674	10740.74
441.881	10914.82
442.088	10984.45
442.294	10867.72
442.501	11316.22
442.708	11492.35
442.914	11760.63
443.121	12407.79
443.328	12084.21
443.534	13020.13
443.741	12686.31
443.948	12344.3
444.154	13218.78
444.361	13241.31
444.568	13239.26
444.774	13409.25
444.981	13437.92
445.187	13845.46
445.394	14531.53
445.6	14490.57
445.807	15686.59
446.013	15107.01
446.22	15469.5
446.426	15977.4
446.633	16274.35
446.839	16587.69
447.046	15985.59
447.252	16804.78
447.459	16921.51
447.665	16765.87
447.871	17474.46
448.078	18439.06
448.284	17290.15
448.491	17755.04
448.697	18641.81
448.903	18967.43
449.11	19116.93
449.316	18447.25
449.522	19035.02
449.728	19508.1
449.935	19743.61
450.141	19622.78
450.347	20253.56
450.553	19790.72
450.76	19776.38
450.966	20327.28
451.172	20333.43
451.378	21099.37
451.584	20550.51
451.791	20646.77
451.997	20872.04
452.203	21132.14
452.409	21275.49
452.615	21236.58
452.821	20126.58
453.027	20659.06
453.233	21447.52
453.44	20409.2
453.646	20865.9
453.852	20753.26
454.058	21345.12
454.264	20534.13
454.47	21066.6
454.676	20505.46
454.882	21439.33
455.088	19518.34
455.294	19798.91
455.5	20239.22
455.705	20179.83
455.911	19336.07
456.117	18961.29
456.323	18828.17
456.529	18054.04
456.735	18736.01
456.941	18187.16
457.147	17785.76
457.352	17357.73
457.558	17308.58
457.764	17247.14
457.97	17066.92
458.176	16577.45
458.381	16618.41
458.587	15723.45
458.793	15649.72
458.999	15057.86
459.204	15915.96
459.41	15477.69
459.616	14578.64
459.821	14691.27
460.027	14660.55
460.233	14320.59
460.438	13450.21
460.644	13669.34
460.85	13364.19
461.055	12688.36
461.261	12811.24
461.466	11750.39
461.672	11488.25
461.878	12276.72
462.083	11342.85
462.289	11103.23
462.494	11291.65
462.7	10701.83
462.905	10085.39
463.111	10769.41
463.316	10761.22
463.522	10572.81
463.727	10470.41
463.932	10417.16
464.138	10392.59
464.343	10611.72
464.549	10161.17
464.754	10308.62
464.959	10376.2
465.165	10290.19
465.37	9858.07
465.575	9573.4
465.781	9933.84
465.986	10005.52
466.191	9575.45
466.397	9497.63
466.602	9212.96
466.807	9350.17
467.012	9530.39
467.218	9241.63
467.423	9155.61
467.628	9260.06
467.833	9823.25
468.038	9237.53
468.244	9145.38
468.449	9522.2
468.654	8875.04
468.859	9049.12
469.064	8985.63
469.269	8498.22
469.474	8750.12
469.679	8887.33
469.885	8551.46
470.09	8829.99
470.295	8737.83
470.5	8453.16
470.705	8594.47
470.91	8373.29
471.115	8404.01
471.32	8309.8
471.525	8293.42
471.73	8049.71
471.935	8240.17
472.139	7683.13
472.344	8105.01
472.549	7869.49
472.754	7812.15
472.959	7789.62
473.164	7738.42
473.369	7525.43
473.574	7552.06
473.778	7441.47
473.983	7576.63
474.188	7337.02
474.393	7236.67
474.598	7298.11
474.802	7054.4
475.007	7048.26
475.212	7115.84
475.417	6794.31
475.621	6902.85
475.826	6900.8
476.031	6726.72
476.235	6728.77
476.44	6556.74
476.645	6597.7
476.849	6708.29
477.054	6380.62
477.259	6417.48
477.463	6353.99
477.668	6245.45
477.872	6263.88
478.077	6233.16
478.282	6110.29
478.486	5885.01
478.691	6040.65
478.895	6110.29
479.1	5897.3
479.304	6024.27
479.509	5583.96
479.713	5948.5
479.918	5729.36
480.122	5506.13
480.326	5682.26
480.531	5819.47
480.735	5547.09
480.94	5571.67
481.144	5753.94
481.348	5297.24
481.553	5608.53
481.757	5559.38
481.961	5559.38
482.166	5571.67
482.37	5596.25
482.574	5389.4
482.778	5577.81
482.983	5493.85
483.187	5352.54
483.391	5379.16
483.595	5551.19
483.8	5489.75
484.004	5418.07
484.208	5442.65
484.412	5475.42
484.616	5567.57
484.821	5557.33
485.025	5356.63
485.229	5514.33
485.433	5375.06
485.637	5524.57
485.841	5401.69
486.045	5532.76
486.249	5491.8
486.453	5438.55
486.657	5401.69
486.861	5518.42
487.065	5356.63
487.269	5508.18
487.473	5403.74
487.677	5506.13
487.881	5565.53
488.085	5497.94
488.289	5295.19
488.493	5526.61
488.697	5364.82
488.901	5532.76
489.105	5477.46
489.309	5645.4
489.512	5532.76
489.716	5461.08
489.92	5493.85
490.124	5563.48
490.328	5696.6
490.531	5540.95
490.735	5819.47
490.939	5424.22
491.143	5690.45
491.346	5721.17
491.55	5518.42
491.754	5774.42
491.958	5768.27
492.161	5647.44
492.365	5839.95
492.569	5770.32
492.772	5878.86
492.976	5708.88
493.18	5862.48
493.383	5930.06
493.587	5786.71
493.79	6011.98
493.994	5723.22
494.197	5911.63
494.401	6032.46
494.605	6011.98
494.808	6085.71
495.012	6206.54
495.215	6229.07
495.419	6143.05
495.622	6216.78
495.825	6317.13
496.029	6227.02
496.232	6507.59
496.436	6376.52
496.639	6450.25
496.843	6534.21
497.046	6526.02
497.249	6755.4
497.453	6964.29
497.656	6843.46
497.859	6837.31
498.063	6988.86
498.266	6884.42
498.469	7066.69
498.673	7109.69
498.876	7158.85
499.079	7294.01
499.282	7255.1
499.485	7576.63
499.689	7310.4
499.892	7603.25
500.095	7437.37
500.298	7836.72
500.501	7664.69
500.705	7922.74
500.908	8094.77
501.111	8129.58
501.314	8188.97
501.517	8283.18
501.72	8264.75
501.923	8420.39
502.126	8473.64
502.329	8635.43
502.532	8588.33
502.735	8866.85
502.938	8754.21
503.141	8791.08
503.344	9045.02
503.547	9124.9
503.75	9235.49
503.953	9167.9
504.156	9360.41
504.359	9370.65
504.562	9559.06
504.765	9712.66
504.968	9884.69
505.17	9825.3
505.373	10048.53
505.576	10150.93
505.779	10105.87
505.982	10462.22
506.185	10490.89
506.387	10454.03
506.59	10771.46
506.793	10654.73
506.996	10820.61
507.198	11027.46
507.401	11154.43
507.604	11262.97
507.807	11736.06
508.009	11660.28
508.212	11713.53
508.415	11729.91
508.617	11738.1
508.82	11756.54
509.022	11955.19
509.225	12209.14
509.428	12202.99
509.63	12336.11
509.833	12518.38
510.035	12882.92
510.238	12827.62
510.44	12823.53
510.643	13206.5
510.845	13454.3
511.048	12958.69
511.25	13601.76
511.453	13159.39
511.655	14019.54
511.858	13442.01
512.06	13822.94
512.262	13876.18
512.465	14142.42
512.667	14277.58
512.87	14396.37
513.072	14568.4
513.274	14896.07
513.477	14969.8
513.679	14791.62
513.881	15215.55
514.084	15215.55
514.286	15549.37
514.488	15551.42
514.69	15776.7
514.893	15823.8
515.095	15995.83
515.297	15918.01
515.499	16323.51
515.701	16374.7
515.904	16743.34
516.106	16812.97
516.308	16864.17
516.51	17116.07
516.712	16974.76
516.914	17390.5
517.116	17550.24
517.318	17609.63
517.52	17734.56
517.722	17712.03
517.925	17869.72
518.127	18162.58
518.329	18176.92
518.531	18408.34
518.733	18795.4
518.935	18787.21
519.136	18705.29
519.338	19151.75
519.54	19151.75
519.742	19178.37
519.944	19385.22
520.146	19673.98
520.348	19946.36
520.55	20106.1
520.752	20065.14
520.954	20607.86
521.155	20290.42
521.357	20669.3
521.559	20831.08
521.761	20863.85
521.963	21216.1
522.164	21146.47
522.366	21508.96
522.568	21435.24
522.77	21521.25
522.971	21877.6
523.173	21642.08
523.375	21973.85
523.576	22223.7
523.778	21814.11
523.98	22391.64
524.181	22625.11
524.383	22524.75
524.584	23018.32
524.786	23077.71
524.988	22954.83
525.189	23122.76
525.391	23419.72
525.592	23358.28
525.794	23769.92
525.995	23864.13
526.197	23505.73
526.398	23399.24
526.6	23980.86
526.801	24122.17
527.003	24040.25
527.204	24165.18
527.406	24337.21
527.607	24496.95
527.808	24632.11
528.01	24005.44
528.211	24718.13
528.412	25242.41
528.614	24744.75
528.815	24728.37
529.016	25361.19
529.218	24834.86
529.419	25594.66
529.62	25164.59
529.822	25060.14
530.023	25428.77
530.224	25371.43
530.425	25400.1
530.626	25269.03
530.828	25129.77
531.029	25942.81
531.23	25479.97
531.431	25170.73
531.632	25807.65
531.833	25729.83
532.035	25854.75
532.236	25752.35
532.437	26026.78
532.638	25762.59
532.839	25721.63
533.04	25901.86
533.241	25799.46
533.442	26422.04
533.643	25975.58
533.844	26157.85
534.045	26469.14
534.246	25973.53
534.447	26118.94
534.648	25932.57
534.849	26282.78
535.05	25924.38
535.251	26290.97
535.451	26000.16
535.652	26362.65
535.853	25981.73
536.054	26413.85
536.255	26360.6
536.456	26022.69
536.657	26319.64
536.857	25961.25
537.058	25682.72
537.259	26532.63
537.46	26178.33
537.66	26295.07
537.861	26317.59
538.062	26204.95
538.263	26260.25
538.463	25836.32
538.664	26225.43
538.865	26137.37
539.065	26174.24
539.266	26075.93
539.466	26407.7
539.667	25819.94
539.868	26467.09
540.068	26350.36
540.269	26463
540.469	26508.05
540.67	26127.13
540.87	26118.94
541.071	26315.55
541.271	26506.01
541.472	26307.35
541.672	25889.57
541.873	26092.32
542.073	25897.76
542.274	26278.68
542.474	26020.64
542.675	25830.18
542.875	26012.45
543.075	25811.74
543.276	25981.73
543.476	26258.2
543.676	25727.78
543.877	26100.51
544.077	26151.71
544.277	26028.83
544.478	26096.41
544.678	26180.38
544.878	25957.15
545.078	26131.23
545.279	25963.29
545.479	25563.94
545.679	26084.12
545.879	25985.82
546.079	25987.87
546.28	26178.33
546.48	25602.85
546.68	25971.49
546.88	26102.56
547.08	25799.46
547.28	25881.38
547.48	25606.95
547.68	25821.98
547.88	25346.86
548.081	25844.51
548.281	25645.86
548.481	25762.59
548.681	26127.13
548.881	26159.9
549.081	26147.61
549.28	25889.57
549.48	26075.93
549.68	26055.45
549.88	26309.4
550.08	25838.37
550.28	25793.31
550.48	25813.79
550.68	26184.48
550.88	25848.61
551.08	25797.41
551.279	25844.51
551.479	25516.84
551.679	25563.94
551.879	25697.06
552.079	25955.1
552.278	25908
552.478	25778.98
552.678	25799.46
552.878	25981.73
553.077	25772.83
553.277	25539.36
553.477	25848.61
553.676	25713.44
553.876	25793.31
554.076	25729.83
554.275	25723.68
554.475	25531.17
554.674	25697.06
554.874	25469.73
555.074	25449.25
555.273	25633.57
555.473	25389.86
555.672	25359.14
555.872	25367.34
556.071	25695.01
556.271	25369.38
556.47	25281.32
556.67	25049.9
556.869	25490.21
557.068	25164.59
557.268	25353
557.467	25078.57
557.667	25133.87
557.866	25115.44
558.065	25035.56
558.265	24976.17
558.464	24836.91
558.663	25375.53
558.863	24681.27
559.062	25244.46
559.261	24822.58
559.461	25201.45
559.66	24636.21
559.859	24822.58
560.058	24640.31
560.258	24855.34
560.457	24435.51
560.656	24630.07
560.855	24761.14
561.054	24683.31
561.253	24623.92
561.453	24570.68
561.652	24482.61
561.851	24519.48
562.05	24453.94
562.249	24365.88
562.448	24595.25
562.647	23688
562.846	24308.54
563.045	24320.82
563.244	23997.24
563.443	23841.6
563.642	23667.52
563.841	24173.37
564.04	23817.02
564.239	23888.7
564.438	23554.88
564.637	23806.78
564.836	23841.6
565.035	23511.88
565.234	23804.74
565.432	23728.96
565.631	23278.41
565.83	23808.83
566.029	23133
566.228	23210.82
566.427	23583.55
566.625	23182.15
566.824	22856.53
567.023	23200.58
567.222	22938.44
567.42	23141.19
567.619	22786.89
567.818	22735.7
568.016	22819.66
568.215	22924.11
568.414	22801.23
568.612	23018.32
568.811	22362.97
569.01	22811.47
569.208	22279
569.407	22405.97
569.605	22188.89
569.804	22661.97
570.002	22123.35
570.201	22436.69
570.4	22088.54
570.598	22156.12
570.797	22180.7
570.995	22231.9
571.193	21807.97
571.392	22340.44
571.59	21683.04
571.789	21717.86
571.987	21728.1
572.186	21824.35
572.384	21742.43
572.582	21597.03
572.781	21631.84
572.979	21461.86
573.177	21683.04
573.376	21312.36
573.574	21402.47
573.772	21128.04
573.971	21224.29
574.169	21171.05
574.367	20794.22
574.565	20966.25
574.763	20980.59
574.962	20831.08
575.16	20654.96
575.358	20837.23
575.556	20605.81
575.754	20931.44
575.952	20607.86
576.151	20675.44
576.349	20675.44
576.547	20382.58
576.745	20382.58
576.943	20415.35
577.141	20284.28
577.339	20380.53
577.537	20243.32
577.735	20470.64
577.933	20097.91
578.131	19950.46
578.329	20132.73
578.527	19886.97
578.725	19852.16
578.923	20095.86
579.121	19837.82
579.319	19471.23
579.516	19901.31
579.714	19766.14
579.912	19739.52
580.11	19426.18
580.308	19757.95
580.506	19553.15
580.704	19274.63
580.901	19164.04
581.099	19506.05
581.297	19184.52
581.495	19282.82
581.692	19303.3
581.89	18905.99
582.088	19213.19
582.285	18910.09
582.483	19161.99
582.681	19086.22
582.878	18908.04
583.076	18621.33
583.274	18862.99
583.471	18570.13
583.669	18721.68
583.866	18520.98
584.064	18662.29
584.262	18449.3
584.459	18815.88
584.657	18647.95
584.854	18486.16
585.052	18291.6
585.249	18447.25
585.447	18361.23
585.644	17994.65
585.841	18328.47
586.039	18391.95
586.236	17892.25
586.434	18017.18
586.631	17804.19
586.828	17984.41
587.026	17640.35
587.223	17951.64
587.42	17439.65
587.618	17677.21
587.815	17484.7
588.012	17386.4
588.21	17583.01
588.407	17660.83
588.604	17623.97
588.801	17597.34
588.999	17255.33
589.196	17351.59
589.393	17290.15
589.59	17361.83
589.787	17267.62
589.984	17109.93
590.182	17116.07
590.379	17320.87
590.576	17087.4
590.773	16933.8
590.97	16829.35
591.167	17050.53
591.364	16726.96
591.561	16710.57
591.758	16489.39
591.955	16360.37
592.152	16657.32
592.349	16563.12
592.546	16616.37
592.743	16665.52
592.94	16186.29
593.137	16556.97
593.334	16597.93
593.531	16159.67
593.727	16485.3
593.924	16368.56
594.121	16149.43
594.318	16167.86
594.515	15961.02
594.712	16196.53
594.908	16030.65
595.105	16120.76
595.302	15797.18
595.499	15913.91
595.696	15633.34
595.892	15737.79
596.089	15821.75
596.286	15741.88
596.482	15676.35
596.679	15252.42
596.876	15592.38
597.072	15510.46
597.269	15336.38
597.466	15401.92
597.662	15625.15
597.859	15399.87
598.055	15289.28
598.252	15242.18
598.448	15178.69
598.645	15127.49
598.841	15035.33
599.038	15107.01
599.234	15045.57
599.431	14973.89
599.627	14767.05
599.824	15190.98
600.02	14592.97
600.217	15039.43
600.413	14808.01
600.609	14865.35
600.806	14617.55
601.002	14756.81
601.198	14500.81
601.395	14449.61
601.591	14412.75
601.787	14623.69
601.984	14586.83
602.18	14414.8
602.376	14166.99
602.572	14279.63
602.769	14212.05
602.965	14040.02
603.161	14097.36
603.357	13984.73
603.553	14101.46
603.75	14281.68
603.946	14056.4
604.142	14253.01
604.338	13956.05
604.534	14089.17
604.73	13685.72
604.926	13820.89
605.122	13962.2
605.318	13685.72
605.514	13816.79
605.71	13634.52
605.906	13679.58
606.102	13384.67
606.298	13499.36
606.494	13439.97
606.69	13452.25
606.886	13609.95
607.082	13407.2
607.278	13210.59
607.474	13249.5
607.67	13325.28
607.866	13183.97
608.062	13183.97
608.257	13093.86
608.453	13067.24
608.649	13143.01
608.845	12915.69
609.041	12950.5
609.236	13018.08
609.432	13046.76
609.628	12977.12
609.824	13028.32
610.019	12897.25
610.215	13028.32
610.411	12757.99
610.606	12688.36
610.802	12727.27
610.998	12872.68
611.193	12882.92
611.389	12954.6
611.584	12633.07
611.78	12862.44
611.976	12622.83
612.171	12757.99
612.367	12530.67
612.562	12590.06
612.758	12516.33
612.953	12422.13
613.149	12391.41
613.344	12450.8
613.539	12381.17
613.735	12360.69
613.93	12405.74
614.126	12200.94
614.321	12475.37
614.517	12157.94
614.712	12237.81
614.907	12237.81
615.103	12221.42
615.298	12190.7
615.493	12276.72
615.688	12088.31
615.884	12381.17
616.079	11920.37
616.274	12317.68
616.47	12106.74
616.665	12209.14
616.86	12123.12
617.055	12137.46
617.25	12008.44
617.445	11996.15
617.641	11713.53
617.836	12106.74
618.031	11848.69
618.226	11850.74
618.421	11807.73
618.616	11852.79
618.811	11480.06
619.006	11910.13
619.201	11455.48
619.396	11553.79
619.591	11414.52
619.786	11662.33
619.981	11355.13
620.176	11674.62
620.371	11193.34
620.566	11174.91
620.761	11463.68
620.956	11248.64
621.151	11334.65
621.346	11029.51
621.541	10861.57
621.735	10957.83
621.93	10882.05
622.125	10816.52
622.32	10773.51
622.515	10789.89
622.709	10697.74
622.904	10695.69
623.099	10730.5
623.294	10593.29
623.488	10394.64
623.683	10609.67
623.878	10382.35
624.072	10292.24
624.267	10253.33
624.462	10316.81
624.656	10249.23
624.851	10136.59
625.046	10198.03
625.24	10249.23
625.435	10013.71
625.629	9997.33
625.824	9864.21
626.018	9845.78
626.213	9604.12
626.407	9694.23
626.602	9485.34
626.796	9702.42
626.991	9669.66
627.185	9591.83
627.38	9376.8
627.574	9583.64
627.768	9573.4
627.963	9499.67
628.157	9208.86
628.352	9448.47
628.546	8989.73
628.74	9374.75
628.935	9141.28
629.129	9004.07
629.323	9008.16
629.517	8948.77
629.712	8836.13
629.906	8829.99
630.1	8748.07
630.294	8854.56
630.489	8563.75
630.683	8698.92
630.877	8604.71
631.071	8608.81
631.265	8629.29
631.459	8455.21
631.653	8408.11
631.848	8631.33
632.042	8285.23
632.236	8191.02
632.43	8444.97
632.624	8330.28
632.818	8256.56
633.012	8062
633.206	8191.02
633.4	8141.87
633.594	8178.73
633.788	8031.28
633.982	8145.97
634.176	8029.23
634.369	8012.85
634.563	7904.31
634.757	7945.27
634.951	7844.91
635.145	7541.82
635.339	7752.76
635.533	7738.42
635.726	7707.7
635.92	7564.34
636.114	7558.2
636.308	7519.29
636.501	7629.88
636.695	7318.59
636.889	7400.51
637.083	7332.92
637.276	7169.09
637.47	7302.2
637.664	7267.39
637.857	7253.05
638.051	7214.14
638.244	6917.19
638.438	7023.68
638.632	7107.65
638.825	7042.11
639.019	7033.92
639.212	6888.51
639.406	6777.92
639.599	6814.79
639.793	6892.61
639.986	6749.25
640.18	6865.99
640.373	6784.07
640.567	6767.68
640.76	6835.27
640.954	6648.9
641.147	6530.12
641.34	6560.84
641.534	6483.02
641.727	6558.79
641.92	6378.57
642.114	6542.41
642.307	6425.67
642.5	6347.85
642.694	6294.6
642.887	6296.65
643.08	6464.58
643.273	6231.12
643.467	6335.56
643.66	6110.29
643.853	6057.04
644.046	6220.88
644.239	6257.74
644.432	5989.46
644.626	6040.65
644.819	6016.08
645.012	5842
645.205	5971.02
645.398	5979.22
645.591	5844.05
645.784	5852.24
645.977	5721.17
646.17	5870.67
646.363	5618.77
646.556	5680.21
646.749	5624.92
646.942	5715.03
647.135	5573.72
647.328	5594.2
647.521	5459.03
647.714	5397.59
647.907	5708.88
648.099	5604.44
648.292	5456.98
648.485	5434.46
648.678	5364.82
648.871	5303.39
649.064	5266.52
649.256	5366.87
649.449	5338.2
649.642	5188.7
649.835	5248.09
650.027	5188.7
650.22	5129.31
650.413	5190.75
650.605	5102.68
650.798	5315.67
650.991	5006.43
651.183	4994.14
651.376	4908.13
651.568	5069.92
651.761	4951.14
651.954	4914.27
652.146	4912.22
652.339	4891.74
652.531	4942.94
652.724	4828.26
652.916	4693.09
653.109	4785.25
653.301	4824.16
653.494	4701.28
653.686	4689
653.879	4652.13
654.071	4689
654.263	4596.84
654.456	4727.91
654.648	4478.05
654.84	4519.01
655.033	4486.25
655.225	4484.2
655.417	4553.83
655.61	4404.33
655.802	4578.4
655.994	4338.79
656.186	4529.25
656.379	4437.09
656.571	4232.3
656.763	4312.17
656.955	4490.34
657.148	4322.41
657.34	4273.26
657.532	4295.79
657.724	4254.83
657.916	4267.11
658.108	4289.64
658.3	4240.49
658.492	4162.67
658.684	4015.21
658.876	4123.76
659.068	4134
659.26	3904.62
659.452	3937.39
659.644	4029.55
659.836	3914.86
660.028	4107.37
660.22	4054.12
660.412	3869.81
660.604	4041.84
660.796	3804.27
660.988	3906.67
661.18	3837.04
661.372	3894.38
661.563	3984.49
661.755	3847.28
661.947	3820.66
662.139	3681.39
662.331	3724.4
662.522	3765.36
662.714	3683.44
662.906	3695.73
663.097	3722.35
663.289	3693.68
663.481	3673.2
663.673	3583.09
663.864	3574.9
664.056	3642.48
664.247	3460.21
664.439	3378.3
664.631	3658.87
664.822	3427.45
665.014	3480.69
665.205	3437.69
665.397	3497.08
665.588	3566.71
665.78	3394.68
665.971	3538.04
666.163	3464.31
666.354	3292.28
666.546	3492.98
666.737	3308.66
666.929	3349.62
667.12	3398.77
667.311	3298.42
667.503	3460.21
667.694	3323
667.885	3306.62
668.077	3318.9
668.268	3226.75
668.459	3320.95
668.651	3320.95
668.842	3253.37
669.033	3118.2
669.224	3191.93
669.416	3189.88
669.607	3150.97
669.798	3124.35
669.989	3120.25
670.18	3222.65
670.371	3165.31
670.563	3058.81
670.754	3128.44
670.945	3050.62
671.136	3054.72
671.327	3017.85
671.518	3079.29
671.709	2980.99
671.9	3163.26
672.091	2980.99
672.282	3056.76
672.473	2960.51
672.664	2940.03
672.855	3050.62
673.046	2952.32
673.237	3001.47
673.428	2806.91
673.619	2899.07
673.809	2886.78
674	2972.8
674.191	2927.74
674.382	2946.17
674.573	2827.39
674.764	2829.44
674.954	2929.79
675.145	2847.87
675.336	2808.96
675.527	2796.67
675.717	2864.25
675.908	2825.34
676.099	2677.89
676.289	2909.31
676.48	2759.81
676.671	2839.68
676.861	2772.1
677.052	2780.29
677.243	2593.92
677.433	2667.65
677.624	2630.79
677.814	2821.25
678.005	2714.75
678.195	2714.75
678.386	2702.47
678.576	2720.9
678.767	2655.36
678.957	2804.86
679.148	2794.62
679.338	2802.82
679.529	2708.61
679.719	2634.88
679.909	2768
680.1	2626.69
680.29	2661.51
680.481	2638.98
680.671	2759.81
680.861	2661.51
681.052	2645.12
681.242	2575.49
681.432	2624.64
681.622	2628.74
681.813	2591.88
682.003	2733.18
682.193	2587.78
682.383	2616.45
682.573	2684.03
682.764	2591.88
682.954	2606.21
683.144	2665.6
683.334	2657.41
683.524	2557.06
683.714	2542.72
683.904	2569.35
684.094	2692.23
684.284	2573.44
684.474	2585.73
684.664	2589.83
684.854	2567.3
685.044	2477.19
685.234	2526.34
685.424	2532.48
685.614	2548.87
685.804	2542.72
685.994	2501.76
686.184	2552.96
686.374	2550.92
686.564	2616.45
686.753	2559.11
686.943	2415.75
687.133	2473.09
687.323	2411.65
687.513	2571.4
687.702	2374.79
687.892	2376.84
688.082	2452.61
688.272	2444.42
688.461	2354.31
688.651	2301.06
688.841	2391.17
689.03	2477.19
689.22	2362.5
689.41	2323.59
689.599	2430.09
689.789	2315.4
689.979	2393.22
690.168	2350.21
690.358	2258.06
690.547	2217.1
690.737	2282.63
690.926	2335.88
691.116	2190.47
691.305	2241.67
691.495	2315.4
691.684	2223.24
691.874	2167.95
692.063	2182.28
692.252	2235.53
692.442	2194.57
692.631	2079.88
692.82	2204.81
693.01	2210.95
693.199	2133.13
693.388	2247.82
693.578	2210.95
693.767	2167.95
693.956	2088.07
694.146	2094.22
694.335	2186.38
694.524	2083.98
694.713	2098.31
694.902	2030.73
695.092	2106.51
695.281	2167.95
695.47	2149.51
695.659	2065.55
695.848	2053.26
696.037	1985.68
696.226	2051.21
696.415	1963.15
696.604	2088.07
696.793	2116.75
696.982	2075.79
697.171	2083.98
697.36	1991.82
697.549	2010.25
697.738	2030.73
697.927	2012.3
698.116	2010.25
698.305	1924.24
698.494	2118.79
698.683	2026.64
698.872	2012.3
699.061	1944.72
699.25	1954.96
699.438	1973.39
699.627	2028.68
699.816	2014.35
700.005	1983.63
700.193	1973.39
700.382	1903.76
700.571	1875.09
700.76	1983.63
700.948	1946.76
701.137	1862.8
701.326	1897.61
701.514	1973.39
701.703	1957
701.892	1942.67
702.08	1993.87
702.269	1934.48
702.457	1924.24
702.646	1954.96
702.834	2043.02
703.023	1944.72
703.212	1993.87
703.4	1885.33
703.589	1914
703.777	1942.67
703.965	2020.49
704.154	1993.87
704.342	1928.33
704.531	1983.63
704.719	1918.09
704.907	2083.98
705.096	2004.11
705.284	1848.46
705.472	1985.68
705.661	1961.1
705.849	1993.87
706.037	1809.55
706.226	1879.18
706.414	1936.53
706.602	2002.06
706.79	1899.66
706.979	1954.96
707.167	1838.22
707.355	1885.33
707.543	2014.35
707.731	1926.29
707.919	2008.2
708.107	1870.99
708.296	1922.19
708.484	1860.75
708.672	1973.39
708.86	2051.21
709.048	1832.08
709.236	2069.64
709.424	1930.38
709.612	2030.73
709.8	1932.43
709.988	2036.88
710.176	1981.58
710.364	1918.09
710.551	2077.83
710.739	1928.33
710.927	2049.16
711.115	1891.47
711.303	1973.39
711.491	1899.66
711.679	1977.48
711.866	1942.67
712.054	1977.48
712.242	1957
712.43	1946.76
712.617	1979.53
712.805	2049.16
712.993	1905.81
713.181	1922.19
713.368	1993.87
713.556	2047.12
713.744	1987.72
713.931	1983.63
714.119	1954.96
714.306	1836.17
714.494	1989.77
714.682	2063.5
714.869	1965.2
715.057	2002.06
715.244	1948.81
715.432	1973.39
715.619	2092.17
715.807	1957
715.994	1987.72
716.182	1989.77
716.369	1946.76
716.556	1895.57
716.744	1997.96
716.931	1954.96
717.119	1977.48
717.306	2051.21
717.493	1987.72
717.681	2026.64
717.868	2006.16
718.055	2038.92
718.242	1932.43
718.43	1924.24
718.617	2036.88
718.804	2157.71
718.991	1940.62
719.179	1997.96
719.366	2049.16
719.553	2069.64
719.74	2010.25
719.927	2098.31
720.114	1997.96
720.301	2059.4
720.488	1907.85
720.676	2012.3
720.863	2090.12
721.05	2000.01
721.237	2129.03
721.424	2100.36
721.611	2153.61
721.798	2077.83
721.985	1942.67
722.172	1914
722.358	2092.17
722.545	2002.06
722.732	2030.73
722.919	2069.64
723.106	1965.2
723.293	2026.64
723.48	2108.55
723.667	2040.97
723.853	2012.3
724.04	2045.07
724.227	2077.83
724.414	2129.03
724.6	2059.4
724.787	1985.68
724.974	2086.03
725.161	1969.29
725.347	1981.58
725.534	2067.6
725.72	2075.79
725.907	1967.24
726.094	2071.69
726.28	1959.05
726.467	2061.45
726.653	2051.21
726.84	2040.97
727.027	2147.47
727.213	1948.81
727.4	1987.72
727.586	2116.75
727.773	2133.13
727.959	2073.74
728.145	2038.92
728.332	2104.46
728.518	2051.21
728.705	2149.51
728.891	2030.73
729.077	2159.75
729.264	2112.65
729.45	2014.35
729.636	2073.74
729.823	2026.64
730.009	2126.99
730.195	2018.44
730.382	2049.16
730.568	1993.87
730.754	2153.61
730.94	2151.56
731.126	2104.46
731.313	2143.37
731.499	1981.58
731.685	2151.56
731.871	2100.36
732.057	2124.94
732.243	2192.52
732.429	2116.75
732.615	2147.47
732.801	2077.83
732.987	2086.03
733.173	2118.79
733.359	2071.69
733.545	2022.54
733.731	2055.31
733.917	2036.88
734.103	2063.5
734.289	2190.47
734.475	1991.82
734.661	2073.74
734.847	2030.73
735.033	2131.08
735.219	1989.77
735.404	2071.69
735.59	2075.79
735.776	2129.03
735.962	2151.56
736.148	2143.37
736.333	2051.21
736.519	1997.96
736.705	2010.25
736.89	2086.03
737.076	1981.58
737.262	2022.54
737.447	2165.9
737.633	2026.64
737.819	2110.6
738.004	2059.4
738.19	1959.05
738.375	1928.33
738.561	2057.36
738.747	2167.95
738.932	2014.35
739.118	2159.75
739.303	1928.33
739.489	2047.12
739.674	1864.85
739.859	2040.97
740.045	1936.53
740.23	1993.87
740.416	1989.77
740.601	2055.31
740.786	1977.48
740.972	2045.07
741.157	1993.87
741.342	1920.14
741.528	1983.63
741.713	1883.28
741.898	2120.84
742.084	1936.53
742.269	1981.58
742.454	2047.12
742.639	1948.81
742.824	1985.68
743.01	1895.57
743.195	1907.85
743.38	1838.22
743.565	1926.29
743.75	1879.18
743.935	1770.64
744.12	1891.47
744.305	1852.56
744.49	1789.07
744.675	1770.64
744.86	1911.95
745.045	1821.84
745.23	1827.98
745.415	1813.65
745.6	1887.37
745.785	1811.6
745.97	1854.61
746.155	1776.78
746.34	1795.22
746.525	1772.69
746.71	1838.22
746.895	1770.64
747.079	1809.55
747.264	1694.86
747.449	1821.84
747.634	1801.36
747.819	1674.39
748.003	1674.39
748.188	1703.06
748.373	1772.69
748.557	1737.87
748.742	1735.82
748.927	1582.23
749.111	1576.08
749.296	1549.46
749.481	1621.14
749.665	1729.68
749.85	1481.88
750.034	1662.1
750.219	1655.95
750.404	1617.04
750.588	1584.27
750.773	1502.36
750.957	1463.44
751.141	1596.56
751.326	1571.99
751.51	1520.79
751.695	1543.32
751.879	1483.92
752.064	1535.12
752.248	1485.97
752.432	1455.25
752.617	1516.69
752.801	1531.03
752.985	1397.91
753.17	1539.22
753.354	1451.16
753.538	1369.24
753.722	1375.38
753.907	1438.87
754.091	1174.68
754.275	1449.11
754.459	1363.09
754.643	1371.29
754.828	1434.77
755.012	1295.51
755.196	1395.86
755.38	1299.61
755.564	1244.31
755.748	1174.68
755.932	1305.75
756.116	1305.75
756.3	1305.75
756.484	1315.99
756.668	1217.69
756.852	1260.7
757.036	1215.64
757.22	1178.78
757.404	1301.65
757.588	1236.12
757.772	1262.74
757.956	1191.06
758.14	1197.21
758.323	1100.95
758.507	1207.45
758.691	1223.83
758.875	1133.72
759.059	1143.96
759.242	1057.95
759.426	1176.73
759.61	1180.82
759.794	1041.56
759.977	1082.52
760.161	1137.82
760.345	1166.49
760.528	1178.78
760.712	1086.62
760.895	1117.34
761.079	1059.99
761.263	1012.89
761.446	1041.56
761.63	1094.81
761.813	1006.75
761.997	1000.6
762.18	1129.63
762.364	1027.23
762.547	988.32
762.731	1000.6
762.914	959.64
763.098	1019.04
763.281	1076.38
763.464	1043.61
763.648	953.5
763.831	998.56
764.015	1004.7
764.198	1014.94
764.381	965.79
764.564	898.2
764.748	945.31
764.931	916.64
765.114	967.84
765.297	986.27
765.481	959.64
765.664	994.46
765.847	1035.42
766.03	1008.8
766.213	1027.23
766.397	871.58
766.58	937.12
766.763	998.56
766.946	832.67
767.129	801.95
767.312	902.3
767.495	937.12
767.678	851.1
767.861	881.82
768.044	844.96
768.227	894.11
768.41	849.05
768.593	885.92
768.776	871.58
768.959	801.95
769.142	836.77
769.324	812.19
769.507	783.52
769.69	801.95
769.873	855.2
770.056	824.48
770.239	818.33
770.421	799.9
770.604	873.63
770.787	816.29
770.97	842.91
771.152	771.23
771.335	806.05
771.518	777.37
771.7	820.38
771.883	879.77
772.066	726.18
772.248	742.56
772.431	779.42
772.613	758.94
772.796	775.33
772.978	777.37
773.161	797.85
773.343	806.05
773.526	722.08
773.708	769.18
773.891	703.65
774.073	707.74
774.256	859.29
774.438	724.13
774.621	605.35
774.803	750.75
774.985	683.17
775.168	732.32
775.35	771.23
775.532	685.22
775.715	672.93
775.897	670.88
776.079	720.03
776.261	775.33
776.444	695.46
776.626	689.31
776.808	734.37
776.99	601.25
777.173	642.21
777.355	593.06
777.537	709.79
777.719	707.74
777.901	578.72
778.083	644.26
778.265	531.62
778.447	607.39
778.629	595.11
778.811	541.86
778.993	615.59
779.175	631.97
779.357	558.24
779.539	535.71
779.721	615.59
779.903	597.15
780.085	619.68
780.267	586.91
780.449	570.53
780.631	662.69
780.812	578.72
780.994	564.39
781.176	597.15
781.358	580.77
781.54	586.91
781.721	535.71
781.903	474.28
782.085	545.95
782.267	513.19
782.448	537.76
782.63	535.71
782.812	527.52
782.993	437.41
783.175	466.08
783.357	564.39
783.538	470.18
783.72	500.9
783.901	427.17
784.083	496.8
784.264	468.13
784.446	404.64
784.627	459.94
784.809	375.97
784.99	421.03
785.172	507.04
785.353	449.7
785.535	500.9
785.716	429.22
785.897	431.27
786.079	453.8
786.26	552.1
786.441	392.36
786.623	416.93
786.804	388.26
786.985	404.64
787.167	496.8
787.348	457.89
787.529	439.46
787.71	494.76
787.891	437.41
788.073	365.73
788.254	371.88
788.435	353.45
788.616	328.87
788.797	277.67
788.978	355.49
789.159	332.97
789.34	400.55
789.522	382.12
789.703	363.69
789.884	382.12
790.065	318.63
790.246	330.92
790.427	326.82
790.607	400.55
790.788	353.45
790.969	277.67
791.15	392.36
791.331	324.77
791.512	335.01
791.693	384.16
791.874	292.01
792.054	375.97
792.235	369.83
792.416	322.73
792.597	281.77
792.778	341.16
792.958	388.26
793.139	249
793.32	375.97
793.5	318.63
793.681	353.45
793.862	324.77
794.042	314.53
794.223	240.81
794.404	351.4
794.584	339.11
794.765	253.09
794.945	330.92
795.126	253.09
795.306	373.92
795.487	257.19
795.667	249
795.848	273.57
796.028	240.81
796.209	257.19
796.389	281.77
796.57	214.18
796.75	173.22
796.93	242.85
797.111	228.52
797.291	171.18
797.471	298.15
797.652	238.76
797.832	255.14
798.012	271.53
798.192	234.66
798.373	308.39
798.553	240.81
798.733	298.15
798.913	158.89
799.093	242.85
799.274	228.52
799.454	267.43
799.634	208.04
799.814	218.28
799.994	287.91
800.174	257.19
800.354	189.61
800.534	240.81
800.714	273.57
800.894	210.09
801.074	160.94
801.254	263.33
801.434	220.33
801.614	242.85
801.794	287.91
801.974	707.74
802.154	210.09
802.334	267.43
802.514	148.65
802.693	197.8
802.873	201.9
803.053	222.38
803.233	246.95
803.413	177.32
803.592	212.14
803.772	171.18
803.952	136.36
804.131	169.13
804.311	226.47
804.491	171.18
804.67	146.6
804.85	212.14
805.03	189.61
805.209	162.98
805.389	183.46
805.568	144.55
805.748	218.28
805.928	224.42
806.107	224.42
806.287	224.42
806.466	249
806.646	162.98
806.825	183.46
807.004	97.45
807.184	193.7
807.363	234.66
807.543	214.18
807.722	189.61
807.901	191.66
808.081	132.26
808.26	119.98
808.439	212.14
808.619	146.6
808.798	152.74
808.977	191.66
809.156	185.51
809.336	187.56
809.515	240.81
809.694	201.9
809.873	111.78
810.052	136.36
810.231	175.27
810.411	79.02
810.59	212.14
810.769	173.22
810.948	140.46
811.127	101.55
811.306	60.59
811.485	175.27
811.664	210.09
811.843	136.36
812.022	201.9
812.201	214.18
812.38	160.94
812.559	162.98
812.737	142.5
812.916	83.11
813.095	85.16
813.274	122.02
813.453	136.36
813.632	154.79
813.811	173.22
813.989	146.6
814.168	158.89
814.347	97.45
814.526	58.54
814.704	154.79
814.883	101.55
815.062	130.22
815.24	175.27
815.419	134.31
815.598	167.08
815.776	54.44
815.955	156.84
816.133	83.11
816.312	158.89
816.49	95.4
816.669	105.64
816.847	162.98
817.026	79.02
817.204	179.37
817.383	119.98
817.561	119.98
817.74	138.41
817.918	130.22
818.097	142.5
818.275	70.83
818.453	130.22
818.632	119.98
818.81	109.74
818.988	128.17
819.167	115.88
819.345	132.26
819.523	95.4
819.701	179.37
819.879	158.89
820.058	95.4
820.236	150.7
820.414	95.4
820.592	27.82
820.77	150.7
820.948	87.21
821.127	62.63
821.305	101.55
821.483	148.65
821.661	85.16
821.839	-0.85
822.017	62.63
822.195	56.49
822.373	113.83
822.551	169.13
822.729	101.55
822.907	122.02
823.085	140.46
823.262	70.83
823.44	60.59
823.618	134.31
823.796	111.78
823.974	115.88
824.152	79.02
824.329	152.74
824.507	111.78
824.685	128.17
824.863	52.39
825.04	87.21
825.218	126.12
825.396	183.46
825.574	44.2
825.751	109.74
825.929	134.31
826.107	5.29
826.284	156.84
826.462	44.2
826.639	81.07
826.817	99.5
826.994	134.31
827.172	62.63
827.349	138.41
827.527	103.59
827.704	117.93
827.882	9.39
828.059	87.21
828.237	60.59
828.414	142.5
828.591	124.07
828.769	126.12
828.946	101.55
829.124	17.58
829.301	64.68
829.478	87.21
829.655	48.3
829.833	97.45
830.01	1.19
830.187	111.78
830.364	81.07
830.542	103.59
830.719	64.68
830.896	93.35
831.073	97.45
831.25	124.07
831.427	97.45
831.604	132.26
831.782	38.06
831.959	115.88
832.136	62.63
832.313	109.74
832.49	68.78
832.667	93.35
832.844	13.48
833.021	-13.14
833.198	115.88
833.374	52.39
833.551	91.31
833.728	142.5
833.905	72.87
834.082	46.25
834.259	54.44
834.436	11.43
834.612	52.39
834.789	74.92
834.966	126.12
835.143	5.29
835.319	54.44
835.496	117.93
835.673	50.35
835.85	85.16
836.026	48.3
836.203	158.89
836.38	44.2
836.556	19.63
836.733	9.39
836.909	152.74
837.086	68.78
837.262	25.77
837.439	15.53
837.616	64.68
837.792	3.24
837.968	76.97
838.145	19.63
838.321	87.21
838.498	76.97
838.674	36.01
838.851	87.21
839.027	109.74
839.203	48.3
839.38	36.01
839.556	52.39
839.732	36.01
839.909	136.36
840.085	54.44
840.261	-25.43
840.437	64.68
840.614	36.01
840.79	76.97
840.966	113.83
841.142	64.68
841.318	93.35
841.494	54.44
841.671	93.35
841.847	68.78
842.023	113.83
842.199	93.35
842.375	103.59
842.551	31.91
842.727	-9.05
842.903	142.5
843.079	89.26
843.255	54.44
843.431	25.77
843.607	93.35
843.783	-17.24
843.959	13.48
844.134	3.24
844.31	60.59
844.486	3.24
844.662	83.11
844.838	87.21
845.013	99.5
845.189	64.68
845.365	11.43
845.541	54.44
845.716	15.53
845.892	136.36
846.068	36.01
846.244	3.24
846.419	48.3
846.595	31.91
846.77	27.82
846.946	72.87
847.122	60.59
847.297	29.87
847.473	60.59
847.648	-21.33
847.824	64.68
847.999	-35.67
848.175	31.91
848.35	36.01
848.526	-4.95
848.701	66.73
848.876	113.83
849.052	70.83
849.227	101.55
849.403	7.34
849.578	38.06
849.753	5.29
849.929	48.3
850.104	7.34
850.279	72.87
850.454	-27.48
850.63	85.16
850.805	23.72
850.98	31.91
851.155	7.34
851.33	70.83
851.505	11.43
851.681	87.21
851.856	-9.05
852.031	-23.38
852.206	46.25
852.381	11.43
852.556	-9.05
852.731	101.55
852.906	60.59
853.081	44.2
853.256	109.74
853.431	72.87
853.606	-47.96
853.781	-21.33
853.956	-68.44
854.131	9.39
854.305	31.91
854.48	-9.05
854.655	-11.09
854.83	25.77
855.005	-15.19
855.18	50.35
855.354	54.44
855.529	11.43
855.704	27.82
855.879	60.59
856.053	-11.09
856.228	44.2
856.403	-13.14
856.577	-19.29
856.752	29.87
856.926	-13.14
857.101	3.24
857.276	-9.05
857.45	62.63
857.625	79.02
857.799	46.25
857.974	60.59
858.148	1.19
858.323	13.48
858.497	36.01
858.672	95.4
858.846	29.87
859.02	-2.9
859.195	19.63
859.369	15.53
859.543	21.67
859.718	54.44
859.892	29.87
860.066	46.25
860.241	-4.95
860.415	-62.29
860.589	29.87
860.763	-29.52
860.938	-23.38
861.112	38.06
861.286	27.82
861.46	38.06
861.634	46.25
861.808	72.87
861.982	25.77
862.157	44.2
862.331	87.21
862.505	-11.09
862.679	19.63
862.853	56.49
863.027	-21.33
863.201	46.25
863.375	-47.96
863.549	54.44
863.722	-9.05
863.896	56.49
864.07	7.34
864.244	-19.29
864.418	79.02
864.592	-62.29
864.766	64.68
864.939	66.73
865.113	-2.9
865.287	56.49
865.461	36.01
865.634	-4.95
865.808	27.82
865.982	48.3
866.156	36.01
866.329	40.11
866.503	-31.57
866.676	21.67
866.85	-0.85
867.024	-15.19
867.197	15.53
867.371	29.87
867.544	-39.76
867.718	11.43
867.891	58.54
868.065	-52.05
868.238	9.39
868.412	-0.85
868.585	-80.72
868.759	-54.1
868.932	23.72
869.105	-4.95
869.279	3.24
869.452	-13.14
869.625	36.01
869.799	38.06
869.972	-37.72
870.145	15.53
870.319	95.4
870.492	48.3
870.665	54.44
870.838	76.97
871.011	-41.81
871.185	29.87
871.358	44.2
871.531	11.43
871.704	-15.19
871.877	54.44
872.05	81.07
872.223	46.25
872.396	95.4
872.569	52.39
872.742	-50
872.915	-15.19
873.088	5.29
873.261	27.82
873.434	-29.52
873.607	-21.33
873.78	44.2
873.953	3.24
874.126	15.53
874.299	79.02
874.471	-47.96
874.644	101.55
874.817	1.19
874.99	40.11
875.163	83.11
875.335	-62.29
875.508	1.19
875.681	46.25
875.853	-27.48
876.026	42.15
876.199	5.29
876.371	23.72
876.544	46.25
876.717	-52.05
876.889	15.53
877.062	40.11
877.234	5.29
877.407	7.34
877.579	46.25
877.752	-15.19
877.924	5.29
878.097	-31.57
878.269	33.96
878.442	36.01
878.614	-29.52
878.786	44.2
878.959	21.67
879.131	17.58
879.303	-9.05
879.476	5.29
879.648	44.2
879.82	1.19
879.993	-23.38
880.165	-50
880.337	-58.2
880.509	36.01
880.681	-27.48
880.854	54.44
881.026	21.67
881.198	44.2
881.37	11.43
881.542	60.59
881.714	64.68
881.886	-9.05
882.058	52.39
882.23	15.53
882.402	60.59
882.574	17.58
882.746	83.11
882.918	38.06
883.09	21.67
883.262	-39.76
883.434	60.59
883.606	-25.43
883.778	-45.91
883.95	23.72
884.122	5.29
884.293	48.3
884.465	97.45
884.637	15.53
884.809	-60.24
884.98	-60.24
885.152	-52.05
885.324	13.48
885.496	56.49
885.667	5.29
885.839	23.72
886.011	-4.95
886.182	42.15
886.354	21.67
886.525	1.19
886.697	19.63
886.869	68.78
887.04	29.87
887.212	-37.72
887.383	93.35
887.555	-43.86
887.726	-52.05
887.897	19.63
888.069	19.63
888.24	40.11
888.412	52.39
888.583	-7
888.754	38.06
888.926	3.24
889.097	31.91
889.268	-103.25
889.44	-11.09
889.611	-9.05
889.782	60.59
889.953	13.48
890.125	44.2
890.296	-52.05
890.467	21.67
890.638	-50
890.809	44.2
890.98	-21.33
891.151	60.59
891.323	21.67
891.494	-0.85
891.665	-2.9
891.836	3.24
892.007	29.87
892.178	-0.85
892.349	-4.95
892.52	1.19
892.691	15.53
892.862	-37.72
893.032	-0.85
893.203	-0.85
893.374	25.77
893.545	-7
893.716	27.82
893.887	-2.9
894.057	11.43
894.228	-52.05
894.399	9.39
894.57	11.43
894.74	13.48
894.911	13.48
895.082	27.82
895.253	40.11
895.423	-2.9
895.594	44.2
895.764	-62.29
895.935	-4.95
896.106	-4.95
896.276	-52.05
896.447	-2.9
896.617	31.91
896.788	-47.96
896.958	7.34
897.129	-21.33
897.299	-86.87
897.47	81.07
897.64	76.97
897.81	-0.85
897.981	-13.14
898.151	52.39
898.322	76.97
898.492	-11.09
898.662	-13.14
898.832	11.43
899.003	-25.43
899.173	-13.14
899.343	36.01
899.513	-13.14
