Data from USB4F104151__1__13-10-07-794.txt Node

Date: Fri Mar 14 13:10:07 EDT 2025
User: louis
Spectrometer: USB4F10415
Trigger mode: 4
Integration Time (sec): 2.000000E-2
Scans to average: 1
Electric dark correction enabled: true
Nonlinearity correction enabled: false
Boxcar width: 0
XAxis mode: Wavelengths
Number of Pixels in Spectrum: 3648
>>>>>Begin Spectral Data<<<<<
178.204	-86.53
178.424	-86.53
178.644	-86.53
178.864	-125.44
179.084	-96.77
179.304	19.97
179.524	-23.04
179.744	-18.94
179.964	11.78
180.184	5.63
180.404	34.3
180.624	56.83
180.844	-10.75
181.064	-45.57
181.283	-18.94
181.503	-29.18
181.723	17.92
181.943	5.63
182.163	24.06
182.383	-0.51
182.602	44.54
182.822	34.3
183.042	58.88
183.262	91.65
183.482	30.21
183.701	44.54
183.921	26.11
184.141	-37.38
184.361	77.31
184.58	-6.66
184.8	67.07
185.02	13.82
185.239	-18.94
185.459	19.97
185.679	-4.61
185.898	-18.94
186.118	36.35
186.338	62.98
186.557	62.98
186.777	5.63
186.997	65.02
187.216	13.82
187.436	71.17
187.655	1.54
187.875	48.64
188.095	1.54
188.314	1.54
188.534	34.3
188.753	24.06
188.973	-10.75
189.192	110.08
189.412	48.64
189.631	91.65
189.851	24.06
190.07	40.45
190.29	32.26
190.509	13.82
190.729	-23.04
190.948	42.5
191.168	77.31
191.387	56.83
191.607	5.63
191.826	77.31
192.045	-31.23
192.265	-4.61
192.484	17.92
192.704	-43.52
192.923	-55.81
193.142	60.93
193.362	-16.9
193.581	54.78
193.8	42.5
194.02	91.65
194.239	85.5
194.458	40.45
194.678	-10.75
194.897	34.3
195.116	7.68
195.335	1.54
195.555	-2.56
195.774	58.88
195.993	46.59
196.212	5.63
196.432	-33.28
196.651	24.06
196.87	99.84
197.089	130.56
197.308	46.59
197.528	22.02
197.747	19.97
197.966	52.74
198.185	83.45
198.404	62.98
198.623	11.78
198.842	110.08
199.062	28.16
199.281	26.11
199.5	1.54
199.719	38.4
199.938	-10.75
200.157	85.5
200.376	9.73
200.595	24.06
200.814	105.98
201.033	87.55
201.252	85.5
201.471	-53.76
201.69	38.4
201.909	87.55
202.128	34.3
202.347	83.45
202.566	40.45
202.785	42.5
203.004	17.92
203.223	62.98
203.442	-39.42
203.661	54.78
203.879	36.35
204.098	5.63
204.317	-25.09
204.536	-2.56
204.755	85.5
204.974	99.84
205.193	34.3
205.411	101.89
205.63	40.45
205.849	36.35
206.068	99.84
206.287	58.88
206.505	83.45
206.724	-39.42
206.943	28.16
207.162	30.21
207.381	118.27
207.599	85.5
207.818	-4.61
208.037	-23.04
208.255	-2.56
208.474	17.92
208.693	-8.7
208.911	50.69
209.13	-41.47
209.349	56.83
209.567	48.64
209.786	48.64
210.005	-18.94
210.223	30.21
210.442	52.74
210.661	32.26
210.879	36.35
211.098	9.73
211.316	-10.75
211.535	1.54
211.753	-23.04
211.972	46.59
212.191	36.35
212.409	32.26
212.628	54.78
212.846	9.73
213.065	69.12
213.283	69.12
213.502	-33.28
213.72	1.54
213.938	50.69
214.157	48.64
214.375	112.13
214.594	83.45
214.812	19.97
215.031	-59.9
215.249	87.55
215.467	108.03
215.686	75.26
215.904	81.41
216.122	-10.75
216.341	36.35
216.559	19.97
216.778	-20.99
216.996	99.84
217.214	24.06
217.432	71.17
217.651	-133.63
217.869	58.88
218.087	30.21
218.306	42.5
218.524	34.3
218.742	17.92
218.96	28.16
219.179	24.06
219.397	81.41
219.615	62.98
219.833	54.78
220.051	36.35
220.27	17.92
220.488	67.07
220.706	28.16
220.924	-10.75
221.142	110.08
221.36	3.58
221.578	-6.66
221.796	48.64
222.015	46.59
222.233	-18.94
222.451	-16.9
222.669	5.63
222.887	38.4
223.105	24.06
223.323	-23.04
223.541	-4.61
223.759	5.63
223.977	30.21
224.195	67.07
224.413	22.02
224.631	9.73
224.849	19.97
225.067	89.6
225.285	-84.48
225.503	103.93
225.721	26.11
225.939	5.63
226.157	52.74
226.375	48.64
226.592	54.78
226.81	99.84
227.028	17.92
227.246	50.69
227.464	-14.85
227.682	71.17
227.9	93.69
228.117	-0.51
228.335	75.26
228.553	26.11
228.771	69.12
228.989	34.3
229.206	9.73
229.424	17.92
229.642	-23.04
229.86	24.06
230.077	56.83
230.295	-31.23
230.513	28.16
230.731	87.55
230.948	48.64
231.166	91.65
231.384	28.16
231.601	-8.7
231.819	50.69
232.037	17.92
232.254	-27.14
232.472	52.74
232.689	62.98
232.907	36.35
233.125	9.73
233.342	28.16
233.56	-43.52
233.777	5.63
233.995	-43.52
234.213	83.45
234.43	-37.38
234.648	60.93
234.865	5.63
235.083	81.41
235.3	-33.28
235.518	38.4
235.735	-35.33
235.953	132.61
236.17	50.69
236.388	32.26
236.605	11.78
236.822	42.5
237.04	26.11
237.257	-4.61
237.475	-10.75
237.692	71.17
237.909	83.45
238.127	58.88
238.344	28.16
238.562	1.54
238.779	-23.04
238.996	58.88
239.214	13.82
239.431	52.74
239.648	-33.28
239.865	13.82
240.083	-2.56
240.3	50.69
240.517	9.73
240.735	-43.52
240.952	91.65
241.169	26.11
241.386	15.87
241.603	38.4
241.821	-6.66
242.038	79.36
242.255	58.88
242.472	5.63
242.689	36.35
242.907	62.98
243.124	-2.56
243.341	40.45
243.558	11.78
243.775	44.54
243.992	-20.99
244.209	22.02
244.426	3.58
244.643	42.5
244.86	32.26
245.078	73.21
245.295	42.5
245.512	54.78
245.729	-12.8
245.946	-8.7
246.163	28.16
246.38	69.12
246.597	54.78
246.814	34.3
247.031	128.51
247.248	32.26
247.464	38.4
247.681	32.26
247.898	3.58
248.115	93.69
248.332	19.97
248.549	75.26
248.766	3.58
248.983	34.3
249.2	71.17
249.417	65.02
249.633	17.92
249.85	71.17
250.067	3.58
250.284	-6.66
250.501	44.54
250.717	83.45
250.934	22.02
251.151	91.65
251.368	42.5
251.585	32.26
251.801	22.02
252.018	17.92
252.235	69.12
252.451	9.73
252.668	28.16
252.885	-10.75
253.102	17.92
253.318	91.65
253.535	112.13
253.752	9.73
253.968	17.92
254.185	52.74
254.401	67.07
254.618	44.54
254.835	67.07
255.051	-6.66
255.268	44.54
255.484	11.78
255.701	91.65
255.917	11.78
256.134	1.54
256.351	-23.04
256.567	34.3
256.784	-27.14
257	75.26
257.217	79.36
257.433	-6.66
257.65	11.78
257.866	42.5
258.082	-14.85
258.299	-16.9
258.515	32.26
258.732	-27.14
258.948	-18.94
259.165	58.88
259.381	-25.09
259.597	58.88
259.814	-8.7
260.03	52.74
260.246	24.06
260.463	56.83
260.679	134.65
260.895	3.58
261.112	71.17
261.328	19.97
261.544	54.78
261.761	58.88
261.977	-39.42
262.193	7.68
262.409	69.12
262.626	50.69
262.842	-27.14
263.058	17.92
263.274	71.17
263.49	32.26
263.707	50.69
263.923	79.36
264.139	-14.85
264.355	7.68
264.571	67.07
264.787	22.02
265.004	110.08
265.22	40.45
265.436	52.74
265.652	-20.99
265.868	85.5
266.084	-16.9
266.3	9.73
266.516	-14.85
266.732	-53.76
266.948	-25.09
267.164	30.21
267.38	62.98
267.596	116.22
267.812	91.65
268.028	42.5
268.244	32.26
268.46	36.35
268.676	38.4
268.892	13.82
269.108	13.82
269.324	3.58
269.54	28.16
269.756	48.64
269.972	67.07
270.188	-37.38
270.403	-31.23
270.619	62.98
270.835	105.98
271.051	-6.66
271.267	62.98
271.483	52.74
271.698	77.31
271.914	36.35
272.13	56.83
272.346	65.02
272.562	-2.56
272.777	60.93
272.993	13.82
273.209	1.54
273.425	7.68
273.64	-27.14
273.856	95.74
274.072	-39.42
274.287	26.11
274.503	38.4
274.719	62.98
274.934	56.83
275.15	17.92
275.366	36.35
275.581	30.21
275.797	42.5
276.012	34.3
276.228	60.93
276.444	-18.94
276.659	-6.66
276.875	-31.23
277.09	-20.99
277.306	34.3
277.521	62.98
277.737	-4.61
277.952	-41.47
278.168	-4.61
278.383	77.31
278.599	52.74
278.814	1.54
279.03	73.21
279.245	93.69
279.461	11.78
279.676	9.73
279.892	11.78
280.107	-39.42
280.322	36.35
280.538	62.98
280.753	42.5
280.969	26.11
281.184	-33.28
281.399	116.22
281.615	11.78
281.83	17.92
282.045	32.26
282.26	-39.42
282.476	40.45
282.691	52.74
282.906	34.3
283.122	-55.81
283.337	13.82
283.552	73.21
283.767	46.59
283.983	77.31
284.198	34.3
284.413	36.35
284.628	-49.66
284.843	1.54
285.058	11.78
285.274	26.11
285.489	34.3
285.704	1.54
285.919	19.97
286.134	89.6
286.349	75.26
286.564	28.16
286.779	17.92
286.995	42.5
287.21	-10.75
287.425	-8.7
287.64	13.82
287.855	77.31
288.07	42.5
288.285	42.5
288.5	91.65
288.715	69.12
288.93	9.73
289.145	24.06
289.36	77.31
289.575	22.02
289.79	32.26
290.004	9.73
290.219	52.74
290.434	7.68
290.649	1.54
290.864	58.88
291.079	42.5
291.294	52.74
291.509	75.26
291.724	-4.61
291.938	34.3
292.153	17.92
292.368	36.35
292.583	5.63
292.798	71.17
293.012	-10.75
293.227	-6.66
293.442	19.97
293.657	48.64
293.871	108.03
294.086	28.16
294.301	87.55
294.516	17.92
294.73	67.07
294.945	34.3
295.16	-6.66
295.374	46.59
295.589	34.3
295.804	48.64
296.018	65.02
296.233	15.87
296.447	44.54
296.662	58.88
296.877	77.31
297.091	-51.71
297.306	48.64
297.52	-0.51
297.735	77.31
297.949	-29.18
298.164	36.35
298.378	116.22
298.593	17.92
298.807	7.68
299.022	40.45
299.236	32.26
299.451	38.4
299.665	62.98
299.88	50.69
300.094	28.16
300.309	-35.33
300.523	69.12
300.737	50.69
300.952	19.97
301.166	-55.81
301.381	19.97
301.595	85.5
301.809	71.17
302.024	17.92
302.238	56.83
302.452	56.83
302.667	-86.53
302.881	40.45
303.095	48.64
303.309	-6.66
303.524	38.4
303.738	19.97
303.952	-12.8
304.166	69.12
304.381	-16.9
304.595	-14.85
304.809	17.92
305.023	24.06
305.237	52.74
305.452	75.26
305.666	24.06
305.88	46.59
306.094	32.26
306.308	28.16
306.522	3.58
306.736	83.45
306.95	-59.9
307.164	1.54
307.379	-0.51
307.593	44.54
307.807	42.5
308.021	60.93
308.235	46.59
308.449	-41.47
308.663	54.78
308.877	3.58
309.091	46.59
309.305	60.93
309.519	9.73
309.733	54.78
309.947	-29.18
310.161	15.87
310.374	99.84
310.588	-6.66
310.802	126.46
311.016	-43.52
311.23	-0.51
311.444	5.63
311.658	40.45
311.872	79.36
312.085	67.07
312.299	28.16
312.513	60.93
312.727	32.26
312.941	5.63
313.154	28.16
313.368	54.78
313.582	85.5
313.796	7.68
314.009	7.68
314.223	-6.66
314.437	99.84
314.651	-31.23
314.864	81.41
315.078	3.58
315.292	62.98
315.505	-59.9
315.719	1.54
315.933	5.63
316.146	-2.56
316.36	19.97
316.573	11.78
316.787	-4.61
317.001	3.58
317.214	7.68
317.428	-8.7
317.641	-47.62
317.855	7.68
318.068	91.65
318.282	3.58
318.495	75.26
318.709	40.45
318.922	11.78
319.136	83.45
319.349	69.12
319.563	13.82
319.776	85.5
319.99	-0.51
320.203	44.54
320.417	17.92
320.63	79.36
320.843	58.88
321.057	24.06
321.27	58.88
321.483	-23.04
321.697	40.45
321.91	58.88
322.124	38.4
322.337	30.21
322.55	36.35
322.763	58.88
322.977	26.11
323.19	-29.18
323.403	24.06
323.617	9.73
323.83	28.16
324.043	46.59
324.256	89.6
324.469	-4.61
324.683	17.92
324.896	-10.75
325.109	1.54
325.322	22.02
325.535	60.93
325.748	40.45
325.962	34.3
326.175	36.35
326.388	30.21
326.601	44.54
326.814	28.16
327.027	-33.28
327.24	79.36
327.453	-10.75
327.666	-2.56
327.879	19.97
328.092	9.73
328.305	93.69
328.518	42.5
328.731	65.02
328.944	126.46
329.157	58.88
329.37	1.54
329.583	32.26
329.796	85.5
330.009	32.26
330.222	52.74
330.435	105.98
330.648	48.64
330.861	-35.33
331.073	85.5
331.286	42.5
331.499	36.35
331.712	30.21
331.925	52.74
332.138	-10.75
332.35	83.45
332.563	52.74
332.776	95.74
332.989	38.4
333.202	54.78
333.414	28.16
333.627	83.45
333.84	73.21
334.053	26.11
334.265	38.4
334.478	-10.75
334.691	95.74
334.903	54.78
335.116	-47.62
335.329	91.65
335.541	50.69
335.754	71.17
335.966	-27.14
336.179	22.02
336.392	-14.85
336.604	28.16
336.817	124.41
337.029	67.07
337.242	34.3
337.454	67.07
337.667	56.83
337.88	140.8
338.092	17.92
338.305	-8.7
338.517	52.74
338.729	26.11
338.942	17.92
339.154	3.58
339.367	19.97
339.579	112.13
339.792	-8.7
340.004	62.98
340.217	67.07
340.429	-10.75
340.641	-57.86
340.854	62.98
341.066	1.54
341.278	81.41
341.491	46.59
341.703	34.3
341.915	69.12
342.128	7.68
342.34	-12.8
342.552	-14.85
342.764	93.69
342.977	54.78
343.189	24.06
343.401	22.02
343.613	32.26
343.826	46.59
344.038	42.5
344.25	-20.99
344.462	-33.28
344.674	103.93
344.886	-0.51
345.099	65.02
345.311	40.45
345.523	40.45
345.735	28.16
345.947	46.59
346.159	11.78
346.371	36.35
346.583	-23.04
346.795	62.98
347.007	-10.75
347.219	32.26
347.431	73.21
347.643	67.07
347.855	36.35
348.067	67.07
348.279	69.12
348.491	95.74
348.703	48.64
348.915	24.06
349.127	-37.38
349.339	38.4
349.551	-64
349.763	67.07
349.975	15.87
350.187	40.45
350.399	118.27
350.61	-12.8
350.822	17.92
351.034	50.69
351.246	22.02
351.458	9.73
351.669	50.69
351.881	89.6
352.093	60.93
352.305	110.08
352.517	30.21
352.728	32.26
352.94	99.84
353.152	26.11
353.363	32.26
353.575	9.73
353.787	151.04
353.999	38.4
354.21	9.73
354.422	32.26
354.633	-20.99
354.845	93.69
355.057	87.55
355.268	44.54
355.48	17.92
355.692	17.92
355.903	7.68
356.115	-6.66
356.326	26.11
356.538	87.55
356.749	26.11
356.961	58.88
357.172	93.69
357.384	1.54
357.595	122.37
357.807	-31.23
358.018	54.78
358.23	85.5
358.441	99.84
358.653	50.69
358.864	26.11
359.075	22.02
359.287	46.59
359.498	26.11
359.709	34.3
359.921	58.88
360.132	36.35
360.344	99.84
360.555	3.58
360.766	69.12
360.977	67.07
361.189	69.12
361.4	-33.28
361.611	3.58
361.823	17.92
362.034	22.02
362.245	-31.23
362.456	67.07
362.667	77.31
362.879	24.06
363.09	81.41
363.301	75.26
363.512	-14.85
363.723	89.6
363.935	-4.61
364.146	112.13
364.357	65.02
364.568	-23.04
364.779	9.73
364.99	50.69
365.201	97.79
365.412	50.69
365.623	17.92
365.834	-4.61
366.045	116.22
366.256	28.16
366.467	77.31
366.678	42.5
366.889	-20.99
367.1	1.54
367.311	26.11
367.522	1.54
367.733	114.17
367.944	58.88
368.155	24.06
368.366	116.22
368.577	38.4
368.788	-29.18
368.999	-14.85
369.209	77.31
369.42	65.02
369.631	62.98
369.842	67.07
370.053	17.92
370.264	97.79
370.474	-0.51
370.685	77.31
370.896	71.17
371.107	91.65
371.317	91.65
371.528	93.69
371.739	132.61
371.95	40.45
372.16	50.69
372.371	3.58
372.582	19.97
372.792	24.06
373.003	138.75
373.214	62.98
373.424	36.35
373.635	67.07
373.846	19.97
374.056	85.5
374.267	60.93
374.477	67.07
374.688	-14.85
374.898	22.02
375.109	77.31
375.319	87.55
375.53	54.78
375.74	50.69
375.951	32.26
376.161	5.63
376.372	26.11
376.582	83.45
376.793	67.07
377.003	79.36
377.214	1.54
377.424	11.78
377.635	46.59
377.845	52.74
378.055	44.54
378.266	-39.42
378.476	89.6
378.686	73.21
378.897	65.02
379.107	97.79
379.317	44.54
379.528	79.36
379.738	52.74
379.948	-8.7
380.158	9.73
380.369	36.35
380.579	77.31
380.789	22.02
380.999	73.21
381.21	116.22
381.42	42.5
381.63	99.84
381.84	116.22
382.05	60.93
382.261	62.98
382.471	67.07
382.681	58.88
382.891	60.93
383.101	120.32
383.311	58.88
383.521	44.54
383.731	112.13
383.941	48.64
384.151	52.74
384.361	46.59
384.571	48.64
384.781	85.5
384.991	30.21
385.201	142.85
385.411	124.41
385.621	126.46
385.831	101.89
386.041	32.26
386.251	36.35
386.461	112.13
386.671	30.21
386.881	110.08
387.091	13.82
387.301	93.69
387.511	9.73
387.72	124.41
387.93	56.83
388.14	19.97
388.35	36.35
388.56	50.69
388.769	118.27
388.979	40.45
389.189	3.58
389.399	89.6
389.609	9.73
389.818	42.5
390.028	28.16
390.238	103.93
390.447	30.21
390.657	38.4
390.867	19.97
391.076	32.26
391.286	40.45
391.496	83.45
391.705	46.59
391.915	93.69
392.125	71.17
392.334	5.63
392.544	93.69
392.753	62.98
392.963	3.58
393.172	75.26
393.382	79.36
393.591	87.55
393.801	-27.14
394.01	36.35
394.22	95.74
394.429	79.36
394.639	101.89
394.848	40.45
395.058	62.98
395.267	54.78
395.477	54.78
395.686	112.13
395.895	77.31
396.105	58.88
396.314	60.93
396.524	28.16
396.733	9.73
396.942	95.74
397.152	101.89
397.361	118.27
397.57	34.3
397.78	101.89
397.989	-10.75
398.198	146.94
398.407	71.17
398.617	91.65
398.826	142.85
399.035	60.93
399.244	124.41
399.453	126.46
399.663	62.98
399.872	85.5
400.081	87.55
400.29	79.36
400.499	-23.04
400.708	85.5
400.917	5.63
401.127	75.26
401.336	17.92
401.545	99.84
401.754	110.08
401.963	110.08
402.172	202.24
402.381	101.89
402.59	60.93
402.799	52.74
403.008	155.13
403.217	58.88
403.426	71.17
403.635	11.78
403.844	99.84
404.053	222.72
404.262	83.45
404.471	148.99
404.68	126.46
404.888	142.85
405.097	28.16
405.306	157.18
405.515	89.6
405.724	116.22
405.933	126.46
406.142	148.99
406.35	140.8
406.559	144.89
406.768	116.22
406.977	140.8
407.185	173.57
407.394	124.41
407.603	136.7
407.812	146.94
408.02	157.18
408.229	232.96
408.438	97.79
408.646	173.57
408.855	235
409.064	187.9
409.272	140.8
409.481	239.1
409.69	216.57
409.898	132.61
410.107	173.57
410.315	292.35
410.524	284.16
410.733	167.42
410.941	300.54
411.15	312.83
411.358	228.86
411.567	312.83
411.775	237.05
411.984	316.92
412.192	282.11
412.401	271.87
412.609	323.07
412.818	407.03
413.026	235
413.234	372.22
413.443	351.74
413.651	374.27
413.86	439.8
414.068	499.19
414.276	460.28
414.485	443.9
414.693	507.38
414.901	529.91
415.11	501.24
415.318	460.28
415.526	501.24
415.734	562.68
415.943	542.2
416.151	574.97
416.359	552.44
416.567	628.21
416.776	663.03
416.984	749.04
417.192	749.04
417.4	636.41
417.608	749.04
417.817	744.95
418.025	826.87
418.233	849.4
418.441	804.34
418.649	865.78
418.857	841.2
419.065	1005.04
419.273	1009.14
419.481	1000.94
419.689	1058.29
419.897	1134.06
420.105	1134.06
420.313	1166.83
420.521	1220.08
420.729	1177.07
420.937	1183.21
421.145	1211.89
421.353	1273.32
421.561	1338.86
421.769	1426.92
421.977	1455.59
422.185	1474.03
422.393	1601
422.601	1646.05
422.809	1676.77
423.017	1562.09
423.224	1752.55
423.432	1764.84
423.64	1789.41
423.848	2029.03
424.056	1961.44
424.263	2008.55
424.471	2024.93
424.679	2282.97
424.887	2246.11
425.094	2340.32
425.302	2418.14
425.51	2479.58
425.718	2393.56
425.925	2422.24
426.133	2647.51
426.341	2805.21
426.548	2737.62
426.756	2811.35
426.964	2934.23
427.171	3016.15
427.379	3247.57
427.586	3155.41
427.794	3306.96
428.001	3442.12
428.209	3472.84
428.417	3464.65
428.624	3734.98
428.832	3728.84
429.039	3782.09
429.247	3792.33
429.454	4142.53
429.662	4419
429.869	4011.46
430.076	4367.81
430.284	4154.82
430.491	4261.31
430.699	4609.47
430.906	4611.51
431.114	4720.06
431.321	4879.8
431.528	5039.54
431.736	5361.07
431.943	5678.51
432.15	5412.27
432.358	5393.84
432.565	5830.06
432.772	5748.14
432.979	6088.1
433.187	6258.08
433.394	6225.31
433.601	6571.42
433.808	6671.77
434.016	6671.77
434.223	6901.14
434.43	7257.49
434.637	7062.93
434.844	7525.77
435.052	7642.51
435.259	7603.6
435.466	7632.27
435.673	7697.8
435.88	8000.9
436.087	8738.17
436.294	8547.71
436.501	8414.59
436.708	8611.2
436.915	8740.22
437.122	9332.08
437.329	9342.32
437.537	9588.08
437.743	9901.42
437.95	9618.8
438.157	10167.65
438.364	10472.8
438.571	10704.22
438.778	10517.86
438.985	11496.78
439.192	11076.95
439.399	11378
439.606	11068.76
439.813	11892.04
440.02	12576.06
440.227	12244.29
440.433	12186.95
440.64	12580.16
440.847	12424.51
441.054	12979.51
441.261	13763.89
441.467	13303.09
441.674	13675.82
441.881	14349.61
442.088	13997.35
442.294	13974.83
442.501	14239.01
442.708	14834.97
442.914	15248.66
443.121	15992.08
443.328	15637.78
443.534	16919.81
443.741	16626.95
443.948	15869.2
444.154	17315.06
444.361	17200.38
444.568	17151.23
444.774	17444.09
444.981	17341.69
445.187	17640.69
445.394	18713.83
445.6	18558.18
445.807	19934.42
446.013	19313.88
446.22	19459.29
446.426	20466.89
446.633	20722.88
446.839	21310.65
447.046	20485.32
447.252	21652.66
447.459	21628.09
447.665	21648.57
447.871	22256.81
448.078	23616.66
448.284	22502.57
448.491	23073.95
448.697	24136.85
448.903	24470.67
449.11	24726.66
449.316	24056.98
449.522	24706.18
449.728	25371.77
449.935	25375.87
450.141	25296
450.347	26104.95
450.553	25123.97
450.76	25736.31
450.966	26770.54
451.172	25971.83
451.378	26741.86
451.584	26336.37
451.791	27026.53
451.997	26936.42
452.203	27286.62
452.409	27614.3
452.615	26887.27
452.821	26293.36
453.027	25814.13
453.233	27491.42
453.44	26584.17
453.646	26494.06
453.852	26848.36
454.058	26897.51
454.264	26408.05
454.47	27028.58
454.676	26502.25
454.882	27366.49
455.088	25285.76
455.294	25302.14
455.5	25455.74
455.705	25941.11
455.911	24966.28
456.117	24528.01
456.323	24063.12
456.529	22705.32
456.735	23669.91
456.941	23379.1
457.147	22863.01
457.352	22043.82
457.558	22097.07
457.764	22365.35
457.97	21392.57
458.176	21286.08
458.381	21284.03
458.587	19946.7
458.793	20301
458.999	19043.55
459.204	20372.68
459.41	20165.84
459.616	18414.82
459.821	18703.59
460.027	18314.47
460.233	18181.35
460.438	17272.06
460.644	17423.61
460.85	16477.44
461.055	16514.31
461.261	16436.49
461.466	15301.91
461.672	14839.07
461.878	15680.78
462.083	14781.73
462.289	14284.07
462.494	14325.03
462.7	13511.99
462.905	13108.54
463.111	13645.1
463.316	13851.95
463.522	13403.44
463.727	13516.08
463.932	13411.64
464.138	13507.89
464.343	13409.59
464.549	12961.08
464.754	13432.12
464.959	13387.06
465.165	13190.45
465.37	12510.53
465.575	12422.47
465.781	12870.97
465.986	12868.92
466.191	12365.12
466.397	12201.29
466.602	11439.44
466.807	12084.55
467.012	12102.98
467.218	11715.92
467.423	11846.99
467.628	11902.28
467.833	12471.62
468.038	12016.97
468.244	11709.77
468.449	12107.08
468.654	11658.57
468.859	11296.08
469.064	11498.83
469.269	11099.48
469.474	11246.93
469.679	11257.17
469.885	10980.7
470.09	11199.83
470.295	11079
470.5	10739.04
470.705	10866.01
470.91	10970.46
471.115	10679.65
471.32	10749.28
471.525	10767.71
471.73	10278.24
471.935	10179.94
472.139	10085.73
472.344	10249.57
472.549	9948.52
472.754	10020.2
472.959	9831.79
473.164	9618.8
473.369	9653.61
473.574	9796.97
473.778	9813.35
473.983	9645.42
474.188	9745.77
474.393	9063.8
474.598	9364.85
474.802	8965.5
475.007	9098.61
475.212	9004.41
475.417	8670.59
475.621	8598.91
475.826	8580.48
476.031	8676.73
476.235	8643.96
476.44	8727.93
476.645	8424.83
476.849	8275.33
477.054	8119.68
477.259	8215.94
477.463	8115.59
477.668	7972.23
477.872	7906.7
478.077	7736.71
478.282	7667.08
478.486	7673.23
478.691	7783.82
478.895	7710.09
479.1	7585.16
479.304	7595.4
479.509	7361.94
479.713	7507.34
479.918	7220.63
480.122	7220.63
480.326	7341.46
480.531	7284.11
480.735	7134.61
480.94	7075.22
481.144	7361.94
481.348	7138.71
481.553	7046.55
481.757	6821.27
481.961	7124.37
482.166	7255.44
482.37	7007.64
482.574	6995.35
482.778	7007.64
482.983	7118.23
483.187	6985.11
483.391	7036.31
483.595	7026.07
483.8	6886.81
484.004	7024.02
484.208	7058.84
484.412	6884.76
484.616	7013.78
484.821	7026.07
485.025	6897.05
485.229	6929.81
485.433	6892.95
485.637	6954.39
485.841	7015.83
486.045	7013.78
486.249	6792.6
486.453	6749.59
486.657	7075.22
486.861	6938.01
487.065	6839.7
487.269	6962.58
487.473	6849.94
487.677	6985.11
487.881	7062.93
488.085	6856.09
488.289	6901.14
488.493	6790.55
488.697	6989.21
488.901	6968.73
489.105	7046.55
489.309	7130.52
489.512	7087.51
489.716	7245.2
489.92	6925.72
490.124	6964.63
490.328	7368.08
490.531	7261.59
490.735	7210.39
490.939	7294.35
491.143	7144.85
491.346	7157.14
491.55	7288.21
491.754	7167.38
491.958	7194
492.161	7212.43
492.365	7394.7
492.569	7409.04
492.772	7355.79
492.976	7447.95
493.18	7472.53
493.383	7540.11
493.587	7574.92
493.79	7587.21
493.994	7632.27
494.197	7572.88
494.401	7718.28
494.605	7875.98
494.808	7947.65
495.012	7712.14
495.215	7972.23
495.419	7951.75
495.622	7720.33
495.825	8019.33
496.029	8121.73
496.232	8191.36
496.436	8308.1
496.639	8330.62
496.843	8586.62
497.046	8715.64
497.249	8648.06
497.453	8713.6
497.656	8879.48
497.859	8656.25
498.063	8914.3
498.266	9158
498.469	8951.16
498.673	9115
498.876	9094.52
499.079	9258.35
499.282	9231.73
499.485	9459.06
499.689	9489.78
499.892	9620.85
500.095	9760.11
500.298	10052.97
500.501	9760.11
500.705	10192.23
500.908	10132.84
501.111	10327.39
501.314	10558.81
501.517	10407.27
501.72	10931.55
501.923	10601.82
502.126	10679.65
502.329	11054.42
502.532	11085.14
502.735	11035.99
502.938	11326.8
503.141	11203.93
503.344	11715.92
503.547	11703.63
503.75	11855.18
503.953	11971.91
504.156	11994.44
504.359	12180.81
504.562	12205.38
504.765	12432.71
504.968	12666.17
505.17	12844.35
505.373	12897.6
505.576	13165.88
505.779	13102.39
505.982	13329.72
506.185	13591.86
506.387	13641.01
506.59	13475.12
506.793	14099.75
506.996	13946.16
507.198	14492.96
507.401	14239.01
507.604	14224.68
507.807	14787.87
508.009	14810.4
508.212	14808.35
508.415	15156.5
508.617	15209.75
508.82	15072.54
509.022	15492.37
509.225	15664.4
509.428	15639.83
509.63	15881.49
509.833	15914.25
510.035	16319.75
510.238	16231.69
510.44	16622.85
510.643	16567.56
510.845	16749.82
511.048	16946.43
511.25	17026.3
511.453	17265.91
511.655	17749.23
511.858	17603.83
512.06	17882.35
512.262	17978.61
512.465	17612.02
512.667	18025.71
512.87	18343.14
513.072	18605.28
513.274	18773.22
513.477	18816.22
513.679	19469.53
513.881	19352.79
514.084	19735.76
514.286	19592.41
514.488	19551.45
514.69	20057.29
514.893	20286.67
515.095	20364.49
515.297	20303.05
515.499	20430.02
515.701	20833.47
515.904	20901.06
516.106	21312.7
516.308	21284.03
516.51	21871.79
516.712	21621.94
516.914	21789.88
517.116	22494.38
517.318	22484.14
517.52	22357.16
517.722	22551.72
517.925	22703.27
518.127	23260.32
518.329	23311.52
518.531	23420.06
518.733	23639.19
518.935	23954.58
519.136	23614.62
519.338	24116.37
519.54	24454.28
519.742	24480.91
519.944	24548.49
520.146	25044.1
520.348	25396.35
520.55	25252.99
520.752	25283.71
520.954	25873.53
521.155	25404.54
521.357	25914.48
521.559	26158.19
521.761	26666.09
521.963	26391.66
522.164	26797.16
522.366	26791.02
522.568	27200.61
522.77	27153.51
522.971	27794.52
523.173	27366.49
523.375	27546.72
523.576	27858.01
523.778	28122.19
523.98	28091.48
524.181	28224.59
524.383	28486.73
524.584	28793.93
524.786	28826.7
524.988	28601.42
525.189	29049.92
525.391	29137.99
525.592	29639.74
525.794	29289.54
525.995	29279.3
526.197	29441.09
526.398	29545.53
526.6	29926.46
526.801	29989.94
527.003	30276.66
527.204	30262.32
527.406	30391.34
527.607	30391.34
527.808	30643.24
528.01	30254.13
528.211	30655.53
528.412	31366.18
528.614	30895.14
528.815	31001.64
529.016	31460.38
529.218	31020.07
529.419	31200.29
529.62	30964.78
529.822	31429.66
530.023	31314.98
530.224	31335.46
530.425	31089.7
530.626	31388.71
530.828	31333.41
531.029	32060.44
531.23	31536.16
531.431	31829.02
531.632	31722.52
531.833	31843.35
532.035	31863.83
532.236	31953.94
532.437	32435.22
532.638	32003.1
532.839	32072.73
533.04	32236.56
533.241	31898.65
533.442	32365.59
533.643	32183.32
533.844	32078.87
534.045	32310.29
534.246	32351.25
534.447	32467.98
534.648	32085.01
534.849	32584.72
535.05	31994.9
535.251	32209.94
535.451	32265.24
535.652	32277.52
535.853	32119.83
536.054	32158.74
536.255	32701.45
536.456	32179.22
536.657	32648.21
536.857	32326.67
537.058	32384.02
537.259	32689.17
537.46	31802.39
537.66	32513.04
537.861	32248.85
538.062	32197.65
538.263	32259.09
538.463	32113.69
538.664	32560.14
538.865	32447.5
539.065	32619.53
539.266	31986.71
539.466	32693.26
539.667	32085.01
539.868	32771.08
540.068	32181.27
540.269	32193.56
540.469	32312.34
540.67	32228.37
540.87	32537.62
541.071	32240.66
541.271	32343.06
541.472	32502.8
541.672	32367.63
541.873	32347.15
542.073	31769.63
542.274	32812.04
542.474	32224.28
542.675	32082.97
542.875	32648.21
543.075	32367.63
543.276	32058.39
543.476	32791.56
543.676	32066.58
543.877	32439.31
544.077	32171.03
544.277	32109.59
544.478	32103.45
544.678	32449.55
544.878	32365.59
545.078	32242.71
545.279	32457.74
545.479	32191.51
545.679	32457.74
545.879	32295.96
546.079	32474.13
546.28	32070.68
546.48	31894.55
546.68	32259.09
546.88	32357.39
547.08	32431.12
547.28	32011.29
547.48	31734.81
547.68	32113.69
547.88	32228.37
548.081	32437.27
548.281	32123.93
548.481	32033.82
548.681	32179.22
548.881	31843.35
549.081	32308.24
549.28	32107.54
549.48	32353.3
549.68	32177.17
549.88	32404.5
550.08	31724.57
550.28	32353.3
550.48	32039.96
550.68	32336.91
550.88	31912.99
551.08	32132.12
551.279	32136.21
551.479	31994.9
551.679	32128.02
551.879	31923.22
552.079	31996.95
552.278	31642.65
552.478	32019.48
552.678	32168.98
552.878	32285.72
553.077	32222.23
553.277	31573.02
553.477	32031.77
553.676	31779.87
553.876	31937.56
554.076	31646.75
554.275	32031.77
554.475	31757.34
554.674	31790.11
554.874	31796.25
555.074	31743
555.273	31601.69
555.473	31740.96
555.672	31851.55
555.872	31706.14
556.071	31949.85
556.271	31921.18
556.47	31700
556.67	31253.54
556.869	31292.45
557.068	31693.85
557.268	31712.28
557.467	31487.01
557.667	31280.16
557.866	31061.03
558.065	31194.15
558.265	30927.91
558.464	31360.03
558.663	31220.77
558.863	31073.32
559.062	31302.69
559.261	31171.62
559.461	31312.93
559.66	30968.87
559.859	30925.86
560.058	30651.44
560.258	31024.17
560.457	30557.23
560.656	31005.73
560.855	30829.61
561.054	30585.9
561.253	30299.19
561.453	30370.86
561.652	30854.19
561.851	30596.14
562.05	30643.24
562.249	30628.91
562.448	30336.05
562.647	30420.02
562.846	30133.3
563.045	30073.91
563.244	30264.37
563.443	30682.16
563.642	29707.32
563.841	29994.04
564.04	29549.63
564.239	30225.46
564.438	29908.02
564.637	29914.17
564.836	29803.58
565.035	29865.02
565.234	29742.14
565.432	29654.08
565.631	29918.26
565.83	29496.38
566.029	29082.69
566.228	29289.54
566.427	29432.89
566.625	29269.06
566.824	29023.3
567.023	29207.62
567.222	28585.04
567.42	29424.7
567.619	29205.57
567.818	28808.26
568.016	28771.4
568.215	29109.32
568.414	28777.54
568.612	28933.19
568.811	28292.18
569.01	28437.58
569.208	28083.28
569.407	28410.96
569.605	28134.48
569.804	28466.25
570.002	28087.38
570.201	28062.8
570.4	27817.05
570.598	27630.68
570.797	27690.07
570.995	27581.53
571.193	27483.23
571.392	27808.86
571.59	27634.78
571.789	27675.74
571.987	27497.56
572.186	27399.26
572.384	27216.99
572.582	27341.92
572.781	27391.07
572.979	27106.4
573.177	26821.73
573.376	27333.73
573.574	26879.08
573.772	27001.96
573.971	26963.04
574.169	26725.48
574.367	26520.68
574.565	26516.59
574.763	26504.3
574.962	26774.63
575.16	26020.98
575.358	26449
575.556	25945.2
575.754	26641.51
575.952	25928.82
576.151	26053.75
576.349	25631.86
576.547	25928.82
576.745	26086.51
576.943	25984.12
577.141	25658.49
577.339	25824.37
577.537	25810.04
577.735	25644.15
577.933	25595
578.131	25437.31
578.329	25644.15
578.527	25560.19
578.725	25326.72
578.923	25472.12
579.121	25214.08
579.319	25025.67
579.516	25439.36
579.714	25146.5
579.912	25021.57
580.11	24984.71
580.308	24732.81
580.506	24683.66
580.704	24290.45
580.901	24933.51
581.099	24968.32
581.297	24401.04
581.495	24562.83
581.692	24661.13
581.89	24288.4
582.088	24419.47
582.285	24093.84
582.483	24216.72
582.681	24022.16
582.878	23866.52
583.076	23714.97
583.274	24042.64
583.471	23559.32
583.669	23735.45
583.866	23628.95
584.064	23874.71
584.262	23475.35
584.459	23610.52
584.657	23585.94
584.854	23639.19
585.052	23180.45
585.249	23323.8
585.447	23430.3
585.644	23061.66
585.841	23071.9
586.039	23291.04
586.236	23026.85
586.434	22897.83
586.631	22774.95
586.828	22766.76
587.026	22908.07
587.223	22860.96
587.42	22598.82
587.618	22600.87
587.815	22219.95
588.012	22443.18
588.21	22095.02
588.407	22385.83
588.604	22271.15
588.801	22082.74
588.999	22039.73
589.196	21922.99
589.393	21927.09
589.59	21587.13
589.787	22076.59
589.984	21814.45
590.182	21273.79
590.379	21722.29
590.576	21537.98
590.773	21519.54
590.97	21249.21
591.167	21642.42
591.364	21259.45
591.561	21779.64
591.758	21109.95
591.955	21263.55
592.152	21468.34
592.349	21077.18
592.546	21132.48
592.743	20903.11
592.94	20577.48
593.137	21064.89
593.334	20618.44
593.531	20765.89
593.727	20530.37
593.924	20430.02
594.121	20851.91
594.318	20561.09
594.515	20114.64
594.712	20245.71
594.908	20075.73
595.105	20311.24
595.302	20176.08
595.499	20290.76
595.696	20174.03
595.892	19848.4
596.089	20063.44
596.286	19973.33
596.482	19780.82
596.679	19786.96
596.876	19780.82
597.072	19739.86
597.269	19746
597.466	19533.01
597.662	19307.74
597.859	19227.87
598.055	19328.22
598.252	19281.11
598.448	19274.97
598.645	19131.61
598.841	18756.83
599.038	19113.18
599.234	19115.23
599.431	18853.09
599.627	18717.92
599.824	18906.34
600.02	18701.54
600.217	18803.94
600.413	18595.04
600.609	18670.82
600.806	18439.4
601.002	18427.11
601.198	18400.49
601.395	18429.16
601.591	18498.79
601.787	18314.47
601.984	18140.4
602.18	18216.17
602.376	18183.4
602.572	18087.15
602.769	18255.08
602.965	17898.73
603.161	18058.48
603.357	18046.19
603.553	17915.12
603.75	17503.48
603.946	17562.87
604.142	17931.5
604.338	17442.04
604.534	17542.39
604.73	17452.28
604.926	17450.23
605.122	17435.89
605.318	17171.71
605.514	17112.31
605.71	17229.05
605.906	17253.62
606.102	16985.34
606.298	17085.69
606.494	17265.91
606.69	17159.42
606.886	16971.01
607.082	16884.99
607.278	16938.24
607.474	16639.23
607.67	16753.92
607.866	16682.24
608.062	16948.48
608.257	16506.12
608.453	16684.29
608.649	16606.47
608.845	16612.61
609.041	16766.21
609.236	16567.56
609.432	16295.18
609.628	16352.52
609.824	16487.68
610.019	16329.99
610.215	16495.88
610.411	16358.66
610.606	16286.98
610.802	16413.96
610.998	16256.26
611.193	16313.61
611.389	15938.83
611.584	16205.06
611.78	16153.87
611.976	15731.98
612.171	16086.28
612.367	16137.48
612.562	15951.12
612.758	15707.41
612.953	15850.77
613.149	15918.35
613.344	15615.25
613.539	15832.33
613.735	15904.01
613.93	15832.33
614.126	15631.63
614.321	15856.91
614.517	15527.19
614.712	15467.8
614.907	15473.94
615.103	15572.24
615.298	15457.56
615.493	15658.26
615.688	15248.66
615.884	15666.45
616.079	15297.81
616.274	15562
616.47	15179.03
616.665	15486.23
616.86	15306.01
617.055	15211.8
617.25	15027.48
617.445	15439.12
617.641	14931.23
617.836	14869.79
618.031	14779.68
618.226	15013.15
618.421	14871.84
618.616	15158.55
618.811	14445.86
619.006	14595.36
619.201	14542.11
619.396	14808.35
619.591	14476.58
619.786	14845.21
619.981	14251.3
620.176	14552.35
620.371	14284.07
620.566	14513.44
620.761	14101.8
620.956	14378.28
621.151	13911.34
621.346	14359.84
621.541	14069.03
621.735	14208.3
621.93	13780.27
622.125	13894.96
622.32	13571.38
622.515	13919.53
622.709	13466.93
622.904	13665.58
623.099	13454.64
623.294	13272.37
623.488	13251.89
623.683	13452.59
623.878	13331.76
624.072	13258.04
624.267	13071.67
624.462	12979.51
624.656	12768.57
624.851	12997.95
625.046	13047.1
625.24	12711.23
625.435	12377.41
625.629	12662.08
625.824	12471.62
626.018	12436.8
626.213	12152.13
626.407	12371.27
626.602	12055.88
626.796	12385.6
626.991	12262.72
627.185	12057.93
627.38	12143.94
627.574	12084.55
627.768	11916.62
627.963	11818.32
628.157	11437.39
628.352	11752.78
628.546	11586.9
628.74	11834.7
628.935	11418.96
629.129	11646.29
629.323	11431.25
629.517	11396.43
629.712	11367.76
629.906	11148.63
630.1	10874.2
630.294	11113.81
630.489	10980.7
630.683	11158.87
630.877	10913.11
631.071	10751.32
631.265	11060.57
631.459	10653.02
631.653	10911.07
631.848	10710.36
632.042	10530.14
632.236	10532.19
632.43	10458.46
632.624	10567.01
632.818	10347.87
633.012	10235.24
633.206	10360.16
633.4	10372.45
633.594	10200.42
633.788	10126.69
633.982	10163.56
634.176	9964.9
634.369	9995.62
634.563	9913.7
634.757	9796.97
634.951	9729.39
635.145	9663.85
635.339	9766.25
635.533	9721.2
635.726	9508.21
635.92	9676.14
636.114	9426.29
636.308	9383.28
636.501	9514.35
636.695	9561.45
636.889	9454.96
637.083	9133.43
637.276	9231.73
637.47	9254.26
637.664	9160.05
637.857	9022.84
638.051	9096.57
638.244	8856.95
638.438	8791.42
638.632	8850.81
638.825	8861.05
639.019	8654.2
639.212	8740.22
639.406	8656.25
639.599	8711.55
639.793	8742.27
639.986	8512.89
640.18	8600.96
640.373	8508.8
640.567	8488.32
640.76	8242.56
640.954	8381.82
641.147	8217.99
641.34	8383.87
641.534	8359.3
641.727	8250.75
641.92	8160.64
642.114	8033.67
642.307	8209.79
642.5	8027.53
642.694	7871.88
642.887	7918.98
643.08	7990.66
643.273	7875.98
643.467	7800.2
643.66	7863.69
643.853	7708.04
644.046	7695.75
644.239	7792.01
644.432	7392.66
644.626	7441.81
644.819	7529.87
645.012	7284.11
645.205	7411.09
645.398	7400.85
645.591	7292.3
645.784	7191.95
645.977	7275.92
646.17	7343.5
646.363	7081.36
646.556	7087.51
646.749	7126.42
646.942	7048.6
647.135	7038.36
647.328	6958.49
647.521	6938.01
647.714	6952.34
647.907	6854.04
648.099	6800.79
648.292	6866.33
648.485	6851.99
648.678	6634.91
648.871	6573.47
649.064	6761.88
649.256	6653.34
649.449	6776.22
649.642	6538.65
649.835	6395.29
650.027	6538.65
650.22	6415.77
650.413	6483.36
650.605	6366.62
650.798	6329.76
650.991	6380.96
651.183	6403.49
651.376	6274.46
651.568	6227.36
651.761	6188.45
651.954	6223.27
652.146	6280.61
652.339	6100.39
652.531	5989.8
652.724	6022.56
652.916	6051.24
653.109	5957.03
653.301	5932.45
653.494	5957.03
653.686	5817.77
653.879	5891.49
654.071	5842.34
654.263	5660.07
654.456	5705.13
654.648	5758.38
654.84	5608.87
655.033	5651.88
655.225	5711.27
655.417	5590.44
655.61	5533.1
655.802	5647.79
655.994	5436.85
656.186	5572.01
656.379	5344.69
656.571	5457.32
656.763	5303.73
656.955	5416.37
657.148	5457.32
657.34	5277.1
657.532	5203.38
657.724	5129.65
657.916	5189.04
658.108	5141.94
658.3	5002.68
658.492	5166.51
658.684	5148.08
658.876	5033.4
659.068	5060.02
659.26	4943.28
659.452	4933.04
659.644	4926.9
659.836	4754.87
660.028	4922.8
660.22	4742.58
660.412	4892.09
660.604	4869.56
660.796	4701.62
660.988	4828.6
661.18	4777.4
661.372	4629.95
661.563	4738.49
661.755	4693.43
661.947	4625.85
662.139	4758.97
662.331	4564.41
662.522	4509.12
662.714	4615.61
662.906	4539.83
663.097	4502.97
663.289	4439.48
663.481	4527.55
663.673	4441.53
663.864	4273.6
664.056	4396.48
664.247	4367.81
664.439	4277.69
664.631	4347.33
664.822	4220.35
665.014	4292.03
665.205	4189.63
665.397	4158.91
665.588	4384.19
665.78	4111.81
665.971	4259.26
666.163	4126.15
666.354	4142.53
666.546	4111.81
666.737	4031.94
666.929	4156.86
667.12	3958.21
667.311	3980.74
667.503	3900.87
667.694	3960.26
667.885	4019.65
668.077	4017.6
668.268	3886.53
668.459	3868.1
668.651	3823.05
668.842	3796.42
669.033	3724.74
669.224	3786.18
669.416	3804.61
669.607	3716.55
669.798	3757.51
669.989	3677.64
670.18	3706.31
670.371	3751.37
670.563	3542.47
670.754	3630.54
670.945	3708.36
671.136	3691.98
671.327	3626.44
671.518	3636.68
671.709	3626.44
671.9	3487.18
672.091	3497.42
672.282	3689.93
672.473	3415.5
672.664	3427.79
672.855	3474.89
673.046	3474.89
673.237	3337.68
673.428	3392.97
673.619	3413.45
673.809	3581.39
674	3286.48
674.191	3261.9
674.382	3257.81
674.573	3253.71
674.764	3274.19
674.954	3241.42
675.145	3261.9
675.336	3163.6
675.527	3151.31
675.717	3220.94
675.908	3149.26
676.099	3116.5
676.289	3042.77
676.48	3175.89
676.671	3222.99
676.861	3075.54
677.052	3216.85
677.243	3003.86
677.433	3102.16
677.624	3091.92
677.814	2934.23
678.005	3042.77
678.195	3040.72
678.386	3155.41
678.576	2964.95
678.767	2938.32
678.957	2844.12
679.148	2907.6
679.338	2983.38
679.529	2860.5
679.719	2858.45
679.909	2778.58
680.1	2868.69
680.29	2840.02
680.481	2833.88
680.671	2983.38
680.861	2821.59
681.052	2727.38
681.242	2737.62
681.432	2764.25
681.622	2764.25
681.813	2694.61
682.003	2909.65
682.193	2678.23
682.383	2614.74
682.573	2667.99
682.764	2813.4
682.954	2756.05
683.144	2739.67
683.334	2616.79
683.524	2659.8
683.714	2590.17
683.904	2569.69
684.094	2696.66
684.284	2600.41
684.474	2708.95
684.664	2559.45
684.854	2557.4
685.044	2510.3
685.234	2586.07
685.424	2477.53
685.614	2442.71
685.804	2385.37
685.994	2538.97
686.184	2590.17
686.374	2481.63
686.564	2330.08
686.753	2473.43
686.943	2403.8
687.133	2543.07
687.323	2459.1
687.513	2518.49
687.702	2403.8
687.892	2420.19
688.082	2422.24
688.272	2336.22
688.461	2377.18
688.651	2387.42
688.841	2346.46
689.03	2352.6
689.22	2311.64
689.41	2332.12
689.599	2360.8
689.789	2254.3
689.979	2309.6
690.168	2229.73
690.358	2209.25
690.547	2309.6
690.737	2256.35
690.926	2297.31
691.116	2182.62
691.305	2248.16
691.495	2199.01
691.684	2201.05
691.874	2153.95
692.063	2129.38
692.252	2149.86
692.442	2186.72
692.631	2061.79
692.82	2088.42
693.01	2135.52
693.199	2180.57
693.388	2098.66
693.578	2057.7
693.767	2117.09
693.956	2102.75
694.146	2024.93
694.335	1988.07
694.524	2108.9
694.713	2057.7
694.902	2047.46
695.092	1992.16
695.281	1951.2
695.47	1961.44
695.659	1961.44
695.848	1959.39
696.037	2065.89
696.226	1945.06
696.415	1943.01
696.604	1912.29
696.793	1943.01
696.982	2045.41
697.171	1959.39
697.36	1951.2
697.549	2016.74
697.738	1940.96
697.927	1885.67
698.116	1986.02
698.305	2129.38
698.494	1918.43
698.683	1957.35
698.872	1945.06
699.061	1857
699.25	1826.28
699.438	1918.43
699.627	1990.11
699.816	2016.74
700.005	1963.49
700.193	2061.79
700.382	1979.87
700.571	1916.39
700.76	1877.48
700.948	1924.58
701.137	1824.23
701.326	2031.07
701.514	1867.24
701.703	1910.24
701.892	1906.15
702.08	1871.33
702.269	1871.33
702.457	1914.34
702.646	1949.15
702.834	1836.52
703.023	1807.84
703.212	1973.73
703.4	1897.96
703.589	1949.15
703.777	1848.8
703.965	1910.24
704.154	1805.8
704.342	1836.52
704.531	1949.15
704.719	1854.95
704.907	1897.96
705.096	1867.24
705.284	1811.94
705.472	1893.86
705.661	1934.82
705.849	1965.54
706.037	1818.08
706.226	1918.43
706.414	1928.67
706.602	1873.38
706.79	1834.47
706.979	1871.33
707.167	1936.87
707.355	1832.42
707.543	1836.52
707.731	1951.2
707.919	1996.26
708.107	1789.41
708.296	1787.36
708.484	1799.65
708.672	1742.31
708.86	1867.24
709.048	1764.84
709.236	1854.95
709.424	1930.72
709.612	1895.91
709.8	1852.9
709.988	1852.9
710.176	1953.25
710.364	1887.72
710.551	1791.46
710.739	1805.8
710.927	2010.59
711.115	1934.82
711.303	1912.29
711.491	1836.52
711.679	1844.71
711.866	1748.45
712.054	1852.9
712.242	1900
712.43	1891.81
712.617	1793.51
712.805	1895.91
712.993	1846.76
713.181	1861.09
713.368	1873.38
713.556	1871.33
713.744	1779.17
713.931	1793.51
714.119	1867.24
714.306	1822.18
714.494	1732.07
714.682	1807.84
714.869	1840.61
715.057	1828.32
715.244	1779.17
715.432	1832.42
715.619	1832.42
715.807	1861.09
715.994	1730.02
716.182	1871.33
716.369	1885.67
716.556	1779.17
716.744	1775.08
716.931	1750.5
717.119	1912.29
717.306	1861.09
717.493	1897.96
717.681	1846.76
717.868	1779.17
718.055	1844.71
718.242	1863.14
718.43	1832.42
718.617	1766.89
718.804	1799.65
718.991	1859.04
719.179	1807.84
719.366	1740.26
719.553	1861.09
719.74	1844.71
719.927	1789.41
720.114	1834.47
720.301	1775.08
720.488	1811.94
720.676	1730.02
720.863	1850.85
721.05	1824.23
721.237	1807.84
721.424	1797.6
721.611	1797.6
721.798	1709.54
721.985	1938.91
722.172	1857
722.358	1820.13
722.545	1885.67
722.732	1777.12
722.919	1768.93
723.106	1750.5
723.293	1598.95
723.48	1742.31
723.667	1697.25
723.853	1738.21
724.04	1760.74
724.227	1770.98
724.414	1625.58
724.6	1799.65
724.787	1770.98
724.974	1756.65
725.161	1723.88
725.347	1697.25
725.534	1764.84
725.72	1795.56
725.907	1721.83
726.094	1762.79
726.28	1738.21
726.467	1811.94
726.653	1730.02
726.84	1777.12
727.027	1719.78
727.213	1609.19
727.4	1762.79
727.586	1723.88
727.773	1656.29
727.959	1609.19
728.145	1748.45
728.332	1746.41
728.518	1766.89
728.705	1644.01
728.891	1674.73
729.077	1828.32
729.264	1674.73
729.45	1732.07
729.636	1750.5
729.823	1684.97
730.009	1664.49
730.195	1748.45
730.382	1746.41
730.568	1549.8
730.754	1713.64
730.94	1705.45
731.126	1689.06
731.313	1627.62
731.499	1635.82
731.685	1650.15
731.871	1676.77
732.057	1672.68
732.243	1560.04
732.429	1705.45
732.615	1623.53
732.801	1713.64
732.987	1639.91
733.173	1584.62
733.359	1678.82
733.545	1574.38
733.731	1607.14
733.917	1678.82
734.103	1687.01
734.289	1648.1
734.475	1572.33
734.661	1660.39
734.847	1734.12
735.033	1680.87
735.219	1586.66
735.404	1641.96
735.59	1623.53
735.776	1592.81
735.962	1658.34
736.148	1691.11
736.333	1709.54
736.519	1580.52
736.705	1541.61
736.89	1547.75
737.076	1535.46
737.262	1607.14
737.447	1537.51
737.633	1553.9
737.819	1570.28
738.004	1551.85
738.19	1512.94
738.375	1541.61
738.561	1598.95
738.747	1580.52
738.932	1549.8
739.118	1598.95
739.303	1555.94
739.489	1566.18
739.674	1557.99
739.859	1455.59
740.045	1627.62
740.23	1392.11
740.416	1404.39
740.601	1541.61
740.786	1451.5
740.972	1471.98
741.157	1467.88
741.342	1533.42
741.528	1441.26
741.713	1541.61
741.898	1463.79
742.084	1476.07
742.269	1443.31
742.454	1488.36
742.639	1435.11
742.824	1422.83
743.01	1314.28
743.195	1428.97
743.38	1361.39
743.565	1453.55
743.75	1369.58
743.935	1404.39
744.12	1400.3
744.305	1363.44
744.49	1402.35
744.675	1512.94
744.86	1390.06
745.045	1326.57
745.23	1373.68
745.415	1291.76
745.6	1332.72
745.785	1404.39
745.97	1312.24
746.155	1297.9
746.34	1295.85
746.525	1299.95
746.71	1291.76
746.895	1353.2
747.079	1316.33
747.264	1291.76
747.449	1230.32
747.634	1256.94
747.819	1299.95
748.003	1248.75
748.188	1177.07
748.373	1230.32
748.557	1154.54
748.742	1193.45
748.927	1181.17
749.111	1199.6
749.296	1115.63
749.481	1213.93
749.665	1242.61
749.85	1222.13
750.034	1201.65
750.219	1213.93
750.404	1119.73
750.588	1074.67
750.773	1113.58
750.957	1099.25
751.141	1146.35
751.326	1193.45
751.51	1080.82
751.695	1086.96
751.879	1019.38
752.064	1060.34
752.248	1136.11
752.432	1091.06
752.617	1101.3
752.801	1185.26
752.985	1117.68
753.17	1082.86
753.354	1005.04
753.538	1136.11
753.722	1058.29
753.907	984.56
754.091	976.37
754.275	923.12
754.459	986.61
754.643	994.8
754.828	1005.04
755.012	1021.42
755.196	964.08
755.38	1025.52
755.564	939.51
755.748	990.7
755.932	945.65
756.116	962.03
756.3	910.83
756.484	984.56
756.668	876.02
756.852	1000.94
757.036	919.03
757.22	910.83
757.404	945.65
757.588	1041.9
757.772	871.92
757.956	808.44
758.14	964.08
758.323	910.83
758.507	943.6
758.691	814.58
758.875	871.92
759.059	873.97
759.242	878.07
759.426	878.07
759.61	878.07
759.794	820.72
759.977	812.53
760.161	886.26
760.345	888.31
760.528	849.4
760.712	833.01
760.895	914.93
761.079	790
761.263	718.33
761.446	775.67
761.63	781.81
761.813	927.22
761.997	751.09
762.18	826.87
762.364	849.4
762.547	724.47
762.731	837.11
762.914	787.96
763.098	810.48
763.281	787.96
763.464	769.52
763.648	853.49
763.831	681.46
764.015	720.37
764.198	767.48
764.381	685.56
764.564	722.42
764.748	665.08
764.931	804.34
765.114	757.24
765.297	751.09
765.481	673.27
765.664	787.96
765.847	790
766.03	630.26
766.213	691.7
766.397	724.47
766.58	650.74
766.763	749.04
766.946	755.19
767.129	759.28
767.312	648.69
767.495	650.74
767.678	667.13
767.861	749.04
768.044	708.09
768.227	734.71
768.41	691.7
768.593	673.27
768.776	749.04
768.959	605.69
769.142	703.99
769.324	728.56
769.507	687.61
769.69	636.41
769.873	699.89
770.056	771.57
770.239	620.02
770.421	716.28
770.604	671.22
770.787	656.89
770.97	685.56
771.152	574.97
771.335	732.66
771.518	622.07
771.7	687.61
771.883	681.46
772.066	601.59
772.248	624.12
772.431	658.93
772.613	617.97
772.796	652.79
772.978	708.09
773.161	691.7
773.343	601.59
773.526	564.73
773.708	521.72
773.891	632.31
774.073	566.78
774.256	601.59
774.438	644.6
774.621	632.31
774.803	669.17
774.985	566.78
775.168	579.06
775.35	493.05
775.532	667.13
775.715	544.25
775.897	534.01
776.079	527.86
776.261	652.79
776.444	529.91
776.626	634.36
776.808	466.42
776.99	519.67
777.173	615.93
777.355	493.05
777.537	558.58
777.719	572.92
777.901	519.67
778.083	558.58
778.265	493.05
778.447	544.25
778.629	525.82
778.811	443.9
778.993	554.49
779.175	564.73
779.357	511.48
779.539	454.14
779.721	556.54
779.903	599.54
780.085	495.1
780.267	519.67
780.449	507.38
780.631	497.14
780.812	454.14
780.994	478.71
781.176	423.42
781.358	380.41
781.54	443.9
781.721	476.66
781.903	462.33
782.085	429.56
782.267	491
782.448	351.74
782.63	443.9
782.812	484.86
782.993	482.81
783.175	445.95
783.357	396.79
783.538	396.79
783.72	445.95
783.901	359.93
784.083	337.4
784.264	495.1
784.446	460.28
784.627	415.23
784.809	417.27
784.99	402.94
785.172	396.79
785.353	361.98
785.535	327.16
785.716	421.37
785.897	359.93
786.079	382.46
786.26	294.4
786.441	357.88
786.623	318.97
786.804	304.64
786.985	370.17
787.167	357.88
787.348	351.74
787.529	306.68
787.71	370.17
787.891	370.17
788.073	368.12
788.254	228.86
788.435	308.73
788.616	306.68
788.797	335.35
788.978	376.31
789.159	349.69
789.34	331.26
789.522	263.68
789.703	378.36
789.884	251.39
790.065	318.97
790.246	323.07
790.427	290.3
790.607	286.2
790.788	376.31
790.969	257.53
791.15	185.85
791.331	288.25
791.512	345.59
791.693	249.34
791.874	284.16
792.054	323.07
792.235	263.68
792.416	298.49
792.597	282.11
792.778	273.92
792.958	294.4
793.139	200.19
793.32	251.39
793.5	243.2
793.681	275.96
793.862	288.25
794.042	300.54
794.223	202.24
794.404	296.44
794.584	251.39
794.765	228.86
794.945	230.91
795.126	235
795.306	314.88
795.487	224.76
795.667	241.15
795.848	280.06
796.028	273.92
796.209	302.59
796.389	267.77
796.57	218.62
796.75	148.99
796.93	261.63
797.111	198.14
797.291	247.29
797.471	261.63
797.652	278.01
797.832	210.43
798.012	200.19
798.192	192
798.373	216.57
798.553	230.91
798.733	218.62
798.913	194.05
799.093	185.85
799.274	167.42
799.454	232.96
799.634	175.61
799.814	200.19
799.994	204.28
800.174	306.68
800.354	200.19
800.534	151.04
800.714	200.19
800.894	132.61
801.074	173.57
801.254	161.28
801.434	206.33
801.614	218.62
801.794	210.43
801.974	607.73
802.154	153.09
802.334	192
802.514	216.57
802.693	138.75
802.873	198.14
803.053	179.71
803.233	165.37
803.413	216.57
803.592	136.7
803.772	175.61
803.952	189.95
804.131	196.09
804.311	200.19
804.491	228.86
804.67	142.85
804.85	228.86
805.03	196.09
805.209	210.43
805.389	183.81
805.568	187.9
805.748	208.38
805.928	77.31
806.107	173.57
806.287	198.14
806.466	132.61
806.646	175.61
806.825	103.93
807.004	202.24
807.184	189.95
807.363	165.37
807.543	187.9
807.722	148.99
807.901	185.85
808.081	189.95
808.26	110.08
808.439	105.98
808.619	134.65
808.798	99.84
808.977	155.13
809.156	126.46
809.336	130.56
809.515	196.09
809.694	118.27
809.873	194.05
810.052	187.9
810.231	132.61
810.411	134.65
810.59	192
810.769	93.69
810.948	108.03
811.127	101.89
811.306	146.94
811.485	81.41
811.664	163.33
811.843	93.69
812.022	114.17
812.201	175.61
812.38	159.23
812.559	85.5
812.737	206.33
812.916	112.13
813.095	124.41
813.274	108.03
813.453	171.52
813.632	157.18
813.811	206.33
813.989	79.36
814.168	138.75
814.347	185.85
814.526	114.17
814.704	85.5
814.883	155.13
815.062	167.42
815.24	148.99
815.419	87.55
815.598	196.09
815.776	128.51
815.955	144.89
816.133	81.41
816.312	200.19
816.49	101.89
816.669	108.03
816.847	138.75
817.026	118.27
817.204	126.46
817.383	58.88
817.561	50.69
817.74	93.69
817.918	159.23
818.097	71.17
818.275	124.41
818.453	71.17
818.632	151.04
818.81	144.89
818.988	148.99
819.167	52.74
819.345	99.84
819.523	138.75
819.701	95.74
819.879	83.45
820.058	62.98
820.236	56.83
820.414	71.17
820.592	67.07
820.77	208.38
820.948	95.74
821.127	91.65
821.305	130.56
821.483	50.69
821.661	110.08
821.839	110.08
822.017	91.65
822.195	85.5
822.373	126.46
822.551	116.22
822.729	62.98
822.907	30.21
823.085	110.08
823.262	134.65
823.44	93.69
823.618	40.45
823.796	77.31
823.974	124.41
824.152	89.6
824.329	79.36
824.507	89.6
824.685	114.17
824.863	28.16
825.04	140.8
825.218	95.74
825.396	71.17
825.574	69.12
825.751	5.63
825.929	48.64
826.107	91.65
826.284	71.17
826.462	60.93
826.639	42.5
826.817	50.69
826.994	91.65
827.172	11.78
827.349	118.27
827.527	44.54
827.704	87.55
827.882	22.02
828.059	91.65
828.237	46.59
828.414	91.65
828.591	9.73
828.769	93.69
828.946	58.88
829.124	120.32
829.301	99.84
829.478	44.54
829.655	81.41
829.833	9.73
830.01	-2.56
830.187	32.26
830.364	89.6
830.542	69.12
830.719	87.55
830.896	75.26
831.073	50.69
831.25	67.07
831.427	151.04
831.604	22.02
831.782	83.45
831.959	99.84
832.136	99.84
832.313	50.69
832.49	58.88
832.667	108.03
832.844	75.26
833.021	19.97
833.198	56.83
833.374	17.92
833.551	85.5
833.728	93.69
833.905	67.07
834.082	46.59
834.259	83.45
834.436	58.88
834.612	54.78
834.789	130.56
834.966	58.88
835.143	101.89
835.319	48.64
835.496	91.65
835.673	112.13
835.85	38.4
836.026	62.98
836.203	75.26
836.38	22.02
836.556	60.93
836.733	22.02
836.909	85.5
837.086	42.5
837.262	159.23
837.439	-12.8
837.616	71.17
837.792	50.69
837.968	67.07
838.145	19.97
838.321	5.63
838.498	44.54
838.674	56.83
838.851	91.65
839.027	19.97
839.203	32.26
839.38	44.54
839.556	89.6
839.732	89.6
839.909	60.93
840.085	-37.38
840.261	44.54
840.437	52.74
840.614	77.31
840.79	38.4
840.966	15.87
841.142	65.02
841.318	-10.75
841.494	83.45
841.671	30.21
841.847	112.13
842.023	7.68
842.199	69.12
842.375	97.79
842.551	77.31
842.727	77.31
842.903	58.88
843.079	-49.66
843.255	108.03
843.431	50.69
843.607	54.78
843.783	-14.85
843.959	60.93
844.134	-8.7
844.31	169.47
844.486	38.4
844.662	75.26
844.838	42.5
845.013	157.18
845.189	1.54
845.365	50.69
845.541	108.03
845.716	75.26
845.892	48.64
846.068	26.11
846.244	15.87
846.419	40.45
846.595	58.88
846.77	91.65
846.946	28.16
847.122	26.11
847.297	11.78
847.473	60.93
847.648	40.45
847.824	58.88
847.999	91.65
848.175	15.87
848.35	-23.04
848.526	99.84
848.701	30.21
848.876	79.36
849.052	101.89
849.227	62.98
849.403	34.3
849.578	22.02
849.753	58.88
849.929	75.26
850.104	-23.04
850.279	62.98
850.454	-16.9
850.63	17.92
850.805	22.02
850.98	17.92
851.155	60.93
851.33	9.73
851.505	11.78
851.681	28.16
851.856	-55.81
852.031	38.4
852.206	-0.51
852.381	15.87
852.556	46.59
852.731	46.59
852.906	54.78
853.081	85.5
853.256	28.16
853.431	52.74
853.606	32.26
853.781	-20.99
853.956	77.31
854.131	58.88
854.305	7.68
854.48	65.02
854.655	-18.94
854.83	50.69
855.005	-2.56
855.18	-29.18
855.354	30.21
855.529	56.83
855.704	34.3
855.879	103.93
856.053	30.21
856.228	24.06
856.403	-2.56
856.577	40.45
856.752	34.3
856.926	5.63
857.101	-25.09
857.276	44.54
857.45	17.92
857.625	15.87
857.799	75.26
857.974	5.63
858.148	-14.85
858.323	-14.85
858.497	46.59
858.672	73.21
858.846	-35.33
859.02	17.92
859.195	32.26
859.369	26.11
859.543	30.21
859.718	42.5
859.892	36.35
860.066	5.63
860.241	17.92
860.415	-27.14
860.589	7.68
860.763	-23.04
860.938	-14.85
861.112	73.21
861.286	71.17
861.46	60.93
861.634	95.74
861.808	81.41
861.982	83.45
862.157	32.26
862.331	7.68
862.505	-23.04
862.679	30.21
862.853	-45.57
863.027	60.93
863.201	60.93
863.375	79.36
863.549	32.26
863.722	75.26
863.896	-4.61
864.07	-51.71
864.244	75.26
864.418	17.92
864.592	-16.9
864.766	11.78
864.939	48.64
865.113	-23.04
865.287	38.4
865.461	38.4
865.634	120.32
865.808	67.07
865.982	24.06
866.156	-4.61
866.329	11.78
866.503	54.78
866.676	26.11
866.85	24.06
867.024	-33.28
867.197	54.78
867.371	5.63
867.544	-14.85
867.718	-37.38
867.891	56.83
868.065	-12.8
868.238	-0.51
868.412	11.78
868.585	7.68
868.759	46.59
868.932	7.68
869.105	48.64
869.279	24.06
869.452	-29.18
869.625	36.35
869.799	5.63
869.972	-53.76
870.145	-14.85
870.319	26.11
870.492	48.64
870.665	58.88
870.838	42.5
871.011	1.54
871.185	30.21
871.358	1.54
871.531	19.97
871.704	-27.14
871.877	-23.04
872.05	-2.56
872.223	-43.52
872.396	15.87
872.569	38.4
872.742	-72.19
872.915	93.69
873.088	60.93
873.261	9.73
873.434	42.5
873.607	-0.51
873.78	83.45
873.953	26.11
874.126	22.02
874.299	19.97
874.471	-4.61
874.644	-23.04
874.817	28.16
874.99	42.5
875.163	28.16
875.335	32.26
875.508	13.82
875.681	48.64
875.853	36.35
876.026	-14.85
876.199	13.82
876.371	17.92
876.544	-12.8
876.717	-0.51
876.889	42.5
877.062	60.93
877.234	17.92
877.407	-18.94
877.579	-8.7
877.752	7.68
877.924	75.26
878.097	-6.66
878.269	34.3
878.442	91.65
878.614	36.35
878.786	-16.9
878.959	-113.15
879.131	-35.33
879.303	-33.28
879.476	-12.8
879.648	-16.9
879.82	73.21
879.993	-23.04
880.165	9.73
880.337	-14.85
880.509	9.73
880.681	42.5
880.854	15.87
881.026	48.64
881.198	108.03
881.37	-74.24
881.542	67.07
881.714	42.5
881.886	50.69
882.058	-2.56
882.23	-18.94
882.402	67.07
882.574	65.02
882.746	3.58
882.918	44.54
883.09	-14.85
883.262	-57.86
883.434	-8.7
883.606	-18.94
883.778	-55.81
883.95	11.78
884.122	-72.19
884.293	19.97
884.465	-0.51
884.637	108.03
884.809	-43.52
884.98	22.02
885.152	65.02
885.324	97.79
885.496	-113.15
885.667	-20.99
885.839	-23.04
886.011	54.78
886.182	46.59
886.354	40.45
886.525	-20.99
886.697	77.31
886.869	56.83
887.04	-31.23
887.212	50.69
887.383	67.07
887.555	40.45
887.726	-29.18
887.897	9.73
888.069	50.69
888.24	15.87
888.412	-20.99
888.583	3.58
888.754	26.11
888.926	13.82
889.097	67.07
889.268	-41.47
889.44	-6.66
889.611	-45.57
889.782	42.5
889.953	-10.75
890.125	44.54
890.296	-68.09
890.467	28.16
890.638	-6.66
890.809	-27.14
890.98	-18.94
891.151	3.58
891.323	-47.62
891.494	-25.09
891.665	-68.09
891.836	-45.57
892.007	15.87
892.178	48.64
892.349	-39.42
892.52	-39.42
892.691	19.97
892.862	-12.8
893.032	34.3
893.203	9.73
893.374	24.06
893.545	17.92
893.716	36.35
893.887	-16.9
894.057	-12.8
894.228	-53.76
894.399	17.92
894.57	58.88
894.74	-6.66
894.911	-27.14
895.082	17.92
895.253	-70.14
895.423	7.68
895.594	-4.61
895.764	67.07
895.935	19.97
896.106	52.74
896.276	-18.94
896.447	17.92
896.617	-31.23
896.788	26.11
896.958	1.54
897.129	46.59
897.299	26.11
897.47	44.54
897.64	52.74
897.81	38.4
897.981	-31.23
898.151	9.73
898.322	52.74
898.492	83.45
898.662	11.78
898.832	-6.66
899.003	-16.9
899.173	22.02
899.343	17.92
899.513	1.54
