Data from USB4F104151__44__13-11-14-501.txt Node

Date: Fri Mar 14 13:11:14 EDT 2025
User: louis
Spectrometer: USB4F10415
Trigger mode: 4
Integration Time (sec): 2.000000E-2
Scans to average: 1
Electric dark correction enabled: true
Nonlinearity correction enabled: false
Boxcar width: 0
XAxis mode: Wavelengths
Number of Pixels in Spectrum: 3648
>>>>>Begin Spectral Data<<<<<
178.204	-121.17
178.424	-121.17
178.644	-121.17
178.864	-53.59
179.084	-59.73
179.304	-8.53
179.524	-45.4
179.744	34.47
179.964	-22.87
180.184	-0.34
180.404	-74.07
180.624	28.33
180.844	-26.96
181.064	5.8
181.283	-2.39
181.503	20.14
181.723	91.82
181.943	-18.77
182.163	38.57
182.383	-51.54
182.602	57
182.822	87.72
183.042	-35.16
183.262	-37.2
183.482	44.71
183.701	-41.3
183.921	48.81
184.141	11.95
184.361	89.77
184.58	-6.49
184.8	13.99
185.02	-39.25
185.239	46.76
185.459	-59.73
185.679	5.8
185.898	-8.53
186.118	34.47
186.338	7.85
186.557	93.87
186.777	-43.35
186.997	59.05
187.216	-10.58
187.436	24.23
187.655	52.91
187.875	-33.11
188.095	30.38
188.314	46.76
188.534	67.24
188.753	16.04
188.973	-16.73
189.192	-49.49
189.412	-18.77
189.631	13.99
189.851	1.71
190.07	22.19
190.29	11.95
190.509	22.19
190.729	46.76
190.948	81.58
191.168	91.82
191.387	24.23
191.607	16.04
191.826	110.25
192.045	-8.53
192.265	-41.3
192.484	-29.01
192.704	20.14
192.923	-4.44
193.142	34.47
193.362	22.19
193.581	28.33
193.8	26.28
194.02	79.53
194.239	24.23
194.458	-16.73
194.678	1.71
194.897	59.05
195.116	-47.44
195.335	1.71
195.555	7.85
195.774	-2.39
195.993	-2.39
196.212	52.91
196.432	57
196.651	13.99
196.87	-26.96
197.089	114.34
197.308	71.34
197.528	108.2
197.747	-63.83
197.966	-67.92
198.185	-2.39
198.404	-45.4
198.623	16.04
198.842	7.85
199.062	46.76
199.281	-31.06
199.5	1.71
199.719	7.85
199.938	24.23
200.157	77.48
200.376	83.63
200.595	63.15
200.814	48.81
201.033	5.8
201.252	38.57
201.471	20.14
201.69	30.38
201.909	16.04
202.128	16.04
202.347	36.52
202.566	42.67
202.785	7.85
203.004	-22.87
203.223	48.81
203.442	20.14
203.661	-92.5
203.879	-55.64
204.098	73.39
204.317	-0.34
204.536	38.57
204.755	48.81
204.974	28.33
205.193	3.75
205.411	63.15
205.63	50.86
205.849	-33.11
206.068	-31.06
206.287	-39.25
206.505	110.25
206.724	54.95
206.943	89.77
207.162	26.28
207.381	-22.87
207.599	18.09
207.818	5.8
208.037	32.43
208.255	3.75
208.474	20.14
208.693	13.99
208.911	-26.96
209.13	48.81
209.349	40.62
209.567	18.09
209.786	-35.16
210.005	32.43
210.223	20.14
210.442	-12.63
210.661	46.76
210.879	-10.58
211.098	-31.06
211.316	20.14
211.535	-10.58
211.753	22.19
211.972	28.33
212.191	-6.49
212.409	54.95
212.628	5.8
212.846	-47.44
213.065	85.67
213.283	59.05
213.502	-12.63
213.72	-22.87
213.938	54.95
214.157	-10.58
214.375	38.57
214.594	22.19
214.812	61.1
215.031	71.34
215.249	5.8
215.467	-6.49
215.686	-8.53
215.904	32.43
216.122	67.24
216.341	11.95
216.559	38.57
216.778	112.3
216.996	-8.53
217.214	34.47
217.432	-14.68
217.651	18.09
217.869	-22.87
218.087	65.19
218.306	63.15
218.524	87.72
218.742	-26.96
218.96	-2.39
219.179	-18.77
219.397	9.9
219.615	34.47
219.833	48.81
220.051	13.99
220.27	69.29
220.488	5.8
220.706	11.95
220.924	-43.35
221.142	34.47
221.36	-24.92
221.578	-24.92
221.796	5.8
222.015	18.09
222.233	13.99
222.451	54.95
222.669	7.85
222.887	75.43
223.105	-43.35
223.323	7.85
223.541	-2.39
223.759	7.85
223.977	32.43
224.195	73.39
224.413	46.76
224.631	-16.73
224.849	18.09
225.067	149.16
225.285	1.71
225.503	13.99
225.721	-33.11
225.939	7.85
226.157	9.9
226.375	71.34
226.592	26.28
226.81	18.09
227.028	-39.25
227.246	130.73
227.464	65.19
227.682	50.86
227.9	-55.64
228.117	52.91
228.335	-57.68
228.553	16.04
228.771	5.8
228.989	48.81
229.206	16.04
229.424	67.24
229.642	-63.83
229.86	1.71
230.077	26.28
230.295	-2.39
230.513	-8.53
230.731	77.48
230.948	71.34
231.166	91.82
231.384	-10.58
231.601	16.04
231.819	48.81
232.037	-6.49
232.254	16.04
232.472	-18.77
232.689	54.95
232.907	34.47
233.125	7.85
233.342	-0.34
233.56	-26.96
233.777	34.47
233.995	-2.39
234.213	13.99
234.43	85.67
234.648	54.95
234.865	-39.25
235.083	59.05
235.3	22.19
235.518	87.72
235.735	5.8
235.953	28.33
236.17	48.81
236.388	-41.3
236.605	26.28
236.822	52.91
237.04	26.28
237.257	59.05
237.475	5.8
237.692	100.01
237.909	46.76
238.127	16.04
238.344	-14.68
238.562	34.47
238.779	-41.3
238.996	9.9
239.214	32.43
239.431	57
239.648	24.23
239.865	79.53
240.083	-4.44
240.3	-31.06
240.517	91.82
240.735	89.77
240.952	-18.77
241.169	104.11
241.386	16.04
241.603	1.71
241.821	-0.34
242.038	28.33
242.255	63.15
242.472	-37.2
242.689	52.91
242.907	75.43
243.124	30.38
243.341	38.57
243.558	52.91
243.775	-18.77
243.992	-22.87
244.209	102.06
244.426	126.63
244.643	81.58
244.86	-2.39
245.078	5.8
245.295	-22.87
245.512	54.95
245.729	7.85
245.946	-18.77
246.163	-20.82
246.38	11.95
246.597	24.23
246.814	-31.06
247.031	30.38
247.248	81.58
247.464	-24.92
247.681	-2.39
247.898	30.38
248.115	-12.63
248.332	-92.5
248.549	48.81
248.766	38.57
248.983	26.28
249.2	-12.63
249.417	7.85
249.633	7.85
249.85	-59.73
250.067	85.67
250.284	24.23
250.501	5.8
250.717	-0.34
250.934	59.05
251.151	-43.35
251.368	7.85
251.585	26.28
251.801	26.28
252.018	-51.54
252.235	-10.58
252.451	20.14
252.668	-14.68
252.885	22.19
253.102	54.95
253.318	9.9
253.535	44.71
253.752	54.95
253.968	-33.11
254.185	-26.96
254.401	-16.73
254.618	-20.82
254.835	-26.96
255.051	71.34
255.268	7.85
255.484	93.87
255.701	48.81
255.917	48.81
256.134	38.57
256.351	11.95
256.567	-10.58
256.784	40.62
257	26.28
257.217	24.23
257.433	38.57
257.65	40.62
257.866	16.04
258.082	-4.44
258.299	-43.35
258.515	30.38
258.732	46.76
258.948	-31.06
259.165	9.9
259.381	-57.68
259.597	-63.83
259.814	-31.06
260.03	38.57
260.246	-0.34
260.463	11.95
260.679	63.15
260.895	-16.73
261.112	-8.53
261.328	9.9
261.544	-57.68
261.761	32.43
261.977	100.01
262.193	-45.4
262.409	-35.16
262.626	11.95
262.842	-18.77
263.058	-4.44
263.274	-14.68
263.49	-2.39
263.707	63.15
263.923	69.29
264.139	38.57
264.355	13.99
264.571	46.76
264.787	9.9
265.004	1.71
265.22	9.9
265.436	116.39
265.652	54.95
265.868	46.76
266.084	-10.58
266.3	65.19
266.516	40.62
266.732	-4.44
266.948	26.28
267.164	36.52
267.38	1.71
267.596	42.67
267.812	67.24
268.028	-92.5
268.244	87.72
268.46	48.81
268.676	18.09
268.892	28.33
269.108	16.04
269.324	34.47
269.54	-20.82
269.756	-10.58
269.972	79.53
270.188	91.82
270.403	-2.39
270.619	57
270.835	40.62
271.051	32.43
271.267	13.99
271.483	-45.4
271.698	24.23
271.914	9.9
272.13	73.39
272.346	106.15
272.562	1.71
272.777	-0.34
272.993	67.24
273.209	-16.73
273.425	22.19
273.64	50.86
273.856	63.15
274.072	-4.44
274.287	-108.88
274.503	24.23
274.719	-10.58
274.934	22.19
275.15	13.99
275.366	-18.77
275.581	-43.35
275.797	16.04
276.012	-12.63
276.228	3.75
276.444	57
276.659	-26.96
276.875	42.67
277.09	71.34
277.306	-0.34
277.521	-0.34
277.737	-51.54
277.952	22.19
278.168	-43.35
278.383	-26.96
278.599	69.29
278.814	116.39
279.03	57
279.245	38.57
279.461	65.19
279.676	30.38
279.892	-8.53
280.107	75.43
280.322	34.47
280.538	95.91
280.753	-41.3
280.969	22.19
281.184	16.04
281.399	126.63
281.615	87.72
281.83	48.81
282.045	50.86
282.26	-22.87
282.476	118.44
282.691	85.67
282.906	16.04
283.122	61.1
283.337	-22.87
283.552	100.01
283.767	-10.58
283.983	-2.39
284.198	-6.49
284.413	59.05
284.628	-67.92
284.843	30.38
285.058	75.43
285.274	-18.77
285.489	22.19
285.704	5.8
285.919	38.57
286.134	7.85
286.349	95.91
286.564	38.57
286.779	40.62
286.995	100.01
287.21	-10.58
287.425	85.67
287.64	30.38
287.855	95.91
288.07	-8.53
288.285	30.38
288.5	91.82
288.715	122.54
288.93	-18.77
289.145	-2.39
289.36	-8.53
289.575	16.04
289.79	1.71
290.004	108.2
290.219	48.81
290.434	97.96
290.649	9.9
290.864	48.81
291.079	34.47
291.294	-6.49
291.509	32.43
291.724	67.24
291.938	1.71
292.153	-10.58
292.368	69.29
292.583	40.62
292.798	108.2
293.012	9.9
293.227	-0.34
293.442	87.72
293.657	38.57
293.871	34.47
294.086	16.04
294.301	36.52
294.516	9.9
294.73	-41.3
294.945	-55.64
295.16	-10.58
295.374	34.47
295.589	73.39
295.804	5.8
296.018	50.86
296.233	77.48
296.447	-6.49
296.662	-57.68
296.877	67.24
297.091	-24.92
297.306	-61.78
297.52	-41.3
297.735	-22.87
297.949	75.43
298.164	-39.25
298.378	71.34
298.593	-57.68
298.807	-37.2
299.022	50.86
299.236	1.71
299.451	61.1
299.665	75.43
299.88	16.04
300.094	89.77
300.309	13.99
300.523	30.38
300.737	-12.63
300.952	52.91
301.166	-8.53
301.381	18.09
301.595	9.9
301.809	1.71
302.024	-57.68
302.238	5.8
302.452	149.16
302.667	24.23
302.881	40.62
303.095	-47.44
303.309	-33.11
303.524	48.81
303.738	87.72
303.952	9.9
304.166	-0.34
304.381	11.95
304.595	-10.58
304.809	54.95
305.023	106.15
305.237	3.75
305.452	57
305.666	22.19
305.88	9.9
306.094	79.53
306.308	-0.34
306.522	100.01
306.736	54.95
306.95	5.8
307.164	-18.77
307.379	-61.78
307.593	57
307.807	102.06
308.021	48.81
308.235	50.86
308.449	-65.88
308.663	30.38
308.877	44.71
309.091	11.95
309.305	40.62
309.519	9.9
309.733	102.06
309.947	-10.58
310.161	52.91
310.374	32.43
310.588	77.48
310.802	-6.49
311.016	32.43
311.23	81.58
311.444	-39.25
311.658	7.85
311.872	32.43
312.085	75.43
312.299	-2.39
312.513	9.9
312.727	-2.39
312.941	63.15
313.154	-8.53
313.368	40.62
313.582	1.71
313.796	44.71
314.009	30.38
314.223	-18.77
314.437	40.62
314.651	13.99
314.864	100.01
315.078	9.9
315.292	-16.73
315.505	-20.82
315.719	46.76
315.933	-18.77
316.146	9.9
316.36	52.91
316.573	36.52
316.787	-37.2
317.001	36.52
317.214	5.8
317.428	36.52
317.641	-6.49
317.855	-10.58
318.068	16.04
318.282	57
318.495	11.95
318.709	30.38
318.922	67.24
319.136	-41.3
319.349	-2.39
319.563	46.76
319.776	93.87
319.99	46.76
320.203	63.15
320.417	54.95
320.63	48.81
320.843	22.19
321.057	5.8
321.27	63.15
321.483	32.43
321.697	85.67
321.91	-18.77
322.124	-2.39
322.337	61.1
322.55	-0.34
322.763	42.67
322.977	46.76
323.19	-22.87
323.403	65.19
323.617	-8.53
323.83	24.23
324.043	18.09
324.256	-16.73
324.469	24.23
324.683	95.91
324.896	73.39
325.109	-22.87
325.322	32.43
325.535	75.43
325.748	11.95
325.962	26.28
326.175	-26.96
326.388	13.99
326.601	63.15
326.814	30.38
327.027	22.19
327.24	38.57
327.453	-0.34
327.666	112.3
327.879	-0.34
328.092	95.91
328.305	30.38
328.518	63.15
328.731	5.8
328.944	-0.34
329.157	61.1
329.37	28.33
329.583	38.57
329.796	28.33
330.009	-2.39
330.222	65.19
330.435	30.38
330.648	77.48
330.861	24.23
331.073	1.71
331.286	30.38
331.499	57
331.712	-49.49
331.925	18.09
332.138	5.8
332.35	52.91
332.563	1.71
332.776	16.04
332.989	34.47
333.202	-12.63
333.414	81.58
333.627	-26.96
333.84	36.52
334.053	79.53
334.265	-16.73
334.478	59.05
334.691	7.85
334.903	16.04
335.116	22.19
335.329	67.24
335.541	40.62
335.754	79.53
335.966	-63.83
336.179	22.19
336.392	28.33
336.604	57
336.817	7.85
337.029	-14.68
337.242	-33.11
337.454	-37.2
337.667	42.67
337.88	-4.44
338.092	-55.64
338.305	38.57
338.517	48.81
338.729	75.43
338.942	42.67
339.154	73.39
339.367	-18.77
339.579	40.62
339.792	65.19
340.004	26.28
340.217	46.76
340.429	-33.11
340.641	22.19
340.854	26.28
341.066	48.81
341.278	73.39
341.491	16.04
341.703	54.95
341.915	5.8
342.128	63.15
342.34	-2.39
342.552	97.96
342.764	-0.34
342.977	34.47
343.189	59.05
343.401	100.01
343.613	-33.11
343.826	75.43
344.038	-14.68
344.25	36.52
344.462	22.19
344.674	22.19
344.886	54.95
345.099	46.76
345.311	11.95
345.523	-22.87
345.735	1.71
345.947	42.67
346.159	-29.01
346.371	44.71
346.583	20.14
346.795	-18.77
347.007	42.67
347.219	65.19
347.431	120.49
347.643	134.82
347.855	26.28
348.067	50.86
348.279	-24.92
348.491	87.72
348.703	40.62
348.915	65.19
349.127	3.75
349.339	50.86
349.551	-29.01
349.763	9.9
349.975	79.53
350.187	38.57
350.399	40.62
350.61	48.81
350.822	22.19
351.034	40.62
351.246	54.95
351.458	59.05
351.669	32.43
351.881	30.38
352.093	100.01
352.305	26.28
352.517	40.62
352.728	18.09
352.94	52.91
353.152	48.81
353.363	-4.44
353.575	71.34
353.787	57
353.999	28.33
354.21	42.67
354.422	54.95
354.633	-6.49
354.845	-2.39
355.057	46.76
355.268	-0.34
355.48	9.9
355.692	46.76
355.903	26.28
356.115	24.23
356.326	-2.39
356.538	32.43
356.749	28.33
356.961	100.01
357.172	59.05
357.384	42.67
357.595	-2.39
357.807	24.23
358.018	5.8
358.23	-37.2
358.441	73.39
358.653	116.39
358.864	-35.16
359.075	-8.53
359.287	46.76
359.498	67.24
359.709	9.9
359.921	-10.58
360.132	9.9
360.344	30.38
360.555	44.71
360.766	11.95
360.977	79.53
361.189	61.1
361.4	-6.49
361.611	32.43
361.823	77.48
362.034	18.09
362.245	-6.49
362.456	40.62
362.667	65.19
362.879	-24.92
363.09	24.23
363.301	126.63
363.512	-10.58
363.723	32.43
363.935	-18.77
364.146	67.24
364.357	67.24
364.568	30.38
364.779	16.04
364.99	128.68
365.201	13.99
365.412	52.91
365.623	-2.39
365.834	-57.68
366.045	20.14
366.256	118.44
366.467	-8.53
366.678	22.19
366.889	13.99
367.1	63.15
367.311	61.1
367.522	-39.25
367.733	75.43
367.944	42.67
368.155	1.71
368.366	42.67
368.577	104.11
368.788	69.29
368.999	-39.25
369.209	-24.92
369.42	87.72
369.631	132.78
369.842	57
370.053	54.95
370.264	69.29
370.474	112.3
370.685	-57.68
370.896	42.67
371.107	22.19
371.317	22.19
371.528	63.15
371.739	71.34
371.95	57
372.16	73.39
372.371	63.15
372.582	32.43
372.792	57
373.003	116.39
373.214	95.91
373.424	-49.49
373.635	42.67
373.846	67.24
374.056	13.99
374.267	-35.16
374.477	22.19
374.688	46.76
374.898	40.62
375.109	-55.64
375.319	71.34
375.53	87.72
375.74	79.53
375.951	-26.96
376.161	26.28
376.372	3.75
376.582	44.71
376.793	57
377.003	57
377.214	46.76
377.424	-14.68
377.635	57
377.845	61.1
378.055	46.76
378.266	34.47
378.476	87.72
378.686	32.43
378.897	85.67
379.107	40.62
379.317	38.57
379.528	38.57
379.738	59.05
379.948	-59.73
380.158	61.1
380.369	-2.39
380.579	97.96
380.789	75.43
380.999	-43.35
381.21	20.14
381.42	48.81
381.63	38.57
381.84	40.62
382.05	57
382.261	73.39
382.471	30.38
382.681	-22.87
382.891	93.87
383.101	65.19
383.311	7.85
383.521	106.15
383.731	104.11
383.941	85.67
384.151	26.28
384.361	20.14
384.571	81.58
384.781	54.95
384.991	114.34
385.201	71.34
385.411	122.54
385.621	24.23
385.831	24.23
386.041	77.48
386.251	20.14
386.461	18.09
386.671	24.23
386.881	30.38
387.091	-63.83
387.301	24.23
387.511	-0.34
387.72	83.63
387.93	79.53
388.14	9.9
388.35	46.76
388.56	143.02
388.769	91.82
388.979	-0.34
389.189	48.81
389.399	102.06
389.609	1.71
389.818	36.52
390.028	9.9
390.238	71.34
390.447	30.38
390.657	32.43
390.867	1.71
391.076	-31.06
391.286	71.34
391.496	38.57
391.705	57
391.915	-6.49
392.125	77.48
392.334	-35.16
392.544	26.28
392.753	59.05
392.963	46.76
393.172	26.28
393.382	75.43
393.591	95.91
393.801	65.19
394.01	73.39
394.22	38.57
394.429	87.72
394.639	89.77
394.848	30.38
395.058	54.95
395.267	102.06
395.477	61.1
395.686	46.76
395.895	83.63
396.105	112.3
396.314	91.82
396.524	83.63
396.733	73.39
396.942	112.3
397.152	13.99
397.361	85.67
397.57	122.54
397.78	97.96
397.989	44.71
398.198	83.63
398.407	87.72
398.617	116.39
398.826	52.91
399.035	104.11
399.244	48.81
399.453	79.53
399.663	32.43
399.872	108.2
400.081	95.91
400.29	87.72
400.499	40.62
400.708	179.88
400.917	20.14
401.127	97.96
401.336	73.39
401.545	110.25
401.754	54.95
401.963	85.67
402.172	85.67
402.381	65.19
402.59	112.3
402.799	48.81
403.008	167.59
403.217	95.91
403.426	161.45
403.635	57
403.844	85.67
404.053	89.77
404.262	130.73
404.471	171.69
404.68	112.3
404.888	126.63
405.097	132.78
405.306	54.95
405.515	124.58
405.724	149.16
405.933	122.54
406.142	161.45
406.35	42.67
406.559	134.82
406.768	181.93
406.977	161.45
407.185	104.11
407.394	114.34
407.603	108.2
407.812	97.96
408.02	163.5
408.229	102.06
408.438	132.78
408.646	87.72
408.855	163.5
409.064	173.74
409.272	161.45
409.481	216.74
409.69	179.88
409.898	288.42
410.107	179.88
410.315	196.26
410.524	278.18
410.733	265.89
410.941	226.98
411.15	239.27
411.358	333.48
411.567	239.27
411.775	315.05
411.984	278.18
412.192	325.29
412.401	329.38
412.609	319.14
412.818	407.2
413.026	362.15
413.234	319.14
413.443	272.04
413.651	349.86
413.86	431.78
414.068	458.4
414.276	474.79
414.485	464.55
414.693	448.16
414.901	468.64
415.11	528.03
415.318	513.7
415.526	532.13
415.734	554.66
415.943	577.19
416.151	577.19
416.359	605.86
416.567	607.91
416.776	693.92
416.984	669.34
417.192	726.69
417.4	720.54
417.608	652.96
417.817	753.31
418.025	784.03
418.233	870.05
418.441	847.52
418.649	949.92
418.857	978.59
419.065	945.82
419.273	1007.26
419.481	1025.69
419.689	1085.08
419.897	1087.13
420.105	1076.89
420.313	1193.62
420.521	1201.82
420.729	1265.3
420.937	1179.29
421.145	1390.23
421.353	1441.43
421.561	1396.37
421.769	1400.47
421.977	1535.64
422.185	1468.05
422.393	1603.22
422.601	1584.79
422.809	1762.96
423.017	1771.15
423.224	1779.34
423.432	1898.13
423.64	1969.8
423.848	2070.16
424.056	1965.71
424.263	2178.7
424.471	2098.83
424.679	2053.77
424.887	2317.96
425.094	2252.42
425.302	2506.37
425.51	2416.26
425.718	2588.29
425.925	2635.39
426.133	2563.72
426.341	2758.27
426.548	2932.35
426.756	2956.93
426.964	3047.04
427.171	3090.04
427.379	3214.97
427.586	3260.02
427.794	3430.01
428.001	3589.75
428.209	3712.63
428.417	3661.43
428.624	3831.41
428.832	3905.14
429.039	3987.05
429.247	3901.04
429.454	4257.39
429.662	4501.09
429.869	4173.42
430.076	4548.2
430.284	4548.2
430.491	4593.25
430.699	4669.03
430.906	4832.86
431.114	4929.12
431.321	5224.03
431.528	5236.31
431.736	5602.9
431.943	5815.89
432.15	5512.79
432.358	5715.54
432.565	6037.07
432.772	6069.84
432.979	6311.5
433.187	6372.94
433.394	6475.34
433.601	6848.07
433.808	6954.56
434.016	6815.3
434.223	7073.34
434.43	7634.49
434.637	7575.1
434.844	7960.11
435.052	8181.29
435.259	8250.92
435.466	8209.97
435.673	8046.13
435.88	8719.91
436.087	9137.7
436.294	9160.22
436.501	8853.03
436.708	9010.72
436.915	9276.96
437.122	9860.63
437.329	9846.29
437.537	10241.55
437.743	10354.19
437.95	10032.66
438.157	10466.83
438.364	11230.72
438.571	10995.2
438.778	10978.82
438.985	12162.55
439.192	11650.55
439.399	11931.12
439.606	11859.45
439.813	12342.77
440.02	13233.63
440.227	12928.49
440.433	12776.94
440.64	13231.58
440.847	13145.57
441.054	13508.06
441.261	14394.83
441.467	14075.35
441.674	14355.92
441.881	14998.98
442.088	15007.17
442.294	14910.92
442.501	15252.93
442.708	15549.89
442.914	16291.25
443.121	16872.87
443.328	16287.15
443.534	17692.06
443.741	17198.5
443.948	16924.07
444.154	17993.11
444.361	18040.22
444.568	18265.49
444.774	18230.68
444.981	18367.89
445.187	18728.33
445.394	19506.56
445.6	19465.6
445.807	21239.14
446.013	20690.29
446.22	20686.19
446.426	21755.23
446.633	21716.32
446.839	22623.57
447.046	21515.62
447.252	22986.06
447.459	22861.13
447.665	22785.36
447.871	23936.32
448.078	24874.29
448.284	24008
448.491	24655.15
448.697	25402.66
448.903	25894.18
449.11	25849.12
449.316	25394.47
449.522	26197.27
449.728	26807.57
449.935	26969.36
450.141	27073.81
450.347	28019.97
450.553	26613.01
450.76	27401.48
450.966	27903.23
451.172	28056.83
451.378	28675.32
451.584	28140.8
451.791	28585.21
451.997	28546.3
452.203	29068.53
452.409	28800.24
452.615	28912.88
452.821	27655.43
453.027	27634.95
453.233	29025.52
453.44	28046.59
453.646	28331.26
453.852	28388.6
454.058	28747
454.264	28110.08
454.47	28779.76
454.676	27911.42
454.882	29152.49
455.088	26539.29
455.294	27036.94
455.5	27186.44
455.705	27901.18
455.911	26805.52
456.117	26076.44
456.323	25769.25
456.529	24571.19
456.735	25453.86
456.941	24657.2
457.147	24470.84
457.352	23729.47
457.558	23162.19
457.764	23424.33
457.97	23033.16
458.176	22672.72
458.381	22900.05
458.587	21394.79
458.793	21368.16
458.999	20366.71
459.204	21835.1
459.41	21017.96
459.616	19690.88
459.821	19780.99
460.027	19576.19
460.233	19701.12
460.438	18597.26
460.644	18738.57
460.85	17892.76
461.055	17569.18
461.261	17845.66
461.466	16399.79
461.672	15404.48
461.878	16909.74
462.083	15484.35
462.289	15478.21
462.494	15201.73
462.7	14659.02
462.905	14255.57
463.111	14542.28
463.316	14833.1
463.522	14392.78
463.727	14607.82
463.932	14587.34
464.138	14390.74
464.343	14302.67
464.549	14224.85
464.754	14294.48
464.959	14106.07
465.165	14208.47
465.37	13555.16
465.575	13307.36
465.781	13854.17
465.986	13809.11
466.191	13116.9
466.397	13202.91
466.602	12195.31
466.807	13063.65
467.012	13018.6
467.218	12885.48
467.423	12506.6
467.628	12723.69
467.833	13155.81
468.038	12776.94
468.244	12371.44
468.449	12893.67
468.654	12631.53
468.859	12275.18
469.064	12275.18
469.269	11675.13
469.474	11886.07
469.679	12293.62
469.885	11777.53
470.09	11949.56
470.295	11974.13
470.5	11501.05
470.705	11660.79
470.91	11519.48
471.115	11548.15
471.32	11607.55
471.525	11597.31
471.73	10995.2
471.935	11111.94
472.139	10667.53
472.344	10827.27
472.549	11036.16
472.754	10737.16
472.959	10483.21
473.164	10296.85
473.369	10182.16
473.574	10585.61
473.778	10389
473.983	10421.77
474.188	10305.04
474.393	9760.28
474.598	9752.09
474.802	9657.88
475.007	9733.65
475.212	9614.87
475.417	9395.74
475.621	9332.25
475.826	9549.34
476.031	9242.14
476.235	8990.24
476.44	9248.29
476.645	8984.1
476.849	9113.12
477.054	9041.44
477.259	8873.51
477.463	8887.84
477.668	8404.52
477.872	8603.18
478.077	8357.42
478.282	8480.3
478.486	8363.56
478.691	8062.51
478.895	8070.7
479.1	8289.84
479.304	8367.66
479.509	7783.99
479.713	8113.71
479.918	7939.63
480.122	7800.37
480.326	8011.31
480.531	7788.08
480.735	7783.99
480.94	7581.24
481.144	7867.95
481.348	7583.29
481.553	7644.73
481.757	7398.97
481.961	7796.28
482.166	7730.74
482.37	7798.32
482.574	7480.89
482.778	7425.59
482.983	7859.76
483.187	7650.87
483.391	7536.18
483.595	7697.97
483.8	7480.89
484.004	7521.85
484.208	7689.78
484.412	7507.51
484.616	7403.07
484.821	7626.29
485.025	7378.49
485.229	7720.5
485.433	7575.1
485.637	7554.62
485.841	7523.9
486.045	7341.63
486.249	7573.05
486.453	7474.74
486.657	7560.76
486.861	7534.14
487.065	7558.71
487.269	7556.66
487.473	7382.59
487.677	7571
487.881	7581.24
488.085	7394.87
488.289	7489.08
488.493	7419.45
488.697	7487.03
488.901	7515.7
489.105	7683.64
489.309	7687.73
489.512	7755.32
489.716	7708.21
489.92	7681.59
490.124	7388.73
490.328	7620.15
490.531	7669.3
490.735	7786.04
490.939	7747.12
491.143	7673.4
491.346	7833.14
491.55	8009.26
491.754	7888.43
491.958	7747.12
492.161	7999.02
492.365	8107.57
492.569	7937.59
492.772	8039.98
492.976	7982.64
493.18	8218.16
493.383	8232.49
493.587	8128.05
493.79	8244.78
493.994	8111.66
494.197	8269.36
494.401	8384.04
494.605	8390.19
494.808	8433.19
495.012	8523.3
495.215	8625.7
495.419	8676.9
495.622	8666.66
495.825	8793.64
496.029	8936.99
496.232	8861.22
496.436	8803.88
496.639	9164.32
496.843	9264.67
497.046	9211.42
497.249	9397.79
497.453	9573.91
497.656	9434.65
497.859	9637.4
498.063	9584.15
498.266	9791
498.469	9631.26
498.673	10001.94
498.876	10100.24
499.079	10112.53
499.282	10067.47
499.485	10337.8
499.689	10212.88
499.892	10659.34
500.095	10542.6
500.298	10880.52
500.501	10763.78
500.705	11083.27
500.908	11200
501.111	11372.03
501.314	11607.55
501.517	11255.29
501.72	11566.59
501.923	11716.09
502.126	11910.64
502.329	11935.22
502.532	11951.6
502.735	12213.74
502.938	12357.1
503.141	12565.99
503.344	12813.8
503.547	12656.11
503.75	12971.49
503.953	13157.86
504.156	13077.99
504.359	13489.63
504.562	13546.97
504.765	13622.75
504.968	13815.26
505.17	14005.72
505.373	14089.68
505.576	14431.69
505.779	14237.14
505.982	14534.09
506.185	14824.9
506.387	14810.57
506.59	14880.2
506.793	15496.64
506.996	15250.88
507.198	15533.5
507.401	15490.49
507.604	15988.15
507.807	16407.98
508.009	16231.86
508.212	16350.64
508.415	16827.82
508.617	16723.37
508.82	16901.54
509.022	16952.74
509.225	17327.52
509.428	17647.01
509.63	17393.06
509.833	17565.09
510.035	17900.95
510.238	17696.16
510.44	18126.23
510.643	18709.9
510.845	18699.66
511.048	18388.37
511.25	18918.79
511.453	19160.45
511.655	19731.84
511.858	19572.1
512.06	19703.17
512.262	19987.83
512.465	19928.44
512.667	20366.71
512.87	20426.1
513.072	20473.2
513.274	20753.77
513.477	21198.18
513.679	21204.33
513.881	21507.43
514.084	21693.79
514.286	21298.53
514.488	21853.53
514.69	22723.92
514.893	22517.08
515.095	22598.99
515.297	22969.68
515.499	22834.51
515.701	23166.28
515.904	23684.42
516.106	23672.13
516.308	23948.61
516.51	24010.04
516.712	24460.6
516.914	24284.47
517.116	25175.34
517.318	24982.83
517.52	25247.02
517.722	25220.39
517.925	25423.14
518.127	25859.36
518.329	25668.9
518.531	26027.29
518.733	26551.57
518.935	26823.95
519.136	27028.75
519.338	27213.07
519.54	27376.9
519.742	27950.34
519.944	27675.91
520.146	28206.33
520.348	28321.02
520.55	28429.56
520.752	28413.18
520.954	28880.11
521.155	28898.55
521.357	29302
521.559	29592.81
521.761	30321.88
521.963	29897.95
522.164	29930.72
522.366	30426.33
522.568	30534.87
522.77	30932.18
522.971	31540.43
523.173	31112.4
523.375	31556.81
523.576	31284.43
523.778	31657.16
523.98	32019.65
524.181	31847.62
524.383	31921.35
524.584	32720.06
524.786	32525.5
524.988	32474.3
525.189	32656.57
525.391	33311.92
525.592	32996.53
525.794	33467.56
525.995	33539.24
526.197	33531.05
526.398	33703.08
526.6	33860.77
526.801	34292.9
527.003	34512.03
527.204	34497.69
527.406	34458.78
527.607	34573.47
527.808	34722.97
528.01	34800.79
528.211	34436.25
528.412	35304.59
528.614	35320.98
528.815	35464.33
529.016	35591.31
529.218	35450
529.419	35480.72
529.62	35572.88
529.822	35937.41
530.023	35605.64
530.224	35837.06
530.425	35863.69
530.626	35548.3
530.828	35617.93
531.029	36361.34
531.23	35843.21
531.431	35818.63
531.632	36402.3
531.833	36353.15
532.035	36324.48
532.236	36193.41
532.437	36672.64
532.638	36469.89
532.839	36426.88
533.04	36076.68
533.241	36564.09
533.442	37043.32
533.643	36435.07
533.844	36709.5
534.045	36619.39
534.246	36447.36
534.447	36734.07
534.648	36551.8
534.849	36557.95
535.05	36510.85
535.251	36363.39
535.451	36533.37
535.652	36648.06
535.853	36711.55
536.054	36859
536.255	36750.46
536.456	36467.84
536.657	37031.03
536.857	36725.88
537.058	36510.85
537.259	36840.57
537.46	36869.24
537.66	36756.6
537.861	37143.67
538.062	37090.42
538.263	37008.5
538.463	36611.2
538.664	36594.81
538.865	36973.69
539.065	36732.03
539.266	36553.85
539.466	37375.09
539.667	36424.83
539.868	36916.34
540.068	36916.34
540.269	36516.99
540.469	36942.97
540.67	36564.09
540.87	37164.15
541.071	36607.1
541.271	36977.78
541.472	36560
541.672	36336.77
541.873	36807.8
542.073	35859.59
542.274	37016.69
542.474	36811.9
542.675	36357.25
542.875	36873.34
543.075	37055.61
543.276	36260.99
543.476	36719.74
543.676	36609.15
543.877	36916.34
544.077	36666.49
544.277	36426.88
544.478	36277.38
544.678	36873.34
544.878	36797.56
545.078	36557.95
545.279	36574.33
545.479	36316.29
545.679	36678.78
545.879	36535.42
546.079	36363.39
546.28	36656.25
546.48	36048
546.68	36869.24
546.88	36570.24
547.08	36562.04
547.28	36756.6
547.48	36545.66
547.68	36549.76
547.88	36426.88
548.081	36789.37
548.281	36646.01
548.481	36332.67
548.681	36760.7
548.881	36451.45
549.081	36154.5
549.28	36131.97
549.48	36529.28
549.68	36113.54
549.88	36736.12
550.08	36222.08
550.28	36426.88
550.48	36426.88
550.68	36689.02
550.88	36187.27
551.08	36414.59
551.279	36351.1
551.479	35798.15
551.679	36281.47
551.879	36174.98
552.079	36390.02
552.278	36070.53
552.478	36152.45
552.678	36234.37
552.878	36166.79
553.077	36031.62
553.277	36048
553.477	36353.15
553.676	35835.02
553.876	36215.94
554.076	36113.54
554.275	36066.44
554.475	35714.19
554.674	36269.19
554.874	36336.77
555.074	35810.44
555.273	35910.79
555.473	36306.05
555.672	35476.62
555.872	35648.65
556.071	35859.59
556.271	35767.43
556.47	35804.3
556.67	35417.23
556.869	35406.99
557.068	35529.87
557.268	35198.1
557.467	35669.13
557.667	35544.2
557.866	35648.65
558.065	35189.91
558.265	35503.24
558.464	34878.61
558.663	35185.81
558.863	35153.04
559.062	35169.43
559.261	34673.82
559.461	35392.65
559.66	34749.59
559.859	34753.69
560.058	34895
560.258	35118.23
560.457	34862.23
560.656	34489.5
560.855	34639
561.054	34843.8
561.253	34555.04
561.453	34401.44
561.652	34520.22
561.851	34548.89
562.05	34661.53
562.249	34413.73
562.448	34469.02
562.647	34237.6
562.846	33862.82
563.045	33782.95
563.244	33723.56
563.443	34145.44
563.642	33682.6
563.841	33991.84
564.04	33694.89
564.239	34114.72
564.438	33510.57
564.637	33600.68
564.836	33623.21
565.035	33113.27
565.234	33483.95
565.432	33195.18
565.631	33221.81
565.83	33563.82
566.029	32939.19
566.228	33279.15
566.427	32720.06
566.625	33084.59
566.824	32687.29
567.023	32998.58
567.222	32396.48
567.42	32810.17
567.619	32931
567.818	32636.09
568.016	32496.83
568.215	32586.94
568.414	32228.54
568.612	32740.54
568.811	31976.64
569.01	32134.34
569.208	31573.19
569.407	32105.66
569.605	31569.1
569.804	31880.39
570.002	31636.68
570.201	31741.13
570.4	31593.67
570.598	31515.85
570.797	31034.58
570.995	31325.39
571.193	30622.94
571.392	31630.54
571.59	30885.08
571.789	31044.82
571.987	30907.6
572.186	30952.66
572.384	30506.2
572.582	30694.61
572.781	30964.95
572.979	30254.3
573.177	30592.22
573.376	30528.73
573.574	30194.91
573.772	30555.35
573.971	30213.34
574.169	29887.71
574.367	29904.1
574.565	30285.02
574.763	29781.22
574.962	30117.09
575.16	29443.31
575.358	29336.81
575.556	29097.2
575.754	29650.15
575.952	29345
576.151	29375.72
576.349	28763.38
576.547	29455.59
576.745	29279.47
576.943	29537.51
577.141	29226.22
577.339	29015.28
577.537	28585.21
577.735	28468.47
577.933	28679.41
578.131	28843.25
578.329	28450.04
578.527	28232.96
578.725	28607.73
578.923	28179.71
579.121	28216.57
579.319	28081.41
579.516	28245.24
579.714	27634.95
579.912	27964.67
580.11	27901.18
580.308	27528.45
580.506	27821.31
580.704	27317.51
580.901	27591.94
581.099	27821.31
581.297	27475.21
581.495	27352.33
581.692	27362.57
581.89	27350.28
582.088	27249.93
582.285	27127.05
582.483	26891.54
582.681	26957.07
582.878	26774.8
583.076	26430.74
583.274	26752.27
583.471	26465.56
583.669	26682.64
583.866	26668.31
584.064	26502.42
584.262	26443.03
584.459	26477.85
584.657	26043.68
584.854	26332.44
585.052	25842.98
585.249	26365.21
585.447	26234.14
585.644	25855.26
585.841	25955.61
586.039	26285.34
586.236	25546.02
586.434	25480.49
586.631	25845.02
586.828	25679.14
587.026	25484.58
587.223	25167.15
587.42	25480.49
587.618	25599.27
587.815	25064.75
588.012	25019.69
588.21	25079.08
588.407	25003.31
588.604	25034.03
588.801	24841.52
588.999	24642.87
589.196	24528.18
589.393	24984.88
589.59	24784.18
589.787	24769.84
589.984	24720.69
590.182	24325.43
590.379	24175.93
590.576	24005.95
590.773	24087.87
590.97	24229.18
591.167	24020.28
591.364	23661.89
591.561	24057.15
591.758	23258.44
591.955	23934.27
592.152	23971.13
592.349	23309.64
592.546	23653.7
592.743	23590.21
592.94	23197
593.137	23463.24
593.334	23496
593.531	23008.59
593.727	23260.49
593.924	23084.36
594.121	23088.46
594.318	22973.77
594.515	22801.74
594.712	23055.69
594.908	22619.47
595.105	22998.35
595.302	22642
595.499	22582.61
595.696	22369.62
595.892	22068.57
596.089	22234.46
596.286	22113.63
596.482	22285.65
596.679	22261.08
596.876	22232.41
597.072	22113.63
597.269	21970.27
597.466	21878.11
597.662	21765.47
597.859	21831.01
598.055	21814.62
598.252	21783.9
598.448	21687.65
598.645	21476.71
598.841	21415.27
599.038	21235.05
599.234	21251.43
599.431	21255.53
599.627	21120.36
599.824	21345.64
600.02	20895.08
600.217	20813.17
600.413	20821.36
600.609	20981.1
600.806	20761.97
601.002	20718.96
601.198	20522.35
601.395	20583.79
601.591	20460.91
601.787	20573.55
601.984	20186.49
602.18	20415.86
602.376	20417.91
602.572	20161.91
602.769	20321.65
602.965	20338.04
603.161	20127.1
603.357	20155.77
603.553	20145.53
603.75	20000.12
603.946	19541.38
604.142	19942.78
604.338	19582.34
604.534	19570.05
604.73	19295.62
604.926	19371.4
605.122	19393.92
605.318	19684.73
605.514	19242.37
605.71	19260.8
605.906	19117.45
606.102	19414.4
606.298	19365.25
606.494	19389.83
606.69	19185.03
606.886	19129.73
607.082	18849.16
607.278	19150.21
607.474	18601.36
607.67	18980.23
607.866	18722.19
608.062	18695.57
608.257	18912.65
608.453	18494.86
608.649	18621.84
608.845	18503.06
609.041	18800.01
609.236	18570.64
609.432	18384.27
609.628	18462.1
609.824	18308.5
610.019	18402.71
610.215	18271.64
610.411	17997.21
610.606	17939.86
610.802	18234.77
610.998	17954.2
611.193	18175.38
611.389	18161.05
611.584	18038.17
611.78	17874.33
611.976	18032.02
612.171	17886.62
612.367	17999.26
612.562	17591.71
612.758	17720.73
612.953	17577.37
613.149	17989.02
613.344	17788.32
613.539	17765.79
613.735	17563.04
613.93	17667.49
614.126	17532.32
614.321	17757.6
614.517	17657.25
614.712	17360.29
614.907	17386.91
615.103	17513.89
615.298	17386.91
615.493	17464.74
615.688	17046.95
615.884	17624.48
616.079	17032.61
616.274	17186.21
616.47	17032.61
616.665	17237.41
616.86	16995.75
617.055	16926.12
617.25	16940.46
617.445	16932.26
617.641	16641.45
617.836	16995.75
618.031	16659.88
618.226	16772.52
618.421	16756.14
618.616	17042.85
618.811	16295.35
619.006	16682.41
619.201	16252.34
619.396	16461.23
619.591	16270.77
619.786	16281.01
619.981	16051.64
620.176	16227.76
620.371	16240.05
620.566	16045.49
620.761	15785.4
620.956	15783.35
621.151	15701.44
621.346	15816.12
621.541	15431.1
621.735	15465.92
621.93	15408.58
622.125	15513.02
622.32	15281.6
622.515	15261.12
622.709	15236.55
622.904	15353.28
623.099	14953.93
623.294	15277.51
623.488	14710.22
623.683	14853.58
623.878	14345.68
624.072	14788.04
624.267	14693.83
624.462	14644.68
624.656	14169.55
624.851	14384.59
625.046	14437.84
625.24	14280.14
625.435	14052.82
625.629	13958.61
625.824	13825.5
626.018	14220.75
626.213	13792.73
626.407	13727.19
626.602	13579.74
626.796	13663.71
626.991	13628.89
627.185	13544.92
627.38	13446.62
627.574	13329.89
627.768	13235.68
627.963	13280.74
628.157	13415.9
628.352	13030.88
628.546	12752.36
628.74	13032.93
628.935	12983.78
629.129	12897.77
629.323	12738.02
629.517	12772.84
629.712	12670.44
629.906	12541.42
630.1	12307.95
630.294	12713.45
630.489	12410.35
630.683	12504.56
630.877	12271.09
631.071	12088.82
631.265	12117.49
631.459	11931.12
631.653	12043.76
631.848	11824.63
632.042	11804.15
632.236	11933.17
632.43	11806.2
632.624	11738.62
632.818	11748.86
633.012	11449.85
633.206	11539.96
633.4	11650.55
633.594	11197.95
633.788	11433.47
633.982	11343.36
634.176	11337.21
634.369	11126.27
634.563	11109.89
634.757	11236.86
634.951	11202.05
635.145	11140.61
635.339	10964.48
635.533	11083.27
635.726	10864.13
635.92	10794.5
636.114	10604.04
636.308	10556.94
636.501	10429.96
636.695	10601.99
636.889	10149.39
637.083	10266.13
637.276	10212.88
637.47	10225.17
637.664	10151.44
637.857	10046.99
638.051	10149.39
638.244	9995.79
638.438	10112.53
638.632	10069.52
638.825	9772.57
639.019	9911.83
639.212	9676.31
639.406	9684.5
639.599	9625.11
639.793	9674.26
639.986	9553.43
640.18	9356.83
640.373	9410.08
640.567	9365.02
640.76	9356.83
640.954	9270.81
641.147	9281.05
641.34	9379.36
641.534	9215.52
641.727	9281.05
641.92	9125.41
642.114	9033.25
642.307	8988.19
642.5	9025.06
642.694	8824.36
642.887	8814.12
643.08	8844.84
643.273	8791.59
643.467	8668.71
643.66	8537.64
643.853	8418.86
644.046	8554.02
644.239	8711.72
644.432	8357.42
644.626	8517.16
644.819	8416.81
645.012	8384.04
645.205	8291.88
645.398	8379.95
645.591	8230.45
645.784	8152.62
645.977	8089.14
646.17	8064.56
646.363	8001.07
646.556	7872.05
646.749	8109.61
646.942	8068.66
647.135	8017.46
647.328	7687.73
647.521	7900.72
647.714	7646.77
647.907	7796.28
648.099	7722.55
648.292	7677.49
648.485	7714.36
648.678	7515.7
648.871	7497.27
649.064	7374.39
649.256	7515.7
649.449	7198.27
649.642	7394.87
649.835	7233.08
650.027	7147.07
650.22	7206.46
650.413	7173.69
650.605	7329.34
650.798	7001.66
650.991	7095.87
651.183	6987.33
651.376	6929.98
651.568	6886.98
651.761	7009.86
651.954	6999.62
652.146	6886.98
652.339	6723.14
652.531	6829.63
652.724	6690.37
652.916	6616.65
653.109	6647.37
653.301	6678.08
653.494	6753.86
653.686	6436.42
653.879	6583.88
654.071	6579.78
654.263	6417.99
654.456	6444.62
654.648	6506.06
654.84	6313.55
655.033	6223.44
655.225	6307.4
655.417	6172.24
655.61	6286.92
655.802	6313.55
655.994	6415.94
656.186	6094.41
656.379	6252.11
656.571	6139.47
656.763	6147.66
656.955	6145.61
657.148	6030.93
657.34	6039.12
657.532	5887.57
657.724	5930.58
657.916	5955.15
658.108	5736.02
658.3	5822.03
658.492	5865.04
658.684	5639.76
658.876	5764.69
659.068	5697.11
659.26	5512.79
659.452	5670.48
659.644	5561.94
659.836	5547.61
660.028	5398.1
660.22	5480.02
660.412	5559.89
660.604	5297.75
660.796	5351
660.988	5379.67
661.18	5492.31
661.372	5242.46
661.563	5441.11
661.755	5209.69
661.947	5389.91
662.139	5346.91
662.331	5123.68
662.522	5092.96
662.714	5131.87
662.906	4992.61
663.097	5129.82
663.289	4961.89
663.481	4978.27
663.673	4947.55
663.864	4984.41
664.056	4896.35
664.247	4865.63
664.439	4869.73
664.631	4871.78
664.822	4873.82
665.014	4847.2
665.205	4853.34
665.397	4652.64
665.588	4879.97
665.78	4669.03
665.971	4671.08
666.163	4568.68
666.354	4615.78
666.546	4552.29
666.737	4570.72
666.929	4462.18
667.12	4593.25
667.311	4580.96
667.503	4464.23
667.694	4451.94
667.885	4370.02
668.077	4462.18
668.268	4347.5
668.459	4374.12
668.651	4345.45
668.842	4318.82
669.033	4331.11
669.224	4337.26
669.416	4200.04
669.607	4218.47
669.798	4220.52
669.989	4195.95
670.18	4220.52
670.371	4275.82
670.563	4224.62
670.754	4273.77
670.945	4175.47
671.136	4081.26
671.327	3970.67
671.518	4007.53
671.709	4013.68
671.9	4101.74
672.091	3964.53
672.282	3888.75
672.473	3987.05
672.664	4003.44
672.855	3864.18
673.046	3849.84
673.237	4001.39
673.428	3843.7
673.619	3880.56
673.809	3810.93
674	3841.65
674.191	3743.35
674.382	3812.98
674.573	3968.62
674.764	3759.73
674.954	3702.39
675.145	3841.65
675.336	3800.69
675.527	3794.54
675.717	3761.78
675.908	3772.02
676.099	3690.1
676.289	3716.72
676.48	3638.9
676.671	3651.19
676.861	3624.56
677.052	3597.94
677.243	3589.75
677.433	3446.39
677.624	3614.32
677.814	3542.64
678.005	3602.04
678.195	3444.34
678.386	3507.83
678.576	3477.11
678.767	3333.75
678.957	3438.2
679.148	3503.73
679.338	3466.87
679.529	3358.33
679.719	3440.25
679.909	3411.57
680.1	3354.23
680.29	3319.42
680.481	3366.52
680.671	3413.62
680.861	3397.24
681.052	3407.48
681.242	3305.08
681.432	3329.66
681.622	3286.65
681.813	3282.55
682.003	3364.47
682.193	3094.14
682.383	3167.87
682.573	3262.07
682.764	3237.5
682.954	3235.45
683.144	3167.87
683.334	3321.46
683.524	3085.95
683.714	3190.39
683.904	3163.77
684.094	3106.43
684.284	3147.39
684.474	3116.67
684.664	3202.68
684.854	3108.48
685.044	3063.42
685.234	3057.28
685.424	3061.37
685.614	3100.28
685.804	3090.04
685.994	2930.3
686.184	3100.28
686.374	3032.7
686.564	2926.21
686.753	2991.74
686.943	3071.61
687.133	3001.98
687.323	2909.82
687.513	3022.46
687.702	3014.27
687.892	2954.88
688.082	3047.04
688.272	2875.01
688.461	2875.01
688.651	2932.35
688.841	2975.36
689.03	2766.46
689.22	2709.12
689.41	2850.43
689.599	2856.58
689.789	2891.39
689.979	2877.05
690.168	2866.81
690.358	2909.82
690.547	2813.57
690.737	2793.09
690.926	2774.66
691.116	2733.7
691.305	2811.52
691.495	2774.66
691.684	2786.94
691.874	2762.37
692.063	2709.12
692.252	2719.36
692.442	2684.55
692.631	2731.65
692.82	2748.03
693.01	2578.05
693.199	2774.66
693.388	2612.87
693.578	2723.46
693.767	2737.79
693.956	2594.44
694.146	2635.39
694.335	2619.01
694.524	2551.43
694.713	2653.83
694.902	2586.24
695.092	2637.44
695.281	2594.44
695.47	2477.7
695.659	2453.13
695.848	2440.84
696.037	2567.81
696.226	2565.76
696.415	2446.98
696.604	2598.53
696.793	2524.8
696.982	2596.48
697.171	2598.53
697.36	2565.76
697.549	2508.42
697.738	2500.23
697.927	2446.98
698.116	2502.28
698.305	2408.07
698.494	2313.86
698.683	2442.89
698.872	2358.92
699.061	2422.41
699.25	2516.61
699.438	2446.98
699.627	2317.96
699.816	2508.42
700.005	2418.31
700.193	2502.28
700.382	2586.24
700.571	2416.26
700.76	2500.23
700.948	2416.26
701.137	2463.37
701.326	2365.06
701.514	2442.89
701.703	2352.77
701.892	2465.41
702.08	2473.6
702.269	2463.37
702.457	2348.68
702.646	2434.69
702.834	2332.3
703.023	2438.79
703.212	2424.45
703.4	2438.79
703.589	2336.39
703.777	2467.46
703.965	2332.3
704.154	2332.3
704.342	2317.96
704.531	2338.44
704.719	2389.64
704.907	2336.39
705.096	2311.82
705.284	2344.58
705.472	2266.76
705.661	2399.88
705.849	2393.73
706.037	2336.39
706.226	2381.45
706.414	2332.3
706.602	2395.78
706.79	2307.72
706.979	2338.44
707.167	2365.06
707.355	2313.86
707.543	2381.45
707.731	2389.64
707.919	2424.45
708.107	2381.45
708.296	2336.39
708.484	2387.59
708.672	2373.25
708.86	2334.34
709.048	2363.01
709.236	2246.28
709.424	2438.79
709.612	2367.11
709.8	2348.68
709.988	2360.97
710.176	2358.92
710.364	2344.58
710.551	2389.64
710.739	2414.21
710.927	2313.86
711.115	2225.8
711.303	2420.36
711.491	2332.3
711.679	2303.62
711.866	2279.05
712.054	2360.97
712.242	2227.85
712.43	2375.3
712.617	2391.69
712.805	2217.61
712.993	2324.1
713.181	2252.42
713.368	2393.73
713.556	2320.01
713.744	2262.66
713.931	2373.25
714.119	2285.19
714.306	2303.62
714.494	2311.82
714.682	2356.87
714.869	2197.13
715.057	2332.3
715.244	2270.86
715.432	2385.54
715.619	2397.83
715.807	2322.06
715.994	2258.57
716.182	2203.27
716.369	2328.2
716.556	2444.93
716.744	2205.32
716.931	2250.38
717.119	2242.18
717.306	2297.48
717.493	2203.27
717.681	2299.53
717.868	2367.11
718.055	2324.1
718.242	2348.68
718.43	2225.8
718.617	2346.63
718.804	2279.05
718.991	2182.79
719.179	2285.19
719.366	2348.68
719.553	2221.7
719.74	2248.33
719.927	2422.41
720.114	2293.38
720.301	2324.1
720.488	2254.47
720.676	2236.04
720.863	2365.06
721.05	2365.06
721.237	2285.19
721.424	2283.14
721.611	2252.42
721.798	2133.64
721.985	2197.13
722.172	2287.24
722.358	2172.55
722.545	2412.17
722.732	2248.33
722.919	2330.25
723.106	2281.1
723.293	2174.6
723.48	2301.58
723.667	2205.32
723.853	2299.53
724.04	2285.19
724.227	2401.93
724.414	2238.09
724.6	2406.02
724.787	2356.87
724.974	2283.14
725.161	2272.9
725.347	2242.18
725.534	2158.22
725.72	2203.27
725.907	2219.66
726.094	2324.1
726.28	2231.94
726.467	2340.49
726.653	2375.3
726.84	2240.14
727.027	2303.62
727.213	2123.4
727.4	2182.79
727.586	2256.52
727.773	2258.57
727.959	2268.81
728.145	2332.3
728.332	2444.93
728.518	2188.94
728.705	2342.53
728.891	2277
729.077	2297.48
729.264	2252.42
729.45	2410.12
729.636	2293.38
729.823	2201.23
730.009	2201.23
730.195	2256.52
730.382	2307.72
730.568	2291.34
730.754	2209.42
730.94	2315.91
731.126	2227.85
731.313	2266.76
731.499	2211.46
731.685	2170.51
731.871	2266.76
732.057	2326.15
732.243	2188.94
732.429	2291.34
732.615	2107.02
732.801	2233.99
732.987	2211.46
733.173	2162.31
733.359	2233.99
733.545	2262.66
733.731	2100.87
733.917	2176.65
734.103	2170.51
734.289	2340.49
734.475	2186.89
734.661	2238.09
734.847	2193.03
735.033	2193.03
735.219	2254.47
735.404	2303.62
735.59	2219.66
735.776	2227.85
735.962	2221.7
736.148	2258.57
736.333	2141.83
736.519	2059.92
736.705	2123.4
736.89	2121.35
737.076	2168.46
737.262	2133.64
737.447	2088.59
737.633	2168.46
737.819	2115.21
738.004	2145.93
738.19	2279.05
738.375	2094.73
738.561	2104.97
738.747	2125.45
738.932	2111.11
739.118	2184.84
739.303	1951.37
739.489	2141.83
739.674	2125.45
739.859	2064.01
740.045	2066.06
740.23	2012.81
740.416	1984.14
740.601	1994.38
740.786	2053.77
740.972	1992.33
741.157	2100.87
741.342	1988.24
741.528	2059.92
741.713	2025.1
741.898	2037.39
742.084	2078.35
742.269	1975.95
742.454	2096.78
742.639	2047.63
742.824	1943.18
743.01	2021
743.195	2039.44
743.38	1891.98
743.565	1980.04
743.75	1877.65
743.935	1930.89
744.12	1955.47
744.305	1883.79
744.49	1891.98
744.675	1949.32
744.86	1816.21
745.045	1871.5
745.23	1906.32
745.415	1797.78
745.6	1943.18
745.785	1908.37
745.97	1949.32
746.155	1871.5
746.34	1803.92
746.525	1826.45
746.71	1812.11
746.895	1719.95
747.079	1828.49
747.264	1808.02
747.449	1744.53
747.634	1738.38
747.819	1728.14
748.003	1781.39
748.188	1644.18
748.373	1742.48
748.557	1728.14
748.742	1748.62
748.927	1685.14
749.111	1648.27
749.296	1695.38
749.481	1703.57
749.665	1734.29
749.85	1703.57
750.034	1627.79
750.219	1672.85
750.404	1568.4
750.588	1625.75
750.773	1668.75
750.957	1605.27
751.141	1590.93
751.326	1521.3
751.51	1615.51
751.695	1586.83
751.879	1564.31
752.064	1601.17
752.248	1578.64
752.432	1572.5
752.617	1535.64
752.801	1451.67
752.985	1513.11
753.17	1515.16
753.354	1373.85
753.538	1451.67
753.722	1398.42
753.907	1439.38
754.091	1355.41
754.275	1408.66
754.459	1357.46
754.643	1326.74
754.828	1455.76
755.012	1351.32
755.196	1355.41
755.38	1332.89
755.564	1322.65
755.748	1375.89
755.932	1359.51
756.116	1287.83
756.3	1210.01
756.484	1287.83
756.668	1316.5
756.852	1296.02
757.036	1347.22
757.22	1298.07
757.404	1242.78
757.588	1238.68
757.772	1234.58
757.956	1316.5
758.14	1173.14
758.323	1138.33
758.507	1222.3
758.691	1171.1
758.875	1214.1
759.059	1154.71
759.242	1070.75
759.426	1205.91
759.61	1226.39
759.794	1181.34
759.977	1115.8
760.161	1156.76
760.345	1156.76
760.528	1244.82
760.712	1144.47
760.895	1156.76
761.079	1029.79
761.263	1101.47
761.446	1058.46
761.63	1091.23
761.813	1044.12
761.997	956.06
762.18	1035.93
762.364	1070.75
762.547	1083.03
762.731	1146.52
762.914	990.88
763.098	1003.16
763.281	972.44
763.464	1064.6
763.648	1052.31
763.831	1066.65
764.015	951.96
764.198	1062.55
764.381	988.83
764.564	1033.88
764.748	1097.37
764.931	1054.36
765.114	935.58
765.297	1005.21
765.481	947.87
765.664	1003.16
765.847	839.33
766.03	1058.46
766.213	956.06
766.397	1025.69
766.58	982.68
766.763	992.92
766.946	992.92
767.129	976.54
767.312	925.34
767.495	999.07
767.678	911
767.861	902.81
768.044	964.25
768.227	960.16
768.41	874.14
768.593	933.53
768.776	906.91
768.959	929.44
769.142	933.53
769.324	902.81
769.507	949.92
769.69	874.14
769.873	937.63
770.056	992.92
770.239	943.77
770.421	980.64
770.604	843.42
770.787	876.19
770.97	845.47
771.152	878.24
771.335	939.68
771.518	835.23
771.7	870.05
771.883	892.57
772.066	779.93
772.248	802.46
772.431	921.24
772.613	902.81
772.796	726.69
772.978	802.46
773.161	814.75
773.343	804.51
773.526	716.45
773.708	835.23
773.891	800.41
774.073	761.5
774.256	755.36
774.438	753.31
774.621	831.13
774.803	714.4
774.985	710.3
775.168	745.12
775.35	763.55
775.532	773.79
775.715	753.31
775.897	767.65
776.079	736.93
776.261	689.82
776.444	779.93
776.626	671.39
776.808	706.21
776.99	669.34
777.173	648.86
777.355	738.98
777.537	749.22
777.719	759.46
777.901	691.87
778.083	642.72
778.265	683.68
778.447	749.22
778.629	620.19
778.811	648.86
778.993	644.77
779.175	644.77
779.357	689.82
779.539	616.1
779.721	595.62
779.903	571.04
780.085	589.47
780.267	650.91
780.449	583.33
780.631	597.67
780.812	509.6
780.994	632.48
781.176	577.19
781.358	515.75
781.54	550.56
781.721	558.75
781.903	546.47
782.085	568.99
782.267	519.84
782.448	562.85
782.63	513.7
782.812	575.14
782.993	417.44
783.175	507.55
783.357	474.79
783.538	503.46
783.72	437.92
783.901	546.47
784.083	482.98
784.264	437.92
784.446	546.47
784.627	464.55
784.809	532.13
784.99	540.32
785.172	489.12
785.353	497.32
785.535	470.69
785.716	403.11
785.897	415.4
786.079	419.49
786.26	431.78
786.441	489.12
786.623	386.72
786.804	480.93
786.985	474.79
787.167	452.26
787.348	466.6
787.529	439.97
787.71	487.08
787.891	550.56
788.073	435.88
788.254	356.01
788.435	476.84
788.616	415.4
788.797	409.25
788.978	411.3
789.159	394.92
789.34	394.92
789.522	399.01
789.703	341.67
789.884	288.42
790.065	431.78
790.246	450.21
790.427	261.8
790.607	394.92
790.788	378.53
790.969	378.53
791.15	394.92
791.331	315.05
791.512	296.61
791.693	296.61
791.874	335.53
792.054	425.64
792.235	409.25
792.416	319.14
792.597	417.44
792.778	347.81
792.958	360.1
793.139	310.95
793.32	306.85
793.5	300.71
793.681	392.87
793.862	370.34
794.042	329.38
794.223	267.94
794.404	308.9
794.584	335.53
794.765	210.6
794.945	212.65
795.126	390.82
795.306	368.29
795.487	263.85
795.667	278.18
795.848	284.33
796.028	319.14
796.209	313
796.389	321.19
796.57	233.13
796.75	321.19
796.93	319.14
797.111	284.33
797.291	306.85
797.471	294.57
797.652	294.57
797.832	296.61
798.012	292.52
798.192	280.23
798.373	171.69
798.553	272.04
798.733	341.67
798.913	351.91
799.093	239.27
799.274	317.09
799.454	282.28
799.634	202.41
799.814	261.8
799.994	310.95
800.174	298.66
800.354	282.28
800.534	188.07
800.714	239.27
800.894	188.07
801.074	216.74
801.254	216.74
801.434	272.04
801.614	229.03
801.794	214.7
801.974	646.82
802.154	259.75
802.334	294.57
802.514	222.89
802.693	259.75
802.873	224.94
803.053	272.04
803.233	194.22
803.413	284.33
803.592	194.22
803.772	251.56
803.952	210.6
804.131	206.5
804.311	200.36
804.491	257.7
804.67	134.82
804.85	138.92
805.03	247.46
805.209	224.94
805.389	231.08
805.568	200.36
805.748	331.43
805.928	175.78
806.107	237.22
806.287	216.74
806.466	134.82
806.646	249.51
806.825	147.11
807.004	224.94
807.184	220.84
807.363	202.41
807.543	136.87
807.722	247.46
807.901	136.87
808.081	138.92
808.26	194.22
808.439	222.89
808.619	130.73
808.798	159.4
808.977	188.07
809.156	206.5
809.336	167.59
809.515	196.26
809.694	165.54
809.873	138.92
810.052	198.31
810.231	255.65
810.411	210.6
810.59	263.85
810.769	179.88
810.948	218.79
811.127	83.63
811.306	175.78
811.485	177.83
811.664	183.98
811.843	138.92
812.022	188.07
812.201	179.88
812.38	167.59
812.559	89.77
812.737	220.84
812.916	97.96
813.095	161.45
813.274	229.03
813.453	163.5
813.632	173.74
813.811	167.59
813.989	85.67
814.168	202.41
814.347	163.5
814.526	169.64
814.704	132.78
814.883	134.82
815.062	110.25
815.24	124.58
815.419	100.01
815.598	95.91
815.776	130.73
815.955	235.18
816.133	147.11
816.312	222.89
816.49	112.3
816.669	183.98
816.847	112.3
817.026	145.06
817.204	136.87
817.383	106.15
817.561	57
817.74	143.02
817.918	143.02
818.097	93.87
818.275	120.49
818.453	210.6
818.632	179.88
818.81	61.1
818.988	114.34
819.167	138.92
819.345	145.06
819.523	136.87
819.701	147.11
819.879	81.58
820.058	177.83
820.236	188.07
820.414	106.15
820.592	130.73
820.77	59.05
820.948	77.48
821.127	120.49
821.305	198.31
821.483	36.52
821.661	75.43
821.839	136.87
822.017	97.96
822.195	181.93
822.373	75.43
822.551	87.72
822.729	169.64
822.907	87.72
823.085	95.91
823.262	116.39
823.44	97.96
823.618	52.91
823.796	161.45
823.974	46.76
824.152	136.87
824.329	93.87
824.507	120.49
824.685	63.15
824.863	50.86
825.04	114.34
825.218	173.74
825.396	44.71
825.574	81.58
825.751	151.21
825.929	77.48
826.107	104.11
826.284	106.15
826.462	114.34
826.639	81.58
826.817	73.39
826.994	61.1
827.172	40.62
827.349	73.39
827.527	67.24
827.704	59.05
827.882	104.11
828.059	73.39
828.237	65.19
828.414	102.06
828.591	34.47
828.769	120.49
828.946	36.52
829.124	104.11
829.301	132.78
829.478	143.02
829.655	38.57
829.833	110.25
830.01	54.95
830.187	50.86
830.364	67.24
830.542	179.88
830.719	46.76
830.896	143.02
831.073	108.2
831.25	63.15
831.427	132.78
831.604	116.39
831.782	95.91
831.959	186.02
832.136	67.24
832.313	36.52
832.49	-18.77
832.667	143.02
832.844	65.19
833.021	85.67
833.198	69.29
833.374	118.44
833.551	128.68
833.728	100.01
833.905	38.57
834.082	79.53
834.259	46.76
834.436	1.71
834.612	46.76
834.789	40.62
834.966	22.19
835.143	128.68
835.319	24.23
835.496	79.53
835.673	89.77
835.85	54.95
836.026	9.9
836.203	63.15
836.38	36.52
836.556	18.09
836.733	34.47
836.909	104.11
837.086	59.05
837.262	104.11
837.439	1.71
837.616	48.81
837.792	97.96
837.968	48.81
838.145	40.62
838.321	87.72
838.498	57
838.674	75.43
838.851	87.72
839.027	46.76
839.203	22.19
839.38	46.76
839.556	67.24
839.732	87.72
839.909	89.77
840.085	114.34
840.261	24.23
840.437	100.01
840.614	87.72
840.79	83.63
840.966	75.43
841.142	140.97
841.318	112.3
841.494	65.19
841.671	67.24
841.847	-20.82
842.023	-12.63
842.199	46.76
842.375	104.11
842.551	22.19
842.727	67.24
842.903	138.92
843.079	-18.77
843.255	71.34
843.431	63.15
843.607	50.86
843.783	54.95
843.959	65.19
844.134	-31.06
844.31	116.39
844.486	102.06
844.662	-26.96
844.838	5.8
845.013	95.91
845.189	69.29
845.365	48.81
845.541	30.38
845.716	67.24
845.892	38.57
846.068	36.52
846.244	7.85
846.419	104.11
846.595	63.15
846.77	-20.82
846.946	38.57
847.122	-51.54
847.297	9.9
847.473	61.1
847.648	-0.34
847.824	87.72
847.999	-35.16
848.175	24.23
848.35	91.82
848.526	42.67
848.701	36.52
848.876	106.15
849.052	22.19
849.227	71.34
849.403	16.04
849.578	65.19
849.753	9.9
849.929	46.76
850.104	30.38
850.279	-10.58
850.454	59.05
850.63	71.34
850.805	36.52
850.98	24.23
851.155	38.57
851.33	32.43
851.505	30.38
851.681	77.48
851.856	-123.22
852.031	16.04
852.206	67.24
852.381	-55.64
852.556	32.43
852.731	61.1
852.906	124.58
853.081	22.19
853.256	24.23
853.431	-0.34
853.606	-0.34
853.781	20.14
853.956	-26.96
854.131	16.04
854.305	-18.77
854.48	26.28
854.655	18.09
854.83	65.19
855.005	124.58
855.18	48.81
855.354	11.95
855.529	18.09
855.704	1.71
855.879	57
856.053	28.33
856.228	30.38
856.403	26.28
856.577	34.47
856.752	-33.11
856.926	122.54
857.101	24.23
857.276	-18.77
857.45	24.23
857.625	57
857.799	61.1
857.974	91.82
858.148	-0.34
858.323	16.04
858.497	-39.25
858.672	28.33
858.846	32.43
859.02	77.48
859.195	57
859.369	20.14
859.543	-22.87
859.718	26.28
859.892	30.38
860.066	1.71
860.241	28.33
860.415	-4.44
860.589	71.34
860.763	18.09
860.938	-41.3
861.112	22.19
861.286	-4.44
861.46	-12.63
861.634	44.71
861.808	42.67
861.982	38.57
862.157	11.95
862.331	38.57
862.505	24.23
862.679	-31.06
862.853	48.81
863.027	13.99
863.201	-10.58
863.375	9.9
863.549	63.15
863.722	46.76
863.896	-8.53
864.07	16.04
864.244	22.19
864.418	34.47
864.592	52.91
864.766	34.47
864.939	5.8
865.113	13.99
865.287	67.24
865.461	-10.58
865.634	26.28
865.808	-55.64
865.982	-0.34
866.156	-41.3
866.329	-67.92
866.503	3.75
866.676	28.33
866.85	71.34
867.024	130.73
867.197	48.81
867.371	-55.64
867.544	42.67
867.718	32.43
867.891	30.38
868.065	-18.77
868.238	69.29
868.412	44.71
868.585	-31.06
868.759	13.99
868.932	-53.59
869.105	3.75
869.279	11.95
869.452	44.71
869.625	38.57
869.799	-22.87
869.972	40.62
870.145	28.33
870.319	-0.34
870.492	5.8
870.665	-10.58
870.838	5.8
871.011	-41.3
871.185	42.67
871.358	-14.68
871.531	22.19
871.704	-16.73
871.877	-12.63
872.05	-31.06
872.223	1.71
872.396	57
872.569	38.57
872.742	11.95
872.915	52.91
873.088	-26.96
873.261	-51.54
873.434	-12.63
873.607	38.57
873.78	79.53
873.953	16.04
874.126	-39.25
874.299	5.8
874.471	-0.34
874.644	13.99
874.817	108.2
874.99	34.47
875.163	-8.53
875.335	32.43
875.508	1.71
875.681	18.09
875.853	-22.87
876.026	-65.88
876.199	26.28
876.371	-18.77
876.544	9.9
876.717	24.23
876.889	26.28
877.062	-16.73
877.234	-78.16
877.407	28.33
877.579	-12.63
877.752	-76.12
877.924	22.19
878.097	54.95
878.269	24.23
878.442	-4.44
878.614	-2.39
878.786	42.67
878.959	-0.34
879.131	16.04
879.303	11.95
879.476	3.75
879.648	-10.58
879.82	-33.11
879.993	-39.25
880.165	-14.68
880.337	34.47
880.509	42.67
880.681	-65.88
880.854	-18.77
881.026	30.38
881.198	73.39
881.37	-49.49
881.542	-24.92
881.714	5.8
881.886	24.23
882.058	11.95
882.23	40.62
882.402	5.8
882.574	16.04
882.746	-18.77
882.918	-8.53
883.09	38.57
883.262	13.99
883.434	48.81
883.606	-16.73
883.778	-8.53
883.95	110.25
884.122	-43.35
884.293	30.38
884.465	28.33
884.637	-16.73
884.809	54.95
884.98	30.38
885.152	75.43
885.324	73.39
885.496	-37.2
885.667	-35.16
885.839	5.8
886.011	44.71
886.182	-104.79
886.354	48.81
886.525	-55.64
886.697	-35.16
886.869	-22.87
887.04	-35.16
887.212	-37.2
887.383	40.62
887.555	42.67
887.726	-29.01
887.897	75.43
888.069	-39.25
888.24	-18.77
888.412	65.19
888.583	-18.77
888.754	9.9
888.926	-26.96
889.097	-10.58
889.268	-35.16
889.44	48.81
889.611	-41.3
889.782	-26.96
889.953	-51.54
890.125	22.19
890.296	11.95
890.467	-39.25
890.638	20.14
890.809	36.52
890.98	-0.34
891.151	-24.92
891.323	59.05
891.494	9.9
891.665	-14.68
891.836	-74.07
892.007	11.95
892.178	13.99
892.349	-0.34
892.52	57
892.691	9.9
892.862	28.33
893.032	-18.77
893.203	7.85
893.374	-53.59
893.545	54.95
893.716	-20.82
893.887	44.71
894.057	36.52
894.228	-2.39
894.399	-14.68
894.57	-39.25
894.74	71.34
894.911	100.01
895.082	24.23
895.253	-112.98
895.423	16.04
895.594	22.19
895.764	3.75
895.935	-10.58
896.106	28.33
896.276	36.52
896.447	-35.16
896.617	-74.07
896.788	32.43
896.958	-55.64
897.129	-2.39
897.299	22.19
897.47	13.99
897.64	5.8
897.81	-12.63
897.981	26.28
898.151	-20.82
898.322	-33.11
898.492	46.76
898.662	32.43
898.832	-16.73
899.003	-22.87
899.173	-35.16
899.343	54.95
899.513	-61.78
