Data from USB4F104151__49__13-11-27-379.txt Node

Date: Fri Mar 14 13:11:27 EDT 2025
User: louis
Spectrometer: USB4F10415
Trigger mode: 4
Integration Time (sec): 2.000000E-2
Scans to average: 1
Electric dark correction enabled: true
Nonlinearity correction enabled: false
Boxcar width: 0
XAxis mode: Wavelengths
Number of Pixels in Spectrum: 3648
>>>>>Begin Spectral Data<<<<<
178.204	-103.59
178.424	-103.59
178.644	-103.59
178.864	-87.21
179.084	-105.64
179.304	-33.96
179.524	-36.01
179.744	37.72
179.964	31.57
180.184	-11.43
180.404	-7.34
180.624	-25.77
180.844	7
181.064	2.9
181.283	9.05
181.503	58.2
181.723	-31.91
181.943	-91.31
182.163	56.15
182.383	15.19
182.602	9.05
182.822	101.2
183.042	4.95
183.262	-58.54
183.482	2.9
183.701	-5.29
183.921	27.48
184.141	-66.73
184.361	19.29
184.58	4.95
184.8	68.44
185.02	-3.24
185.239	56.15
185.459	-56.49
185.679	-9.39
185.898	-40.11
186.118	29.52
186.338	17.24
186.557	66.39
186.777	-29.87
186.997	93.01
187.216	4.95
187.436	4.95
187.655	29.52
187.875	-13.48
188.095	29.52
188.314	35.67
188.534	76.63
188.753	-44.2
188.973	54.1
189.192	-3.24
189.412	-29.87
189.631	66.39
189.851	-44.2
190.07	13.14
190.29	-15.53
190.509	54.1
190.729	33.62
190.948	4.95
191.168	84.82
191.387	23.38
191.607	-74.92
191.826	11.09
192.045	-1.19
192.265	58.2
192.484	-11.43
192.704	29.52
192.923	21.33
193.142	21.33
193.362	27.48
193.581	35.67
193.8	21.33
194.02	101.2
194.239	-15.53
194.458	78.68
194.678	2.9
194.897	-7.34
195.116	-33.96
195.335	-3.24
195.555	-9.39
195.774	56.15
195.993	13.14
196.212	-13.48
196.432	-1.19
196.651	27.48
196.87	39.76
197.089	54.1
197.308	-62.63
197.528	33.62
197.747	-48.3
197.966	37.72
198.185	70.48
198.404	56.15
198.623	-11.43
198.842	-7.34
199.062	-7.34
199.281	43.86
199.5	-89.26
199.719	2.9
199.938	97.11
200.157	-23.72
200.376	-40.11
200.595	2.9
200.814	50
201.033	13.14
201.252	62.29
201.471	90.96
201.69	-5.29
201.909	23.38
202.128	23.38
202.347	-44.2
202.566	-44.2
202.785	21.33
203.004	-13.48
203.223	68.44
203.442	35.67
203.661	68.44
203.879	-29.87
204.098	119.64
204.317	-19.63
204.536	7
204.755	-3.24
204.974	31.57
205.193	-13.48
205.411	-9.39
205.63	13.14
205.849	54.1
206.068	2.9
206.287	47.96
206.505	-50.35
206.724	35.67
206.943	-7.34
207.162	29.52
207.381	-7.34
207.599	27.48
207.818	62.29
208.037	62.29
208.255	-25.77
208.474	-50.35
208.693	-13.48
208.911	-7.34
209.13	27.48
209.349	35.67
209.567	29.52
209.786	-19.63
210.005	37.72
210.223	-23.72
210.442	-62.63
210.661	-21.67
210.879	45.91
211.098	-85.16
211.316	-33.96
211.535	27.48
211.753	-64.68
211.972	4.95
212.191	107.35
212.409	-7.34
212.628	23.38
212.846	-42.15
213.065	31.57
213.283	-3.24
213.502	43.86
213.72	-52.39
213.938	-9.39
214.157	19.29
214.375	-40.11
214.594	50
214.812	50
215.031	45.91
215.249	-11.43
215.467	64.34
215.686	39.76
215.904	41.81
216.122	31.57
216.341	35.67
216.559	35.67
216.778	47.96
216.996	11.09
217.214	-5.29
217.432	-25.77
217.651	-29.87
217.869	27.48
218.087	54.1
218.306	-50.35
218.524	-1.19
218.742	-17.58
218.96	41.81
219.179	-25.77
219.397	2.9
219.615	17.24
219.833	-27.82
220.051	-52.39
220.27	23.38
220.488	-3.24
220.706	47.96
220.924	-21.67
221.142	-130.22
221.36	7
221.578	2.9
221.796	45.91
222.015	-40.11
222.233	-13.48
222.451	-60.59
222.669	-5.29
222.887	43.86
223.105	62.29
223.323	37.72
223.541	15.19
223.759	19.29
223.977	-27.82
224.195	66.39
224.413	-81.07
224.631	-13.48
224.849	11.09
225.067	-9.39
225.285	-3.24
225.503	21.33
225.721	-13.48
225.939	29.52
226.157	-13.48
226.375	68.44
226.592	43.86
226.81	-9.39
227.028	33.62
227.246	13.14
227.464	43.86
227.682	-31.91
227.9	-36.01
228.117	25.43
228.335	-23.72
228.553	19.29
228.771	-5.29
228.989	-3.24
229.206	52.05
229.424	23.38
229.642	17.24
229.86	4.95
230.077	72.53
230.295	-33.96
230.513	-3.24
230.731	88.92
230.948	-9.39
231.166	29.52
231.384	-74.92
231.601	-40.11
231.819	27.48
232.037	-13.48
232.254	-29.87
232.472	-54.44
232.689	-11.43
232.907	-19.63
233.125	-11.43
233.342	47.96
233.56	-44.2
233.777	68.44
233.995	35.67
234.213	90.96
234.43	2.9
234.648	2.9
234.865	-54.44
235.083	35.67
235.3	7
235.518	25.43
235.735	52.05
235.953	74.58
236.17	47.96
236.388	-17.58
236.605	-58.54
236.822	76.63
237.04	0.85
237.257	-15.53
237.475	29.52
237.692	41.81
237.909	-5.29
238.127	-46.25
238.344	-29.87
238.562	-21.67
238.779	27.48
238.996	45.91
239.214	-19.63
239.431	54.1
239.648	19.29
239.865	4.95
240.083	-66.73
240.3	0.85
240.517	29.52
240.735	41.81
240.952	39.76
241.169	15.19
241.386	39.76
241.603	17.24
241.821	-46.25
242.038	21.33
242.255	-54.44
242.472	-44.2
242.689	54.1
242.907	45.91
243.124	39.76
243.341	17.24
243.558	19.29
243.775	-5.29
243.992	-74.92
244.209	-5.29
244.426	35.67
244.643	72.53
244.86	-48.3
245.078	70.48
245.295	9.05
245.512	-52.39
245.729	-52.39
245.946	-1.19
246.163	19.29
246.38	47.96
246.597	41.81
246.814	-29.87
247.031	25.43
247.248	19.29
247.464	2.9
247.681	-66.73
247.898	60.24
248.115	39.76
248.332	-5.29
248.549	4.95
248.766	2.9
248.983	-3.24
249.2	29.52
249.417	-17.58
249.633	-19.63
249.85	-27.82
250.067	-13.48
250.284	7
250.501	86.87
250.717	37.72
250.934	11.09
251.151	-33.96
251.368	13.14
251.585	31.57
251.801	41.81
252.018	0.85
252.235	27.48
252.451	-5.29
252.668	39.76
252.885	4.95
253.102	66.39
253.318	23.38
253.535	7
253.752	-44.2
253.968	54.1
254.185	-33.96
254.401	35.67
254.618	68.44
254.835	-27.82
255.051	72.53
255.268	-25.77
255.484	25.43
255.701	-1.19
255.917	2.9
256.134	-76.97
256.351	11.09
256.567	2.9
256.784	60.24
257	-70.83
257.217	29.52
257.433	-1.19
257.65	13.14
257.866	15.19
258.082	-33.96
258.299	-42.15
258.515	-38.06
258.732	-27.82
258.948	-66.73
259.165	-3.24
259.381	13.14
259.597	-21.67
259.814	88.92
260.03	29.52
260.246	9.05
260.463	37.72
260.679	52.05
260.895	21.33
261.112	84.82
261.328	-9.39
261.544	-25.77
261.761	72.53
261.977	-7.34
262.193	-1.19
262.409	-21.67
262.626	39.76
262.842	-40.11
263.058	7
263.274	23.38
263.49	-13.48
263.707	50
263.923	-46.25
264.139	9.05
264.355	17.24
264.571	78.68
264.787	19.29
265.004	4.95
265.22	93.01
265.436	-29.87
265.652	9.05
265.868	74.58
266.084	31.57
266.3	31.57
266.516	-29.87
266.732	35.67
266.948	11.09
267.164	-11.43
267.38	11.09
267.596	-13.48
267.812	31.57
268.028	52.05
268.244	-11.43
268.46	19.29
268.676	37.72
268.892	29.52
269.108	-31.91
269.324	2.9
269.54	4.95
269.756	86.87
269.972	-25.77
270.188	19.29
270.403	-17.58
270.619	-17.58
270.835	13.14
271.051	76.63
271.267	-9.39
271.483	60.24
271.698	33.62
271.914	68.44
272.13	-46.25
272.346	19.29
272.562	-3.24
272.777	-7.34
272.993	72.53
273.209	-27.82
273.425	37.72
273.64	58.2
273.856	27.48
274.072	-33.96
274.287	-29.87
274.503	21.33
274.719	27.48
274.934	-11.43
275.15	-3.24
275.366	-11.43
275.581	25.43
275.797	43.86
276.012	29.52
276.228	-9.39
276.444	-13.48
276.659	33.62
276.875	13.14
277.09	-5.29
277.306	39.76
277.521	21.33
277.737	21.33
277.952	33.62
278.168	70.48
278.383	27.48
278.599	-29.87
278.814	-15.53
279.03	17.24
279.245	-11.43
279.461	-29.87
279.676	47.96
279.892	-70.83
280.107	-29.87
280.322	-17.58
280.538	17.24
280.753	-5.29
280.969	2.9
281.184	-38.06
281.399	39.76
281.615	-27.82
281.83	45.91
282.045	-79.02
282.26	11.09
282.476	-9.39
282.691	47.96
282.906	7
283.122	-25.77
283.337	35.67
283.552	-21.67
283.767	7
283.983	29.52
284.198	15.19
284.413	2.9
284.628	-13.48
284.843	45.91
285.058	-58.54
285.274	60.24
285.489	15.19
285.704	31.57
285.919	33.62
286.134	23.38
286.349	-13.48
286.564	-17.58
286.779	54.1
286.995	76.63
287.21	-7.34
287.425	39.76
287.64	19.29
287.855	-13.48
288.07	-3.24
288.285	-23.72
288.5	-7.34
288.715	-5.29
288.93	-3.24
289.145	-27.82
289.36	-48.3
289.575	-1.19
289.79	-9.39
290.004	43.86
290.219	39.76
290.434	2.9
290.649	-58.54
290.864	-11.43
291.079	-13.48
291.294	-15.53
291.509	19.29
291.724	7
291.938	-5.29
292.153	25.43
292.368	-21.67
292.583	-21.67
292.798	27.48
293.012	64.34
293.227	27.48
293.442	39.76
293.657	45.91
293.871	27.48
294.086	-9.39
294.301	52.05
294.516	60.24
294.73	-23.72
294.945	-46.25
295.16	-95.4
295.374	39.76
295.589	88.92
295.804	37.72
296.018	25.43
296.233	0.85
296.447	-52.39
296.662	52.05
296.877	29.52
297.091	45.91
297.306	33.62
297.52	-44.2
297.735	4.95
297.949	11.09
298.164	31.57
298.378	7
298.593	29.52
298.807	60.24
299.022	-29.87
299.236	39.76
299.451	19.29
299.665	29.52
299.88	27.48
300.094	-9.39
300.309	39.76
300.523	70.48
300.737	-48.3
300.952	52.05
301.166	-13.48
301.381	-9.39
301.595	-119.98
301.809	-36.01
302.024	47.96
302.238	9.05
302.452	105.3
302.667	-36.01
302.881	27.48
303.095	27.48
303.309	29.52
303.524	-3.24
303.738	19.29
303.952	-36.01
304.166	-11.43
304.381	-21.67
304.595	66.39
304.809	-89.26
305.023	103.25
305.237	-74.92
305.452	-3.24
305.666	-42.15
305.88	74.58
306.094	-27.82
306.308	56.15
306.522	11.09
306.736	37.72
306.95	33.62
307.164	-23.72
307.379	7
307.593	37.72
307.807	19.29
308.021	-1.19
308.235	-13.48
308.449	7
308.663	11.09
308.877	142.16
309.091	-1.19
309.305	0.85
309.519	9.05
309.733	52.05
309.947	-1.19
310.161	15.19
310.374	17.24
310.588	21.33
310.802	19.29
311.016	95.06
311.23	-33.96
311.444	-5.29
311.658	47.96
311.872	70.48
312.085	19.29
312.299	58.2
312.513	64.34
312.727	66.39
312.941	-17.58
313.154	-70.83
313.368	31.57
313.582	-19.63
313.796	35.67
314.009	25.43
314.223	76.63
314.437	25.43
314.651	43.86
314.864	17.24
315.078	21.33
315.292	-11.43
315.505	2.9
315.719	-7.34
315.933	-11.43
316.146	21.33
316.36	-25.77
316.573	19.29
316.787	33.62
317.001	2.9
317.214	-15.53
317.428	-38.06
317.641	2.9
317.855	-19.63
318.068	50
318.282	70.48
318.495	2.9
318.709	25.43
318.922	-3.24
319.136	-5.29
319.349	88.92
319.563	23.38
319.776	7
319.99	-25.77
320.203	29.52
320.417	64.34
320.63	31.57
320.843	-15.53
321.057	-11.43
321.27	13.14
321.483	9.05
321.697	15.19
321.91	68.44
322.124	56.15
322.337	11.09
322.55	-25.77
322.763	2.9
322.977	54.1
323.19	-33.96
323.403	64.34
323.617	7
323.83	33.62
324.043	-19.63
324.256	21.33
324.469	-1.19
324.683	47.96
324.896	19.29
325.109	-1.19
325.322	25.43
325.535	-25.77
325.748	-44.2
325.962	-13.48
326.175	62.29
326.388	45.91
326.601	62.29
326.814	35.67
327.027	-7.34
327.24	84.82
327.453	-42.15
327.666	-13.48
327.879	13.14
328.092	17.24
328.305	2.9
328.518	2.9
328.731	-111.78
328.944	-38.06
329.157	11.09
329.37	-1.19
329.583	7
329.796	-11.43
330.009	39.76
330.222	-19.63
330.435	0.85
330.648	35.67
330.861	25.43
331.073	-15.53
331.286	-31.91
331.499	15.19
331.712	13.14
331.925	74.58
332.138	72.53
332.35	90.96
332.563	0.85
332.776	19.29
332.989	39.76
333.202	-74.92
333.414	-11.43
333.627	47.96
333.84	4.95
334.053	-27.82
334.265	9.05
334.478	-46.25
334.691	86.87
334.903	-27.82
335.116	-95.4
335.329	-9.39
335.541	25.43
335.754	93.01
335.966	-81.07
336.179	-46.25
336.392	60.24
336.604	37.72
336.817	45.91
337.029	78.68
337.242	19.29
337.454	31.57
337.667	-5.29
337.88	11.09
338.092	64.34
338.305	11.09
338.517	11.09
338.729	54.1
338.942	-19.63
339.154	7
339.367	35.67
339.579	27.48
339.792	-17.58
340.004	56.15
340.217	35.67
340.429	33.62
340.641	45.91
340.854	4.95
341.066	35.67
341.278	-1.19
341.491	43.86
341.703	-15.53
341.915	45.91
342.128	2.9
342.34	43.86
342.552	37.72
342.764	4.95
342.977	-15.53
343.189	-40.11
343.401	-3.24
343.613	4.95
343.826	-5.29
344.038	27.48
344.25	17.24
344.462	-5.29
344.674	64.34
344.886	0.85
345.099	97.11
345.311	-21.67
345.523	9.05
345.735	-99.5
345.947	37.72
346.159	54.1
346.371	72.53
346.583	21.33
346.795	-33.96
347.007	0.85
347.219	-1.19
347.431	105.3
347.643	66.39
347.855	11.09
348.067	39.76
348.279	-19.63
348.491	2.9
348.703	60.24
348.915	25.43
349.127	43.86
349.339	27.48
349.551	-38.06
349.763	43.86
349.975	21.33
350.187	27.48
350.399	113.49
350.61	37.72
350.822	-54.44
351.034	2.9
351.246	27.48
351.458	21.33
351.669	-25.77
351.881	0.85
352.093	-15.53
352.305	-46.25
352.517	62.29
352.728	68.44
352.94	-17.58
353.152	45.91
353.363	-50.35
353.575	19.29
353.787	-68.78
353.999	-17.58
354.21	29.52
354.422	-64.68
354.633	-46.25
354.845	9.05
355.057	27.48
355.268	-11.43
355.48	-1.19
355.692	11.09
355.903	58.2
356.115	27.48
356.326	-7.34
356.538	43.86
356.749	2.9
356.961	41.81
357.172	-48.3
357.384	35.67
357.595	27.48
357.807	23.38
358.018	-38.06
358.23	35.67
358.441	84.82
358.653	4.95
358.864	23.38
359.075	47.96
359.287	-33.96
359.498	60.24
359.709	-36.01
359.921	29.52
360.132	-5.29
360.344	15.19
360.555	78.68
360.766	23.38
360.977	-21.67
361.189	-1.19
361.4	-44.2
361.611	80.72
361.823	76.63
362.034	39.76
362.245	-54.44
362.456	-38.06
362.667	9.05
362.879	76.63
363.09	-3.24
363.301	-25.77
363.512	68.44
363.723	11.09
363.935	80.72
364.146	45.91
364.357	-58.54
364.568	23.38
364.779	-44.2
364.99	45.91
365.201	21.33
365.412	43.86
365.623	-60.59
365.834	31.57
366.045	2.9
366.256	31.57
366.467	56.15
366.678	13.14
366.889	27.48
367.1	0.85
367.311	29.52
367.522	-5.29
367.733	54.1
367.944	23.38
368.155	-19.63
368.366	7
368.577	13.14
368.788	41.81
368.999	-19.63
369.209	27.48
369.42	80.72
369.631	105.3
369.842	45.91
370.053	43.86
370.264	-9.39
370.474	-29.87
370.685	11.09
370.896	-19.63
371.107	25.43
371.317	70.48
371.528	29.52
371.739	109.4
371.95	39.76
372.16	-5.29
372.371	23.38
372.582	-19.63
372.792	37.72
373.003	4.95
373.214	-15.53
373.424	37.72
373.635	9.05
373.846	41.81
374.056	13.14
374.267	27.48
374.477	54.1
374.688	-19.63
374.898	19.29
375.109	29.52
375.319	21.33
375.53	11.09
375.74	-11.43
375.951	-11.43
376.161	35.67
376.372	43.86
376.582	-38.06
376.793	17.24
377.003	47.96
377.214	27.48
377.424	-13.48
377.635	29.52
377.845	84.82
378.055	27.48
378.266	-36.01
378.476	54.1
378.686	17.24
378.897	-54.44
379.107	27.48
379.317	27.48
379.528	52.05
379.738	56.15
379.948	72.53
380.158	-36.01
380.369	-5.29
380.579	68.44
380.789	47.96
380.999	39.76
381.21	45.91
381.42	-9.39
381.63	-38.06
381.84	54.1
382.05	-21.67
382.261	39.76
382.471	31.57
382.681	23.38
382.891	2.9
383.101	68.44
383.311	-46.25
383.521	52.05
383.731	-15.53
383.941	78.68
384.151	-33.96
384.361	19.29
384.571	-7.34
384.781	58.2
384.991	23.38
385.201	21.33
385.411	21.33
385.621	29.52
385.831	41.81
386.041	-13.48
386.251	-11.43
386.461	23.38
386.671	70.48
386.881	17.24
387.091	35.67
387.301	37.72
387.511	-58.54
387.72	-3.24
387.93	13.14
388.14	-13.48
388.35	35.67
388.56	37.72
388.769	17.24
388.979	-56.49
389.189	19.29
389.399	19.29
389.609	66.39
389.818	68.44
390.028	19.29
390.238	95.06
390.447	-7.34
390.657	52.05
390.867	-62.63
391.076	35.67
391.286	52.05
391.496	74.58
391.705	72.53
391.915	80.72
392.125	99.16
392.334	4.95
392.544	-27.82
392.753	11.09
392.963	13.14
393.172	9.05
393.382	-1.19
393.591	107.35
393.801	45.91
394.01	37.72
394.22	119.64
394.429	41.81
394.639	-7.34
394.848	119.64
395.058	97.11
395.267	15.19
395.477	-29.87
395.686	66.39
395.895	74.58
396.105	113.49
396.314	-5.29
396.524	107.35
396.733	21.33
396.942	93.01
397.152	37.72
397.361	93.01
397.57	78.68
397.78	-19.63
397.989	107.35
398.198	97.11
398.407	68.44
398.617	74.58
398.826	31.57
399.035	93.01
399.244	115.54
399.453	72.53
399.663	-5.29
399.872	21.33
400.081	2.9
400.29	70.48
400.499	-48.3
400.708	70.48
400.917	-42.15
401.127	84.82
401.336	-1.19
401.545	129.88
401.754	86.87
401.963	62.29
402.172	68.44
402.381	117.59
402.59	29.52
402.799	23.38
403.008	84.82
403.217	50
403.426	-5.29
403.635	41.81
403.844	52.05
404.053	25.43
404.262	74.58
404.471	121.68
404.68	76.63
404.888	43.86
405.097	15.19
405.306	31.57
405.515	52.05
405.724	62.29
405.933	-11.43
406.142	47.96
406.35	140.12
406.559	-1.19
406.768	109.4
406.977	103.25
407.185	58.2
407.394	144.21
407.603	97.11
407.812	45.91
408.02	90.96
408.229	76.63
408.438	160.59
408.646	117.59
408.855	82.77
409.064	76.63
409.272	101.2
409.481	109.4
409.69	174.93
409.898	146.26
410.107	138.07
410.315	127.83
410.524	105.3
410.733	123.73
410.941	168.79
411.15	207.7
411.358	191.31
411.567	158.55
411.775	193.36
411.984	164.69
412.192	254.8
412.401	248.66
412.609	203.6
412.818	297.81
413.026	232.27
413.234	213.84
413.443	279.38
413.651	187.22
413.86	258.9
414.068	254.8
414.276	293.71
414.485	207.7
414.693	312.14
414.901	344.91
415.11	320.34
415.318	359.25
415.526	291.66
415.734	363.34
415.943	349.01
416.151	320.34
416.359	447.31
416.567	445.26
416.776	385.87
416.984	494.41
417.192	508.75
417.4	412.5
417.608	430.93
417.817	461.65
418.025	498.51
418.233	570.19
418.441	480.08
418.649	527.18
418.857	572.24
419.065	645.96
419.273	609.1
419.481	562
419.689	641.87
419.897	637.77
420.105	637.77
420.313	719.69
420.521	768.84
420.729	766.79
420.937	715.59
421.145	791.37
421.353	895.82
421.561	928.58
421.769	940.87
421.977	940.87
422.185	922.44
422.393	951.11
422.601	1190.72
422.809	1061.7
423.017	1078.08
423.224	1133.38
423.432	1143.62
423.64	1192.77
423.848	1239.87
424.056	1284.93
424.263	1272.64
424.471	1276.74
424.679	1313.6
424.887	1471.29
425.094	1485.63
425.302	1614.65
425.51	1508.16
425.718	1604.41
425.925	1641.28
426.133	1678.14
426.341	1733.43
426.548	1700.67
426.756	1837.88
426.964	1872.7
427.171	1891.13
427.379	2032.44
427.586	1977.14
427.794	2100.02
428.001	2202.42
428.209	2302.77
428.417	2188.08
428.624	2472.75
428.832	2315.06
429.039	2366.26
429.247	2317.11
429.454	2628.4
429.662	2771.76
429.869	2595.63
430.076	2747.18
430.284	2632.49
430.491	2997.03
430.699	3048.23
430.906	2923.3
431.114	3037.99
431.321	3087.14
431.528	3128.1
431.736	3330.85
431.943	3576.61
432.15	3466.02
432.358	3558.18
432.565	3617.57
432.772	3549.98
432.979	3896.09
433.187	3945.24
433.394	3887.9
433.601	4227.86
433.808	4217.62
434.016	4279.06
434.223	4346.64
434.43	4850.44
434.637	4485.9
434.844	5016.33
435.052	4918.03
435.259	4946.7
435.466	4915.98
435.673	4848.4
435.88	5327.62
436.087	5583.62
436.294	5501.7
436.501	5368.58
436.708	5563.14
436.915	5817.08
437.122	5997.31
437.329	5866.24
437.537	6204.15
437.743	6185.72
437.95	6159.1
438.157	6517.49
438.364	6632.18
438.571	6775.53
438.778	6615.79
438.985	7377.64
439.192	7148.26
439.399	7437.03
439.606	7156.46
439.813	7645.92
440.02	7926.49
440.227	7891.68
440.433	7758.56
440.64	8198.87
440.847	8057.56
441.054	8319.7
441.261	8704.72
441.467	8479.44
441.674	8835.79
441.881	9046.73
442.088	9165.51
442.294	9204.42
442.501	9097.93
442.708	9390.79
442.914	9919.17
443.121	10212.03
443.328	9814.72
443.534	10738.35
443.741	10433.21
443.948	10371.77
444.154	11049.64
444.361	11025.07
444.568	11055.79
444.774	11016.88
444.981	11160.24
445.187	11530.92
445.394	11879.07
445.6	11748
445.807	12993.17
446.013	12389.02
446.22	12595.86
446.426	13202.06
446.633	13236.88
446.839	13834.88
447.046	13273.74
447.252	13945.47
447.459	13869.7
447.665	13953.66
447.871	14363.26
448.078	15307.37
448.284	14283.39
448.491	14928.5
448.697	15426.15
448.903	15600.23
449.11	15684.2
449.316	15413.87
449.522	15587.94
449.728	16198.24
449.935	16484.95
450.141	16325.21
450.347	16681.56
450.553	16308.83
450.76	16249.44
450.966	16878.16
451.172	16489.05
451.378	17142.35
451.584	16906.84
451.791	17365.58
451.997	17478.22
452.203	17498.7
452.409	17580.62
452.615	17611.34
452.821	16648.79
453.027	16652.89
453.233	17320.53
453.44	16919.12
453.646	17111.63
453.852	17037.91
454.058	17416.78
454.264	17146.45
454.47	17242.7
454.676	16681.56
454.882	17449.55
455.088	16278.11
455.294	16132.7
455.5	16601.69
455.705	16642.65
455.911	15983.2
456.117	15747.69
456.323	15510.12
456.529	14731.89
456.735	15444.59
456.941	14918.26
457.147	14686.84
457.352	14439.03
457.558	14180.99
457.764	14228.09
457.97	14006.91
458.176	13458.06
458.381	13572.74
458.587	12915.34
458.793	12993.17
458.999	12503.7
459.204	13128.33
459.41	12886.67
459.616	11899.55
459.821	11756.19
460.027	11981.47
460.233	11600.55
460.438	10896.05
460.644	11272.87
460.85	10754.74
461.055	10648.24
461.261	10572.47
461.466	10005.18
461.672	9460.42
461.878	10152.63
462.083	9564.87
462.289	9349.83
462.494	9319.11
462.7	8753.87
462.905	8465.11
463.111	8792.78
463.316	8956.62
463.522	8674
463.727	8649.43
463.932	8696.53
464.138	8512.21
464.343	8379.09
464.549	8311.51
464.754	8671.95
464.959	8520.4
465.165	8587.99
465.37	8252.12
465.575	7693.02
465.781	8235.74
465.986	8227.54
466.191	8020.7
466.397	7891.68
466.602	7490.28
466.807	7801.57
467.012	8018.65
467.218	7727.84
467.423	7592.67
467.628	7639.78
467.833	8155.86
468.038	7738.08
468.244	7498.47
468.449	7647.97
468.654	7652.06
468.859	7416.55
469.064	7490.28
469.269	7236.33
469.474	6963.95
469.679	7287.53
469.885	7140.07
470.09	7168.74
470.295	7377.64
470.5	7090.92
470.705	6869.74
470.91	6873.84
471.115	6796.01
471.32	6824.69
471.525	6914.8
471.73	6636.27
471.935	6834.93
472.139	6367.99
472.344	6630.13
472.549	6583.02
472.754	6587.12
472.959	6257.4
473.164	6054.65
473.369	6105.85
473.574	6402.8
473.778	6189.81
473.983	6269.69
474.188	6130.42
474.393	5747.45
474.598	5927.67
474.802	5853.95
475.007	5782.27
475.212	5911.29
475.417	5526.27
475.621	5690.11
475.826	5690.11
476.031	5542.66
476.235	5509.89
476.44	5524.23
476.645	5565.18
476.849	5518.08
477.054	5229.32
477.259	5364.48
477.463	5233.41
477.668	4973.32
477.872	5024.52
478.077	5225.22
478.282	5057.29
478.486	5040.9
478.691	4987.66
478.895	4915.98
479.1	4829.96
479.304	4891.4
479.509	4713.23
479.713	4852.49
479.918	4674.32
480.122	4647.69
480.326	4690.7
480.531	4713.23
480.735	4680.46
480.94	4592.4
481.144	4795.15
481.348	4551.44
481.553	4537.1
481.757	4543.25
481.961	4545.3
482.166	4645.65
482.37	4616.97
482.574	4516.62
482.778	4397.84
482.983	4588.3
483.187	4528.91
483.391	4616.97
483.595	4520.72
483.8	4483.86
484.004	4498.19
484.208	4614.93
484.412	4659.98
484.616	4672.27
484.821	4565.78
485.025	4731.66
485.229	4469.52
485.433	4528.91
485.637	4356.88
485.841	4604.69
486.045	4496.14
486.249	4504.34
486.453	4324.12
486.657	4506.38
486.861	4627.21
487.065	4311.83
487.269	4483.86
487.473	4379.41
487.677	4623.12
487.881	4524.82
488.085	4567.82
488.289	4588.3
488.493	4539.15
488.697	4651.79
488.901	4627.21
489.105	4481.81
489.309	4571.92
489.512	4639.5
489.716	4590.35
489.92	4537.1
490.124	4496.14
490.328	4674.32
490.531	4625.17
490.735	4637.45
490.939	4678.41
491.143	4602.64
491.346	4602.64
491.55	4739.85
491.754	4709.13
491.958	4846.35
492.161	4686.61
492.365	4834.06
492.569	4836.11
492.772	4735.76
492.976	4891.4
493.18	4954.89
493.383	4762.38
493.587	4954.89
493.79	5012.23
493.994	4930.31
494.197	4975.37
494.401	4950.79
494.605	5264.13
494.808	5223.17
495.012	5030.66
495.215	5055.24
495.419	5247.75
495.622	5034.76
495.825	5409.54
496.029	5214.98
496.232	5270.28
496.436	5206.79
496.639	5544.7
496.843	5434.11
497.046	5528.32
497.249	5618.43
497.453	5675.77
497.656	5800.7
497.859	5704.45
498.063	5776.13
498.266	5980.92
498.469	5819.13
498.673	5970.68
498.876	6105.85
499.079	6034.17
499.282	5989.11
499.485	6288.12
499.689	5985.02
499.892	6429.43
500.095	6345.46
500.298	6652.66
500.501	6466.29
500.705	6523.63
500.908	6728.43
501.111	6759.15
501.314	6867.69
501.517	6834.93
501.72	7052.01
501.923	6951.66
502.126	7107.3
502.329	7187.18
502.532	7015.15
502.735	7271.14
502.938	7506.66
503.141	7611.11
503.344	7514.85
503.547	7664.35
503.75	7779.04
503.953	7895.77
504.156	7926.49
504.359	8006.36
504.562	8088.28
504.765	8215.26
504.968	8254.17
505.17	8209.11
505.373	8440.53
505.576	8678.1
505.779	8497.88
505.982	8764.11
506.185	8784.59
506.387	8862.41
506.59	8964.81
506.793	9179.85
506.996	9026.25
507.198	9407.17
507.401	9251.53
507.604	9419.46
507.807	9491.14
508.009	9528
508.212	9794.24
508.415	9724.61
508.617	10013.37
508.82	9824.96
509.022	9800.38
509.225	10328.76
509.428	10324.66
509.63	10132.15
509.833	10455.73
510.035	10631.86
510.238	10760.88
510.44	10754.74
510.643	10885.81
510.845	11031.21
511.048	10949.29
511.25	11217.58
511.453	11219.63
511.655	11772.58
511.858	11590.31
512.06	11725.47
512.262	11821.73
512.465	12028.57
512.667	11768.48
512.87	12020.38
513.072	12194.46
513.274	12563.09
513.477	12538.52
513.679	12575.38
513.881	12645.01
514.084	12788.37
514.286	12964.5
514.488	12952.21
514.69	13419.14
514.893	13273.74
515.095	13447.82
515.297	13777.54
515.499	13662.85
515.701	13918.85
515.904	13998.72
516.106	13974.14
516.308	14074.49
516.51	14307.96
516.712	14482.04
516.914	14658.17
517.116	14932.59
517.318	14817.91
517.52	14854.77
517.722	15034.99
517.925	15334
518.127	15426.15
518.329	15526.5
518.531	15512.17
518.733	15925.86
518.935	16050.78
519.136	15964.77
519.338	16198.24
519.54	16462.43
519.742	16374.36
519.944	16583.26
520.146	16960.08
520.348	16966.23
520.55	17105.49
520.752	16906.84
520.954	17558.09
521.155	17252.94
521.357	17416.78
521.559	17977.92
521.761	17914.44
521.963	18004.55
522.164	18301.5
522.366	18043.46
522.568	18201.15
522.77	18252.35
522.971	18647.61
523.173	18686.52
523.375	18940.47
523.576	18758.2
523.778	18682.42
523.98	18995.76
524.181	19210.8
524.383	19503.66
524.584	19499.56
524.786	19436.08
524.988	19450.41
525.189	19763.75
525.391	20093.47
525.592	19917.35
525.794	19939.88
525.995	20154.91
526.197	20095.52
526.398	20314.66
526.6	20662.81
526.801	20574.75
527.003	20593.18
527.204	20484.64
527.406	20785.69
527.607	20836.89
527.808	20931.09
528.01	20830.74
528.211	20806.17
528.412	21438.99
528.614	21256.72
528.815	21049.88
529.016	21244.43
529.218	21383.7
529.419	21690.89
529.62	21555.72
529.822	21412.37
530.023	21490.19
530.224	21719.56
530.425	21918.21
530.626	21561.87
530.828	21639.69
531.029	21961.22
531.23	21789.19
531.431	22000.13
531.632	22090.24
531.833	22084.1
532.035	21862.92
532.236	22053.38
532.437	21979.65
532.638	22006.28
532.839	22010.37
533.04	22223.36
533.241	21928.45
533.442	22465.02
533.643	22379.01
533.844	22047.24
534.045	22358.53
534.246	22338.05
534.447	22274.56
534.648	22295.04
534.849	22180.35
535.05	22149.64
535.251	22362.62
535.451	22290.95
535.652	22469.12
535.853	22718.97
536.054	22309.38
536.255	22348.29
536.456	22106.63
536.657	22571.52
536.857	22221.31
537.058	22385.15
537.259	22159.88
537.46	22454.78
537.66	22039.05
537.861	22376.96
538.062	22360.58
538.263	22268.42
538.463	22235.65
538.664	22381.06
538.865	22530.56
539.065	22622.72
539.266	22303.23
539.466	22594.04
539.667	22071.81
539.868	22370.82
540.068	22438.4
540.269	22336
540.469	22376.96
540.67	22397.44
540.87	22397.44
541.071	22245.89
541.271	22225.41
541.472	22338.05
541.672	22307.33
541.873	22301.19
542.073	22262.27
542.274	22598.14
542.474	22219.27
542.675	22315.52
542.875	22571.52
543.075	22231.55
543.276	22241.79
543.476	22426.11
543.676	22112.77
543.877	22530.56
544.077	22118.92
544.277	22366.72
544.478	22110.72
544.678	22342.14
544.878	22209.03
545.078	22196.74
545.279	22284.8
545.479	22284.8
545.679	22383.1
545.879	22280.71
546.079	22039.05
546.28	22198.79
546.48	22237.7
546.68	22327.81
546.88	22243.84
547.08	22206.98
547.28	22260.23
547.48	21889.54
547.68	22305.28
547.88	22051.33
548.081	22254.08
548.281	22096.39
548.481	22024.71
548.681	22528.51
548.881	22217.22
549.081	22319.62
549.28	21801.48
549.48	22409.73
549.68	22112.77
549.88	22239.75
550.08	21860.87
550.28	22135.3
550.48	21998.09
550.68	22090.24
550.88	22057.48
551.08	22028.81
551.279	22307.33
551.479	22051.33
551.679	22092.29
551.879	22012.42
552.079	21905.93
552.278	21801.48
552.478	21934.6
552.678	22147.59
552.878	21873.16
553.077	21795.34
553.277	21801.48
553.477	22080
553.676	21791.24
553.876	21895.69
554.076	21754.38
554.275	22057.48
554.475	21948.93
554.674	22000.13
554.874	21922.31
555.074	21744.14
555.273	21993.99
555.473	21781
555.672	21867.02
555.872	21748.23
556.071	21867.02
556.271	21963.27
556.47	21731.85
556.67	21424.65
556.869	21811.72
557.068	22039.05
557.268	21508.62
557.467	21662.22
557.667	21537.29
557.866	21522.96
558.065	21598.73
558.265	21383.7
558.464	21375.5
558.663	21316.11
558.863	21199.38
559.062	21674.51
559.261	21266.96
559.461	21535.24
559.66	21082.64
559.859	21285.39
560.058	21195.28
560.258	21219.86
560.457	20814.36
560.656	21383.7
560.855	21035.54
561.054	21109.27
561.253	21072.4
561.453	20865.56
561.652	20904.47
561.851	20648.47
562.05	20638.23
562.249	20671
562.448	21174.8
562.647	20750.87
562.846	20769.3
563.045	20625.95
563.244	20376.09
563.443	20474.4
563.642	20685.34
563.841	20447.77
564.04	20214.3
564.239	20609.56
564.438	20163.11
564.637	20445.73
564.836	20372
565.035	20083.23
565.234	20191.78
565.432	19935.78
565.631	20175.39
565.83	20179.49
566.029	19812.9
566.228	19982.88
566.427	19984.93
566.625	19456.56
566.824	19649.07
567.023	19919.4
567.222	19651.11
567.42	19778.09
567.619	19626.54
567.818	19653.16
568.016	19534.38
568.215	19808.81
568.414	19585.58
568.612	19442.22
568.811	19270.19
569.01	19151.41
569.208	18928.18
569.407	19384.88
569.605	18950.71
569.804	19249.71
570.002	18670.14
570.201	19008.05
570.4	18952.76
570.598	18661.94
570.797	18711.1
570.995	18545.21
571.193	18559.55
571.392	18801.21
571.59	18561.59
571.789	18629.18
571.987	18637.37
572.186	18342.46
572.384	18434.62
572.582	18391.61
572.781	18397.76
572.979	17680.97
573.177	18139.71
573.376	18258.49
573.574	17818.18
573.772	18344.51
573.971	17924.68
574.169	17766.98
574.367	17762.89
574.565	18059.84
574.763	17549.9
574.962	17470.03
575.16	17715.78
575.358	17832.52
575.556	17592.9
575.754	17775.17
575.952	17556.04
576.151	17615.43
576.349	17295.95
576.547	17379.92
576.745	17269.33
576.943	17582.67
577.141	17402.44
577.339	17269.33
577.537	17134.16
577.735	17191.5
577.933	16996.95
578.131	17003.09
578.329	16798.29
578.527	16855.64
578.725	16708.18
578.923	17037.91
579.121	16982.61
579.319	16636.5
579.516	16726.61
579.714	16761.43
579.912	16636.5
580.11	16593.5
580.308	16695.89
580.506	16487
580.704	16343.64
580.901	16601.69
581.099	16398.94
581.297	16284.25
581.495	15981.15
581.692	16163.42
581.89	16095.84
582.088	16194.14
582.285	16149.09
582.483	15878.76
582.681	16087.65
582.878	16204.38
583.076	15825.51
583.274	15956.58
583.471	15856.23
583.669	15659.62
583.866	15583.85
584.064	15802.98
584.262	15624.81
584.459	15598.18
584.657	15524.46
584.854	15647.33
585.052	15295.08
585.249	15538.79
585.447	15415.91
585.644	14955.12
585.841	15288.94
586.039	15313.52
586.236	15338.09
586.434	14996.08
586.631	15266.41
586.828	15209.07
587.026	15127.15
587.223	15032.94
587.42	14953.07
587.618	14748.28
587.815	14901.87
588.012	14699.13
588.21	14805.62
588.407	14901.87
588.604	14633.59
588.801	14654.07
588.999	14635.64
589.196	14611.06
589.393	14604.92
589.59	14600.82
589.787	14453.37
589.984	14363.26
590.182	14465.66
590.379	14389.88
590.576	14101.12
590.773	14363.26
590.97	14082.69
591.167	14328.44
591.364	14090.88
591.561	14387.83
591.758	14019.2
591.955	13976.19
592.152	14277.24
592.349	13965.95
592.546	13832.83
592.743	13986.43
592.94	13675.14
593.137	13820.55
593.334	13898.37
593.531	13603.46
593.727	13720.2
593.924	13763.2
594.121	13537.93
594.318	13611.65
594.515	13404.81
594.712	13329.03
594.908	13218.44
595.105	13445.77
595.302	13681.28
595.499	13034.13
595.696	13269.64
595.892	13185.68
596.089	13410.95
596.286	13154.96
596.482	13157
596.679	13040.27
596.876	13023.89
597.072	13073.04
597.269	13095.57
597.466	13034.13
597.662	12860.05
597.859	12933.78
598.055	12661.4
598.252	12745.36
598.448	12731.03
598.645	12765.84
598.841	12663.44
599.038	12708.5
599.234	12559
599.431	12552.85
599.627	12571.29
599.824	12458.65
600.02	12468.89
600.217	12257.95
600.413	12446.36
600.609	12259.99
600.806	12282.52
601.002	12333.72
601.198	12122.78
601.395	12118.68
601.591	11897.5
601.787	12208.8
601.984	11881.12
602.18	12122.78
602.376	11952.8
602.572	11973.28
602.769	11907.74
602.965	11881.12
603.161	11668.13
603.357	11823.78
603.553	11901.6
603.75	11715.23
603.946	11641.51
604.142	11680.42
604.338	11651.75
604.534	11750.05
604.73	11465.38
604.926	11670.18
605.122	11485.86
605.318	11465.38
605.514	11373.22
605.71	11186.86
605.906	11262.63
606.102	11471.53
606.298	11328.17
606.494	11416.23
606.69	11371.18
606.886	11565.73
607.082	11008.69
607.278	11340.46
607.474	11418.28
607.67	11252.39
607.866	10984.11
608.062	11193
608.257	10920.62
608.453	10920.62
608.649	10916.53
608.845	10926.77
609.041	10922.67
609.236	10873.52
609.432	10883.76
609.628	10828.46
609.824	10744.5
610.019	10672.82
610.215	10838.7
610.411	10830.51
610.606	10941.1
610.802	10865.33
610.998	10681.01
611.193	10724.02
611.389	10498.74
611.584	10402.49
611.78	10527.41
611.976	10693.3
612.171	10570.42
612.367	10691.25
612.562	10422.97
612.758	10353.34
612.953	10392.25
613.149	10332.86
613.344	10306.23
613.539	10394.29
613.735	10283.7
613.93	10463.93
614.126	10259.13
614.321	10425.01
614.517	10216.12
614.712	10224.31
614.907	10357.43
615.103	10277.56
615.298	10095.29
615.493	10183.35
615.688	10062.52
615.884	10267.32
616.079	10095.29
616.274	10111.68
616.47	9927.36
616.665	9900.73
616.86	9964.22
617.055	9835.2
617.25	9996.99
617.445	10130.11
617.641	9779.9
617.836	9956.03
618.031	9513.67
618.226	9767.62
618.421	9673.41
618.616	9814.72
618.811	9587.4
619.006	10087.1
619.201	9583.3
619.396	9941.69
619.591	9355.97
619.786	9589.44
619.981	9525.96
620.176	9581.25
620.371	9366.21
620.566	9401.03
620.761	9319.11
620.956	9431.75
621.151	9161.42
621.346	9298.63
621.541	9208.52
621.735	9216.71
621.93	9130.7
622.125	9095.88
622.32	8958.67
622.515	9007.82
622.709	8854.22
622.904	8925.9
623.099	8999.63
623.294	8843.98
623.488	8809.17
623.683	8786.64
623.878	8665.81
624.072	8792.78
624.267	8536.79
624.462	8538.84
624.656	8532.69
624.851	8501.97
625.046	8299.22
625.24	8436.44
625.435	8448.72
625.629	8266.46
625.824	8252.12
626.018	8364.76
626.213	8225.5
626.407	8133.34
626.602	7992.03
626.796	8121.05
626.991	8157.91
627.185	7961.31
627.38	8000.22
627.574	7910.11
627.768	7906.01
627.963	7650.02
628.157	7781.09
628.352	7746.27
628.546	7820
628.74	7762.65
628.935	7561.95
629.129	7590.63
629.323	7557.86
629.517	7465.7
629.712	7236.33
629.906	7492.32
630.1	7207.66
630.294	7181.03
630.489	7162.6
630.683	7287.53
630.877	7123.69
631.071	7088.87
631.265	7168.74
631.459	7080.68
631.653	7013.1
631.848	7293.67
632.042	6843.12
632.236	6791.92
632.43	6884.08
632.624	6853.36
632.818	6908.65
633.012	6738.67
633.206	6839.02
633.4	6830.83
633.594	6474.48
633.788	6683.38
633.982	6769.39
634.176	6650.61
634.369	6531.83
634.563	6437.62
634.757	6384.37
634.951	6513.39
635.145	6365.94
635.339	6462.19
635.533	6302.45
635.726	6363.89
635.92	6204.15
636.114	6322.93
636.308	6095.61
636.501	6230.77
636.695	6163.19
636.889	6019.83
637.083	5894.91
637.276	6060.79
637.47	6011.64
637.664	5958.39
637.857	6066.94
638.051	5966.59
638.244	5905.15
638.438	5753.6
638.632	5888.76
638.825	5810.94
639.019	5755.65
639.212	5806.84
639.406	5745.41
639.599	5702.4
639.793	5714.69
639.986	5495.55
640.18	5618.43
640.373	5593.86
640.567	5593.86
640.76	5559.04
640.954	5458.69
641.147	5344
641.34	5485.31
641.534	5421.83
641.727	5368.58
641.92	5370.63
642.114	5368.58
642.307	5270.28
642.5	5401.35
642.694	5149.45
642.887	5241.61
643.08	5264.13
643.273	5284.61
643.467	5239.56
643.66	5098.25
643.853	5065.48
644.046	4999.95
644.239	4913.93
644.432	4946.7
644.626	4868.88
644.819	4823.82
645.012	4813.58
645.205	4930.31
645.398	4979.47
645.591	4836.11
645.784	4881.16
645.977	4723.47
646.17	4676.37
646.363	4721.42
646.556	4543.25
646.749	4819.72
646.942	4715.28
647.135	4741.9
647.328	4614.93
647.521	4721.42
647.714	4580.11
647.907	4559.63
648.099	4528.91
648.292	4657.93
648.485	4512.53
648.678	4401.94
648.871	4500.24
649.064	4387.6
649.256	4373.27
649.449	4432.66
649.642	4338.45
649.835	4272.92
650.027	4211.48
650.22	4287.25
650.413	4223.76
650.605	4240.15
650.798	4297.49
650.991	4287.25
651.183	4215.57
651.376	4170.52
651.568	4154.13
651.761	4164.37
651.954	3963.67
652.146	3879.71
652.339	4191
652.531	4039.45
652.724	3889.95
652.916	3949.34
653.109	3943.19
653.301	4172.57
653.494	3975.96
653.686	3765.02
653.879	3914.52
654.071	3762.97
654.263	3967.77
654.456	3857.18
654.648	3951.39
654.84	3656.48
655.033	3636
655.225	3742.49
655.417	3699.48
655.61	3619.61
655.802	3638.05
655.994	3777.31
656.186	3756.83
656.379	3717.92
656.571	3527.46
656.763	3586.85
656.955	3595.04
657.148	3584.8
657.34	3607.33
657.532	3472.16
657.724	3535.65
657.916	3611.42
658.108	3482.4
658.3	3582.75
658.492	3437.34
658.684	3349.28
658.876	3365.67
659.068	3461.92
659.26	3312.42
659.452	3363.62
659.644	3412.77
659.836	3410.72
660.028	3326.75
660.22	3169.06
660.412	3222.31
660.604	3132.2
660.796	3261.22
660.988	3164.97
661.18	3099.43
661.372	3230.5
661.563	3128.1
661.755	3226.4
661.947	3183.4
662.139	3189.54
662.331	3150.63
662.522	2927.4
662.714	3052.33
662.906	3029.8
663.097	3019.56
663.289	2947.88
663.481	3015.46
663.673	3017.51
663.864	2894.63
664.056	2994.98
664.247	2984.74
664.439	3019.56
664.631	3031.85
664.822	2886.44
665.014	2796.33
665.205	3019.56
665.397	2775.85
665.588	2880.3
665.78	2812.71
665.971	2749.23
666.163	2841.39
666.354	2759.47
666.546	2732.84
666.737	2726.7
666.929	2837.29
667.12	2779.95
667.311	2685.74
667.503	2595.63
667.694	2601.77
667.885	2583.34
668.077	2521.9
668.268	2593.58
668.459	2677.55
668.651	2673.45
668.842	2614.06
669.033	2595.63
669.224	2497.33
669.416	2732.84
669.607	2507.57
669.798	2521.9
669.989	2583.34
670.18	2612.01
670.371	2454.32
670.563	2652.97
670.754	2620.21
670.945	2493.23
671.136	2542.38
671.327	2460.46
671.518	2421.55
671.709	2460.46
671.9	2513.71
672.091	2480.94
672.282	2431.79
672.473	2446.13
672.664	2407.22
672.855	2409.26
673.046	2358.07
673.237	2388.78
673.428	2478.9
673.619	2435.89
673.809	2214.71
674	2386.74
674.191	2263.86
674.382	2188.08
674.573	2296.63
674.764	2349.87
674.954	2394.93
675.145	2366.26
675.336	2366.26
675.527	2308.91
675.717	2298.67
675.908	2120.5
676.099	2206.52
676.289	2284.34
676.48	2261.81
676.671	2214.71
676.861	2345.78
677.052	2345.78
677.243	2300.72
677.433	2167.6
677.624	2206.52
677.814	2200.37
678.005	2196.28
678.195	2210.61
678.386	2255.67
678.576	2249.52
678.767	2206.52
678.957	2257.71
679.148	2192.18
679.338	2140.98
679.529	2093.88
679.719	2140.98
679.909	2100.02
680.1	2229.04
680.29	2204.47
680.481	2120.5
680.671	2087.73
680.861	2181.94
681.052	2108.21
681.242	2136.88
681.432	2091.83
681.622	2104.12
681.813	2030.39
682.003	2138.93
682.193	2050.87
682.383	2108.21
682.573	2151.22
682.764	2028.34
682.954	2110.26
683.144	2120.5
683.334	2085.69
683.524	2034.49
683.714	2059.06
683.904	2014.01
684.094	1921.85
684.284	2040.63
684.474	2003.77
684.664	1977.14
684.854	1936.18
685.044	2020.15
685.234	2001.72
685.424	2007.86
685.614	1997.62
685.804	1852.22
685.994	1897.27
686.184	1938.23
686.374	2048.82
686.564	1905.46
686.753	1907.51
686.943	1884.98
687.133	1907.51
687.323	1950.52
687.513	1899.32
687.702	1864.5
687.892	1944.38
688.082	1915.7
688.272	1932.09
688.461	1921.85
688.651	1868.6
688.841	1831.74
689.03	1844.03
689.22	1903.42
689.41	1864.5
689.599	1887.03
689.789	1780.54
689.979	1927.99
690.168	1837.88
690.358	1743.67
690.547	1829.69
690.737	1772.35
690.926	1694.52
691.116	1702.72
691.305	1862.46
691.495	1770.3
691.684	1751.87
691.874	1706.81
692.063	1803.07
692.252	1809.21
692.442	1653.56
692.631	1674.04
692.82	1749.82
693.01	1684.28
693.199	1684.28
693.388	1647.42
693.578	1708.86
693.767	1723.2
693.956	1665.85
694.146	1665.85
694.335	1641.28
694.524	1684.28
694.713	1690.43
694.902	1649.47
695.092	1645.37
695.281	1600.32
695.47	1592.13
695.659	1622.84
695.848	1594.17
696.037	1682.24
696.226	1669.95
696.415	1616.7
696.604	1651.52
696.793	1502.01
696.982	1610.56
697.171	1665.85
697.36	1639.23
697.549	1461.06
697.738	1577.79
697.927	1569.6
698.116	1518.4
698.305	1616.7
698.494	1542.97
698.683	1573.69
698.872	1633.08
699.061	1557.31
699.25	1643.32
699.438	1528.64
699.627	1549.12
699.816	1569.6
700.005	1524.54
700.193	1524.54
700.382	1520.45
700.571	1569.6
700.76	1432.38
700.948	1567.55
701.137	1536.83
701.326	1643.32
701.514	1469.25
701.703	1561.41
701.892	1502.01
702.08	1545.02
702.269	1549.12
702.457	1592.13
702.646	1518.4
702.834	1583.93
703.023	1620.8
703.212	1526.59
703.4	1512.25
703.589	1649.47
703.777	1581.89
703.965	1510.21
704.154	1534.78
704.342	1504.06
704.531	1551.17
704.719	1528.64
704.907	1542.97
705.096	1502.01
705.284	1522.49
705.472	1510.21
705.661	1633.08
705.849	1581.89
706.037	1536.83
706.226	1608.51
706.414	1596.22
706.602	1481.53
706.79	1530.69
706.979	1561.41
707.167	1487.68
707.355	1489.73
707.543	1538.88
707.731	1499.97
707.919	1575.74
708.107	1504.06
708.296	1571.65
708.484	1631.04
708.672	1639.23
708.86	1553.21
709.048	1567.55
709.236	1567.55
709.424	1456.96
709.612	1659.71
709.8	1528.64
709.988	1545.02
710.176	1596.22
710.364	1592.13
710.551	1514.3
710.739	1538.88
710.927	1637.18
711.115	1665.85
711.303	1569.6
711.491	1604.41
711.679	1600.32
711.866	1567.55
712.054	1628.99
712.242	1549.12
712.43	1530.69
712.617	1571.65
712.805	1653.56
712.993	1477.44
713.181	1514.3
713.368	1667.9
713.556	1444.67
713.744	1596.22
713.931	1631.04
714.119	1518.4
714.306	1497.92
714.494	1569.6
714.682	1483.58
714.869	1643.32
715.057	1657.66
715.244	1665.85
715.432	1600.32
715.619	1604.41
715.807	1594.17
715.994	1602.36
716.182	1674.04
716.369	1626.94
716.556	1776.44
716.744	1645.37
716.931	1649.47
717.119	1608.51
717.306	1604.41
717.493	1583.93
717.681	1633.08
717.868	1635.13
718.055	1653.56
718.242	1569.6
718.43	1616.7
718.617	1680.19
718.804	1616.7
718.991	1628.99
719.179	1637.18
719.366	1602.36
719.553	1626.94
719.74	1651.52
719.927	1626.94
720.114	1577.79
720.301	1643.32
720.488	1715
720.676	1692.48
720.863	1643.32
721.05	1704.76
721.237	1628.99
721.424	1651.52
721.611	1594.17
721.798	1672
721.985	1637.18
722.172	1735.48
722.358	1616.7
722.545	1735.48
722.732	1588.03
722.919	1602.36
723.106	1719.1
723.293	1641.28
723.48	1776.44
723.667	1641.28
723.853	1733.43
724.04	1776.44
724.227	1735.48
724.414	1645.37
724.6	1661.76
724.787	1725.24
724.974	1715
725.161	1715
725.347	1579.84
725.534	1669.95
725.72	1719.1
725.907	1758.01
726.094	1690.43
726.28	1715
726.467	1612.6
726.653	1821.5
726.84	1710.91
727.027	1669.95
727.213	1678.14
727.4	1706.81
727.586	1684.28
727.773	1628.99
727.959	1690.43
728.145	1702.72
728.332	1665.85
728.518	1768.25
728.705	1690.43
728.891	1676.09
729.077	1600.32
729.264	1594.17
729.45	1596.22
729.636	1690.43
729.823	1772.35
730.009	1735.48
730.195	1665.85
730.382	1743.67
730.568	1674.04
730.754	1780.54
730.94	1696.57
731.126	1682.24
731.313	1778.49
731.499	1753.91
731.685	1774.39
731.871	1747.77
732.057	1801.02
732.243	1725.24
732.429	1782.59
732.615	1805.11
732.801	1764.15
732.987	1633.08
733.173	1690.43
733.359	1831.74
733.545	1698.62
733.731	1753.91
733.917	1686.33
734.103	1655.61
734.289	1856.31
734.475	1780.54
734.661	1694.52
734.847	1653.56
735.033	1735.48
735.219	1712.96
735.404	1676.09
735.59	1698.62
735.776	1764.15
735.962	1776.44
736.148	1727.29
736.333	1688.38
736.519	1676.09
736.705	1717.05
736.89	1694.52
737.076	1686.33
737.262	1618.75
737.447	1712.96
737.633	1651.52
737.819	1708.86
738.004	1653.56
738.19	1774.39
738.375	1626.94
738.561	1698.62
738.747	1762.11
738.932	1663.8
739.118	1688.38
739.303	1710.91
739.489	1749.82
739.674	1712.96
739.859	1643.32
740.045	1684.28
740.23	1643.32
740.416	1643.32
740.601	1661.76
740.786	1485.63
740.972	1641.28
741.157	1669.95
741.342	1528.64
741.528	1643.32
741.713	1760.06
741.898	1620.8
742.084	1594.17
742.269	1616.7
742.454	1526.59
742.639	1614.65
742.824	1616.7
743.01	1678.14
743.195	1512.25
743.38	1481.53
743.565	1594.17
743.75	1618.75
743.935	1579.84
744.12	1520.45
744.305	1588.03
744.49	1542.97
744.675	1569.6
744.86	1473.34
745.045	1567.55
745.23	1405.76
745.415	1467.2
745.6	1508.16
745.785	1577.79
745.97	1477.44
746.155	1518.4
746.34	1561.41
746.525	1524.54
746.71	1510.21
746.895	1434.43
747.079	1454.91
747.264	1493.82
747.449	1528.64
747.634	1448.77
747.819	1364.8
748.003	1411.9
748.188	1313.6
748.373	1512.25
748.557	1370.94
748.742	1403.71
748.927	1452.86
749.111	1246.02
749.296	1377.09
749.481	1289.03
749.665	1399.62
749.85	1327.94
750.034	1407.81
750.219	1391.42
750.404	1313.6
750.588	1393.47
750.773	1217.35
750.957	1346.37
751.141	1246.02
751.326	1233.73
751.51	1157.96
751.695	1332.03
751.879	1272.64
752.064	1381.18
752.248	1145.67
752.432	1239.87
752.617	1278.79
752.801	1327.94
752.985	1209.15
753.17	1186.63
753.354	1231.68
753.538	1151.81
753.722	1186.63
753.907	1145.67
754.091	1174.34
754.275	1207.11
754.459	1168.2
754.643	1198.92
754.828	1131.33
755.012	1172.29
755.196	1069.89
755.38	1184.58
755.564	1141.57
755.748	1030.98
755.932	1051.46
756.116	1162.05
756.3	1090.37
756.484	1084.23
756.668	1153.86
756.852	987.97
757.036	992.07
757.22	983.88
757.404	1047.37
757.588	1092.42
757.772	996.17
757.956	1000.26
758.14	1022.79
758.323	967.49
758.507	1039.17
758.691	1088.32
758.875	908.1
759.059	979.78
759.242	914.25
759.426	969.54
759.61	944.97
759.794	1014.6
759.977	861
760.161	1051.46
760.345	955.21
760.528	1035.08
760.712	924.49
760.895	940.87
761.079	873.29
761.263	916.3
761.446	846.66
761.63	906.06
761.813	891.72
761.997	922.44
762.18	834.38
762.364	906.06
762.547	826.18
762.731	846.66
762.914	863.05
763.098	906.06
763.281	858.95
763.464	863.05
763.648	897.86
763.831	895.82
764.015	844.62
764.198	916.3
764.381	863.05
764.564	799.56
764.748	846.66
764.931	832.33
765.114	848.71
765.297	824.14
765.481	850.76
765.664	715.59
765.847	779.08
766.03	832.33
766.213	693.07
766.397	803.66
766.58	793.42
766.763	797.51
766.946	717.64
767.129	805.71
767.312	832.33
767.495	830.28
767.678	750.41
767.861	793.42
768.044	783.18
768.227	734.03
768.41	727.88
768.593	715.59
768.776	693.07
768.959	727.88
769.142	772.94
769.324	836.42
769.507	711.5
769.69	666.44
769.873	697.16
770.056	842.57
770.239	645.96
770.421	758.6
770.604	707.4
770.787	740.17
770.97	734.03
771.152	684.87
771.335	625.48
771.518	731.98
771.7	721.74
771.883	684.87
772.066	699.21
772.248	723.79
772.431	676.68
772.613	719.69
772.796	635.72
772.978	727.88
773.161	709.45
773.343	602.96
773.526	537.42
773.708	584.52
773.891	666.44
774.073	748.36
774.256	656.2
774.438	705.35
774.621	748.36
774.803	596.81
774.985	621.39
775.168	641.87
775.35	592.72
775.532	592.72
775.715	564.04
775.897	562
776.079	658.25
776.261	514.89
776.444	588.62
776.626	559.95
776.808	596.81
776.99	531.28
777.173	580.43
777.355	605
777.537	535.37
777.719	578.38
777.901	535.37
778.083	467.79
778.265	521.04
778.447	547.66
778.629	529.23
778.811	494.41
778.993	543.57
779.175	588.62
779.357	416.59
779.539	535.37
779.721	510.8
779.903	469.84
780.085	480.08
780.267	449.36
780.449	428.88
780.631	490.32
780.812	568.14
780.994	379.73
781.176	527.18
781.358	406.35
781.54	455.5
781.721	490.32
781.903	463.69
782.085	439.12
782.267	445.26
782.448	353.1
782.63	490.32
782.812	424.78
782.993	457.55
783.175	416.59
783.357	404.3
783.538	430.93
783.72	334.67
783.901	396.11
784.083	420.69
784.264	424.78
784.446	398.16
784.627	355.15
784.809	406.35
784.99	371.54
785.172	424.78
785.353	351.06
785.535	342.86
785.716	357.2
785.897	379.73
786.079	338.77
786.26	342.86
786.441	396.11
786.623	342.86
786.804	363.34
786.985	314.19
787.167	330.58
787.348	396.11
787.529	387.92
787.71	375.63
787.891	277.33
788.073	365.39
788.254	277.33
788.435	342.86
788.616	281.43
788.797	351.06
788.978	342.86
789.159	371.54
789.34	326.48
789.522	238.42
789.703	306
789.884	306
790.065	332.62
790.246	303.95
790.427	355.15
790.607	332.62
790.788	308.05
790.969	297.81
791.15	273.23
791.331	308.05
791.512	306
791.693	252.75
791.874	293.71
792.054	379.73
792.235	308.05
792.416	256.85
792.597	273.23
792.778	176.98
792.958	256.85
793.139	283.47
793.32	293.71
793.5	236.37
793.681	275.28
793.862	281.43
794.042	338.77
794.223	234.32
794.404	344.91
794.584	213.84
794.765	248.66
794.945	242.51
795.126	248.66
795.306	277.33
795.487	238.42
795.667	265.04
795.848	240.47
796.028	265.04
796.209	289.62
796.389	273.23
796.57	275.28
796.75	197.46
796.93	219.99
797.111	275.28
797.291	308.05
797.471	240.47
797.652	224.08
797.832	160.59
798.012	252.75
798.192	248.66
798.373	201.55
798.553	252.75
798.733	250.71
798.913	215.89
799.093	219.99
799.274	246.61
799.454	248.66
799.634	269.14
799.814	256.85
799.994	211.79
800.174	262.99
800.354	193.36
800.534	176.98
800.714	174.93
800.894	125.78
801.074	133.97
801.254	195.41
801.434	193.36
801.614	211.79
801.794	166.74
801.974	707.4
802.154	154.45
802.334	117.59
802.514	172.88
802.693	166.74
802.873	209.75
803.053	232.27
803.233	199.51
803.413	240.47
803.592	228.18
803.772	129.88
803.952	160.59
804.131	148.31
804.311	150.36
804.491	201.55
804.67	129.88
804.85	226.13
805.03	146.26
805.209	209.75
805.389	148.31
805.568	152.4
805.748	185.17
805.928	68.44
806.107	125.78
806.287	148.31
806.466	144.21
806.646	144.21
806.825	109.4
807.004	183.12
807.184	158.55
807.363	217.94
807.543	174.93
807.722	107.35
807.901	150.36
808.081	166.74
808.26	37.72
808.439	64.34
808.619	148.31
808.798	168.79
808.977	152.4
809.156	199.51
809.336	162.64
809.515	172.88
809.694	88.92
809.873	213.84
810.052	201.55
810.231	183.12
810.411	117.59
810.59	117.59
810.769	101.2
810.948	179.03
811.127	80.72
811.306	125.78
811.485	187.22
811.664	127.83
811.843	99.16
812.022	127.83
812.201	86.87
812.38	129.88
812.559	35.67
812.737	160.59
812.916	50
813.095	68.44
813.274	111.44
813.453	109.4
813.632	115.54
813.811	150.36
813.989	82.77
814.168	154.45
814.347	50
814.526	125.78
814.704	23.38
814.883	119.64
815.062	93.01
815.24	115.54
815.419	105.3
815.598	101.2
815.776	54.1
815.955	129.88
816.133	74.58
816.312	166.74
816.49	105.3
816.669	121.68
816.847	97.11
817.026	127.83
817.204	144.21
817.383	74.58
817.561	82.77
817.74	103.25
817.918	35.67
818.097	138.07
818.275	103.25
818.453	111.44
818.632	97.11
818.81	127.83
818.988	45.91
819.167	60.24
819.345	127.83
819.523	31.57
819.701	45.91
819.879	97.11
820.058	78.68
820.236	183.12
820.414	62.29
820.592	80.72
820.77	60.24
820.948	138.07
821.127	80.72
821.305	72.53
821.483	80.72
821.661	58.2
821.839	13.14
822.017	54.1
822.195	47.96
822.373	119.64
822.551	86.87
822.729	74.58
822.907	90.96
823.085	101.2
823.262	107.35
823.44	166.74
823.618	109.4
823.796	136.02
823.974	80.72
824.152	107.35
824.329	111.44
824.507	-17.58
824.685	62.29
824.863	76.63
825.04	17.24
825.218	146.26
825.396	39.76
825.574	39.76
825.751	76.63
825.929	103.25
826.107	101.2
826.284	131.92
826.462	115.54
826.639	56.15
826.817	-25.77
826.994	50
827.172	60.24
827.349	160.59
827.527	125.78
827.704	29.52
827.882	93.01
828.059	60.24
828.237	72.53
828.414	33.62
828.591	27.48
828.769	109.4
828.946	35.67
829.124	103.25
829.301	117.59
829.478	58.2
829.655	78.68
829.833	109.4
830.01	33.62
830.187	29.52
830.364	43.86
830.542	76.63
830.719	70.48
830.896	88.92
831.073	97.11
831.25	74.58
831.427	35.67
831.604	68.44
831.782	41.81
831.959	-13.48
832.136	43.86
832.313	39.76
832.49	35.67
832.667	56.15
832.844	29.52
833.021	54.1
833.198	70.48
833.374	45.91
833.551	47.96
833.728	101.2
833.905	107.35
834.082	4.95
834.259	19.29
834.436	119.64
834.612	74.58
834.789	27.48
834.966	-21.67
835.143	19.29
835.319	105.3
835.496	84.82
835.673	56.15
835.85	31.57
836.026	88.92
836.203	86.87
836.38	-17.58
836.556	58.2
836.733	-46.25
836.909	43.86
837.086	72.53
837.262	39.76
837.439	41.81
837.616	19.29
837.792	15.19
837.968	62.29
838.145	9.05
838.321	-5.29
838.498	52.05
838.674	47.96
838.851	27.48
839.027	2.9
839.203	-13.48
839.38	68.44
839.556	-1.19
839.732	125.78
839.909	47.96
840.085	80.72
840.261	-13.48
840.437	119.64
840.614	31.57
840.79	90.96
840.966	0.85
841.142	60.24
841.318	15.19
841.494	43.86
841.671	84.82
841.847	68.44
842.023	-38.06
842.199	-1.19
842.375	29.52
842.551	52.05
842.727	4.95
842.903	62.29
843.079	29.52
843.255	125.78
843.431	27.48
843.607	103.25
843.783	60.24
843.959	-13.48
844.134	-19.63
844.31	43.86
844.486	21.33
844.662	2.9
844.838	54.1
845.013	62.29
845.189	19.29
845.365	68.44
845.541	88.92
845.716	37.72
845.892	56.15
846.068	-17.58
846.244	31.57
846.419	56.15
846.595	-42.15
846.77	78.68
846.946	13.14
847.122	23.38
847.297	-13.48
847.473	144.21
847.648	45.91
847.824	19.29
847.999	13.14
848.175	13.14
848.35	58.2
848.526	66.39
848.701	15.19
848.876	64.34
849.052	9.05
849.227	93.01
849.403	7
849.578	35.67
849.753	101.2
849.929	-23.72
850.104	2.9
850.279	19.29
850.454	11.09
850.63	11.09
850.805	27.48
850.98	15.19
851.155	13.14
851.33	43.86
851.505	-33.96
851.681	88.92
851.856	-7.34
852.031	19.29
852.206	52.05
852.381	7
852.556	-25.77
852.731	23.38
852.906	7
853.081	72.53
853.256	82.77
853.431	2.9
853.606	45.91
853.781	39.76
853.956	-31.91
854.131	37.72
854.305	52.05
854.48	35.67
854.655	-7.34
854.83	-29.87
855.005	52.05
855.18	43.86
855.354	52.05
855.529	9.05
855.704	17.24
855.879	-21.67
856.053	13.14
856.228	-5.29
856.403	62.29
856.577	95.06
856.752	-31.91
856.926	29.52
857.101	-19.63
857.276	-50.35
857.45	27.48
857.625	29.52
857.799	0.85
857.974	-21.67
858.148	-38.06
858.323	-38.06
858.497	-40.11
858.672	27.48
858.846	-5.29
859.02	7
859.195	58.2
859.369	29.52
859.543	-7.34
859.718	4.95
859.892	-68.78
860.066	2.9
860.241	-9.39
860.415	-29.87
860.589	45.91
860.763	23.38
860.938	-11.43
861.112	23.38
861.286	13.14
861.46	58.2
861.634	15.19
861.808	-31.91
861.982	-21.67
862.157	19.29
862.331	-27.82
862.505	-48.3
862.679	-17.58
862.853	43.86
863.027	-13.48
863.201	93.01
863.375	-27.82
863.549	31.57
863.722	-19.63
863.896	50
864.07	-21.67
864.244	2.9
864.418	4.95
864.592	68.44
864.766	11.09
864.939	-3.24
865.113	-93.35
865.287	66.39
865.461	72.53
865.634	2.9
865.808	-9.39
865.982	19.29
866.156	11.09
866.329	-15.53
866.503	21.33
866.676	31.57
866.85	-29.87
867.024	2.9
867.197	11.09
867.371	37.72
867.544	13.14
867.718	-19.63
867.891	47.96
868.065	37.72
868.238	47.96
868.412	-40.11
868.585	4.95
868.759	-25.77
868.932	-15.53
869.105	-25.77
869.279	37.72
869.452	17.24
869.625	62.29
869.799	-27.82
869.972	-27.82
870.145	35.67
870.319	-13.48
870.492	4.95
870.665	-42.15
870.838	-15.53
871.011	-83.11
871.185	-33.96
871.358	-29.87
871.531	47.96
871.704	52.05
871.877	-11.43
872.05	-70.83
872.223	-74.92
872.396	0.85
872.569	35.67
872.742	19.29
872.915	45.91
873.088	-21.67
873.261	-44.2
873.434	-11.43
873.607	-76.97
873.78	2.9
873.953	2.9
874.126	29.52
874.299	72.53
874.471	-15.53
874.644	-15.53
874.817	52.05
874.99	23.38
875.163	43.86
875.335	-7.34
875.508	-21.67
875.681	2.9
875.853	-33.96
876.026	78.68
876.199	15.19
876.371	86.87
876.544	-29.87
876.717	35.67
876.889	-38.06
877.062	15.19
877.234	25.43
877.407	-9.39
877.579	9.05
877.752	27.48
877.924	45.91
878.097	80.72
878.269	-17.58
878.442	9.05
878.614	58.2
878.786	78.68
878.959	9.05
879.131	52.05
879.303	-17.58
879.476	78.68
879.648	2.9
879.82	0.85
879.993	-42.15
880.165	13.14
880.337	-72.87
880.509	-44.2
880.681	15.19
880.854	-29.87
881.026	-9.39
881.198	-7.34
881.37	-5.29
881.542	-17.58
881.714	2.9
881.886	-48.3
882.058	11.09
882.23	-19.63
882.402	19.29
882.574	7
882.746	2.9
882.918	23.38
883.09	0.85
883.262	-5.29
883.434	60.24
883.606	-97.45
883.778	-19.63
883.95	-27.82
884.122	19.29
884.293	2.9
884.465	-66.73
884.637	29.52
884.809	-23.72
884.98	11.09
885.152	11.09
885.324	25.43
885.496	-15.53
885.667	-13.48
885.839	-58.54
886.011	-3.24
886.182	25.43
886.354	76.63
886.525	15.19
886.697	2.9
886.869	-54.44
887.04	-17.58
887.212	68.44
887.383	-46.25
887.555	4.95
887.726	-29.87
887.897	54.1
888.069	-56.49
888.24	-33.96
888.412	-95.4
888.583	25.43
888.754	-5.29
888.926	-54.44
889.097	13.14
889.268	-66.73
889.44	19.29
889.611	-40.11
889.782	-66.73
889.953	37.72
890.125	27.48
890.296	-50.35
890.467	-29.87
890.638	-54.44
890.809	78.68
890.98	-13.48
891.151	11.09
891.323	27.48
891.494	-38.06
891.665	-29.87
891.836	31.57
892.007	11.09
892.178	-13.48
892.349	-40.11
892.52	70.48
892.691	93.01
892.862	35.67
893.032	-64.68
893.203	-52.39
893.374	21.33
893.545	13.14
893.716	13.14
893.887	-25.77
894.057	-54.44
894.228	-5.29
894.399	-70.83
894.57	93.01
894.74	2.9
894.911	-13.48
895.082	27.48
895.253	11.09
895.423	11.09
895.594	-33.96
895.764	7
895.935	15.19
896.106	29.52
896.276	-36.01
896.447	17.24
896.617	-66.73
896.788	-46.25
896.958	27.48
897.129	-9.39
897.299	-13.48
897.47	23.38
897.64	52.05
897.81	-74.92
897.981	9.05
898.151	-23.72
898.322	-3.24
898.492	-9.39
898.662	-48.3
898.832	-7.34
899.003	33.62
899.173	-19.63
899.343	-31.91
899.513	-40.11
