Data from USB4F104151__77__13-12-28-533.txt Node

Date: Fri Mar 14 13:12:28 EDT 2025
User: louis
Spectrometer: USB4F10415
Trigger mode: 4
Integration Time (sec): 2.000000E-2
Scans to average: 1
Electric dark correction enabled: true
Nonlinearity correction enabled: false
Boxcar width: 0
XAxis mode: Wavelengths
Number of Pixels in Spectrum: 3648
>>>>>Begin Spectral Data<<<<<
178.204	-73.56
178.424	-73.56
178.644	-73.56
178.864	-81.75
179.084	-145.24
179.304	-40.79
179.524	-22.36
179.744	-38.74
179.964	37.03
180.184	55.47
180.404	6.31
180.624	49.32
180.844	24.75
181.064	-69.46
181.283	-42.84
181.503	18.6
181.723	22.7
181.943	-42.84
182.163	24.75
182.383	-32.6
182.602	59.56
182.822	96.43
183.042	43.18
183.262	-30.55
183.482	16.55
183.701	2.22
183.921	-42.84
184.141	100.52
184.361	53.42
184.58	26.79
184.8	61.61
185.02	-26.45
185.239	47.27
185.459	34.99
185.679	-44.88
185.898	-32.6
186.118	39.08
186.338	-28.5
186.557	47.27
186.777	10.41
186.997	37.03
187.216	59.56
187.436	61.61
187.655	45.23
187.875	90.28
188.095	59.56
188.314	98.47
188.534	51.37
188.753	-3.93
188.973	12.46
189.192	92.33
189.412	8.36
189.631	65.71
189.851	22.7
190.07	65.71
190.29	-55.12
190.509	-32.6
190.729	18.6
190.948	57.51
191.168	67.75
191.387	6.31
191.607	-73.56
191.826	51.37
192.045	65.71
192.265	39.08
192.484	67.75
192.704	-36.69
192.923	-46.93
193.142	73.9
193.362	-8.02
193.581	112.81
193.8	77.99
194.02	53.42
194.239	8.36
194.458	43.18
194.678	-14.17
194.897	34.99
195.116	8.36
195.335	98.47
195.555	30.89
195.774	53.42
195.993	26.79
196.212	32.94
196.432	-20.31
196.651	-12.12
196.87	77.99
197.089	73.9
197.308	28.84
197.528	-10.07
197.747	-40.79
197.966	24.75
198.185	73.9
198.404	84.14
198.623	39.08
198.842	71.85
199.062	-34.64
199.281	39.08
199.5	45.23
199.719	-5.97
199.938	51.37
200.157	69.8
200.376	4.27
200.595	37.03
200.814	-12.12
201.033	69.8
201.252	28.84
201.471	16.55
201.69	-18.26
201.909	77.99
202.128	16.55
202.347	65.71
202.566	34.99
202.785	-24.4
203.004	6.31
203.223	51.37
203.442	26.79
203.661	8.36
203.879	2.22
204.098	65.71
204.317	-48.98
204.536	30.89
204.755	75.95
204.974	-36.69
205.193	22.7
205.411	-14.17
205.63	26.79
205.849	20.65
206.068	16.55
206.287	84.14
206.505	53.42
206.724	49.32
206.943	49.32
207.162	-28.5
207.381	65.71
207.599	88.23
207.818	22.7
208.037	8.36
208.255	16.55
208.474	49.32
208.693	63.66
208.911	10.41
209.13	67.75
209.349	47.27
209.567	-30.55
209.786	32.94
210.005	4.27
210.223	16.55
210.442	-34.64
210.661	10.41
210.879	32.94
211.098	32.94
211.316	22.7
211.535	49.32
211.753	37.03
211.972	45.23
212.191	-1.88
212.409	49.32
212.628	69.8
212.846	16.55
213.065	71.85
213.283	12.46
213.502	30.89
213.72	71.85
213.938	14.51
214.157	0.17
214.375	39.08
214.594	16.55
214.812	12.46
215.031	12.46
215.249	-32.6
215.467	16.55
215.686	123.05
215.904	26.79
216.122	73.9
216.341	118.95
216.559	49.32
216.778	-71.51
216.996	41.13
217.214	-30.55
217.432	12.46
217.651	-24.4
217.869	67.75
218.087	32.94
218.306	65.71
218.524	-30.55
218.742	0.17
218.96	39.08
219.179	39.08
219.397	2.22
219.615	84.14
219.833	37.03
220.051	-18.26
220.27	73.9
220.488	18.6
220.706	45.23
220.924	57.51
221.142	16.55
221.36	100.52
221.578	-22.36
221.796	22.7
222.015	12.46
222.233	24.75
222.451	16.55
222.669	-34.64
222.887	22.7
223.105	16.55
223.323	0.17
223.541	18.6
223.759	28.84
223.977	14.51
224.195	37.03
224.413	10.41
224.631	98.47
224.849	-3.93
225.067	51.37
225.285	-28.5
225.503	41.13
225.721	-10.07
225.939	18.6
226.157	-14.17
226.375	18.6
226.592	18.6
226.81	30.89
227.028	32.94
227.246	16.55
227.464	-16.21
227.682	-40.79
227.9	-12.12
228.117	43.18
228.335	59.56
228.553	88.23
228.771	55.47
228.989	80.04
229.206	2.22
229.424	49.32
229.642	-22.36
229.86	86.19
230.077	59.56
230.295	75.95
230.513	-16.21
230.731	34.99
230.948	67.75
231.166	106.67
231.384	71.85
231.601	24.75
231.819	65.71
232.037	-24.4
232.254	4.27
232.472	86.19
232.689	-24.4
232.907	0.17
233.125	37.03
233.342	37.03
233.56	-8.02
233.777	69.8
233.995	28.84
234.213	24.75
234.43	88.23
234.648	43.18
234.865	61.61
235.083	-20.31
235.3	-16.21
235.518	26.79
235.735	71.85
235.953	73.9
236.17	77.99
236.388	75.95
236.605	86.19
236.822	88.23
237.04	6.31
237.257	2.22
237.475	32.94
237.692	65.71
237.909	-16.21
238.127	-14.17
238.344	34.99
238.562	26.79
238.779	-14.17
238.996	57.51
239.214	84.14
239.431	22.7
239.648	22.7
239.865	104.62
240.083	2.22
240.3	18.6
240.517	77.99
240.735	-12.12
240.952	59.56
241.169	141.48
241.386	88.23
241.603	73.9
241.821	43.18
242.038	39.08
242.255	34.99
242.472	-30.55
242.689	86.19
242.907	82.09
243.124	75.95
243.341	0.17
243.558	61.61
243.775	-16.21
243.992	24.75
244.209	37.03
244.426	92.33
244.643	69.8
244.86	-32.6
245.078	75.95
245.295	41.13
245.512	65.71
245.729	39.08
245.946	8.36
246.163	16.55
246.38	77.99
246.597	-20.31
246.814	-5.97
247.031	2.22
247.248	16.55
247.464	43.18
247.681	37.03
247.898	20.65
248.115	65.71
248.332	55.47
248.549	51.37
248.766	65.71
248.983	65.71
249.2	73.9
249.417	75.95
249.633	51.37
249.85	67.75
250.067	18.6
250.284	16.55
250.501	37.03
250.717	16.55
250.934	53.42
251.151	-1.88
251.368	4.27
251.585	57.51
251.801	49.32
252.018	41.13
252.235	34.99
252.451	37.03
252.668	-46.93
252.885	57.51
253.102	8.36
253.318	67.75
253.535	-12.12
253.752	12.46
253.968	49.32
254.185	16.55
254.401	55.47
254.618	20.65
254.835	-8.02
255.051	16.55
255.268	41.13
255.484	102.57
255.701	86.19
255.917	28.84
256.134	53.42
256.351	12.46
256.567	-32.6
256.784	-16.21
257	-85.84
257.217	-22.36
257.433	67.75
257.65	26.79
257.866	82.09
258.082	-14.17
258.299	10.41
258.515	88.23
258.732	-3.93
258.948	24.75
259.165	-22.36
259.381	30.89
259.597	0.17
259.814	118.95
260.03	41.13
260.246	0.17
260.463	-5.97
260.679	82.09
260.895	20.65
261.112	0.17
261.328	57.51
261.544	6.31
261.761	20.65
261.977	6.31
262.193	53.42
262.409	59.56
262.626	0.17
262.842	41.13
263.058	6.31
263.274	12.46
263.49	63.66
263.707	108.71
263.923	47.27
264.139	43.18
264.355	0.17
264.571	182.44
264.787	67.75
265.004	-20.31
265.22	63.66
265.436	-28.5
265.652	49.32
265.868	12.46
266.084	16.55
266.3	22.7
266.516	-57.17
266.732	41.13
266.948	49.32
267.164	-12.12
267.38	65.71
267.596	-46.93
267.812	53.42
268.028	82.09
268.244	6.31
268.46	45.23
268.676	34.99
268.892	104.62
269.108	63.66
269.324	82.09
269.54	22.7
269.756	32.94
269.972	-26.45
270.188	43.18
270.403	26.79
270.619	8.36
270.835	2.22
271.051	-22.36
271.267	-24.4
271.483	51.37
271.698	114.86
271.914	73.9
272.13	34.99
272.346	-24.4
272.562	123.05
272.777	24.75
272.993	12.46
273.209	57.51
273.425	16.55
273.64	-10.07
273.856	65.71
274.072	-51.03
274.287	34.99
274.503	49.32
274.719	55.47
274.934	4.27
275.15	-20.31
275.366	28.84
275.581	-3.93
275.797	43.18
276.012	39.08
276.228	10.41
276.444	28.84
276.659	123.05
276.875	-51.03
277.09	59.56
277.306	-8.02
277.521	73.9
277.737	90.28
277.952	114.86
278.168	41.13
278.383	2.22
278.599	63.66
278.814	-38.74
279.03	-5.97
279.245	168.1
279.461	-16.21
279.676	16.55
279.892	-26.45
280.107	90.28
280.322	73.9
280.538	-12.12
280.753	43.18
280.969	0.17
281.184	51.37
281.399	90.28
281.615	34.99
281.83	-1.88
282.045	32.94
282.26	37.03
282.476	34.99
282.691	112.81
282.906	-1.88
283.122	-5.97
283.337	0.17
283.552	37.03
283.767	65.71
283.983	32.94
284.198	53.42
284.413	-46.93
284.628	-8.02
284.843	108.71
285.058	20.65
285.274	22.7
285.489	41.13
285.704	34.99
285.919	-8.02
286.134	45.23
286.349	-3.93
286.564	57.51
286.779	32.94
286.995	0.17
287.21	14.51
287.425	57.51
287.64	4.27
287.855	55.47
288.07	-5.97
288.285	24.75
288.5	86.19
288.715	32.94
288.93	63.66
289.145	6.31
289.36	26.79
289.575	0.17
289.79	49.32
290.004	30.89
290.219	80.04
290.434	41.13
290.649	22.7
290.864	0.17
291.079	84.14
291.294	84.14
291.509	28.84
291.724	102.57
291.938	75.95
292.153	16.55
292.368	37.03
292.583	32.94
292.798	37.03
293.012	2.22
293.227	75.95
293.442	-24.4
293.657	-3.93
293.871	90.28
294.086	24.75
294.301	118.95
294.516	-18.26
294.73	47.27
294.945	18.6
295.16	32.94
295.374	41.13
295.589	80.04
295.804	10.41
296.018	41.13
296.233	4.27
296.447	32.94
296.662	51.37
296.877	41.13
297.091	75.95
297.306	-5.97
297.52	32.94
297.735	57.51
297.949	-10.07
298.164	-16.21
298.378	71.85
298.593	49.32
298.807	10.41
299.022	82.09
299.236	45.23
299.451	16.55
299.665	-24.4
299.88	65.71
300.094	73.9
300.309	-57.17
300.523	-10.07
300.737	55.47
300.952	75.95
301.166	94.38
301.381	37.03
301.595	-55.12
301.809	30.89
302.024	2.22
302.238	16.55
302.452	102.57
302.667	69.8
302.881	12.46
303.095	28.84
303.309	20.65
303.524	-24.4
303.738	82.09
303.952	0.17
304.166	20.65
304.381	-18.26
304.595	114.86
304.809	75.95
305.023	20.65
305.237	-24.4
305.452	10.41
305.666	65.71
305.88	77.99
306.094	-14.17
306.308	4.27
306.522	55.47
306.736	108.71
306.95	39.08
307.164	43.18
307.379	131.24
307.593	59.56
307.807	102.57
308.021	6.31
308.235	-16.21
308.449	73.9
308.663	57.51
308.877	98.47
309.091	-5.97
309.305	57.51
309.519	20.65
309.733	-3.93
309.947	0.17
310.161	141.48
310.374	26.79
310.588	41.13
310.802	53.42
311.016	-18.26
311.23	104.62
311.444	-3.93
311.658	55.47
311.872	135.34
312.085	10.41
312.299	71.85
312.513	47.27
312.727	18.6
312.941	-1.88
313.154	14.51
313.368	2.22
313.582	73.9
313.796	37.03
314.009	53.42
314.223	61.61
314.437	20.65
314.651	63.66
314.864	51.37
315.078	-20.31
315.292	28.84
315.505	-24.4
315.719	4.27
315.933	55.47
316.146	59.56
316.36	-30.55
316.573	0.17
316.787	61.61
317.001	80.04
317.214	22.7
317.428	61.61
317.641	20.65
317.855	32.94
318.068	51.37
318.282	24.75
318.495	67.75
318.709	108.71
318.922	30.89
319.136	67.75
319.349	53.42
319.563	131.24
319.776	53.42
319.99	47.27
320.203	96.43
320.417	18.6
320.63	10.41
320.843	2.22
321.057	34.99
321.27	10.41
321.483	43.18
321.697	102.57
321.91	-32.6
322.124	0.17
322.337	43.18
322.55	30.89
322.763	32.94
322.977	16.55
323.19	59.56
323.403	41.13
323.617	80.04
323.83	75.95
324.043	26.79
324.256	114.86
324.469	28.84
324.683	133.29
324.896	90.28
325.109	65.71
325.322	-59.22
325.535	88.23
325.748	43.18
325.962	71.85
326.175	118.95
326.388	65.71
326.601	92.33
326.814	2.22
327.027	-20.31
327.24	75.95
327.453	0.17
327.666	69.8
327.879	-3.93
328.092	30.89
328.305	22.7
328.518	-22.36
328.731	4.27
328.944	90.28
329.157	22.7
329.37	82.09
329.583	12.46
329.796	73.9
330.009	-3.93
330.222	82.09
330.435	53.42
330.648	32.94
330.861	2.22
331.073	16.55
331.286	37.03
331.499	67.75
331.712	4.27
331.925	55.47
332.138	37.03
332.35	57.51
332.563	-1.88
332.776	53.42
332.989	86.19
333.202	53.42
333.414	2.22
333.627	57.51
333.84	8.36
334.053	55.47
334.265	73.9
334.478	10.41
334.691	49.32
334.903	43.18
335.116	-28.5
335.329	71.85
335.541	59.56
335.754	98.47
335.966	12.46
336.179	16.55
336.392	8.36
336.604	34.99
336.817	82.09
337.029	80.04
337.242	57.51
337.454	57.51
337.667	37.03
337.88	106.67
338.092	32.94
338.305	49.32
338.517	49.32
338.729	61.61
338.942	80.04
339.154	61.61
339.367	63.66
339.579	86.19
339.792	8.36
340.004	43.18
340.217	10.41
340.429	98.47
340.641	0.17
340.854	16.55
341.066	-14.17
341.278	30.89
341.491	43.18
341.703	37.03
341.915	-3.93
342.128	41.13
342.34	84.14
342.552	18.6
342.764	82.09
342.977	73.9
343.189	53.42
343.401	63.66
343.613	16.55
343.826	69.8
344.038	37.03
344.25	18.6
344.462	8.36
344.674	24.75
344.886	2.22
345.099	73.9
345.311	80.04
345.523	26.79
345.735	-40.79
345.947	-12.12
346.159	55.47
346.371	45.23
346.583	-22.36
346.795	55.47
347.007	69.8
347.219	16.55
347.431	32.94
347.643	6.31
347.855	49.32
348.067	116.9
348.279	8.36
348.491	57.51
348.703	6.31
348.915	73.9
349.127	-8.02
349.339	-5.97
349.551	41.13
349.763	57.51
349.975	26.79
350.187	123.05
350.399	86.19
350.61	106.67
350.822	-34.64
351.034	59.56
351.246	39.08
351.458	51.37
351.669	57.51
351.881	65.71
352.093	102.57
352.305	131.24
352.517	41.13
352.728	133.29
352.94	57.51
353.152	53.42
353.363	10.41
353.575	57.51
353.787	75.95
353.999	98.47
354.21	69.8
354.422	108.71
354.633	41.13
354.845	82.09
355.057	49.32
355.268	53.42
355.48	53.42
355.692	61.61
355.903	20.65
356.115	8.36
356.326	10.41
356.538	75.95
356.749	16.55
356.961	53.42
357.172	43.18
357.384	22.7
357.595	57.51
357.807	-24.4
358.018	-22.36
358.23	26.79
358.441	96.43
358.653	73.9
358.864	73.9
359.075	16.55
359.287	90.28
359.498	47.27
359.709	-44.88
359.921	30.89
360.132	-40.79
360.344	-16.21
360.555	2.22
360.766	-8.02
360.977	86.19
361.189	131.24
361.4	55.47
361.611	14.51
361.823	51.37
362.034	65.71
362.245	63.66
362.456	-26.45
362.667	-34.64
362.879	57.51
363.09	67.75
363.301	82.09
363.512	41.13
363.723	30.89
363.935	71.85
364.146	92.33
364.357	4.27
364.568	-14.17
364.779	73.9
364.99	77.99
365.201	45.23
365.412	61.61
365.623	-3.93
365.834	71.85
366.045	41.13
366.256	75.95
366.467	49.32
366.678	20.65
366.889	26.79
367.1	37.03
367.311	71.85
367.522	-24.4
367.733	2.22
367.944	24.75
368.155	84.14
368.366	67.75
368.577	41.13
368.788	57.51
368.999	57.51
369.209	24.75
369.42	98.47
369.631	57.51
369.842	-14.17
370.053	22.7
370.264	32.94
370.474	16.55
370.685	131.24
370.896	63.66
371.107	63.66
371.317	96.43
371.528	106.67
371.739	10.41
371.95	-1.88
372.16	53.42
372.371	75.95
372.582	24.75
372.792	-3.93
373.003	80.04
373.214	0.17
373.424	112.81
373.635	8.36
373.846	59.56
374.056	28.84
374.267	80.04
374.477	12.46
374.688	30.89
374.898	18.6
375.109	24.75
375.319	-24.4
375.53	57.51
375.74	-1.88
375.951	49.32
376.161	118.95
376.372	43.18
376.582	106.67
376.793	92.33
377.003	61.61
377.214	55.47
377.424	71.85
377.635	80.04
377.845	41.13
378.055	51.37
378.266	26.79
378.476	75.95
378.686	-5.97
378.897	24.75
379.107	2.22
379.317	24.75
379.528	102.57
379.738	61.61
379.948	37.03
380.158	65.71
380.369	53.42
380.579	73.9
380.789	26.79
380.999	161.96
381.21	30.89
381.42	26.79
381.63	47.27
381.84	57.51
382.05	37.03
382.261	63.66
382.471	-36.69
382.681	12.46
382.891	41.13
383.101	10.41
383.311	4.27
383.521	39.08
383.731	75.95
383.941	106.67
384.151	82.09
384.361	71.85
384.571	65.71
384.781	98.47
384.991	22.7
385.201	53.42
385.411	-8.02
385.621	20.65
385.831	-8.02
386.041	77.99
386.251	90.28
386.461	98.47
386.671	92.33
386.881	45.23
387.091	57.51
387.301	26.79
387.511	-10.07
387.72	32.94
387.93	20.65
388.14	59.56
388.35	18.6
388.56	104.62
388.769	63.66
388.979	6.31
389.189	14.51
389.399	131.24
389.609	41.13
389.818	84.14
390.028	98.47
390.238	106.67
390.447	49.32
390.657	67.75
390.867	51.37
391.076	26.79
391.286	55.47
391.496	39.08
391.705	45.23
391.915	90.28
392.125	0.17
392.334	127.14
392.544	-51.03
392.753	90.28
392.963	-24.4
393.172	57.51
393.382	39.08
393.591	80.04
393.801	100.52
394.01	135.34
394.22	39.08
394.429	63.66
394.639	55.47
394.848	43.18
395.058	86.19
395.267	82.09
395.477	24.75
395.686	88.23
395.895	104.62
396.105	32.94
396.314	61.61
396.524	75.95
396.733	49.32
396.942	131.24
397.152	92.33
397.361	96.43
397.57	129.19
397.78	86.19
397.989	80.04
398.198	108.71
398.407	69.8
398.617	106.67
398.826	77.99
399.035	49.32
399.244	155.82
399.453	90.28
399.663	86.19
399.872	168.1
400.081	88.23
400.29	94.38
400.499	92.33
400.708	94.38
400.917	180.39
401.127	45.23
401.336	43.18
401.545	176.3
401.754	100.52
401.963	135.34
402.172	125.1
402.381	88.23
402.59	34.99
402.799	75.95
403.008	110.76
403.217	131.24
403.426	176.3
403.635	45.23
403.844	104.62
404.053	155.82
404.262	84.14
404.471	174.25
404.68	164.01
404.888	125.1
405.097	110.76
405.306	155.82
405.515	123.05
405.724	77.99
405.933	172.2
406.142	159.91
406.35	114.86
406.559	149.67
406.768	225.45
406.977	139.43
407.185	159.91
407.394	215.21
407.603	182.44
407.812	264.36
408.02	196.78
408.229	243.88
408.438	180.39
408.646	221.35
408.855	266.41
409.064	172.2
409.272	272.55
409.481	250.02
409.69	245.93
409.898	207.02
410.107	274.6
410.315	336.04
410.524	258.21
410.733	147.62
410.941	231.59
411.15	331.94
411.358	295.08
411.567	379.04
411.775	280.74
411.984	368.81
412.192	352.42
412.401	387.24
412.609	377
412.818	434.34
413.026	383.14
413.234	385.19
413.443	471.2
413.651	409.76
413.86	479.4
414.068	493.73
414.276	538.79
414.485	594.08
414.693	401.57
414.901	585.89
415.11	663.71
415.318	544.93
415.526	577.7
415.734	594.08
415.943	618.66
416.151	622.75
416.359	704.67
416.567	714.91
416.776	788.64
416.984	772.25
417.192	749.73
417.4	837.79
417.608	725.15
417.817	852.13
418.025	876.7
418.233	870.56
418.441	927.9
418.649	952.48
418.857	995.48
419.065	1093.79
419.273	1009.82
419.481	1116.31
419.689	1237.14
419.897	1247.38
420.105	1282.2
420.313	1304.73
420.521	1347.73
420.729	1366.17
420.937	1343.64
421.145	1448.08
421.353	1513.62
421.561	1525.91
421.769	1628.31
421.977	1656.98
422.185	1665.17
422.393	1745.04
422.601	1945.74
422.809	1849.49
423.017	1937.55
423.224	1853.58
423.432	2005.13
423.64	1978.51
423.848	2205.83
424.056	2226.31
424.263	2363.53
424.471	2295.94
424.679	2355.33
424.887	2572.42
425.094	2545.8
425.302	2461.83
425.51	2728.07
425.718	2752.64
425.925	2744.45
426.133	2783.36
426.341	3053.69
426.548	3178.62
426.756	3125.37
426.964	3170.43
427.171	3440.76
427.379	3455.09
427.586	3543.16
427.794	3612.79
428.001	3932.27
428.209	3958.89
428.417	3954.8
428.624	4124.78
428.832	4305
429.039	4178.03
429.247	4178.03
429.454	4663.4
429.662	4737.12
429.869	4624.48
430.076	4958.3
430.284	4847.71
430.491	4909.15
430.699	5271.64
430.906	5136.48
431.114	5341.27
431.321	5474.39
431.528	5482.58
431.736	5947.47
431.943	6180.94
432.15	5965.9
432.358	6191.18
432.565	6422.6
432.772	6342.73
432.979	6701.12
433.187	6881.35
433.394	7071.81
433.601	7458.87
433.808	7364.67
434.016	7469.11
434.223	7579.7
434.43	8210.48
434.637	8038.45
434.844	8544.3
435.052	8689.7
435.259	8683.56
435.466	8810.53
435.673	8798.24
435.88	9166.88
436.087	9596.95
436.294	9785.37
436.501	9461.79
436.708	9605.14
436.915	9889.81
437.122	10455.05
437.329	10426.38
437.537	10770.44
437.743	10854.41
437.95	10768.39
438.157	11501.56
438.364	11747.32
438.571	11657.21
438.778	11810.81
438.985	12842.98
439.192	12388.33
439.399	12840.93
439.606	12500.97
439.813	13311.97
440.02	14245.84
440.227	13772.76
440.433	13484
440.64	13936.6
440.847	13899.73
441.054	14198.74
441.261	15497.15
441.467	15101.89
441.674	15425.47
441.881	15876.02
442.088	15704
442.294	15708.09
442.501	16201.65
442.708	16578.48
442.914	17194.92
443.121	17846.17
443.328	17442.72
443.534	18710.41
443.741	17967
443.948	17967
444.154	19324.8
444.361	19283.84
444.568	19240.84
444.774	19242.89
444.981	19478.4
445.187	19974.01
445.394	20924.27
445.6	20664.18
445.807	22564.69
446.013	21397.35
446.22	22118.23
446.426	23236.42
446.633	22880.08
446.839	23766.85
447.046	22939.47
447.252	24211.26
447.459	24000.32
447.665	24098.62
447.871	25392.94
448.078	26414.87
448.284	25042.73
448.491	26033.95
448.697	26869.52
448.903	27264.78
449.11	27291.4
449.316	26906.38
449.522	27834.11
449.728	28229.37
449.935	28499.7
450.141	28139.26
450.347	29118.19
450.553	28043.01
450.76	28462.84
450.966	29746.92
451.172	29329.13
451.378	29896.42
451.584	29486.82
451.791	29937.38
451.997	29800.16
452.203	30240.48
452.409	30545.62
452.615	30457.56
452.821	29550.31
453.027	28993.26
453.233	30420.7
453.44	29574.89
453.646	29634.28
453.852	30131.93
454.058	30568.15
454.264	29411.05
454.47	30422.75
454.676	29447.91
454.882	30492.38
455.088	27922.18
455.294	28280.57
455.5	28589.81
455.705	29234.92
455.911	27940.61
456.117	27172.62
456.323	26871.57
456.529	25689.89
456.735	26668.82
456.941	26103.58
457.147	25769.76
457.352	24907.57
457.558	24960.81
457.764	24495.92
457.97	24465.21
458.176	23703.36
458.381	23983.93
458.587	22613.84
458.793	22282.07
458.999	21391.2
459.204	23045.96
459.41	22310.74
459.616	20860.78
459.821	21112.68
460.027	20979.56
460.233	20209.53
460.438	19498.88
460.644	19689.34
460.85	18632.59
461.055	18425.75
461.261	18407.31
461.466	17045.41
461.672	16586.67
461.878	17930.14
462.083	16443.31
462.289	16281.52
462.494	16347.06
462.7	15128.52
462.905	15159.24
463.111	15454.14
463.316	15476.67
463.522	14991.3
463.727	15183.81
463.932	15120.32
464.138	14884.81
464.343	14960.58
464.549	14690.25
464.754	15306.69
464.959	14755.79
465.165	14641.1
465.37	14188.5
465.575	13869.02
465.781	14356.43
465.986	14546.89
466.191	13842.39
466.397	13510.62
466.602	12890.09
466.807	13555.68
467.012	13371.36
467.218	13492.19
467.423	13090.79
467.628	13445.09
467.833	13952.98
468.038	13283.3
468.244	13000.68
468.449	13639.64
468.654	12959.72
468.859	12939.24
469.064	13090.79
469.269	12376.05
469.474	12304.37
469.679	12668.91
469.885	12453.87
470.09	12677.1
470.295	12468.2
470.5	12419.05
470.705	12318.7
470.91	11976.69
471.115	11939.83
471.32	12083.19
471.525	12111.86
471.73	11687.93
471.935	11718.65
472.139	11362.3
472.344	11581.43
472.549	11522.04
472.754	11157.5
472.959	11014.15
473.164	10797.06
473.369	10682.38
473.574	11118.59
473.778	10934.28
473.983	10788.87
474.188	10788.87
474.393	10317.84
474.598	10592.27
474.802	10289.17
475.007	10086.42
475.212	10383.37
475.417	9871.38
475.621	9904.15
475.826	9902.1
476.031	9510.94
476.235	9646.1
476.44	9707.54
476.645	9420.83
476.849	9601.05
477.054	9216.03
477.259	9209.89
477.463	9117.73
477.668	9041.95
477.872	9054.24
478.077	8931.36
478.282	8708.13
478.486	8609.83
478.691	8677.41
478.895	8433.71
479.1	8540.2
479.304	8429.61
479.509	8333.36
479.713	8611.88
479.918	8273.96
480.122	8218.67
480.326	8198.19
480.531	8108.08
480.735	8069.17
480.94	8130.61
481.144	8456.23
481.348	7981.1
481.553	8054.83
481.757	7850.03
481.961	7985.2
482.166	7948.34
482.37	8136.75
482.574	7944.24
482.778	7954.48
482.983	8179.76
483.187	7780.4
483.391	8015.92
483.595	7725.11
483.8	7759.92
484.004	7897.14
484.208	7774.26
484.412	7911.47
484.616	7708.73
484.821	7819.32
485.025	7589.94
485.229	8042.54
485.433	7727.16
485.637	7907.38
485.841	7757.88
486.045	7868.47
486.249	7987.25
486.453	7678.01
486.657	7868.47
486.861	7897.14
487.065	7708.73
487.269	7987.25
487.473	7579.7
487.677	7995.44
487.881	8083.5
488.085	7725.11
488.289	7729.2
488.493	7903.28
488.697	7864.37
488.901	7897.14
489.105	7823.41
489.309	7739.44
489.512	7888.95
489.716	7950.39
489.92	7993.39
490.124	7940.15
490.328	8087.6
490.531	8011.82
490.735	8063.02
490.939	7876.66
491.143	8015.92
491.346	8091.7
491.55	8077.36
491.754	8251.44
491.958	8450.09
492.161	8167.47
492.365	8151.09
492.569	8423.47
492.772	8126.51
492.976	8224.81
493.18	8445.99
493.383	8552.49
493.587	8548.39
493.79	8501.29
493.994	8359.98
494.197	8585.26
494.401	8814.63
494.605	8679.46
494.808	8763.43
495.012	8855.59
495.215	8962.08
495.419	8976.42
495.622	8800.29
495.825	9064.48
496.029	8939.55
496.232	9197.6
496.436	9056.29
496.639	9365.53
496.843	9359.39
497.046	9584.66
497.249	9617.43
497.453	9529.37
497.656	9850.9
497.859	9967.63
498.063	9963.54
498.266	10137.62
498.469	9943.06
498.673	10125.33
498.876	10381.32
499.079	10336.27
499.282	10201.1
499.485	10692.62
499.689	10711.05
499.892	10874.88
500.095	10795.01
500.298	11173.89
500.501	11147.26
500.705	11081.73
500.908	11550.71
501.111	11706.36
501.314	11481.08
501.517	11759.61
501.72	11857.91
501.923	11870.2
502.126	12281.84
502.329	12345.33
502.532	12353.52
502.735	12443.63
502.938	12802.02
503.141	12836.84
503.344	13107.17
503.547	12937.19
503.75	13203.43
503.953	13348.83
504.156	13383.65
504.359	13535.2
504.562	13623.26
504.765	13903.83
504.968	14055.38
505.17	14153.68
505.373	14442.45
505.576	14585.8
505.779	14751.69
505.982	14487.5
506.185	15189.95
506.387	15224.77
506.59	15275.97
506.793	15448
506.996	15597.5
507.198	15935.42
507.401	15919.03
507.604	15792.06
507.807	16265.14
508.009	16308.15
508.212	16451.5
508.415	16758.7
508.617	16717.74
508.82	17272.74
509.022	16840.62
509.225	17387.43
509.428	17538.98
509.63	17719.2
509.833	17577.89
510.035	18108.31
510.238	17842.07
510.44	18073.49
510.643	18605.97
510.845	18675.6
511.048	18722.7
511.25	19113.86
511.453	18872.2
511.655	19795.84
511.858	19242.89
512.06	19707.77
512.262	19779.45
512.465	19552.13
512.667	20344.69
512.87	20391.8
513.072	20277.11
513.274	20916.08
513.477	20807.53
513.679	21319.53
513.881	21108.58
514.084	21696.35
514.286	21661.54
514.488	21651.3
514.69	22341.46
514.893	22392.66
515.095	22445.91
515.297	22619.99
515.499	22671.18
515.701	23041.87
515.904	23238.47
516.106	23320.39
516.308	23785.28
516.51	23441.22
516.712	23924.54
516.914	24248.12
517.116	24663.86
517.318	24139.58
517.52	24540.98
517.722	24710.96
517.925	25061.16
518.127	25317.16
518.329	25579.3
518.531	25532.2
518.733	25839.39
518.935	25927.46
519.136	26138.4
519.338	26480.41
519.54	26494.74
519.742	26924.82
519.944	26969.87
520.146	27238.16
520.348	27580.17
520.55	27541.25
520.752	27950.85
520.954	28382.97
521.155	28122.88
521.357	28374.78
521.559	28421.88
521.761	28905.2
521.963	29089.52
522.164	29073.14
522.366	28927.73
522.568	29452.01
522.77	29824.74
522.971	29968.1
523.173	29771.49
523.375	29839.08
523.576	29939.43
523.778	30353.12
523.98	30684.89
524.181	30805.72
524.383	30828.24
524.584	31227.6
524.786	30772.95
524.988	30832.34
525.189	31436.49
525.391	31751.88
525.592	31635.14
525.794	32235.2
525.995	32200.38
526.197	32020.16
526.398	32085.7
526.6	32517.82
526.801	32440
527.003	32622.26
527.204	32607.93
527.406	32900.79
527.607	33031.86
527.808	32798.39
528.01	32820.92
528.211	33144.5
528.412	33900.2
528.614	33509.04
528.815	33625.77
529.016	33701.54
529.218	33386.16
529.419	33674.92
529.62	33828.52
529.822	33500.84
530.023	33816.23
530.224	33910.44
530.425	34250.4
530.626	33617.58
530.828	33805.99
531.029	34404
531.23	34098.85
531.431	33857.19
531.632	34201.25
531.833	34444.96
532.035	34135.71
532.236	34127.52
532.437	34549.4
532.638	34416.29
532.839	34424.48
533.04	34576.03
533.241	34053.8
533.442	34770.58
533.643	34490.01
533.844	34535.07
534.045	34686.62
534.246	34289.31
534.447	34817.69
534.648	34604.7
534.849	34657.95
535.05	34469.53
535.251	34825.88
535.451	34619.03
535.652	34746.01
535.853	34813.59
536.054	34952.85
536.255	34731.67
536.456	34490.01
536.657	35061.4
536.857	34612.89
537.058	34602.65
537.259	34707.1
537.46	34758.3
537.66	34379.42
537.861	34887.32
538.062	34356.89
538.263	34799.26
538.463	34467.48
538.664	34762.39
538.865	34893.46
539.065	34686.62
539.266	34137.76
539.466	34741.91
539.667	34227.87
539.868	34782.87
540.068	34399.9
540.269	34397.85
540.469	34864.79
540.67	34506.4
540.87	34307.74
541.071	34535.07
541.271	34748.06
541.472	34686.62
541.672	34397.85
541.873	34578.08
542.073	34375.33
542.274	34721.43
542.474	34535.07
542.675	34178.72
542.875	34838.17
543.075	34213.54
543.276	33937.06
543.476	34565.79
543.676	34279.07
543.877	34385.57
544.077	34283.17
544.277	34537.12
544.478	34379.42
544.678	34680.47
544.878	34338.46
545.078	34367.13
545.279	34086.56
545.479	34037.41
545.679	34420.38
545.879	34164.39
546.079	33896.1
546.28	34434.72
546.48	33801.89
546.68	34252.45
546.88	34133.67
547.08	34299.55
547.28	34336.41
547.48	33894.05
547.68	34354.85
547.88	33861.29
548.081	34496.16
548.281	34272.93
548.481	34385.57
548.681	34324.13
548.881	34404
549.081	34008.74
549.28	34119.33
549.48	34086.56
549.68	33932.96
549.88	34371.23
550.08	33822.37
550.28	34199.2
550.48	34164.39
550.68	34436.77
550.88	33859.24
551.08	33705.64
551.279	34270.88
551.479	33586.86
551.679	34055.84
551.879	33650.35
552.079	33859.24
552.278	34016.93
552.478	33771.18
552.678	34338.46
552.878	34287.26
553.077	33916.58
553.277	33603.24
553.477	34016.93
553.676	33595.05
553.876	33380.01
554.076	33629.87
554.275	33732.26
554.475	33398.45
554.674	33541.8
554.874	33527.47
555.074	33431.21
555.273	33812.13
555.473	33615.53
555.672	33511.08
555.872	33482.41
556.071	33576.62
556.271	33652.39
556.47	33474.22
556.67	33318.57
556.869	33380.01
557.068	33435.31
557.268	33306.29
557.467	33281.71
557.667	33287.85
557.866	33072.82
558.065	33506.99
558.265	32976.56
558.464	32978.61
558.663	33513.13
558.863	32577.21
559.062	33408.68
559.261	32698.04
559.461	33158.83
559.66	32616.12
559.859	32784.05
560.058	32599.74
560.258	32763.57
560.457	32523.96
560.656	32970.42
560.855	32970.42
561.054	33103.54
561.253	32399.04
561.453	32421.56
561.652	32489.15
561.851	32921.27
562.05	32546.49
562.249	32267.97
562.448	32546.49
562.647	32046.79
562.846	32353.98
563.045	32003.78
563.244	31907.52
563.443	32292.54
563.642	31516.36
563.841	31987.39
564.04	31971.01
564.239	32171.71
564.438	31137.49
564.637	31885
564.836	31766.21
565.035	31493.83
565.234	31631.05
565.432	31284.94
565.631	31162.06
565.83	31446.73
566.029	31344.33
566.228	31319.76
566.427	31157.97
566.625	31370.96
566.824	30844.63
567.023	30998.23
567.222	30574.3
567.42	31182.54
567.619	30891.73
567.818	30631.64
568.016	30764.76
568.215	30906.07
568.414	30904.02
568.612	31172.3
568.811	30879.44
569.01	30568.15
569.208	30334.68
569.407	30398.17
569.605	29974.24
569.804	30035.68
570.002	30209.76
570.201	30127.84
570.4	29867.75
570.598	29966.05
570.797	30152.41
570.995	29877.99
571.193	29667.05
571.392	30189.28
571.59	29869.79
571.789	29771.49
571.987	29681.38
572.186	29601.51
572.384	29767.4
572.582	29169.39
572.781	29423.34
572.979	29075.18
573.177	29251.31
573.376	29388.52
573.574	29671.14
573.772	29153.01
573.971	29169.39
574.169	28796.66
574.367	28290.81
574.565	28927.73
574.763	28544.76
574.962	28602.1
575.16	28358.39
575.358	28602.1
575.556	28274.43
575.754	28681.97
575.952	28108.54
576.151	28700.4
576.349	27973.38
576.547	27803.39
576.745	28196.6
576.943	28036.86
577.141	28133.12
577.339	28270.33
577.537	27664.13
577.735	27924.22
577.933	27500.3
578.131	27840.26
578.329	27451.14
578.527	27528.97
578.725	27451.14
578.923	27610.89
579.121	27414.28
579.319	27264.78
579.516	27457.29
579.714	26953.49
579.912	27084.56
580.11	27131.66
580.308	26924.82
580.506	27182.86
580.704	26527.51
580.901	26857.23
581.099	26912.53
581.297	26781.46
581.495	26707.73
581.692	26519.32
581.89	26652.44
582.088	26554.13
582.285	26304.28
582.483	26310.43
582.681	26320.67
582.878	25995.04
583.076	25888.54
583.274	26074.91
583.471	25900.83
583.669	25689.89
583.866	25702.18
584.064	25972.51
584.262	25714.47
584.459	25866.02
584.657	25548.58
584.854	25851.68
585.052	25134.89
585.249	25644.84
585.447	25696.03
585.644	25231.15
585.841	25231.15
586.039	25358.12
586.236	24989.49
586.434	24956.72
586.631	24882.99
586.828	25007.92
587.026	24805.17
587.223	24784.69
587.42	25077.55
587.618	24950.57
587.815	24577.84
588.012	24266.55
588.21	24172.35
588.407	24532.79
588.604	24139.58
588.801	23928.64
588.999	24276.79
589.196	24299.32
589.393	23942.97
589.59	24035.13
589.787	24033.08
589.984	23932.73
590.182	23639.87
590.379	23562.05
590.576	23633.73
590.773	23793.47
590.97	23635.78
591.167	23564.1
591.364	23344.97
591.561	23523.14
591.758	23117.64
591.955	23263.05
592.152	23275.34
592.349	23168.84
592.546	23142.22
592.743	23322.44
592.94	22675.28
593.137	22742.86
593.334	22906.7
593.531	22826.83
593.727	22726.48
593.924	22693.71
594.121	22546.26
594.318	22472.53
594.515	21987.16
594.712	22458.2
594.908	22527.83
595.105	22187.86
595.302	21929.82
595.499	22062.94
595.696	21839.71
595.892	21698.4
596.089	21778.27
596.286	21759.84
596.482	21782.37
596.679	21800.8
596.876	21911.39
597.072	21794.65
597.269	21610.34
597.466	21393.25
597.662	21256.04
597.859	21403.49
598.055	21290.85
598.252	21352.29
598.448	21378.92
598.645	21202.79
598.841	20914.03
599.038	21180.26
599.234	21016.43
599.431	20828.01
599.627	20768.62
599.824	21098.34
600.02	20549.49
600.217	20606.83
600.413	20549.49
600.609	20340.6
600.806	20522.87
601.002	20561.78
601.198	20461.43
601.395	20322.16
601.591	20137.85
601.787	20230.01
601.984	20217.72
602.18	20037.5
602.376	19988.35
602.572	19896.19
602.769	19869.56
602.965	19820.41
603.161	19752.83
603.357	19855.23
603.553	19638.14
603.75	19783.55
603.946	19513.22
604.142	19711.87
604.338	19230.6
604.534	19511.17
604.73	19103.62
604.926	19330.95
605.122	19304.32
605.318	19087.24
605.514	19171.21
605.71	19021.7
605.906	18911.11
606.102	19005.32
606.298	18866.06
606.494	19005.32
606.69	18931.59
606.886	18945.93
607.082	18644.88
607.278	18712.46
607.474	18642.83
607.67	18620.3
607.866	18331.54
608.062	18546.58
608.257	18358.16
608.453	18487.18
608.649	18610.06
608.845	18173.85
609.041	18325.4
609.236	18388.88
609.432	18462.61
609.628	18016.15
609.824	18286.48
610.019	18014.1
610.215	18071.45
610.411	17981.34
610.606	17792.92
610.802	18046.87
610.998	17811.35
611.193	17936.28
611.389	17655.71
611.584	17575.84
611.78	17760.16
611.976	17702.81
612.171	17723.29
612.367	17768.35
612.562	17629.09
612.758	17725.34
612.953	17235.88
613.149	17620.89
613.344	17319.84
613.539	17428.38
613.735	17293.22
613.93	17491.87
614.126	17217.44
614.321	17315.75
614.517	17297.31
614.712	17352.61
614.907	17209.25
615.103	17436.58
615.298	16951.21
615.493	17317.79
615.688	17053.61
615.884	17213.35
616.079	16920.49
616.274	17141.67
616.47	17090.47
616.665	16994.22
616.86	16822.19
617.055	16828.33
617.25	16711.6
617.445	16893.86
617.641	16412.59
617.836	16603.05
618.031	16633.77
618.226	16781.23
618.421	16656.3
618.616	16578.48
618.811	16250.8
619.006	16588.72
619.201	16201.65
619.396	16211.89
619.591	15994.81
619.786	16246.71
619.981	16218.04
620.176	16375.73
620.371	15921.08
620.566	15886.26
620.761	15802.3
620.956	15820.73
621.151	15843.26
621.346	15773.63
621.541	15435.71
621.735	15513.53
621.93	15271.87
622.125	15462.33
622.32	15097.8
622.515	15394.75
622.709	15142.85
622.904	15165.38
623.099	14884.81
623.294	14729.16
623.488	14831.56
623.683	14866.38
623.878	14577.61
624.072	14688.2
624.267	14442.45
624.462	14510.03
624.656	14227.41
624.851	14370.77
625.046	14362.58
625.24	14165.97
625.435	14125.01
625.629	14135.25
625.824	13977.56
626.018	14014.42
626.213	13584.35
626.407	13893.59
626.602	13510.62
626.796	13604.83
626.991	13606.88
627.185	13537.24
627.38	13232.1
627.574	13107.17
627.768	13324.26
627.963	13033.44
628.157	12869.61
628.352	13273.06
628.546	12861.41
628.74	13008.87
628.935	13039.59
629.129	12785.64
629.323	12666.86
629.517	12519.4
629.712	12546.03
629.906	12521.45
630.1	12298.22
630.294	12695.53
630.489	12408.81
630.683	12269.55
630.877	11859.96
631.071	11898.87
631.265	12228.59
631.459	12001.27
631.653	11952.12
631.848	11833.33
632.042	11622.39
632.236	11972.6
632.43	11651.06
632.624	11778.04
632.818	11661.3
633.012	11411.45
633.206	11448.32
633.4	11438.08
633.594	11259.9
633.788	11380.73
633.982	11298.81
634.176	11180.03
634.369	11018.24
634.563	11042.82
634.757	10891.27
634.951	11042.82
635.145	10960.9
635.339	10969.09
635.533	10706.95
635.726	10692.62
635.92	10633.22
636.114	10620.94
636.308	10475.53
636.501	10444.81
636.695	10391.56
636.889	10465.29
637.083	10430.48
637.276	10246.16
637.47	10330.13
637.664	10377.23
637.857	10049.55
638.051	10201.1
638.244	9955.35
638.438	9986.07
638.632	9996.31
638.825	9900.05
639.019	9799.7
639.212	9695.25
639.406	9703.45
639.599	9627.67
639.793	9857.04
639.986	9566.23
640.18	9379.87
640.373	9498.65
640.567	9553.94
640.76	9502.75
640.954	9396.25
641.147	9551.9
641.34	9326.62
641.534	9379.87
641.727	9111.58
641.92	9054.24
642.114	9220.13
642.307	9011.23
642.5	9207.84
642.694	8769.57
642.887	8871.97
643.08	8800.29
643.273	8880.16
643.467	8734.76
643.66	8699.94
643.853	8708.13
644.046	8708.13
644.239	8560.68
644.432	8407.08
644.626	8572.97
644.819	8312.88
645.012	8368.17
645.205	8577.06
645.398	8359.98
645.591	8235.05
645.784	8343.6
645.977	8192.05
646.17	8282.16
646.363	8089.65
646.556	7919.67
646.749	7977.01
646.942	8011.82
647.135	7907.38
647.328	8071.22
647.521	7850.03
647.714	7688.25
647.907	7819.32
648.099	7831.6
648.292	7815.22
648.485	7632.95
648.678	7602.23
648.871	7594.04
649.064	7505.98
649.256	7684.15
649.449	7503.93
649.642	7440.44
649.835	7303.23
650.027	7467.06
650.22	7311.42
650.413	7123.01
650.605	7209.02
650.798	7104.57
650.991	7163.97
651.183	7153.73
651.376	6996.03
651.568	7129.15
651.761	6969.41
651.954	6940.74
652.146	6975.55
652.339	7120.96
652.531	6713.41
652.724	6801.47
652.916	6737.99
653.109	6606.92
653.301	6742.08
653.494	6959.17
653.686	6654.02
653.879	6570.05
654.071	6557.77
654.263	6494.28
654.456	6408.26
654.648	6512.71
654.84	6162.51
655.033	6328.39
655.225	6699.08
655.417	6406.22
655.61	6215.76
655.802	6348.87
655.994	6015.05
656.186	6297.67
656.379	6193.23
656.571	6047.82
656.763	6033.49
656.955	6070.35
657.148	6015.05
657.34	6039.63
657.532	5808.21
657.724	5937.23
657.916	6045.77
658.108	5976.14
658.3	5777.49
658.492	5939.28
658.684	5775.44
658.876	5687.38
659.068	5652.56
659.26	5660.76
659.452	5773.39
659.644	5785.68
659.836	5806.16
660.028	5703.76
660.22	5654.61
660.412	5480.54
660.604	5515.35
660.796	5529.69
660.988	5517.4
661.18	5443.67
661.372	5374.04
661.563	5261.4
661.755	5281.88
661.947	5302.36
662.139	5464.15
662.331	5242.97
662.522	5312.6
662.714	5349.47
662.906	5152.86
663.097	5331.03
663.289	5091.42
663.481	5091.42
663.673	5267.55
663.864	4995.17
664.056	4966.49
664.247	4972.64
664.439	5005.41
664.631	5068.89
664.822	4898.91
665.014	4962.4
665.205	4759.65
665.397	5034.08
665.588	4827.23
665.78	4726.88
665.971	4825.19
666.163	4755.55
666.354	4792.42
666.546	4771.94
666.737	4806.75
666.929	4708.45
667.12	4595.81
667.311	4569.19
667.503	4597.86
667.694	4589.67
667.885	4524.13
668.077	4540.52
668.268	4501.61
668.459	4380.78
668.651	4460.65
668.842	4401.26
669.033	4364.39
669.224	4348.01
669.416	4407.4
669.607	4208.75
669.798	4327.53
669.989	4491.37
670.18	4343.91
670.371	4397.16
670.563	4216.94
670.754	4223.08
670.945	4190.31
671.136	4229.23
671.327	4100.2
671.518	4040.81
671.709	4247.66
671.9	4135.02
672.091	4096.11
672.282	4104.3
672.473	4120.68
672.664	3993.71
672.855	4114.54
673.046	4020.33
673.237	4018.29
673.428	4016.24
673.619	4003.95
673.809	4003.95
674	4003.95
674.191	3924.08
674.382	3872.88
674.573	3881.07
674.764	3956.85
674.954	3819.63
675.145	3879.02
675.336	3856.5
675.527	3827.82
675.717	3666.03
675.908	3690.61
676.099	3700.85
676.289	3686.51
676.48	3680.37
676.671	3465.33
676.861	3815.54
677.052	3631.22
677.243	3614.84
677.433	3608.69
677.624	3620.98
677.814	3633.27
678.005	3721.33
678.195	3610.74
678.386	3571.83
678.576	3580.02
678.767	3510.39
678.957	3600.5
679.148	3580.02
679.338	3500.15
679.529	3469.43
679.719	3414.13
679.909	3567.73
680.1	3274.87
680.29	3344.5
680.481	3448.95
680.671	3401.85
680.861	3352.7
681.052	3309.69
681.242	3481.72
681.432	3297.4
681.622	3399.8
681.813	3268.73
682.003	3336.31
682.193	3354.74
682.383	3256.44
682.573	3117.18
682.764	3113.08
682.954	3235.96
683.144	3211.39
683.334	3162.23
683.524	3235.96
683.714	3244.15
683.904	3213.43
684.094	3240.06
684.284	3223.67
684.474	3068.03
684.664	3090.56
684.854	3043.45
685.044	3154.04
685.234	3031.16
685.424	3178.62
685.614	3020.92
685.804	3190.91
685.994	3029.12
686.184	3084.41
686.374	3160.19
686.564	3137.66
686.753	3004.54
686.943	3031.16
687.133	3166.33
687.323	3041.4
687.513	2992.25
687.702	2949.25
687.892	2807.94
688.082	2834.56
688.272	2914.43
688.461	2965.63
688.651	2850.94
688.841	2861.18
689.03	2807.94
689.22	2848.9
689.41	2836.61
689.599	2852.99
689.789	2746.5
689.979	2781.31
690.168	2906.24
690.358	2728.07
690.547	2846.85
690.737	2633.86
690.926	2807.94
691.116	2693.25
691.305	2873.47
691.495	2568.32
691.684	2590.85
691.874	2637.95
692.063	2723.97
692.252	2797.7
692.442	2646.15
692.631	2633.86
692.82	2572.42
693.01	2523.27
693.199	2523.27
693.388	2586.76
693.578	2547.84
693.767	2494.6
693.956	2443.4
694.146	2437.25
694.335	2539.65
694.524	2566.28
694.713	2533.51
694.902	2502.79
695.092	2541.7
695.281	2549.89
695.47	2392.2
695.659	2441.35
695.848	2470.02
696.037	2345.09
696.226	2467.97
696.415	2441.35
696.604	2420.87
696.793	2590.85
696.982	2386.05
697.171	2408.58
697.36	2379.91
697.549	2351.24
697.738	2326.66
697.927	2297.99
698.116	2343.05
698.305	2254.98
698.494	2388.1
698.683	2224.26
698.872	2334.86
699.061	2357.38
699.25	2295.94
699.438	2367.62
699.627	2285.7
699.816	2265.22
700.005	2275.46
700.193	2302.09
700.382	2211.98
700.571	2273.42
700.76	2285.7
700.948	2306.18
701.137	2336.9
701.326	2171.02
701.514	2185.35
701.703	2214.02
701.892	2197.64
702.08	2295.94
702.269	2269.32
702.457	2277.51
702.646	2173.07
702.834	2197.64
703.023	2240.65
703.212	2246.79
703.4	2203.79
703.589	2152.59
703.777	2281.61
703.965	2132.11
704.154	2197.64
704.342	2107.53
704.531	2199.69
704.719	2080.91
704.907	2193.55
705.096	2033.8
705.284	2244.74
705.472	2218.12
705.661	2257.03
705.849	2328.71
706.037	2230.41
706.226	2171.02
706.414	2177.16
706.602	2072.72
706.79	2234.5
706.979	2199.69
707.167	2220.17
707.355	2187.4
707.543	2054.28
707.731	2080.91
707.919	2130.06
708.107	2056.33
708.296	2068.62
708.484	2095.24
708.672	2060.43
708.86	2121.87
709.048	2142.35
709.236	2019.47
709.424	2230.41
709.612	2197.64
709.8	2025.61
709.988	2103.43
710.176	2115.72
710.364	2168.97
710.551	2146.44
710.739	2142.35
710.927	2130.06
711.115	2146.44
711.303	2052.24
711.491	2162.83
711.679	2146.44
711.866	2066.57
712.054	2164.87
712.242	2076.81
712.43	2142.35
712.617	2074.76
712.805	1982.6
712.993	2093.19
713.181	2113.67
713.368	2171.02
713.556	2224.26
713.744	2074.76
713.931	2209.93
714.119	2031.76
714.306	2097.29
714.494	2003.08
714.682	2074.76
714.869	2025.61
715.057	2091.15
715.244	2082.95
715.432	2146.44
715.619	2107.53
715.807	2158.73
715.994	2070.67
716.182	2058.38
716.369	2132.11
716.556	2082.95
716.744	1982.6
716.931	2080.91
717.119	2109.58
717.306	2099.34
717.493	2050.19
717.681	2111.63
717.868	2076.81
718.055	2148.49
718.242	2121.87
718.43	2105.48
718.617	2023.56
718.804	2085
718.991	2136.2
719.179	2056.33
719.366	2087.05
719.553	2207.88
719.74	2066.57
719.927	2033.8
720.114	2050.19
720.301	2048.14
720.488	1902.73
720.676	2031.76
720.863	2064.52
721.05	1980.56
721.237	2039.95
721.424	2097.29
721.611	2072.72
721.798	2160.78
721.985	2007.18
722.172	2031.76
722.358	2134.15
722.545	1929.36
722.732	2037.9
722.919	2203.79
723.106	2017.42
723.293	2056.33
723.48	2144.39
723.667	2134.15
723.853	2058.38
724.04	2050.19
724.227	2154.63
724.414	2044.04
724.6	2123.91
724.787	2042
724.974	2048.14
725.161	2107.53
725.347	1970.32
725.534	1994.89
725.72	2121.87
725.907	2117.77
726.094	2154.63
726.28	1974.41
726.467	2064.52
726.653	2068.62
726.84	2119.82
727.027	2082.95
727.213	2070.67
727.4	2029.71
727.586	2042
727.773	2050.19
727.959	1958.03
728.145	2007.18
728.332	1972.36
728.518	2015.37
728.705	2140.3
728.891	2060.43
729.077	2044.04
729.264	2062.48
729.45	2076.81
729.636	2128.01
729.823	1984.65
730.009	2115.72
730.195	2035.85
730.382	2095.24
730.568	2064.52
730.754	1980.56
730.94	2125.96
731.126	2062.48
731.313	2013.32
731.499	2048.14
731.685	1929.36
731.871	2052.24
732.057	1933.45
732.243	2099.34
732.429	2048.14
732.615	2093.19
732.801	2140.3
732.987	2121.87
733.173	1972.36
733.359	2072.72
733.545	2052.24
733.731	2019.47
733.917	2101.39
734.103	2005.13
734.289	2150.54
734.475	2060.43
734.661	2062.48
734.847	2150.54
735.033	2064.52
735.219	2078.86
735.404	2066.57
735.59	2046.09
735.776	2042
735.962	2003.08
736.148	2164.87
736.333	1976.46
736.519	1986.7
736.705	2060.43
736.89	2119.82
737.076	2056.33
737.262	2058.38
737.447	1966.22
737.633	2017.42
737.819	2042
738.004	1949.84
738.19	2074.76
738.375	2003.08
738.561	2025.61
738.747	2007.18
738.932	1917.07
739.118	1982.6
739.303	1988.75
739.489	1986.7
739.674	1935.5
739.859	1880.21
740.045	1996.94
740.23	2031.76
740.416	1933.45
740.601	1982.6
740.786	1943.69
740.972	1908.88
741.157	1925.26
741.342	1773.71
741.528	2023.56
741.713	1929.36
741.898	1958.03
742.084	1933.45
742.269	1853.58
742.454	1917.07
742.639	1917.07
742.824	1904.78
743.01	1847.44
743.195	1917.07
743.38	1835.15
743.565	1923.21
743.75	1777.81
743.935	1945.74
744.12	1777.81
744.305	1935.5
744.49	1835.15
744.675	1806.48
744.86	1757.33
745.045	1810.58
745.23	1775.76
745.415	1769.62
745.6	1831.05
745.785	1790.1
745.97	1886.35
746.155	1804.43
746.34	1757.33
746.525	1738.9
746.71	1880.21
746.895	1734.8
747.079	1710.22
747.264	1779.86
747.449	1677.46
747.634	1691.79
747.819	1749.14
748.003	1679.51
748.188	1591.44
748.373	1718.42
748.557	1656.98
748.742	1616.02
748.927	1630.35
749.111	1556.63
749.296	1636.5
749.481	1616.02
749.665	1607.83
749.85	1622.16
750.034	1470.61
750.219	1519.76
750.404	1530
750.588	1523.86
750.773	1534.1
750.957	1493.14
751.141	1513.62
751.326	1540.24
751.51	1415.32
751.695	1499.28
751.879	1466.52
752.064	1550.48
752.248	1429.65
752.432	1511.57
752.617	1499.28
752.801	1421.46
752.985	1511.57
753.17	1511.57
753.354	1388.69
753.538	1480.85
753.722	1351.83
753.907	1441.94
754.091	1372.31
754.275	1425.56
754.459	1353.88
754.643	1241.24
754.828	1429.65
755.012	1343.64
755.196	1247.38
755.38	1364.12
755.564	1278.1
755.748	1327.25
755.932	1239.19
756.116	1194.14
756.3	1300.63
756.484	1284.25
756.668	1274.01
756.852	1288.34
757.036	1239.19
757.22	1245.34
757.404	1161.37
757.588	1210.52
757.772	1194.14
757.956	1190.04
758.14	1208.47
758.323	1149.08
758.507	1237.14
758.691	1097.88
758.875	1173.66
759.059	1075.35
759.242	1155.23
759.426	1065.11
759.61	1144.99
759.794	1036.44
759.977	1140.89
760.161	1095.83
760.345	1159.32
760.528	1138.84
760.712	1058.97
760.895	1048.73
761.079	1163.42
761.263	1065.11
761.446	1071.26
761.63	1075.35
761.813	1077.4
761.997	1036.44
762.18	1071.26
762.364	1015.96
762.547	972.96
762.731	1034.39
762.914	1069.21
763.098	991.39
763.281	1089.69
763.464	1050.78
763.648	1020.06
763.831	1093.79
764.015	925.85
764.198	948.38
764.381	991.39
764.564	964.76
764.748	942.24
764.931	1015.96
765.114	964.76
765.297	962.72
765.481	839.84
765.664	1003.68
765.847	946.33
766.03	960.67
766.213	911.52
766.397	977.05
766.58	891.04
766.763	944.28
766.946	913.56
767.129	970.91
767.312	944.28
767.495	911.52
767.678	893.09
767.861	860.32
768.044	954.52
768.227	817.31
768.41	995.48
768.593	925.85
768.776	917.66
768.959	837.79
769.142	1015.96
769.324	823.45
769.507	782.49
769.69	854.17
769.873	884.89
770.056	938.14
770.239	891.04
770.421	864.41
770.604	833.69
770.787	895.13
770.97	850.08
771.152	901.28
771.335	770.21
771.518	856.22
771.7	878.75
771.883	872.61
772.066	774.3
772.248	845.98
772.431	823.45
772.613	815.26
772.796	833.69
772.978	839.84
773.161	860.32
773.343	747.68
773.526	682.14
773.708	821.41
773.891	786.59
774.073	784.54
774.256	710.82
774.438	747.68
774.621	770.21
774.803	762.02
774.985	716.96
775.168	741.54
775.35	768.16
775.532	731.3
775.715	684.19
775.897	757.92
776.079	682.14
776.261	657.57
776.444	651.42
776.626	688.29
776.808	764.06
776.99	665.76
777.173	575.65
777.355	749.73
777.537	729.25
777.719	690.34
777.901	688.29
778.083	655.52
778.265	733.34
778.447	653.47
778.629	587.94
778.811	661.66
778.993	676
779.175	508.07
779.357	635.04
779.539	561.31
779.721	686.24
779.903	624.8
780.085	577.7
780.267	667.81
780.449	657.57
780.631	602.27
780.812	614.56
780.994	475.3
781.176	499.88
781.358	587.94
781.54	479.4
781.721	614.56
781.903	579.75
782.085	589.99
782.267	493.73
782.448	503.97
782.63	508.07
782.812	585.89
782.993	557.22
783.175	610.47
783.357	577.7
783.538	483.49
783.72	522.4
783.901	499.88
784.083	503.97
784.264	479.4
784.446	434.34
784.627	428.2
784.809	495.78
784.99	397.48
785.172	508.07
785.353	460.96
785.535	477.35
785.716	458.92
785.897	438.44
786.079	409.76
786.26	465.06
786.441	524.45
786.623	387.24
786.804	503.97
786.985	469.16
787.167	508.07
787.348	417.96
787.529	426.15
787.71	514.21
787.891	469.16
788.073	440.48
788.254	444.58
788.435	465.06
788.616	487.59
788.797	362.66
788.978	374.95
789.159	432.29
789.34	458.92
789.522	364.71
789.703	397.48
789.884	346.28
790.065	403.62
790.246	389.28
790.427	389.28
790.607	356.52
790.788	401.57
790.969	272.55
791.15	405.67
791.331	389.28
791.512	338.09
791.693	348.33
791.874	385.19
792.054	395.43
792.235	329.89
792.416	370.85
792.597	387.24
792.778	290.98
792.958	317.61
793.139	286.89
793.32	444.58
793.5	329.89
793.681	356.52
793.862	309.41
794.042	362.66
794.223	258.21
794.404	331.94
794.584	256.17
794.765	368.81
794.945	305.32
795.126	370.85
795.306	311.46
795.487	282.79
795.667	295.08
795.848	313.51
796.028	319.65
796.209	299.17
796.389	321.7
796.57	288.93
796.75	254.12
796.93	247.97
797.111	325.8
797.291	264.36
797.471	395.43
797.652	284.84
797.832	295.08
798.012	278.69
798.192	247.97
798.373	295.08
798.553	262.31
798.733	241.83
798.913	225.45
799.093	250.02
799.274	254.12
799.454	288.93
799.634	280.74
799.814	280.74
799.994	350.37
800.174	297.13
800.354	219.3
800.534	288.93
800.714	198.82
800.894	192.68
801.074	233.64
801.254	241.83
801.434	182.44
801.614	237.74
801.794	219.3
801.974	737.44
802.154	229.54
802.334	245.93
802.514	227.5
802.693	239.78
802.873	172.2
803.053	250.02
803.233	245.93
803.413	204.97
803.592	194.73
803.772	264.36
803.952	250.02
804.131	176.3
804.311	229.54
804.491	235.69
804.67	172.2
804.85	131.24
805.03	245.93
805.209	180.39
805.389	178.34
805.568	186.54
805.748	184.49
805.928	174.25
806.107	258.21
806.287	223.4
806.466	213.16
806.646	178.34
806.825	200.87
807.004	159.91
807.184	235.69
807.363	237.74
807.543	231.59
807.722	207.02
807.901	254.12
808.081	149.67
808.26	159.91
808.439	290.98
808.619	204.97
808.798	215.21
808.977	190.63
809.156	227.5
809.336	145.58
809.515	135.34
809.694	129.19
809.873	155.82
810.052	127.14
810.231	168.1
810.411	188.58
810.59	215.21
810.769	141.48
810.948	108.71
811.127	176.3
811.306	151.72
811.485	223.4
811.664	272.55
811.843	133.29
812.022	233.64
812.201	155.82
812.38	198.82
812.559	170.15
812.737	143.53
812.916	67.75
813.095	108.71
813.274	143.53
813.453	170.15
813.632	192.68
813.811	153.77
813.989	121
814.168	139.43
814.347	59.56
814.526	106.67
814.704	229.54
814.883	174.25
815.062	215.21
815.24	174.25
815.419	159.91
815.598	82.09
815.776	63.66
815.955	155.82
816.133	127.14
816.312	182.44
816.49	190.63
816.669	170.15
816.847	145.58
817.026	104.62
817.204	190.63
817.383	86.19
817.561	127.14
817.74	200.87
817.918	143.53
818.097	118.95
818.275	147.62
818.453	172.2
818.632	104.62
818.81	84.14
818.988	84.14
819.167	112.81
819.345	102.57
819.523	112.81
819.701	112.81
819.879	157.86
820.058	114.86
820.236	125.1
820.414	114.86
820.592	112.81
820.77	88.23
820.948	172.2
821.127	135.34
821.305	49.32
821.483	26.79
821.661	116.9
821.839	137.38
822.017	147.62
822.195	149.67
822.373	139.43
822.551	114.86
822.729	143.53
822.907	118.95
823.085	190.63
823.262	159.91
823.44	34.99
823.618	55.47
823.796	82.09
823.974	123.05
824.152	88.23
824.329	10.41
824.507	49.32
824.685	145.58
824.863	143.53
825.04	174.25
825.218	145.58
825.396	102.57
825.574	98.47
825.751	110.76
825.929	43.18
826.107	61.61
826.284	82.09
826.462	94.38
826.639	141.48
826.817	159.91
826.994	96.43
827.172	73.9
827.349	104.62
827.527	151.72
827.704	108.71
827.882	135.34
828.059	125.1
828.237	135.34
828.414	121
828.591	24.75
828.769	53.42
828.946	59.56
829.124	164.01
829.301	118.95
829.478	84.14
829.655	149.67
829.833	90.28
830.01	71.85
830.187	71.85
830.364	51.37
830.542	37.03
830.719	82.09
830.896	106.67
831.073	98.47
831.25	164.01
831.427	143.53
831.604	51.37
831.782	57.51
831.959	102.57
832.136	61.61
832.313	131.24
832.49	82.09
832.667	49.32
832.844	43.18
833.021	125.1
833.198	34.99
833.374	80.04
833.551	143.53
833.728	82.09
833.905	82.09
834.082	92.33
834.259	121
834.436	49.32
834.612	49.32
834.789	98.47
834.966	34.99
835.143	65.71
835.319	34.99
835.496	88.23
835.673	86.19
835.85	90.28
836.026	43.18
836.203	-3.93
836.38	43.18
836.556	10.41
836.733	0.17
836.909	67.75
837.086	-3.93
837.262	41.13
837.439	57.51
837.616	16.55
837.792	61.61
837.968	39.08
838.145	116.9
838.321	61.61
838.498	110.76
838.674	57.51
838.851	28.84
839.027	88.23
839.203	26.79
839.38	92.33
839.556	41.13
839.732	96.43
839.909	45.23
840.085	65.71
840.261	65.71
840.437	4.27
840.614	86.19
840.79	139.43
840.966	24.75
841.142	65.71
841.318	32.94
841.494	24.75
841.671	41.13
841.847	-63.32
842.023	10.41
842.199	8.36
842.375	110.76
842.551	10.41
842.727	0.17
842.903	71.85
843.079	39.08
843.255	80.04
843.431	65.71
843.607	55.47
843.783	43.18
843.959	192.68
844.134	51.37
844.31	65.71
844.486	-28.5
844.662	82.09
844.838	139.43
845.013	41.13
845.189	86.19
845.365	16.55
845.541	8.36
845.716	96.43
845.892	2.22
846.068	63.66
846.244	30.89
846.419	98.47
846.595	30.89
846.77	82.09
846.946	110.76
847.122	37.03
847.297	10.41
847.473	71.85
847.648	121
847.824	69.8
847.999	-57.17
848.175	51.37
848.35	43.18
848.526	108.71
848.701	88.23
848.876	-16.21
849.052	102.57
849.227	106.67
849.403	98.47
849.578	10.41
849.753	4.27
849.929	24.75
850.104	12.46
850.279	69.8
850.454	92.33
850.63	98.47
850.805	-18.26
850.98	116.9
851.155	41.13
851.33	96.43
851.505	34.99
851.681	116.9
851.856	0.17
852.031	10.41
852.206	32.94
852.381	69.8
852.556	118.95
852.731	84.14
852.906	112.81
853.081	41.13
853.256	49.32
853.431	57.51
853.606	28.84
853.781	75.95
853.956	61.61
854.131	69.8
854.305	24.75
854.48	10.41
854.655	106.67
854.83	61.61
855.005	12.46
855.18	39.08
855.354	-22.36
855.529	63.66
855.704	-30.55
855.879	59.56
856.053	73.9
856.228	0.17
856.403	75.95
856.577	51.37
856.752	18.6
856.926	-18.26
857.101	-24.4
857.276	-18.26
857.45	45.23
857.625	-5.97
857.799	-44.88
857.974	26.79
858.148	-44.88
858.323	43.18
858.497	28.84
858.672	69.8
858.846	-3.93
859.02	73.9
859.195	-48.98
859.369	45.23
859.543	-16.21
859.718	77.99
859.892	77.99
860.066	51.37
860.241	61.61
860.415	10.41
860.589	65.71
860.763	8.36
860.938	63.66
861.112	16.55
861.286	12.46
861.46	69.8
861.634	-12.12
861.808	77.99
861.982	-14.17
862.157	24.75
862.331	-57.17
862.505	0.17
862.679	-73.56
862.853	-32.6
863.027	77.99
863.201	135.34
863.375	-26.45
863.549	-16.21
863.722	73.9
863.896	61.61
864.07	32.94
864.244	-8.02
864.418	92.33
864.592	100.52
864.766	-22.36
864.939	2.22
865.113	22.7
865.287	43.18
865.461	-51.03
865.634	24.75
865.808	37.03
865.982	57.51
866.156	-10.07
866.329	32.94
866.503	-46.93
866.676	90.28
866.85	55.47
867.024	75.95
867.197	82.09
867.371	43.18
867.544	65.71
867.718	32.94
867.891	0.17
868.065	49.32
868.238	-28.5
868.412	69.8
868.585	110.76
868.759	41.13
868.932	32.94
869.105	-1.88
869.279	69.8
869.452	34.99
869.625	63.66
869.799	-40.79
869.972	-26.45
870.145	39.08
870.319	26.79
870.492	2.22
870.665	55.47
870.838	-38.74
871.011	-18.26
871.185	41.13
871.358	-24.4
871.531	-5.97
871.704	-73.56
871.877	12.46
872.05	6.31
872.223	-16.21
872.396	43.18
872.569	86.19
872.742	-8.02
872.915	22.7
873.088	-40.79
873.261	-8.02
873.434	80.04
873.607	8.36
873.78	-26.45
873.953	37.03
874.126	28.84
874.299	24.75
874.471	-20.31
874.644	-22.36
874.817	65.71
874.99	26.79
875.163	-34.64
875.335	4.27
875.508	88.23
875.681	14.51
875.853	-42.84
876.026	2.22
876.199	30.89
876.371	51.37
876.544	-40.79
876.717	57.51
876.889	65.71
877.062	-61.27
877.234	84.14
877.407	10.41
877.579	-5.97
877.752	65.71
877.924	59.56
878.097	-1.88
878.269	8.36
878.442	24.75
878.614	-48.98
878.786	-12.12
878.959	4.27
879.131	55.47
879.303	57.51
879.476	34.99
879.648	20.65
879.82	53.42
879.993	30.89
880.165	80.04
880.337	14.51
880.509	26.79
880.681	-14.17
880.854	-8.02
881.026	49.32
881.198	55.47
881.37	-26.45
881.542	65.71
881.714	-40.79
881.886	-14.17
882.058	-65.36
882.23	61.61
882.402	34.99
882.574	43.18
882.746	-55.12
882.918	61.61
883.09	30.89
883.262	-14.17
883.434	-5.97
883.606	-5.97
883.778	-61.27
883.95	82.09
884.122	0.17
884.293	22.7
884.465	10.41
884.637	16.55
884.809	28.84
884.98	6.31
885.152	37.03
885.324	-20.31
885.496	-22.36
885.667	6.31
885.839	24.75
886.011	41.13
886.182	16.55
886.354	18.6
886.525	49.32
886.697	57.51
886.869	-22.36
887.04	-24.4
887.212	-5.97
887.383	139.43
887.555	-5.97
887.726	-16.21
887.897	28.84
888.069	-3.93
888.24	-77.65
888.412	18.6
888.583	-53.08
888.754	53.42
888.926	45.23
889.097	-38.74
889.268	-36.69
889.44	59.56
889.611	-18.26
889.782	-1.88
889.953	12.46
890.125	37.03
890.296	8.36
890.467	92.33
890.638	45.23
890.809	-32.6
890.98	28.84
891.151	41.13
891.323	149.67
891.494	-16.21
891.665	-87.89
891.836	16.55
892.007	-8.02
892.178	20.65
892.349	59.56
892.52	43.18
892.691	-12.12
892.862	-3.93
893.032	-59.22
893.203	-5.97
893.374	73.9
893.545	82.09
893.716	2.22
893.887	26.79
894.057	47.27
894.228	57.51
894.399	57.51
894.57	45.23
894.74	-24.4
894.911	20.65
895.082	30.89
895.253	-38.74
895.423	-36.69
895.594	51.37
895.764	-34.64
895.935	10.41
896.106	-16.21
896.276	34.99
896.447	-18.26
896.617	6.31
896.788	-32.6
896.958	20.65
897.129	-24.4
897.299	26.79
897.47	-1.88
897.64	37.03
897.81	-5.97
897.981	24.75
898.151	-24.4
898.322	8.36
898.492	14.51
898.662	34.99
898.832	-53.08
899.003	-24.4
899.173	45.23
899.343	-12.12
899.513	45.23
