Data from USB4F104151__97__13-14-06-163.txt Node

Date: Fri Mar 14 13:14:06 EDT 2025
User: louis
Spectrometer: USB4F10415
Trigger mode: 4
Integration Time (sec): 2.000000E-2
Scans to average: 1
Electric dark correction enabled: true
Nonlinearity correction enabled: false
Boxcar width: 0
XAxis mode: Wavelengths
Number of Pixels in Spectrum: 3648
>>>>>Begin Spectral Data<<<<<
178.204	-23.55
178.424	-23.55
178.644	-23.55
178.864	-115.71
179.084	-89.09
179.304	17.41
179.524	66.56
179.744	-35.84
179.964	44.03
180.184	-25.6
180.404	-23.55
180.624	7.17
180.844	-54.27
181.064	-33.79
181.283	-15.36
181.503	9.22
181.723	44.03
181.943	-29.7
182.163	15.36
182.383	-54.27
182.602	70.65
182.822	50.18
183.042	-37.89
183.262	-35.84
183.482	9.22
183.701	48.13
183.921	3.07
184.141	-68.61
184.361	84.99
184.58	1.02
184.8	66.56
185.02	41.98
185.239	54.27
185.459	54.27
185.679	80.89
185.898	-3.07
186.118	9.22
186.338	44.03
186.557	-5.12
186.777	48.13
186.997	31.74
187.216	-76.8
187.436	27.65
187.655	25.6
187.875	97.28
188.095	44.03
188.314	31.74
188.534	27.65
188.753	60.42
188.973	54.27
189.192	123.9
189.412	41.98
189.631	19.46
189.851	1.02
190.07	37.89
190.29	-23.55
190.509	50.18
190.729	64.51
190.948	64.51
191.168	54.27
191.387	17.41
191.607	9.22
191.826	1.02
192.045	50.18
192.265	-13.31
192.484	64.51
192.704	-5.12
192.923	-27.65
193.142	78.85
193.362	78.85
193.581	91.13
193.8	7.17
194.02	11.26
194.239	21.5
194.458	60.42
194.678	44.03
194.897	58.37
195.116	9.22
195.335	64.51
195.555	17.41
195.774	82.94
195.993	70.65
196.212	-3.07
196.432	13.31
196.651	-25.6
196.87	56.32
197.089	29.7
197.308	33.79
197.528	7.17
197.747	-23.55
197.966	33.79
198.185	7.17
198.404	37.89
198.623	64.51
198.842	46.08
199.062	23.55
199.281	39.94
199.5	29.7
199.719	-35.84
199.938	33.79
200.157	-7.17
200.376	-5.12
200.595	44.03
200.814	54.27
201.033	-5.12
201.252	11.26
201.471	33.79
201.69	68.61
201.909	101.37
202.128	-31.74
202.347	68.61
202.566	13.31
202.785	-37.89
203.004	-35.84
203.223	9.22
203.442	82.94
203.661	52.22
203.879	72.7
204.098	87.04
204.317	54.27
204.536	39.94
204.755	33.79
204.974	54.27
205.193	1.02
205.411	54.27
205.63	-19.46
205.849	13.31
206.068	21.5
206.287	15.36
206.505	7.17
206.724	56.32
206.943	46.08
207.162	44.03
207.381	-27.65
207.599	27.65
207.818	74.75
208.037	-11.26
208.255	54.27
208.474	11.26
208.693	33.79
208.911	5.12
209.13	-7.17
209.349	91.13
209.567	74.75
209.786	99.33
210.005	-15.36
210.223	52.22
210.442	-95.23
210.661	-27.65
210.879	74.75
211.098	25.6
211.316	-33.79
211.535	15.36
211.753	-9.22
211.972	-5.12
212.191	9.22
212.409	70.65
212.628	17.41
212.846	23.55
213.065	3.07
213.283	84.99
213.502	44.03
213.72	52.22
213.938	23.55
214.157	-1.02
214.375	64.51
214.594	19.46
214.812	-48.13
215.031	-11.26
215.249	21.5
215.467	41.98
215.686	19.46
215.904	41.98
216.122	25.6
216.341	97.28
216.559	87.04
216.778	37.89
216.996	3.07
217.214	-5.12
217.432	37.89
217.651	68.61
217.869	-87.04
218.087	48.13
218.306	-46.08
218.524	105.47
218.742	25.6
218.96	60.42
219.179	-76.8
219.397	-7.17
219.615	91.13
219.833	21.5
220.051	-11.26
220.27	46.08
220.488	121.85
220.706	-15.36
220.924	23.55
221.142	37.89
221.36	5.12
221.578	19.46
221.796	17.41
222.015	25.6
222.233	54.27
222.451	-11.26
222.669	-3.07
222.887	142.33
223.105	-15.36
223.323	27.65
223.541	50.18
223.759	-1.02
223.977	-3.07
224.195	44.03
224.413	72.7
224.631	3.07
224.849	-31.74
225.067	125.95
225.285	44.03
225.503	31.74
225.721	-15.36
225.939	-23.55
226.157	23.55
226.375	76.8
226.592	21.5
226.81	132.09
227.028	60.42
227.246	27.65
227.464	52.22
227.682	52.22
227.9	62.46
228.117	82.94
228.335	1.02
228.553	72.7
228.771	54.27
228.989	37.89
229.206	27.65
229.424	11.26
229.642	27.65
229.86	13.31
230.077	41.98
230.295	60.42
230.513	52.22
230.731	121.85
230.948	9.22
231.166	50.18
231.384	11.26
231.601	27.65
231.819	3.07
232.037	74.75
232.254	-54.27
232.472	-7.17
232.689	9.22
232.907	41.98
233.125	99.33
233.342	17.41
233.56	-19.46
233.777	37.89
233.995	17.41
234.213	166.91
234.43	11.26
234.648	41.98
234.865	21.5
235.083	17.41
235.3	-9.22
235.518	-9.22
235.735	50.18
235.953	107.52
236.17	17.41
236.388	72.7
236.605	39.94
236.822	5.12
237.04	5.12
237.257	72.7
237.475	19.46
237.692	17.41
237.909	25.6
238.127	25.6
238.344	62.46
238.562	66.56
238.779	1.02
238.996	37.89
239.214	60.42
239.431	48.13
239.648	-37.89
239.865	64.51
240.083	-33.79
240.3	1.02
240.517	80.89
240.735	29.7
240.952	74.75
241.169	52.22
241.386	27.65
241.603	17.41
241.821	87.04
242.038	35.84
242.255	-29.7
242.472	25.6
242.689	91.13
242.907	1.02
243.124	44.03
243.341	66.56
243.558	-76.8
243.775	13.31
243.992	44.03
244.209	27.65
244.426	64.51
244.643	52.22
244.86	17.41
245.078	74.75
245.295	60.42
245.512	105.47
245.729	9.22
245.946	-9.22
246.163	70.65
246.38	21.5
246.597	-9.22
246.814	15.36
247.031	56.32
247.248	95.23
247.464	33.79
247.681	35.84
247.898	3.07
248.115	48.13
248.332	33.79
248.549	31.74
248.766	52.22
248.983	21.5
249.2	80.89
249.417	-5.12
249.633	-17.41
249.85	52.22
250.067	-68.61
250.284	41.98
250.501	-39.94
250.717	15.36
250.934	54.27
251.151	7.17
251.368	-3.07
251.585	48.13
251.801	-15.36
252.018	-3.07
252.235	15.36
252.451	-31.74
252.668	31.74
252.885	60.42
253.102	50.18
253.318	84.99
253.535	33.79
253.752	41.98
253.968	-25.6
254.185	23.55
254.401	35.84
254.618	60.42
254.835	-46.08
255.051	68.61
255.268	91.13
255.484	54.27
255.701	37.89
255.917	74.75
256.134	5.12
256.351	1.02
256.567	87.04
256.784	44.03
257	-11.26
257.217	46.08
257.433	-17.41
257.65	9.22
257.866	19.46
258.082	-17.41
258.299	60.42
258.515	48.13
258.732	31.74
258.948	105.47
259.165	58.37
259.381	48.13
259.597	46.08
259.814	50.18
260.03	-27.65
260.246	78.85
260.463	95.23
260.679	1.02
260.895	52.22
261.112	58.37
261.328	-11.26
261.544	25.6
261.761	91.13
261.977	91.13
262.193	-72.7
262.409	27.65
262.626	66.56
262.842	91.13
263.058	19.46
263.274	95.23
263.49	46.08
263.707	87.04
263.923	19.46
264.139	33.79
264.355	-54.27
264.571	39.94
264.787	41.98
265.004	87.04
265.22	58.37
265.436	33.79
265.652	44.03
265.868	37.89
266.084	-19.46
266.3	78.85
266.516	33.79
266.732	21.5
266.948	80.89
267.164	52.22
267.38	95.23
267.596	66.56
267.812	101.37
268.028	44.03
268.244	39.94
268.46	142.33
268.676	-60.42
268.892	19.46
269.108	5.12
269.324	41.98
269.54	-7.17
269.756	50.18
269.972	74.75
270.188	-7.17
270.403	37.89
270.619	9.22
270.835	23.55
271.051	5.12
271.267	-70.65
271.483	27.65
271.698	-78.85
271.914	-39.94
272.13	50.18
272.346	62.46
272.562	62.46
272.777	121.85
272.993	25.6
273.209	23.55
273.425	27.65
273.64	31.74
273.856	58.37
274.072	-23.55
274.287	-3.07
274.503	121.85
274.719	-7.17
274.934	-13.31
275.15	66.56
275.366	-37.89
275.581	17.41
275.797	62.46
276.012	87.04
276.228	101.37
276.444	44.03
276.659	19.46
276.875	-3.07
277.09	19.46
277.306	58.37
277.521	103.42
277.737	19.46
277.952	-21.5
278.168	99.33
278.383	35.84
278.599	1.02
278.814	-15.36
279.03	41.98
279.245	74.75
279.461	-35.84
279.676	84.99
279.892	52.22
280.107	-1.02
280.322	17.41
280.538	66.56
280.753	54.27
280.969	76.8
281.184	39.94
281.399	27.65
281.615	46.08
281.83	29.7
282.045	-37.89
282.26	70.65
282.476	54.27
282.691	37.89
282.906	41.98
283.122	11.26
283.337	13.31
283.552	-27.65
283.767	25.6
283.983	54.27
284.198	58.37
284.413	9.22
284.628	74.75
284.843	58.37
285.058	44.03
285.274	41.98
285.489	19.46
285.704	25.6
285.919	9.22
286.134	76.8
286.349	35.84
286.564	54.27
286.779	99.33
286.995	60.42
287.21	15.36
287.425	60.42
287.64	50.18
287.855	44.03
288.07	119.81
288.285	62.46
288.5	31.74
288.715	64.51
288.93	76.8
289.145	33.79
289.36	27.65
289.575	87.04
289.79	39.94
290.004	27.65
290.219	66.56
290.434	15.36
290.649	3.07
290.864	48.13
291.079	11.26
291.294	-9.22
291.509	89.09
291.724	7.17
291.938	-39.94
292.153	15.36
292.368	-74.75
292.583	41.98
292.798	72.7
293.012	5.12
293.227	29.7
293.442	91.13
293.657	-35.84
293.871	87.04
294.086	-25.6
294.301	89.09
294.516	109.57
294.73	52.22
294.945	33.79
295.16	-68.61
295.374	37.89
295.589	21.5
295.804	-15.36
296.018	76.8
296.233	84.99
296.447	35.84
296.662	46.08
296.877	60.42
297.091	60.42
297.306	35.84
297.52	60.42
297.735	48.13
297.949	-3.07
298.164	48.13
298.378	44.03
298.593	21.5
298.807	60.42
299.022	82.94
299.236	62.46
299.451	27.65
299.665	101.37
299.88	84.99
300.094	74.75
300.309	-37.89
300.523	-1.02
300.737	74.75
300.952	136.19
301.166	60.42
301.381	1.02
301.595	76.8
301.809	-37.89
302.024	44.03
302.238	64.51
302.452	39.94
302.667	25.6
302.881	64.51
303.095	37.89
303.309	39.94
303.524	37.89
303.738	33.79
303.952	-7.17
304.166	125.95
304.381	-19.46
304.595	91.13
304.809	33.79
305.023	70.65
305.237	-52.22
305.452	50.18
305.666	91.13
305.88	82.94
306.094	-15.36
306.308	52.22
306.522	-5.12
306.736	41.98
306.95	54.27
307.164	21.5
307.379	54.27
307.593	60.42
307.807	29.7
308.021	1.02
308.235	29.7
308.449	54.27
308.663	31.74
308.877	115.71
309.091	97.28
309.305	93.18
309.519	5.12
309.733	50.18
309.947	-72.7
310.161	11.26
310.374	50.18
310.588	74.75
310.802	13.31
311.016	-25.6
311.23	46.08
311.444	-37.89
311.658	87.04
311.872	125.95
312.085	82.94
312.299	9.22
312.513	84.99
312.727	56.32
312.941	52.22
313.154	58.37
313.368	-1.02
313.582	109.57
313.796	-5.12
314.009	-35.84
314.223	91.13
314.437	27.65
314.651	15.36
314.864	52.22
315.078	58.37
315.292	11.26
315.505	23.55
315.719	41.98
315.933	37.89
316.146	52.22
316.36	39.94
316.573	27.65
316.787	66.56
317.001	27.65
317.214	62.46
317.428	29.7
317.641	-3.07
317.855	-11.26
318.068	21.5
318.282	19.46
318.495	35.84
318.709	80.89
318.922	-60.42
319.136	87.04
319.349	80.89
319.563	-7.17
319.776	56.32
319.99	11.26
320.203	64.51
320.417	-15.36
320.63	13.31
320.843	50.18
321.057	31.74
321.27	1.02
321.483	50.18
321.697	74.75
321.91	35.84
322.124	74.75
322.337	74.75
322.55	17.41
322.763	70.65
322.977	41.98
323.19	5.12
323.403	5.12
323.617	29.7
323.83	66.56
324.043	11.26
324.256	-31.74
324.469	19.46
324.683	74.75
324.896	9.22
325.109	15.36
325.322	58.37
325.535	82.94
325.748	56.32
325.962	37.89
326.175	95.23
326.388	132.09
326.601	111.61
326.814	93.18
327.027	-109.57
327.24	82.94
327.453	9.22
327.666	31.74
327.879	60.42
328.092	82.94
328.305	23.55
328.518	23.55
328.731	11.26
328.944	52.22
329.157	58.37
329.37	54.27
329.583	76.8
329.796	99.33
330.009	-39.94
330.222	37.89
330.435	99.33
330.648	11.26
330.861	-17.41
331.073	-60.42
331.286	70.65
331.499	-39.94
331.712	21.5
331.925	-17.41
332.138	23.55
332.35	95.23
332.563	58.37
332.776	64.51
332.989	117.76
333.202	1.02
333.414	39.94
333.627	11.26
333.84	17.41
334.053	25.6
334.265	-21.5
334.478	35.84
334.691	7.17
334.903	7.17
335.116	37.89
335.329	39.94
335.541	9.22
335.754	80.89
335.966	91.13
336.179	93.18
336.392	-39.94
336.604	27.65
336.817	76.8
337.029	13.31
337.242	23.55
337.454	70.65
337.667	66.56
337.88	33.79
338.092	25.6
338.305	-23.55
338.517	-66.56
338.729	33.79
338.942	76.8
339.154	3.07
339.367	41.98
339.579	66.56
339.792	15.36
340.004	25.6
340.217	-9.22
340.429	74.75
340.641	-29.7
340.854	78.85
341.066	1.02
341.278	19.46
341.491	46.08
341.703	95.23
341.915	27.65
342.128	33.79
342.34	41.98
342.552	41.98
342.764	3.07
342.977	21.5
343.189	1.02
343.401	5.12
343.613	-15.36
343.826	29.7
344.038	9.22
344.25	27.65
344.462	13.31
344.674	-13.31
344.886	-11.26
345.099	50.18
345.311	80.89
345.523	89.09
345.735	-7.17
345.947	5.12
346.159	72.7
346.371	-46.08
346.583	-11.26
346.795	23.55
347.007	19.46
347.219	23.55
347.431	33.79
347.643	99.33
347.855	23.55
348.067	111.61
348.279	-1.02
348.491	78.85
348.703	-37.89
348.915	60.42
349.127	-9.22
349.339	68.61
349.551	44.03
349.763	31.74
349.975	11.26
350.187	76.8
350.399	3.07
350.61	80.89
350.822	-9.22
351.034	3.07
351.246	50.18
351.458	87.04
351.669	54.27
351.881	84.99
352.093	-1.02
352.305	19.46
352.517	-21.5
352.728	41.98
352.94	13.31
353.152	58.37
353.363	17.41
353.575	82.94
353.787	78.85
353.999	66.56
354.21	115.71
354.422	25.6
354.633	-33.79
354.845	23.55
355.057	72.7
355.268	54.27
355.48	99.33
355.692	33.79
355.903	-15.36
356.115	35.84
356.326	-48.13
356.538	99.33
356.749	68.61
356.961	27.65
357.172	58.37
357.384	-46.08
357.595	89.09
357.807	91.13
358.018	46.08
358.23	11.26
358.441	-37.89
358.653	66.56
358.864	37.89
359.075	25.6
359.287	11.26
359.498	107.52
359.709	-11.26
359.921	27.65
360.132	13.31
360.344	-3.07
360.555	41.98
360.766	58.37
360.977	27.65
361.189	121.85
361.4	33.79
361.611	29.7
361.823	93.18
362.034	41.98
362.245	29.7
362.456	27.65
362.667	93.18
362.879	-1.02
363.09	-17.41
363.301	41.98
363.512	9.22
363.723	62.46
363.935	48.13
364.146	44.03
364.357	-21.5
364.568	52.22
364.779	-7.17
364.99	-23.55
365.201	3.07
365.412	66.56
365.623	9.22
365.834	27.65
366.045	-23.55
366.256	44.03
366.467	119.81
366.678	62.46
366.889	3.07
367.1	1.02
367.311	74.75
367.522	-21.5
367.733	46.08
367.944	72.7
368.155	9.22
368.366	-39.94
368.577	80.89
368.788	113.66
368.999	9.22
369.209	25.6
369.42	50.18
369.631	99.33
369.842	13.31
370.053	27.65
370.264	7.17
370.474	58.37
370.685	54.27
370.896	33.79
371.107	82.94
371.317	41.98
371.528	19.46
371.739	80.89
371.95	21.5
372.16	117.76
372.371	35.84
372.582	27.65
372.792	5.12
373.003	-15.36
373.214	84.99
373.424	115.71
373.635	70.65
373.846	48.13
374.056	9.22
374.267	56.32
374.477	15.36
374.688	76.8
374.898	41.98
375.109	44.03
375.319	89.09
375.53	50.18
375.74	60.42
375.951	58.37
376.161	58.37
376.372	115.71
376.582	95.23
376.793	62.46
377.003	78.85
377.214	78.85
377.424	95.23
377.635	103.42
377.845	21.5
378.055	99.33
378.266	41.98
378.476	99.33
378.686	72.7
378.897	9.22
379.107	68.61
379.317	84.99
379.528	-37.89
379.738	91.13
379.948	15.36
380.158	39.94
380.369	103.42
380.579	66.56
380.789	58.37
380.999	60.42
381.21	91.13
381.42	78.85
381.63	7.17
381.84	9.22
382.05	72.7
382.261	113.66
382.471	52.22
382.681	-64.51
382.891	82.94
383.101	99.33
383.311	11.26
383.521	82.94
383.731	74.75
383.941	52.22
384.151	78.85
384.361	33.79
384.571	52.22
384.781	29.7
384.991	103.42
385.201	76.8
385.411	21.5
385.621	125.95
385.831	17.41
386.041	50.18
386.251	46.08
386.461	19.46
386.671	5.12
386.881	74.75
387.091	74.75
387.301	50.18
387.511	44.03
387.72	44.03
387.93	109.57
388.14	23.55
388.35	21.5
388.56	29.7
388.769	115.71
388.979	74.75
389.189	41.98
389.399	109.57
389.609	93.18
389.818	21.5
390.028	62.46
390.238	66.56
390.447	-7.17
390.657	107.52
390.867	66.56
391.076	27.65
391.286	89.09
391.496	125.95
391.705	89.09
391.915	103.42
392.125	109.57
392.334	25.6
392.544	130.05
392.753	58.37
392.963	33.79
393.172	29.7
393.382	25.6
393.591	27.65
393.801	17.41
394.01	74.75
394.22	-1.02
394.429	164.86
394.639	15.36
394.848	134.14
395.058	15.36
395.267	72.7
395.477	-9.22
395.686	109.57
395.895	121.85
396.105	138.24
396.314	78.85
396.524	41.98
396.733	115.71
396.942	74.75
397.152	58.37
397.361	33.79
397.57	60.42
397.78	95.23
397.989	-5.12
398.198	60.42
398.407	74.75
398.617	13.31
398.826	66.56
399.035	99.33
399.244	99.33
399.453	54.27
399.663	105.47
399.872	72.7
400.081	7.17
400.29	117.76
400.499	41.98
400.708	91.13
400.917	74.75
401.127	68.61
401.336	25.6
401.545	62.46
401.754	87.04
401.963	123.9
402.172	62.46
402.381	99.33
402.59	82.94
402.799	87.04
403.008	52.22
403.217	115.71
403.426	95.23
403.635	103.42
403.844	95.23
404.053	80.89
404.262	27.65
404.471	78.85
404.68	109.57
404.888	138.24
405.097	121.85
405.306	107.52
405.515	99.33
405.724	54.27
405.933	56.32
406.142	101.37
406.35	140.29
406.559	87.04
406.768	74.75
406.977	125.95
407.185	132.09
407.394	148.48
407.603	134.14
407.812	128
408.02	175.1
408.229	117.76
408.438	123.9
408.646	123.9
408.855	123.9
409.064	216.06
409.272	205.82
409.481	187.39
409.69	160.77
409.898	187.39
410.107	191.49
410.315	199.68
410.524	123.9
410.733	222.2
410.941	134.14
411.15	207.87
411.358	250.88
411.567	242.68
411.775	146.43
411.984	216.06
412.192	254.97
412.401	250.88
412.609	304.12
412.818	295.93
413.026	273.4
413.234	273.4
413.443	310.27
413.651	269.31
413.86	392.19
414.068	365.56
414.276	437.24
414.485	267.26
414.693	345.08
414.901	451.58
415.11	404.47
415.318	455.67
415.526	275.45
415.734	513.02
415.943	494.58
416.151	457.72
416.359	545.78
416.567	521.21
416.776	529.4
416.984	558.07
417.192	570.36
417.4	543.74
417.608	504.82
417.817	627.7
418.025	656.37
418.233	660.47
418.441	619.51
418.649	707.57
418.857	717.81
419.065	762.87
419.273	779.25
419.481	795.64
419.689	762.87
419.897	840.69
420.105	836.6
420.313	934.9
420.521	842.74
420.729	963.57
420.937	922.61
421.145	943.09
421.353	967.67
421.561	1072.11
421.769	1029.1
421.977	1188.85
422.185	1223.66
422.393	1135.6
422.601	1262.57
422.809	1321.96
423.017	1356.78
423.224	1270.76
423.432	1430.51
423.64	1594.34
423.848	1514.47
424.056	1518.57
424.263	1479.66
424.471	1663.97
424.679	1776.61
424.887	1733.61
425.094	1721.32
425.302	1858.53
425.51	1942.5
425.718	1836
425.925	1889.25
426.133	2010.08
426.341	2128.86
426.548	2216.93
426.756	2264.03
426.964	2167.77
427.171	2382.81
427.379	2403.29
427.586	2372.57
427.794	2444.25
428.001	2663.38
428.209	2778.07
428.417	2692.05
428.624	2874.32
428.832	3077.07
429.039	2837.46
429.247	2853.84
429.454	3177.42
429.662	3320.78
429.869	3210.19
430.076	3349.45
430.284	3234.77
430.491	3365.84
430.699	3673.03
430.906	3673.03
431.114	3736.52
431.321	3806.15
431.528	4006.85
431.736	4176.83
431.943	4371.39
432.15	4252.61
432.358	4326.33
432.565	4467.64
432.772	4410.3
432.979	4762.55
433.187	4875.19
433.394	4946.87
433.601	5153.71
433.808	5122.99
434.016	5090.23
434.223	5309.36
434.43	5571.5
434.637	5407.66
434.844	5845.93
435.052	6142.88
435.259	5919.65
435.466	6069.16
435.673	6038.44
435.88	6372.25
436.087	6400.93
436.294	6665.11
436.501	6536.09
436.708	6755.22
436.915	6902.68
437.122	7242.64
437.329	7070.61
437.537	7402.38
437.743	7586.7
437.95	7689.1
438.157	8053.64
438.364	8059.78
438.571	7996.29
438.778	8143.75
438.985	8803.19
439.192	8498.05
439.399	8936.31
439.606	8600.44
439.813	9120.63
440.02	9728.88
440.227	9737.07
440.433	9554.8
440.64	9747.31
440.847	9728.88
441.054	9866.09
441.261	10640.22
441.467	10308.45
441.674	10685.28
441.881	11027.29
442.088	10988.38
442.294	10859.35
442.501	11211.6
442.708	11463.51
442.914	11721.55
443.121	12485.44
443.328	12174.15
443.534	13028.15
443.741	12659.52
443.948	12260.16
444.154	13495.09
444.361	13185.85
444.568	13392.69
444.774	13390.64
444.981	13419.32
445.187	13884.2
445.394	14641.95
445.6	14443.3
445.807	15704.85
446.013	15250.2
446.22	15285.01
446.426	15778.58
446.633	16147.21
446.839	16741.12
447.046	15756.05
447.252	16888.57
447.459	16788.22
447.665	16495.36
447.871	17332.98
448.078	18412.26
448.284	17384.18
448.491	17865.46
448.697	18660.07
448.903	19098.33
449.11	19194.59
449.316	18875.1
449.522	19100.38
449.728	19716.82
449.935	19620.56
450.141	19919.57
450.347	20374.22
450.553	19454.68
450.76	20079.31
450.966	20456.14
451.172	20357.83
451.378	20978.37
451.584	20546.25
451.791	21023.42
451.997	20841.15
452.203	21355.19
452.409	21383.87
452.615	21115.58
452.821	20402.89
453.027	20392.65
453.233	21578.42
453.44	20624.07
453.646	21004.99
453.852	20794.05
454.058	21428.92
454.264	20572.87
454.47	21258.94
454.676	20576.97
454.882	21234.36
455.088	19157.72
455.294	19784.4
455.5	19899.09
455.705	20120.27
455.911	19714.77
456.117	19047.13
456.323	19038.94
456.529	18057.96
456.735	18875.1
456.941	18158.31
457.147	18060.01
457.352	17375.99
457.558	17412.85
457.764	17232.63
457.97	17126.14
458.176	16505.6
458.381	16710.4
458.587	15676.18
458.793	15657.75
458.999	15022.87
459.204	16048.91
459.41	15629.07
459.616	14633.76
459.821	14424.87
460.027	14431.01
460.233	14082.86
460.438	13663.02
460.644	13773.61
460.85	13124.41
461.055	12733.25
461.261	12897.08
461.466	11785.04
461.672	11434.83
461.878	12069.7
462.083	11469.65
462.289	11322.2
462.494	11197.27
462.7	10611.55
462.905	10408.8
463.111	10550.11
463.316	10666.85
463.522	10562.4
463.727	10806.11
463.932	10589.02
464.138	10390.37
464.343	10593.12
464.549	10218.34
464.754	10720.09
464.959	10212.2
465.165	10353.51
465.37	9948.01
465.575	9618.29
465.781	9980.78
465.986	10138.47
466.191	9806.7
466.397	9659.24
466.602	9110.39
466.807	9311.09
467.012	9237.36
467.218	9247.6
467.423	9249.65
467.628	9173.88
467.833	9790.31
468.038	9284.47
468.244	9104.25
468.449	9270.13
468.654	8995.7
468.859	8948.6
469.064	9161.59
469.269	8700.8
469.474	8702.84
469.679	8897.4
469.885	8575.87
470.09	8866.68
470.295	8749.95
470.5	8440.7
470.705	8618.88
470.91	8350.59
471.115	8332.16
471.32	8559.49
471.525	8573.82
471.73	8387.46
471.935	8037.25
472.139	7881.61
472.344	7979.91
472.549	7947.14
472.754	7799.69
472.959	7668.62
473.164	7392.14
473.369	7529.36
473.574	7721.87
473.778	7564.17
473.983	7416.72
474.188	7433.1
474.393	7240.59
474.598	7224.21
474.802	7136.15
475.007	7140.24
475.212	7211.92
475.417	6790.04
475.621	6787.99
475.826	6808.47
476.031	6722.46
476.235	6589.34
476.44	6677.4
476.645	6644.63
476.849	6566.81
477.054	6482.85
477.259	6345.63
477.463	6445.98
477.668	6296.48
477.872	6355.87
478.077	6167.46
478.282	5923.75
478.486	6036.39
478.691	5942.18
478.895	6058.92
479.1	6030.24
479.304	5919.65
479.509	5807.02
479.713	5741.48
479.918	5790.63
480.122	5471.15
480.326	5716.9
480.531	5741.48
480.735	5710.76
480.94	5528.49
481.144	5751.72
481.348	5415.85
481.553	5651.37
481.757	5559.21
481.961	5368.75
482.166	5710.76
482.37	5548.97
482.574	5366.7
482.778	5432.24
482.983	5585.83
483.187	5426.09
483.391	5342.13
483.595	5442.48
483.8	5483.44
484.004	5585.83
484.208	5546.92
484.412	5422
484.616	5481.39
484.821	5413.81
485.025	5419.95
485.229	5430.19
485.433	5270.45
485.637	5436.33
485.841	5266.35
486.045	5292.98
486.249	5538.73
486.453	5493.68
486.657	5485.48
486.861	5591.98
487.065	5462.96
487.269	5557.16
487.473	5206.96
487.677	5331.89
487.881	5526.44
488.085	5530.54
488.289	5370.8
488.493	5446.57
488.697	5620.65
488.901	5448.62
489.105	5415.85
489.309	5471.15
489.512	5575.59
489.716	5581.74
489.92	5686.19
490.124	5583.79
490.328	5704.62
490.531	5602.22
490.735	5589.93
490.939	5682.09
491.143	5563.31
491.346	5438.38
491.55	5700.52
491.754	5751.72
491.958	5671.85
492.161	5807.02
492.365	5860.26
492.569	5632.94
492.772	5921.7
492.976	5729.19
493.18	5809.06
493.383	5800.87
493.587	5786.54
493.79	5917.61
493.994	6017.96
494.197	5831.59
494.401	6097.83
494.605	6134.69
494.808	6124.45
495.012	6144.93
495.215	6153.12
495.419	6353.82
495.622	6198.18
495.825	6351.78
496.029	6366.11
496.232	6392.73
496.436	6349.73
496.639	6546.33
496.843	6384.54
497.046	6693.79
497.249	6759.32
497.453	6816.66
497.656	6890.39
497.859	6644.63
498.063	6988.69
498.266	7043.99
498.469	7068.56
498.673	7127.96
498.876	7250.83
499.079	7177.11
499.282	7283.6
499.485	7342.99
499.689	7517.07
499.892	7537.55
500.095	7564.17
500.298	7775.11
500.501	7736.2
500.705	7988.1
500.908	7988.1
501.111	8113.03
501.314	8162.18
501.517	8285.06
501.72	8301.44
501.923	8434.56
502.126	8506.24
502.329	8659.84
502.532	8852.34
502.735	8649.6
502.938	8924.02
503.141	8883.06
503.344	8983.41
503.547	9153.4
503.75	9204.6
503.953	9120.63
504.156	9399.15
504.359	9634.67
504.562	9646.96
504.765	9876.33
504.968	9890.67
505.17	10058.6
505.373	10236.77
505.576	10197.86
505.779	10253.16
505.982	10298.21
506.185	10541.92
506.387	10543.97
506.59	10550.11
506.793	10818.39
506.996	10847.07
507.198	11215.7
507.401	10965.85
507.604	11162.45
507.807	11674.45
508.009	11467.6
508.212	11541.33
508.415	11787.08
508.617	11887.43
508.82	11768.65
509.022	11961.16
509.225	12215.11
509.428	12297.03
509.63	12485.44
509.833	12354.37
510.035	12849.98
510.238	12610.37
510.44	12688.19
510.643	13069.11
510.845	13116.22
511.048	13091.64
511.25	13554.48
511.453	13429.56
511.655	13810.48
511.858	13667.12
512.06	13796.14
512.262	14134.06
512.465	13935.4
512.667	14353.19
512.87	14301.99
513.072	14598.95
513.274	14799.65
513.477	14701.34
513.679	14924.57
513.881	15260.44
514.084	15143.7
514.286	15211.29
514.488	15352.6
514.69	15751.95
514.893	15952.65
515.095	15977.23
515.297	16227.08
515.499	16077.58
515.701	16370.44
515.904	16599.81
516.106	16610.05
516.308	16882.43
516.51	17050.36
516.712	17013.5
516.914	17410.81
517.116	17728.24
517.318	17543.92
517.52	17965.81
517.722	17793.78
517.925	17990.38
518.127	18252.52
518.329	18301.67
518.531	18266.86
518.733	18832.1
518.935	19022.56
519.136	18973.41
519.338	19135.2
519.54	19061.47
519.742	19581.65
519.944	19331.8
520.146	19839.7
520.348	19960.53
520.55	20251.34
520.752	20212.43
520.954	20546.25
521.155	20386.5
521.357	20550.34
521.559	20873.92
521.761	21193.4
521.963	20896.45
522.164	21320.38
522.366	21371.58
522.568	21461.69
522.77	21557.94
522.971	21815.99
523.173	21783.22
523.375	22223.53
523.576	22188.72
523.778	21938.87
523.98	22571.69
524.181	22735.53
524.383	22553.26
524.584	22774.44
524.786	22850.21
524.988	23009.95
525.189	23055.01
525.391	23308.96
525.592	23628.44
525.794	23786.13
525.995	23648.92
526.197	23630.49
526.398	23966.35
526.6	23730.84
526.801	23943.83
527.003	24171.15
527.204	24433.29
527.406	24302.22
527.607	24443.53
527.808	24736.39
528.01	24236.69
528.211	24580.74
528.412	25047.68
528.614	25062.02
528.815	25137.79
529.016	25051.78
529.218	24801.93
529.419	25182.85
529.62	25078.4
529.822	25287.29
530.023	25094.79
530.224	25324.16
530.425	25537.15
530.626	25463.42
530.828	24846.98
531.029	25465.47
531.23	25285.25
531.431	25397.88
531.632	25596.54
531.833	25741.94
532.035	25817.72
532.236	25815.67
532.437	25895.54
532.638	25729.66
532.839	25948.79
533.04	25760.37
533.241	25801.33
533.442	26335.85
533.643	25946.74
533.844	25897.59
534.045	26165.87
534.246	25608.83
534.447	26129.01
534.648	26327.66
534.849	26237.55
535.05	25748.09
535.251	26030.71
535.451	26176.11
535.652	26147.44
535.853	26024.56
536.054	26210.93
536.255	26217.07
536.456	26079.86
536.657	26665.58
536.857	26108.53
537.058	26194.54
537.259	26526.32
537.46	26794.6
537.66	26290.8
537.861	26143.35
538.062	26354.29
538.263	25924.21
538.463	26104.43
538.664	26079.86
538.865	26186.35
539.065	26221.17
539.266	25967.22
539.466	26471.02
539.667	25780.85
539.868	26755.69
540.068	25891.44
540.269	26471.02
540.469	26473.07
540.67	26176.11
540.87	26327.66
541.071	26086
541.271	26098.29
541.472	26016.37
541.672	25518.71
541.873	26178.16
542.073	25678.46
542.274	26421.87
542.474	25920.12
542.675	26081.91
542.875	26395.25
543.075	26042.99
543.276	26040.95
543.476	26143.35
543.676	26059.38
543.877	26208.88
544.077	26565.23
544.277	26055.28
544.478	26026.61
544.678	26325.61
544.878	25809.53
545.078	25877.11
545.279	25848.44
545.479	26139.25
545.679	26325.61
545.879	26104.43
546.079	26098.29
546.28	26053.23
546.48	25899.64
546.68	25674.36
546.88	25946.74
547.08	25801.33
547.28	26059.38
547.48	25719.42
547.68	26202.74
547.88	25717.37
548.081	25905.78
548.281	26129.01
548.481	25700.98
548.681	26049.14
548.881	26028.66
549.081	25936.5
549.28	25463.42
549.48	26118.77
549.68	25938.55
549.88	26317.42
550.08	25938.55
550.28	26002.04
550.48	25860.73
550.68	25922.16
550.88	25662.07
551.08	25883.25
551.279	25989.75
551.479	25621.11
551.679	25821.81
551.879	25668.22
552.079	25995.89
552.278	25776.76
552.478	25713.27
552.678	25768.57
552.878	25590.39
553.077	25887.35
553.277	25463.42
553.477	25883.25
553.676	25590.39
553.876	25860.73
554.076	25451.13
554.275	25674.36
554.475	25338.49
554.674	25576.06
554.874	25514.62
555.074	25580.15
555.273	25903.73
555.473	25551.48
555.672	25602.68
555.872	25303.68
556.071	25621.11
556.271	25772.66
556.47	25524.86
556.67	25379.45
556.869	25305.73
557.068	25205.38
557.268	25320.06
557.467	25152.13
557.667	25377.4
557.866	25135.74
558.065	25410.17
558.265	25086.59
558.464	25008.77
558.663	25055.87
558.863	24574.6
559.062	25375.36
559.261	24547.98
559.461	25215.62
559.66	24603.27
559.859	24898.18
560.058	24908.42
560.258	24584.84
560.457	24603.27
560.656	24627.85
560.855	24699.53
561.054	24593.03
561.253	24263.31
561.453	24287.89
561.652	24689.29
561.851	24378
562.05	23988.88
562.249	24226.45
562.448	24449.67
562.647	23962.26
562.846	24109.71
563.045	24144.53
563.244	24056.46
563.443	24509.07
563.642	23693.97
563.841	23820.95
564.04	23736.98
564.239	24029.84
564.438	23790.23
564.637	23945.87
564.836	23724.69
565.035	23450.27
565.234	23517.85
565.432	23591.58
565.631	23372.44
565.83	23687.83
566.029	23497.37
566.228	23214.75
566.427	23360.16
566.625	23108.26
566.824	22872.74
567.023	23149.21
567.222	22921.89
567.42	23366.3
567.619	22997.67
567.818	22868.64
568.016	22694.57
568.215	22903.46
568.414	22696.61
568.612	23188.13
568.811	22665.89
569.01	22620.84
569.208	22284.97
569.407	22446.76
569.605	22325.93
569.804	22446.76
570.002	22256.3
570.201	22209.2
570.4	21885.62
570.598	22047.41
570.797	21697.2
570.995	22401.71
571.193	21764.79
571.392	22088.37
571.59	21826.23
571.789	21918.39
571.987	21660.34
572.186	21998.26
572.384	21842.61
572.582	21680.82
572.781	21641.91
572.979	21265.08
573.177	21668.53
573.376	21461.69
573.574	21430.97
573.772	21609.14
573.971	21160.64
574.169	21131.97
574.367	21052.09
574.565	21197.5
574.763	21097.15
574.962	21168.83
575.16	20703.94
575.358	21021.38
575.556	20677.32
575.754	20865.73
575.952	20417.22
576.151	20781.76
576.349	20679.36
576.547	20447.94
576.745	20241.1
576.943	20513.48
577.141	20423.37
577.339	20568.77
577.537	19880.66
577.735	20351.69
577.933	20058.83
578.131	20224.72
578.329	20032.21
578.527	19675.86
578.725	20124.36
578.923	20001.49
579.121	19770.07
579.319	19700.44
579.516	19866.32
579.714	19825.36
579.912	19677.91
580.11	19610.32
580.308	19714.77
580.506	19542.74
580.704	18871.01
580.901	19436.25
581.099	19464.92
581.297	19122.91
581.495	19151.58
581.692	19503.83
581.89	18907.87
582.088	18922.21
582.285	19045.09
582.483	19239.64
582.681	19038.94
582.878	18817.76
583.076	18916.06
583.274	19114.72
583.471	18682.59
583.669	18490.09
583.866	18451.17
584.064	18590.44
584.262	18592.48
584.459	18504.42
584.657	18508.52
584.854	18615.01
585.052	18293.48
585.249	18395.88
585.447	18490.09
585.644	18033.39
585.841	17994.48
586.039	18293.48
586.236	17912.56
586.434	18113.26
586.631	17951.47
586.828	17851.12
587.026	17980.14
587.223	17947.37
587.42	17769.2
587.618	17648.37
587.815	17687.28
588.012	17658.61
588.21	17580.79
588.407	17509.11
588.604	17523.44
588.801	17212.15
588.999	17519.35
589.196	17332.98
589.393	17021.69
589.59	17208.06
589.787	17249.02
589.984	17095.42
590.182	16743.17
590.379	17281.78
590.576	16941.82
590.773	17056.51
590.97	16847.61
591.167	17015.55
591.364	16691.97
591.561	17005.31
591.758	16593.67
591.955	16458.5
592.152	17021.69
592.349	16663.3
592.546	16347.91
592.743	16642.82
592.94	16456.45
593.137	16022.28
593.334	16487.17
593.531	16139.02
593.727	16274.18
593.924	16298.76
594.121	16196.36
594.318	15979.28
594.515	16034.57
594.712	16218.89
594.908	15911.69
595.105	15844.11
595.302	15766.29
595.499	16028.43
595.696	15596.31
595.892	15592.21
596.089	15680.27
596.286	15647.51
596.482	15674.13
596.679	15719.18
596.876	15395.61
597.072	15524.63
597.269	15573.78
597.466	15498
597.662	15297.3
597.859	15004.44
598.055	15014.68
598.252	15199
598.448	15057.69
598.645	15047.45
598.841	14953.24
599.038	15033.11
599.234	14951.2
599.431	15024.92
599.627	14852.89
599.824	14916.38
600.02	14955.29
600.217	14633.76
600.413	14777.12
600.609	14570.27
600.806	14635.81
601.002	14711.58
601.198	14713.63
601.395	14289.7
601.591	14678.82
601.787	14514.98
601.984	14258.98
602.18	14277.41
602.376	14154.54
602.572	14175.02
602.769	14197.54
602.965	14041.9
603.161	14527.27
603.357	13986.6
603.553	13931.31
603.75	13914.92
603.946	13962.03
604.142	13988.65
604.338	13683.5
604.534	13976.36
604.73	13794.09
604.926	13843.24
605.122	13779.76
605.318	13579.06
605.514	13671.22
605.71	13634.35
605.906	13544.24
606.102	13681.46
606.298	13583.15
606.494	13374.26
606.69	13441.84
606.886	13509.43
607.082	13337.4
607.278	13175.61
607.474	13142.84
607.67	13366.07
607.866	13148.98
608.062	13482.8
608.257	13329.2
608.453	13292.34
608.649	12890.94
608.845	13067.06
609.041	13101.88
609.236	12976.95
609.432	12864.32
609.628	13073.21
609.824	12974.91
610.019	12952.38
610.215	12866.36
610.411	12921.66
610.606	12864.32
610.802	12843.84
610.998	12784.44
611.193	12766.01
611.389	12827.45
611.584	12858.17
611.78	12684.09
611.976	12761.92
612.171	12581.7
612.367	12751.68
612.562	12518.21
612.758	12276.55
612.953	12356.42
613.149	12643.14
613.344	12311.36
613.539	12655.42
613.735	12358.47
613.93	12677.95
614.126	12407.62
614.321	12550.98
614.517	12258.12
614.712	12323.65
614.907	12217.16
615.103	12399.43
615.298	12297.03
615.493	12362.56
615.688	12165.96
615.884	12337.99
616.079	12100.42
616.274	12182.34
616.47	12079.94
616.665	12122.95
616.86	12141.38
617.055	11864.91
617.25	11981.64
617.445	12145.48
617.641	11678.54
617.836	12143.43
618.031	11727.69
618.226	11877.19
618.421	11942.73
618.616	11877.19
618.811	11514.7
619.006	11797.32
619.201	11510.61
619.396	11668.3
619.591	11490.13
619.786	11533.14
619.981	11592.53
620.176	11422.55
620.371	11141.97
620.566	11264.85
620.761	11129.69
620.956	11477.84
621.151	11131.73
621.346	11191.13
621.541	11060.06
621.735	11170.65
621.93	10873.69
622.125	10933.08
622.32	10689.37
622.515	10898.27
622.709	10724.19
622.904	10632.03
623.099	10484.58
623.294	10599.26
623.488	10505.06
623.683	10533.73
623.878	10412.9
624.072	10527.58
624.267	10496.86
624.462	10292.07
624.656	10222.44
624.851	10273.64
625.046	10167.14
625.24	10019.69
625.435	10040.17
625.629	10171.24
625.824	9816.94
626.018	9925.48
626.213	9732.97
626.407	9978.73
626.602	9913.19
626.796	9735.02
626.991	9636.72
627.185	9390.96
627.38	9585.52
627.574	9442.16
627.768	9218.93
627.963	9388.91
628.157	9192.31
628.352	9286.51
628.546	9077.62
628.74	9315.19
628.935	9057.14
629.129	9147.25
629.323	9026.42
629.517	9020.28
629.712	9051
629.906	8946.55
630.1	8739.71
630.294	8878.97
630.489	8588.16
630.683	8831.87
630.877	8629.12
631.071	8430.46
631.265	8563.58
631.459	8471.42
631.653	8442.75
631.848	8348.54
632.042	8459.13
632.236	8387.46
632.43	8192.9
632.624	8430.46
632.818	8205.19
633.012	8330.11
633.206	8117.12
633.4	8225.67
633.594	7889.8
633.788	7850.89
633.982	8004.49
634.176	7893.9
634.369	7871.37
634.563	7992.2
634.757	7728.01
634.951	7752.59
635.145	7918.47
635.339	8033.16
635.533	7660.43
635.726	7547.79
635.92	7578.51
636.114	7439.25
636.308	7482.25
636.501	7521.17
636.695	7310.22
636.889	7367.57
637.083	7367.57
637.276	7261.07
637.47	7252.88
637.664	7390.1
637.857	7199.63
638.051	7103.38
638.244	7127.96
638.438	7195.54
638.632	7232.4
638.825	6974.36
639.019	6921.11
639.212	7000.98
639.406	6982.55
639.599	6798.23
639.793	6835.1
639.986	6671.26
640.18	6894.49
640.373	6722.46
640.567	6773.66
640.76	6710.17
640.954	6650.78
641.147	6405.02
641.34	6650.78
641.534	6464.41
641.727	6495.13
641.92	6443.93
642.114	6319.01
642.307	6493.08
642.5	6359.97
642.694	6226.85
642.887	6335.39
643.08	6187.94
643.273	6202.27
643.467	6112.16
643.66	6220.71
643.853	5997.48
644.046	6044.58
644.239	5999.52
644.432	6044.58
644.626	5938.09
644.819	5929.89
645.012	5931.94
645.205	5796.78
645.398	5847.97
645.591	5780.39
645.784	5798.82
645.977	5698.47
646.17	5710.76
646.363	5626.79
646.556	5694.38
646.749	5528.49
646.942	5669.8
647.135	5620.65
647.328	5831.59
647.521	5733.29
647.714	5612.46
647.907	5534.64
648.099	5503.92
648.292	5567.4
648.485	5508.01
648.678	5317.55
648.871	5368.75
649.064	5239.73
649.256	5270.45
649.449	5252.02
649.642	5321.65
649.835	5245.87
650.027	5389.23
650.22	5137.33
650.413	5147.57
650.605	5139.38
650.798	5155.76
650.991	5043.12
651.183	4950.96
651.376	5041.08
651.568	5129.14
651.761	5036.98
651.954	4940.72
652.146	4748.22
652.339	5016.5
652.531	4916.15
652.724	4891.57
652.916	4737.98
653.109	4797.37
653.301	4762.55
653.494	4793.27
653.686	4508.6
653.879	4778.94
654.071	4649.91
654.263	4430.78
654.456	4481.98
654.648	4529.08
654.84	4522.94
655.033	4490.17
655.225	4475.84
655.417	4606.91
655.61	4512.7
655.802	4625.34
655.994	4367.29
656.186	4408.25
656.379	4318.14
656.571	4486.08
656.763	4357.05
656.955	4326.33
657.148	4299.71
657.34	4367.29
657.532	4375.49
657.724	4367.29
657.916	4293.57
658.108	4187.07
658.3	4176.83
658.492	4285.37
658.684	4023.23
658.876	4090.82
659.068	4211.65
659.26	3984.32
659.452	4092.87
659.644	4006.85
659.836	3961.8
660.028	4002.75
660.22	3974.08
660.412	3873.73
660.604	4074.43
660.796	3867.59
660.988	4033.47
661.18	3949.51
661.372	3865.54
661.563	3945.41
661.755	3843.01
661.947	3707.85
662.139	3867.59
662.331	3802.05
662.522	3759.05
662.714	3855.3
662.906	3666.89
663.097	3607.5
663.289	3687.37
663.481	3642.31
663.673	3670.98
663.864	3576.78
664.056	3531.72
664.247	3476.43
664.439	3478.47
664.631	3562.44
664.822	3681.22
665.014	3566.54
665.205	3480.52
665.397	3593.16
665.588	3556.3
665.78	3380.17
665.971	3503.05
666.163	3449.8
666.354	3498.95
666.546	3419.08
666.737	3351.5
666.929	3273.68
667.12	3474.38
667.311	3187.66
667.503	3320.78
667.694	3365.84
667.885	3351.5
668.077	3433.42
668.268	3331.02
668.459	3189.71
668.651	3238.86
668.842	3212.24
669.033	3189.71
669.224	3158.99
669.416	3269.58
669.607	3056.59
669.798	3171.28
669.989	3232.72
670.18	3097.55
670.371	3103.7
670.563	3019.73
670.754	3046.35
670.945	3036.11
671.136	3208.14
671.327	3029.97
671.518	2982.87
671.709	3025.87
671.9	3068.88
672.091	3040.21
672.282	3036.11
672.473	2859.99
672.664	2909.14
672.855	3042.26
673.046	3062.74
673.237	3040.21
673.428	3001.3
673.619	2915.28
673.809	2864.08
674	3097.55
674.191	2903
674.382	2718.68
674.573	2892.76
674.764	2966.48
674.954	2933.72
675.145	2921.43
675.336	2784.21
675.527	2941.91
675.717	2726.87
675.908	2718.68
676.099	2802.65
676.289	2827.22
676.48	2753.49
676.671	2694.1
676.861	2853.84
677.052	2780.12
677.243	2761.69
677.433	2737.11
677.624	2808.79
677.814	2784.21
678.005	2769.88
678.195	2829.27
678.386	2661.34
678.576	2780.12
678.767	2716.63
678.957	2714.58
679.148	2649.05
679.338	2825.17
679.529	2630.62
679.719	2694.1
679.909	2733.01
680.1	2593.75
680.29	2636.76
680.481	2698.2
680.671	2657.24
680.861	2573.27
681.052	2655.19
681.242	2608.09
681.432	2681.82
681.622	2540.51
681.813	2726.87
682.003	2606.04
682.193	2595.8
682.383	2548.7
682.573	2591.7
682.764	2636.76
682.954	2601.94
683.144	2642.9
683.334	2548.7
683.524	2532.31
683.714	2644.95
683.904	2706.39
684.094	2626.52
684.284	2515.93
684.474	2634.71
684.664	2620.38
684.854	2614.23
685.044	2632.66
685.234	2591.7
685.424	2657.24
685.614	2550.75
685.804	2511.83
685.994	2466.78
686.184	2579.42
686.374	2536.41
686.564	2493.4
686.753	2499.55
686.943	2413.53
687.133	2528.22
687.323	2474.97
687.513	2522.07
687.702	2503.64
687.892	2460.63
688.082	2456.54
688.272	2405.34
688.461	2343.9
688.651	2487.26
688.841	2315.23
689.03	2354.14
689.22	2356.19
689.41	2335.71
689.599	2425.82
689.789	2362.33
689.979	2327.52
690.168	2339.8
690.358	2391
690.547	2270.17
690.737	2335.71
690.926	2280.41
691.116	2235.36
691.305	2261.98
691.495	2259.93
691.684	2253.79
691.874	2276.32
692.063	2261.98
692.252	2266.08
692.442	2157.54
692.631	2116.58
692.82	2206.69
693.01	2159.58
693.199	2098.14
693.388	2094.05
693.578	2223.07
693.767	2124.77
693.956	2173.92
694.146	2096.1
694.335	2057.18
694.524	2153.44
694.713	2169.82
694.902	2186.21
695.092	2063.33
695.281	2104.29
695.47	2036.7
695.659	1956.83
695.848	2057.18
696.037	1991.65
696.226	2042.85
696.415	1983.46
696.604	2001.89
696.793	2016.23
696.982	1913.83
697.171	2114.53
697.36	2128.86
697.549	1944.55
697.738	2010.08
697.927	2118.62
698.116	2020.32
698.305	2057.18
698.494	1960.93
698.683	2024.42
698.872	2012.13
699.061	1901.54
699.25	2005.99
699.438	1967.07
699.627	1973.22
699.816	1991.65
700.005	1999.84
700.193	2036.7
700.382	2061.28
700.571	1944.55
700.76	1960.93
700.948	1993.7
701.137	1985.51
701.326	2003.94
701.514	1979.36
701.703	2003.94
701.892	1874.92
702.08	1985.51
702.269	1956.83
702.457	1944.55
702.646	1977.31
702.834	1944.55
703.023	1997.79
703.212	2036.7
703.4	1983.46
703.589	1895.4
703.777	2046.94
703.965	1868.77
704.154	1958.88
704.342	1901.54
704.531	2005.99
704.719	1897.44
704.907	1983.46
705.096	1975.27
705.284	1905.63
705.472	1926.11
705.661	1932.26
705.849	1977.31
706.037	2016.23
706.226	1879.01
706.414	1967.07
706.602	1868.77
706.79	1940.45
706.979	1969.12
707.167	1975.27
707.355	1893.35
707.543	1842.15
707.731	2083.81
707.919	1993.7
708.107	1833.96
708.296	1944.55
708.484	1965.03
708.672	1944.55
708.86	1934.31
709.048	1932.26
709.236	2044.9
709.424	1922.02
709.612	1995.75
709.8	1934.31
709.988	1917.92
710.176	1852.39
710.364	1926.11
710.551	2020.32
710.739	1901.54
710.927	1971.17
711.115	1983.46
711.303	1887.2
711.491	1985.51
711.679	1924.07
711.866	1975.27
712.054	1975.27
712.242	1946.59
712.43	1995.75
712.617	1967.07
712.805	2089.95
712.993	1926.11
713.181	1917.92
713.368	2026.47
713.556	2032.61
713.744	1905.63
713.931	2026.47
714.119	1926.11
714.306	1991.65
714.494	1969.12
714.682	2008.03
714.869	1909.73
715.057	2055.14
715.244	2073.57
715.432	2010.08
715.619	2024.42
715.807	2008.03
715.994	2012.13
716.182	1999.84
716.369	2042.85
716.556	2005.99
716.744	1932.26
716.931	1960.93
717.119	1993.7
717.306	2024.42
717.493	2085.86
717.681	2040.8
717.868	2124.77
718.055	2032.61
718.242	1993.7
718.43	2024.42
718.617	2042.85
718.804	1995.75
718.991	1936.35
719.179	2100.19
719.366	1983.46
719.553	2085.86
719.74	2092
719.927	1985.51
720.114	2030.56
720.301	2114.53
720.488	2001.89
720.676	1975.27
720.863	2057.18
721.05	2042.85
721.237	2020.32
721.424	1985.51
721.611	1991.65
721.798	2005.99
721.985	1993.7
722.172	2063.33
722.358	2053.09
722.545	2085.86
722.732	2012.13
722.919	2032.61
723.106	1999.84
723.293	2030.56
723.48	2087.9
723.667	2034.66
723.853	2098.14
724.04	2071.52
724.227	2038.75
724.414	1954.79
724.6	2087.9
724.787	2036.7
724.974	2089.95
725.161	2106.34
725.347	2073.57
725.534	2059.23
725.72	2038.75
725.907	1989.6
726.094	2001.89
726.28	2083.81
726.467	2040.8
726.653	1969.12
726.84	1967.07
727.027	2128.86
727.213	2001.89
727.4	2008.03
727.586	2149.34
727.773	2008.03
727.959	1887.2
728.145	2005.99
728.332	2102.24
728.518	1942.5
728.705	2171.87
728.891	2081.76
729.077	2020.32
729.264	2048.99
729.45	1917.92
729.636	2012.13
729.823	2139.1
730.009	1985.51
730.195	2028.51
730.382	2114.53
730.568	2028.51
730.754	2065.38
730.94	1940.45
731.126	2001.89
731.313	2139.1
731.499	2024.42
731.685	2051.04
731.871	2026.47
732.057	2081.76
732.243	2075.62
732.429	1944.55
732.615	2259.93
732.801	2077.66
732.987	2014.18
733.173	2100.19
733.359	2073.57
733.545	2126.82
733.731	2028.51
733.917	2094.05
734.103	2135.01
734.289	2065.38
734.475	2053.09
734.661	2114.53
734.847	1942.5
735.033	2073.57
735.219	2132.96
735.404	2008.03
735.59	2124.77
735.776	1960.93
735.962	2053.09
736.148	2122.72
736.333	2175.97
736.519	2018.27
736.705	2008.03
736.89	2153.44
737.076	2040.8
737.262	2012.13
737.447	2067.42
737.633	2010.08
737.819	1989.6
738.004	2038.75
738.19	2012.13
738.375	2057.18
738.561	2143.2
738.747	2038.75
738.932	1825.76
739.118	1960.93
739.303	1983.46
739.489	1960.93
739.674	1954.79
739.859	1948.64
740.045	1932.26
740.23	2003.94
740.416	1962.98
740.601	2069.47
740.786	1893.35
740.972	1985.51
741.157	1868.77
741.342	1934.31
741.528	1885.16
741.713	2028.51
741.898	1948.64
742.084	2016.23
742.269	1915.87
742.454	1917.92
742.639	1993.7
742.824	1905.63
743.01	1891.3
743.195	1852.39
743.38	1803.24
743.565	1881.06
743.75	1891.3
743.935	1891.3
744.12	1922.02
744.305	1803.24
744.49	1864.68
744.675	1962.98
744.86	1821.67
745.045	1981.41
745.23	1811.43
745.415	1864.68
745.6	1840.1
745.785	1721.32
745.97	1821.67
746.155	1827.81
746.34	1805.28
746.525	1745.89
746.71	1737.7
746.895	1786.85
747.079	1774.56
747.264	1692.65
747.449	1682.41
747.634	1719.27
747.819	1739.75
748.003	1647.59
748.188	1657.83
748.373	1780.71
748.557	1649.64
748.742	1698.79
748.927	1735.65
749.111	1680.36
749.296	1706.98
749.481	1647.59
749.665	1727.46
749.85	1682.41
750.034	1586.15
750.219	1653.73
750.404	1606.63
750.588	1641.45
750.773	1522.66
750.957	1543.14
751.141	1635.3
751.326	1537
751.51	1491.95
751.695	1567.72
751.879	1518.57
752.064	1516.52
752.248	1516.52
752.432	1565.67
752.617	1528.81
752.801	1393.64
752.985	1541.1
753.17	1491.95
753.354	1420.27
753.538	1450.99
753.722	1377.26
753.907	1350.64
754.091	1319.92
754.275	1328.11
754.459	1358.83
754.643	1420.27
754.828	1389.55
755.012	1371.12
755.196	1287.15
755.38	1283.05
755.564	1293.29
755.748	1299.44
755.932	1291.24
756.116	1246.19
756.3	1192.94
756.484	1238
756.668	1258.48
756.852	1276.91
757.036	1315.82
757.22	1242.09
757.404	1330.16
757.588	1256.43
757.772	1260.52
757.956	1233.9
758.14	1201.13
758.323	1172.46
758.507	1258.48
758.691	1145.84
758.875	1260.52
759.059	1158.13
759.242	1106.93
759.426	1176.56
759.61	1055.73
759.794	1115.12
759.977	1102.83
760.161	1217.52
760.345	1129.45
760.528	1156.08
760.712	1121.26
760.895	1180.65
761.079	1084.4
761.263	1070.06
761.446	1074.16
761.63	1098.74
761.813	1135.6
761.997	1022.96
762.18	1037.3
762.364	1049.58
762.547	1008.62
762.731	1051.63
762.914	943.09
763.098	1012.72
763.281	996.34
763.464	971.76
763.648	1041.39
763.831	994.29
764.015	932.85
764.198	1043.44
764.381	1006.58
764.564	918.51
764.748	914.42
764.931	1045.49
765.114	984.05
765.297	1080.3
765.481	902.13
765.664	969.71
765.847	1014.77
766.03	990.19
766.213	902.13
766.397	910.32
766.58	881.65
766.763	902.13
766.946	869.36
767.129	1035.25
767.312	867.31
767.495	920.56
767.678	893.94
767.861	836.6
768.044	924.66
768.227	812.02
768.41	867.31
768.593	955.38
768.776	850.93
768.959	850.93
769.142	871.41
769.324	877.55
769.507	812.02
769.69	861.17
769.873	910.32
770.056	842.74
770.239	775.16
770.421	873.46
770.604	906.23
770.787	842.74
770.97	875.51
771.152	789.49
771.335	771.06
771.518	797.68
771.7	863.22
771.883	797.68
772.066	830.45
772.248	793.59
772.431	857.07
772.613	783.35
772.796	803.83
772.978	726
773.161	687.09
773.343	744.44
773.526	676.85
773.708	738.29
773.891	773.11
774.073	721.91
774.256	713.72
774.438	668.66
774.621	734.2
774.803	721.91
774.985	738.29
775.168	771.06
775.35	703.48
775.532	742.39
775.715	674.81
775.897	666.61
776.079	730.1
776.261	687.09
776.444	691.19
776.626	791.54
776.808	639.99
776.99	693.24
777.173	680.95
777.355	715.77
777.537	623.61
777.719	697.33
777.901	639.99
778.083	656.37
778.265	584.7
778.447	648.18
778.629	574.46
778.811	623.61
778.993	617.46
779.175	574.46
779.357	615.41
779.539	513.02
779.721	508.92
779.903	590.84
780.085	599.03
780.267	566.26
780.449	619.51
780.631	513.02
780.812	650.23
780.994	541.69
781.176	566.26
781.358	545.78
781.54	490.49
781.721	633.85
781.903	558.07
782.085	543.74
782.267	545.78
782.448	525.3
782.63	545.78
782.812	517.11
782.993	447.48
783.175	443.39
783.357	472.06
783.538	611.32
783.72	449.53
783.901	459.77
784.083	488.44
784.264	490.49
784.446	429.05
784.627	478.2
784.809	461.82
784.99	429.05
785.172	492.54
785.353	465.91
785.535	377.85
785.716	418.81
785.897	457.72
786.079	422.91
786.26	472.06
786.441	412.67
786.623	365.56
786.804	394.23
786.985	435.19
787.167	353.27
787.348	390.14
787.529	445.43
787.71	459.77
787.891	388.09
788.073	357.37
788.254	371.71
788.435	470.01
788.616	396.28
788.797	394.23
788.978	375.8
789.159	383.99
789.34	388.09
789.522	347.13
789.703	418.81
789.884	328.7
790.065	418.81
790.246	386.04
790.427	363.51
790.607	390.14
790.788	386.04
790.969	369.66
791.15	394.23
791.331	334.84
791.512	330.75
791.693	306.17
791.874	379.9
792.054	396.28
792.235	361.47
792.416	283.64
792.597	320.51
792.778	410.62
792.958	252.92
793.139	349.18
793.32	330.75
793.5	209.92
793.681	390.14
793.862	263.16
794.042	257.02
794.223	293.88
794.404	287.74
794.584	246.78
794.765	287.74
794.945	267.26
795.126	314.36
795.306	302.08
795.487	324.6
795.667	250.88
795.848	261.12
796.028	269.31
796.209	230.4
796.389	250.88
796.57	345.08
796.75	234.49
796.93	254.97
797.111	265.21
797.291	265.21
797.471	279.55
797.652	271.36
797.832	306.17
798.012	275.45
798.192	222.2
798.373	146.43
798.553	216.06
798.733	191.49
798.913	232.44
799.093	195.58
799.274	181.25
799.454	291.84
799.634	287.74
799.814	297.98
799.994	218.11
800.174	187.39
800.354	320.51
800.534	232.44
800.714	242.68
800.894	224.25
801.074	226.3
801.254	224.25
801.434	187.39
801.614	234.49
801.794	164.86
801.974	621.56
802.154	291.84
802.334	281.6
802.514	248.83
802.693	242.68
802.873	203.77
803.053	189.44
803.233	201.72
803.413	160.77
803.592	209.92
803.772	273.4
803.952	179.2
804.131	166.91
804.311	177.15
804.491	297.98
804.67	248.83
804.85	238.59
805.03	218.11
805.209	271.36
805.389	195.58
805.568	228.35
805.748	160.77
805.928	171.01
806.107	152.57
806.287	142.33
806.466	189.44
806.646	189.44
806.825	148.48
807.004	197.63
807.184	211.96
807.363	168.96
807.543	209.92
807.722	119.81
807.901	189.44
808.081	201.72
808.26	138.24
808.439	218.11
808.619	214.01
808.798	113.66
808.977	222.2
809.156	119.81
809.336	140.29
809.515	230.4
809.694	150.53
809.873	199.68
810.052	205.82
810.231	136.19
810.411	199.68
810.59	207.87
810.769	191.49
810.948	162.81
811.127	78.85
811.306	177.15
811.485	134.14
811.664	222.2
811.843	181.25
812.022	123.9
812.201	146.43
812.38	201.72
812.559	162.81
812.737	150.53
812.916	78.85
813.095	103.42
813.274	203.77
813.453	171.01
813.632	136.19
813.811	128
813.989	230.4
814.168	179.2
814.347	152.57
814.526	89.09
814.704	195.58
814.883	173.05
815.062	162.81
815.24	238.59
815.419	105.47
815.598	185.34
815.776	17.41
815.955	158.72
816.133	70.65
816.312	117.76
816.49	109.57
816.669	144.38
816.847	171.01
817.026	177.15
817.204	125.95
817.383	193.53
817.561	66.56
817.74	142.33
817.918	185.34
818.097	72.7
818.275	134.14
818.453	162.81
818.632	173.05
818.81	144.38
818.988	136.19
819.167	117.76
819.345	121.85
819.523	160.77
819.701	162.81
819.879	107.52
820.058	70.65
820.236	109.57
820.414	109.57
820.592	87.04
820.77	60.42
820.948	107.52
821.127	185.34
821.305	148.48
821.483	76.8
821.661	78.85
821.839	123.9
822.017	91.13
822.195	142.33
822.373	115.71
822.551	125.95
822.729	91.13
822.907	50.18
823.085	160.77
823.262	115.71
823.44	91.13
823.618	70.65
823.796	111.61
823.974	64.51
824.152	132.09
824.329	9.22
824.507	123.9
824.685	107.52
824.863	56.32
825.04	95.23
825.218	101.37
825.396	91.13
825.574	156.67
825.751	78.85
825.929	91.13
826.107	89.09
826.284	62.46
826.462	132.09
826.639	117.76
826.817	107.52
826.994	91.13
827.172	99.33
827.349	185.34
827.527	132.09
827.704	54.27
827.882	113.66
828.059	50.18
828.237	13.31
828.414	91.13
828.591	35.84
828.769	58.37
828.946	119.81
829.124	130.05
829.301	107.52
829.478	52.22
829.655	80.89
829.833	136.19
830.01	27.65
830.187	80.89
830.364	117.76
830.542	78.85
830.719	84.99
830.896	74.75
831.073	123.9
831.25	166.91
831.427	105.47
831.604	146.43
831.782	33.79
831.959	140.29
832.136	105.47
832.313	48.13
832.49	82.94
832.667	123.9
832.844	46.08
833.021	107.52
833.198	39.94
833.374	99.33
833.551	74.75
833.728	111.61
833.905	60.42
834.082	64.51
834.259	82.94
834.436	91.13
834.612	31.74
834.789	111.61
834.966	1.02
835.143	95.23
835.319	76.8
835.496	93.18
835.673	101.37
835.85	119.81
836.026	107.52
836.203	101.37
836.38	25.6
836.556	58.37
836.733	84.99
836.909	50.18
837.086	82.94
837.262	111.61
837.439	158.72
837.616	9.22
837.792	58.37
837.968	62.46
838.145	78.85
838.321	87.04
838.498	41.98
838.674	68.61
838.851	44.03
839.027	-21.5
839.203	78.85
839.38	132.09
839.556	37.89
839.732	48.13
839.909	3.07
840.085	62.46
840.261	68.61
840.437	52.22
840.614	19.46
840.79	17.41
840.966	82.94
841.142	91.13
841.318	70.65
841.494	95.23
841.671	93.18
841.847	87.04
842.023	52.22
842.199	74.75
842.375	156.67
842.551	39.94
842.727	89.09
842.903	109.57
843.079	9.22
843.255	103.42
843.431	33.79
843.607	68.61
843.783	-39.94
843.959	87.04
844.134	17.41
844.31	91.13
844.486	29.7
844.662	19.46
844.838	54.27
845.013	80.89
845.189	68.61
845.365	58.37
845.541	3.07
845.716	46.08
845.892	84.99
846.068	93.18
846.244	78.85
846.419	52.22
846.595	68.61
846.77	82.94
846.946	66.56
847.122	27.65
847.297	-3.07
847.473	76.8
847.648	-46.08
847.824	62.46
847.999	58.37
848.175	68.61
848.35	46.08
848.526	93.18
848.701	80.89
848.876	76.8
849.052	84.99
849.227	60.42
849.403	76.8
849.578	-3.07
849.753	84.99
849.929	64.51
850.104	13.31
850.279	76.8
850.454	56.32
850.63	95.23
850.805	46.08
850.98	111.61
851.155	41.98
851.33	46.08
851.505	52.22
851.681	72.7
851.856	-5.12
852.031	11.26
852.206	41.98
852.381	44.03
852.556	58.37
852.731	29.7
852.906	74.75
853.081	5.12
853.256	48.13
853.431	68.61
853.606	-46.08
853.781	68.61
853.956	-56.32
854.131	35.84
854.305	44.03
854.48	74.75
854.655	9.22
854.83	74.75
855.005	97.28
855.18	113.66
855.354	72.7
855.529	78.85
855.704	80.89
855.879	56.32
856.053	60.42
856.228	66.56
856.403	54.27
856.577	3.07
856.752	48.13
856.926	39.94
857.101	46.08
857.276	7.17
857.45	23.55
857.625	107.52
857.799	21.5
857.974	7.17
858.148	-15.36
858.323	37.89
858.497	82.94
858.672	54.27
858.846	25.6
859.02	1.02
859.195	-5.12
859.369	66.56
859.543	9.22
859.718	-5.12
859.892	29.7
860.066	13.31
860.241	-62.46
860.415	74.75
860.589	9.22
860.763	-5.12
860.938	-7.17
861.112	82.94
861.286	-3.07
861.46	39.94
861.634	19.46
861.808	29.7
861.982	21.5
862.157	60.42
862.331	54.27
862.505	15.36
862.679	-41.98
862.853	25.6
863.027	-7.17
863.201	60.42
863.375	9.22
863.549	58.37
863.722	97.28
863.896	80.89
864.07	25.6
864.244	19.46
864.418	60.42
864.592	-3.07
864.766	74.75
864.939	17.41
865.113	17.41
865.287	-19.46
865.461	-39.94
865.634	-19.46
865.808	62.46
865.982	1.02
866.156	84.99
866.329	3.07
866.503	74.75
866.676	56.32
866.85	5.12
867.024	29.7
867.197	48.13
867.371	46.08
867.544	31.74
867.718	21.5
867.891	-21.5
868.065	9.22
868.238	25.6
868.412	113.66
868.585	50.18
868.759	1.02
868.932	-11.26
869.105	23.55
869.279	-29.7
869.452	-25.6
869.625	35.84
869.799	-5.12
869.972	11.26
870.145	11.26
870.319	17.41
870.492	-31.74
870.665	82.94
870.838	-25.6
871.011	-31.74
871.185	27.65
871.358	74.75
871.531	11.26
871.704	68.61
871.877	76.8
872.05	35.84
872.223	11.26
872.396	64.51
872.569	11.26
872.742	-54.27
872.915	3.07
873.088	84.99
873.261	9.22
873.434	89.09
873.607	23.55
873.78	23.55
873.953	-11.26
874.126	46.08
874.299	-13.31
874.471	-23.55
874.644	23.55
874.817	-31.74
874.99	64.51
875.163	11.26
875.335	39.94
875.508	1.02
875.681	1.02
875.853	7.17
876.026	17.41
876.199	76.8
876.371	107.52
876.544	17.41
876.717	13.31
876.889	46.08
877.062	66.56
877.234	-31.74
877.407	76.8
877.579	-23.55
877.752	-66.56
877.924	17.41
878.097	3.07
878.269	-11.26
878.442	13.31
878.614	-9.22
878.786	-44.03
878.959	25.6
879.131	1.02
879.303	70.65
879.476	31.74
879.648	-15.36
879.82	-7.17
879.993	62.46
880.165	-35.84
880.337	-9.22
880.509	3.07
880.681	-50.18
880.854	95.23
881.026	19.46
881.198	72.7
881.37	62.46
881.542	-7.17
881.714	76.8
881.886	-21.5
882.058	-87.04
882.23	17.41
882.402	21.5
882.574	35.84
882.746	62.46
882.918	-11.26
883.09	19.46
883.262	29.7
883.434	54.27
883.606	-72.7
883.778	17.41
883.95	50.18
884.122	-109.57
884.293	13.31
884.465	70.65
884.637	107.52
884.809	-37.89
884.98	1.02
885.152	54.27
885.324	29.7
885.496	68.61
885.667	50.18
885.839	46.08
886.011	19.46
886.182	-35.84
886.354	-13.31
886.525	29.7
886.697	-5.12
886.869	21.5
887.04	54.27
887.212	74.75
887.383	76.8
887.555	35.84
887.726	9.22
887.897	27.65
888.069	44.03
888.24	-1.02
888.412	46.08
888.583	7.17
888.754	-29.7
888.926	11.26
889.097	29.7
889.268	-19.46
889.44	-39.94
889.611	-15.36
889.782	-44.03
889.953	-31.74
890.125	-13.31
890.296	-52.22
890.467	-37.89
890.638	17.41
890.809	62.46
890.98	5.12
891.151	41.98
891.323	46.08
891.494	-60.42
891.665	46.08
891.836	9.22
892.007	31.74
892.178	17.41
892.349	-13.31
892.52	41.98
892.691	-19.46
892.862	9.22
893.032	21.5
893.203	52.22
893.374	-21.5
893.545	60.42
893.716	3.07
893.887	50.18
894.057	-5.12
894.228	46.08
894.399	46.08
894.57	62.46
894.74	-5.12
894.911	60.42
895.082	3.07
895.253	9.22
895.423	13.31
895.594	31.74
895.764	-29.7
895.935	-70.65
896.106	89.09
896.276	-25.6
896.447	-23.55
896.617	74.75
896.788	-5.12
896.958	5.12
897.129	-19.46
897.299	13.31
897.47	3.07
897.64	27.65
897.81	35.84
897.981	-27.65
898.151	99.33
898.322	64.51
898.492	-7.17
898.662	-1.02
898.832	15.36
899.003	50.18
899.173	41.98
899.343	13.31
899.513	7.17
