Data from USB4F104151__23__13-10-39-672.txt Node

Date: Fri Mar 14 13:10:39 EDT 2025
User: louis
Spectrometer: USB4F10415
Trigger mode: 4
Integration Time (sec): 2.000000E-2
Scans to average: 1
Electric dark correction enabled: true
Nonlinearity correction enabled: false
Boxcar width: 0
XAxis mode: Wavelengths
Number of Pixels in Spectrum: 3648
>>>>>Begin Spectral Data<<<<<
178.204	-152.06
178.424	-152.06
178.644	-152.06
178.864	-55.81
179.084	-137.73
179.304	5.63
179.524	-6.66
179.744	-88.57
179.964	36.35
180.184	32.26
180.404	9.73
180.624	-27.14
180.844	-10.75
181.064	15.87
181.283	22.02
181.503	-14.85
181.723	26.11
181.943	-94.72
182.163	42.5
182.383	58.88
182.602	32.26
182.822	75.26
183.042	-18.94
183.262	-31.23
183.482	-27.14
183.701	17.92
183.921	-14.85
184.141	-12.8
184.361	67.07
184.58	-18.94
184.8	-51.71
185.02	-37.38
185.239	36.35
185.459	9.73
185.679	83.45
185.898	-2.56
186.118	19.97
186.338	15.87
186.557	-51.71
186.777	-14.85
186.997	-18.94
187.216	22.02
187.436	69.12
187.655	34.3
187.875	58.88
188.095	-72.19
188.314	46.59
188.534	-2.56
188.753	-31.23
188.973	3.58
189.192	77.31
189.412	19.97
189.631	1.54
189.851	9.73
190.07	1.54
190.29	-47.62
190.509	46.59
190.729	-10.75
190.948	42.5
191.168	79.36
191.387	-29.18
191.607	-51.71
191.826	13.82
192.045	-0.51
192.265	73.21
192.484	-12.8
192.704	22.02
192.923	9.73
193.142	120.32
193.362	-4.61
193.581	-16.9
193.8	22.02
194.02	-35.33
194.239	26.11
194.458	46.59
194.678	11.78
194.897	77.31
195.116	11.78
195.335	65.02
195.555	1.54
195.774	5.63
195.993	9.73
196.212	81.41
196.432	36.35
196.651	-31.23
196.87	60.93
197.089	85.5
197.308	69.12
197.528	-2.56
197.747	9.73
197.966	-18.94
198.185	69.12
198.404	-53.76
198.623	-23.04
198.842	-10.75
199.062	19.97
199.281	91.65
199.5	17.92
199.719	22.02
199.938	-0.51
200.157	34.3
200.376	1.54
200.595	26.11
200.814	36.35
201.033	-18.94
201.252	44.54
201.471	-29.18
201.69	60.93
201.909	3.58
202.128	77.31
202.347	58.88
202.566	32.26
202.785	-6.66
203.004	-2.56
203.223	28.16
203.442	-51.71
203.661	30.21
203.879	-12.8
204.098	93.69
204.317	69.12
204.536	5.63
204.755	-4.61
204.974	-2.56
205.193	85.5
205.411	89.6
205.63	-16.9
205.849	77.31
206.068	22.02
206.287	-23.04
206.505	122.37
206.724	-45.57
206.943	38.4
207.162	-33.28
207.381	-14.85
207.599	3.58
207.818	-10.75
208.037	24.06
208.255	65.02
208.474	3.58
208.693	44.54
208.911	-16.9
209.13	5.63
209.349	73.21
209.567	54.78
209.786	32.26
210.005	13.82
210.223	38.4
210.442	34.3
210.661	-16.9
210.879	75.26
211.098	-18.94
211.316	-2.56
211.535	-41.47
211.753	101.89
211.972	71.17
212.191	-43.52
212.409	-16.9
212.628	-12.8
212.846	42.5
213.065	77.31
213.283	73.21
213.502	65.02
213.72	11.78
213.938	-6.66
214.157	75.26
214.375	62.98
214.594	56.83
214.812	26.11
215.031	19.97
215.249	-39.42
215.467	50.69
215.686	28.16
215.904	58.88
216.122	128.51
216.341	114.17
216.559	105.98
216.778	128.51
216.996	54.78
217.214	48.64
217.432	-31.23
217.651	22.02
217.869	58.88
218.087	-12.8
218.306	-18.94
218.524	36.35
218.742	44.54
218.96	26.11
219.179	50.69
219.397	34.3
219.615	75.26
219.833	-27.14
220.051	36.35
220.27	62.98
220.488	34.3
220.706	24.06
220.924	65.02
221.142	1.54
221.36	-20.99
221.578	69.12
221.796	40.45
222.015	44.54
222.233	-23.04
222.451	42.5
222.669	60.93
222.887	83.45
223.105	30.21
223.323	15.87
223.541	-25.09
223.759	36.35
223.977	13.82
224.195	54.78
224.413	7.68
224.631	30.21
224.849	-0.51
225.067	134.65
225.285	28.16
225.503	42.5
225.721	7.68
225.939	-51.71
226.157	26.11
226.375	118.27
226.592	5.63
226.81	62.98
227.028	24.06
227.246	50.69
227.464	-8.7
227.682	19.97
227.9	17.92
228.117	-12.8
228.335	1.54
228.553	-8.7
228.771	17.92
228.989	-43.52
229.206	118.27
229.424	-51.71
229.642	22.02
229.86	-23.04
230.077	140.8
230.295	-12.8
230.513	3.58
230.731	13.82
230.948	40.45
231.166	-4.61
231.384	-23.04
231.601	11.78
231.819	159.23
232.037	32.26
232.254	-41.47
232.472	42.5
232.689	73.21
232.907	58.88
233.125	67.07
233.342	67.07
233.56	-4.61
233.777	42.5
233.995	-14.85
234.213	26.11
234.43	58.88
234.648	-45.57
234.865	28.16
235.083	54.78
235.3	56.83
235.518	7.68
235.735	26.11
235.953	7.68
236.17	38.4
236.388	48.64
236.605	58.88
236.822	-10.75
237.04	75.26
237.257	34.3
237.475	75.26
237.692	17.92
237.909	-2.56
238.127	75.26
238.344	34.3
238.562	-39.42
238.779	5.63
238.996	26.11
239.214	75.26
239.431	36.35
239.648	9.73
239.865	58.88
240.083	-45.57
240.3	-2.56
240.517	73.21
240.735	11.78
240.952	1.54
241.169	22.02
241.386	28.16
241.603	52.74
241.821	-23.04
242.038	56.83
242.255	-4.61
242.472	87.55
242.689	17.92
242.907	73.21
243.124	22.02
243.341	42.5
243.558	93.69
243.775	3.58
243.992	-25.09
244.209	-2.56
244.426	157.18
244.643	50.69
244.86	-20.99
245.078	28.16
245.295	-39.42
245.512	17.92
245.729	-12.8
245.946	99.84
246.163	30.21
246.38	-45.57
246.597	-0.51
246.814	-57.86
247.031	17.92
247.248	93.69
247.464	42.5
247.681	-2.56
247.898	140.8
248.115	97.79
248.332	-23.04
248.549	50.69
248.766	19.97
248.983	48.64
249.2	-16.9
249.417	44.54
249.633	-33.28
249.85	-16.9
250.067	-47.62
250.284	3.58
250.501	85.5
250.717	50.69
250.934	42.5
251.151	46.59
251.368	-29.18
251.585	65.02
251.801	71.17
252.018	-27.14
252.235	-14.85
252.451	-47.62
252.668	-14.85
252.885	13.82
253.102	97.79
253.318	60.93
253.535	-37.38
253.752	-39.42
253.968	75.26
254.185	-18.94
254.401	1.54
254.618	-4.61
254.835	60.93
255.051	75.26
255.268	50.69
255.484	-25.09
255.701	75.26
255.917	71.17
256.134	-55.81
256.351	101.89
256.567	-37.38
256.784	73.21
257	-4.61
257.217	38.4
257.433	40.45
257.65	58.88
257.866	3.58
258.082	-51.71
258.299	-41.47
258.515	3.58
258.732	38.4
258.948	1.54
259.165	11.78
259.381	50.69
259.597	24.06
259.814	22.02
260.03	9.73
260.246	11.78
260.463	93.69
260.679	-31.23
260.895	56.83
261.112	34.3
261.328	-18.94
261.544	69.12
261.761	112.13
261.977	-33.28
262.193	9.73
262.409	3.58
262.626	-57.86
262.842	9.73
263.058	-16.9
263.274	93.69
263.49	50.69
263.707	-12.8
263.923	40.45
264.139	36.35
264.355	32.26
264.571	60.93
264.787	30.21
265.004	9.73
265.22	30.21
265.436	46.59
265.652	5.63
265.868	108.03
266.084	-33.28
266.3	28.16
266.516	13.82
266.732	58.88
266.948	9.73
267.164	-14.85
267.38	17.92
267.596	-6.66
267.812	42.5
268.028	42.5
268.244	-14.85
268.46	60.93
268.676	15.87
268.892	87.55
269.108	-49.66
269.324	9.73
269.54	-68.09
269.756	-35.33
269.972	13.82
270.188	-72.19
270.403	103.93
270.619	13.82
270.835	83.45
271.051	-2.56
271.267	-8.7
271.483	17.92
271.698	-59.9
271.914	15.87
272.13	1.54
272.346	50.69
272.562	-47.62
272.777	19.97
272.993	9.73
273.209	-2.56
273.425	40.45
273.64	17.92
273.856	-6.66
274.072	-18.94
274.287	9.73
274.503	62.98
274.719	3.58
274.934	46.59
275.15	19.97
275.366	-53.76
275.581	-37.38
275.797	24.06
276.012	-20.99
276.228	-35.33
276.444	42.5
276.659	5.63
276.875	15.87
277.09	30.21
277.306	19.97
277.521	77.31
277.737	105.98
277.952	34.3
278.168	50.69
278.383	67.07
278.599	75.26
278.814	22.02
279.03	93.69
279.245	58.88
279.461	15.87
279.676	58.88
279.892	7.68
280.107	3.58
280.322	42.5
280.538	67.07
280.753	-39.42
280.969	67.07
281.184	-12.8
281.399	46.59
281.615	44.54
281.83	-41.47
282.045	-10.75
282.26	17.92
282.476	42.5
282.691	101.89
282.906	-4.61
283.122	36.35
283.337	-23.04
283.552	11.78
283.767	-0.51
283.983	44.54
284.198	67.07
284.413	11.78
284.628	19.97
284.843	91.65
285.058	52.74
285.274	42.5
285.489	42.5
285.704	58.88
285.919	56.83
286.134	-29.18
286.349	-2.56
286.564	9.73
286.779	15.87
286.995	69.12
287.21	-35.33
287.425	71.17
287.64	69.12
287.855	71.17
288.07	5.63
288.285	5.63
288.5	26.11
288.715	26.11
288.93	1.54
289.145	5.63
289.36	83.45
289.575	9.73
289.79	50.69
290.004	19.97
290.219	44.54
290.434	26.11
290.649	-51.71
290.864	44.54
291.079	28.16
291.294	-18.94
291.509	87.55
291.724	15.87
291.938	44.54
292.153	77.31
292.368	-47.62
292.583	58.88
292.798	48.64
293.012	-6.66
293.227	67.07
293.442	9.73
293.657	13.82
293.871	11.78
294.086	85.5
294.301	-10.75
294.516	-16.9
294.73	42.5
294.945	26.11
295.16	-10.75
295.374	-18.94
295.589	44.54
295.804	11.78
296.018	38.4
296.233	71.17
296.447	69.12
296.662	30.21
296.877	101.89
297.091	11.78
297.306	91.65
297.52	17.92
297.735	5.63
297.949	7.68
298.164	30.21
298.378	-4.61
298.593	-37.38
298.807	-31.23
299.022	3.58
299.236	60.93
299.451	15.87
299.665	-57.86
299.88	-14.85
300.094	-2.56
300.309	67.07
300.523	32.26
300.737	-20.99
300.952	3.58
301.166	87.55
301.381	-2.56
301.595	-39.42
301.809	28.16
302.024	58.88
302.238	19.97
302.452	54.78
302.667	-53.76
302.881	44.54
303.095	99.84
303.309	46.59
303.524	26.11
303.738	34.3
303.952	38.4
304.166	81.41
304.381	36.35
304.595	69.12
304.809	26.11
305.023	105.98
305.237	-4.61
305.452	-0.51
305.666	101.89
305.88	28.16
306.094	-96.77
306.308	83.45
306.522	58.88
306.736	-29.18
306.95	58.88
307.164	19.97
307.379	7.68
307.593	108.03
307.807	50.69
308.021	54.78
308.235	-12.8
308.449	-14.85
308.663	95.74
308.877	101.89
309.091	58.88
309.305	99.84
309.519	44.54
309.733	48.64
309.947	-12.8
310.161	38.4
310.374	5.63
310.588	67.07
310.802	46.59
311.016	42.5
311.23	19.97
311.444	-20.99
311.658	-20.99
311.872	46.59
312.085	65.02
312.299	34.3
312.513	50.69
312.727	30.21
312.941	1.54
313.154	44.54
313.368	62.98
313.582	38.4
313.796	46.59
314.009	24.06
314.223	32.26
314.437	87.55
314.651	48.64
314.864	-6.66
315.078	24.06
315.292	38.4
315.505	15.87
315.719	75.26
315.933	50.69
316.146	-10.75
316.36	19.97
316.573	-20.99
316.787	-0.51
317.001	62.98
317.214	132.61
317.428	40.45
317.641	52.74
317.855	36.35
318.068	69.12
318.282	-76.29
318.495	15.87
318.709	153.09
318.922	1.54
319.136	40.45
319.349	56.83
319.563	-14.85
319.776	97.79
319.99	-43.52
320.203	40.45
320.417	40.45
320.63	11.78
320.843	48.64
321.057	9.73
321.27	-16.9
321.483	9.73
321.697	9.73
321.91	17.92
322.124	79.36
322.337	-51.71
322.55	28.16
322.763	54.78
322.977	42.5
323.19	46.59
323.403	9.73
323.617	42.5
323.83	75.26
324.043	19.97
324.256	26.11
324.469	52.74
324.683	5.63
324.896	-57.86
325.109	1.54
325.322	-39.42
325.535	9.73
325.748	67.07
325.962	-55.81
326.175	5.63
326.388	101.89
326.601	-14.85
326.814	56.83
327.027	5.63
327.24	46.59
327.453	34.3
327.666	19.97
327.879	42.5
328.092	34.3
328.305	52.74
328.518	36.35
328.731	13.82
328.944	46.59
329.157	38.4
329.37	30.21
329.583	46.59
329.796	87.55
330.009	30.21
330.222	19.97
330.435	17.92
330.648	69.12
330.861	-14.85
331.073	99.84
331.286	-45.57
331.499	1.54
331.712	40.45
331.925	3.58
332.138	105.98
332.35	108.03
332.563	9.73
332.776	71.17
332.989	85.5
333.202	44.54
333.414	48.64
333.627	83.45
333.84	9.73
334.053	19.97
334.265	62.98
334.478	-12.8
334.691	46.59
334.903	26.11
335.116	46.59
335.329	13.82
335.541	-2.56
335.754	95.74
335.966	9.73
336.179	46.59
336.392	34.3
336.604	60.93
336.817	58.88
337.029	67.07
337.242	40.45
337.454	116.22
337.667	65.02
337.88	79.36
338.092	77.31
338.305	34.3
338.517	36.35
338.729	28.16
338.942	28.16
339.154	24.06
339.367	3.58
339.579	54.78
339.792	46.59
340.004	26.11
340.217	36.35
340.429	108.03
340.641	-2.56
340.854	11.78
341.066	93.69
341.278	69.12
341.491	67.07
341.703	69.12
341.915	38.4
342.128	9.73
342.34	19.97
342.552	-6.66
342.764	15.87
342.977	67.07
343.189	17.92
343.401	69.12
343.613	50.69
343.826	26.11
344.038	13.82
344.25	34.3
344.462	30.21
344.674	-35.33
344.886	101.89
345.099	85.5
345.311	40.45
345.523	-2.56
345.735	19.97
345.947	79.36
346.159	7.68
346.371	69.12
346.583	42.5
346.795	46.59
347.007	3.58
347.219	26.11
347.431	77.31
347.643	-23.04
347.855	-18.94
348.067	32.26
348.279	-47.62
348.491	67.07
348.703	81.41
348.915	-37.38
349.127	-31.23
349.339	24.06
349.551	11.78
349.763	75.26
349.975	-8.7
350.187	48.64
350.399	67.07
350.61	-0.51
350.822	19.97
351.034	-14.85
351.246	-31.23
351.458	69.12
351.669	54.78
351.881	1.54
352.093	30.21
352.305	42.5
352.517	28.16
352.728	50.69
352.94	17.92
353.152	-10.75
353.363	5.63
353.575	67.07
353.787	151.04
353.999	36.35
354.21	91.65
354.422	17.92
354.633	-4.61
354.845	58.88
355.057	62.98
355.268	48.64
355.48	36.35
355.692	11.78
355.903	34.3
356.115	77.31
356.326	-18.94
356.538	83.45
356.749	71.17
356.961	101.89
357.172	34.3
357.384	1.54
357.595	75.26
357.807	105.98
358.018	36.35
358.23	30.21
358.441	136.7
358.653	3.58
358.864	67.07
359.075	42.5
359.287	-10.75
359.498	-2.56
359.709	38.4
359.921	19.97
360.132	11.78
360.344	19.97
360.555	81.41
360.766	110.08
360.977	79.36
361.189	73.21
361.4	99.84
361.611	93.69
361.823	11.78
362.034	22.02
362.245	-80.38
362.456	56.83
362.667	40.45
362.879	15.87
363.09	46.59
363.301	30.21
363.512	60.93
363.723	38.4
363.935	1.54
364.146	38.4
364.357	-23.04
364.568	-12.8
364.779	-12.8
364.99	-27.14
365.201	58.88
365.412	116.22
365.623	-4.61
365.834	40.45
366.045	60.93
366.256	97.79
366.467	17.92
366.678	-39.42
366.889	42.5
367.1	73.21
367.311	101.89
367.522	24.06
367.733	60.93
367.944	54.78
368.155	30.21
368.366	62.98
368.577	85.5
368.788	99.84
368.999	5.63
369.209	36.35
369.42	69.12
369.631	110.08
369.842	-8.7
370.053	71.17
370.264	58.88
370.474	50.69
370.685	54.78
370.896	54.78
371.107	60.93
371.317	85.5
371.528	13.82
371.739	30.21
371.95	42.5
372.16	122.37
372.371	42.5
372.582	-6.66
372.792	83.45
373.003	97.79
373.214	46.59
373.424	-39.42
373.635	9.73
373.846	24.06
374.056	1.54
374.267	-4.61
374.477	28.16
374.688	40.45
374.898	9.73
375.109	103.93
375.319	36.35
375.53	114.17
375.74	11.78
375.951	69.12
376.161	62.98
376.372	83.45
376.582	48.64
376.793	87.55
377.003	9.73
377.214	1.54
377.424	58.88
377.635	-31.23
377.845	7.68
378.055	42.5
378.266	36.35
378.476	44.54
378.686	-2.56
378.897	26.11
379.107	77.31
379.317	5.63
379.528	36.35
379.738	19.97
379.948	9.73
380.158	-6.66
380.369	71.17
380.579	87.55
380.789	62.98
380.999	46.59
381.21	65.02
381.42	134.65
381.63	85.5
381.84	67.07
382.05	3.58
382.261	26.11
382.471	85.5
382.681	105.98
382.891	9.73
383.101	50.69
383.311	-23.04
383.521	5.63
383.731	62.98
383.941	36.35
384.151	11.78
384.361	87.55
384.571	52.74
384.781	93.69
384.991	48.64
385.201	83.45
385.411	15.87
385.621	116.22
385.831	67.07
386.041	50.69
386.251	67.07
386.461	83.45
386.671	7.68
386.881	42.5
387.091	17.92
387.301	83.45
387.511	60.93
387.72	128.51
387.93	40.45
388.14	62.98
388.35	79.36
388.56	91.65
388.769	36.35
388.979	28.16
389.189	-12.8
389.399	83.45
389.609	26.11
389.818	89.6
390.028	24.06
390.238	52.74
390.447	56.83
390.657	103.93
390.867	48.64
391.076	-35.33
391.286	91.65
391.496	-6.66
391.705	30.21
391.915	85.5
392.125	75.26
392.334	17.92
392.544	-2.56
392.753	34.3
392.963	87.55
393.172	11.78
393.382	52.74
393.591	99.84
393.801	52.74
394.01	56.83
394.22	58.88
394.429	112.13
394.639	62.98
394.848	56.83
395.058	91.65
395.267	36.35
395.477	165.37
395.686	52.74
395.895	105.98
396.105	157.18
396.314	71.17
396.524	77.31
396.733	5.63
396.942	52.74
397.152	54.78
397.361	134.65
397.57	58.88
397.78	97.79
397.989	40.45
398.198	175.61
398.407	34.3
398.617	101.89
398.826	17.92
399.035	163.33
399.244	42.5
399.453	108.03
399.663	87.55
399.872	101.89
400.081	87.55
400.29	124.41
400.499	48.64
400.708	114.17
400.917	15.87
401.127	91.65
401.336	69.12
401.545	142.85
401.754	67.07
401.963	73.21
402.172	91.65
402.381	75.26
402.59	132.61
402.799	116.22
403.008	75.26
403.217	58.88
403.426	132.61
403.635	120.32
403.844	56.83
404.053	124.41
404.262	56.83
404.471	118.27
404.68	175.61
404.888	97.79
405.097	83.45
405.306	120.32
405.515	126.46
405.724	114.17
405.933	79.36
406.142	130.56
406.35	192
406.559	163.33
406.768	157.18
406.977	198.14
407.185	126.46
407.394	171.52
407.603	239.1
407.812	216.57
408.02	224.76
408.229	222.72
408.438	181.76
408.646	208.38
408.855	140.8
409.064	284.16
409.272	167.42
409.481	275.96
409.69	249.34
409.898	230.91
410.107	255.48
410.315	292.35
410.524	142.85
410.733	255.48
410.941	353.79
411.15	380.41
411.358	298.49
411.567	409.08
411.775	284.16
411.984	321.02
412.192	429.56
412.401	364.03
412.609	447.99
412.818	443.9
413.026	400.89
413.234	378.36
413.443	460.28
413.651	454.14
413.86	542.2
414.068	540.15
414.276	484.86
414.485	507.38
414.693	624.12
414.901	615.93
415.11	550.39
415.318	585.21
415.526	544.25
415.734	697.85
415.943	724.47
416.151	697.85
416.359	660.98
416.567	638.45
416.776	697.85
416.984	855.54
417.192	812.53
417.4	861.68
417.608	830.96
417.817	910.83
418.025	976.37
418.233	923.12
418.441	1011.18
418.649	1043.95
418.857	1117.68
419.065	1232.37
419.273	1121.77
419.481	1172.97
419.689	1287.66
419.897	1185.26
420.105	1402.35
420.313	1355.24
420.521	1443.31
420.729	1420.78
420.937	1463.79
421.145	1535.46
421.353	1545.7
421.561	1623.53
421.769	1713.64
421.977	1736.17
422.185	1838.56
422.393	1891.81
422.601	1902.05
422.809	1930.72
423.017	1994.21
423.224	1961.44
423.432	2127.33
423.64	2215.39
423.848	2295.26
424.056	2313.69
424.263	2436.57
424.471	2465.24
424.679	2438.62
424.887	2711
425.094	2717.14
425.302	2717.14
425.51	2717.14
425.718	3073.49
425.925	2790.87
426.133	3122.64
426.341	3294.67
426.548	3362.25
426.756	3317.2
426.964	3368.4
427.171	3708.36
427.379	3741.13
427.586	3757.51
427.794	3855.81
428.001	4163.01
428.209	4179.39
428.417	4277.69
428.624	4535.74
428.832	4531.64
429.039	4400.57
429.247	4382.14
429.454	5041.59
429.662	5117.36
429.869	4779.45
430.076	5180.85
430.284	5000.63
430.491	5289.39
430.699	5504.43
430.906	5707.18
431.114	5631.4
431.321	5813.67
431.528	6071.72
431.736	6356.38
431.943	6725.02
432.15	6546.84
432.358	6632.86
432.565	6890.9
432.772	6931.86
432.979	7431.57
433.187	7433.61
433.394	7589.26
433.601	7894.41
433.808	7908.74
434.016	8019.33
434.223	8170.88
434.43	8351.1
434.637	8441.22
434.844	8912.25
435.052	9397.62
435.259	9215.35
435.466	9307.51
435.673	9211.25
435.88	9889.13
436.087	10308.96
436.294	10448.22
436.501	10104.17
436.708	10370.4
436.915	10769.76
437.122	11025.75
437.329	11173.21
437.537	11216.21
437.743	11912.52
437.95	11556.18
438.157	12158.28
438.364	12768.57
438.571	12490.05
438.778	12805.44
438.985	13815.09
439.192	13212.98
439.399	13747.5
439.606	13305.14
439.813	14220.58
440.02	14830.88
440.227	14648.61
440.433	14607.65
440.64	15156.5
440.847	14961.95
441.054	15400.21
441.261	16354.57
441.467	16225.54
441.674	16647.43
441.881	16964.86
442.088	16971.01
442.294	17024.25
442.501	17372.41
442.708	17749.23
442.914	18345.19
443.121	19033.31
443.328	18580.71
443.534	19821.78
443.741	19616.98
443.948	19070.17
444.154	20528.33
444.361	20602.05
444.568	20862.15
444.774	20516.04
444.981	20896.96
445.187	21636.28
445.394	22437.03
445.6	22258.86
445.807	24120.46
446.013	23461.02
446.22	23489.69
446.426	24554.63
446.633	24530.06
446.839	25767.03
447.046	24546.44
447.252	25572.47
447.459	26111.09
447.665	25756.79
447.871	27235.42
448.078	27833.43
448.284	27087.97
448.491	27683.93
448.697	28750.92
448.903	29477.95
449.11	29209.67
449.316	28933.19
449.522	29271.11
449.728	30571.57
449.935	30747.69
450.141	30563.37
450.347	31286.31
450.553	30008.37
450.76	30819.37
450.966	31896.6
451.172	31276.07
451.378	32166.93
451.584	31480.86
451.791	32369.68
451.997	32185.36
452.203	32928.78
452.409	32797.71
452.615	32838.67
452.821	31538.21
453.027	31400.99
453.233	32920.59
453.44	31876.12
453.646	31978.52
453.852	32076.82
454.058	32943.11
454.264	31400.99
454.47	32322.58
454.676	31388.71
454.882	32769.04
455.088	29996.09
455.294	30266.42
455.5	30401.58
455.705	31116.33
455.911	29838.39
456.117	29346.88
456.323	28990.53
456.529	27575.39
456.735	28761.16
456.941	28261.46
457.147	27534.43
457.352	26635.37
457.558	26723.43
457.764	26610.79
457.97	26102.9
458.176	25787.51
458.381	25373.82
458.587	24206.48
458.793	24308.88
458.999	23166.11
459.204	24722.57
459.41	23846.04
459.616	22410.41
459.821	22527.14
460.027	22099.12
460.233	22031.54
460.438	20819.14
460.644	20860.1
460.85	19969.23
461.055	19907.79
461.261	19776.72
461.466	18230.51
461.672	17753.33
461.878	19055.84
462.083	17724.66
462.289	17700.08
462.494	17054.97
462.7	16411.91
462.905	15973.64
463.111	16583.94
463.316	16649.47
463.522	16338.18
463.727	16352.52
463.932	16188.68
464.138	15947.02
464.343	16008.46
464.549	15727.89
464.754	16196.87
464.959	16100.62
465.165	15832.33
465.37	15260.95
465.575	14925.08
465.781	15260.95
465.986	15392.02
466.191	14910.75
466.397	14691.62
466.602	13722.93
466.807	14642.46
467.012	14548.26
467.218	14527.78
467.423	14290.21
467.628	14286.12
467.833	14818.59
468.038	14189.86
468.244	13942.06
468.449	14415.14
468.654	14077.23
468.859	14105.9
469.064	14003.5
469.269	13364.53
469.474	13448.5
469.679	13694.26
469.885	13129.02
470.09	13403.44
470.295	13487.41
470.5	13104.44
470.705	13196.6
470.91	12883.26
471.115	12746.05
471.32	12954.94
471.525	12760.38
471.73	12725.57
471.935	12404.03
472.139	12143.94
472.344	12438.85
472.549	12401.99
472.754	11986.25
472.959	11830.6
473.164	11547.98
473.369	11384.15
473.574	11822.41
473.778	11818.32
473.983	11568.46
474.188	11494.74
474.393	11310.42
474.598	11140.44
474.802	11101.53
475.007	10843.48
475.212	11027.8
475.417	10593.63
475.621	10569.05
475.826	10591.58
476.031	10284.39
476.235	10069.35
476.44	10538.34
476.645	9989.48
476.849	10218.85
477.054	10112.36
477.259	9815.4
477.463	9856.36
477.668	9473.39
477.872	9839.98
478.077	9481.58
478.282	9387.38
478.486	9407.86
478.691	9155.96
478.895	9299.31
479.1	9123.19
479.304	9186.68
479.509	8756.6
479.713	9192.82
479.918	8783.23
480.122	8639.87
480.326	8912.25
480.531	8830.33
480.735	8689.02
480.94	8654.2
481.144	8848.76
481.348	8430.98
481.553	8619.39
481.757	8412.54
481.961	8639.87
482.166	8641.92
482.37	8660.35
482.574	8695.16
482.778	8353.15
482.983	8504.7
483.187	8383.87
483.391	8424.83
483.595	8531.33
483.8	8332.67
484.004	8582.53
484.208	8629.63
484.412	8416.64
484.616	8627.58
484.821	8555.9
485.025	8381.82
485.229	8582.53
485.433	8482.17
485.637	8488.32
485.841	8340.86
486.045	8439.17
486.249	8406.4
486.453	8392.06
486.657	8500.61
486.861	8574.33
487.065	8217.99
487.269	8437.12
487.473	8326.53
487.677	8271.23
487.881	8521.09
488.085	8381.82
488.289	8578.43
488.493	8381.82
488.697	8549.76
488.901	8408.45
489.105	8441.22
489.309	8449.41
489.512	8537.47
489.716	8594.81
489.92	8512.89
490.124	8480.13
490.328	8729.98
490.531	8715.64
490.735	8605.05
490.939	8676.73
491.143	8631.68
491.346	8633.72
491.55	8969.59
491.754	8680.83
491.958	9080.18
492.161	8848.76
492.365	8785.27
492.569	8969.59
492.772	8815.99
492.976	8918.39
493.18	9037.17
493.383	9082.23
493.587	9086.33
493.79	9403.76
493.994	9201.01
494.197	9086.33
494.401	9342.32
494.605	9268.59
494.808	9594.22
495.012	9524.59
495.215	9381.23
495.419	9667.95
495.622	9629.04
495.825	9821.55
496.029	9606.51
496.232	9745.77
496.436	9989.48
496.639	10247.52
496.843	10284.39
497.046	10280.29
497.249	10405.22
497.453	10423.65
497.656	10610.01
497.859	10726.75
498.063	10745.18
498.266	10759.52
498.469	10827.1
498.673	11005.27
498.876	11038.04
499.079	11277.65
499.282	11302.23
499.485	11564.37
499.689	11480.4
499.892	11822.41
500.095	11898.19
500.298	12059.98
500.501	11846.99
500.705	12055.88
500.908	12260.68
501.111	12379.46
501.314	12842.3
501.517	12707.13
501.72	12911.93
501.923	12660.03
502.126	13141.3
502.329	13471.03
502.532	13548.85
502.735	13497.65
502.938	13616.43
503.141	13944.11
503.344	14206.25
503.547	14101.8
503.75	14320.93
503.953	14488.87
504.156	14791.97
504.359	14953.76
504.562	14855.45
504.765	15056.15
504.968	15396.12
505.17	15410.45
505.373	15342.87
505.576	15756.56
505.779	15758.61
505.982	15709.46
506.185	16401.67
506.387	16469.25
506.59	16311.56
506.793	16985.34
506.996	16809.22
507.198	17183.99
507.401	17286.39
507.604	17462.52
507.807	17851.63
508.009	17833.2
508.212	17839.34
508.415	18246.89
508.617	18498.79
508.82	18521.32
509.022	18375.91
509.225	18984.16
509.428	18959.58
509.63	19342.55
509.833	19080.41
510.035	19891.41
510.238	19678.42
510.44	19825.87
510.643	20149.45
510.845	20274.38
511.048	20395.21
511.25	20632.77
511.453	20939.97
511.655	21531.83
511.858	21281.98
512.06	21693.62
512.262	21673.14
512.465	21683.38
512.667	22308.01
512.87	22461.61
513.072	22269.1
513.274	22764.71
513.477	23157.92
513.679	23288.99
513.881	23635.1
514.084	23749.78
514.286	23868.56
514.488	23862.42
514.69	24677.51
514.893	24593.54
515.095	24702.09
515.297	24949.89
515.499	25076.87
515.701	25349.25
515.904	25775.22
516.106	25633.91
516.308	25949.3
516.51	26125.43
516.712	26676.33
516.914	26750.06
517.116	27145.31
517.318	27303.01
517.52	27589.72
517.722	27307.1
517.925	27993.17
518.127	28324.94
518.329	28406.86
518.531	27976.79
518.733	28871.75
518.935	28961.86
519.136	29011.01
519.338	29330.5
519.54	29662.27
519.742	30043.19
519.944	29860.92
520.146	30557.23
520.348	30770.22
520.55	30936.1
520.752	30800.94
520.954	31355.94
521.155	31220.77
521.357	31700
521.559	32060.44
521.761	32685.07
521.963	32572.43
522.164	32607.25
522.366	32392.21
522.568	33340.42
522.77	33399.81
522.971	34016.25
523.173	33778.68
523.375	33709.05
523.576	33764.35
523.778	33997.82
523.98	34513.91
524.181	34663.41
524.383	35054.57
524.584	35259.37
524.786	35161.06
524.988	34698.22
525.189	35759.07
525.391	35974.11
525.592	36070.36
525.794	36076.51
525.995	35990.49
526.197	36197.34
526.398	36379.6
526.6	36641.74
526.801	36834.25
527.003	36918.22
527.204	37028.81
527.406	37262.28
527.607	37270.47
527.808	37770.18
528.01	37088.2
528.211	37184.46
528.412	37882.81
528.614	37950.4
528.815	38192.06
529.016	38443.96
529.218	38087.61
529.419	38271.93
529.62	38529.97
529.822	38298.55
530.023	38562.74
530.224	38316.98
530.425	38691.76
530.626	38294.46
530.828	38216.63
531.029	39424.93
531.23	38816.69
531.431	38808.5
531.632	38896.56
531.833	38849.46
532.035	39111.6
532.236	39068.59
532.437	39500.71
532.638	39209.9
532.839	39289.77
533.04	39295.91
533.241	38998.96
533.442	39777.19
533.643	39441.32
533.844	39173.03
534.045	39531.43
534.246	39138.22
534.447	39805.86
534.648	39519.14
534.849	39711.65
535.05	39322.54
535.251	39484.33
535.451	39621.54
535.652	39867.3
535.853	39254.95
536.054	39719.84
536.255	39695.27
536.456	39351.21
536.657	39793.57
536.857	39467.94
537.058	39531.43
537.259	39926.69
537.46	39304.1
537.66	39912.35
537.861	39568.29
538.062	39111.6
538.263	39572.39
538.463	39572.39
538.664	39275.43
538.865	39650.21
539.065	39850.91
539.266	39250.86
539.466	39959.45
539.667	39459.75
539.868	39820.19
540.068	39627.68
540.269	39711.65
540.469	39977.89
540.67	39365.54
540.87	39183.27
541.071	39285.67
541.271	39388.07
541.472	39404.45
541.672	39099.31
541.873	39478.18
542.073	38759.34
542.274	39693.22
542.474	39334.82
542.675	38919.09
542.875	39619.49
543.075	39910.3
543.276	39074.73
543.476	39414.69
543.676	39209.9
543.877	39277.48
544.077	39173.03
544.277	39359.4
544.478	39414.69
544.678	39369.64
544.878	39426.98
545.078	39531.43
545.279	39295.91
545.479	39107.5
545.679	39218.09
545.879	39650.21
546.079	39467.94
546.28	39050.16
546.48	38812.59
546.68	39363.5
546.88	39193.51
547.08	39220.14
547.28	38982.57
547.48	38976.43
547.68	39240.62
547.88	38878.13
548.081	39113.64
548.281	38753.2
548.481	39162.79
548.681	39476.13
548.881	39304.1
549.081	39283.62
549.28	38966.19
549.48	39150.51
549.68	39187.37
549.88	39861.15
550.08	38550.45
550.28	39197.61
550.48	38810.54
550.68	39183.27
550.88	38798.26
551.08	39037.87
551.279	39388.07
551.479	39228.33
551.679	38575.03
551.879	39039.92
552.079	38908.85
552.278	39125.93
552.478	39402.41
552.678	39097.26
552.878	38966.19
553.077	39072.68
553.277	38607.79
553.477	39185.32
553.676	38863.79
553.876	38853.55
554.076	38450.1
554.275	38632.37
554.475	38388.66
554.674	38534.07
554.874	38609.84
555.074	38474.68
555.273	38568.88
555.473	38996.91
555.672	38388.66
555.872	38572.98
556.071	38306.74
556.271	38745.01
556.47	38126.52
556.67	38020.03
556.869	38282.17
557.068	38663.09
557.268	38187.96
557.467	38353.85
557.667	38093.75
557.866	37987.26
558.065	37962.68
558.265	38343.61
558.464	37606.34
558.663	38337.46
558.863	37567.43
559.062	37915.58
559.261	37508.04
559.461	37954.49
559.66	37753.79
559.859	37655.49
560.058	37331.91
560.258	37501.89
560.457	37460.93
560.656	37471.17
560.855	37309.38
561.054	37456.84
561.253	37028.81
561.453	37401.54
561.652	37215.18
561.851	37534.66
562.05	37403.59
562.249	36611.03
562.448	37114.83
562.647	37247.94
562.846	36967.37
563.045	36537.3
563.244	36498.39
563.443	37143.5
563.642	36314.07
563.841	36473.81
564.04	36043.74
564.239	36471.76
564.438	36109.27
564.637	36406.23
564.836	36731.86
565.035	35877.85
565.234	35918.81
565.432	35845.09
565.631	36017.11
565.83	35873.76
566.029	36160.47
566.228	35615.71
566.427	35689.44
566.625	35484.64
566.824	35197.93
567.023	35787.74
567.222	35054.57
567.42	35435.49
567.619	35124.2
567.818	35083.24
568.016	34927.6
568.215	35234.79
568.414	34962.41
568.612	35087.34
568.811	34470.9
569.01	34759.66
569.208	34167.8
569.407	34620.4
569.605	34032.63
569.804	34745.33
570.002	34149.37
570.201	34485.23
570.4	34020.34
570.598	34206.71
570.797	33811.45
570.995	34020.34
571.193	33438.72
571.392	33932.28
571.59	33514.5
571.789	33664
571.987	33231.88
572.186	33033.22
572.384	33219.59
572.582	33565.7
572.781	33590.27
572.979	33143.81
573.177	33303.56
573.376	33027.08
573.574	32627.73
573.772	32963.59
573.971	32517.14
574.169	32445.46
574.367	32480.27
574.565	33219.59
574.763	32472.08
574.962	32365.59
575.16	31874.07
575.358	32203.8
575.556	31786.01
575.754	32328.72
575.952	31820.83
576.151	31968.28
576.349	31802.39
576.547	31869.98
576.745	31460.38
576.943	31761.44
577.141	31468.58
577.339	31544.35
577.537	31394.85
577.735	31378.47
577.933	30901.29
578.131	31245.35
578.329	30903.34
578.527	30944.3
578.725	31204.39
578.923	31274.02
579.121	30630.96
579.319	30778.41
579.516	30766.12
579.714	30354.48
579.912	30485.55
580.11	30141.49
580.308	30403.63
580.506	30331.95
580.704	29862.97
580.901	30110.77
581.099	29850.68
581.297	29604.92
581.495	29676.6
581.692	30000.18
581.89	29594.68
582.088	29977.65
582.285	29543.49
582.483	29803.58
582.681	29348.93
582.878	29328.45
583.076	29027.4
583.274	29279.3
583.471	28951.62
583.669	29492.29
583.866	28855.37
584.064	28914.76
584.262	28558.41
584.459	28875.85
584.657	28439.63
584.854	28826.7
585.052	28273.74
585.249	28695.63
585.447	28560.46
585.644	28032.08
585.841	28320.85
586.039	28339.28
586.236	27862.1
586.434	28159.06
586.631	27821.14
586.828	27835.48
587.026	28101.72
587.223	27374.69
587.42	27440.22
587.618	27597.91
587.815	27204.7
588.012	27421.79
588.21	27028.58
588.407	27419.74
588.604	27090.02
588.801	26688.62
588.999	27038.82
589.196	27266.14
589.393	26801.26
589.59	26926.18
589.787	26510.44
589.984	26492.01
590.182	26199.15
590.379	26543.21
590.576	26160.24
590.773	26410.09
590.97	26100.85
591.167	26287.21
591.364	26041.46
591.561	25980.02
591.758	25652.34
591.955	26121.33
592.152	25984.12
592.349	25568.38
592.546	26035.31
592.743	25994.36
592.94	25388.16
593.137	25660.54
593.334	25533.56
593.531	24857.73
593.727	25314.43
593.924	24974.47
594.121	24999.04
594.318	25154.69
594.515	24478.86
594.712	25033.86
594.908	24968.32
595.105	24550.54
595.302	24657.03
595.499	24777.86
595.696	24450.19
595.892	24429.71
596.089	24659.08
596.286	24345.74
596.482	24261.77
596.679	24392.84
596.876	24315.02
597.072	24292.49
597.269	23848.08
597.466	23778.45
597.662	23919.76
597.859	23792.79
598.055	24011.92
598.252	23581.85
598.448	23510.17
598.645	23174.3
598.841	23479.45
599.038	23295.13
599.234	23559.32
599.431	23303.32
599.627	22785.19
599.824	23428.25
600.02	22992.03
600.217	22568.1
600.413	23100.58
600.609	22815.91
600.806	22863.01
601.002	22807.72
601.198	22351.02
601.395	22232.24
601.591	22260.91
601.787	22494.38
601.984	22217.9
602.18	22381.74
602.376	22006.96
602.572	22084.78
602.769	22346.92
602.965	21595.32
603.161	21910.71
603.357	21544.12
603.553	21802.16
603.75	21781.68
603.946	21585.08
604.142	21734.58
604.338	21552.31
604.534	21482.68
604.73	21306.55
604.926	21212.35
605.122	21169.34
605.318	21032.13
605.514	21165.25
605.71	21236.92
605.906	21324.99
606.102	20862.15
606.298	21159.1
606.494	20763.84
606.69	21146.81
606.886	20630.73
607.082	20632.77
607.278	20884.67
607.474	20370.63
607.67	20726.98
607.866	20436.17
608.062	20694.21
608.257	20559.05
608.453	20466.89
608.649	20382.92
608.845	20288.71
609.041	20260.04
609.236	20153.55
609.432	20139.21
609.628	20241.61
609.824	20063.44
610.019	19872.98
610.215	20067.53
610.411	19938.51
610.606	19561.69
610.802	19875.02
610.998	19723.48
611.193	19852.5
611.389	19754.19
611.584	19670.23
611.78	19854.55
611.976	19639.51
612.171	19512.53
612.367	19477.72
612.562	19825.87
612.758	19133.66
612.953	19094.75
613.149	19490.01
613.344	19008.73
613.539	19516.63
613.735	19346.65
613.93	19240.15
614.126	19055.84
614.321	19166.43
614.517	19174.62
614.712	18963.68
614.907	18894.05
615.103	19148
615.298	18902.24
615.493	18959.58
615.688	18621.67
615.884	19186.91
616.079	18750.69
616.274	18748.64
616.47	18853.09
616.665	18779.36
616.86	18531.56
617.055	18603.24
617.25	18468.07
617.445	18719.97
617.641	17943.79
617.836	18523.37
618.031	18042.09
618.226	18337
618.421	18308.33
618.616	18222.31
618.811	18181.35
619.006	18326.76
619.201	17736.95
619.396	17835.25
619.591	17765.62
619.786	17884.4
619.981	17614.07
620.176	17898.73
620.371	17427.7
620.566	17573.11
620.761	17566.96
620.956	17669.36
621.151	17057.02
621.346	17343.74
621.541	16968.96
621.735	17366.26
621.93	16577.8
622.125	17200.38
622.32	16749.82
622.515	16868.61
622.709	16848.13
622.904	16528.64
623.099	16481.54
623.294	16422.15
623.488	16344.33
623.683	16397.57
623.878	16184.59
624.072	16239.88
624.267	16057.61
624.462	16151.82
624.656	15764.75
624.851	15555.86
625.046	15519
625.24	15627.54
625.435	15654.16
625.629	15492.37
625.824	15295.77
626.018	15308.05
626.213	15172.89
626.407	15121.69
626.602	14984.48
626.796	14912.8
626.991	14976.28
627.185	14972.19
627.38	14871.84
627.574	14628.13
627.768	14372.13
627.963	14630.18
628.157	14443.81
628.352	14243.11
628.546	13999.4
628.74	14224.68
628.935	14009.64
629.129	14329.13
629.323	14085.42
629.517	13686.06
629.712	13841.71
629.906	13671.73
630.1	13589.81
630.294	13569.33
630.489	13667.63
630.683	13585.71
630.877	13274.42
631.071	13223.22
631.265	13284.66
631.459	13208.89
631.653	13006.14
631.848	13157.69
632.042	12961.08
632.236	12938.55
632.43	12821.82
632.624	12842.3
632.818	12799.29
633.012	12700.99
633.206	12774.72
633.4	12457.28
633.594	12389.7
633.788	12635.46
633.982	12488
634.176	12356.93
634.369	12256.58
634.563	12094.79
634.757	12043.59
634.951	11943.24
635.145	11978.06
635.339	12064.07
635.533	11806.03
635.726	11820.36
635.92	11650.38
636.114	11703.63
636.308	11433.3
636.501	11656.53
636.695	11638.09
636.889	11347.28
637.083	11027.8
637.276	11259.22
637.47	11488.59
637.664	11154.77
637.857	11228.5
638.051	11236.69
638.244	11199.83
638.438	11187.54
638.632	11144.53
638.825	10884.44
639.019	10972.5
639.212	10562.91
639.406	10698.08
639.599	10782.04
639.793	10710.36
639.986	10255.72
640.18	10478.94
640.373	10491.23
640.567	10155.37
640.76	10382.69
640.954	10235.24
641.147	10151.27
641.34	10118.5
641.534	10124.65
641.727	9921.9
641.92	9987.43
642.114	9905.51
642.307	9805.16
642.5	9850.22
642.694	9739.63
642.887	9887.08
643.08	9670
643.273	9624.94
643.467	9629.04
643.66	9497.97
643.853	9461.1
644.046	9508.21
644.239	9203.06
644.432	9172.34
644.626	9244.02
644.819	9274.74
645.012	9190.77
645.205	9209.2
645.398	9133.43
645.591	9012.6
645.784	8914.3
645.977	8996.21
646.17	8965.5
646.363	8947.06
646.556	8897.91
646.749	8795.51
646.942	8856.95
647.135	8758.65
647.328	8576.38
647.521	8551.81
647.714	8553.85
647.907	8400.26
648.099	8373.63
648.292	8430.98
648.485	8402.3
648.678	8265.09
648.871	8250.75
649.064	8244.61
649.256	8359.3
649.449	8043.91
649.642	8078.72
649.835	8217.99
650.027	7955.85
650.22	7914.89
650.413	7818.63
650.605	7935.37
650.798	7880.07
650.991	7802.25
651.183	7751.05
651.376	7646.6
651.568	7591.31
651.761	7566.73
651.954	7622.03
652.146	7736.71
652.339	7585.16
652.531	7476.62
652.724	7462.29
652.916	7271.83
653.109	7302.54
653.301	7558.54
653.494	7499.15
653.686	7232.91
653.879	7560.59
654.071	7212.43
654.263	7028.12
654.456	7150.99
654.648	7323.02
654.84	7138.71
655.033	6737.31
655.225	6733.21
655.417	6909.33
655.61	6817.18
655.802	6978.97
655.994	6997.4
656.186	6786.46
656.379	6559.13
656.571	6737.31
656.763	6751.64
656.955	6407.58
657.148	6739.35
657.34	6585.76
657.532	6628.76
657.724	6473.12
657.916	6522.27
658.108	6342.05
658.3	6346.14
658.492	6331.81
658.684	6145.44
658.876	6403.49
659.068	6100.39
659.26	6188.45
659.452	6294.94
659.644	6174.11
659.836	6051.24
660.028	6210.98
660.22	6098.34
660.412	5963.17
660.604	5918.12
660.796	6006.18
660.988	5959.08
661.18	5787.05
661.372	5981.6
661.563	5868.97
661.755	5797.29
661.947	5842.34
662.139	5838.25
662.331	5623.21
662.522	5688.75
662.714	5731.75
662.906	5547.44
663.097	5604.78
663.289	5494.19
663.481	5524.91
663.673	5633.45
663.864	5373.36
664.056	5342.64
664.247	5526.96
664.439	5350.83
664.631	5262.77
664.822	5332.4
665.014	5213.62
665.205	5393.84
665.397	5313.97
665.588	5262.77
665.78	5031.35
665.971	5148.08
666.163	5254.58
666.354	5060.02
666.546	5139.89
666.737	5039.54
666.929	5080.5
667.12	4869.56
667.311	4941.24
667.503	4832.69
667.694	4951.48
667.885	4965.81
668.077	4951.48
668.268	4859.32
668.459	4810.17
668.651	4797.88
668.842	4941.24
669.033	4724.15
669.224	4699.58
669.416	4801.97
669.607	4607.42
669.798	4730.3
669.989	4623.8
670.18	4675
670.371	4650.43
670.563	4462.01
670.754	4588.99
670.945	4662.71
671.136	4464.06
671.327	4539.83
671.518	4494.78
671.709	4466.11
671.9	4580.79
672.091	4392.38
672.282	4414.91
672.473	4148.67
672.664	4349.37
672.855	4326.85
673.046	4312.51
673.237	4312.51
673.428	4322.75
673.619	4175.3
673.809	4216.26
674	4451.77
674.191	4177.34
674.382	4070.85
674.573	4347.33
674.764	4214.21
674.954	4031.94
675.145	4113.86
675.336	4036.03
675.527	4093.38
675.717	4058.56
675.908	3970.5
676.099	3970.5
676.289	4132.29
676.48	3896.77
676.671	3886.53
676.861	3947.97
677.052	4025.79
677.243	3870.15
677.433	3876.29
677.624	3947.97
677.814	3864.01
678.005	3741.13
678.195	3829.19
678.386	3710.41
678.576	3663.3
678.767	3796.42
678.957	3704.26
679.148	3923.4
679.338	3849.67
679.529	3761.61
679.719	3632.58
679.909	3675.59
680.1	3659.21
680.29	3620.3
680.481	3593.67
680.671	3663.3
680.861	3655.11
681.052	3644.87
681.242	3528.14
681.432	3552.71
681.622	3476.94
681.813	3421.64
682.003	3575.24
682.193	3460.56
682.383	3493.32
682.573	3560.91
682.764	3440.08
682.954	3554.76
683.144	3458.51
683.334	3411.4
683.524	3433.93
683.714	3476.94
683.904	3347.92
684.094	3352.01
684.284	3311.05
684.474	3417.55
684.664	3319.25
684.854	3395.02
685.044	3317.2
685.234	3149.26
685.424	3294.67
685.614	3253.71
685.804	3317.2
685.994	3333.58
686.184	3280.33
686.374	3204.56
686.564	3126.74
686.753	3165.65
686.943	3184.08
687.133	3145.17
687.323	3208.66
687.513	3126.74
687.702	3098.06
687.892	3128.78
688.082	3179.98
688.272	3161.55
688.461	3069.39
688.651	3106.26
688.841	2983.38
689.03	2971.09
689.22	3081.68
689.41	3126.74
689.599	3085.78
689.789	2962.9
689.979	2883.03
690.168	2840.02
690.358	2878.93
690.547	2743.77
690.737	3012.05
690.926	2981.33
691.116	2842.07
691.305	2936.28
691.495	2985.43
691.684	2725.33
691.874	2852.31
692.063	2907.6
692.252	2895.32
692.442	2768.34
692.631	2958.8
692.82	2760.15
693.01	2760.15
693.199	2799.06
693.388	2737.62
693.578	2780.63
693.767	2819.54
693.956	2717.14
694.146	2754.01
694.335	2745.81
694.524	2633.18
694.713	2737.62
694.902	2684.38
695.092	2602.46
695.281	2618.84
695.47	2657.75
695.659	2622.94
695.848	2526.68
696.037	2655.7
696.226	2649.56
696.415	2565.59
696.604	2612.7
696.793	2590.17
696.982	2573.78
697.171	2624.98
697.36	2491.87
697.549	2559.45
697.738	2612.7
697.927	2444.76
698.116	2586.07
698.305	2510.3
698.494	2463.19
698.683	2635.22
698.872	2618.84
699.061	2567.64
699.25	2618.84
699.438	2624.98
699.627	2508.25
699.816	2545.11
700.005	2483.67
700.193	2416.09
700.382	2604.5
700.571	2592.22
700.76	2641.37
700.948	2403.8
701.137	2557.4
701.326	2502.11
701.514	2457.05
701.703	2407.9
701.892	2450.91
702.08	2493.91
702.269	2627.03
702.457	2622.94
702.646	2393.56
702.834	2416.09
703.023	2565.59
703.212	2467.29
703.4	2504.15
703.589	2489.82
703.777	2567.64
703.965	2409.95
704.154	2491.87
704.342	2481.63
704.531	2467.29
704.719	2416.09
704.907	2426.33
705.096	2434.52
705.284	2397.66
705.472	2405.85
705.661	2465.24
705.849	2491.87
706.037	2543.07
706.226	2498.01
706.414	2412
706.602	2393.56
706.79	2524.63
706.979	2508.25
707.167	2477.53
707.355	2405.85
707.543	2409.95
707.731	2508.25
707.919	2373.08
708.107	2397.66
708.296	2407.9
708.484	2389.47
708.672	2319.84
708.86	2373.08
709.048	2436.57
709.236	2485.72
709.424	2391.52
709.612	2420.19
709.8	2340.32
709.988	2403.8
710.176	2461.15
710.364	2393.56
710.551	2424.28
710.739	2385.37
710.927	2420.19
711.115	2336.22
711.303	2315.74
711.491	2295.26
711.679	2463.19
711.866	2412
712.054	2340.32
712.242	2409.95
712.43	2491.87
712.617	2428.38
712.805	2287.07
712.993	2285.02
713.181	2321.88
713.368	2387.42
713.556	2264.54
713.744	2457.05
713.931	2321.88
714.119	2346.46
714.306	2282.97
714.494	2336.22
714.682	2360.8
714.869	2368.99
715.057	2371.04
715.244	2262.49
715.432	2330.08
715.619	2330.08
715.807	2368.99
715.994	2426.33
716.182	2321.88
716.369	2381.28
716.556	2379.23
716.744	2328.03
716.931	2262.49
717.119	2287.07
717.306	2307.55
717.493	2237.92
717.681	2194.91
717.868	2301.4
718.055	2338.27
718.242	2309.6
718.43	2274.78
718.617	2303.45
718.804	2342.36
718.991	2303.45
719.179	2387.42
719.366	2342.36
719.553	2344.41
719.74	2323.93
719.927	2293.21
720.114	2309.6
720.301	2244.06
720.488	2123.23
720.676	2237.92
720.863	2309.6
721.05	2272.73
721.237	2221.53
721.424	2272.73
721.611	2362.84
721.798	2217.44
721.985	2239.97
722.172	2258.4
722.358	2192.86
722.545	2287.07
722.732	2147.81
722.919	2450.91
723.106	2250.21
723.293	2166.24
723.48	2139.62
723.667	2229.73
723.853	2252.25
724.04	2319.84
724.227	2106.85
724.414	2213.34
724.6	2194.91
724.787	2299.36
724.974	2237.92
725.161	2180.57
725.347	2196.96
725.534	2223.58
725.72	2319.84
725.907	2287.07
726.094	2336.22
726.28	2213.34
726.467	2258.4
726.653	2147.81
726.84	2215.39
727.027	2250.21
727.213	2182.62
727.4	2180.57
727.586	2227.68
727.773	2170.33
727.959	2207.2
728.145	2274.78
728.332	2254.3
728.518	2239.97
728.705	2106.85
728.891	2264.54
729.077	2291.17
729.264	2110.94
729.45	2194.91
729.636	2170.33
729.823	2229.73
730.009	2205.15
730.195	2100.7
730.382	2246.11
730.568	2176.48
730.754	2106.85
730.94	2172.38
731.126	2131.42
731.313	2117.09
731.499	2182.62
731.685	2252.25
731.871	2119.14
732.057	2117.09
732.243	2086.37
732.429	2139.62
732.615	2215.39
732.801	2162.14
732.987	2139.62
733.173	2112.99
733.359	2112.99
733.545	2115.04
733.731	2201.05
733.917	2119.14
734.103	2098.66
734.289	2108.9
734.475	2065.89
734.661	2057.7
734.847	2117.09
735.033	2123.23
735.219	2090.46
735.404	2090.46
735.59	2057.7
735.776	2045.41
735.962	2055.65
736.148	2098.66
736.333	2106.85
736.519	2041.31
736.705	2072.03
736.89	2035.17
737.076	2162.14
737.262	2055.65
737.447	2092.51
737.633	2010.59
737.819	2043.36
738.004	2014.69
738.19	2033.12
738.375	1961.44
738.561	2074.08
738.747	2115.04
738.932	1981.92
739.118	2037.22
739.303	1922.53
739.489	1938.91
739.674	1928.67
739.859	1943.01
740.045	1910.24
740.23	1865.19
740.416	1910.24
740.601	1877.48
740.786	2047.46
740.972	1900
741.157	1758.69
741.342	1904.1
741.528	2000.35
741.713	1887.72
741.898	1826.28
742.084	1877.48
742.269	1906.15
742.454	1936.87
742.639	1926.63
742.824	1865.19
743.01	1959.39
743.195	1928.67
743.38	1854.95
743.565	1850.85
743.75	1928.67
743.935	1793.51
744.12	1813.99
744.305	1760.74
744.49	1711.59
744.675	1789.41
744.86	1764.84
745.045	1775.08
745.23	1803.75
745.415	1746.41
745.6	1787.36
745.785	1670.63
745.97	1752.55
746.155	1801.7
746.34	1783.27
746.525	1672.68
746.71	1789.41
746.895	1586.66
747.079	1545.7
747.264	1668.58
747.449	1637.86
747.634	1607.14
747.819	1707.49
748.003	1598.95
748.188	1682.92
748.373	1666.53
748.557	1611.24
748.742	1590.76
748.927	1463.79
749.111	1508.84
749.296	1484.27
749.481	1650.15
749.665	1590.76
749.85	1527.27
750.034	1519.08
750.219	1426.92
750.404	1412.59
750.588	1527.27
750.773	1441.26
750.957	1500.65
751.141	1402.35
751.326	1478.12
751.51	1443.31
751.695	1455.59
751.879	1369.58
752.064	1428.97
752.248	1445.35
752.432	1396.2
752.617	1388.01
752.801	1361.39
752.985	1345
753.17	1394.15
753.354	1345
753.538	1332.72
753.722	1275.37
753.907	1357.29
754.091	1308.14
754.275	1355.24
754.459	1340.91
754.643	1234.41
754.828	1258.99
755.012	1367.53
755.196	1306.09
755.38	1197.55
755.564	1236.46
755.748	1156.59
755.932	1263.08
756.116	1265.13
756.3	1164.78
756.484	1209.84
756.668	1156.59
756.852	1220.08
757.036	1222.13
757.22	1156.59
757.404	1193.45
757.588	1179.12
757.772	1150.45
757.956	1213.93
758.14	1181.17
758.323	1179.12
758.507	1101.3
758.691	1123.82
758.875	1142.25
759.059	1136.11
759.242	1025.52
759.426	1111.54
759.61	1158.64
759.794	1093.1
759.977	1132.01
760.161	1095.15
760.345	1007.09
760.528	1125.87
760.712	996.85
760.895	1070.58
761.079	1062.38
761.263	998.9
761.446	1050.1
761.63	1035.76
761.813	1029.62
761.997	972.27
762.18	1029.62
762.364	929.27
762.547	972.27
762.731	996.85
762.914	1015.28
763.098	1058.29
763.281	1023.47
763.464	970.23
763.648	937.46
763.831	998.9
764.015	839.16
764.198	1013.23
764.381	902.64
764.564	912.88
764.748	925.17
764.931	1009.14
765.114	964.08
765.297	919.03
765.481	884.21
765.664	900.59
765.847	894.45
766.03	953.84
766.213	945.65
766.397	894.45
766.58	980.47
766.763	927.22
766.946	925.17
767.129	1013.23
767.312	880.11
767.495	964.08
767.678	806.39
767.861	947.7
768.044	835.06
768.227	845.3
768.41	843.25
768.593	880.11
768.776	914.93
768.959	779.76
769.142	878.07
769.324	880.11
769.507	863.73
769.69	851.44
769.873	830.96
770.056	896.5
770.239	882.16
770.421	812.53
770.604	955.89
770.787	900.59
770.97	839.16
771.152	790
771.335	771.57
771.518	787.96
771.7	816.63
771.883	769.52
772.066	740.85
772.248	855.54
772.431	747
772.613	775.67
772.796	847.35
772.978	798.2
773.161	712.18
773.343	695.8
773.526	759.28
773.708	769.52
773.891	689.65
774.073	763.38
774.256	749.04
774.438	691.7
774.621	677.37
774.803	757.24
774.985	744.95
775.168	652.79
775.35	620.02
775.532	691.7
775.715	652.79
775.897	722.42
776.079	773.62
776.261	677.37
776.444	605.69
776.626	783.86
776.808	640.5
776.99	669.17
777.173	665.08
777.355	675.32
777.537	570.87
777.719	632.31
777.901	665.08
778.083	656.89
778.265	613.88
778.447	730.61
778.629	574.97
778.811	632.31
778.993	634.36
779.175	648.69
779.357	634.36
779.539	609.78
779.721	577.02
779.903	622.07
780.085	603.64
780.267	574.97
780.449	521.72
780.631	534.01
780.812	560.63
780.994	617.97
781.176	519.67
781.358	511.48
781.54	546.3
781.721	552.44
781.903	554.49
782.085	488.95
782.267	652.79
782.448	568.82
782.63	513.53
782.812	493.05
782.993	527.86
783.175	538.1
783.357	540.15
783.538	626.17
783.72	552.44
783.901	501.24
784.083	488.95
784.264	536.06
784.446	536.06
784.627	394.75
784.809	460.28
784.99	409.08
785.172	525.82
785.353	476.66
785.535	462.33
785.716	497.14
785.897	472.57
786.079	439.8
786.26	511.48
786.441	472.57
786.623	501.24
786.804	450.04
786.985	355.83
787.167	470.52
787.348	433.66
787.529	435.71
787.71	425.47
787.891	493.05
788.073	308.73
788.254	452.09
788.435	398.84
788.616	425.47
788.797	359.93
788.978	325.12
789.159	398.84
789.34	364.03
789.522	298.49
789.703	359.93
789.884	331.26
790.065	366.07
790.246	445.95
790.427	304.64
790.607	415.23
790.788	390.65
790.969	329.21
791.15	343.55
791.331	392.7
791.512	296.44
791.693	339.45
791.874	366.07
792.054	394.75
792.235	409.08
792.416	394.75
792.597	396.79
792.778	255.48
792.958	306.68
793.139	308.73
793.32	314.88
793.5	347.64
793.681	382.46
793.862	312.83
794.042	329.21
794.223	341.5
794.404	282.11
794.584	251.39
794.765	288.25
794.945	370.17
795.126	339.45
795.306	382.46
795.487	304.64
795.667	255.48
795.848	329.21
796.028	280.06
796.209	259.58
796.389	298.49
796.57	355.83
796.75	282.11
796.93	304.64
797.111	228.86
797.291	222.72
797.471	318.97
797.652	255.48
797.832	273.92
798.012	255.48
798.192	214.52
798.373	265.72
798.553	241.15
798.733	263.68
798.913	243.2
799.093	275.96
799.274	232.96
799.454	251.39
799.634	288.25
799.814	263.68
799.994	173.57
800.174	237.05
800.354	232.96
800.534	212.48
800.714	341.5
800.894	208.38
801.074	259.58
801.254	235
801.434	288.25
801.614	261.63
801.794	108.03
801.974	771.57
802.154	284.16
802.334	278.01
802.514	235
802.693	212.48
802.873	200.19
803.053	247.29
803.233	255.48
803.413	157.18
803.592	194.05
803.772	251.39
803.952	189.95
804.131	220.67
804.311	247.29
804.491	198.14
804.67	232.96
804.85	171.52
805.03	265.72
805.209	146.94
805.389	235
805.568	196.09
805.748	183.81
805.928	179.71
806.107	183.81
806.287	224.76
806.466	255.48
806.646	198.14
806.825	198.14
807.004	165.37
807.184	179.71
807.363	151.04
807.543	198.14
807.722	140.8
807.901	198.14
808.081	226.81
808.26	157.18
808.439	181.76
808.619	189.95
808.798	155.13
808.977	192
809.156	226.81
809.336	165.37
809.515	220.67
809.694	222.72
809.873	169.47
810.052	157.18
810.231	140.8
810.411	249.34
810.59	181.76
810.769	155.13
810.948	144.89
811.127	175.61
811.306	208.38
811.485	153.09
811.664	230.91
811.843	165.37
812.022	216.57
812.201	116.22
812.38	181.76
812.559	116.22
812.737	198.14
812.916	165.37
813.095	87.55
813.274	105.98
813.453	126.46
813.632	163.33
813.811	142.85
813.989	161.28
814.168	58.88
814.347	146.94
814.526	163.33
814.704	208.38
814.883	173.57
815.062	108.03
815.24	216.57
815.419	142.85
815.598	144.89
815.776	87.55
815.955	97.79
816.133	116.22
816.312	177.66
816.49	122.37
816.669	138.75
816.847	13.82
817.026	151.04
817.204	189.95
817.383	140.8
817.561	99.84
817.74	89.6
817.918	124.41
818.097	183.81
818.275	163.33
818.453	87.55
818.632	120.32
818.81	89.6
818.988	89.6
819.167	134.65
819.345	122.37
819.523	108.03
819.701	85.5
819.879	192
820.058	60.93
820.236	124.41
820.414	91.65
820.592	124.41
820.77	87.55
820.948	128.51
821.127	167.42
821.305	208.38
821.483	122.37
821.661	85.5
821.839	99.84
822.017	122.37
822.195	73.21
822.373	99.84
822.551	93.69
822.729	173.57
822.907	69.12
823.085	99.84
823.262	75.26
823.44	85.5
823.618	60.93
823.796	91.65
823.974	159.23
824.152	79.36
824.329	46.59
824.507	85.5
824.685	1.54
824.863	99.84
825.04	112.13
825.218	91.65
825.396	77.31
825.574	134.65
825.751	122.37
825.929	62.98
826.107	71.17
826.284	77.31
826.462	112.13
826.639	73.21
826.817	42.5
826.994	140.8
827.172	48.64
827.349	108.03
827.527	110.08
827.704	56.83
827.882	58.88
828.059	134.65
828.237	73.21
828.414	132.61
828.591	42.5
828.769	103.93
828.946	67.07
829.124	136.7
829.301	73.21
829.478	132.61
829.655	60.93
829.833	73.21
830.01	44.54
830.187	85.5
830.364	65.02
830.542	67.07
830.719	89.6
830.896	118.27
831.073	67.07
831.25	114.17
831.427	181.76
831.604	40.45
831.782	81.41
831.959	91.65
832.136	77.31
832.313	46.59
832.49	93.69
832.667	42.5
832.844	17.92
833.021	69.12
833.198	54.78
833.374	101.89
833.551	46.59
833.728	85.5
833.905	5.63
834.082	62.98
834.259	28.16
834.436	46.59
834.612	73.21
834.789	60.93
834.966	89.6
835.143	151.04
835.319	56.83
835.496	28.16
835.673	87.55
835.85	99.84
836.026	71.17
836.203	60.93
836.38	105.98
836.556	71.17
836.733	1.54
836.909	194.05
837.086	71.17
837.262	-4.61
837.439	9.73
837.616	44.54
837.792	40.45
837.968	103.93
838.145	54.78
838.321	140.8
838.498	52.74
838.674	75.26
838.851	-33.28
839.027	50.69
839.203	79.36
839.38	108.03
839.556	13.82
839.732	108.03
839.909	-8.7
840.085	32.26
840.261	40.45
840.437	22.02
840.614	75.26
840.79	108.03
840.966	108.03
841.142	50.69
841.318	73.21
841.494	77.31
841.671	93.69
841.847	73.21
842.023	60.93
842.199	38.4
842.375	46.59
842.551	-4.61
842.727	28.16
842.903	120.32
843.079	81.41
843.255	44.54
843.431	26.11
843.607	46.59
843.783	62.98
843.959	95.74
844.134	42.5
844.31	36.35
844.486	22.02
844.662	75.26
844.838	17.92
845.013	50.69
845.189	71.17
845.365	134.65
845.541	69.12
845.716	-14.85
845.892	-4.61
846.068	17.92
846.244	-4.61
846.419	42.5
846.595	-29.18
846.77	44.54
846.946	62.98
847.122	32.26
847.297	91.65
847.473	122.37
847.648	87.55
847.824	50.69
847.999	5.63
848.175	-25.09
848.35	42.5
848.526	40.45
848.701	11.78
848.876	34.3
849.052	1.54
849.227	-12.8
849.403	46.59
849.578	22.02
849.753	73.21
849.929	17.92
850.104	22.02
850.279	26.11
850.454	24.06
850.63	38.4
850.805	17.92
850.98	67.07
851.155	-80.38
851.33	9.73
851.505	-20.99
851.681	13.82
851.856	-6.66
852.031	58.88
852.206	38.4
852.381	32.26
852.556	-0.51
852.731	52.74
852.906	65.02
853.081	-12.8
853.256	83.45
853.431	32.26
853.606	-8.7
853.781	71.17
853.956	-6.66
854.131	13.82
854.305	91.65
854.48	75.26
854.655	22.02
854.83	-35.33
855.005	-8.7
855.18	58.88
855.354	32.26
855.529	9.73
855.704	-29.18
855.879	58.88
856.053	13.82
856.228	46.59
856.403	60.93
856.577	67.07
856.752	54.78
856.926	17.92
857.101	22.02
857.276	67.07
857.45	-14.85
857.625	34.3
857.799	-33.28
857.974	-10.75
858.148	11.78
858.323	105.98
858.497	11.78
858.672	17.92
858.846	-16.9
859.02	56.83
859.195	-72.19
859.369	-61.95
859.543	26.11
859.718	-39.42
859.892	-27.14
860.066	75.26
860.241	28.16
860.415	77.31
860.589	7.68
860.763	11.78
860.938	36.35
861.112	75.26
861.286	38.4
861.46	42.5
861.634	-6.66
861.808	9.73
861.982	-76.29
862.157	-20.99
862.331	1.54
862.505	44.54
862.679	19.97
862.853	30.21
863.027	-33.28
863.201	34.3
863.375	-35.33
863.549	38.4
863.722	5.63
863.896	56.83
864.07	42.5
864.244	62.98
864.418	-31.23
864.592	28.16
864.766	-2.56
864.939	34.3
865.113	-4.61
865.287	15.87
865.461	-35.33
865.634	52.74
865.808	73.21
865.982	28.16
866.156	-12.8
866.329	34.3
866.503	3.58
866.676	108.03
866.85	34.3
867.024	11.78
867.197	40.45
867.371	79.36
867.544	1.54
867.718	-29.18
867.891	-18.94
868.065	-6.66
868.238	38.4
868.412	26.11
868.585	85.5
868.759	-25.09
868.932	5.63
869.105	36.35
869.279	-29.18
869.452	17.92
869.625	24.06
869.799	9.73
869.972	-41.47
870.145	-14.85
870.319	91.65
870.492	110.08
870.665	-0.51
870.838	5.63
871.011	-16.9
871.185	-18.94
871.358	-47.62
871.531	9.73
871.704	-18.94
871.877	-4.61
872.05	-12.8
872.223	-10.75
872.396	73.21
872.569	36.35
872.742	38.4
872.915	50.69
873.088	17.92
873.261	-23.04
873.434	34.3
873.607	85.5
873.78	79.36
873.953	1.54
874.126	50.69
874.299	-2.56
874.471	30.21
874.644	5.63
874.817	81.41
874.99	122.37
875.163	-0.51
875.335	-31.23
875.508	15.87
875.681	1.54
875.853	71.17
876.026	19.97
876.199	17.92
876.371	-88.57
876.544	-0.51
876.717	-4.61
876.889	1.54
877.062	44.54
877.234	-14.85
877.407	60.93
877.579	-4.61
877.752	-10.75
877.924	19.97
878.097	50.69
878.269	38.4
878.442	-16.9
878.614	5.63
878.786	67.07
878.959	15.87
879.131	-4.61
879.303	-66.05
879.476	1.54
879.648	26.11
879.82	-23.04
879.993	-33.28
880.165	26.11
880.337	38.4
880.509	54.78
880.681	17.92
880.854	67.07
881.026	67.07
881.198	22.02
881.37	32.26
881.542	13.82
881.714	-49.66
881.886	-0.51
882.058	19.97
882.23	22.02
882.402	13.82
882.574	-4.61
882.746	46.59
882.918	34.3
883.09	-51.71
883.262	-6.66
883.434	-18.94
883.606	-23.04
883.778	9.73
883.95	-39.42
884.122	13.82
884.293	9.73
884.465	22.02
884.637	-14.85
884.809	7.68
884.98	1.54
885.152	-6.66
885.324	46.59
885.496	-20.99
885.667	-29.18
885.839	-37.38
886.011	34.3
886.182	-29.18
886.354	42.5
886.525	-23.04
886.697	91.65
886.869	-0.51
887.04	44.54
887.212	60.93
887.383	30.21
887.555	-31.23
887.726	-6.66
887.897	-4.61
888.069	-27.14
888.24	-2.56
888.412	-27.14
888.583	-35.33
888.754	-12.8
888.926	36.35
889.097	1.54
889.268	-43.52
889.44	19.97
889.611	-53.76
889.782	13.82
889.953	32.26
890.125	17.92
890.296	-18.94
890.467	-12.8
890.638	-2.56
890.809	13.82
890.98	28.16
891.151	-45.57
891.323	30.21
891.494	-14.85
891.665	-6.66
891.836	-10.75
892.007	34.3
892.178	50.69
892.349	24.06
892.52	26.11
892.691	11.78
892.862	-37.38
893.032	28.16
893.203	-18.94
893.374	22.02
893.545	77.31
893.716	-25.09
893.887	7.68
894.057	-23.04
894.228	-61.95
894.399	-10.75
894.57	-8.7
894.74	13.82
894.911	-23.04
895.082	-23.04
895.253	13.82
895.423	-6.66
895.594	67.07
895.764	17.92
895.935	-55.81
896.106	9.73
896.276	11.78
896.447	17.92
896.617	-33.28
896.788	-10.75
896.958	-51.71
897.129	-0.51
897.299	-14.85
897.47	38.4
897.64	38.4
897.81	-37.38
897.981	1.54
898.151	11.78
898.322	-25.09
898.492	15.87
898.662	13.82
898.832	-25.09
899.003	30.21
899.173	-18.94
899.343	15.87
899.513	3.58
