Data from USB4F104151__34__13-10-56-723.txt Node

Date: Fri Mar 14 13:10:56 EDT 2025
User: louis
Spectrometer: USB4F10415
Trigger mode: 4
Integration Time (sec): 2.000000E-2
Scans to average: 1
Electric dark correction enabled: true
Nonlinearity correction enabled: false
Boxcar width: 0
XAxis mode: Wavelengths
Number of Pixels in Spectrum: 3648
>>>>>Begin Spectral Data<<<<<
178.204	-124.58
178.424	-124.58
178.644	-124.58
178.864	-114.34
179.084	-110.25
179.304	-9.9
179.524	8.53
179.744	-5.8
179.964	49.49
180.184	47.44
180.404	-85.67
180.624	0.34
180.844	-59.05
181.064	-7.85
181.283	37.2
181.503	-44.71
181.723	69.97
181.943	-89.77
182.163	47.44
182.383	94.55
182.602	0.34
182.822	94.55
183.042	-3.75
183.262	55.64
183.482	26.96
183.701	22.87
183.921	63.83
184.141	16.73
184.361	47.44
184.58	20.82
184.8	14.68
185.02	12.63
185.239	24.92
185.459	61.78
185.679	55.64
185.898	22.87
186.118	47.44
186.338	41.3
186.557	55.64
186.777	-42.67
186.997	-3.75
187.216	4.44
187.436	121.17
187.655	31.06
187.875	-18.09
188.095	49.49
188.314	-34.47
188.534	31.06
188.753	78.16
188.973	49.49
189.192	45.4
189.412	63.83
189.631	22.87
189.851	55.64
190.07	123.22
190.29	-40.62
190.509	-42.67
190.729	29.01
190.948	69.97
191.168	119.12
191.387	18.77
191.607	-22.19
191.826	72.02
192.045	-18.09
192.265	22.87
192.484	10.58
192.704	-28.33
192.923	-32.43
193.142	53.59
193.362	18.77
193.581	20.82
193.8	39.25
194.02	-3.75
194.239	47.44
194.458	-16.04
194.678	39.25
194.897	-3.75
195.116	55.64
195.335	22.87
195.555	53.59
195.774	43.35
195.993	-13.99
196.212	18.77
196.432	94.55
196.651	12.63
196.87	65.88
197.089	47.44
197.308	55.64
197.528	104.79
197.747	86.36
197.966	57.68
198.185	31.06
198.404	-11.95
198.623	78.16
198.842	31.06
199.062	41.3
199.281	53.59
199.5	49.49
199.719	4.44
199.938	63.83
200.157	65.88
200.376	82.26
200.595	-24.23
200.814	35.16
201.033	12.63
201.252	119.12
201.471	86.36
201.69	65.88
201.909	-5.8
202.128	26.96
202.347	55.64
202.566	4.44
202.785	24.92
203.004	22.87
203.223	65.88
203.442	43.35
203.661	0.34
203.879	-44.71
204.098	37.2
204.317	29.01
204.536	37.2
204.755	20.82
204.974	49.49
205.193	45.4
205.411	37.2
205.63	88.4
205.849	37.2
206.068	45.4
206.287	63.83
206.505	-26.28
206.724	-22.19
206.943	18.77
207.162	-44.71
207.381	45.4
207.599	61.78
207.818	26.96
208.037	61.78
208.255	39.25
208.474	10.58
208.693	43.35
208.911	-7.85
209.13	90.45
209.349	96.6
209.567	78.16
209.786	82.26
210.005	76.12
210.223	-22.19
210.442	-16.04
210.661	8.53
210.879	14.68
211.098	-50.86
211.316	47.44
211.535	47.44
211.753	24.92
211.972	8.53
212.191	29.01
212.409	37.2
212.628	8.53
212.846	82.26
213.065	80.21
213.283	51.54
213.502	-22.19
213.72	67.92
213.938	57.68
214.157	61.78
214.375	41.3
214.594	4.44
214.812	76.12
215.031	26.96
215.249	14.68
215.467	26.96
215.686	-9.9
215.904	51.54
216.122	43.35
216.341	51.54
216.559	41.3
216.778	39.25
216.996	80.21
217.214	22.87
217.432	112.98
217.651	76.12
217.869	41.3
218.087	63.83
218.306	57.68
218.524	45.4
218.742	-9.9
218.96	35.16
219.179	2.39
219.397	55.64
219.615	86.36
219.833	59.73
220.051	51.54
220.27	115.03
220.488	74.07
220.706	47.44
220.924	57.68
221.142	-11.95
221.36	-44.71
221.578	67.92
221.796	55.64
222.015	24.92
222.233	24.92
222.451	80.21
222.669	-36.52
222.887	84.31
223.105	4.44
223.323	31.06
223.541	20.82
223.759	63.83
223.977	80.21
224.195	-44.71
224.413	39.25
224.631	-7.85
224.849	12.63
225.067	137.56
225.285	26.96
225.503	4.44
225.721	-93.87
225.939	20.82
226.157	-13.99
226.375	4.44
226.592	-20.14
226.81	39.25
227.028	63.83
227.246	63.83
227.464	-28.33
227.682	29.01
227.9	57.68
228.117	47.44
228.335	37.2
228.553	33.11
228.771	119.12
228.989	31.06
229.206	10.58
229.424	110.93
229.642	12.63
229.86	-32.43
230.077	-22.19
230.295	92.5
230.513	69.97
230.731	37.2
230.948	39.25
231.166	43.35
231.384	-26.28
231.601	-9.9
231.819	18.77
232.037	4.44
232.254	6.49
232.472	-9.9
232.689	-11.95
232.907	-22.19
233.125	-20.14
233.342	-48.81
233.56	55.64
233.777	4.44
233.995	4.44
234.213	74.07
234.43	4.44
234.648	8.53
234.865	2.39
235.083	12.63
235.3	69.97
235.518	14.68
235.735	10.58
235.953	31.06
236.17	45.4
236.388	24.92
236.605	14.68
236.822	88.4
237.04	49.49
237.257	24.92
237.475	72.02
237.692	26.96
237.909	67.92
238.127	-36.52
238.344	0.34
238.562	41.3
238.779	0.34
238.996	49.49
239.214	-5.8
239.431	-20.14
239.648	69.97
239.865	98.64
240.083	51.54
240.3	78.16
240.517	76.12
240.735	-26.28
240.952	94.55
241.169	84.31
241.386	57.68
241.603	-1.71
241.821	-20.14
242.038	24.92
242.255	102.74
242.472	14.68
242.689	53.59
242.907	92.5
243.124	33.11
243.341	26.96
243.558	-22.19
243.775	16.73
243.992	-32.43
244.209	0.34
244.426	86.36
244.643	29.01
244.86	10.58
245.078	45.4
245.295	47.44
245.512	-40.62
245.729	41.3
245.946	-5.8
246.163	43.35
246.38	57.68
246.597	35.16
246.814	67.92
247.031	-11.95
247.248	22.87
247.464	-20.14
247.681	31.06
247.898	37.2
248.115	-3.75
248.332	-44.71
248.549	117.08
248.766	-11.95
248.983	37.2
249.2	24.92
249.417	24.92
249.633	26.96
249.85	16.73
250.067	67.92
250.284	55.64
250.501	69.97
250.717	45.4
250.934	33.11
251.151	-11.95
251.368	49.49
251.585	92.5
251.801	69.97
252.018	-52.91
252.235	31.06
252.451	59.73
252.668	-28.33
252.885	20.82
253.102	53.59
253.318	20.82
253.535	24.92
253.752	61.78
253.968	24.92
254.185	-34.47
254.401	67.92
254.618	-71.34
254.835	63.83
255.051	55.64
255.268	57.68
255.484	63.83
255.701	4.44
255.917	100.69
256.134	65.88
256.351	80.21
256.567	-3.75
256.784	57.68
257	31.06
257.217	63.83
257.433	-7.85
257.65	-42.67
257.866	29.01
258.082	41.3
258.299	37.2
258.515	69.97
258.732	18.77
258.948	-26.28
259.165	10.58
259.381	24.92
259.597	4.44
259.814	6.49
260.03	61.78
260.246	45.4
260.463	37.2
260.679	78.16
260.895	6.49
261.112	14.68
261.328	-32.43
261.544	37.2
261.761	86.36
261.977	18.77
262.193	14.68
262.409	61.78
262.626	96.6
262.842	94.55
263.058	12.63
263.274	63.83
263.49	78.16
263.707	65.88
263.923	53.59
264.139	0.34
264.355	10.58
264.571	47.44
264.787	84.31
265.004	78.16
265.22	-40.62
265.436	-26.28
265.652	35.16
265.868	55.64
266.084	14.68
266.3	82.26
266.516	-54.95
266.732	-40.62
266.948	-1.71
267.164	33.11
267.38	-3.75
267.596	-1.71
267.812	57.68
268.028	39.25
268.244	63.83
268.46	45.4
268.676	22.87
268.892	-36.52
269.108	29.01
269.324	4.44
269.54	61.78
269.756	55.64
269.972	29.01
270.188	12.63
270.403	6.49
270.619	31.06
270.835	29.01
271.051	16.73
271.267	74.07
271.483	41.3
271.698	4.44
271.914	69.97
272.13	12.63
272.346	65.88
272.562	4.44
272.777	31.06
272.993	53.59
273.209	37.2
273.425	39.25
273.64	67.92
273.856	37.2
274.072	-67.24
274.287	22.87
274.503	20.82
274.719	-28.33
274.934	86.36
275.15	18.77
275.366	67.92
275.581	86.36
275.797	-28.33
276.012	2.39
276.228	26.96
276.444	76.12
276.659	78.16
276.875	26.96
277.09	43.35
277.306	72.02
277.521	80.21
277.737	76.12
277.952	-22.19
278.168	78.16
278.383	112.98
278.599	16.73
278.814	86.36
279.03	-36.52
279.245	39.25
279.461	69.97
279.676	20.82
279.892	57.68
280.107	22.87
280.322	6.49
280.538	82.26
280.753	26.96
280.969	12.63
281.184	-28.33
281.399	86.36
281.615	20.82
281.83	39.25
282.045	-40.62
282.26	94.55
282.476	-11.95
282.691	88.4
282.906	-44.71
283.122	63.83
283.337	39.25
283.552	-3.75
283.767	45.4
283.983	12.63
284.198	-18.09
284.413	86.36
284.628	39.25
284.843	20.82
285.058	39.25
285.274	37.2
285.489	14.68
285.704	80.21
285.919	47.44
286.134	37.2
286.349	65.88
286.564	35.16
286.779	26.96
286.995	12.63
287.21	20.82
287.425	119.12
287.64	61.78
287.855	14.68
288.07	29.01
288.285	18.77
288.5	14.68
288.715	-11.95
288.93	-22.19
289.145	22.87
289.36	-34.47
289.575	-26.28
289.79	22.87
290.004	61.78
290.219	94.55
290.434	-11.95
290.649	-48.81
290.864	12.63
291.079	18.77
291.294	61.78
291.509	-7.85
291.724	20.82
291.938	12.63
292.153	22.87
292.368	6.49
292.583	20.82
292.798	82.26
293.012	86.36
293.227	-40.62
293.442	8.53
293.657	-81.58
293.871	18.77
294.086	41.3
294.301	51.54
294.516	26.96
294.73	18.77
294.945	2.39
295.16	-22.19
295.374	24.92
295.589	59.73
295.804	69.97
296.018	51.54
296.233	33.11
296.447	24.92
296.662	22.87
296.877	51.54
297.091	149.84
297.306	-16.04
297.52	-26.28
297.735	45.4
297.949	61.78
298.164	57.68
298.378	39.25
298.593	-44.71
298.807	10.58
299.022	63.83
299.236	-13.99
299.451	31.06
299.665	-1.71
299.88	110.93
300.094	69.97
300.309	69.97
300.523	-36.52
300.737	45.4
300.952	-7.85
301.166	145.75
301.381	22.87
301.595	-20.14
301.809	-22.19
302.024	65.88
302.238	-59.05
302.452	67.92
302.667	33.11
302.881	55.64
303.095	-11.95
303.309	4.44
303.524	-3.75
303.738	-1.71
303.952	24.92
304.166	72.02
304.381	-32.43
304.595	135.51
304.809	69.97
305.023	127.32
305.237	14.68
305.452	59.73
305.666	80.21
305.88	110.93
306.094	90.45
306.308	110.93
306.522	41.3
306.736	112.98
306.95	82.26
307.164	74.07
307.379	-24.23
307.593	43.35
307.807	45.4
308.021	69.97
308.235	41.3
308.449	-18.09
308.663	88.4
308.877	108.88
309.091	20.82
309.305	72.02
309.519	-44.71
309.733	4.44
309.947	6.49
310.161	-11.95
310.374	2.39
310.588	53.59
310.802	-69.29
311.016	41.3
311.23	-40.62
311.444	39.25
311.658	59.73
311.872	-9.9
312.085	102.74
312.299	92.5
312.513	14.68
312.727	33.11
312.941	24.92
313.154	53.59
313.368	10.58
313.582	51.54
313.796	37.2
314.009	20.82
314.223	92.5
314.437	61.78
314.651	88.4
314.864	65.88
315.078	-34.47
315.292	29.01
315.505	22.87
315.719	-3.75
315.933	37.2
316.146	72.02
316.36	14.68
316.573	33.11
316.787	61.78
317.001	51.54
317.214	6.49
317.428	6.49
317.641	61.78
317.855	45.4
318.068	-11.95
318.282	14.68
318.495	69.97
318.709	69.97
318.922	-22.19
319.136	35.16
319.349	37.2
319.563	49.49
319.776	0.34
319.99	-22.19
320.203	80.21
320.417	0.34
320.63	59.73
320.843	168.27
321.057	0.34
321.27	8.53
321.483	47.44
321.697	47.44
321.91	12.63
322.124	12.63
322.337	0.34
322.55	-11.95
322.763	29.01
322.977	37.2
323.19	65.88
323.403	49.49
323.617	63.83
323.83	37.2
324.043	55.64
324.256	127.32
324.469	8.53
324.683	96.6
324.896	74.07
325.109	55.64
325.322	78.16
325.535	127.32
325.748	76.12
325.962	33.11
326.175	78.16
326.388	82.26
326.601	18.77
326.814	-1.71
327.027	-1.71
327.24	29.01
327.453	6.49
327.666	39.25
327.879	100.69
328.092	-34.47
328.305	-11.95
328.518	88.4
328.731	-48.81
328.944	47.44
329.157	59.73
329.37	-5.8
329.583	49.49
329.796	33.11
330.009	16.73
330.222	143.7
330.435	35.16
330.648	2.39
330.861	53.59
331.073	119.12
331.286	57.68
331.499	53.59
331.712	8.53
331.925	33.11
332.138	59.73
332.35	72.02
332.563	6.49
332.776	41.3
332.989	14.68
333.202	102.74
333.414	80.21
333.627	51.54
333.84	-11.95
334.053	63.83
334.265	4.44
334.478	24.92
334.691	59.73
334.903	57.68
335.116	65.88
335.329	16.73
335.541	78.16
335.754	49.49
335.966	39.25
336.179	69.97
336.392	45.4
336.604	2.39
336.817	4.44
337.029	31.06
337.242	-11.95
337.454	-7.85
337.667	55.64
337.88	82.26
338.092	53.59
338.305	2.39
338.517	-34.47
338.729	37.2
338.942	22.87
339.154	125.27
339.367	41.3
339.579	-5.8
339.792	47.44
340.004	-11.95
340.217	57.68
340.429	80.21
340.641	31.06
340.854	20.82
341.066	61.78
341.278	84.31
341.491	-42.67
341.703	-3.75
341.915	-46.76
342.128	43.35
342.34	-61.1
342.552	-18.09
342.764	102.74
342.977	59.73
343.189	49.49
343.401	74.07
343.613	-52.91
343.826	16.73
344.038	26.96
344.25	-11.95
344.462	-9.9
344.674	6.49
344.886	18.77
345.099	12.63
345.311	35.16
345.523	61.78
345.735	4.44
345.947	-22.19
346.159	104.79
346.371	33.11
346.583	51.54
346.795	98.64
347.007	69.97
347.219	78.16
347.431	37.2
347.643	37.2
347.855	-34.47
348.067	16.73
348.279	20.82
348.491	20.82
348.703	96.6
348.915	67.92
349.127	26.96
349.339	-28.33
349.551	47.44
349.763	137.56
349.975	65.88
350.187	80.21
350.399	41.3
350.61	43.35
350.822	92.5
351.034	72.02
351.246	-26.28
351.458	57.68
351.669	0.34
351.881	92.5
352.093	84.31
352.305	131.41
352.517	84.31
352.728	39.25
352.94	69.97
353.152	110.93
353.363	35.16
353.575	90.45
353.787	37.2
353.999	86.36
354.21	14.68
354.422	-3.75
354.633	29.01
354.845	92.5
355.057	-7.85
355.268	47.44
355.48	86.36
355.692	86.36
355.903	41.3
356.115	20.82
356.326	49.49
356.538	72.02
356.749	18.77
356.961	104.79
357.172	112.98
357.384	-26.28
357.595	51.54
357.807	84.31
358.018	29.01
358.23	31.06
358.441	143.7
358.653	53.59
358.864	47.44
359.075	82.26
359.287	14.68
359.498	69.97
359.709	53.59
359.921	45.4
360.132	110.93
360.344	29.01
360.555	-18.09
360.766	96.6
360.977	61.78
361.189	59.73
361.4	31.06
361.611	43.35
361.823	147.8
362.034	55.64
362.245	24.92
362.456	88.4
362.667	45.4
362.879	53.59
363.09	53.59
363.301	76.12
363.512	86.36
363.723	8.53
363.935	57.68
364.146	78.16
364.357	-11.95
364.568	84.31
364.779	65.88
364.99	0.34
365.201	14.68
365.412	37.2
365.623	18.77
365.834	72.02
366.045	37.2
366.256	65.88
366.467	-3.75
366.678	76.12
366.889	51.54
367.1	57.68
367.311	61.78
367.522	0.34
367.733	61.78
367.944	45.4
368.155	4.44
368.366	26.96
368.577	16.73
368.788	43.35
368.999	-5.8
369.209	51.54
369.42	86.36
369.631	125.27
369.842	43.35
370.053	0.34
370.264	61.78
370.474	-13.99
370.685	82.26
370.896	90.45
371.107	80.21
371.317	94.55
371.528	94.55
371.739	49.49
371.95	112.98
372.16	100.69
372.371	37.2
372.582	92.5
372.792	18.77
373.003	74.07
373.214	12.63
373.424	35.16
373.635	45.4
373.846	39.25
374.056	74.07
374.267	117.08
374.477	78.16
374.688	53.59
374.898	49.49
375.109	49.49
375.319	-22.19
375.53	69.97
375.74	55.64
375.951	53.59
376.161	4.44
376.372	59.73
376.582	12.63
376.793	45.4
377.003	33.11
377.214	78.16
377.424	6.49
377.635	-9.9
377.845	43.35
378.055	192.85
378.266	-22.19
378.476	74.07
378.686	-16.04
378.897	33.11
379.107	102.74
379.317	76.12
379.528	35.16
379.738	98.64
379.948	31.06
380.158	92.5
380.369	51.54
380.579	102.74
380.789	-1.71
380.999	55.64
381.21	112.98
381.42	24.92
381.63	26.96
381.84	29.01
382.05	22.87
382.261	69.97
382.471	86.36
382.681	47.44
382.891	119.12
383.101	16.73
383.311	55.64
383.521	-16.04
383.731	-3.75
383.941	18.77
384.151	131.41
384.361	102.74
384.571	80.21
384.781	12.63
384.991	74.07
385.201	90.45
385.411	41.3
385.621	123.22
385.831	59.73
386.041	37.2
386.251	74.07
386.461	22.87
386.671	18.77
386.881	82.26
387.091	-3.75
387.301	37.2
387.511	96.6
387.72	39.25
387.93	24.92
388.14	12.63
388.35	35.16
388.56	102.74
388.769	47.44
388.979	29.01
389.189	67.92
389.399	6.49
389.609	33.11
389.818	29.01
390.028	59.73
390.238	135.51
390.447	49.49
390.657	45.4
390.867	102.74
391.076	106.84
391.286	49.49
391.496	84.31
391.705	39.25
391.915	59.73
392.125	61.78
392.334	0.34
392.544	92.5
392.753	47.44
392.963	31.06
393.172	123.22
393.382	16.73
393.591	129.36
393.801	55.64
394.01	90.45
394.22	123.22
394.429	69.97
394.639	125.27
394.848	-1.71
395.058	76.12
395.267	-13.99
395.477	61.78
395.686	139.6
395.895	139.6
396.105	178.51
396.314	22.87
396.524	16.73
396.733	90.45
396.942	110.93
397.152	57.68
397.361	57.68
397.57	-11.95
397.78	-36.52
397.989	49.49
398.198	110.93
398.407	88.4
398.617	86.36
398.826	137.56
399.035	59.73
399.244	178.51
399.453	82.26
399.663	69.97
399.872	129.36
400.081	76.12
400.29	-5.8
400.499	90.45
400.708	29.01
400.917	98.64
401.127	129.36
401.336	104.79
401.545	100.69
401.754	86.36
401.963	88.4
402.172	164.18
402.381	112.98
402.59	94.55
402.799	94.55
403.008	61.78
403.217	86.36
403.426	129.36
403.635	119.12
403.844	133.46
404.053	57.68
404.262	125.27
404.471	145.75
404.68	102.74
404.888	94.55
405.097	96.6
405.306	110.93
405.515	135.51
405.724	57.68
405.933	104.79
406.142	155.99
406.35	162.13
406.559	139.6
406.768	106.84
406.977	215.38
407.185	174.42
407.394	143.7
407.603	160.08
407.812	143.7
408.02	190.8
408.229	184.66
408.438	196.95
408.646	188.75
408.855	258.39
409.064	201.04
409.272	213.33
409.481	178.51
409.69	299.34
409.898	186.71
410.107	162.13
410.315	244.05
410.524	215.38
410.733	282.96
410.941	225.62
411.15	332.11
411.358	258.39
411.567	350.54
411.775	297.3
411.984	301.39
412.192	317.78
412.401	364.88
412.609	381.26
412.818	360.78
413.026	418.13
413.234	401.74
413.443	371.02
413.651	395.6
413.86	469.33
414.068	479.57
414.276	432.46
414.485	520.53
414.693	422.22
414.901	545.1
415.11	520.53
415.318	502.09
415.526	590.16
415.734	534.86
415.943	563.53
416.151	559.44
416.359	577.87
416.567	602.44
416.776	702.79
416.984	698.7
417.192	735.56
417.4	696.65
417.608	680.27
417.817	731.47
418.025	854.34
418.233	766.28
418.441	842.06
418.649	844.1
418.857	932.17
419.065	938.31
419.273	913.74
419.481	1014.09
419.689	1061.19
419.897	1012.04
420.105	1040.71
420.313	1153.35
420.521	1057.09
420.729	1270.08
420.937	1165.64
421.145	1325.38
421.353	1317.19
421.561	1521.98
421.769	1388.86
421.977	1483.07
422.185	1524.03
422.393	1599.8
422.601	1653.05
422.809	1679.68
423.017	1616.19
423.224	1659.2
423.432	1839.42
423.64	1784.12
423.848	1945.91
424.056	1954.1
424.263	1962.3
424.471	2107.7
424.679	2091.32
424.887	2160.95
425.094	2392.37
425.302	2480.43
425.51	2326.83
425.718	2511.15
425.925	2517.29
426.133	2605.36
426.341	2701.61
426.548	2887.98
426.756	2814.25
426.964	2838.83
427.171	2971.94
427.379	2937.13
427.586	3045.67
427.794	3264.8
428.001	3428.64
428.209	3559.71
428.417	3473.7
428.624	3698.97
428.832	3633.44
429.039	3696.92
429.247	3815.71
429.454	3907.87
429.662	4374.8
429.869	4036.89
430.076	4372.75
430.284	4290.84
430.491	4378.9
430.699	4561.17
430.906	4614.41
431.114	4735.25
431.321	4880.65
431.528	4974.86
431.736	5212.42
431.943	5683.45
432.15	5468.42
432.358	5413.12
432.565	5906.68
432.772	5738.75
432.979	6068.47
433.187	6254.84
433.394	6269.17
433.601	6521.07
433.808	6467.83
434.016	6684.91
434.223	6961.39
434.43	7170.28
434.637	7299.3
434.844	7467.24
435.052	7719.14
435.259	7659.74
435.466	7737.57
435.673	7526.63
435.88	8171.74
436.087	8818.89
436.294	8485.08
436.501	8347.86
436.708	8595.67
436.915	9038.03
437.122	9296.07
437.329	9461.96
437.537	9650.37
437.743	9730.24
437.95	9588.93
438.157	10262.71
438.364	10504.37
438.571	10506.42
438.778	10494.13
438.985	11608.23
439.192	11008.17
439.399	11503.78
439.606	11102.38
439.813	11845.79
440.02	12470.42
440.227	12474.52
440.433	12392.6
440.64	12607.64
440.847	12513.43
441.054	12785.81
441.261	13514.89
441.467	13584.52
441.674	13752.45
441.881	14405.75
442.088	14205.05
442.294	14350.46
442.501	14395.51
442.708	14813.3
442.914	15290.48
443.121	16076.9
443.328	15798.37
443.534	16914.52
443.741	16416.86
443.948	15962.21
444.154	17307.73
444.361	17031.25
444.568	17080.4
444.774	17174.61
444.981	17436.75
445.187	17958.98
445.394	18505.79
445.6	18550.84
445.807	20224.03
446.013	19269.68
446.22	19589.16
446.426	20670.49
446.633	20797.46
446.839	21387.28
447.046	20406.3
447.252	21626.89
447.459	21612.56
447.665	21770.25
447.871	22562.81
448.078	23492.59
448.284	22614.01
448.491	23009.27
448.697	23941.1
448.903	24915.93
449.11	24428.51
449.316	24231.91
449.522	24739.8
449.728	25274.32
449.935	25460.69
450.141	25718.73
450.347	26157
450.553	25270.23
450.76	25952.2
450.966	26482.63
451.172	26654.65
451.378	27000.76
451.584	26402.75
451.791	26800.06
451.997	27258.81
452.203	27735.98
452.409	27434.93
452.615	27465.65
452.821	26607.55
453.027	26224.58
453.233	27643.82
453.44	26511.3
453.646	27221.94
453.852	26972.09
454.058	27334.58
454.264	26656.7
454.47	27125.69
454.676	26521.54
454.882	27717.55
455.088	25178.07
455.294	25694.16
455.5	25765.84
455.705	26222.53
455.911	25210.84
456.117	24655.84
456.323	24524.77
456.529	22994.93
456.735	24236
456.941	23541.74
457.147	22829.05
457.352	22401.02
457.558	22335.49
457.764	22261.76
457.97	22016.01
458.176	21119
458.381	21573.64
458.587	20375.58
458.793	20480.03
458.999	19068.98
459.204	20801.56
459.41	20187.17
459.616	18939.96
459.821	18745.4
460.027	18853.94
460.233	18407.48
460.438	17350.73
460.644	17807.43
460.85	16853.08
461.055	16592.98
461.261	16455.77
461.466	15366.25
461.672	14741.62
461.878	16033.89
462.083	14950.51
462.289	14678.13
462.494	14348.41
462.7	13844.61
462.905	13602.95
463.111	13766.79
463.316	14033.02
463.522	13813.89
463.727	13815.94
463.932	13680.77
464.138	13533.32
464.343	13623.43
464.549	13148.3
464.754	13449.35
464.959	13492.36
465.165	13504.65
465.37	12880.02
465.575	12343.45
465.781	12882.06
465.986	13181.07
466.191	12642.45
466.397	12126.36
466.602	11829.41
466.807	12294.3
467.012	12165.28
467.218	12116.12
467.423	12034.21
467.628	12091.55
467.833	12564.63
468.038	12046.49
468.244	11989.15
468.449	12337.31
468.654	11835.55
468.859	11667.62
469.064	11405.48
469.269	11370.66
469.474	11387.05
469.679	11645.09
469.885	11094.19
470.09	11208.87
470.295	11362.47
470.5	11073.71
470.705	11176.11
470.91	10948.78
471.115	10680.5
471.32	10918.06
471.525	10670.26
471.73	10580.15
471.935	10594.48
472.139	9996.48
472.344	10131.64
472.549	10248.38
472.754	10086.59
472.959	9969.85
473.164	9787.58
473.369	9494.72
473.574	9869.5
473.778	9812.16
473.983	9773.25
474.188	9707.71
474.393	9384.13
474.598	9488.58
474.802	9214.15
475.007	9244.87
475.212	9320.65
475.417	9015.5
475.621	9009.36
475.826	8906.96
476.031	8857.81
476.235	8679.63
476.44	8605.91
476.645	8386.77
476.849	8589.52
477.054	8370.39
477.259	8364.25
477.463	8227.03
477.668	8237.27
477.872	8184.02
478.077	8149.21
478.282	7819.49
478.486	8034.52
478.691	7846.11
478.895	7860.45
479.1	7745.76
479.304	7868.64
479.509	7436.52
479.713	7710.94
479.918	7588.07
480.122	7375.08
480.326	7491.81
480.531	7477.48
480.735	7428.32
480.94	7373.03
481.144	7461.09
481.348	7100.65
481.553	7344.36
481.757	7110.89
481.961	7317.73
482.166	7375.08
482.37	7291.11
482.574	7151.85
482.778	7133.42
482.983	7213.29
483.187	7139.56
483.391	7280.87
483.595	6953.2
483.8	7164.14
484.004	7287.01
484.208	7190.76
484.412	7188.71
484.616	7141.61
484.821	7184.62
485.025	7047.4
485.229	7264.49
485.433	7209.19
485.637	7129.32
485.841	7020.78
486.045	6897.9
486.249	7258.34
486.453	7037.16
486.657	7043.31
486.861	7217.38
487.065	6856.94
487.269	7174.38
487.473	7192.81
487.677	7061.74
487.881	7370.98
488.085	7037.16
488.289	7274.73
488.493	7213.29
488.697	7149.8
488.901	7129.32
489.105	7114.98
489.309	7192.81
489.512	7409.89
489.716	7180.52
489.92	7262.44
490.124	7235.81
490.328	7364.84
490.531	7186.66
490.735	7418.08
490.939	7475.43
491.143	7323.88
491.346	7235.81
491.55	7416.04
491.754	7391.46
491.958	7536.87
492.161	7442.66
492.365	7428.32
492.569	7600.35
492.772	7606.5
492.976	7583.97
493.18	7493.86
493.383	7766.24
493.587	7848.16
493.79	7856.35
493.994	7862.49
494.197	7786.72
494.401	7993.56
494.605	7887.07
494.808	7948.51
495.012	7917.79
495.215	8122.59
495.419	8208.6
495.622	8253.66
495.825	8304.85
496.029	8243.42
496.232	8378.58
496.436	8339.67
496.639	8550.61
496.843	8440.02
497.046	8855.76
497.249	8818.89
497.453	8890.57
497.656	8814.8
497.859	8892.62
498.063	9021.64
498.266	9400.52
498.469	9255.11
498.673	9291.98
498.876	9429.19
499.079	9443.53
499.282	9537.73
499.485	9679.04
499.689	9648.32
499.892	10019
500.095	10197.18
500.298	10338.49
500.501	10229.95
500.705	10225.85
500.908	10467.51
501.111	10459.32
501.314	10772.66
501.517	10940.59
501.72	10961.07
501.923	10825.9
502.126	11225.26
502.329	11612.32
502.532	11294.89
502.735	11432.1
502.938	12026.01
503.141	11649.19
503.344	11827.36
503.547	11921.57
503.75	12026.01
503.953	12159.13
504.156	12464.28
504.359	12499.09
504.562	12867.73
504.765	12904.59
504.968	12980.37
505.17	13119.63
505.373	12949.65
505.576	13508.74
505.779	13609.09
505.982	13443.21
506.185	13846.66
506.387	13789.31
506.59	13846.66
506.793	14389.37
506.996	13985.92
507.198	14725.24
507.401	14497.91
507.604	14551.16
507.807	15069.3
508.009	15085.68
508.212	15333.48
508.415	15460.46
508.617	15661.16
508.82	15814.76
509.022	15499.37
509.225	16226.4
509.428	16121.95
509.63	16267.36
509.833	16349.28
510.035	16726.1
510.238	16683.09
510.44	17049.68
510.643	17211.47
510.845	17326.16
511.048	17113.17
511.25	17774.66
511.453	17748.04
511.655	18327.61
511.858	18210.88
512.06	18397.24
512.262	18116.67
512.465	18380.86
512.667	18845.75
512.87	18966.58
513.072	19284.02
513.274	19507.24
513.477	19687.46
513.679	19650.6
513.881	19666.99
514.084	19996.71
514.286	20215.84
514.488	20193.31
514.69	20850.71
514.893	20895.77
515.095	20850.71
515.297	21172.24
515.499	21116.95
515.701	21526.54
515.904	21735.43
516.106	21891.08
516.308	22341.63
516.51	22487.04
516.712	22464.51
516.914	22720.51
517.116	23244.79
517.318	22984.69
517.52	23119.86
517.722	23209.97
517.925	23533.55
518.127	24170.47
518.329	24137.7
518.531	23885.8
518.733	24494.05
518.935	24612.83
519.136	24745.95
519.338	25296.85
519.54	25075.67
519.742	25294.8
519.944	25407.44
520.146	25999.3
520.348	26501.06
520.55	26177.48
520.752	26564.54
520.954	26830.78
521.155	26720.19
521.357	26970.04
521.559	27031.48
521.761	27752.37
521.963	27383.73
522.164	27709.36
522.366	27697.07
522.568	28319.65
522.77	28401.57
522.971	28463.01
523.173	28276.65
523.375	29028.25
523.576	28891.04
523.778	28903.32
523.98	29575.06
524.181	29562.77
524.383	29509.52
524.584	29798.29
524.786	30054.28
524.988	29749.14
525.189	30177.16
525.391	30404.49
525.592	30437.25
525.794	30732.16
525.995	30480.26
526.197	30510.98
526.398	30865.28
526.6	31123.32
526.801	31338.36
527.003	31489.91
527.204	31407.99
527.406	31811.44
527.607	31461.24
527.808	31711.09
528.01	31076.22
528.211	32161.64
528.412	32307.05
528.614	32247.66
528.815	32120.68
529.016	32372.58
529.218	32444.26
529.419	32198.51
529.62	32550.76
529.822	32464.74
530.023	32413.54
530.224	32280.42
530.425	32567.14
530.626	32513.89
530.828	32612.2
531.029	33048.41
531.23	33124.19
531.431	32974.69
531.632	33173.34
531.833	33048.41
532.035	33208.15
532.236	33460.05
532.437	33640.28
532.638	33058.65
532.839	33312.6
533.04	33353.56
533.241	33040.22
533.442	33617.75
533.643	33509.21
533.844	33398.62
534.045	33521.49
534.246	32968.54
534.447	33832.79
534.648	33083.23
534.849	33693.52
535.05	33199.96
535.251	33570.65
535.451	33445.72
535.652	33576.79
535.853	33347.42
536.054	33746.77
536.255	33832.79
536.456	33255.26
536.657	33771.35
536.857	33677.14
537.058	33845.07
537.259	33621.84
537.46	33656.66
537.66	33318.74
537.861	33662.8
538.062	33488.73
538.263	33515.35
538.463	33513.3
538.664	33939.28
538.865	33632.08
539.065	33822.55
539.266	33214.3
539.466	33685.33
539.667	33294.17
539.868	33693.52
540.068	33402.71
540.269	33251.16
540.469	33714
540.67	33310.55
540.87	33691.48
541.071	33294.17
541.271	33724.24
541.472	33179.48
541.672	33556.31
541.873	33380.18
542.073	33390.42
542.274	33580.88
542.474	33316.7
542.675	33116
542.875	33558.36
543.075	33421.14
543.276	32812.9
543.476	33740.63
543.676	33521.49
543.877	33886.03
544.077	33730.39
544.277	33386.33
544.478	33392.47
544.678	33480.53
544.878	33337.18
545.078	33427.29
545.279	33265.5
545.479	33210.2
545.679	33488.73
545.879	33517.4
546.079	33214.3
546.28	33369.94
546.48	33380.18
546.68	33464.15
546.88	33122.14
547.08	33404.76
547.28	33091.42
547.48	33058.65
547.68	33183.58
547.88	33185.63
548.081	33587.03
548.281	33339.22
548.481	33251.16
548.681	33498.97
548.881	33578.84
549.081	33257.31
549.28	33087.32
549.48	33582.93
549.68	33263.45
549.88	33404.76
550.08	33011.55
550.28	33017.69
550.48	32993.12
550.68	33484.63
550.88	33304.41
551.08	33328.98
551.279	32960.35
551.479	32800.61
551.679	33116
551.879	33019.74
552.079	33089.37
552.278	32730.98
552.478	32968.54
552.678	33136.48
552.878	33374.04
553.077	32917.34
553.277	32773.99
553.477	33234.78
553.676	32685.92
553.876	32784.23
554.076	32581.48
554.275	33077.08
554.475	32583.52
554.674	32874.34
554.874	32927.58
555.074	32225.13
555.273	32888.67
555.473	32782.18
555.672	32456.55
555.872	32704.35
556.071	32565.09
556.271	32833.38
556.47	32391.02
556.67	32288.62
556.869	32661.35
557.068	32870.24
557.268	32528.23
557.467	32618.34
557.667	32530.28
557.866	32360.3
558.065	32323.43
558.265	32489.32
558.464	32042.86
558.663	32786.27
558.863	32167.79
559.062	32255.85
559.261	32186.22
559.461	32526.18
559.66	31768.43
559.859	31817.58
560.058	31948.65
560.258	31709.04
560.457	31451
560.656	31897.45
560.855	31856.5
561.054	31745.9
561.253	31494
561.453	32208.75
561.652	31473.53
561.851	31672.18
562.05	31098.75
562.249	31057.79
562.448	31438.71
562.647	31373.17
562.846	31350.65
563.045	31457.14
563.244	30711.68
563.443	31545.2
563.642	30760.83
563.841	31180.67
564.04	31195
564.239	31317.88
564.438	30640
564.637	30691.2
564.836	30867.33
565.035	30384.01
565.234	31002.49
565.432	30461.83
565.631	30578.56
565.83	30799.74
566.029	30121.87
566.228	30273.42
566.427	30531.46
566.625	30146.44
566.824	29886.35
567.023	30093.19
567.222	29527.95
567.42	30252.94
567.619	29869.97
567.818	29915.02
568.016	29841.29
568.215	29908.88
568.414	29577.11
568.612	29726.61
568.811	29624.21
569.01	29433.75
569.208	29335.45
569.407	29505.43
569.605	28958.62
569.804	29575.06
570.002	29319.06
570.201	29335.45
570.4	28759.97
570.598	28708.77
570.797	28997.53
570.995	28884.89
571.193	28385.19
571.392	28776.35
571.59	28716.96
571.789	28587.94
571.987	28149.67
572.186	28798.88
572.384	28114.86
572.582	28428.2
572.781	28520.35
572.979	28098.47
573.177	27973.55
573.376	28047.27
573.574	27721.65
573.772	27903.92
573.971	27750.32
574.169	27670.45
574.367	27160.5
574.565	27875.24
574.763	27721.65
574.962	27635.63
575.16	27076.54
575.358	27447.22
575.556	26836.92
575.754	27592.62
575.952	27000.76
576.151	26953.66
576.349	26871.74
576.547	27008.95
576.745	27045.82
576.943	26824.64
577.141	26695.61
577.339	26775.48
577.537	26771.39
577.735	26388.42
577.933	26544.06
578.131	26664.89
578.329	26513.34
578.527	26116.04
578.725	26306.5
578.923	26390.47
579.121	26105.8
579.319	26081.22
579.516	26161.09
579.714	26191.81
579.912	25595.85
580.11	25946.06
580.308	25702.35
580.506	25769.93
580.704	25466.83
580.901	25366.48
581.099	25726.92
581.297	25309.14
581.495	25395.15
581.692	25481.17
581.89	25022.42
582.088	25391.06
582.285	25208.79
582.483	25016.28
582.681	24899.55
582.878	24809.43
583.076	24471.52
583.274	25018.33
583.471	24500.19
583.669	24803.29
583.866	24651.74
584.064	24457.18
584.262	24336.35
584.459	24840.15
584.657	24420.32
584.854	24698.84
585.052	23603.18
585.249	24424.42
585.447	24479.71
585.644	24102.89
585.841	24090.6
586.039	24145.89
586.236	23797.74
586.434	23805.93
586.631	23846.89
586.828	23474.16
587.026	23945.19
587.223	23744.49
587.42	23658.48
587.618	23738.35
587.815	23461.87
588.012	23549.93
588.21	23244.79
588.407	23539.69
588.604	23373.81
588.801	23072.76
588.999	23070.71
589.196	22935.54
589.393	23226.35
589.59	22849.53
589.787	22986.74
589.984	22800.38
590.182	22644.73
590.379	22415.36
590.576	22493.18
590.773	22405.12
590.97	22327.3
591.167	22292.48
591.364	21979.14
591.561	22102.02
591.758	22161.41
591.955	21919.75
592.152	22020.1
592.349	21825.54
592.546	22333.44
592.743	21919.75
592.94	21553.16
593.137	21696.52
593.334	21895.18
593.531	21579.79
593.727	21579.79
593.924	21450.77
594.121	21508.11
594.318	21577.74
594.515	21155.86
594.712	21577.74
594.908	21039.12
595.105	21418
595.302	21061.65
595.499	21096.47
595.696	20994.07
595.892	21028.88
596.089	20901.91
596.286	20842.52
596.482	20715.55
596.679	20819.99
596.876	20576.28
597.072	20832.28
597.269	20555.8
597.466	20236.32
597.662	20447.26
597.859	20299.81
598.055	20275.23
598.252	20123.68
598.448	20056.1
598.645	19890.21
598.841	19843.11
599.038	20262.94
599.234	20109.35
599.431	19748.9
599.627	19699.75
599.824	19834.92
600.02	19421.23
600.217	19662.89
600.413	19566.63
600.609	19623.98
600.806	19474.48
601.002	19640.36
601.198	19529.77
601.395	19470.38
601.591	19179.57
601.787	19191.86
601.984	19318.83
602.18	19388.46
602.376	19187.76
602.572	18939.96
602.769	18837.56
602.965	18798.65
603.161	18665.53
603.357	18751.54
603.553	18729.02
603.75	18718.78
603.946	18413.63
604.142	18540.6
604.338	18495.55
604.534	18323.52
604.73	18360.38
604.926	18432.06
605.122	18272.32
605.318	18026.56
605.514	18200.64
605.71	17911.88
605.906	18165.82
606.102	17885.25
606.298	17817.67
606.494	18245.69
606.69	17922.12
606.886	17846.34
607.082	17657.93
607.278	17674.31
607.474	17559.63
607.67	17848.39
607.866	17348.68
608.062	17588.3
608.257	17385.55
608.453	17614.92
608.649	17436.75
608.845	17305.68
609.041	17334.35
609.236	17268.81
609.432	17559.63
609.628	17217.61
609.824	17219.66
610.019	17154.13
610.215	17080.4
610.411	17352.78
610.606	17324.11
610.802	17252.43
610.998	17023.06
611.193	16775.25
611.389	17002.58
611.584	16734.29
611.78	16781.4
611.976	16859.22
612.171	16822.36
612.367	16728.15
612.562	16914.52
612.758	16654.42
612.953	16496.73
613.149	16709.72
613.344	16605.27
613.539	16887.89
613.735	16756.82
613.93	16592.98
614.126	16500.83
614.321	16625.75
614.517	16461.91
614.712	16441.43
614.907	16345.18
615.103	16283.74
615.298	16111.71
615.493	16423
615.688	16109.66
615.884	16463.96
616.079	16246.88
616.274	16040.03
616.47	16044.13
616.665	15984.74
616.86	16005.22
617.055	15941.73
617.25	15700.07
617.445	16222.3
617.641	15605.86
617.836	15849.57
618.031	15634.53
618.226	15771.75
618.421	15702.12
618.616	15689.83
618.811	15505.51
619.006	15806.56
619.201	15104.11
619.396	15501.42
619.591	15104.11
619.786	15708.26
619.981	15224.94
620.176	15370.35
620.371	15022.19
620.566	15380.59
620.761	15061.1
620.956	15224.94
621.151	15057.01
621.346	14684.28
621.541	14645.37
621.735	14837.87
621.93	14770.29
622.125	14530.68
622.32	14481.53
622.515	14448.76
622.709	14114.94
622.904	14338.17
623.099	14098.56
623.294	14092.41
623.488	14096.51
623.683	13893.76
623.878	13895.81
624.072	13930.62
624.267	13895.81
624.462	13658.24
624.656	13508.74
624.851	13619.33
625.046	13492.36
625.24	13719.68
625.435	13267.08
625.629	13181.07
625.824	13201.55
626.018	13252.75
626.213	12996.75
626.407	13179.02
626.602	12877.97
626.796	12837.01
626.991	12820.63
627.185	12904.59
627.38	12664.98
627.574	12656.79
627.768	12523.67
627.963	12576.92
628.157	12384.41
628.352	12630.16
628.546	12099.74
628.74	12300.44
628.935	12181.66
629.129	12335.26
629.323	12173.47
629.517	12079.26
629.712	11794.59
629.906	11860.13
630.1	11841.7
630.294	11614.37
630.489	11651.24
630.683	11851.94
630.877	11628.71
631.071	11288.75
631.265	11325.61
631.459	11471.01
631.653	11430.05
631.848	11251.88
632.042	11131.05
632.236	11221.16
632.43	11098.28
632.624	11169.96
632.818	10989.74
633.012	10856.62
633.206	10764.47
633.4	10786.99
633.594	10741.94
633.788	10731.7
633.982	10698.93
634.176	10617.01
634.369	10641.59
634.563	10481.85
634.757	10449.08
634.951	10420.41
635.145	10447.03
635.339	10406.07
635.533	10354.87
635.726	10209.47
635.92	10344.63
636.114	10293.43
636.308	10084.54
636.501	9990.33
636.695	9806.02
636.889	9996.48
637.083	9711.81
637.276	9789.63
637.47	9908.41
637.664	9601.22
637.857	9662.66
638.051	9621.7
638.244	9566.4
638.438	9552.07
638.632	9461.96
638.825	9326.79
639.019	9359.56
639.212	9109.71
639.406	9205.96
639.599	9289.93
639.793	9326.79
639.986	9236.68
640.18	8825.04
640.373	9113.8
640.567	9060.56
640.76	9162.95
640.954	8845.52
641.147	8620.24
641.34	8718.54
641.534	8620.24
641.727	8681.68
641.92	8698.06
642.114	8517.84
642.307	8530.13
642.5	8573.14
642.694	8382.68
642.887	8364.25
643.08	8550.61
643.273	8337.62
643.467	8179.93
643.66	8255.7
643.853	8100.06
644.046	8200.41
644.239	8126.68
644.432	7946.46
644.626	7956.7
644.819	8020.19
645.012	8026.33
645.205	8063.19
645.398	8016.09
645.591	7739.62
645.784	7911.64
645.977	7684.32
646.17	7747.81
646.363	7745.76
646.556	7778.53
646.749	7491.81
646.942	7680.22
647.135	7438.56
647.328	7557.35
647.521	7569.63
647.714	7362.79
647.907	7495.91
648.099	7309.54
648.292	7321.83
648.485	7299.3
648.678	7307.49
648.871	7172.33
649.064	7223.53
649.256	7174.38
649.449	7088.36
649.642	7270.63
649.835	6934.76
650.027	7024.87
650.22	7076.07
650.413	6721.77
650.605	6975.72
650.798	6879.47
650.991	6746.35
651.183	6807.79
651.376	6672.62
651.568	6680.82
651.761	6574.32
651.954	6652.14
652.146	6600.94
652.339	6488.31
652.531	6531.31
652.724	6504.69
652.916	6191.35
653.109	6390
653.301	6484.21
653.494	6478.07
653.686	6148.34
653.879	6308.09
654.071	6338.8
654.263	6111.48
654.456	6174.97
654.648	6191.35
654.84	6107.38
655.033	5986.55
655.225	5959.93
655.417	6002.94
655.61	6099.19
655.802	6074.62
655.994	5869.82
656.186	5947.64
656.379	5855.48
656.571	5814.52
656.763	5910.78
656.955	5832.96
657.148	5855.48
657.34	5769.47
657.532	5718.27
657.724	5531.9
657.916	5669.12
658.108	5652.74
658.3	5548.29
658.492	5617.92
658.684	5667.07
658.876	5447.94
659.068	5423.36
659.26	5562.62
659.452	5361.92
659.644	5445.89
659.836	5325.06
660.028	5357.83
660.22	5251.33
660.412	5429.51
660.604	5161.22
660.796	5153.03
660.988	5232.9
661.18	5232.9
661.372	5067.02
661.563	5081.35
661.755	5247.24
661.947	5124.36
662.139	5067.02
662.331	4960.52
662.522	4981
662.714	4925.71
662.906	4950.28
663.097	4987.15
663.289	4827.4
663.481	4659.47
663.673	4806.92
663.864	4794.64
664.056	4780.3
664.247	4688.14
664.439	4825.36
664.631	4727.05
664.822	4581.65
665.014	4706.57
665.205	4839.69
665.397	4641.04
665.588	4620.56
665.78	4530.45
665.971	4643.09
666.163	4534.54
666.354	4481.3
666.546	4534.54
666.737	4372.75
666.929	4542.74
667.12	4452.63
667.311	4491.54
667.503	4327.7
667.694	4296.98
667.885	4460.82
668.077	4311.32
668.268	4296.98
668.459	4284.69
668.651	4235.54
668.842	4221.2
669.033	4219.16
669.224	4213.01
669.416	4223.25
669.607	4092.18
669.798	4129.05
669.989	3979.54
670.18	4143.38
670.371	3903.77
670.563	3924.25
670.754	4083.99
670.945	3916.06
671.136	4016.41
671.327	4081.94
671.518	3924.25
671.709	3938.59
671.9	3844.38
672.091	3873.05
672.282	3825.95
672.473	3873.05
672.664	3830.04
672.855	3883.29
673.046	3823.9
673.237	3885.34
673.428	3868.95
673.619	3830.04
673.809	3832.09
674	3780.89
674.191	3723.55
674.382	3805.47
674.573	3701.02
674.764	3594.53
674.954	3772.7
675.145	3635.49
675.336	3649.82
675.527	3658.01
675.717	3617.05
675.908	3592.48
676.099	3580.19
676.289	3459.36
676.48	3594.53
676.671	3520.8
676.861	3518.75
677.052	3363.11
677.243	3498.27
677.433	3436.83
677.624	3426.59
677.814	3500.32
678.005	3404.07
678.195	3428.64
678.386	3270.95
678.576	3336.48
678.767	3297.57
678.957	3371.3
679.148	3328.29
679.338	3273
679.529	3328.29
679.719	3307.81
679.909	3338.53
680.1	3316
680.29	3316
680.481	3438.88
680.671	3279.14
680.861	3346.72
681.052	3283.24
681.242	3133.73
681.432	3242.28
681.622	3244.32
681.813	3291.43
682.003	3336.48
682.193	3150.12
682.383	3264.8
682.573	3064.1
682.764	3098.92
682.954	3191.08
683.144	3291.43
683.334	3066.15
683.524	3111.21
683.714	3213.6
683.904	3041.57
684.094	2949.42
684.284	3068.2
684.474	2965.8
684.664	3006.76
684.854	3072.29
685.044	3004.71
685.234	2955.56
685.424	3103.01
685.614	2963.75
685.804	2973.99
685.994	2980.14
686.184	2955.56
686.374	2943.27
686.564	3039.53
686.753	2990.38
686.943	2892.07
687.133	2822.44
687.323	2898.22
687.513	2906.41
687.702	2775.34
687.892	2951.46
688.082	2773.29
688.272	2867.5
688.461	2875.69
688.651	2863.4
688.841	2875.69
689.03	2806.06
689.22	2814.25
689.41	2769.2
689.599	2734.38
689.789	2812.2
689.979	2711.85
690.168	2662.7
690.358	2677.04
690.547	2685.23
690.737	2734.38
690.926	2685.23
691.116	2513.2
691.305	2595.12
691.495	2711.85
691.684	2537.77
691.874	2619.69
692.063	2679.08
692.252	2650.41
692.442	2582.83
692.631	2580.78
692.82	2431.28
693.01	2644.27
693.199	2437.42
693.388	2543.92
693.578	2656.56
693.767	2505.01
693.956	2433.33
694.146	2515.25
694.335	2498.86
694.524	2441.52
694.713	2595.12
694.902	2447.66
695.092	2513.2
695.281	2480.43
695.47	2353.46
695.659	2490.67
695.848	2416.94
696.037	2404.66
696.226	2386.22
696.415	2429.23
696.604	2484.53
696.793	2320.69
696.982	2355.51
697.171	2449.71
697.36	2369.84
697.549	2316.59
697.738	2232.63
697.927	2308.4
698.116	2251.06
698.305	2388.27
698.494	2347.31
698.683	2326.83
698.872	2298.16
699.061	2361.65
699.25	2324.79
699.438	2355.51
699.627	2337.07
699.816	2271.54
700.005	2341.17
700.193	2167.09
700.382	2314.55
700.571	2359.6
700.76	2396.46
700.948	2349.36
701.137	2287.92
701.326	2294.07
701.514	2263.35
701.703	2265.39
701.892	2314.55
702.08	2324.79
702.269	2273.59
702.457	2201.91
702.646	2249.01
702.834	2128.18
703.023	2203.96
703.212	2265.39
703.4	2279.73
703.589	2253.11
703.777	2292.02
703.965	2189.62
704.154	2197.81
704.342	2300.21
704.531	2160.95
704.719	2142.52
704.907	2322.74
705.096	2122.04
705.284	2117.94
705.472	2212.15
705.661	2191.67
705.849	2277.68
706.037	2224.44
706.226	2175.28
706.414	2146.61
706.602	2179.38
706.79	2199.86
706.979	2232.63
707.167	2179.38
707.355	2134.32
707.543	2187.57
707.731	2185.52
707.919	2189.62
708.107	2177.33
708.296	2191.67
708.484	2187.57
708.672	2195.76
708.86	2271.54
709.048	2208.05
709.236	2212.15
709.424	2273.59
709.612	2203.96
709.8	2013.49
709.988	2173.24
710.176	2074.93
710.364	2187.57
710.551	2208.05
710.739	2281.78
710.927	2222.39
711.115	2150.71
711.303	2138.42
711.491	2251.06
711.679	2185.52
711.866	2142.52
712.054	2117.94
712.242	2257.2
712.43	2040.12
712.617	2212.15
712.805	2095.41
712.993	2183.48
713.181	2056.5
713.368	2144.56
713.556	2144.56
713.744	2134.32
713.931	2195.76
714.119	2093.37
714.306	2191.67
714.494	2036.02
714.682	2111.8
714.869	2228.53
715.057	2150.71
715.244	2087.22
715.432	2093.37
715.619	2093.37
715.807	2275.63
715.994	2249.01
716.182	2097.46
716.369	2136.37
716.556	2029.88
716.744	2083.13
716.931	2070.84
717.119	2208.05
717.306	2134.32
717.493	2195.76
717.681	2193.72
717.868	2179.38
718.055	2193.72
718.242	2210.1
718.43	2160.95
718.617	2134.32
718.804	2099.51
718.991	2175.28
719.179	2179.38
719.366	2226.48
719.553	2189.62
719.74	2265.39
719.927	2058.55
720.114	2160.95
720.301	2060.6
720.488	2181.43
720.676	2156.85
720.863	2185.52
721.05	2148.66
721.237	2249.01
721.424	2072.89
721.611	2195.76
721.798	2111.8
721.985	2187.57
722.172	2158.9
722.358	2117.94
722.545	2191.67
722.732	2246.96
722.919	2193.72
723.106	2109.75
723.293	2122.04
723.48	2097.46
723.667	2091.32
723.853	2087.22
724.04	2251.06
724.227	2117.94
724.414	2103.61
724.6	2156.85
724.787	2257.2
724.974	2191.67
725.161	2142.52
725.347	2189.62
725.534	2081.08
725.72	2212.15
725.907	2197.81
726.094	2175.28
726.28	2206
726.467	2165.04
726.653	2175.28
726.84	2177.33
727.027	2138.42
727.213	2105.65
727.4	2076.98
727.586	2275.63
727.773	2132.28
727.959	2206
728.145	2119.99
728.332	2122.04
728.518	2158.9
728.705	2177.33
728.891	2132.28
729.077	2119.99
729.264	2099.51
729.45	2144.56
729.636	2212.15
729.823	2109.75
730.009	2158.9
730.195	2203.96
730.382	2132.28
730.568	2175.28
730.754	2275.63
730.94	2087.22
731.126	2138.42
731.313	2105.65
731.499	2101.56
731.685	2163
731.871	2189.62
732.057	2177.33
732.243	2124.08
732.429	2126.13
732.615	2158.9
732.801	2167.09
732.987	2148.66
733.173	2046.26
733.359	2128.18
733.545	2158.9
733.731	2124.08
733.917	2201.91
734.103	2177.33
734.289	2060.6
734.475	2115.89
734.661	2142.52
734.847	2203.96
735.033	2216.24
735.219	2091.32
735.404	2081.08
735.59	2154.8
735.776	2007.35
735.962	2062.65
736.148	2152.76
736.333	2148.66
736.519	2093.37
736.705	2197.81
736.89	2128.18
737.076	2076.98
737.262	2132.28
737.447	2074.93
737.633	2185.52
737.819	2158.9
738.004	2095.41
738.19	2136.37
738.375	2070.84
738.561	2017.59
738.747	2070.84
738.932	2001.21
739.118	2156.85
739.303	2101.56
739.489	2117.94
739.674	2025.78
739.859	2076.98
740.045	2068.79
740.23	2015.54
740.416	2054.45
740.601	2038.07
740.786	2044.21
740.972	2058.55
741.157	2126.13
741.342	1978.68
741.528	1919.29
741.713	2009.4
741.898	1980.73
742.084	1980.73
742.269	2025.78
742.454	2013.49
742.639	2064.69
742.824	2064.69
743.01	1857.85
743.195	2046.26
743.38	1898.81
743.565	1958.2
743.75	1966.39
743.935	1939.77
744.12	1984.82
744.305	1849.66
744.49	1980.73
744.675	1818.94
744.86	1904.95
745.045	1915.19
745.23	1929.53
745.415	1974.58
745.6	1788.22
745.785	1835.32
745.97	1878.33
746.155	1861.94
746.34	1884.47
746.525	1816.89
746.71	1847.61
746.895	1767.74
747.079	1788.22
747.264	1814.84
747.449	1759.55
747.634	1827.13
747.819	1685.82
748.003	1784.12
748.188	1743.16
748.373	1683.77
748.557	1687.87
748.742	1728.83
748.927	1675.58
749.111	1655.1
749.296	1702.2
749.481	1724.73
749.665	1644.86
749.85	1657.15
750.034	1722.68
750.219	1599.8
750.404	1599.8
750.588	1648.96
750.773	1446.21
750.957	1569.09
751.141	1640.76
751.326	1585.47
751.51	1501.5
751.695	1548.61
751.879	1546.56
752.064	1618.24
752.248	1546.56
752.432	1587.52
752.617	1503.55
752.801	1487.17
752.985	1454.4
753.17	1513.79
753.354	1362.24
753.538	1431.87
753.722	1495.36
753.907	1499.45
754.091	1427.78
754.275	1335.62
754.459	1409.34
754.643	1358.14
754.828	1442.11
755.012	1380.67
755.196	1225.03
755.38	1352
755.564	1372.48
755.748	1286.47
755.932	1364.29
756.116	1335.62
756.3	1362.24
756.484	1327.43
756.668	1265.99
756.852	1231.17
757.036	1290.56
757.22	1272.13
757.404	1257.79
757.588	1208.64
757.772	1364.29
757.956	1284.42
758.14	1200.45
758.323	1227.07
758.507	1204.55
758.691	1206.59
758.875	1198.4
759.059	1214.79
759.242	1153.35
759.426	1139.01
759.61	1139.01
759.794	1175.88
759.977	1175.88
760.161	1253.7
760.345	1139.01
760.528	1145.16
760.712	1116.48
760.895	1155.4
761.079	1102.15
761.263	1118.53
761.446	1130.82
761.63	1063.24
761.813	1126.72
761.997	1036.61
762.18	1065.29
762.364	1014.09
762.547	1046.85
762.731	1149.25
762.914	1098.05
763.098	1018.18
763.281	946.5
763.464	1102.15
763.648	942.41
763.831	1009.99
764.015	1001.8
764.198	1093.96
764.381	1005.89
764.564	1042.76
764.748	1083.72
764.931	1042.76
765.114	969.03
765.297	1055.05
765.481	1067.33
765.664	1012.04
765.847	954.69
766.03	977.22
766.213	979.27
766.397	971.08
766.58	948.55
766.763	936.26
766.946	1050.95
767.129	1032.52
767.312	942.41
767.495	971.08
767.678	866.63
767.861	995.65
768.044	921.93
768.227	923.98
768.41	862.54
768.593	848.2
768.776	1005.89
768.959	954.69
769.142	1040.71
769.324	907.59
769.507	905.54
769.69	883.02
769.873	930.12
770.056	979.27
770.239	936.26
770.421	926.02
770.604	944.45
770.787	958.79
770.97	850.25
771.152	821.58
771.335	823.62
771.518	794.95
771.7	948.55
771.883	805.19
772.066	809.29
772.248	835.91
772.431	856.39
772.613	840.01
772.796	915.78
772.978	811.34
773.161	852.3
773.343	899.4
773.526	811.34
773.708	780.62
773.891	764.23
774.073	768.33
774.256	764.23
774.438	794.95
774.621	680.27
774.803	792.91
774.985	823.62
775.168	762.19
775.35	782.67
775.532	799.05
775.715	751.95
775.897	772.43
776.079	700.75
776.261	790.86
776.444	700.75
776.626	768.33
776.808	725.32
776.99	682.31
777.173	690.51
777.355	756.04
777.537	729.42
777.719	731.47
777.901	710.99
778.083	645.45
778.265	647.5
778.447	747.85
778.629	637.26
778.811	651.6
778.993	719.18
779.175	692.55
779.357	700.75
779.539	641.36
779.721	567.63
779.903	655.69
780.085	620.88
780.267	665.93
780.449	639.31
780.631	692.55
780.812	655.69
780.994	588.11
781.176	610.64
781.358	594.25
781.54	579.92
781.721	555.34
781.903	549.2
782.085	467.28
782.267	594.25
782.448	598.35
782.63	563.53
782.812	512.33
782.993	612.68
783.175	622.92
783.357	571.72
783.538	444.75
783.72	520.53
783.901	528.72
784.083	534.86
784.264	545.1
784.446	452.94
784.627	602.44
784.809	491.85
784.99	508.24
785.172	493.9
785.353	512.33
785.535	393.55
785.716	481.61
785.897	405.84
786.079	414.03
786.26	430.41
786.441	426.32
786.623	393.55
786.804	446.8
786.985	375.12
787.167	498
787.348	457.04
787.529	414.03
787.71	409.94
787.891	405.84
788.073	330.06
788.254	432.46
788.435	379.22
788.616	405.84
788.797	364.88
788.978	434.51
789.159	348.5
789.34	385.36
789.522	385.36
789.703	418.13
789.884	440.65
790.065	397.65
790.246	403.79
790.427	381.26
790.607	377.17
790.788	438.61
790.969	391.5
791.15	313.68
791.331	381.26
791.512	368.98
791.693	354.64
791.874	379.22
792.054	350.54
792.235	393.55
792.416	379.22
792.597	393.55
792.778	291.15
792.958	391.5
793.139	307.54
793.32	276.82
793.5	356.69
793.681	342.35
793.862	364.88
794.042	315.73
794.223	399.7
794.404	366.93
794.584	203.09
794.765	364.88
794.945	266.58
795.126	317.78
795.306	348.5
795.487	348.5
795.667	248.15
795.848	246.1
796.028	328.02
796.209	340.3
796.389	285.01
796.57	350.54
796.75	317.78
796.93	266.58
797.111	301.39
797.291	188.75
797.471	321.87
797.652	332.11
797.832	291.15
798.012	244.05
798.192	246.1
798.373	194.9
798.553	303.44
798.733	260.43
798.913	299.34
799.093	248.15
799.274	260.43
799.454	246.1
799.634	254.29
799.814	235.86
799.994	205.14
800.174	258.39
800.354	225.62
800.534	233.81
800.714	262.48
800.894	233.81
801.074	244.05
801.254	287.06
801.434	256.34
801.614	170.32
801.794	334.16
801.974	741.71
802.154	176.47
802.334	297.3
802.514	250.19
802.693	186.71
802.873	305.49
803.053	278.87
803.233	217.43
803.413	178.51
803.592	196.95
803.772	217.43
803.952	272.72
804.131	217.43
804.311	209.23
804.491	287.06
804.67	162.13
804.85	184.66
805.03	328.02
805.209	268.63
805.389	164.18
805.568	209.23
805.748	188.75
805.928	293.2
806.107	184.66
806.287	172.37
806.466	201.04
806.646	160.08
806.825	192.85
807.004	219.47
807.184	276.82
807.363	254.29
807.543	139.6
807.722	209.23
807.901	227.67
808.081	262.48
808.26	117.08
808.439	203.09
808.619	217.43
808.798	151.89
808.977	160.08
809.156	225.62
809.336	248.15
809.515	190.8
809.694	121.17
809.873	145.75
810.052	182.61
810.231	198.99
810.411	127.32
810.59	266.58
810.769	135.51
810.948	258.39
811.127	125.27
811.306	139.6
811.485	246.1
811.664	270.67
811.843	244.05
812.022	201.04
812.201	211.28
812.38	170.32
812.559	174.42
812.737	221.52
812.916	88.4
813.095	162.13
813.274	190.8
813.453	201.04
813.632	104.79
813.811	180.56
813.989	145.75
814.168	129.36
814.347	78.16
814.526	145.75
814.704	201.04
814.883	168.27
815.062	127.32
815.24	217.43
815.419	104.79
815.598	151.89
815.776	239.95
815.955	182.61
816.133	43.35
816.312	121.17
816.49	151.89
816.669	184.66
816.847	123.22
817.026	110.93
817.204	108.88
817.383	164.18
817.561	201.04
817.74	151.89
817.918	221.52
818.097	57.68
818.275	178.51
818.453	164.18
818.632	160.08
818.81	104.79
818.988	133.46
819.167	119.12
819.345	164.18
819.523	129.36
819.701	168.27
819.879	82.26
820.058	121.17
820.236	168.27
820.414	192.85
820.592	147.8
820.77	153.94
820.948	94.55
821.127	151.89
821.305	108.88
821.483	106.84
821.661	211.28
821.839	90.45
822.017	176.47
822.195	108.88
822.373	61.78
822.551	129.36
822.729	57.68
822.907	153.94
823.085	106.84
823.262	102.74
823.44	49.49
823.618	123.22
823.796	104.79
823.974	69.97
824.152	155.99
824.329	145.75
824.507	51.54
824.685	153.94
824.863	96.6
825.04	123.22
825.218	115.03
825.396	94.55
825.574	55.64
825.751	119.12
825.929	145.75
826.107	74.07
826.284	131.41
826.462	82.26
826.639	26.96
826.817	57.68
826.994	104.79
827.172	94.55
827.349	110.93
827.527	104.79
827.704	69.97
827.882	115.03
828.059	24.92
828.237	110.93
828.414	155.99
828.591	137.56
828.769	119.12
828.946	53.59
829.124	61.78
829.301	123.22
829.478	102.74
829.655	110.93
829.833	143.7
830.01	4.44
830.187	145.75
830.364	29.01
830.542	98.64
830.719	131.41
830.896	121.17
831.073	158.03
831.25	153.94
831.427	115.03
831.604	41.3
831.782	78.16
831.959	119.12
832.136	108.88
832.313	80.21
832.49	16.73
832.667	102.74
832.844	45.4
833.021	106.84
833.198	76.12
833.374	131.41
833.551	102.74
833.728	129.36
833.905	147.8
834.082	-11.95
834.259	59.73
834.436	115.03
834.612	80.21
834.789	76.12
834.966	139.6
835.143	90.45
835.319	125.27
835.496	110.93
835.673	55.64
835.85	127.32
836.026	112.98
836.203	147.8
836.38	98.64
836.556	143.7
836.733	22.87
836.909	139.6
837.086	39.25
837.262	24.92
837.439	45.4
837.616	63.83
837.792	35.16
837.968	110.93
838.145	14.68
838.321	106.84
838.498	49.49
838.674	69.97
838.851	108.88
839.027	86.36
839.203	2.39
839.38	106.84
839.556	88.4
839.732	-7.85
839.909	104.79
840.085	110.93
840.261	119.12
840.437	0.34
840.614	74.07
840.79	108.88
840.966	80.21
841.142	82.26
841.318	14.68
841.494	80.21
841.671	57.68
841.847	0.34
842.023	92.5
842.199	51.54
842.375	72.02
842.551	84.31
842.727	37.2
842.903	182.61
843.079	24.92
843.255	80.21
843.431	59.73
843.607	110.93
843.783	29.01
843.959	112.98
844.134	69.97
844.31	94.55
844.486	61.78
844.662	96.6
844.838	115.03
845.013	72.02
845.189	-13.99
845.365	119.12
845.541	35.16
845.716	69.97
845.892	63.83
846.068	-7.85
846.244	-28.33
846.419	24.92
846.595	6.49
846.77	0.34
846.946	153.94
847.122	-1.71
847.297	78.16
847.473	102.74
847.648	0.34
847.824	59.73
847.999	8.53
848.175	33.11
848.35	84.31
848.526	102.74
848.701	20.82
848.876	115.03
849.052	45.4
849.227	41.3
849.403	155.99
849.578	92.5
849.753	22.87
849.929	57.68
850.104	22.87
850.279	63.83
850.454	92.5
850.63	2.39
850.805	69.97
850.98	12.63
851.155	14.68
851.33	98.64
851.505	24.92
851.681	117.08
851.856	29.01
852.031	125.27
852.206	0.34
852.381	65.88
852.556	41.3
852.731	80.21
852.906	67.92
853.081	29.01
853.256	108.88
853.431	22.87
853.606	26.96
853.781	106.84
853.956	6.49
854.131	14.68
854.305	59.73
854.48	84.31
854.655	51.54
854.83	-75.43
855.005	43.35
855.18	24.92
855.354	-3.75
855.529	65.88
855.704	-38.57
855.879	33.11
856.053	65.88
856.228	69.97
856.403	78.16
856.577	67.92
856.752	14.68
856.926	78.16
857.101	20.82
857.276	61.78
857.45	80.21
857.625	24.92
857.799	80.21
857.974	76.12
858.148	59.73
858.323	-11.95
858.497	43.35
858.672	29.01
858.846	-71.34
859.02	55.64
859.195	31.06
859.369	55.64
859.543	16.73
859.718	-38.57
859.892	63.83
860.066	12.63
860.241	-26.28
860.415	53.59
860.589	29.01
860.763	33.11
860.938	-36.52
861.112	55.64
861.286	-5.8
861.46	57.68
861.634	88.4
861.808	33.11
861.982	61.78
862.157	-48.81
862.331	55.64
862.505	-61.1
862.679	0.34
862.853	6.49
863.027	26.96
863.201	74.07
863.375	0.34
863.549	31.06
863.722	29.01
863.896	61.78
864.07	47.44
864.244	-36.52
864.418	-18.09
864.592	-3.75
864.766	8.53
864.939	63.83
865.113	51.54
865.287	45.4
865.461	76.12
865.634	67.92
865.808	-16.04
865.982	31.06
866.156	16.73
866.329	-28.33
866.503	-3.75
866.676	69.97
866.85	57.68
867.024	29.01
867.197	4.44
867.371	-18.09
867.544	-28.33
867.718	55.64
867.891	2.39
868.065	-20.14
868.238	35.16
868.412	84.31
868.585	49.49
868.759	4.44
868.932	24.92
869.105	24.92
869.279	20.82
869.452	8.53
869.625	35.16
869.799	-22.19
869.972	33.11
870.145	18.77
870.319	104.79
870.492	43.35
870.665	37.2
870.838	22.87
871.011	-32.43
871.185	12.63
871.358	-52.91
871.531	53.59
871.704	41.3
871.877	63.83
872.05	-26.28
872.223	35.16
872.396	0.34
872.569	22.87
872.742	6.49
872.915	80.21
873.088	33.11
873.261	-44.71
873.434	26.96
873.607	8.53
873.78	-44.71
873.953	-36.52
874.126	-3.75
874.299	-11.95
874.471	-42.67
874.644	16.73
874.817	29.01
874.99	96.6
875.163	31.06
875.335	33.11
875.508	-38.57
875.681	-36.52
875.853	24.92
876.026	18.77
876.199	-40.62
876.371	-11.95
876.544	35.16
876.717	6.49
876.889	-50.86
877.062	39.25
877.234	24.92
877.407	-42.67
877.579	18.77
877.752	22.87
877.924	31.06
878.097	31.06
878.269	-7.85
878.442	16.73
878.614	33.11
878.786	-3.75
878.959	69.97
879.131	-11.95
879.303	29.01
879.476	47.44
879.648	53.59
879.82	-26.28
879.993	37.2
880.165	29.01
880.337	45.4
880.509	-28.33
880.681	-13.99
880.854	-7.85
881.026	-36.52
881.198	39.25
881.37	35.16
881.542	-5.8
881.714	0.34
881.886	31.06
882.058	29.01
882.23	-36.52
882.402	33.11
882.574	6.49
882.746	12.63
882.918	78.16
883.09	43.35
883.262	22.87
883.434	20.82
883.606	12.63
883.778	53.59
883.95	-16.04
884.122	39.25
884.293	22.87
884.465	31.06
884.637	80.21
884.809	-11.95
884.98	45.4
885.152	6.49
885.324	4.44
885.496	10.58
885.667	-7.85
885.839	45.4
886.011	22.87
886.182	4.44
886.354	69.97
886.525	14.68
886.697	53.59
886.869	31.06
887.04	26.96
887.212	106.84
887.383	-9.9
887.555	14.68
887.726	-22.19
887.897	-13.99
888.069	86.36
888.24	-20.14
888.412	33.11
888.583	4.44
888.754	-30.38
888.926	-7.85
889.097	-61.1
889.268	-24.23
889.44	88.4
889.611	4.44
889.782	49.49
889.953	53.59
890.125	6.49
890.296	4.44
890.467	53.59
890.638	18.77
890.809	86.36
890.98	-3.75
891.151	45.4
891.323	72.02
891.494	0.34
891.665	12.63
891.836	29.01
892.007	-3.75
892.178	80.21
892.349	18.77
892.52	-46.76
892.691	20.82
892.862	-67.24
893.032	-1.71
893.203	14.68
893.374	-13.99
893.545	55.64
893.716	-38.57
893.887	61.78
894.057	-42.67
894.228	47.44
894.399	-28.33
894.57	63.83
894.74	20.82
894.911	26.96
895.082	18.77
895.253	20.82
895.423	22.87
895.594	8.53
895.764	-22.19
895.935	10.58
896.106	76.12
896.276	20.82
896.447	14.68
896.617	55.64
896.788	-26.28
896.958	43.35
897.129	29.01
897.299	-5.8
897.47	37.2
897.64	-5.8
897.81	33.11
897.981	-20.14
898.151	-34.47
898.322	31.06
898.492	-16.04
898.662	-36.52
898.832	-34.47
899.003	6.49
899.173	59.73
899.343	8.53
899.513	-1.71
