Data from USB4F104151__83__13-12-35-313.txt Node

Date: Fri Mar 14 13:12:35 EDT 2025
User: louis
Spectrometer: USB4F10415
Trigger mode: 4
Integration Time (sec): 2.000000E-2
Scans to average: 1
Electric dark correction enabled: true
Nonlinearity correction enabled: false
Boxcar width: 0
XAxis mode: Wavelengths
Number of Pixels in Spectrum: 3648
>>>>>Begin Spectral Data<<<<<
178.204	-85.16
178.424	-85.16
178.644	-85.16
178.864	-74.92
179.084	-109.74
179.304	37.72
179.524	19.29
179.744	-54.44
179.964	-29.87
180.184	-58.54
180.404	2.9
180.624	-68.78
180.844	4.95
181.064	82.77
181.283	2.9
181.503	62.29
181.723	-1.19
181.943	29.52
182.163	2.9
182.383	-25.77
182.602	35.67
182.822	-25.77
183.042	-9.39
183.262	7
183.482	23.38
183.701	19.29
183.921	2.9
184.141	-91.31
184.361	21.33
184.58	7
184.8	-58.54
185.02	-62.63
185.239	35.67
185.459	0.85
185.679	15.19
185.898	-40.11
186.118	-9.39
186.338	-21.67
186.557	4.95
186.777	-44.2
186.997	-17.58
187.216	25.43
187.436	35.67
187.655	33.62
187.875	17.24
188.095	9.05
188.314	35.67
188.534	19.29
188.753	-25.77
188.973	-11.43
189.192	-42.15
189.412	60.24
189.631	-27.82
189.851	-79.02
190.07	27.48
190.29	2.9
190.509	95.06
190.729	7
190.948	-76.97
191.168	7
191.387	2.9
191.607	27.48
191.826	4.95
192.045	-44.2
192.265	-19.63
192.484	58.2
192.704	78.68
192.923	-79.02
193.142	76.63
193.362	9.05
193.581	50
193.8	76.63
194.02	35.67
194.239	-38.06
194.458	-13.48
194.678	37.72
194.897	-19.63
195.116	-1.19
195.335	60.24
195.555	-7.34
195.774	-11.43
195.993	58.2
196.212	43.86
196.432	0.85
196.651	-19.63
196.87	-25.77
197.089	113.49
197.308	39.76
197.528	78.68
197.747	2.9
197.966	-27.82
198.185	-5.29
198.404	70.48
198.623	-70.83
198.842	21.33
199.062	58.2
199.281	64.34
199.5	-31.91
199.719	56.15
199.938	-7.34
200.157	43.86
200.376	-56.49
200.595	4.95
200.814	-46.25
201.033	29.52
201.252	27.48
201.471	90.96
201.69	7
201.909	7
202.128	-29.87
202.347	-13.48
202.566	39.76
202.785	-25.77
203.004	-15.53
203.223	129.88
203.442	9.05
203.661	-38.06
203.879	-3.24
204.098	93.01
204.317	-56.49
204.536	-15.53
204.755	-13.48
204.974	19.29
205.193	-3.24
205.411	58.2
205.63	-19.63
205.849	-21.67
206.068	35.67
206.287	7
206.505	52.05
206.724	35.67
206.943	-42.15
207.162	21.33
207.381	-3.24
207.599	-81.07
207.818	-36.01
208.037	-62.63
208.255	-36.01
208.474	2.9
208.693	7
208.911	15.19
209.13	29.52
209.349	-31.91
209.567	60.24
209.786	78.68
210.005	41.81
210.223	21.33
210.442	-72.87
210.661	50
210.879	-13.48
211.098	43.86
211.316	-44.2
211.535	-3.24
211.753	21.33
211.972	-29.87
212.191	35.67
212.409	41.81
212.628	-5.29
212.846	43.86
213.065	37.72
213.283	45.91
213.502	13.14
213.72	19.29
213.938	17.24
214.157	21.33
214.375	-9.39
214.594	-13.48
214.812	60.24
215.031	27.48
215.249	-3.24
215.467	27.48
215.686	-23.72
215.904	-3.24
216.122	-15.53
216.341	13.14
216.559	27.48
216.778	37.72
216.996	17.24
217.214	60.24
217.432	39.76
217.651	97.11
217.869	35.67
218.087	29.52
218.306	-17.58
218.524	60.24
218.742	33.62
218.96	2.9
219.179	-46.25
219.397	37.72
219.615	21.33
219.833	-19.63
220.051	-11.43
220.27	70.48
220.488	-64.68
220.706	27.48
220.924	4.95
221.142	41.81
221.36	-13.48
221.578	25.43
221.796	7
222.015	-42.15
222.233	43.86
222.451	11.09
222.669	-23.72
222.887	-36.01
223.105	-9.39
223.323	52.05
223.541	52.05
223.759	9.05
223.977	13.14
224.195	-1.19
224.413	2.9
224.631	-17.58
224.849	23.38
225.067	78.68
225.285	2.9
225.503	-27.82
225.721	-44.2
225.939	-9.39
226.157	23.38
226.375	97.11
226.592	-50.35
226.81	13.14
227.028	-19.63
227.246	60.24
227.464	25.43
227.682	-5.29
227.9	62.29
228.117	-3.24
228.335	15.19
228.553	47.96
228.771	-76.97
228.989	-15.53
229.206	23.38
229.424	-33.96
229.642	11.09
229.86	19.29
230.077	7
230.295	-9.39
230.513	17.24
230.731	35.67
230.948	33.62
231.166	45.91
231.384	-23.72
231.601	82.77
231.819	7
232.037	-1.19
232.254	-36.01
232.472	-54.44
232.689	27.48
232.907	7
233.125	52.05
233.342	-29.87
233.56	-27.82
233.777	-5.29
233.995	76.63
234.213	0.85
234.43	33.62
234.648	-58.54
234.865	-23.72
235.083	2.9
235.3	-1.19
235.518	23.38
235.735	-25.77
235.953	60.24
236.17	-19.63
236.388	-23.72
236.605	-29.87
236.822	37.72
237.04	-7.34
237.257	-62.63
237.475	-21.67
237.692	-40.11
237.909	7
238.127	39.76
238.344	27.48
238.562	-15.53
238.779	-74.92
238.996	21.33
239.214	-38.06
239.431	39.76
239.648	23.38
239.865	-42.15
240.083	64.34
240.3	-115.88
240.517	41.81
240.735	4.95
240.952	21.33
241.169	-1.19
241.386	25.43
241.603	-7.34
241.821	-19.63
242.038	64.34
242.255	19.29
242.472	-107.69
242.689	-54.44
242.907	21.33
243.124	76.63
243.341	-9.39
243.558	21.33
243.775	-70.83
243.992	2.9
244.209	56.15
244.426	-36.01
244.643	23.38
244.86	-23.72
245.078	-48.3
245.295	11.09
245.512	72.53
245.729	21.33
245.946	35.67
246.163	21.33
246.38	19.29
246.597	-19.63
246.814	52.05
247.031	-40.11
247.248	-46.25
247.464	54.1
247.681	-27.82
247.898	-48.3
248.115	-21.67
248.332	19.29
248.549	39.76
248.766	90.96
248.983	11.09
249.2	-38.06
249.417	45.91
249.633	-42.15
249.85	-27.82
250.067	-44.2
250.284	15.19
250.501	-44.2
250.717	0.85
250.934	-29.87
251.151	-103.59
251.368	54.1
251.585	111.44
251.801	41.81
252.018	-46.25
252.235	-36.01
252.451	-38.06
252.668	-60.59
252.885	-46.25
253.102	29.52
253.318	21.33
253.535	15.19
253.752	7
253.968	25.43
254.185	-44.2
254.401	2.9
254.618	62.29
254.835	-27.82
255.051	19.29
255.268	11.09
255.484	43.86
255.701	-25.77
255.917	50
256.134	-68.78
256.351	2.9
256.567	78.68
256.784	-11.43
257	0.85
257.217	45.91
257.433	39.76
257.65	11.09
257.866	21.33
258.082	-13.48
258.299	-7.34
258.515	-79.02
258.732	-3.24
258.948	-19.63
259.165	27.48
259.381	21.33
259.597	70.48
259.814	-1.19
260.03	-25.77
260.246	-17.58
260.463	86.87
260.679	33.62
260.895	-19.63
261.112	-33.96
261.328	-50.35
261.544	15.19
261.761	52.05
261.977	9.05
262.193	-50.35
262.409	13.14
262.626	-91.31
262.842	-9.39
263.058	-79.02
263.274	29.52
263.49	-11.43
263.707	4.95
263.923	-70.83
264.139	-11.43
264.355	21.33
264.571	23.38
264.787	66.39
265.004	-13.48
265.22	50
265.436	4.95
265.652	101.2
265.868	-27.82
266.084	25.43
266.3	-48.3
266.516	56.15
266.732	-42.15
266.948	23.38
267.164	-3.24
267.38	-11.43
267.596	45.91
267.812	78.68
268.028	-7.34
268.244	-21.67
268.46	-3.24
268.676	-25.77
268.892	37.72
269.108	-33.96
269.324	-115.88
269.54	-7.34
269.756	-19.63
269.972	2.9
270.188	15.19
270.403	-7.34
270.619	21.33
270.835	-38.06
271.051	-9.39
271.267	0.85
271.483	-13.48
271.698	-3.24
271.914	-60.59
272.13	60.24
272.346	19.29
272.562	23.38
272.777	70.48
272.993	-50.35
273.209	-11.43
273.425	-3.24
273.64	-38.06
273.856	-11.43
274.072	-3.24
274.287	-50.35
274.503	4.95
274.719	13.14
274.934	-1.19
275.15	-19.63
275.366	9.05
275.581	-46.25
275.797	-29.87
276.012	-29.87
276.228	2.9
276.444	-5.29
276.659	13.14
276.875	-7.34
277.09	-27.82
277.306	-40.11
277.521	21.33
277.737	-3.24
277.952	27.48
278.168	27.48
278.383	2.9
278.599	-11.43
278.814	-25.77
279.03	4.95
279.245	-1.19
279.461	-25.77
279.676	13.14
279.892	-1.19
280.107	35.67
280.322	-21.67
280.538	27.48
280.753	13.14
280.969	-11.43
281.184	-19.63
281.399	95.06
281.615	56.15
281.83	-19.63
282.045	-5.29
282.26	-50.35
282.476	-23.72
282.691	-62.63
282.906	-42.15
283.122	78.68
283.337	31.57
283.552	17.24
283.767	-11.43
283.983	-52.39
284.198	13.14
284.413	58.2
284.628	-46.25
284.843	15.19
285.058	11.09
285.274	50
285.489	21.33
285.704	-42.15
285.919	-56.49
286.134	-3.24
286.349	-17.58
286.564	13.14
286.779	70.48
286.995	-42.15
287.21	-54.44
287.425	-5.29
287.64	-60.59
287.855	-17.58
288.07	-36.01
288.285	25.43
288.5	27.48
288.715	23.38
288.93	-11.43
289.145	15.19
289.36	9.05
289.575	13.14
289.79	31.57
290.004	-54.44
290.219	27.48
290.434	74.58
290.649	11.09
290.864	-107.69
291.079	-54.44
291.294	-11.43
291.509	19.29
291.724	11.09
291.938	-79.02
292.153	4.95
292.368	-38.06
292.583	99.16
292.798	11.09
293.012	27.48
293.227	2.9
293.442	43.86
293.657	105.3
293.871	50
294.086	37.72
294.301	88.92
294.516	-15.53
294.73	72.53
294.945	-52.39
295.16	4.95
295.374	52.05
295.589	68.44
295.804	-9.39
296.018	37.72
296.233	15.19
296.447	9.05
296.662	-46.25
296.877	-21.67
297.091	37.72
297.306	-21.67
297.52	19.29
297.735	31.57
297.949	0.85
298.164	-15.53
298.378	4.95
298.593	-29.87
298.807	-36.01
299.022	-36.01
299.236	39.76
299.451	-17.58
299.665	39.76
299.88	-91.31
300.094	58.2
300.309	31.57
300.523	-3.24
300.737	-5.29
300.952	-21.67
301.166	-13.48
301.381	-21.67
301.595	-13.48
301.809	-48.3
302.024	-95.4
302.238	-25.77
302.452	7
302.667	-9.39
302.881	13.14
303.095	35.67
303.309	54.1
303.524	-97.45
303.738	-44.2
303.952	-38.06
304.166	17.24
304.381	-56.49
304.595	41.81
304.809	47.96
305.023	33.62
305.237	84.82
305.452	-54.44
305.666	52.05
305.88	25.43
306.094	-25.77
306.308	62.29
306.522	-33.96
306.736	29.52
306.95	21.33
307.164	15.19
307.379	29.52
307.593	37.72
307.807	-36.01
308.021	66.39
308.235	11.09
308.449	-9.39
308.663	31.57
308.877	0.85
309.091	-11.43
309.305	43.86
309.519	-48.3
309.733	-50.35
309.947	-50.35
310.161	-27.82
310.374	23.38
310.588	33.62
310.802	-56.49
311.016	-70.83
311.23	29.52
311.444	-13.48
311.658	68.44
311.872	76.63
312.085	-17.58
312.299	70.48
312.513	21.33
312.727	37.72
312.941	-5.29
313.154	68.44
313.368	-42.15
313.582	50
313.796	-7.34
314.009	-25.77
314.223	-36.01
314.437	21.33
314.651	-3.24
314.864	-38.06
315.078	11.09
315.292	-42.15
315.505	47.96
315.719	11.09
315.933	60.24
316.146	-5.29
316.36	-52.39
316.573	7
316.787	27.48
317.001	-23.72
317.214	-5.29
317.428	0.85
317.641	-54.44
317.855	41.81
318.068	66.39
318.282	-9.39
318.495	47.96
318.709	29.52
318.922	43.86
319.136	2.9
319.349	-17.58
319.563	-25.77
319.776	-21.67
319.99	-3.24
320.203	-38.06
320.417	21.33
320.63	33.62
320.843	-19.63
321.057	-9.39
321.27	13.14
321.483	-5.29
321.697	37.72
321.91	86.87
322.124	-33.96
322.337	56.15
322.55	13.14
322.763	-5.29
322.977	-29.87
323.19	-68.78
323.403	25.43
323.617	-46.25
323.83	68.44
324.043	43.86
324.256	-29.87
324.469	-52.39
324.683	78.68
324.896	7
325.109	43.86
325.322	-36.01
325.535	68.44
325.748	-21.67
325.962	-126.12
326.175	-23.72
326.388	62.29
326.601	19.29
326.814	4.95
327.027	29.52
327.24	-1.19
327.453	-7.34
327.666	27.48
327.879	31.57
328.092	45.91
328.305	45.91
328.518	-66.73
328.731	25.43
328.944	21.33
329.157	-15.53
329.37	11.09
329.583	27.48
329.796	64.34
330.009	35.67
330.222	45.91
330.435	19.29
330.648	29.52
330.861	-50.35
331.073	-19.63
331.286	-21.67
331.499	-31.91
331.712	60.24
331.925	-54.44
332.138	-62.63
332.35	-36.01
332.563	-48.3
332.776	31.57
332.989	-29.87
333.202	23.38
333.414	-25.77
333.627	-21.67
333.84	-3.24
334.053	-29.87
334.265	-54.44
334.478	52.05
334.691	-17.58
334.903	2.9
335.116	-56.49
335.329	-9.39
335.541	0.85
335.754	13.14
335.966	-5.29
336.179	31.57
336.392	-44.2
336.604	21.33
336.817	11.09
337.029	27.48
337.242	35.67
337.454	-25.77
337.667	-23.72
337.88	2.9
338.092	60.24
338.305	-27.82
338.517	47.96
338.729	13.14
338.942	-56.49
339.154	-58.54
339.367	-52.39
339.579	-13.48
339.792	-83.11
340.004	17.24
340.217	-40.11
340.429	27.48
340.641	31.57
340.854	-52.39
341.066	-9.39
341.278	-31.91
341.491	-40.11
341.703	84.82
341.915	-29.87
342.128	45.91
342.34	-3.24
342.552	0.85
342.764	-29.87
342.977	-17.58
343.189	-23.72
343.401	27.48
343.613	-91.31
343.826	39.76
344.038	-11.43
344.25	-11.43
344.462	-46.25
344.674	-31.91
344.886	13.14
345.099	70.48
345.311	66.39
345.523	-36.01
345.735	11.09
345.947	23.38
346.159	-3.24
346.371	-46.25
346.583	19.29
346.795	-38.06
347.007	9.05
347.219	23.38
347.431	-9.39
347.643	76.63
347.855	-50.35
348.067	-25.77
348.279	13.14
348.491	-7.34
348.703	23.38
348.915	-42.15
349.127	41.81
349.339	2.9
349.551	-54.44
349.763	37.72
349.975	-48.3
350.187	-44.2
350.399	9.05
350.61	-11.43
350.822	-46.25
351.034	-1.19
351.246	2.9
351.458	-1.19
351.669	9.05
351.881	-25.77
352.093	-29.87
352.305	0.85
352.517	27.48
352.728	11.09
352.94	-11.43
353.152	54.1
353.363	-3.24
353.575	11.09
353.787	-52.39
353.999	25.43
354.21	-5.29
354.422	-48.3
354.633	-38.06
354.845	-31.91
355.057	15.19
355.268	43.86
355.48	-17.58
355.692	52.05
355.903	15.19
356.115	-42.15
356.326	-101.55
356.538	64.34
356.749	27.48
356.961	45.91
357.172	-13.48
357.384	-31.91
357.595	27.48
357.807	13.14
358.018	-9.39
358.23	37.72
358.441	-1.19
358.653	-68.78
358.864	-74.92
359.075	27.48
359.287	-68.78
359.498	52.05
359.709	93.01
359.921	-25.77
360.132	60.24
360.344	-13.48
360.555	-13.48
360.766	-5.29
360.977	-36.01
361.189	15.19
361.4	68.44
361.611	47.96
361.823	47.96
362.034	21.33
362.245	54.1
362.456	-46.25
362.667	45.91
362.879	-19.63
363.09	-21.67
363.301	-25.77
363.512	11.09
363.723	-9.39
363.935	-7.34
364.146	-38.06
364.357	-5.29
364.568	50
364.779	-79.02
364.99	11.09
365.201	-27.82
365.412	-66.73
365.623	-33.96
365.834	-7.34
366.045	-21.67
366.256	-33.96
366.467	7
366.678	-7.34
366.889	2.9
367.1	-66.73
367.311	-31.91
367.522	-9.39
367.733	29.52
367.944	2.9
368.155	-36.01
368.366	-66.73
368.577	45.91
368.788	90.96
368.999	-72.87
369.209	64.34
369.42	62.29
369.631	113.49
369.842	-29.87
370.053	23.38
370.264	15.19
370.474	-62.63
370.685	35.67
370.896	13.14
371.107	62.29
371.317	27.48
371.528	64.34
371.739	86.87
371.95	0.85
372.16	-9.39
372.371	-46.25
372.582	9.05
372.792	-1.19
373.003	-5.29
373.214	-11.43
373.424	-21.67
373.635	0.85
373.846	74.58
374.056	13.14
374.267	2.9
374.477	35.67
374.688	-13.48
374.898	39.76
375.109	45.91
375.319	-89.26
375.53	33.62
375.74	-33.96
375.951	43.86
376.161	4.95
376.372	-25.77
376.582	47.96
376.793	-19.63
377.003	39.76
377.214	-27.82
377.424	-3.24
377.635	17.24
377.845	23.38
378.055	-3.24
378.266	-19.63
378.476	21.33
378.686	13.14
378.897	-54.44
379.107	7
379.317	19.29
379.528	-7.34
379.738	58.2
379.948	-29.87
380.158	84.82
380.369	-38.06
380.579	13.14
380.789	-15.53
380.999	23.38
381.21	-11.43
381.42	31.57
381.63	-42.15
381.84	13.14
382.05	-19.63
382.261	-33.96
382.471	9.05
382.681	27.48
382.891	-13.48
383.101	19.29
383.311	-27.82
383.521	-17.58
383.731	-38.06
383.941	58.2
384.151	4.95
384.361	54.1
384.571	2.9
384.781	50
384.991	41.81
385.201	4.95
385.411	31.57
385.621	29.52
385.831	-36.01
386.041	27.48
386.251	-27.82
386.461	84.82
386.671	15.19
386.881	-17.58
387.091	-23.72
387.301	-23.72
387.511	-27.82
387.72	27.48
387.93	-5.29
388.14	-9.39
388.35	-5.29
388.56	19.29
388.769	21.33
388.979	47.96
389.189	-21.67
389.399	25.43
389.609	-11.43
389.818	23.38
390.028	13.14
390.238	58.2
390.447	13.14
390.657	56.15
390.867	-23.72
391.076	13.14
391.286	-36.01
391.496	13.14
391.705	-36.01
391.915	23.38
392.125	33.62
392.334	31.57
392.544	45.91
392.753	-13.48
392.963	86.87
393.172	76.63
393.382	78.68
393.591	72.53
393.801	4.95
394.01	13.14
394.22	-13.48
394.429	-29.87
394.639	-23.72
394.848	19.29
395.058	-33.96
395.267	29.52
395.477	-1.19
395.686	37.72
395.895	64.34
396.105	43.86
396.314	-46.25
396.524	19.29
396.733	-44.2
396.942	-3.24
397.152	-50.35
397.361	43.86
397.57	13.14
397.78	62.29
397.989	39.76
398.198	29.52
398.407	43.86
398.617	4.95
398.826	-19.63
399.035	31.57
399.244	21.33
399.453	15.19
399.663	-60.59
399.872	62.29
400.081	31.57
400.29	29.52
400.499	-21.67
400.708	60.24
400.917	70.48
401.127	-54.44
401.336	-1.19
401.545	29.52
401.754	-5.29
401.963	-11.43
402.172	-9.39
402.381	15.19
402.59	-1.19
402.799	31.57
403.008	11.09
403.217	-95.4
403.426	-1.19
403.635	-9.39
403.844	9.05
404.053	-29.87
404.262	-72.87
404.471	21.33
404.68	11.09
404.888	-5.29
405.097	7
405.306	-46.25
405.515	25.43
405.724	-89.26
405.933	11.09
406.142	13.14
406.35	86.87
406.559	-15.53
406.768	72.53
406.977	19.29
407.185	72.53
407.394	-3.24
407.603	7
407.812	19.29
408.02	-5.29
408.229	-42.15
408.438	25.43
408.646	47.96
408.855	-11.43
409.064	29.52
409.272	-60.59
409.481	56.15
409.69	2.9
409.898	-60.59
410.107	-52.39
410.315	39.76
410.524	-9.39
410.733	-1.19
410.941	43.86
411.15	-33.96
411.358	15.19
411.567	37.72
411.775	-15.53
411.984	7
412.192	0.85
412.401	21.33
412.609	35.67
412.818	47.96
413.026	31.57
413.234	15.19
413.443	35.67
413.651	4.95
413.86	-66.73
414.068	35.67
414.276	19.29
414.485	11.09
414.693	58.2
414.901	11.09
415.11	17.24
415.318	9.05
415.526	-1.19
415.734	43.86
415.943	-11.43
416.151	-17.58
416.359	41.81
416.567	4.95
416.776	29.52
416.984	21.33
417.192	56.15
417.4	9.05
417.608	39.76
417.817	45.91
418.025	31.57
418.233	109.4
418.441	15.19
418.649	2.9
418.857	19.29
419.065	88.92
419.273	31.57
419.481	29.52
419.689	56.15
419.897	47.96
420.105	4.95
420.313	86.87
420.521	117.59
420.729	37.72
420.937	-17.58
421.145	80.72
421.353	95.06
421.561	142.16
421.769	138.07
421.977	52.05
422.185	90.96
422.393	47.96
422.601	119.64
422.809	136.02
423.017	172.88
423.224	133.97
423.432	127.83
423.64	150.36
423.848	168.79
424.056	191.31
424.263	174.93
424.471	187.22
424.679	160.59
424.887	129.88
425.094	275.28
425.302	246.61
425.51	179.03
425.718	256.85
425.925	211.79
426.133	222.03
426.341	389.97
426.548	371.54
426.756	340.82
426.964	349.01
427.171	361.3
427.379	379.73
427.586	310.1
427.794	437.07
428.001	420.69
428.209	365.39
428.417	553.8
428.624	480.08
428.832	547.66
429.039	541.52
429.247	562
429.454	596.81
429.662	699.21
429.869	691.02
430.076	713.55
430.284	727.88
430.491	684.87
430.699	828.23
430.906	791.37
431.114	783.18
431.321	887.62
431.528	830.28
431.736	877.38
431.943	973.64
432.15	920.39
432.358	979.78
432.565	1049.41
432.772	957.25
432.979	990.02
433.187	1127.24
433.394	1190.72
433.601	1317.7
433.808	1246.02
434.016	1282.88
434.223	1182.53
434.43	1334.08
434.637	1340.22
434.844	1329.99
435.052	1438.53
435.259	1418.05
435.466	1411.9
435.673	1405.76
435.88	1477.44
436.087	1618.75
436.294	1563.45
436.501	1510.21
436.708	1643.32
436.915	1643.32
437.122	1665.85
437.329	1786.68
437.537	1774.39
437.743	1786.68
437.95	1753.91
438.157	1870.65
438.364	1891.13
438.571	1985.34
438.778	2028.34
438.985	2167.6
439.192	1993.53
439.399	2100.02
439.606	2165.56
439.813	2208.56
440.02	2444.08
440.227	2394.93
440.433	2341.68
440.64	2468.66
440.847	2356.02
441.054	2485.04
441.261	2650.92
441.467	2577.2
441.674	2593.58
441.881	2693.93
442.088	2607.92
442.294	2640.69
442.501	2691.88
442.708	2757.42
442.914	2913.06
443.121	3003.18
443.328	2814.76
443.534	3287.84
443.741	3046.18
443.948	2960.17
444.154	3197.73
444.361	3355.43
444.568	3347.23
444.774	3240.74
444.981	3310.37
445.187	3468.06
445.394	3552.03
445.6	3496.74
445.807	3840.79
446.013	3838.75
446.22	3738.4
446.426	3975.96
446.633	3982.1
446.839	4059.93
447.046	3693.34
447.252	4127.51
447.459	4107.03
447.665	4094.74
447.871	4279.06
448.078	4487.95
448.284	4387.6
448.491	4504.34
448.697	4573.97
448.903	4668.17
449.11	4770.57
449.316	4649.74
449.522	4637.45
449.728	4979.47
449.935	4795.15
450.141	4870.92
450.347	5006.09
450.553	4832.01
450.76	4877.07
450.966	5229.32
451.172	5016.33
451.378	5040.9
451.584	5008.14
451.791	5206.79
451.997	5180.17
452.203	5167.88
452.409	5141.25
452.615	5380.87
452.821	5018.38
453.027	5042.95
453.233	5208.84
453.44	4958.99
453.646	5088.01
453.852	5071.62
454.058	5169.93
454.264	4973.32
454.47	5153.54
454.676	5141.25
454.882	5401.35
455.088	4934.41
455.294	4883.21
455.5	4915.98
455.705	5040.9
455.911	4981.51
456.117	4700.94
456.323	4678.41
456.529	4344.6
456.735	4721.42
456.941	4414.23
457.147	4487.95
457.352	4260.63
457.558	4152.09
457.764	4293.4
457.97	4299.54
458.176	4191
458.381	4088.6
458.587	3994.39
458.793	3935
458.999	3586.85
459.204	3930.91
459.41	3754.78
459.616	3590.94
459.821	3648.29
460.027	3670.81
460.233	3541.79
460.438	3451.68
460.644	3451.68
460.85	3248.93
461.055	3267.36
461.261	3259.17
461.466	2915.11
461.672	2892.59
461.878	3070.76
462.083	2767.66
462.289	2779.95
462.494	2845.48
462.7	2730.8
462.905	2517.81
463.111	2591.53
463.316	2728.75
463.522	2728.75
463.727	2587.44
463.932	2628.4
464.138	2636.59
464.343	2659.12
464.549	2478.9
464.754	2575.15
464.959	2628.4
465.165	2585.39
465.37	2444.08
465.575	2360.11
465.781	2403.12
465.986	2550.57
466.191	2403.12
466.397	2372.4
466.602	2257.71
466.807	2304.82
467.012	2306.87
467.218	2401.07
467.423	2308.91
467.628	2296.63
467.833	2298.67
468.038	2454.32
468.244	2272.05
468.449	2319.15
468.654	2333.49
468.859	2347.83
469.064	2329.39
469.269	2233.14
469.474	2216.76
469.679	2290.48
469.885	2159.41
470.09	2222.9
470.295	2194.23
470.5	2106.17
470.705	2243.38
470.91	2077.49
471.115	2140.98
471.32	2067.25
471.525	2022.2
471.73	2054.97
471.935	2001.72
472.139	1915.7
472.344	1964.86
472.549	1940.28
472.754	1934.14
472.959	1950.52
473.164	1825.59
473.369	1948.47
473.574	2077.49
473.778	1846.07
473.983	1880.89
474.188	1776.44
474.393	1682.24
474.598	1776.44
474.802	1868.6
475.007	1782.59
475.212	1651.52
475.417	1672
475.621	1678.14
475.826	1626.94
476.031	1723.2
476.235	1553.21
476.44	1774.39
476.645	1700.67
476.849	1585.98
477.054	1510.21
477.259	1573.69
477.463	1602.36
477.668	1598.27
477.872	1600.32
478.077	1555.26
478.282	1370.94
478.486	1526.59
478.691	1479.49
478.895	1467.2
479.1	1411.9
479.304	1499.97
479.509	1432.38
479.713	1385.28
479.918	1469.25
480.122	1413.95
480.326	1405.76
480.531	1444.67
480.735	1395.52
480.94	1313.6
481.144	1456.96
481.348	1403.71
481.553	1340.22
481.757	1305.41
481.961	1393.47
482.166	1395.52
482.37	1356.61
482.574	1272.64
482.778	1315.65
482.983	1405.76
483.187	1389.38
483.391	1469.25
483.595	1461.06
483.8	1274.69
484.004	1372.99
484.208	1325.89
484.412	1422.14
484.616	1391.42
484.821	1248.07
485.025	1172.29
485.229	1340.22
485.433	1256.26
485.637	1350.46
485.841	1348.42
486.045	1348.42
486.249	1325.89
486.453	1276.74
486.657	1338.18
486.861	1413.95
487.065	1233.73
487.269	1336.13
487.473	1289.03
487.677	1317.7
487.881	1375.04
488.085	1368.9
488.289	1372.99
488.493	1338.18
488.697	1428.29
488.901	1422.14
489.105	1313.6
489.309	1311.55
489.512	1303.36
489.716	1416
489.92	1282.88
490.124	1342.27
490.328	1368.9
490.531	1456.96
490.735	1399.62
490.939	1377.09
491.143	1473.34
491.346	1338.18
491.55	1426.24
491.754	1329.99
491.958	1362.75
492.161	1430.34
492.365	1473.34
492.569	1461.06
492.772	1444.67
492.976	1561.41
493.18	1489.73
493.383	1540.93
493.587	1434.43
493.79	1432.38
493.994	1348.42
494.197	1502.01
494.401	1549.12
494.605	1438.53
494.808	1522.49
495.012	1553.21
495.215	1575.74
495.419	1583.93
495.622	1663.8
495.825	1583.93
496.029	1628.99
496.232	1653.56
496.436	1604.41
496.639	1717.05
496.843	1684.28
497.046	1704.76
497.249	1772.35
497.453	1805.11
497.656	1721.15
497.859	1725.24
498.063	1784.63
498.266	1841.98
498.469	1758.01
498.673	1778.49
498.876	1870.65
499.079	1950.52
499.282	1897.27
499.485	1923.9
499.689	1944.38
499.892	2001.72
500.095	1973.05
500.298	2018.1
500.501	2020.15
500.705	2038.58
500.908	1989.43
501.111	2007.86
501.314	2147.12
501.517	2126.64
501.72	2173.75
501.923	2100.02
502.126	2192.18
502.329	2411.31
502.532	2149.17
502.735	2290.48
502.938	2493.23
503.141	2263.86
503.344	2417.46
503.547	2519.85
503.75	2474.8
503.953	2403.12
504.156	2433.84
504.359	2515.76
504.562	2558.77
504.765	2556.72
504.968	2579.25
505.17	2732.84
505.373	2581.29
505.576	2724.65
505.779	2751.28
505.982	2753.32
506.185	2806.57
506.387	2833.19
506.59	2927.4
506.793	2837.29
506.996	2855.72
507.198	2997.03
507.401	2927.4
507.604	2974.5
507.807	2976.55
508.009	3164.97
508.212	3144.49
508.415	3140.39
508.617	3207.97
508.82	3148.58
509.022	3302.18
509.225	3234.6
509.428	3388.19
509.63	3265.32
509.833	3418.91
510.035	3353.38
510.238	3427.11
510.44	3457.82
510.643	3681.05
510.845	3679.01
511.048	3650.33
511.25	3648.29
511.453	3574.56
511.655	3687.2
511.858	3812.12
512.06	3820.32
512.262	3832.6
512.465	3834.65
512.667	3861.27
512.87	3975.96
513.072	3896.09
513.274	4160.28
513.477	3889.95
513.679	4125.46
513.881	4205.33
514.084	4311.83
514.286	4229.91
514.488	4283.16
514.69	4514.58
514.893	4432.66
515.095	4510.48
515.297	4451.09
515.499	4426.51
515.701	4375.31
515.904	4573.97
516.106	4666.13
516.308	4797.2
516.51	4844.3
516.712	4885.26
516.914	4883.21
517.116	5073.67
517.318	4918.03
517.52	5139.21
517.722	5098.25
517.925	5124.87
518.127	5188.36
518.329	5303.04
518.531	5237.51
518.733	5241.61
518.935	5520.13
519.136	5352.2
519.338	5370.63
519.54	5475.07
519.742	5470.98
519.944	5729.02
520.146	5743.36
520.348	5767.93
520.55	5733.12
520.752	5759.74
520.954	5778.17
521.155	5911.29
521.357	5972.73
521.559	6030.07
521.761	6148.86
521.963	6025.98
522.164	6146.81
522.366	6290.17
522.568	6247.16
522.77	6388.47
522.971	6390.52
523.173	6437.62
523.375	6404.85
523.576	6468.34
523.778	6406.9
523.98	6525.68
524.181	6523.63
524.383	6699.76
524.584	6707.95
524.786	6818.54
524.988	6798.06
525.189	6957.8
525.391	6886.12
525.592	7004.91
525.794	6947.56
525.995	7056.11
526.197	7088.87
526.398	7033.58
526.6	7109.35
526.801	7006.95
527.003	7273.19
527.204	7342.82
527.406	7303.91
527.607	7273.19
527.808	7232.23
528.01	7303.91
528.211	7254.76
528.412	7461.6
528.614	7451.36
528.815	7516.9
529.016	7508.71
529.218	7533.28
529.419	7647.97
529.62	7600.87
529.822	7658.21
530.023	7736.03
530.224	7647.97
530.425	7477.99
530.626	7652.06
530.828	7543.52
531.029	7660.26
531.23	7719.65
531.431	7688.93
531.632	7738.08
531.833	7600.87
532.035	7764.7
532.236	7660.26
532.437	7924.44
532.638	7752.42
532.839	7830.24
533.04	7883.49
533.241	7768.8
533.442	7989.98
533.643	7809.76
533.844	7850.72
534.045	7992.03
534.246	7793.37
534.447	7850.72
534.648	7858.91
534.849	7817.95
535.05	7940.83
535.251	7975.64
535.451	7967.45
535.652	8053.47
535.853	7903.96
536.054	7908.06
536.255	7916.25
536.456	7914.2
536.657	8049.37
536.857	7946.97
537.058	8012.51
537.259	7916.25
537.46	8043.23
537.66	7998.17
537.861	8104.67
538.062	8121.05
538.263	8028.89
538.463	7881.44
538.664	7930.59
538.865	7957.21
539.065	8037.08
539.266	7934.68
539.466	8008.41
539.667	7985.88
539.868	8178.39
540.068	7879.39
540.269	8039.13
540.469	8024.79
540.67	7903.96
540.87	7992.03
541.071	7903.96
541.271	7908.06
541.472	7961.31
541.672	8053.47
541.873	7908.06
542.073	7641.82
542.274	7934.68
542.474	7891.68
542.675	7869.15
542.875	7992.03
543.075	7801.57
543.276	7785.18
543.476	8041.18
543.676	7944.92
543.877	7926.49
544.077	8063.71
544.277	8028.89
544.478	7834.33
544.678	7746.27
544.878	8090.33
545.078	8043.23
545.279	7916.25
545.479	7887.58
545.679	8090.33
545.879	7828.19
546.079	7828.19
546.28	8139.48
546.48	7727.84
546.68	8024.79
546.88	7987.93
547.08	8018.65
547.28	7924.44
547.48	7885.53
547.68	7789.28
547.88	7787.23
548.081	8096.47
548.281	7787.23
548.481	7854.81
548.681	8041.18
548.881	8123.1
549.081	7996.12
549.28	7985.88
549.48	7936.73
549.68	7873.25
549.88	8071.9
550.08	7916.25
550.28	7953.12
550.48	8004.32
550.68	8037.08
550.88	8065.75
551.08	8102.62
551.279	7822.05
551.479	7889.63
551.679	7957.21
551.879	7936.73
552.079	7883.49
552.278	7992.03
552.478	8092.38
552.678	7875.29
552.878	7918.3
553.077	8012.51
553.277	7924.44
553.477	7996.12
553.676	8002.27
553.876	8041.18
554.076	7879.39
554.275	7887.58
554.475	7867.1
554.674	7656.16
554.874	7850.72
555.074	7912.16
555.273	7826.14
555.473	7885.53
555.672	7580.39
555.872	7795.42
556.071	7826.14
556.271	8004.32
556.47	7647.97
556.67	7674.59
556.869	7910.11
557.068	7879.39
557.268	7836.38
557.467	7865.05
557.667	7645.92
557.866	7719.65
558.065	7664.35
558.265	7322.34
558.464	7582.43
558.663	7852.77
558.863	7482.08
559.062	7672.54
559.261	7611.11
559.461	7482.08
559.66	7475.94
559.859	7697.12
560.058	7529.19
560.258	7674.59
560.457	7629.54
560.656	7525.09
560.855	7498.47
561.054	7625.44
561.253	7584.48
561.453	7508.71
561.652	7471.84
561.851	7533.28
562.05	7394.02
562.249	7453.41
562.448	7451.36
562.647	7387.88
562.846	7310.05
563.045	7406.31
563.244	7338.73
563.443	7510.75
563.642	7193.32
563.841	7244.52
564.04	7207.66
564.239	7418.6
564.438	7301.86
564.637	7275.24
564.836	7240.42
565.035	7232.23
565.234	7213.8
565.432	7080.68
565.631	7314.15
565.83	7289.57
566.029	7183.08
566.228	7174.89
566.427	7138.02
566.625	6867.69
566.824	6990.57
567.023	7072.49
567.222	7045.87
567.42	6970.09
567.619	7009
567.818	6841.07
568.016	6966
568.215	6949.61
568.414	6869.74
568.612	7031.53
568.811	6765.29
569.01	6806.25
569.208	6589.17
569.407	6949.61
569.605	6875.88
569.804	6701.81
570.002	6695.66
570.201	6791.92
570.4	6576.88
570.598	6542.07
570.797	6589.17
570.995	6513.39
571.193	6546.16
571.392	6681.33
571.59	6480.63
571.789	6535.92
571.987	6583.02
572.186	6480.63
572.384	6494.96
572.582	6439.67
572.781	6468.34
572.979	6159.1
573.177	6310.65
573.376	6451.95
573.574	6392.56
573.772	6474.48
573.971	6263.54
574.169	6224.63
574.367	6169.34
574.565	6277.88
574.763	6050.55
574.962	5999.35
575.16	6087.42
575.358	6361.84
575.556	5948.15
575.754	6140.66
575.952	6257.4
576.151	5997.31
576.349	5985.02
576.547	6130.42
576.745	6183.67
576.943	5937.91
577.141	6013.69
577.339	5991.16
577.537	5894.91
577.735	6021.88
577.933	5821.18
578.131	6003.45
578.329	5876.48
578.527	5858.04
578.725	5763.84
578.923	5733.12
579.121	5954.3
579.319	5767.93
579.516	5925.63
579.714	5761.79
579.912	5677.82
580.11	5698.3
580.308	5708.54
580.506	5643.01
580.704	5432.07
580.901	5632.77
581.099	5622.53
581.297	5565.18
581.495	5460.74
581.692	5643.01
581.89	5460.74
582.088	5749.5
582.285	5612.29
582.483	5649.15
582.681	5507.84
582.878	5612.29
583.076	5462.79
583.274	5438.21
583.471	5520.13
583.669	5366.53
583.866	5313.28
584.064	5434.11
584.262	5348.1
584.459	5423.87
584.657	5362.44
584.854	5210.89
585.052	5417.73
585.249	5176.07
585.447	5141.25
585.644	5182.21
585.841	5194.5
586.039	5157.64
586.236	5174.02
586.434	5163.78
586.631	5171.97
586.828	5171.97
587.026	5147.4
587.223	5135.11
587.42	5124.87
587.618	5151.49
587.815	4981.51
588.012	5194.5
588.21	5071.62
588.407	4993.8
588.604	5034.76
588.801	4924.17
588.999	5030.66
589.196	4999.95
589.393	4969.23
589.59	4995.85
589.787	4872.97
589.984	4961.03
590.182	4827.92
590.379	4881.16
590.576	4887.31
590.773	4918.03
590.97	4838.16
591.167	4840.2
591.364	4803.34
591.561	4758.28
591.758	4756.24
591.955	4713.23
592.152	4680.46
592.349	4680.46
592.546	4780.81
592.743	4647.69
592.94	4614.93
593.137	4737.81
593.334	4674.32
593.531	4786.96
593.727	4616.97
593.924	4551.44
594.121	4535.06
594.318	4463.38
594.515	4533.01
594.712	4557.58
594.908	4545.3
595.105	4389.65
595.302	4616.97
595.499	4498.19
595.696	4383.51
595.892	4520.72
596.089	4406.03
596.286	4467.47
596.482	4475.67
596.679	4371.22
596.876	4326.16
597.072	4348.69
597.269	4348.69
597.466	4377.36
597.662	4320.02
597.859	4389.65
598.055	4293.4
598.252	4406.03
598.448	4322.07
598.645	4385.55
598.841	4238.1
599.038	4154.13
599.234	4299.54
599.431	4281.11
599.627	4258.58
599.824	4322.07
600.02	4180.76
600.217	4250.39
600.413	4156.18
600.609	4217.62
600.806	4248.34
601.002	4096.79
601.198	4068.12
601.395	4037.4
601.591	4080.41
601.787	4070.17
601.984	4008.73
602.18	4107.03
602.376	4021.02
602.572	4027.16
602.769	4014.87
602.965	3961.62
603.161	4078.36
603.357	3980.06
603.553	3935
603.75	3986.2
603.946	3918.62
604.142	3910.43
604.338	3912.47
604.534	3836.7
604.73	3902.23
604.926	3941.15
605.122	3926.81
605.318	3980.06
605.514	3828.51
605.71	3982.1
605.906	3861.27
606.102	3748.64
606.298	3744.54
606.494	3861.27
606.69	3808.03
606.886	3734.3
607.082	3625.76
607.278	3656.48
607.474	3773.21
607.67	3732.25
607.866	3740.44
608.062	3797.79
608.257	3730.2
608.453	3566.37
608.649	3676.96
608.845	3609.37
609.041	3601.18
609.236	3541.79
609.432	3701.53
609.628	3701.53
609.824	3603.23
610.019	3623.71
610.215	3631.9
610.411	3539.74
610.606	3558.18
610.802	3601.18
610.998	3623.71
611.193	3640.09
611.389	3476.26
611.584	3619.61
611.78	3513.12
611.976	3470.11
612.171	3398.43
612.367	3574.56
612.562	3375.91
612.758	3355.43
612.953	3625.76
613.149	3466.02
613.344	3433.25
613.539	3525.41
613.735	3461.92
613.93	3361.57
614.126	3463.97
614.321	3631.9
614.517	3478.3
614.712	3353.38
614.907	3457.82
615.103	3578.65
615.298	3382.05
615.493	3359.52
615.688	3357.47
615.884	3443.49
616.079	3257.12
616.274	3296.04
616.47	3220.26
616.665	3234.6
616.86	3302.18
617.055	3228.45
617.25	3304.23
617.445	3347.23
617.641	3285.8
617.836	3296.04
618.031	3240.74
618.226	3304.23
618.421	3253.03
618.616	3277.6
618.811	3148.58
619.006	3109.67
619.201	3195.68
619.396	3177.25
619.591	3140.39
619.786	3242.79
619.981	3078.95
620.176	3304.23
620.371	3085.09
620.566	3115.81
620.761	3078.95
620.956	2976.55
621.151	3105.57
621.346	3013.42
621.541	2894.63
621.735	2943.78
621.93	2878.25
622.125	2984.74
622.32	2894.63
622.515	2837.29
622.709	2954.02
622.904	2976.55
623.099	2868.01
623.294	2939.69
623.488	2851.63
623.683	2945.83
623.878	2925.35
624.072	2794.28
624.267	2712.36
624.462	2833.19
624.656	2757.42
624.851	2763.56
625.046	2749.23
625.24	2769.71
625.435	2779.95
625.629	2812.71
625.824	2845.48
626.018	2689.84
626.213	2607.92
626.407	2659.12
626.602	2650.92
626.796	2585.39
626.991	2706.22
627.185	2657.07
627.38	2595.63
627.574	2593.58
627.768	2534.19
627.963	2528.05
628.157	2509.62
628.352	2575.15
628.546	2507.57
628.74	2538.29
628.935	2460.46
629.129	2444.08
629.323	2519.85
629.517	2429.74
629.712	2323.25
629.906	2339.63
630.1	2335.54
630.294	2399.02
630.489	2331.44
630.683	2472.75
630.877	2417.46
631.071	2274.1
631.265	2337.59
631.459	2388.78
631.653	2343.73
631.848	2339.63
632.042	2294.58
632.236	2267.95
632.43	2315.06
632.624	2272.05
632.818	2259.76
633.012	2231.09
633.206	2149.17
633.4	2296.63
633.594	2157.36
633.788	2235.19
633.982	2100.02
634.176	2120.5
634.369	2231.09
634.563	2118.45
634.757	2151.22
634.951	2306.87
635.145	2177.84
635.339	2151.22
635.533	2130.74
635.726	2061.11
635.92	2054.97
636.114	2108.21
636.308	2003.77
636.501	2071.35
636.695	2063.16
636.889	1999.67
637.083	1954.62
637.276	1927.99
637.47	1952.57
637.664	2005.81
637.857	1989.43
638.051	1887.03
638.244	1946.42
638.438	1891.13
638.632	1960.76
638.825	1766.2
639.019	1956.66
639.212	1848.12
639.406	1817.4
639.599	1848.12
639.793	1854.27
639.986	1868.6
640.18	1911.61
640.373	1803.07
640.567	1751.87
640.76	1758.01
640.954	1755.96
641.147	1698.62
641.34	1674.04
641.534	1698.62
641.727	1741.63
641.92	1815.35
642.114	1715
642.307	1805.11
642.5	1657.66
642.694	1641.28
642.887	1612.6
643.08	1553.21
643.273	1801.02
643.467	1571.65
643.66	1559.36
643.853	1534.78
644.046	1633.08
644.239	1528.64
644.432	1573.69
644.626	1614.65
644.819	1624.89
645.012	1633.08
645.205	1471.29
645.398	1545.02
645.591	1487.68
645.784	1598.27
645.977	1540.93
646.17	1526.59
646.363	1504.06
646.556	1440.58
646.749	1459.01
646.942	1444.67
647.135	1502.01
647.328	1467.2
647.521	1354.56
647.714	1329.99
647.907	1592.13
648.099	1372.99
648.292	1260.35
648.485	1469.25
648.678	1299.27
648.871	1231.68
649.064	1362.75
649.256	1418.05
649.449	1387.33
649.642	1264.45
649.835	1317.7
650.027	1329.99
650.22	1340.22
650.413	1329.99
650.605	1307.46
650.798	1225.54
650.991	1186.63
651.183	1211.2
651.376	1190.72
651.568	1284.93
651.761	1258.31
651.954	1170.24
652.146	1229.63
652.339	1278.79
652.531	1190.72
652.724	1227.59
652.916	1239.87
653.109	1082.18
653.301	1141.57
653.494	1266.5
653.686	1246.02
653.879	1217.35
654.071	1137.48
654.263	1170.24
654.456	1168.2
654.648	1239.87
654.84	1088.32
655.033	1059.65
655.225	1180.48
655.417	1166.15
655.61	1131.33
655.802	1127.24
655.994	1088.32
656.186	1086.28
656.379	1182.53
656.571	1016.65
656.763	1078.08
656.955	1041.22
657.148	1088.32
657.34	1053.51
657.532	1022.79
657.724	1010.5
657.916	1022.79
658.108	1041.22
658.3	994.12
658.492	1073.99
658.684	1000.26
658.876	1100.61
659.068	987.97
659.26	885.58
659.452	951.11
659.644	1020.74
659.836	961.35
660.028	971.59
660.22	928.58
660.412	912.2
660.604	871.24
660.796	877.38
660.988	846.66
661.18	992.07
661.372	832.33
661.563	912.2
661.755	938.82
661.947	953.16
662.139	904.01
662.331	848.71
662.522	877.38
662.714	869.19
662.906	791.37
663.097	850.76
663.289	820.04
663.481	766.79
663.673	922.44
663.864	848.71
664.056	861
664.247	805.71
664.439	875.34
664.631	785.23
664.822	846.66
665.014	777.03
665.205	772.94
665.397	740.17
665.588	799.56
665.78	744.27
665.971	758.6
666.163	740.17
666.354	754.51
666.546	805.71
666.737	799.56
666.929	781.13
667.12	783.18
667.311	709.45
667.503	822.09
667.694	781.13
667.885	750.41
668.077	711.5
668.268	701.26
668.459	637.77
668.651	662.35
668.842	625.48
669.033	746.31
669.224	686.92
669.416	760.65
669.607	678.73
669.798	668.49
669.989	725.83
670.18	598.86
670.371	693.07
670.563	631.63
670.754	777.03
670.945	699.21
671.136	641.87
671.327	617.29
671.518	643.92
671.709	652.11
671.9	680.78
672.091	701.26
672.282	609.1
672.473	621.39
672.664	656.2
672.855	633.68
673.046	564.04
673.237	613.2
673.428	564.04
673.619	594.76
673.809	590.67
674	588.62
674.191	586.57
674.382	578.38
674.573	607.05
674.764	490.32
674.954	635.72
675.145	549.71
675.336	539.47
675.527	650.06
675.717	596.81
675.908	562
676.099	582.48
676.289	594.76
676.48	609.1
676.671	527.18
676.861	611.15
677.052	541.52
677.243	584.52
677.433	539.47
677.624	527.18
677.814	502.61
678.005	570.19
678.195	594.76
678.386	562
678.576	586.57
678.767	488.27
678.957	512.85
679.148	543.57
679.338	602.96
679.529	547.66
679.719	502.61
679.909	588.62
680.1	584.52
680.29	512.85
680.481	521.04
680.671	590.67
680.861	518.99
681.052	568.14
681.242	541.52
681.432	564.04
681.622	449.36
681.813	469.84
682.003	492.37
682.193	562
682.383	449.36
682.573	547.66
682.764	484.17
682.954	506.7
683.144	506.7
683.334	539.47
683.524	559.95
683.714	498.51
683.904	471.89
684.094	478.03
684.284	467.79
684.474	527.18
684.664	531.28
684.854	502.61
685.044	539.47
685.234	488.27
685.424	537.42
685.614	514.89
685.804	463.69
685.994	441.17
686.184	473.93
686.374	457.55
686.564	539.47
686.753	449.36
686.943	408.4
687.133	488.27
687.323	447.31
687.513	508.75
687.702	441.17
687.892	461.65
688.082	428.88
688.272	461.65
688.461	441.17
688.651	443.21
688.841	488.27
689.03	400.21
689.22	447.31
689.41	367.44
689.599	486.22
689.789	408.4
689.979	392.02
690.168	400.21
690.358	469.84
690.547	406.35
690.737	465.74
690.926	437.07
691.116	410.45
691.305	465.74
691.495	432.97
691.684	346.96
691.874	412.5
692.063	375.63
692.252	394.06
692.442	400.21
692.631	396.11
692.82	447.31
693.01	467.79
693.199	367.44
693.388	332.62
693.578	338.77
693.767	408.4
693.956	396.11
694.146	357.2
694.335	387.92
694.524	365.39
694.713	389.97
694.902	365.39
695.092	334.67
695.281	357.2
695.47	371.54
695.659	291.66
695.848	295.76
696.037	371.54
696.226	389.97
696.415	326.48
696.604	486.22
696.793	318.29
696.982	355.15
697.171	408.4
697.36	344.91
697.549	308.05
697.738	260.95
697.927	312.14
698.116	273.23
698.305	353.1
698.494	398.16
698.683	340.82
698.872	475.98
699.061	482.13
699.25	383.82
699.438	435.02
699.627	336.72
699.816	439.12
700.005	420.69
700.193	349.01
700.382	340.82
700.571	414.54
700.76	408.4
700.948	428.88
701.137	396.11
701.326	387.92
701.514	340.82
701.703	363.34
701.892	389.97
702.08	410.45
702.269	379.73
702.457	404.3
702.646	469.84
702.834	338.77
703.023	332.62
703.212	346.96
703.4	396.11
703.589	381.78
703.777	351.06
703.965	353.1
704.154	357.2
704.342	332.62
704.531	408.4
704.719	271.19
704.907	338.77
705.096	330.58
705.284	344.91
705.472	338.77
705.661	367.44
705.849	426.83
706.037	349.01
706.226	422.73
706.414	396.11
706.602	306
706.79	351.06
706.979	441.17
707.167	373.58
707.355	289.62
707.543	410.45
707.731	340.82
707.919	465.74
708.107	373.58
708.296	367.44
708.484	322.38
708.672	357.2
708.86	338.77
709.048	387.92
709.236	328.53
709.424	377.68
709.612	299.86
709.8	367.44
709.988	396.11
710.176	383.82
710.364	482.13
710.551	459.6
710.739	318.29
710.927	371.54
711.115	371.54
711.303	355.15
711.491	375.63
711.679	414.54
711.866	453.45
712.054	344.91
712.242	322.38
712.43	504.65
712.617	365.39
712.805	342.86
712.993	262.99
713.181	326.48
713.368	439.12
713.556	445.26
713.744	412.5
713.931	465.74
714.119	430.93
714.306	398.16
714.494	324.43
714.682	400.21
714.869	369.49
715.057	336.72
715.244	254.8
715.432	463.69
715.619	316.24
715.807	461.65
715.994	400.21
716.182	324.43
716.369	340.82
716.556	439.12
716.744	379.73
716.931	400.21
717.119	281.43
717.306	359.25
717.493	361.3
717.681	308.05
717.868	338.77
718.055	443.21
718.242	363.34
718.43	445.26
718.617	482.13
718.804	402.26
718.991	418.64
719.179	408.4
719.366	353.1
719.553	430.93
719.74	398.16
719.927	297.81
720.114	357.2
720.301	359.25
720.488	326.48
720.676	324.43
720.863	441.17
721.05	512.85
721.237	398.16
721.424	428.88
721.611	351.06
721.798	326.48
721.985	383.82
722.172	320.34
722.358	340.82
722.545	430.93
722.732	418.64
722.919	373.58
723.106	367.44
723.293	355.15
723.48	471.89
723.667	414.54
723.853	342.86
724.04	377.68
724.227	379.73
724.414	334.67
724.6	349.01
724.787	379.73
724.974	392.02
725.161	406.35
725.347	318.29
725.534	422.73
725.72	306
725.907	346.96
726.094	332.62
726.28	439.12
726.467	324.43
726.653	439.12
726.84	394.06
727.027	488.27
727.213	412.5
727.4	365.39
727.586	396.11
727.773	473.93
727.959	338.77
728.145	355.15
728.332	318.29
728.518	301.9
728.705	414.54
728.891	443.21
729.077	392.02
729.264	336.72
729.45	377.68
729.636	396.11
729.823	308.05
730.009	410.45
730.195	381.78
730.382	394.06
730.568	334.67
730.754	455.5
730.94	322.38
731.126	326.48
731.313	379.73
731.499	435.02
731.685	344.91
731.871	375.63
732.057	355.15
732.243	400.21
732.429	381.78
732.615	426.83
732.801	404.3
732.987	373.58
733.173	353.1
733.359	346.96
733.545	404.3
733.731	289.62
733.917	299.86
734.103	353.1
734.289	369.49
734.475	332.62
734.661	322.38
734.847	334.67
735.033	281.43
735.219	342.86
735.404	312.14
735.59	355.15
735.776	275.28
735.962	375.63
736.148	349.01
736.333	373.58
736.519	324.43
736.705	377.68
736.89	340.82
737.076	299.86
737.262	346.96
737.447	383.82
737.633	308.05
737.819	326.48
738.004	363.34
738.19	293.71
738.375	283.47
738.561	338.77
738.747	295.76
738.932	291.66
739.118	318.29
739.303	332.62
739.489	287.57
739.674	258.9
739.859	256.85
740.045	338.77
740.23	320.34
740.416	262.99
740.601	240.47
740.786	306
740.972	338.77
741.157	265.04
741.342	197.46
741.528	301.9
741.713	291.66
741.898	256.85
742.084	219.99
742.269	326.48
742.454	262.99
742.639	306
742.824	275.28
743.01	240.47
743.195	289.62
743.38	244.56
743.565	191.31
743.75	285.52
743.935	224.08
744.12	230.23
744.305	213.84
744.49	277.33
744.675	248.66
744.86	258.9
745.045	289.62
745.23	240.47
745.415	260.95
745.6	201.55
745.785	246.61
745.97	252.75
746.155	316.24
746.34	281.43
746.525	197.46
746.71	248.66
746.895	193.36
747.079	207.7
747.264	195.41
747.449	281.43
747.634	193.36
747.819	219.99
748.003	162.64
748.188	248.66
748.373	160.59
748.557	144.21
748.742	242.51
748.927	170.83
749.111	176.98
749.296	232.27
749.481	162.64
749.665	201.55
749.85	162.64
750.034	260.95
750.219	232.27
750.404	117.59
750.588	197.46
750.773	187.22
750.957	242.51
751.141	113.49
751.326	125.78
751.51	199.51
751.695	158.55
751.879	234.32
752.064	289.62
752.248	181.07
752.432	64.34
752.617	144.21
752.801	228.18
752.985	103.25
753.17	150.36
753.354	168.79
753.538	170.83
753.722	185.17
753.907	97.11
754.091	140.12
754.275	95.06
754.459	121.68
754.643	144.21
754.828	150.36
755.012	125.78
755.196	17.24
755.38	148.31
755.564	68.44
755.748	127.83
755.932	54.1
756.116	203.6
756.3	152.4
756.484	109.4
756.668	74.58
756.852	54.1
757.036	45.91
757.22	93.01
757.404	68.44
757.588	117.59
757.772	113.49
757.956	78.68
758.14	142.16
758.323	97.11
758.507	70.48
758.691	58.2
758.875	-15.53
759.059	101.2
759.242	138.07
759.426	76.63
759.61	138.07
759.794	29.52
759.977	88.92
760.161	201.55
760.345	105.3
760.528	144.21
760.712	93.01
760.895	150.36
761.079	113.49
761.263	74.58
761.446	105.3
761.63	39.76
761.813	111.44
761.997	93.01
762.18	66.39
762.364	172.88
762.547	52.05
762.731	103.25
762.914	50
763.098	33.62
763.281	93.01
763.464	95.06
763.648	105.3
763.831	-15.53
764.015	9.05
764.198	113.49
764.381	-9.39
764.564	64.34
764.748	72.53
764.931	119.64
765.114	105.3
765.297	35.67
765.481	21.33
765.664	62.29
765.847	62.29
766.03	125.78
766.213	29.52
766.397	97.11
766.58	-5.29
766.763	52.05
766.946	80.72
767.129	19.29
767.312	119.64
767.495	78.68
767.678	82.77
767.861	35.67
768.044	60.24
768.227	74.58
768.41	64.34
768.593	45.91
768.776	23.38
768.959	45.91
769.142	47.96
769.324	13.14
769.507	19.29
769.69	80.72
769.873	31.57
770.056	60.24
770.239	41.81
770.421	78.68
770.604	86.87
770.787	54.1
770.97	76.63
771.152	119.64
771.335	27.48
771.518	54.1
771.7	88.92
771.883	111.44
772.066	29.52
772.248	7
772.431	95.06
772.613	-1.19
772.796	86.87
772.978	70.48
773.161	70.48
773.343	50
773.526	93.01
773.708	29.52
773.891	-1.19
774.073	31.57
774.256	-9.39
774.438	117.59
774.621	-9.39
774.803	62.29
774.985	-5.29
775.168	76.63
775.35	64.34
775.532	105.3
775.715	-1.19
775.897	-7.34
776.079	82.77
776.261	68.44
776.444	39.76
776.626	47.96
776.808	29.52
776.99	-25.77
777.173	29.52
777.355	7
777.537	11.09
777.719	54.1
777.901	31.57
778.083	11.09
778.265	-33.96
778.447	-33.96
778.629	0.85
778.811	-1.19
778.993	54.1
779.175	37.72
779.357	64.34
779.539	-17.58
779.721	95.06
779.903	54.1
780.085	0.85
780.267	35.67
780.449	15.19
780.631	-50.35
780.812	68.44
780.994	-5.29
781.176	15.19
781.358	-11.43
781.54	21.33
781.721	39.76
781.903	-44.2
782.085	45.91
782.267	50
782.448	-5.29
782.63	-3.24
782.812	-38.06
782.993	105.3
783.175	17.24
783.357	0.85
783.538	-5.29
783.72	13.14
783.901	-56.49
784.083	37.72
784.264	-74.92
784.446	2.9
784.627	-5.29
784.809	35.67
784.99	-9.39
785.172	7
785.353	-29.87
785.535	121.68
785.716	-38.06
785.897	-21.67
786.079	-17.58
786.26	-23.72
786.441	31.57
786.623	-9.39
786.804	43.86
786.985	21.33
787.167	39.76
787.348	-7.34
787.529	-21.67
787.71	15.19
787.891	-36.01
788.073	43.86
788.254	-27.82
788.435	105.3
788.616	84.82
788.797	29.52
788.978	64.34
789.159	17.24
789.34	-11.43
789.522	78.68
789.703	-23.72
789.884	37.72
790.065	35.67
790.246	15.19
790.427	25.43
790.607	-9.39
790.788	4.95
790.969	13.14
791.15	7
791.331	-1.19
791.512	-42.15
791.693	-40.11
791.874	-44.2
792.054	33.62
792.235	54.1
792.416	-33.96
792.597	-21.67
792.778	-19.63
792.958	90.96
793.139	-15.53
793.32	35.67
793.5	35.67
793.681	-42.15
793.862	111.44
794.042	60.24
794.223	-3.24
794.404	-3.24
794.584	-62.63
794.765	2.9
794.945	-54.44
795.126	37.72
795.306	23.38
795.487	27.48
795.667	-83.11
795.848	15.19
796.028	54.1
796.209	37.72
796.389	62.29
796.57	95.06
796.75	23.38
796.93	56.15
797.111	7
797.291	-62.63
797.471	21.33
797.652	47.96
797.832	-29.87
798.012	50
798.192	-33.96
798.373	-60.59
798.553	29.52
798.733	72.53
798.913	2.9
799.093	-46.25
799.274	29.52
799.454	35.67
799.634	-58.54
799.814	27.48
799.994	-1.19
800.174	-9.39
800.354	17.24
800.534	-3.24
800.714	-3.24
800.894	45.91
801.074	-38.06
801.254	-42.15
801.434	70.48
801.614	-23.72
801.794	35.67
801.974	551.76
802.154	56.15
802.334	-21.67
802.514	-29.87
802.693	-83.11
802.873	27.48
803.053	58.2
803.233	-19.63
803.413	-27.82
803.592	-29.87
803.772	-11.43
803.952	-31.91
804.131	56.15
804.311	19.29
804.491	45.91
804.67	-7.34
804.85	2.9
805.03	-27.82
805.209	-31.91
805.389	-1.19
805.568	-44.2
805.748	13.14
805.928	45.91
806.107	-19.63
806.287	-5.29
806.466	-64.68
806.646	-54.44
806.825	60.24
807.004	-44.2
807.184	70.48
807.363	-38.06
807.543	-5.29
807.722	-42.15
807.901	-1.19
808.081	11.09
808.26	-79.02
808.439	-50.35
808.619	31.57
808.798	-42.15
808.977	-62.63
809.156	29.52
809.336	-19.63
809.515	-5.29
809.694	-25.77
809.873	-79.02
810.052	-62.63
810.231	-21.67
810.411	35.67
810.59	33.62
810.769	-58.54
810.948	-36.01
811.127	-54.44
811.306	-27.82
811.485	-66.73
811.664	-17.58
811.843	-1.19
812.022	4.95
812.201	-124.07
812.38	31.57
812.559	-21.67
812.737	-25.77
812.916	47.96
813.095	-54.44
813.274	-19.63
813.453	33.62
813.632	-25.77
813.811	39.76
813.989	-103.59
814.168	52.05
814.347	-21.67
814.526	-72.87
814.704	-3.24
814.883	54.1
815.062	-31.91
815.24	37.72
815.419	-38.06
815.598	70.48
815.776	-1.19
815.955	-23.72
816.133	52.05
816.312	-5.29
816.49	29.52
816.669	27.48
816.847	-38.06
817.026	66.39
817.204	37.72
817.383	19.29
817.561	-64.68
817.74	97.11
817.918	60.24
818.097	0.85
818.275	52.05
818.453	-29.87
818.632	-9.39
818.81	-52.39
818.988	-38.06
819.167	2.9
819.345	27.48
819.523	60.24
819.701	-62.63
819.879	-17.58
820.058	-17.58
820.236	-5.29
820.414	-29.87
820.592	-44.2
820.77	-1.19
820.948	-15.53
821.127	-56.49
821.305	15.19
821.483	9.05
821.661	-33.96
821.839	43.86
822.017	9.05
822.195	4.95
822.373	-29.87
822.551	-31.91
822.729	29.52
822.907	-58.54
823.085	-21.67
823.262	-1.19
823.44	-3.24
823.618	-17.58
823.796	4.95
823.974	-25.77
824.152	-17.58
824.329	19.29
824.507	31.57
824.685	-42.15
824.863	-46.25
825.04	-17.58
825.218	2.9
825.396	-3.24
825.574	-81.07
825.751	-40.11
825.929	13.14
826.107	4.95
826.284	19.29
826.462	-48.3
826.639	-27.82
826.817	-21.67
826.994	-58.54
827.172	-9.39
827.349	45.91
827.527	-48.3
827.704	-42.15
827.882	-38.06
828.059	2.9
828.237	-70.83
828.414	33.62
828.591	-23.72
828.769	-13.48
828.946	-44.2
829.124	-36.01
829.301	-46.25
829.478	23.38
829.655	-21.67
829.833	-29.87
830.01	-46.25
830.187	-29.87
830.364	-50.35
830.542	19.29
830.719	4.95
830.896	-54.44
831.073	7
831.25	29.52
831.427	-58.54
831.604	31.57
831.782	-17.58
831.959	29.52
832.136	-29.87
832.313	62.29
832.49	-21.67
832.667	-44.2
832.844	17.24
833.021	-3.24
833.198	2.9
833.374	47.96
833.551	-5.29
833.728	-5.29
833.905	23.38
834.082	31.57
834.259	19.29
834.436	-5.29
834.612	39.76
834.789	9.05
834.966	-25.77
835.143	41.81
835.319	-38.06
835.496	56.15
835.673	-1.19
835.85	-87.21
836.026	0.85
836.203	-3.24
836.38	-7.34
836.556	78.68
836.733	-46.25
836.909	-5.29
837.086	-38.06
837.262	-40.11
837.439	-7.34
837.616	56.15
837.792	35.67
837.968	4.95
838.145	-79.02
838.321	-5.29
838.498	23.38
838.674	-40.11
838.851	13.14
839.027	29.52
839.203	-46.25
839.38	-21.67
839.556	-15.53
839.732	-38.06
839.909	78.68
840.085	25.43
840.261	-60.59
840.437	23.38
840.614	11.09
840.79	109.4
840.966	33.62
841.142	47.96
841.318	-50.35
841.494	-11.43
841.671	23.38
841.847	-31.91
842.023	-13.48
842.199	-42.15
842.375	37.72
842.551	-5.29
842.727	-3.24
842.903	93.01
843.079	-21.67
843.255	68.44
843.431	-11.43
843.607	62.29
843.783	-42.15
843.959	-15.53
844.134	-13.48
844.31	2.9
844.486	-25.77
844.662	-111.78
844.838	23.38
845.013	52.05
845.189	68.44
845.365	31.57
845.541	-38.06
845.716	29.52
845.892	52.05
846.068	78.68
846.244	2.9
846.419	2.9
846.595	-76.97
846.77	50
846.946	45.91
847.122	27.48
847.297	-25.77
847.473	-38.06
847.648	-36.01
847.824	-50.35
847.999	-17.58
848.175	-25.77
848.35	-5.29
848.526	11.09
848.701	-29.87
848.876	41.81
849.052	-44.2
849.227	-38.06
849.403	-25.77
849.578	11.09
849.753	-87.21
849.929	17.24
850.104	-1.19
850.279	-25.77
850.454	-36.01
850.63	37.72
850.805	-70.83
850.98	9.05
851.155	-21.67
851.33	47.96
851.505	-23.72
851.681	9.05
851.856	-5.29
852.031	52.05
852.206	27.48
852.381	13.14
852.556	11.09
852.731	66.39
852.906	21.33
853.081	-23.72
853.256	-38.06
853.431	54.1
853.606	-101.55
853.781	23.38
853.956	-7.34
854.131	-52.39
854.305	-113.83
854.48	-29.87
854.655	-11.43
854.83	-44.2
855.005	-27.82
855.18	39.76
855.354	19.29
855.529	21.33
855.704	-44.2
855.879	37.72
856.053	47.96
856.228	-52.39
856.403	-60.59
856.577	0.85
856.752	-19.63
856.926	-33.96
857.101	-52.39
857.276	-85.16
857.45	-42.15
857.625	23.38
857.799	-46.25
857.974	-36.01
858.148	35.67
858.323	-25.77
858.497	-17.58
858.672	-81.07
858.846	-54.44
859.02	19.29
859.195	-23.72
859.369	7
859.543	-70.83
859.718	-5.29
859.892	-3.24
860.066	-38.06
860.241	7
860.415	-60.59
860.589	-33.96
860.763	4.95
860.938	-36.01
861.112	-11.43
861.286	2.9
861.46	47.96
861.634	-36.01
861.808	64.34
861.982	-17.58
862.157	-83.11
862.331	-40.11
862.505	-38.06
862.679	-70.83
862.853	-1.19
863.027	-23.72
863.201	-21.67
863.375	-48.3
863.549	-19.63
863.722	31.57
863.896	64.34
864.07	-81.07
864.244	-36.01
864.418	25.43
864.592	-60.59
864.766	-19.63
864.939	39.76
865.113	-38.06
865.287	-36.01
865.461	-31.91
865.634	-52.39
865.808	0.85
865.982	52.05
866.156	-54.44
866.329	41.81
866.503	-1.19
866.676	52.05
866.85	-29.87
867.024	-17.58
867.197	-21.67
867.371	-42.15
867.544	2.9
867.718	31.57
867.891	-3.24
868.065	-29.87
868.238	-19.63
868.412	23.38
868.585	27.48
868.759	15.19
868.932	-13.48
869.105	39.76
869.279	-21.67
869.452	37.72
869.625	21.33
869.799	-13.48
869.972	-66.73
870.145	-29.87
870.319	-3.24
870.492	-66.73
870.665	-52.39
870.838	-9.39
871.011	-9.39
871.185	43.86
871.358	-50.35
871.531	7
871.704	-5.29
871.877	-62.63
872.05	2.9
872.223	-42.15
872.396	52.05
872.569	-3.24
872.742	-62.63
872.915	-11.43
873.088	-27.82
873.261	-56.49
873.434	23.38
873.607	-27.82
873.78	47.96
873.953	-23.72
874.126	27.48
874.299	-23.72
874.471	-27.82
874.644	-31.91
874.817	7
874.99	23.38
875.163	-27.82
875.335	-21.67
875.508	-27.82
875.681	-27.82
875.853	-9.39
876.026	9.05
876.199	-72.87
876.371	-27.82
876.544	9.05
876.717	90.96
876.889	-42.15
877.062	50
877.234	-21.67
877.407	15.19
877.579	-79.02
877.752	7
877.924	-19.63
878.097	31.57
878.269	25.43
878.442	-79.02
878.614	9.05
878.786	-5.29
878.959	-17.58
879.131	-11.43
879.303	-58.54
879.476	7
879.648	-38.06
879.82	23.38
879.993	-11.43
880.165	37.72
880.337	-52.39
880.509	-11.43
880.681	-42.15
880.854	-31.91
881.026	-42.15
881.198	0.85
881.37	-21.67
881.542	4.95
881.714	31.57
881.886	-85.16
882.058	-38.06
882.23	62.29
882.402	21.33
882.574	-11.43
882.746	-117.93
882.918	13.14
883.09	58.2
883.262	-58.54
883.434	-103.59
883.606	-124.07
883.778	-79.02
883.95	-21.67
884.122	27.48
884.293	7
884.465	19.29
884.637	-5.29
884.809	4.95
884.98	-54.44
885.152	74.58
885.324	-11.43
885.496	2.9
885.667	-1.19
885.839	-1.19
886.011	4.95
886.182	-40.11
886.354	-29.87
886.525	-68.78
886.697	-25.77
886.869	19.29
887.04	58.2
887.212	25.43
887.383	45.91
887.555	41.81
887.726	-56.49
887.897	-38.06
888.069	-13.48
888.24	19.29
888.412	-11.43
888.583	-3.24
888.754	-83.11
888.926	-85.16
889.097	29.52
889.268	-46.25
889.44	-9.39
889.611	-132.26
889.782	-3.24
889.953	7
890.125	31.57
890.296	-11.43
890.467	-13.48
890.638	-15.53
890.809	-42.15
890.98	-95.4
891.151	56.15
891.323	50
891.494	13.14
891.665	56.15
891.836	-29.87
892.007	-13.48
892.178	56.15
892.349	-11.43
892.52	-36.01
892.691	11.09
892.862	-44.2
893.032	-38.06
893.203	35.67
893.374	19.29
893.545	-19.63
893.716	-15.53
893.887	-58.54
894.057	-1.19
894.228	-21.67
894.399	-79.02
894.57	78.68
894.74	-9.39
894.911	-29.87
895.082	45.91
895.253	-38.06
895.423	-9.39
895.594	-3.24
895.764	11.09
895.935	-101.55
896.106	-21.67
896.276	29.52
896.447	35.67
896.617	-36.01
896.788	-5.29
896.958	-85.16
897.129	-11.43
897.299	52.05
897.47	-5.29
897.64	-13.48
897.81	4.95
897.981	11.09
898.151	-50.35
898.322	-17.58
898.492	4.95
898.662	-64.68
898.832	-81.07
899.003	-11.43
899.173	54.1
899.343	-25.77
899.513	-21.67
