Data from USB4F104151__43__13-11-09-101.txt Node

Date: Fri Mar 14 13:11:09 EDT 2025
User: louis
Spectrometer: USB4F10415
Trigger mode: 4
Integration Time (sec): 2.000000E-2
Scans to average: 1
Electric dark correction enabled: true
Nonlinearity correction enabled: false
Boxcar width: 0
XAxis mode: Wavelengths
Number of Pixels in Spectrum: 3648
>>>>>Begin Spectral Data<<<<<
178.204	-114.17
178.424	-114.17
178.644	-114.17
178.864	-38.4
179.084	-128.51
179.304	-56.83
179.524	-9.73
179.744	-87.55
179.964	27.14
180.184	6.66
180.404	39.42
180.624	41.47
180.844	18.94
181.064	-34.3
181.283	57.86
181.503	-5.63
181.723	2.56
181.943	-50.69
182.163	25.09
182.383	-11.78
182.602	14.85
182.822	14.85
183.042	-13.82
183.262	-50.69
183.482	14.85
183.701	-38.4
183.921	-69.12
184.141	-46.59
184.361	25.09
184.58	-56.83
184.8	8.7
185.02	-81.41
185.239	-15.87
185.459	-83.45
185.679	-9.73
185.898	-7.68
186.118	-34.3
186.338	2.56
186.557	82.43
186.777	0.51
186.997	-42.5
187.216	-1.54
187.436	43.52
187.655	20.99
187.875	43.52
188.095	-85.5
188.314	-15.87
188.534	-19.97
188.753	25.09
188.973	39.42
189.192	14.85
189.412	33.28
189.631	-28.16
189.851	-7.68
190.07	74.24
190.29	-44.54
190.509	31.23
190.729	6.66
190.948	-7.68
191.168	49.66
191.387	43.52
191.607	-32.26
191.826	49.66
192.045	-22.02
192.265	-65.02
192.484	0.51
192.704	25.09
192.923	-1.54
193.142	80.38
193.362	39.42
193.581	80.38
193.8	31.23
194.02	2.56
194.239	84.48
194.458	-54.78
194.678	8.7
194.897	6.66
195.116	14.85
195.335	-1.54
195.555	33.28
195.774	-26.11
195.993	57.86
196.212	39.42
196.432	57.86
196.651	43.52
196.87	-30.21
197.089	39.42
197.308	33.28
197.528	41.47
197.747	39.42
197.966	33.28
198.185	-1.54
198.404	96.77
198.623	10.75
198.842	2.56
199.062	68.09
199.281	12.8
199.5	-42.5
199.719	51.71
199.938	2.56
200.157	12.8
200.376	88.57
200.595	43.52
200.814	0.51
201.033	-17.92
201.252	31.23
201.471	6.66
201.69	31.23
201.909	64
202.128	119.29
202.347	0.51
202.566	-44.54
202.785	-7.68
203.004	-67.07
203.223	66.05
203.442	-15.87
203.661	-50.69
203.879	68.09
204.098	31.23
204.317	-52.74
204.536	59.9
204.755	43.52
204.974	-13.82
205.193	6.66
205.411	37.38
205.63	2.56
205.849	35.33
206.068	39.42
206.287	66.05
206.505	-15.87
206.724	6.66
206.943	-26.11
207.162	4.61
207.381	-40.45
207.599	-48.64
207.818	-36.35
208.037	-42.5
208.255	6.66
208.474	39.42
208.693	29.18
208.911	45.57
209.13	10.75
209.349	41.47
209.567	-1.54
209.786	41.47
210.005	14.85
210.223	-75.26
210.442	14.85
210.661	-42.5
210.879	47.62
211.098	12.8
211.316	-13.82
211.535	8.7
211.753	-7.68
211.972	-17.92
212.191	72.19
212.409	-11.78
212.628	27.14
212.846	23.04
213.065	6.66
213.283	41.47
213.502	16.9
213.72	14.85
213.938	-1.54
214.157	6.66
214.375	27.14
214.594	31.23
214.812	-28.16
215.031	-5.63
215.249	-15.87
215.467	-26.11
215.686	-75.26
215.904	39.42
216.122	-1.54
216.341	76.29
216.559	-1.54
216.778	-13.82
216.996	-9.73
217.214	-13.82
217.432	-19.97
217.651	-40.45
217.869	-9.73
218.087	-58.88
218.306	33.28
218.524	25.09
218.742	-13.82
218.96	2.56
219.179	-1.54
219.397	0.51
219.615	-13.82
219.833	6.66
220.051	-9.73
220.27	-34.3
220.488	76.29
220.706	55.81
220.924	-17.92
221.142	45.57
221.36	18.94
221.578	29.18
221.796	-42.5
222.015	51.71
222.233	-32.26
222.451	-56.83
222.669	14.85
222.887	10.75
223.105	-11.78
223.323	-24.06
223.541	-19.97
223.759	14.85
223.977	-9.73
224.195	-13.82
224.413	-42.5
224.631	-17.92
224.849	45.57
225.067	55.81
225.285	27.14
225.503	47.62
225.721	-50.69
225.939	-30.21
226.157	-7.68
226.375	2.56
226.592	-67.07
226.81	-9.73
227.028	18.94
227.246	-30.21
227.464	25.09
227.682	18.94
227.9	39.42
228.117	-50.69
228.335	35.33
228.553	-36.35
228.771	6.66
228.989	18.94
229.206	-22.02
229.424	35.33
229.642	-97.79
229.86	-32.26
230.077	-13.82
230.295	39.42
230.513	41.47
230.731	43.52
230.948	53.76
231.166	-1.54
231.384	-34.3
231.601	27.14
231.819	72.19
232.037	6.66
232.254	47.62
232.472	25.09
232.689	8.7
232.907	27.14
233.125	6.66
233.342	-46.59
233.56	8.7
233.777	-1.54
233.995	-17.92
234.213	39.42
234.43	8.7
234.648	4.61
234.865	20.99
235.083	68.09
235.3	-1.54
235.518	-30.21
235.735	59.9
235.953	47.62
236.17	-30.21
236.388	-22.02
236.605	47.62
236.822	53.76
237.04	35.33
237.257	-1.54
237.475	-1.54
237.692	27.14
237.909	31.23
238.127	-1.54
238.344	-50.69
238.562	23.04
238.779	-54.78
238.996	-32.26
239.214	-9.73
239.431	-30.21
239.648	12.8
239.865	14.85
240.083	27.14
240.3	31.23
240.517	23.04
240.735	-75.26
240.952	23.04
241.169	27.14
241.386	43.52
241.603	-58.88
241.821	6.66
242.038	8.7
242.255	25.09
242.472	0.51
242.689	39.42
242.907	39.42
243.124	-46.59
243.341	-71.17
243.558	2.56
243.775	-26.11
243.992	-32.26
244.209	74.24
244.426	121.34
244.643	39.42
244.86	84.48
245.078	90.62
245.295	-118.27
245.512	-38.4
245.729	-11.78
245.946	39.42
246.163	31.23
246.38	-7.68
246.597	-15.87
246.814	10.75
247.031	6.66
247.248	-15.87
247.464	-34.3
247.681	29.18
247.898	-15.87
248.115	-44.54
248.332	23.04
248.549	16.9
248.766	45.57
248.983	-19.97
249.2	-17.92
249.417	12.8
249.633	-40.45
249.85	51.71
250.067	6.66
250.284	23.04
250.501	29.18
250.717	51.71
250.934	-24.06
251.151	33.28
251.368	31.23
251.585	-1.54
251.801	14.85
252.018	-56.83
252.235	68.09
252.451	8.7
252.668	23.04
252.885	-1.54
253.102	45.57
253.318	55.81
253.535	-32.26
253.752	6.66
253.968	72.19
254.185	18.94
254.401	-26.11
254.618	29.18
254.835	-34.3
255.051	51.71
255.268	-26.11
255.484	-28.16
255.701	-13.82
255.917	35.33
256.134	4.61
256.351	-34.3
256.567	-32.26
256.784	0.51
257	-26.11
257.217	14.85
257.433	64
257.65	47.62
257.866	-52.74
258.082	4.61
258.299	-65.02
258.515	61.95
258.732	-36.35
258.948	14.85
259.165	2.56
259.381	31.23
259.597	20.99
259.814	-5.63
260.03	-13.82
260.246	18.94
260.463	57.86
260.679	8.7
260.895	-48.64
261.112	12.8
261.328	18.94
261.544	20.99
261.761	49.66
261.977	-5.63
262.193	-79.36
262.409	104.96
262.626	-34.3
262.842	33.28
263.058	-22.02
263.274	-17.92
263.49	49.66
263.707	25.09
263.923	-3.58
264.139	-42.5
264.355	-60.93
264.571	51.71
264.787	14.85
265.004	-15.87
265.22	2.56
265.436	8.7
265.652	-22.02
265.868	47.62
266.084	55.81
266.3	80.38
266.516	-42.5
266.732	59.9
266.948	-44.54
267.164	59.9
267.38	2.56
267.596	51.71
267.812	35.33
268.028	-42.5
268.244	14.85
268.46	49.66
268.676	10.75
268.892	37.38
269.108	-46.59
269.324	-46.59
269.54	-24.06
269.756	-1.54
269.972	47.62
270.188	-13.82
270.403	-11.78
270.619	16.9
270.835	4.61
271.051	-5.63
271.267	33.28
271.483	23.04
271.698	23.04
271.914	18.94
272.13	-1.54
272.346	74.24
272.562	31.23
272.777	20.99
272.993	-7.68
273.209	8.7
273.425	-46.59
273.64	4.61
273.856	-17.92
274.072	4.61
274.287	25.09
274.503	6.66
274.719	-24.06
274.934	-48.64
275.15	-1.54
275.366	-24.06
275.581	14.85
275.797	-1.54
276.012	-22.02
276.228	-91.65
276.444	35.33
276.659	31.23
276.875	27.14
277.09	-42.5
277.306	-19.97
277.521	-52.74
277.737	12.8
277.952	31.23
278.168	55.81
278.383	16.9
278.599	-22.02
278.814	55.81
279.03	-30.21
279.245	-5.63
279.461	-62.98
279.676	-7.68
279.892	-34.3
280.107	-15.87
280.322	6.66
280.538	66.05
280.753	-58.88
280.969	100.86
281.184	2.56
281.399	37.38
281.615	23.04
281.83	-15.87
282.045	-15.87
282.26	2.56
282.476	41.47
282.691	80.38
282.906	-5.63
283.122	-52.74
283.337	-9.73
283.552	6.66
283.767	47.62
283.983	-13.82
284.198	18.94
284.413	39.42
284.628	-3.58
284.843	76.29
285.058	-38.4
285.274	10.75
285.489	-34.3
285.704	16.9
285.919	-38.4
286.134	6.66
286.349	55.81
286.564	0.51
286.779	72.19
286.995	-22.02
287.21	-5.63
287.425	18.94
287.64	-7.68
287.855	20.99
288.07	31.23
288.285	-40.45
288.5	-22.02
288.715	57.86
288.93	-24.06
289.145	47.62
289.36	14.85
289.575	-1.54
289.79	51.71
290.004	-22.02
290.219	74.24
290.434	-7.68
290.649	-48.64
290.864	18.94
291.079	33.28
291.294	29.18
291.509	-44.54
291.724	80.38
291.938	51.71
292.153	14.85
292.368	20.99
292.583	43.52
292.798	39.42
293.012	84.48
293.227	35.33
293.442	39.42
293.657	88.57
293.871	20.99
294.086	6.66
294.301	55.81
294.516	39.42
294.73	61.95
294.945	-42.5
295.16	-26.11
295.374	-9.73
295.589	4.61
295.804	6.66
296.018	-62.98
296.233	78.33
296.447	14.85
296.662	8.7
296.877	0.51
297.091	47.62
297.306	-40.45
297.52	-38.4
297.735	-26.11
297.949	2.56
298.164	27.14
298.378	35.33
298.593	20.99
298.807	55.81
299.022	-32.26
299.236	-7.68
299.451	27.14
299.665	27.14
299.88	25.09
300.094	25.09
300.309	0.51
300.523	8.7
300.737	-17.92
300.952	-73.21
301.166	39.42
301.381	8.7
301.595	-79.36
301.809	10.75
302.024	0.51
302.238	80.38
302.452	10.75
302.667	-13.82
302.881	76.29
303.095	33.28
303.309	-46.59
303.524	4.61
303.738	31.23
303.952	-58.88
304.166	18.94
304.381	4.61
304.595	43.52
304.809	-5.63
305.023	-19.97
305.237	55.81
305.452	-26.11
305.666	-69.12
305.88	35.33
306.094	31.23
306.308	18.94
306.522	14.85
306.736	25.09
306.95	-7.68
307.164	-3.58
307.379	-32.26
307.593	49.66
307.807	10.75
308.021	-15.87
308.235	-52.74
308.449	-24.06
308.663	16.9
308.877	45.57
309.091	33.28
309.305	14.85
309.519	-38.4
309.733	14.85
309.947	2.56
310.161	43.52
310.374	100.86
310.588	25.09
310.802	-58.88
311.016	27.14
311.23	-85.5
311.444	-3.58
311.658	-30.21
311.872	18.94
312.085	0.51
312.299	-7.68
312.513	55.81
312.727	80.38
312.941	33.28
313.154	25.09
313.368	-54.78
313.582	64
313.796	-30.21
314.009	-11.78
314.223	-81.41
314.437	6.66
314.651	-3.58
314.864	25.09
315.078	4.61
315.292	-1.54
315.505	-28.16
315.719	25.09
315.933	-13.82
316.146	0.51
316.36	20.99
316.573	92.67
316.787	51.71
317.001	125.44
317.214	-42.5
317.428	14.85
317.641	-38.4
317.855	-7.68
318.068	0.51
318.282	-85.5
318.495	12.8
318.709	27.14
318.922	23.04
319.136	51.71
319.349	-60.93
319.563	16.9
319.776	43.52
319.99	-26.11
320.203	18.94
320.417	66.05
320.63	-56.83
320.843	-58.88
321.057	-30.21
321.27	-40.45
321.483	43.52
321.697	72.19
321.91	-42.5
322.124	-11.78
322.337	-17.92
322.55	14.85
322.763	-3.58
322.977	4.61
323.19	-48.64
323.403	-1.54
323.617	37.38
323.83	-26.11
324.043	33.28
324.256	14.85
324.469	-7.68
324.683	53.76
324.896	27.14
325.109	70.14
325.322	-34.3
325.535	47.62
325.748	53.76
325.962	20.99
326.175	18.94
326.388	37.38
326.601	14.85
326.814	-11.78
327.027	-5.63
327.24	57.86
327.453	-17.92
327.666	23.04
327.879	0.51
328.092	31.23
328.305	0.51
328.518	55.81
328.731	-50.69
328.944	-50.69
329.157	-1.54
329.37	-11.78
329.583	51.71
329.796	25.09
330.009	6.66
330.222	57.86
330.435	25.09
330.648	100.86
330.861	55.81
331.073	35.33
331.286	70.14
331.499	33.28
331.712	-9.73
331.925	16.9
332.138	-9.73
332.35	66.05
332.563	-30.21
332.776	23.04
332.989	0.51
333.202	33.28
333.414	-11.78
333.627	33.28
333.84	53.76
334.053	41.47
334.265	-40.45
334.478	-7.68
334.691	41.47
334.903	43.52
335.116	6.66
335.329	18.94
335.541	33.28
335.754	49.66
335.966	33.28
336.179	-56.83
336.392	-28.16
336.604	0.51
336.817	12.8
337.029	49.66
337.242	86.53
337.454	43.52
337.667	70.14
337.88	10.75
338.092	4.61
338.305	2.56
338.517	47.62
338.729	35.33
338.942	-19.97
339.154	8.7
339.367	-56.83
339.579	-32.26
339.792	-13.82
340.004	104.96
340.217	-56.83
340.429	18.94
340.641	-30.21
340.854	4.61
341.066	-3.58
341.278	55.81
341.491	88.57
341.703	-54.78
341.915	0.51
342.128	2.56
342.34	53.76
342.552	-13.82
342.764	-7.68
342.977	-24.06
343.189	23.04
343.401	-19.97
343.613	-1.54
343.826	-26.11
344.038	-30.21
344.25	16.9
344.462	-7.68
344.674	31.23
344.886	23.04
345.099	84.48
345.311	29.18
345.523	6.66
345.735	-36.35
345.947	-5.63
346.159	-26.11
346.371	47.62
346.583	-67.07
346.795	127.49
347.007	-60.93
347.219	80.38
347.431	45.57
347.643	145.92
347.855	-15.87
348.067	57.86
348.279	4.61
348.491	0.51
348.703	-62.98
348.915	-17.92
349.127	-30.21
349.339	51.71
349.551	61.95
349.763	-30.21
349.975	10.75
350.187	-24.06
350.399	2.56
350.61	20.99
350.822	33.28
351.034	64
351.246	-15.87
351.458	72.19
351.669	49.66
351.881	96.77
352.093	-32.26
352.305	104.96
352.517	51.71
352.728	-13.82
352.94	84.48
353.152	8.7
353.363	-19.97
353.575	31.23
353.787	6.66
353.999	-7.68
354.21	107.01
354.422	-5.63
354.633	-5.63
354.845	39.42
355.057	37.38
355.268	129.53
355.48	6.66
355.692	51.71
355.903	20.99
356.115	14.85
356.326	6.66
356.538	27.14
356.749	-58.88
356.961	49.66
357.172	-71.17
357.384	29.18
357.595	18.94
357.807	51.71
358.018	10.75
358.23	-73.21
358.441	33.28
358.653	-32.26
358.864	25.09
359.075	6.66
359.287	68.09
359.498	6.66
359.709	8.7
359.921	-79.36
360.132	-7.68
360.344	70.14
360.555	-7.68
360.766	16.9
360.977	-34.3
361.189	51.71
361.4	4.61
361.611	43.52
361.823	57.86
362.034	-30.21
362.245	-7.68
362.456	-34.3
362.667	-13.82
362.879	29.18
363.09	23.04
363.301	20.99
363.512	35.33
363.723	-62.98
363.935	2.56
364.146	-5.63
364.357	80.38
364.568	-34.3
364.779	-36.35
364.99	72.19
365.201	57.86
365.412	35.33
365.623	-1.54
365.834	-5.63
366.045	27.14
366.256	31.23
366.467	49.66
366.678	59.9
366.889	-52.74
367.1	18.94
367.311	84.48
367.522	-30.21
367.733	61.95
367.944	18.94
368.155	49.66
368.366	14.85
368.577	-34.3
368.788	-34.3
368.999	12.8
369.209	66.05
369.42	92.67
369.631	127.49
369.842	-7.68
370.053	0.51
370.264	-9.73
370.474	-30.21
370.685	59.9
370.896	16.9
371.107	47.62
371.317	59.9
371.528	-1.54
371.739	14.85
371.95	-1.54
372.16	-30.21
372.371	-1.54
372.582	18.94
372.792	-17.92
373.003	33.28
373.214	43.52
373.424	80.38
373.635	-15.87
373.846	-7.68
374.056	45.57
374.267	61.95
374.477	16.9
374.688	104.96
374.898	6.66
375.109	20.99
375.319	-22.02
375.53	-17.92
375.74	-48.64
375.951	-9.73
376.161	-1.54
376.372	-24.06
376.582	-50.69
376.793	-1.54
377.003	-7.68
377.214	-5.63
377.424	37.38
377.635	-1.54
377.845	14.85
378.055	53.76
378.266	43.52
378.476	78.33
378.686	-28.16
378.897	39.42
379.107	6.66
379.317	109.05
379.528	31.23
379.738	49.66
379.948	-34.3
380.158	0.51
380.369	33.28
380.579	29.18
380.789	-22.02
380.999	29.18
381.21	47.62
381.42	12.8
381.63	-1.54
381.84	27.14
382.05	-3.58
382.261	51.71
382.471	41.47
382.681	-15.87
382.891	16.9
383.101	72.19
383.311	6.66
383.521	14.85
383.731	37.38
383.941	47.62
384.151	84.48
384.361	2.56
384.571	2.56
384.781	14.85
384.991	74.24
385.201	-36.35
385.411	39.42
385.621	64
385.831	-7.68
386.041	29.18
386.251	100.86
386.461	23.04
386.671	-15.87
386.881	66.05
387.091	-46.59
387.301	27.14
387.511	35.33
387.72	2.56
387.93	37.38
388.14	-32.26
388.35	-7.68
388.56	57.86
388.769	18.94
388.979	-75.26
389.189	6.66
389.399	70.14
389.609	10.75
389.818	66.05
390.028	61.95
390.238	25.09
390.447	-3.58
390.657	-13.82
390.867	-1.54
391.076	6.66
391.286	14.85
391.496	-22.02
391.705	10.75
391.915	39.42
392.125	-30.21
392.334	12.8
392.544	31.23
392.753	27.14
392.963	-15.87
393.172	33.28
393.382	6.66
393.591	88.57
393.801	80.38
394.01	39.42
394.22	72.19
394.429	45.57
394.639	29.18
394.848	8.7
395.058	-11.78
395.267	25.09
395.477	-9.73
395.686	90.62
395.895	47.62
396.105	47.62
396.314	68.09
396.524	35.33
396.733	53.76
396.942	84.48
397.152	29.18
397.361	55.81
397.57	33.28
397.78	-1.54
397.989	-79.36
398.198	51.71
398.407	33.28
398.617	33.28
398.826	-11.78
399.035	6.66
399.244	-32.26
399.453	70.14
399.663	100.86
399.872	57.86
400.081	27.14
400.29	57.86
400.499	37.38
400.708	152.06
400.917	96.77
401.127	43.52
401.336	74.24
401.545	104.96
401.754	117.25
401.963	-3.58
402.172	33.28
402.381	164.35
402.59	-24.06
402.799	55.81
403.008	-60.93
403.217	121.34
403.426	123.39
403.635	80.38
403.844	29.18
404.053	66.05
404.262	88.57
404.471	84.48
404.68	72.19
404.888	55.81
405.097	41.47
405.306	72.19
405.515	68.09
405.724	147.97
405.933	133.63
406.142	64
406.35	88.57
406.559	96.77
406.768	154.11
406.977	96.77
407.185	68.09
407.394	72.19
407.603	152.06
407.812	96.77
408.02	129.53
408.229	109.05
408.438	74.24
408.646	109.05
408.855	43.52
409.064	170.49
409.272	64
409.481	104.96
409.69	160.25
409.898	180.73
410.107	133.63
410.315	84.48
410.524	162.3
410.733	141.82
410.941	156.16
411.15	195.07
411.358	182.78
411.567	197.12
411.775	168.45
411.984	211.45
412.192	166.4
412.401	260.6
412.609	227.84
412.818	317.95
413.026	190.97
413.234	211.45
413.443	207.36
413.651	305.66
413.86	262.65
414.068	369.15
414.276	291.32
414.485	332.28
414.693	283.13
414.901	434.68
415.11	338.43
415.318	295.42
415.526	395.77
415.734	408.06
415.943	369.15
416.151	432.63
416.359	418.3
416.567	408.06
416.776	449.02
416.984	489.98
417.192	518.65
417.4	502.26
417.608	418.3
417.817	578.04
418.025	539.13
418.233	647.67
418.441	555.51
418.649	580.09
418.857	567.8
419.065	752.12
419.273	643.57
419.481	670.2
419.689	713.21
419.897	799.22
420.105	768.5
420.313	805.36
420.521	758.26
420.729	852.47
420.937	834.04
421.145	768.5
421.353	963.06
421.561	963.06
421.769	963.06
421.977	999.92
422.185	1030.64
422.393	1092.08
422.601	1169.9
422.809	1206.77
423.017	1227.25
423.224	1243.63
423.432	1368.56
423.64	1253.87
423.848	1354.22
424.056	1333.74
424.263	1438.19
424.471	1458.67
424.679	1499.63
424.887	1542.63
425.094	1606.12
425.302	1622.5
425.51	1585.64
425.718	1683.94
425.925	1898.98
426.133	1731.05
426.341	2011.62
426.548	2071.01
426.756	2009.57
426.964	2124.26
427.171	2159.07
427.379	2228.7
427.586	2277.85
427.794	2322.91
428.001	2419.16
428.209	2558.42
428.417	2447.83
428.624	2714.07
428.832	2800.09
429.039	2742.74
429.247	2558.42
429.454	3039.7
429.662	3041.75
429.869	2929.11
430.076	3252.69
430.284	3049.94
430.491	3133.9
430.699	3373.52
430.906	3434.96
431.114	3363.28
431.321	3566.03
431.528	3606.98
431.736	3887.56
431.943	4114.88
432.15	3817.93
432.358	3916.23
432.565	4137.41
432.772	4006.34
432.979	4368.83
433.187	4442.56
433.394	4428.22
433.601	4807.09
433.808	4968.88
434.016	4755.9
434.223	5020.08
434.43	5343.66
434.637	5192.11
434.844	5523.88
435.052	5542.32
435.259	5478.83
435.466	5605.8
435.673	5523.88
435.88	5925.29
436.087	6171.04
436.294	6209.95
436.501	5970.34
436.708	6025.64
436.915	6447.52
437.122	6691.23
437.329	6572.44
437.537	6891.93
437.743	6994.33
437.95	6918.55
438.157	7268.75
438.364	7584.14
438.571	7569.8
438.778	7477.65
438.985	8077.7
439.192	7952.77
439.399	8282.5
439.606	8026.5
439.813	8571.26
440.02	8960.38
440.227	8894.84
440.433	8708.48
440.64	9195.89
440.847	8866.17
441.054	9169.27
441.261	9884.01
441.467	9652.59
441.674	9841
441.881	10352.99
442.088	10287.46
442.294	10142.05
442.501	10604.89
442.708	10541.41
442.914	11139.41
443.121	11506
443.328	11153.75
443.534	12132.68
443.741	11770.19
443.948	11430.23
444.154	12290.37
444.361	12368.2
444.568	12396.87
444.774	12290.37
444.981	12513.6
445.187	12886.33
445.394	13433.14
445.6	13375.8
445.807	14614.82
446.013	13979.95
446.22	14244.13
446.426	14776.61
446.633	14932.25
446.839	15472.92
447.046	14811.42
447.252	15419.67
447.459	15624.47
447.665	15395.09
447.871	16212.23
448.078	17113.34
448.284	16222.47
448.491	16324.87
448.697	17164.54
448.903	17846.51
449.11	17436.92
449.316	17529.08
449.522	17862.9
449.728	18288.87
449.935	18426.09
450.141	18335.98
450.347	18684.13
450.553	18286.82
450.76	18401.51
450.966	19048.67
451.172	18983.13
451.378	19665.11
451.584	18841.82
451.791	19484.89
451.997	19347.67
452.203	19710.16
452.409	19900.62
452.615	19859.66
452.821	19026.14
453.027	18897.12
453.233	19835.09
453.44	18720.99
453.646	19425.5
453.852	19591.38
454.058	19724.5
454.264	19165.4
454.47	19693.78
454.676	19042.53
454.882	19792.08
455.088	18063.6
455.294	18206.95
455.5	18673.89
455.705	18655.46
455.911	17973.49
456.117	17553.65
456.323	17400.05
456.529	16478.47
456.735	17463.54
456.941	16582.91
457.147	16453.89
457.352	15902.99
457.558	16103.69
457.764	16054.54
457.97	15356.18
458.176	15499.54
458.381	15366.42
458.587	14577.95
458.793	14526.75
458.999	13867.31
459.204	15051.03
459.41	14270.76
459.616	13590.83
459.821	13500.72
460.027	13447.47
460.233	13109.56
460.438	12484.93
460.644	12749.12
460.85	12140.87
461.055	11948.36
461.261	11714.89
461.466	10971.48
461.672	10551.65
461.878	11250
462.083	10678.62
462.289	10209.64
462.494	10312.03
462.7	9910.63
462.905	9685.36
463.111	9978.22
463.316	9986.41
463.522	9843.05
463.727	9797.99
463.932	9648.49
464.138	9859.43
464.343	9716.08
464.549	9406.83
464.754	9638.25
464.959	9937.26
465.165	9683.31
465.37	9167.22
465.575	9116.02
465.781	9267.57
465.986	9324.91
466.191	8980.85
466.397	8890.74
466.602	8378.75
466.807	8751.48
467.012	8657.28
467.218	8616.32
467.423	8610.17
467.628	8728.95
467.833	8954.23
468.038	8567.17
468.244	8503.68
468.449	8780.15
468.654	8419.71
468.859	8194.43
469.064	8255.87
469.269	8268.16
469.474	8096.13
469.679	8214.91
469.885	8110.47
470.09	8073.6
470.295	8317.31
470.5	7852.42
470.705	7989.64
470.91	7711.11
471.115	7715.21
471.32	7883.14
471.525	7797.13
471.73	7584.14
471.935	7565.71
472.139	7238.03
472.344	7397.78
472.549	7418.25
472.754	7213.46
472.959	7215.51
473.164	6920.6
473.369	6871.45
473.574	7225.75
473.778	7057.81
473.983	7018.9
474.188	7104.92
474.393	6508.96
474.598	6736.28
474.802	6592.92
475.007	6494.62
475.212	6840.73
475.417	6416.8
475.621	6424.99
475.826	6400.41
476.031	6322.59
476.235	6203.81
476.44	6140.32
476.645	6021.54
476.849	6095.27
477.054	6025.64
477.259	5919.14
477.463	5933.48
477.668	5935.53
477.872	5855.65
478.077	5978.53
478.282	5599.66
478.486	5544.36
478.691	5568.94
478.895	5476.78
479.1	5536.17
479.304	5587.37
479.509	5171.63
479.713	5513.64
479.918	5378.48
480.122	5155.25
480.326	5312.94
480.531	5431.73
480.735	5259.7
480.94	5421.49
481.144	5388.72
481.348	5001.65
481.553	5134.77
481.757	5353.9
481.961	5185.97
482.166	5175.73
482.37	5249.46
482.574	5038.52
482.778	5036.47
482.983	5200.3
483.187	5216.69
483.391	5153.2
483.595	5110.19
483.8	5175.73
484.004	5005.75
484.208	5224.88
484.412	5036.47
484.616	5093.81
484.821	5304.75
485.025	5083.57
485.229	5122.48
485.433	4954.55
485.637	4882.87
485.841	5208.5
486.045	5056.95
486.249	5106.1
486.453	5300.66
486.657	5126.58
486.861	5157.3
487.065	5015.99
487.269	5202.35
487.473	5018.04
487.677	5147.06
487.881	5192.11
488.085	5007.8
488.289	5149.11
488.493	5003.7
488.697	5192.11
488.901	5401.01
489.105	5079.47
489.309	5233.07
489.512	5337.52
489.716	5351.85
489.92	5202.35
490.124	5218.74
490.328	5325.23
490.531	5222.83
490.735	5339.57
490.939	5341.61
491.143	5267.89
491.346	5390.77
491.55	5314.99
491.754	5513.64
491.958	5446.06
492.161	5269.94
492.365	5562.8
492.569	5452.2
492.772	5501.36
492.976	5534.12
493.18	5532.08
493.383	5439.92
493.587	5626.28
493.79	5587.37
493.994	5736.87
494.197	5630.38
494.401	5628.33
494.605	5835.17
494.808	5874.09
495.012	5890.47
495.215	5919.14
495.419	5964.2
495.622	5876.13
495.825	6015.4
496.029	5882.28
496.232	6111.65
496.436	6062.5
496.639	6269.34
496.843	6209.95
497.046	6496.67
497.249	6617.5
497.453	6463.9
497.656	6412.7
497.859	6414.75
498.063	6605.21
498.266	6807.96
498.469	6668.7
498.673	6830.49
498.876	6893.97
499.079	7078.29
499.282	6998.42
499.485	7068.05
499.689	7209.36
499.892	7154.07
500.095	7268.75
500.298	7504.27
500.501	7340.43
500.705	7612.81
500.908	7657.87
501.111	7627.15
501.314	7936.39
501.517	7766.41
501.72	7936.39
501.923	8006.02
502.126	8276.35
502.329	8477.05
502.532	8378.75
502.735	8397.18
502.938	8479.1
503.141	8673.66
503.344	8702.33
503.547	8739.19
503.75	8870.26
503.953	8911.22
504.156	9165.17
504.359	9312.63
504.562	9095.54
504.765	9492.85
504.968	9529.71
505.17	9660.78
505.373	9693.55
505.576	9857.39
505.779	9945.45
505.982	10033.51
506.185	10246.5
506.387	10238.31
506.59	10414.43
506.793	10516.83
506.996	10336.61
507.198	10615.13
507.401	10621.28
507.604	10772.83
507.807	11067.74
508.009	11213.14
508.212	11401.55
508.415	11426.13
508.617	11696.46
508.82	11510.1
509.022	11612.49
509.225	11942.22
509.428	12089.67
509.63	12106.06
509.833	12181.83
510.035	12306.76
510.238	12515.65
510.44	12450.11
510.643	12790.08
510.845	12894.52
511.048	12810.56
511.25	13310.26
511.453	13091.13
511.655	13529.39
511.858	13343.03
512.06	13736.24
512.262	13697.33
512.465	13693.23
512.667	14092.58
512.87	13938.99
513.072	14049.58
513.274	14653.73
513.477	14645.54
513.679	14663.97
513.881	14727.46
514.084	15128.86
514.286	15194.39
514.488	15333.65
514.69	15671.57
514.893	15573.27
515.095	15583.51
515.297	15923.47
515.499	16122.12
515.701	16204.04
515.904	16447.75
516.106	16445.7
516.308	16513.28
516.51	16697.6
516.712	16922.88
516.914	16781.57
517.116	17174.78
517.318	17590.52
517.52	17703.15
517.722	17690.87
517.925	17778.93
518.127	17963.25
518.329	18241.77
518.531	18106.6
518.733	18661.6
518.935	18733.28
519.136	18645.22
519.338	18833.63
519.54	19278.04
519.742	19593.43
519.944	19460.31
520.146	19718.36
520.348	19816.66
520.55	19867.86
520.752	20082.89
520.954	20584.65
521.155	19976.4
521.357	20519.11
521.559	20676.8
521.761	20975.81
521.963	21024.96
522.164	21389.5
522.366	21246.14
522.568	21555.38
522.77	21835.95
522.971	22124.72
523.173	21645.49
523.375	22132.91
523.576	22266.03
523.778	22098.09
523.98	22550.7
524.181	22663.33
524.383	22708.39
524.584	23038.11
524.786	23042.21
524.988	22804.64
525.189	23107.74
525.391	23468.19
525.592	23896.21
525.794	23732.37
525.995	23863.44
526.197	24062.1
526.398	23705.75
526.6	24000.66
526.801	24168.59
527.003	24377.48
527.204	24254.61
527.406	24744.07
527.607	24770.69
527.808	24899.72
528.01	24746.12
528.211	24445.07
528.412	25346.17
528.614	25180.29
528.815	25430.14
529.016	25254.01
529.218	25088.13
529.419	25223.3
529.62	25366.65
529.822	25604.22
530.023	25641.08
530.224	25694.33
530.425	25774.2
530.626	25804.92
530.828	25495.67
531.029	25757.81
531.23	25430.14
531.431	25667.7
531.632	26159.22
531.833	26114.16
532.035	25704.57
532.236	26116.21
532.437	25983.09
532.638	26151.02
532.839	26079.35
533.04	26378.35
533.241	25800.82
533.442	26886.25
533.643	26345.58
533.844	26224.75
534.045	26353.77
534.246	26290.29
534.447	26462.32
534.648	26290.29
534.849	26484.84
535.05	26167.41
535.251	26468.46
535.451	26464.36
535.652	26562.67
535.853	26361.97
536.054	26595.43
536.255	26548.33
536.456	26085.49
536.657	26538.09
536.857	26456.17
537.058	26099.83
537.259	26243.18
537.46	26540.14
537.66	26060.91
537.861	26271.86
538.062	26181.74
538.263	26572.91
538.463	26075.25
538.664	26562.67
538.865	26429.55
539.065	26654.83
539.266	26372.21
539.466	26605.67
539.667	25993.33
539.868	26579.05
540.068	26490.99
540.269	26282.09
540.469	26708.07
540.67	26386.54
540.87	26427.5
541.071	26366.06
541.271	26228.85
541.472	26126.45
541.672	26136.69
541.873	26214.51
542.073	26198.13
542.274	26656.87
542.474	26226.8
542.675	26282.09
542.875	26632.3
543.075	26454.12
543.276	26445.93
543.476	26628.2
543.676	26523.76
543.877	26558.57
544.077	26103.92
544.277	26171.5
544.478	26562.67
544.678	26450.03
544.878	26417.26
545.078	26413.16
545.279	26396.78
545.479	26306.67
545.679	26626.15
545.879	26316.91
546.079	26366.06
546.28	26628.2
546.48	26054.77
546.68	26536.04
546.88	26312.81
547.08	26703.98
547.28	26224.75
547.48	26089.59
547.68	26417.26
547.88	26179.7
548.081	26062.96
548.281	26153.07
548.481	26052.72
548.681	26435.69
548.881	26286.19
549.081	26144.88
549.28	25856.12
549.48	26384.49
549.68	26032.24
549.88	26689.64
550.08	26161.26
550.28	26017.91
550.48	26138.74
550.68	26407.02
550.88	25823.35
551.08	25999.48
551.279	26400.88
551.479	25923.7
551.679	26073.2
551.879	25854.07
552.079	26323.05
552.278	25964.66
552.478	26253.42
552.678	26112.11
552.878	26349.68
553.077	26097.78
553.277	25952.37
553.477	26476.65
553.676	25725.05
553.876	25796.73
554.076	25995.38
554.275	25843.83
554.475	25718.9
554.674	25946.23
554.874	25905.27
555.074	26030.19
555.273	25782.39
555.473	26146.93
555.672	25921.65
555.872	25485.44
556.071	25647.22
556.271	25845.88
556.47	25499.77
556.67	25696.38
556.869	25321.6
557.068	25583.74
557.268	25370.75
557.467	25452.67
557.667	25534.59
557.866	25272.45
558.065	25499.77
558.265	25196.67
558.464	25278.59
558.663	25667.7
558.863	25211.01
559.062	25657.46
559.261	25059.46
559.461	25272.45
559.66	25057.41
559.859	24903.81
560.058	24965.25
560.258	25155.71
560.457	24770.69
560.656	24940.68
560.855	25020.55
561.054	25053.31
561.253	24668.3
561.453	24787.08
561.652	24965.25
561.851	24651.91
562.05	24549.51
562.249	24637.58
562.448	24600.71
562.647	24504.46
562.846	24649.86
563.045	24510.6
563.244	24033.43
563.443	24148.11
563.642	24043.67
563.841	24244.37
564.04	24049.81
564.239	24264.85
564.438	24078.48
564.637	23924.88
564.836	24285.33
565.035	23720.09
565.234	23703.7
565.432	23787.67
565.631	23548.06
565.83	23773.33
566.029	23652.5
566.228	23480.47
566.427	23232.67
566.625	23355.55
566.824	23183.52
567.023	23169.18
567.222	23148.7
567.42	23222.43
567.619	23222.43
567.818	22818.98
568.016	23242.91
568.215	23066.78
568.414	23113.89
568.612	23142.56
568.811	22722.73
569.01	22907.04
569.208	22495.4
569.407	22853.8
569.605	22567.08
569.804	22413.48
570.002	22429.87
570.201	22763.68
570.4	22393
570.598	22007.98
570.797	21754.04
570.995	21934.26
571.193	21893.3
571.392	22155.44
571.59	22130.86
571.789	21983.41
571.987	21938.35
572.186	21844.15
572.384	21649.59
572.582	21655.73
572.781	21495.99
572.979	21323.96
573.177	21436.6
573.376	21452.98
573.574	21342.39
573.772	21162.17
573.971	21153.98
574.169	20844.74
574.367	21053.63
574.565	21166.27
574.763	20879.55
574.962	21065.92
575.16	20750.53
575.358	20723.91
575.556	20293.83
575.754	20828.35
575.952	20756.68
576.151	20560.07
576.349	20398.28
576.547	20715.72
576.745	20488.39
576.943	20273.35
577.141	20263.11
577.339	20267.21
577.537	20207.82
577.735	20334.79
577.933	19943.63
578.131	20021.45
578.329	19892.43
578.527	19931.34
578.725	19796.18
578.923	20107.47
579.121	19695.83
579.319	19687.64
579.516	19835.09
579.714	19400.92
579.912	19247.32
580.11	19366.1
580.308	19534.04
580.506	19173.6
580.704	19040.48
580.901	19239.13
581.099	19314.91
581.297	18966.75
581.495	18995.42
581.692	19196.12
581.89	18866.4
582.088	19067.1
582.285	18897.12
582.483	18909.41
582.681	18780.39
582.878	18868.45
583.076	18460.9
583.274	18708.71
583.471	18534.63
583.669	18415.85
583.866	18352.36
584.064	18610.4
584.262	18209
584.459	18446.57
584.657	18219.24
584.854	18245.87
585.052	17926.38
585.249	18378.98
585.447	18137.32
585.644	17656.05
585.841	17965.29
586.039	18120.94
586.236	17809.65
586.434	17828.08
586.631	17408.25
586.828	17576.18
587.026	17684.72
587.223	17709.3
587.42	17406.2
587.618	17457.4
587.815	17307.9
588.012	17400.05
588.21	17242.36
588.407	17623.28
588.604	16752.9
588.801	17242.36
588.999	17021.18
589.196	17109.24
589.393	16984.32
589.59	16769.28
589.787	17125.63
589.984	16840.96
590.182	16963.84
590.379	17000.7
590.576	16924.93
590.773	16802.05
590.97	16550.15
591.167	16605.44
591.364	16517.38
591.561	16632.07
591.758	16449.8
591.955	16259.34
592.152	16636.16
592.349	16414.98
592.546	16345.35
592.743	16171.27
592.94	16023.82
593.137	16216.33
593.334	16156.94
593.531	15993.1
593.727	15841.55
593.924	16046.35
594.121	15788.3
594.318	16115.98
594.515	15597.84
594.712	15810.83
594.908	15941.9
595.105	15589.65
595.302	15542.55
595.499	15857.93
595.696	15474.96
595.892	15382.81
596.089	15460.63
596.286	15368.47
596.482	15456.53
596.679	15122.71
596.876	15235.35
597.072	15218.97
597.269	15159.58
597.466	15059.23
597.662	15055.13
597.859	14782.75
598.055	14905.63
598.252	14690.59
598.448	14977.31
598.645	14950.68
598.841	14838.05
599.038	14743.84
599.234	15087.9
599.431	14739.74
599.627	14545.19
599.824	14639.39
600.02	14588.19
600.217	14457.12
600.413	14692.64
600.609	14571.81
600.806	14364.96
601.002	14510.37
601.198	14207.27
601.395	14354.72
601.591	14113.06
601.787	14180.65
601.984	13898.03
602.18	14070.06
602.376	13918.51
602.572	14016.81
602.769	13826.35
602.965	13707.57
603.161	14039.34
603.357	13822.25
603.553	13551.92
603.75	13508.91
603.946	13517.11
604.142	13541.68
604.338	13551.92
604.534	13644.08
604.73	13588.78
604.926	13572.4
605.122	13486.39
605.318	13173.05
605.514	13218.1
605.71	13273.4
605.906	13375.8
606.102	13173.05
606.298	13322.55
606.494	13027.64
606.69	13279.54
606.886	13095.22
607.082	12867.9
607.278	12994.87
607.474	12912.95
607.67	12816.7
607.866	12937.53
608.062	13021.5
608.257	13091.13
608.453	12855.61
608.649	12843.32
608.845	12761.41
609.041	12747.07
609.236	12919.1
609.432	12532.03
609.628	12542.27
609.824	12495.17
610.019	12550.46
610.215	12759.36
610.411	12564.8
610.606	12478.79
610.802	12464.45
610.998	12529.98
611.193	12464.45
611.389	12306.76
611.584	12321.09
611.78	12237.13
611.976	12437.83
612.171	12378.44
612.367	12222.79
612.562	12153.16
612.758	12327.24
612.953	12077.38
613.149	12181.83
613.344	12061
613.539	11985.23
613.735	12208.45
613.93	12106.06
614.126	11995.46
614.321	12208.45
614.517	12034.38
614.712	11907.4
614.907	11772.24
615.103	11925.83
615.298	12026.18
615.493	11921.74
615.688	11786.57
615.884	11796.81
616.079	11632.97
616.274	11794.76
616.47	11663.69
616.665	11635.02
616.86	11661.65
617.055	11491.66
617.25	11549.01
617.445	11608.4
617.641	11632.97
617.836	11540.82
618.031	11284.82
618.226	11340.11
618.421	11280.72
618.616	11549.01
618.811	11297.11
619.006	11487.57
619.201	11188.57
619.396	11266.39
619.591	11057.5
619.786	11200.85
619.981	11123.03
620.176	11065.69
620.371	10676.57
620.566	11028.82
620.761	10832.22
620.956	11014.49
621.151	10961.24
621.346	10817.88
621.541	10680.67
621.735	10795.36
621.93	10572.13
622.125	10619.23
622.32	10336.61
622.515	10330.47
622.709	10256.74
622.904	10201.44
623.099	10340.71
623.294	10238.31
623.488	10223.97
623.683	9990.5
623.878	9988.46
624.072	10023.27
624.267	10006.89
624.462	9871.72
624.656	9789.8
624.851	9877.87
625.046	9722.22
625.24	9658.73
625.435	9646.44
625.629	9554.29
625.824	9660.78
626.018	9652.59
626.213	9322.87
626.407	9396.59
626.602	9294.19
626.796	9361.78
626.991	9281.91
627.185	9271.67
627.38	9171.32
627.574	9036.15
627.768	8931.7
627.963	9036.15
628.157	8817.02
628.352	8919.42
628.546	8747.39
628.74	8860.02
628.935	8843.64
629.129	8774.01
629.323	8569.21
629.517	8618.36
629.712	8632.7
629.906	8628.6
630.1	8233.35
630.294	8563.07
630.489	8495.49
630.683	8542.59
630.877	8391.04
631.071	8446.34
631.265	8309.12
631.459	8270.21
631.653	8259.97
631.848	8149.38
632.042	8024.45
632.236	8104.32
632.43	8053.13
632.624	7913.86
632.818	8012.17
633.012	7768.46
633.206	7848.33
633.4	7889.29
633.594	7899.53
633.788	7625.1
633.982	7825.8
634.176	7715.21
634.369	7713.16
634.563	7557.52
634.757	7414.16
634.951	7623.05
635.145	7295.38
635.339	7426.45
635.533	7354.77
635.726	7397.78
635.92	7231.89
636.114	7270.8
636.308	7102.87
636.501	7012.76
636.695	7162.26
636.889	7010.71
637.083	7031.19
637.276	6986.13
637.47	6936.98
637.664	7029.14
637.857	6979.99
638.051	6840.73
638.244	6707.61
638.438	6738.33
638.632	6822.3
638.825	6734.23
639.019	6644.12
639.212	6472.09
639.406	6586.78
639.599	6535.58
639.793	6619.55
639.986	6398.37
640.18	6443.42
640.373	6371.74
640.567	6404.51
640.76	6437.28
640.954	6298.02
641.147	6244.77
641.34	6175.14
641.534	6027.68
641.727	5990.82
641.92	6179.23
642.114	6087.08
642.307	5970.34
642.5	5978.53
642.694	5894.57
642.887	5970.34
643.08	6205.86
643.273	5855.65
643.467	5906.85
643.66	5925.29
643.853	5773.74
644.046	5685.67
644.239	5859.75
644.432	5644.71
644.626	5636.52
644.819	5597.61
645.012	5714.34
645.205	5642.67
645.398	5542.32
645.591	5499.31
645.784	5429.68
645.977	5411.25
646.17	5462.44
646.363	5386.67
646.556	5353.9
646.749	5392.81
646.942	5269.94
647.135	5323.18
647.328	5392.81
647.521	5235.12
647.714	5300.66
647.907	5282.22
648.099	5286.32
648.292	5192.11
648.485	5151.15
648.678	5216.69
648.871	5073.33
649.064	5018.04
649.256	5042.61
649.449	5024.18
649.642	4891.06
649.835	4948.4
650.027	4997.56
650.22	5102
650.413	4854.2
650.605	4749.75
650.798	4792.76
650.991	4811.19
651.183	4710.84
651.376	4729.27
651.568	4698.55
651.761	4665.78
651.954	4684.22
652.146	4569.53
652.339	4661.69
652.531	4585.91
652.724	4585.91
652.916	4456.89
653.109	4628.92
653.301	4491.71
653.494	4487.61
653.686	4448.7
653.879	4372.93
654.071	4274.62
654.263	4211.14
654.456	4278.72
654.648	4465.08
654.84	4379.07
655.033	4307.39
655.225	4237.76
655.417	4276.67
655.61	4229.57
655.802	4241.86
655.994	4057.54
656.186	4137.41
656.379	4184.51
656.571	4176.32
656.763	4002.24
656.955	4149.7
657.148	4080.07
657.34	4088.26
657.532	4012.48
657.724	4057.54
657.916	3905.99
658.108	3916.23
658.3	3905.99
658.492	3955.14
658.684	3776.97
658.876	3959.24
659.068	3840.45
659.26	3654.09
659.452	3869.12
659.644	3891.65
659.836	3736.01
660.028	3776.97
660.22	3703.24
660.412	3664.33
660.604	3619.27
660.796	3693
660.988	3742.15
661.18	3717.58
661.372	3604.94
661.563	3619.27
661.755	3588.55
661.947	3588.55
662.139	3406.28
662.331	3434.96
662.522	3389.9
662.714	3416.52
662.906	3381.71
663.097	3357.13
663.289	3375.56
663.481	3260.88
663.673	3348.94
663.864	3318.22
664.056	3328.46
664.247	3316.17
664.439	3344.84
664.631	3289.55
664.822	3389.9
665.014	3363.28
665.205	3246.54
665.397	3289.55
665.588	3111.38
665.78	3230.16
665.971	3113.42
666.163	3127.76
666.354	3111.38
666.546	3084.75
666.737	2996.69
666.929	3168.72
667.12	3086.8
667.311	3054.03
667.503	3033.55
667.694	3054.03
667.885	2914.77
668.077	3049.94
668.268	2892.24
668.459	3000.79
668.651	2963.92
668.842	3049.94
669.033	2996.69
669.224	2834.9
669.416	3123.66
669.607	2941.4
669.798	2970.07
669.989	2898.39
670.18	2871.76
670.371	2863.57
670.563	2787.8
670.754	2920.92
670.945	2789.85
671.136	2736.6
671.327	2816.47
671.518	2675.16
671.709	2763.22
671.9	2834.9
672.091	2820.56
672.282	2771.41
672.473	2755.03
672.664	2636.25
672.855	2839
673.046	2707.93
673.237	2695.64
673.428	2537.95
673.619	2554.33
673.809	2705.88
674	2587.1
674.191	2560.47
674.382	2669.02
674.573	2628.06
674.764	2716.12
674.954	2685.4
675.145	2562.52
675.336	2601.43
675.527	2474.46
675.717	2558.42
675.908	2503.13
676.099	2449.88
676.289	2597.34
676.48	2527.71
676.671	2388.44
676.861	2539.99
677.052	2462.17
677.243	2419.16
677.433	2519.51
677.624	2501.08
677.814	2404.83
678.005	2535.9
678.195	2439.64
678.386	2462.17
678.576	2394.59
678.767	2466.27
678.957	2449.88
679.148	2435.55
679.338	2429.4
679.529	2396.64
679.719	2294.24
679.909	2390.49
680.1	2281.95
680.29	2396.64
680.481	2380.25
680.671	2343.39
680.861	2316.76
681.052	2376.16
681.242	2318.81
681.432	2341.34
681.622	2333.15
681.813	2255.33
682.003	2345.44
682.193	2232.8
682.383	2331.1
682.573	2216.41
682.764	2341.34
682.954	2306.52
683.144	2327
683.334	2384.35
683.524	2208.22
683.714	2353.63
683.904	2359.77
684.094	2236.89
684.284	2296.28
684.474	2324.96
684.664	2292.19
684.854	2185.69
685.044	2302.43
685.234	2048.48
685.424	2187.74
685.614	2183.65
685.804	2107.87
685.994	2277.85
686.184	2302.43
686.374	2148.83
686.564	2169.31
686.753	2120.16
686.943	2161.12
687.133	2136.54
687.323	2109.92
687.513	2224.61
687.702	2157.02
687.892	2050.53
688.082	2197.98
688.272	2193.89
688.461	2111.97
688.651	2255.33
688.841	2148.83
689.03	2030.05
689.22	1939.94
689.41	2142.69
689.599	1982.95
689.789	2068.96
689.979	1931.75
690.168	1970.66
690.358	2030.05
690.547	2040.29
690.737	2011.62
690.926	2023.91
691.116	1964.51
691.305	2011.62
691.495	2030.05
691.684	1888.74
691.874	2021.86
692.063	1944.03
692.252	1982.95
692.442	1870.31
692.631	1882.6
692.82	1903.07
693.01	1903.07
693.199	1896.93
693.388	1884.64
693.578	1876.45
693.767	1896.93
693.956	1919.46
694.146	1827.3
694.335	1858.02
694.524	1833.44
694.713	1911.27
694.902	1845.73
695.092	1872.36
695.281	1778.15
695.47	1919.46
695.659	1841.64
695.848	1772
696.037	1860.07
696.226	1833.44
696.415	1755.62
696.604	1927.65
696.793	1847.78
696.982	1731.05
697.171	1835.49
697.36	1749.48
697.549	1800.68
697.738	1741.29
697.927	1876.45
698.116	1749.48
698.305	1876.45
698.494	1829.35
698.683	1800.68
698.872	1810.92
699.061	1722.85
699.25	1829.35
699.438	1767.91
699.627	1761.77
699.816	1800.68
700.005	1729
700.193	1780.2
700.382	1841.64
700.571	1786.34
700.76	1833.44
700.948	1778.15
701.137	1948.13
701.326	1851.88
701.514	1833.44
701.703	1847.78
701.892	1757.67
702.08	1835.49
702.269	1868.26
702.457	1774.05
702.646	1751.53
702.834	1685.99
703.023	1729
703.212	1833.44
703.4	1685.99
703.589	1778.15
703.777	1759.72
703.965	1718.76
704.154	1724.9
704.342	1780.2
704.531	1708.52
704.719	1892.84
704.907	1835.49
705.096	1761.77
705.284	1786.34
705.472	1733.09
705.661	1769.96
705.849	1819.11
706.037	1749.48
706.226	1710.57
706.414	1810.92
706.602	1737.19
706.79	1815.01
706.979	1685.99
707.167	1837.54
707.355	1653.22
707.543	1585.64
707.731	1772
707.919	1776.1
708.107	1808.87
708.296	1761.77
708.484	1702.37
708.672	1827.3
708.86	1767.91
709.048	1835.49
709.236	1767.91
709.424	1708.52
709.612	1782.24
709.8	1839.59
709.988	1769.96
710.176	1845.73
710.364	1851.88
710.551	1810.92
710.739	1774.05
710.927	1878.5
711.115	1817.06
711.303	1810.92
711.491	1772
711.679	1776.1
711.866	1788.39
712.054	1724.9
712.242	1761.77
712.43	1874.4
712.617	1747.43
712.805	1845.73
712.993	1833.44
713.181	1751.53
713.368	1870.31
713.556	1794.53
713.744	1772
713.931	1753.57
714.119	1835.49
714.306	1735.14
714.494	1851.88
714.682	1776.1
714.869	1694.18
715.057	1880.55
715.244	1776.1
715.432	1812.96
715.619	1776.1
715.807	1858.02
715.994	1829.35
716.182	1798.63
716.369	1753.57
716.556	1808.87
716.744	1853.92
716.931	1802.72
717.119	1808.87
717.306	1769.96
717.493	1878.5
717.681	1784.29
717.868	1870.31
718.055	1931.75
718.242	1790.44
718.43	1835.49
718.617	1841.64
718.804	1821.16
718.991	1835.49
719.179	1718.76
719.366	1876.45
719.553	1796.58
719.74	1759.72
719.927	1798.63
720.114	1870.31
720.301	1919.46
720.488	1772
720.676	1794.53
720.863	1901.03
721.05	1878.5
721.237	1825.25
721.424	1835.49
721.611	1855.97
721.798	1749.48
721.985	1759.72
722.172	1808.87
722.358	1737.19
722.545	1896.93
722.732	1767.91
722.919	1937.89
723.106	1806.82
723.293	1808.87
723.48	1800.68
723.667	1841.64
723.853	1765.86
724.04	1901.03
724.227	1800.68
724.414	1808.87
724.6	1794.53
724.787	1776.1
724.974	1825.25
725.161	1790.44
725.347	1763.81
725.534	1880.55
725.72	1817.06
725.907	1757.67
726.094	1874.4
726.28	1790.44
726.467	1888.74
726.653	1716.71
726.84	1808.87
727.027	1972.71
727.213	1868.26
727.4	1855.97
727.586	1917.41
727.773	1860.07
727.959	1812.96
728.145	1751.53
728.332	1810.92
728.518	1792.48
728.705	1808.87
728.891	1860.07
729.077	1833.44
729.264	1761.77
729.45	1892.84
729.636	1898.98
729.823	1890.79
730.009	1870.31
730.195	1810.92
730.382	1843.68
730.568	1860.07
730.754	1759.72
730.94	1921.51
731.126	1853.92
731.313	1931.75
731.499	1866.21
731.685	1831.4
731.871	1864.16
732.057	1933.79
732.243	1835.49
732.429	1794.53
732.615	1845.73
732.801	1892.84
732.987	1782.24
733.173	1794.53
733.359	1835.49
733.545	1755.62
733.731	1874.4
733.917	1890.79
734.103	1772
734.289	1911.27
734.475	1851.88
734.661	1782.24
734.847	1882.6
735.033	1800.68
735.219	1757.67
735.404	1829.35
735.59	1800.68
735.776	1923.55
735.962	1769.96
736.148	1810.92
736.333	1817.06
736.519	1843.68
736.705	1769.96
736.89	1829.35
737.076	1790.44
737.262	1829.35
737.447	1767.91
737.633	1837.54
737.819	1827.3
738.004	1729
738.19	1796.58
738.375	1782.24
738.561	1827.3
738.747	1729
738.932	1737.19
739.118	1819.11
739.303	1790.44
739.489	1778.15
739.674	1780.2
739.859	1835.49
740.045	1640.93
740.23	1896.93
740.416	1726.95
740.601	1751.53
740.786	1710.57
740.972	1712.61
741.157	1817.06
741.342	1776.1
741.528	1636.84
741.713	1743.33
741.898	1663.46
742.084	1645.03
742.269	1714.66
742.454	1630.7
742.639	1673.7
742.824	1628.65
743.01	1577.45
743.195	1694.18
743.38	1628.65
743.565	1524.2
743.75	1681.89
743.935	1604.07
744.12	1550.82
744.305	1622.5
744.49	1679.85
744.675	1616.36
744.86	1579.5
745.045	1604.07
745.23	1528.3
745.415	1597.93
745.6	1448.43
745.785	1567.21
745.97	1679.85
746.155	1538.54
746.34	1511.91
746.525	1563.11
746.71	1487.34
746.895	1538.54
747.079	1481.19
747.264	1450.47
747.449	1579.5
747.634	1452.52
747.819	1462.76
748.003	1495.53
748.188	1481.19
748.373	1620.46
748.557	1432.04
748.742	1419.75
748.927	1429.99
749.111	1546.73
749.296	1413.61
749.481	1382.89
749.665	1417.71
749.85	1395.18
750.034	1360.36
750.219	1497.58
750.404	1341.93
750.588	1280.49
750.773	1268.2
750.957	1360.36
751.141	1339.88
751.326	1354.22
751.51	1311.21
751.695	1325.55
751.879	1217.01
752.064	1354.22
752.248	1333.74
752.432	1329.64
752.617	1372.65
752.801	1229.29
752.985	1229.29
753.17	1303.02
753.354	1313.26
753.538	1186.29
753.722	1155.57
753.907	1184.24
754.091	1178.09
754.275	1237.49
754.459	1169.9
754.643	1145.33
754.828	1137.13
755.012	1155.57
755.196	1194.48
755.38	1235.44
755.564	1171.95
755.748	1130.99
755.932	1063.41
756.116	1167.85
756.3	1069.55
756.484	1067.5
756.668	1124.85
756.852	1118.7
757.036	1112.56
757.22	1006.06
757.404	967.15
757.588	1071.6
757.772	1028.59
757.956	1096.18
758.14	1071.6
758.323	989.68
758.507	1075.7
758.691	1014.26
758.875	999.92
759.059	1057.26
759.242	1063.41
759.426	995.82
759.61	999.92
759.794	987.63
759.977	1010.16
760.161	1008.11
760.345	973.3
760.528	1010.16
760.712	911.86
760.895	1001.97
761.079	934.39
761.263	973.3
761.446	993.78
761.63	877.04
761.813	893.43
761.997	815.6
762.18	920.05
762.364	1063.41
762.547	805.36
762.731	897.52
762.914	788.98
763.098	848.37
763.281	1036.78
763.464	922.1
763.648	942.58
763.831	891.38
764.015	831.99
764.198	891.38
764.381	866.8
764.564	860.66
764.748	874.99
764.931	852.47
765.114	815.6
765.297	831.99
765.481	756.21
765.664	793.08
765.847	733.68
766.03	829.94
766.213	782.84
766.397	813.56
766.58	731.64
766.763	791.03
766.946	788.98
767.129	739.83
767.312	739.83
767.495	825.84
767.678	745.97
767.861	776.69
768.044	797.17
768.227	762.36
768.41	713.21
768.593	805.36
768.776	752.12
768.959	821.75
769.142	848.37
769.324	780.79
769.507	764.4
769.69	768.5
769.873	727.54
770.056	825.84
770.239	788.98
770.421	795.12
770.604	821.75
770.787	743.92
770.97	713.21
771.152	643.57
771.335	762.36
771.518	662.01
771.7	723.44
771.883	690.68
772.066	705.01
772.248	735.73
772.431	709.11
772.613	717.3
772.796	676.34
772.978	682.49
773.161	686.58
773.343	580.09
773.526	690.68
773.708	668.15
773.891	645.62
774.073	733.68
774.256	569.85
774.438	758.26
774.621	655.86
774.803	680.44
774.985	655.86
775.168	627.19
775.35	602.61
775.532	680.44
775.715	557.56
775.897	637.43
776.079	625.14
776.261	541.18
776.444	694.77
776.626	528.89
776.808	530.94
776.99	543.22
777.173	518.65
777.355	653.81
777.537	598.52
777.719	530.94
777.901	649.72
778.083	522.74
778.265	485.88
778.447	565.75
778.629	561.66
778.811	522.74
778.993	487.93
779.175	506.36
779.357	526.84
779.539	496.12
779.721	567.8
779.903	481.78
780.085	530.94
780.267	504.31
780.449	489.98
780.631	481.78
780.812	438.78
780.994	500.22
781.176	481.78
781.358	465.4
781.54	522.74
781.721	492.02
781.903	516.6
782.085	412.15
782.267	541.18
782.448	393.72
782.63	494.07
782.812	475.64
782.993	393.72
783.175	412.15
783.357	403.96
783.538	449.02
783.72	403.96
783.901	420.35
784.083	483.83
784.264	408.06
784.446	375.29
784.627	393.72
784.809	403.96
784.99	416.25
785.172	360.95
785.353	352.76
785.535	418.3
785.716	424.44
785.897	418.3
786.079	363
786.26	426.49
786.441	334.33
786.623	334.33
786.804	279.04
786.985	336.38
787.167	324.09
787.348	375.29
787.529	358.91
787.71	391.67
787.891	442.87
788.073	272.89
788.254	276.99
788.435	410.11
788.616	403.96
788.797	295.42
788.978	358.91
789.159	295.42
789.34	363
789.522	281.08
789.703	244.22
789.884	252.41
790.065	387.58
790.246	244.22
790.427	274.94
790.607	283.13
790.788	342.52
790.969	283.13
791.15	295.42
791.331	219.64
791.512	326.14
791.693	270.84
791.874	254.46
792.054	356.86
792.235	283.13
792.416	268.8
792.597	229.88
792.778	356.86
792.958	272.89
793.139	240.12
793.32	248.32
793.5	240.12
793.681	322.04
793.862	322.04
794.042	219.64
794.223	197.12
794.404	186.88
794.584	231.93
794.765	242.17
794.945	231.93
795.126	287.23
795.306	197.12
795.487	252.41
795.667	221.69
795.848	256.51
796.028	229.88
796.209	215.55
796.389	266.75
796.57	262.65
796.75	193.02
796.93	201.21
797.111	203.26
797.291	180.73
797.471	231.93
797.652	227.84
797.832	201.21
798.012	166.4
798.192	188.93
798.373	211.45
798.553	252.41
798.733	268.8
798.913	188.93
799.093	256.51
799.274	219.64
799.454	172.54
799.634	201.21
799.814	250.36
799.994	207.36
800.174	172.54
800.354	172.54
800.534	180.73
800.714	213.5
800.894	180.73
801.074	133.63
801.254	172.54
801.434	205.31
801.614	203.26
801.794	137.73
801.974	686.58
802.154	143.87
802.334	272.89
802.514	197.12
802.693	209.4
802.873	141.82
803.053	252.41
803.233	135.68
803.413	150.01
803.592	190.97
803.772	184.83
803.952	219.64
804.131	211.45
804.311	152.06
804.491	182.78
804.67	184.83
804.85	197.12
805.03	139.77
805.209	150.01
805.389	182.78
805.568	223.74
805.748	176.64
805.928	129.53
806.107	172.54
806.287	117.25
806.466	227.84
806.646	205.31
806.825	104.96
807.004	115.2
807.184	145.92
807.363	184.83
807.543	158.21
807.722	129.53
807.901	88.57
808.081	104.96
808.26	111.1
808.439	100.86
808.619	156.16
808.798	129.53
808.977	205.31
809.156	145.92
809.336	84.48
809.515	164.35
809.694	129.53
809.873	98.81
810.052	164.35
810.231	135.68
810.411	170.49
810.59	96.77
810.769	199.16
810.948	199.16
811.127	84.48
811.306	129.53
811.485	158.21
811.664	80.38
811.843	129.53
812.022	145.92
812.201	74.24
812.38	123.39
812.559	96.77
812.737	68.09
812.916	125.44
813.095	158.21
813.274	47.62
813.453	64
813.632	141.82
813.811	51.71
813.989	90.62
814.168	117.25
814.347	117.25
814.526	100.86
814.704	100.86
814.883	129.53
815.062	-75.26
815.24	139.77
815.419	109.05
815.598	82.43
815.776	137.73
815.955	66.05
816.133	109.05
816.312	156.16
816.49	121.34
816.669	92.67
816.847	68.09
817.026	131.58
817.204	80.38
817.383	145.92
817.561	104.96
817.74	137.73
817.918	133.63
818.097	88.57
818.275	131.58
818.453	78.33
818.632	152.06
818.81	127.49
818.988	74.24
819.167	117.25
819.345	66.05
819.523	41.47
819.701	115.2
819.879	104.96
820.058	33.28
820.236	121.34
820.414	72.19
820.592	88.57
820.77	135.68
820.948	84.48
821.127	102.91
821.305	111.1
821.483	45.57
821.661	55.81
821.839	76.29
822.017	51.71
822.195	64
822.373	109.05
822.551	74.24
822.729	137.73
822.907	113.15
823.085	96.77
823.262	72.19
823.44	14.85
823.618	45.57
823.796	53.76
823.974	100.86
824.152	47.62
824.329	72.19
824.507	47.62
824.685	78.33
824.863	88.57
825.04	12.8
825.218	72.19
825.396	47.62
825.574	90.62
825.751	59.9
825.929	-3.58
826.107	68.09
826.284	104.96
826.462	186.88
826.639	47.62
826.817	-1.54
826.994	76.29
827.172	12.8
827.349	84.48
827.527	84.48
827.704	125.44
827.882	29.18
828.059	82.43
828.237	27.14
828.414	66.05
828.591	-15.87
828.769	76.29
828.946	-26.11
829.124	33.28
829.301	-1.54
829.478	41.47
829.655	6.66
829.833	35.33
830.01	8.7
830.187	80.38
830.364	102.91
830.542	72.19
830.719	23.04
830.896	41.47
831.073	74.24
831.25	23.04
831.427	-5.63
831.604	47.62
831.782	86.53
831.959	45.57
832.136	47.62
832.313	43.52
832.49	51.71
832.667	66.05
832.844	-5.63
833.021	82.43
833.198	25.09
833.374	94.72
833.551	31.23
833.728	76.29
833.905	156.16
834.082	2.56
834.259	59.9
834.436	147.97
834.612	57.86
834.789	31.23
834.966	57.86
835.143	51.71
835.319	59.9
835.496	33.28
835.673	2.56
835.85	59.9
836.026	47.62
836.203	90.62
836.38	33.28
836.556	88.57
836.733	-79.36
836.909	31.23
837.086	-24.06
837.262	-36.35
837.439	35.33
837.616	12.8
837.792	-60.93
837.968	64
838.145	-17.92
838.321	57.86
838.498	35.33
838.674	74.24
838.851	8.7
839.027	23.04
839.203	66.05
839.38	64
839.556	-3.58
839.732	14.85
839.909	43.52
840.085	80.38
840.261	16.9
840.437	2.56
840.614	74.24
840.79	31.23
840.966	84.48
841.142	31.23
841.318	23.04
841.494	16.9
841.671	37.38
841.847	-40.45
842.023	59.9
842.199	2.56
842.375	88.57
842.551	-17.92
842.727	-11.78
842.903	12.8
843.079	51.71
843.255	88.57
843.431	25.09
843.607	59.9
843.783	-44.54
843.959	88.57
844.134	80.38
844.31	92.67
844.486	20.99
844.662	31.23
844.838	10.75
845.013	25.09
845.189	16.9
845.365	0.51
845.541	47.62
845.716	41.47
845.892	72.19
846.068	-11.78
846.244	27.14
846.419	-9.73
846.595	64
846.77	29.18
846.946	45.57
847.122	-87.55
847.297	-3.58
847.473	90.62
847.648	47.62
847.824	8.7
847.999	-42.5
848.175	-3.58
848.35	72.19
848.526	135.68
848.701	59.9
848.876	-67.07
849.052	12.8
849.227	4.61
849.403	-62.98
849.578	8.7
849.753	-5.63
849.929	92.67
850.104	2.56
850.279	35.33
850.454	-56.83
850.63	53.76
850.805	-30.21
850.98	25.09
851.155	27.14
851.33	55.81
851.505	-9.73
851.681	-1.54
851.856	14.85
852.031	51.71
852.206	35.33
852.381	45.57
852.556	-24.06
852.731	4.61
852.906	-7.68
853.081	33.28
853.256	41.47
853.431	-19.97
853.606	8.7
853.781	-9.73
853.956	-50.69
854.131	41.47
854.305	57.86
854.48	-40.45
854.655	16.9
854.83	55.81
855.005	-73.21
855.18	8.7
855.354	-42.5
855.529	8.7
855.704	-44.54
855.879	-15.87
856.053	41.47
856.228	-24.06
856.403	14.85
856.577	41.47
856.752	31.23
856.926	35.33
857.101	53.76
857.276	25.09
857.45	18.94
857.625	-5.63
857.799	25.09
857.974	18.94
858.148	-40.45
858.323	-5.63
858.497	8.7
858.672	-67.07
858.846	-42.5
859.02	45.57
859.195	18.94
859.369	35.33
859.543	8.7
859.718	-7.68
859.892	6.66
860.066	10.75
860.241	-36.35
860.415	-26.11
860.589	0.51
860.763	-11.78
860.938	-17.92
861.112	72.19
861.286	0.51
861.46	49.66
861.634	-52.74
861.808	-5.63
861.982	-65.02
862.157	14.85
862.331	-17.92
862.505	-48.64
862.679	-30.21
862.853	-13.82
863.027	8.7
863.201	6.66
863.375	-40.45
863.549	-11.78
863.722	10.75
863.896	10.75
864.07	-19.97
864.244	47.62
864.418	33.28
864.592	-9.73
864.766	-28.16
864.939	-1.54
865.113	57.86
865.287	-11.78
865.461	4.61
865.634	37.38
865.808	-22.02
865.982	-3.58
866.156	-34.3
866.329	23.04
866.503	-112.13
866.676	98.81
866.85	2.56
867.024	8.7
867.197	0.51
867.371	41.47
867.544	-32.26
867.718	-40.45
867.891	2.56
868.065	16.9
868.238	51.71
868.412	-11.78
868.585	-91.65
868.759	33.28
868.932	-28.16
869.105	-22.02
869.279	-9.73
869.452	37.38
869.625	14.85
869.799	-50.69
869.972	74.24
870.145	20.99
870.319	84.48
870.492	-9.73
870.665	-26.11
870.838	-17.92
871.011	-44.54
871.185	0.51
871.358	31.23
871.531	25.09
871.704	-30.21
871.877	0.51
872.05	-1.54
872.223	35.33
872.396	31.23
872.569	51.71
872.742	-26.11
872.915	-56.83
873.088	-46.59
873.261	-36.35
873.434	-34.3
873.607	-40.45
873.78	-65.02
873.953	78.33
874.126	66.05
874.299	25.09
874.471	66.05
874.644	23.04
874.817	-38.4
874.99	86.53
875.163	-26.11
875.335	8.7
875.508	-62.98
875.681	70.14
875.853	31.23
876.026	35.33
876.199	20.99
876.371	-71.17
876.544	23.04
876.717	-73.21
876.889	-38.4
877.062	-17.92
877.234	-62.98
877.407	25.09
877.579	-30.21
877.752	-36.35
877.924	-15.87
878.097	-3.58
878.269	-19.97
878.442	23.04
878.614	-17.92
878.786	20.99
878.959	2.56
879.131	49.66
879.303	12.8
879.476	-50.69
879.648	-34.3
879.82	23.04
879.993	55.81
880.165	39.42
880.337	-36.35
880.509	-54.78
880.681	-11.78
880.854	-38.4
881.026	14.85
881.198	20.99
881.37	-26.11
881.542	45.57
881.714	-42.5
881.886	-28.16
882.058	10.75
882.23	25.09
882.402	0.51
882.574	-7.68
882.746	8.7
882.918	-1.54
883.09	70.14
883.262	-5.63
883.434	-48.64
883.606	51.71
883.778	23.04
883.95	53.76
884.122	31.23
884.293	18.94
884.465	-19.97
884.637	-46.59
884.809	2.56
884.98	16.9
885.152	-26.11
885.324	59.9
885.496	35.33
885.667	-13.82
885.839	-67.07
886.011	-11.78
886.182	2.56
886.354	-24.06
886.525	23.04
886.697	14.85
886.869	-34.3
887.04	-17.92
887.212	39.42
887.383	68.09
887.555	82.43
887.726	23.04
887.897	-42.5
888.069	-15.87
888.24	20.99
888.412	-52.74
888.583	-50.69
888.754	-58.88
888.926	31.23
889.097	-24.06
889.268	-19.97
889.44	6.66
889.611	-73.21
889.782	2.56
889.953	-89.6
890.125	-34.3
890.296	14.85
890.467	16.9
890.638	-15.87
890.809	-46.59
890.98	-19.97
891.151	-3.58
891.323	68.09
891.494	31.23
891.665	-17.92
891.836	-7.68
892.007	20.99
892.178	-73.21
892.349	-48.64
892.52	-30.21
892.691	-28.16
892.862	-22.02
893.032	-26.11
893.203	18.94
893.374	-26.11
893.545	-71.17
893.716	35.33
893.887	47.62
894.057	-46.59
894.228	-42.5
894.399	-3.58
894.57	-54.78
894.74	-89.6
894.911	49.66
895.082	-17.92
895.253	-22.02
895.423	-52.74
895.594	33.28
895.764	59.9
895.935	-9.73
896.106	-28.16
896.276	-1.54
896.447	-91.65
896.617	-52.74
896.788	-81.41
896.958	-19.97
897.129	-9.73
897.299	-103.93
897.47	-1.54
897.64	25.09
897.81	10.75
897.981	16.9
898.151	-26.11
898.322	-19.97
898.492	20.99
898.662	-7.68
898.832	-75.26
899.003	-32.26
899.173	31.23
899.343	-40.45
899.513	-83.45
