Data from USB4F104151__15__13-10-26-586.txt Node

Date: Fri Mar 14 13:10:26 EDT 2025
User: louis
Spectrometer: USB4F10415
Trigger mode: 4
Integration Time (sec): 2.000000E-2
Scans to average: 1
Electric dark correction enabled: true
Nonlinearity correction enabled: false
Boxcar width: 0
XAxis mode: Wavelengths
Number of Pixels in Spectrum: 3648
>>>>>Begin Spectral Data<<<<<
178.204	14.17
178.424	14.17
178.644	14.17
178.864	-77.99
179.084	-98.47
179.304	-71.85
179.524	-26.79
179.744	-4.27
179.964	46.93
180.184	10.07
180.404	42.84
180.624	-14.51
180.844	36.69
181.064	8.02
181.283	-41.13
181.503	-8.36
181.723	22.36
181.943	30.55
182.163	40.79
182.383	-28.84
182.602	44.88
182.822	5.97
183.042	108.37
183.262	10.07
183.482	102.23
183.701	3.93
183.921	55.12
184.141	-6.31
184.361	94.04
184.58	40.79
184.8	18.26
185.02	87.89
185.239	69.46
185.459	1.88
185.679	85.84
185.898	-30.89
186.118	-4.27
186.338	44.88
186.557	91.99
186.777	-45.23
186.997	46.93
187.216	98.13
187.436	114.52
187.655	81.75
187.875	79.7
188.095	98.13
188.314	126.8
188.534	5.97
188.753	18.26
188.973	53.08
189.192	59.22
189.412	61.27
189.631	3.93
189.851	-0.17
190.07	157.52
190.29	18.26
190.509	53.08
190.729	14.17
190.948	118.61
191.168	118.61
191.387	8.02
191.607	20.31
191.826	59.22
192.045	8.02
192.265	79.7
192.484	69.46
192.704	61.27
192.923	30.55
193.142	67.41
193.362	-34.99
193.581	94.04
193.8	71.51
194.02	1.88
194.239	61.27
194.458	46.93
194.678	55.12
194.897	67.41
195.116	3.93
195.335	81.75
195.555	34.64
195.774	20.31
195.993	28.5
196.212	51.03
196.432	81.75
196.651	51.03
196.87	-22.7
197.089	20.31
197.308	51.03
197.528	83.8
197.747	44.88
197.966	102.23
198.185	53.08
198.404	18.26
198.623	38.74
198.842	161.62
199.062	63.32
199.281	18.26
199.5	71.51
199.719	30.55
199.938	139.09
200.157	10.07
200.376	30.55
200.595	26.45
200.814	10.07
201.033	8.02
201.252	108.37
201.471	20.31
201.69	85.84
201.909	3.93
202.128	100.18
202.347	-22.7
202.566	69.46
202.785	53.08
203.004	8.02
203.223	26.45
203.442	102.23
203.661	30.55
203.879	65.36
204.098	53.08
204.317	-45.23
204.536	16.21
204.755	-18.6
204.974	65.36
205.193	24.4
205.411	40.79
205.63	28.5
205.849	46.93
206.068	65.36
206.287	100.18
206.505	81.75
206.724	110.42
206.943	32.6
207.162	5.97
207.381	18.26
207.599	67.41
207.818	63.32
208.037	10.07
208.255	55.12
208.474	26.45
208.693	18.26
208.911	14.17
209.13	108.37
209.349	30.55
209.567	51.03
209.786	-4.27
210.005	87.89
210.223	-37.03
210.442	8.02
210.661	59.22
210.879	48.98
211.098	85.84
211.316	71.51
211.535	79.7
211.753	51.03
211.972	83.8
212.191	51.03
212.409	3.93
212.628	28.5
212.846	42.84
213.065	36.69
213.283	149.33
213.502	30.55
213.72	-45.23
213.938	14.17
214.157	-20.65
214.375	8.02
214.594	55.12
214.812	59.22
215.031	20.31
215.249	24.4
215.467	-14.51
215.686	57.17
215.904	-12.46
216.122	-14.51
216.341	67.41
216.559	116.56
216.778	102.23
216.996	26.45
217.214	-0.17
217.432	-20.65
217.651	-4.27
217.869	32.6
218.087	36.69
218.306	20.31
218.524	69.46
218.742	48.98
218.96	-18.6
219.179	65.36
219.397	102.23
219.615	61.27
219.833	1.88
220.051	67.41
220.27	94.04
220.488	91.99
220.706	36.69
220.924	-0.17
221.142	55.12
221.36	8.02
221.578	89.94
221.796	22.36
222.015	57.17
222.233	26.45
222.451	61.27
222.669	48.98
222.887	91.99
223.105	53.08
223.323	-12.46
223.541	36.69
223.759	36.69
223.977	-2.22
224.195	71.51
224.413	46.93
224.631	30.55
224.849	30.55
225.067	73.56
225.285	-43.18
225.503	28.5
225.721	-4.27
225.939	51.03
226.157	77.65
226.375	132.95
226.592	18.26
226.81	16.21
227.028	69.46
227.246	53.08
227.464	-55.47
227.682	87.89
227.9	28.5
228.117	40.79
228.335	71.51
228.553	-37.03
228.771	81.75
228.989	46.93
229.206	65.36
229.424	20.31
229.642	53.08
229.86	22.36
230.077	96.08
230.295	-14.51
230.513	53.08
230.731	91.99
230.948	28.5
231.166	53.08
231.384	-20.65
231.601	51.03
231.819	20.31
232.037	-2.22
232.254	16.21
232.472	32.6
232.689	69.46
232.907	34.64
233.125	8.02
233.342	-8.36
233.56	34.64
233.777	28.5
233.995	48.98
234.213	57.17
234.43	79.7
234.648	-69.8
234.865	-34.99
235.083	61.27
235.3	83.8
235.518	16.21
235.735	18.26
235.953	57.17
236.17	-4.27
236.388	104.28
236.605	85.84
236.822	61.27
237.04	-14.51
237.257	73.56
237.475	-12.46
237.692	53.08
237.909	98.13
238.127	18.26
238.344	16.21
238.562	128.85
238.779	51.03
238.996	34.64
239.214	65.36
239.431	91.99
239.648	16.21
239.865	57.17
240.083	34.64
240.3	28.5
240.517	-26.79
240.735	-20.65
240.952	51.03
241.169	16.21
241.386	61.27
241.603	44.88
241.821	42.84
242.038	30.55
242.255	79.7
242.472	-16.55
242.689	132.95
242.907	44.88
243.124	-6.31
243.341	67.41
243.558	30.55
243.775	-22.7
243.992	57.17
244.209	83.8
244.426	171.86
244.643	24.4
244.86	-4.27
245.078	-30.89
245.295	14.17
245.512	59.22
245.729	32.6
245.946	44.88
246.163	34.64
246.38	36.69
246.597	102.23
246.814	40.79
247.031	75.6
247.248	57.17
247.464	-12.46
247.681	118.61
247.898	73.56
248.115	104.28
248.332	12.12
248.549	20.31
248.766	63.32
248.983	100.18
249.2	87.89
249.417	61.27
249.633	-20.65
249.85	67.41
250.067	-14.51
250.284	63.32
250.501	18.26
250.717	104.28
250.934	-30.89
251.151	108.37
251.368	-2.22
251.585	79.7
251.801	36.69
252.018	42.84
252.235	48.98
252.451	16.21
252.668	-43.18
252.885	-10.41
253.102	81.75
253.318	48.98
253.535	18.26
253.752	28.5
253.968	26.45
254.185	75.6
254.401	87.89
254.618	22.36
254.835	-34.99
255.051	20.31
255.268	16.21
255.484	65.36
255.701	38.74
255.917	55.12
256.134	20.31
256.351	96.08
256.567	10.07
256.784	-37.03
257	32.6
257.217	-63.66
257.433	55.12
257.65	36.69
257.866	14.17
258.082	77.65
258.299	-30.89
258.515	24.4
258.732	55.12
258.948	-0.17
259.165	32.6
259.381	10.07
259.597	91.99
259.814	69.46
260.03	28.5
260.246	26.45
260.463	34.64
260.679	55.12
260.895	118.61
261.112	-4.27
261.328	59.22
261.544	30.55
261.761	71.51
261.977	14.17
262.193	-6.31
262.409	65.36
262.626	26.45
262.842	53.08
263.058	12.12
263.274	-26.79
263.49	1.88
263.707	89.94
263.923	100.18
264.139	51.03
264.355	-18.6
264.571	51.03
264.787	28.5
265.004	10.07
265.22	110.42
265.436	71.51
265.652	20.31
265.868	18.26
266.084	-30.89
266.3	61.27
266.516	-0.17
266.732	53.08
266.948	77.65
267.164	81.75
267.38	67.41
267.596	108.37
267.812	77.65
268.028	79.7
268.244	53.08
268.46	42.84
268.676	57.17
268.892	-12.46
269.108	34.64
269.324	73.56
269.54	28.5
269.756	69.46
269.972	5.97
270.188	-4.27
270.403	-39.08
270.619	-2.22
270.835	85.84
271.051	14.17
271.267	36.69
271.483	20.31
271.698	28.5
271.914	81.75
272.13	83.8
272.346	14.17
272.562	81.75
272.777	12.12
272.993	26.45
273.209	59.22
273.425	-10.41
273.64	28.5
273.856	-0.17
274.072	18.26
274.287	20.31
274.503	91.99
274.719	36.69
274.934	46.93
275.15	36.69
275.366	24.4
275.581	18.26
275.797	83.8
276.012	34.64
276.228	10.07
276.444	10.07
276.659	-12.46
276.875	-20.65
277.09	85.84
277.306	-10.41
277.521	20.31
277.737	10.07
277.952	114.52
278.168	96.08
278.383	67.41
278.599	44.88
278.814	18.26
279.03	14.17
279.245	118.61
279.461	18.26
279.676	71.51
279.892	38.74
280.107	44.88
280.322	-2.22
280.538	32.6
280.753	22.36
280.969	-28.84
281.184	61.27
281.399	55.12
281.615	32.6
281.83	36.69
282.045	-18.6
282.26	44.88
282.476	-12.46
282.691	36.69
282.906	-30.89
283.122	22.36
283.337	1.88
283.552	59.22
283.767	-37.03
283.983	51.03
284.198	14.17
284.413	118.61
284.628	-6.31
284.843	20.31
285.058	28.5
285.274	10.07
285.489	-12.46
285.704	141.14
285.919	51.03
286.134	94.04
286.349	-2.22
286.564	96.08
286.779	57.17
286.995	36.69
287.21	-20.65
287.425	20.31
287.64	-6.31
287.855	81.75
288.07	1.88
288.285	59.22
288.5	96.08
288.715	26.45
288.93	61.27
289.145	61.27
289.36	14.17
289.575	18.26
289.79	102.23
290.004	-0.17
290.219	18.26
290.434	5.97
290.649	18.26
290.864	71.51
291.079	8.02
291.294	51.03
291.509	75.6
291.724	20.31
291.938	42.84
292.153	91.99
292.368	20.31
292.583	3.93
292.798	85.84
293.012	67.41
293.227	42.84
293.442	34.64
293.657	12.12
293.871	57.17
294.086	26.45
294.301	36.69
294.516	108.37
294.73	1.88
294.945	-22.7
295.16	46.93
295.374	36.69
295.589	130.9
295.804	42.84
296.018	96.08
296.233	59.22
296.447	89.94
296.662	1.88
296.877	59.22
297.091	20.31
297.306	22.36
297.52	32.6
297.735	42.84
297.949	30.55
298.164	91.99
298.378	55.12
298.593	59.22
298.807	-28.84
299.022	44.88
299.236	75.6
299.451	55.12
299.665	18.26
299.88	69.46
300.094	44.88
300.309	34.64
300.523	57.17
300.737	55.12
300.952	28.5
301.166	44.88
301.381	55.12
301.595	59.22
301.809	32.6
302.024	-30.89
302.238	5.97
302.452	67.41
302.667	44.88
302.881	-4.27
303.095	104.28
303.309	36.69
303.524	34.64
303.738	1.88
303.952	5.97
304.166	40.79
304.381	-10.41
304.595	14.17
304.809	65.36
305.023	20.31
305.237	65.36
305.452	3.93
305.666	108.37
305.88	-22.7
306.094	81.75
306.308	59.22
306.522	46.93
306.736	12.12
306.95	40.79
307.164	34.64
307.379	22.36
307.593	36.69
307.807	67.41
308.021	18.26
308.235	55.12
308.449	34.64
308.663	22.36
308.877	75.6
309.091	61.27
309.305	14.17
309.519	10.07
309.733	32.6
309.947	26.45
310.161	61.27
310.374	12.12
310.588	44.88
310.802	30.55
311.016	42.84
311.23	26.45
311.444	22.36
311.658	-12.46
311.872	14.17
312.085	89.94
312.299	12.12
312.513	108.37
312.727	91.99
312.941	-32.94
313.154	116.56
313.368	55.12
313.582	55.12
313.796	61.27
314.009	40.79
314.223	-2.22
314.437	-77.99
314.651	5.97
314.864	26.45
315.078	73.56
315.292	102.23
315.505	26.45
315.719	81.75
315.933	98.13
316.146	30.55
316.36	-14.51
316.573	67.41
316.787	36.69
317.001	67.41
317.214	1.88
317.428	65.36
317.641	3.93
317.855	57.17
318.068	61.27
318.282	-4.27
318.495	108.37
318.709	98.13
318.922	55.12
319.136	67.41
319.349	71.51
319.563	59.22
319.776	63.32
319.99	-16.55
320.203	34.64
320.417	-16.55
320.63	91.99
320.843	102.23
321.057	26.45
321.27	55.12
321.483	71.51
321.697	48.98
321.91	18.26
322.124	16.21
322.337	28.5
322.55	-12.46
322.763	36.69
322.977	65.36
323.19	-16.55
323.403	8.02
323.617	-18.6
323.83	8.02
324.043	36.69
324.256	53.08
324.469	-37.03
324.683	46.93
324.896	-39.08
325.109	30.55
325.322	87.89
325.535	139.09
325.748	81.75
325.962	67.41
326.175	40.79
326.388	51.03
326.601	10.07
326.814	59.22
327.027	10.07
327.24	44.88
327.453	-12.46
327.666	116.56
327.879	48.98
328.092	30.55
328.305	10.07
328.518	24.4
328.731	18.26
328.944	71.51
329.157	71.51
329.37	3.93
329.583	110.42
329.796	30.55
330.009	24.4
330.222	14.17
330.435	51.03
330.648	67.41
330.861	108.37
331.073	73.56
331.286	79.7
331.499	94.04
331.712	69.46
331.925	44.88
332.138	22.36
332.35	57.17
332.563	-26.79
332.776	36.69
332.989	44.88
333.202	59.22
333.414	-39.08
333.627	18.26
333.84	32.6
334.053	120.66
334.265	26.45
334.478	104.28
334.691	77.65
334.903	28.5
335.116	-37.03
335.329	98.13
335.541	30.55
335.754	20.31
335.966	8.02
336.179	114.52
336.392	24.4
336.604	24.4
336.817	75.6
337.029	-0.17
337.242	-45.23
337.454	-6.31
337.667	46.93
337.88	83.8
338.092	5.97
338.305	-4.27
338.517	51.03
338.729	8.02
338.942	59.22
339.154	83.8
339.367	67.41
339.579	67.41
339.792	34.64
340.004	100.18
340.217	122.71
340.429	51.03
340.641	-6.31
340.854	18.26
341.066	108.37
341.278	46.93
341.491	22.36
341.703	91.99
341.915	67.41
342.128	55.12
342.34	53.08
342.552	26.45
342.764	51.03
342.977	20.31
343.189	79.7
343.401	34.64
343.613	71.51
343.826	-2.22
344.038	10.07
344.25	98.13
344.462	51.03
344.674	46.93
344.886	26.45
345.099	91.99
345.311	46.93
345.523	16.21
345.735	28.5
345.947	46.93
346.159	-10.41
346.371	1.88
346.583	38.74
346.795	132.95
347.007	1.88
347.219	40.79
347.431	36.69
347.643	102.23
347.855	-2.22
348.067	71.51
348.279	-26.79
348.491	96.08
348.703	-41.13
348.915	-45.23
349.127	32.6
349.339	-6.31
349.551	10.07
349.763	53.08
349.975	51.03
350.187	-8.36
350.399	48.98
350.61	83.8
350.822	20.31
351.034	34.64
351.246	53.08
351.458	79.7
351.669	46.93
351.881	34.64
352.093	71.51
352.305	26.45
352.517	34.64
352.728	104.28
352.94	94.04
353.152	12.12
353.363	32.6
353.575	53.08
353.787	36.69
353.999	96.08
354.21	44.88
354.422	59.22
354.633	141.14
354.845	22.36
355.057	30.55
355.268	42.84
355.48	46.93
355.692	30.55
355.903	55.12
356.115	38.74
356.326	98.13
356.538	137.04
356.749	20.31
356.961	91.99
357.172	77.65
357.384	24.4
357.595	91.99
357.807	-4.27
358.018	-30.89
358.23	135
358.441	44.88
358.653	44.88
358.864	96.08
359.075	63.32
359.287	65.36
359.498	75.6
359.709	18.26
359.921	34.64
360.132	94.04
360.344	61.27
360.555	-2.22
360.766	42.84
360.977	48.98
361.189	44.88
361.4	71.51
361.611	36.69
361.823	104.28
362.034	5.97
362.245	-2.22
362.456	-39.08
362.667	10.07
362.879	81.75
363.09	108.37
363.301	1.88
363.512	145.24
363.723	14.17
363.935	-18.6
364.146	102.23
364.357	102.23
364.568	63.32
364.779	3.93
364.99	75.6
365.201	63.32
365.412	55.12
365.623	38.74
365.834	106.32
366.045	18.26
366.256	59.22
366.467	104.28
366.678	51.03
366.889	100.18
367.1	30.55
367.311	44.88
367.522	34.64
367.733	63.32
367.944	65.36
368.155	57.17
368.366	89.94
368.577	53.08
368.788	22.36
368.999	12.12
369.209	-0.17
369.42	42.84
369.631	42.84
369.842	108.37
370.053	75.6
370.264	-24.75
370.474	75.6
370.685	-2.22
370.896	46.93
371.107	26.45
371.317	75.6
371.528	112.47
371.739	67.41
371.95	102.23
372.16	53.08
372.371	63.32
372.582	42.84
372.792	38.74
373.003	59.22
373.214	22.36
373.424	61.27
373.635	34.64
373.846	106.32
374.056	28.5
374.267	81.75
374.477	91.99
374.688	34.64
374.898	18.26
375.109	34.64
375.319	42.84
375.53	116.56
375.74	69.46
375.951	85.84
376.161	28.5
376.372	110.42
376.582	44.88
376.793	83.8
377.003	20.31
377.214	18.26
377.424	69.46
377.635	1.88
377.845	-12.46
378.055	26.45
378.266	-24.75
378.476	-12.46
378.686	75.6
378.897	114.52
379.107	132.95
379.317	71.51
379.528	51.03
379.738	128.85
379.948	-2.22
380.158	65.36
380.369	38.74
380.579	59.22
380.789	69.46
380.999	79.7
381.21	1.88
381.42	135
381.63	83.8
381.84	26.45
382.05	118.61
382.261	75.6
382.471	87.89
382.681	57.17
382.891	112.47
383.101	79.7
383.311	71.51
383.521	5.97
383.731	102.23
383.941	81.75
384.151	91.99
384.361	116.56
384.571	79.7
384.781	100.18
384.991	77.65
385.201	85.84
385.411	46.93
385.621	110.42
385.831	73.56
386.041	53.08
386.251	116.56
386.461	135
386.671	36.69
386.881	116.56
387.091	46.93
387.301	53.08
387.511	42.84
387.72	69.46
387.93	65.36
388.14	14.17
388.35	63.32
388.56	108.37
388.769	67.41
388.979	63.32
389.189	55.12
389.399	59.22
389.609	24.4
389.818	57.17
390.028	44.88
390.238	106.32
390.447	91.99
390.657	71.51
390.867	3.93
391.076	26.45
391.286	18.26
391.496	128.85
391.705	-14.51
391.915	83.8
392.125	110.42
392.334	108.37
392.544	114.52
392.753	118.61
392.963	-12.46
393.172	98.13
393.382	53.08
393.591	126.8
393.801	46.93
394.01	161.62
394.22	38.74
394.429	75.6
394.639	94.04
394.848	178
395.058	5.97
395.267	67.41
395.477	96.08
395.686	124.76
395.895	89.94
396.105	57.17
396.314	85.84
396.524	48.98
396.733	89.94
396.942	108.37
397.152	108.37
397.361	137.04
397.57	110.42
397.78	71.51
397.989	104.28
398.198	135
398.407	16.21
398.617	141.14
398.826	46.93
399.035	128.85
399.244	26.45
399.453	102.23
399.663	114.52
399.872	110.42
400.081	151.38
400.29	116.56
400.499	67.41
400.708	149.33
400.917	75.6
401.127	83.8
401.336	108.37
401.545	151.38
401.754	73.56
401.963	145.24
402.172	124.76
402.381	149.33
402.59	87.89
402.799	147.28
403.008	128.85
403.217	100.18
403.426	128.85
403.635	63.32
403.844	75.6
404.053	96.08
404.262	157.52
404.471	241.49
404.68	157.52
404.888	182.1
405.097	38.74
405.306	106.32
405.515	124.76
405.724	112.47
405.933	180.05
406.142	157.52
406.35	171.86
406.559	233.3
406.768	153.43
406.977	247.63
407.185	180.05
407.394	163.67
407.603	122.71
407.812	128.85
408.02	229.2
408.229	206.67
408.438	151.38
408.646	163.67
408.855	239.44
409.064	264.02
409.272	206.67
409.481	239.44
409.69	284.5
409.898	261.97
410.107	266.07
410.315	325.46
410.524	358.22
410.733	341.84
410.941	307.02
411.15	327.5
411.358	288.59
411.567	356.18
411.775	339.79
411.984	360.27
412.192	378.7
412.401	331.6
412.609	368.46
412.818	427.85
413.026	415.57
413.234	368.46
413.443	511.82
413.651	464.72
413.86	427.85
414.068	489.29
414.276	601.93
414.485	454.48
414.693	583.5
414.901	591.69
415.11	585.55
415.318	513.87
415.526	657.23
415.734	653.13
415.943	683.85
416.151	714.57
416.359	743.24
416.567	786.25
416.776	782.15
416.984	847.69
417.192	866.12
417.4	788.3
417.608	767.82
417.817	886.6
418.025	974.66
418.233	950.09
418.441	989
418.649	995.14
418.857	1171.27
419.065	1124.16
419.273	1132.36
419.481	1113.92
419.689	1161.03
419.897	1335.1
420.105	1206.08
420.313	1339.2
420.521	1394.5
420.729	1378.11
420.937	1425.22
421.145	1482.56
421.353	1546.05
421.561	1570.62
421.769	1744.7
421.977	1709.88
422.185	1638.2
422.393	1949.5
422.601	1908.54
422.809	1867.58
423.017	1875.77
423.224	1984.31
423.432	2025.27
423.64	2189.11
423.848	2391.86
424.056	2217.78
424.263	2365.23
424.471	2434.86
424.679	2510.64
424.887	2518.83
425.094	2676.52
425.302	2733.87
425.51	2754.35
425.718	2922.28
425.925	2893.61
426.133	2967.34
426.341	3331.87
426.548	3262.24
426.756	3268.39
426.964	3428.13
427.171	3540.77
427.379	3632.93
427.586	3589.92
427.794	3682.08
428.001	3952.41
428.209	4149.01
428.417	4026.14
428.624	4384.53
428.832	4351.76
429.039	4351.76
429.247	4226.84
429.454	4804.36
429.662	4970.25
429.869	4767.5
430.076	5060.36
430.284	4976.39
430.491	5193.48
430.699	5476.1
430.906	5365.51
431.114	5447.43
431.321	5816.06
431.528	5699.33
431.736	6145.78
431.943	6473.46
432.15	6328.05
432.358	6366.96
432.565	6620.91
432.772	6731.5
432.979	7091.95
433.187	7042.79
433.394	7149.29
433.601	7640.8
433.808	7771.87
434.016	7646.94
434.223	7978.72
434.43	8535.76
434.637	8464.08
434.844	8675.02
435.052	8900.3
435.259	8904.4
435.466	8928.97
435.673	9017.04
435.88	9402.05
436.087	10118.84
436.294	10139.32
436.501	9623.23
436.708	9936.57
436.915	10362.55
437.122	10960.56
437.329	10839.73
437.537	11173.55
437.743	11298.47
437.95	11153.07
438.157	11814.56
438.364	12349.08
438.571	12115.61
438.778	12127.9
438.985	13188.75
439.192	12873.36
439.399	13127.31
439.606	12990.1
439.813	13502.09
440.02	14399.1
440.227	14286.46
440.433	14155.39
440.64	14626.42
440.847	14366.33
441.054	14784.12
441.261	15865.44
441.467	15705.7
441.674	15836.77
441.881	16608.86
442.088	16508.51
442.294	16344.67
442.501	16735.83
442.708	17036.88
442.914	17600.07
443.121	18523.71
443.328	17944.13
443.534	19400.24
443.741	18685.5
443.948	18427.45
444.154	19836.45
444.361	19525.16
444.568	19916.33
444.774	19781.16
444.981	20274.72
445.187	20880.92
445.394	21562.89
445.6	21597.71
445.807	23404.02
446.013	22410.75
446.22	22838.78
446.426	23682.54
446.633	24180.2
446.839	24614.37
447.046	23897.58
447.252	25056.73
447.459	25523.66
447.665	25146.84
447.871	26320.32
448.078	26901.95
448.284	25843.15
448.491	26426.82
448.697	27796.91
448.903	27913.64
449.11	28188.07
449.316	27846.06
449.522	28261.8
449.728	29234.58
449.935	29400.47
450.141	29152.66
450.347	29859.21
450.553	29181.34
450.76	29562.26
450.966	30627.2
451.172	30252.42
451.378	31001.98
451.584	30320.01
451.791	31096.19
451.997	30883.2
452.203	31679.86
452.409	31536.5
452.615	31243.64
452.821	30414.21
453.027	29683.09
453.233	31430.01
453.44	30469.51
453.646	30717.31
453.852	30662.02
454.058	31374.71
454.264	30424.45
454.47	31339.9
454.676	30434.69
454.882	31126.91
455.088	28872.09
455.294	29162.9
455.5	29601.17
455.705	30117.26
455.911	28935.58
456.117	28071.34
456.323	28095.91
456.529	26435.01
456.735	27860.4
456.941	26746.3
457.147	26365.38
457.352	25619.92
457.558	25179.61
457.764	25484.75
457.97	25097.69
458.176	24307.17
458.381	24468.96
458.587	23422.45
458.793	23354.86
458.999	22162.95
459.204	24122.85
459.41	22910.46
459.616	21423.63
459.821	21356.05
460.027	21544.46
460.233	20895.25
460.438	19883.56
460.644	20278.82
460.85	19340.85
461.055	18669.11
461.261	18796.09
461.466	17675.85
461.672	16881.24
461.878	17913.41
462.083	16879.19
462.289	16528.99
462.494	16518.75
462.7	15586.92
462.905	15281.77
463.111	15941.22
463.316	15937.12
463.522	15525.48
463.727	15599.21
463.932	15386.22
464.138	15529.58
464.343	15431.27
464.549	14984.82
464.754	15560.3
464.959	15400.55
465.165	15101.55
465.37	14837.36
465.575	14165.63
465.781	14950
465.986	14675.57
466.191	14245.5
466.397	14177.92
466.602	13356.68
466.807	13753.99
467.012	14075.52
467.218	13809.28
467.423	13659.78
467.628	13741.7
467.833	13997.7
468.038	13723.27
468.244	13303.43
468.449	14032.51
468.654	13319.82
468.859	13282.95
469.064	13186.7
469.269	12877.46
469.474	12848.79
469.679	13151.88
469.885	12809.87
470.09	13110.93
470.295	12961.42
470.5	12576.41
470.705	12734.1
470.91	12502.68
471.115	12271.26
471.32	12635.8
471.525	12410.52
471.73	12154.52
471.935	11781.79
472.139	11617.96
472.344	11624.1
472.549	11728.55
472.754	11792.03
472.959	11314.86
473.164	10964.65
473.369	10991.28
473.574	11290.28
473.778	11058.86
473.983	11056.81
474.188	10856.11
474.393	10503.86
474.598	10450.61
474.802	10544.82
475.007	10503.86
475.212	10587.83
475.417	10004.16
475.621	10063.55
475.826	10088.12
476.031	9778.88
476.235	9752.26
476.44	9795.26
476.645	9539.27
476.849	9803.46
477.054	9551.56
477.259	9453.25
477.463	9430.73
477.668	9217.74
477.872	9184.97
478.077	9012.94
478.282	9041.61
478.486	8875.73
478.691	8664.79
478.895	8795.86
479.1	8730.32
479.304	8828.62
479.509	8441.56
479.713	8664.79
479.918	8496.85
480.122	8222.42
480.326	8382.17
480.531	8318.68
480.735	8175.32
480.94	8152.79
481.144	8550.1
481.348	8097.5
481.553	8367.83
481.757	7937.76
481.961	8271.58
482.166	8335.06
482.37	8058.59
482.574	7907.04
482.778	7976.67
482.983	8191.7
483.187	8193.75
483.391	8095.45
483.595	8091.35
483.8	7839.45
484.004	8013.53
484.208	8210.14
484.412	7968.48
484.616	8056.54
484.821	7892.7
485.025	7892.7
485.229	8109.79
485.433	8144.6
485.637	8087.26
485.841	8005.34
486.045	8097.5
486.249	7927.52
486.453	7937.76
486.657	8148.7
486.861	8087.26
487.065	7839.45
487.269	8105.69
487.473	7771.87
487.677	8140.51
487.881	8095.45
488.085	7917.28
488.289	8208.09
488.493	8079.07
488.697	8042.2
488.901	8107.74
489.105	8156.89
489.309	8013.53
489.512	8359.64
489.716	8126.17
489.92	8095.45
490.124	8056.54
490.328	8226.52
490.531	8230.62
490.735	8261.34
490.939	8316.63
491.143	8275.67
491.346	8298.2
491.55	8355.54
491.754	8476.37
491.958	8472.28
492.161	8509.14
492.365	8593.11
492.569	8546
492.772	8654.55
492.976	8554.19
493.18	8468.18
493.383	8656.59
493.587	8695.5
493.79	8660.69
493.994	8494.8
494.197	8957.64
494.401	8861.39
494.605	8894.16
494.808	8865.49
495.012	9008.84
495.215	9064.14
495.419	9221.83
495.622	9254.6
495.825	9340.61
496.029	9375.43
496.232	9504.45
496.436	9658.05
496.639	9561.8
496.843	9582.28
497.046	9735.87
497.249	10000.06
497.453	10016.44
497.656	9991.87
497.859	10047.16
498.063	10231.48
498.266	10344.12
498.469	10395.32
498.673	10495.67
498.876	10593.97
499.079	10704.56
499.282	10845.87
499.485	10929.84
499.689	10890.93
499.892	11255.47
500.095	11161.26
500.298	11452.07
500.501	11470.5
500.705	11683.49
500.908	11810.47
501.111	11753.12
501.314	11966.11
501.517	12127.9
501.72	12467.86
501.923	12324.51
502.126	12521.11
502.329	12715.67
502.532	12803.73
502.735	12736.15
502.938	13172.36
503.141	13155.98
503.344	13336.2
503.547	13561.48
503.75	13522.57
503.953	13747.84
504.156	13891.2
504.359	14186.11
504.562	14042.75
504.765	14503.54
504.968	14538.36
505.17	14433.91
505.373	14579.32
505.576	14870.13
505.779	14837.36
505.982	14986.86
506.185	15603.3
506.387	15507.05
506.59	15591.02
506.793	15918.69
506.996	15826.53
507.198	16250.46
507.401	16117.34
507.604	16344.67
507.807	16975.44
508.009	17022.55
508.212	16860.76
508.415	17231.44
508.617	17323.6
508.82	17516.11
509.022	17299.02
509.225	17860.16
509.428	17888.84
509.63	17845.83
509.833	18095.68
510.035	18390.59
510.238	18720.31
510.44	18777.65
510.643	19090.99
510.845	18978.36
511.048	19136.05
511.25	19469.87
511.453	19619.37
511.655	20375.07
511.858	19990.05
512.06	20401.69
512.262	20354.59
512.465	20631.07
512.667	20823.58
512.87	21313.04
513.072	20807.19
513.274	21356.05
513.477	21425.68
513.679	21956.1
513.881	22029.83
514.084	21839.37
514.286	22371.84
514.488	22416.9
514.69	22998.52
514.893	23137.78
515.095	22769.15
515.297	23567.85
515.499	23387.63
515.701	23684.59
515.904	23889.38
516.106	23842.28
516.308	24045.03
516.51	24561.12
516.712	24382.95
516.914	24696.28
517.116	25329.11
517.318	25361.87
517.52	25365.97
517.722	25726.41
517.925	26035.66
518.127	26326.47
518.329	26183.11
518.531	26303.94
518.733	26736.06
518.935	27030.97
519.136	27188.66
519.338	27514.29
519.54	27295.16
519.742	27706.8
519.944	27794.86
520.146	28384.68
520.348	28310.95
520.55	28257.7
520.752	28847.52
520.954	29146.52
521.155	28859.8
521.357	29504.92
521.559	29646.22
521.761	29740.43
521.963	29877.65
522.164	30254.47
522.366	30027.15
522.568	30379.4
522.77	30518.66
522.971	31249.78
523.173	30793.09
523.375	31122.81
523.576	31337.85
523.778	31274.36
523.98	31763.82
524.181	31831.41
524.383	31901.04
524.584	32269.67
524.786	32210.28
524.988	32224.62
525.189	32957.79
525.391	32697.7
525.592	32996.7
525.794	33201.5
525.995	32933.21
526.197	33017.18
526.398	33252.7
526.6	33666.39
526.801	33959.25
527.003	33572.18
527.204	33920.34
527.406	34022.73
527.607	34114.89
527.808	34487.62
528.01	34096.46
528.211	34653.51
528.412	34886.98
528.614	34542.92
528.815	34895.17
529.016	34872.64
529.218	34854.21
529.419	34923.84
529.62	35171.64
529.822	34714.95
530.023	35206.46
530.224	35048.77
530.425	35527.99
530.626	34657.6
530.828	35108.16
531.029	35925.3
531.23	34792.77
531.431	35421.5
531.632	35456.31
531.833	35851.57
532.035	35527.99
532.236	35415.35
532.437	35933.49
532.638	35401.02
532.839	35788.08
533.04	36195.63
533.241	35364.15
533.442	36173.1
533.643	35718.45
533.844	35917.11
534.045	36279.6
534.246	35921.2
534.447	36001.07
534.648	35851.57
534.849	36173.1
535.05	35980.59
535.251	36216.11
535.451	36111.66
535.652	35896.63
535.853	35945.78
536.054	36295.98
536.255	35925.3
536.456	35818.8
536.657	36302.12
536.857	35732.79
537.058	35880.24
537.259	35923.25
537.46	36025.65
537.66	35990.83
537.861	35960.11
538.062	35669.3
538.263	35964.21
538.463	35501.37
538.664	35808.56
538.865	36039.98
539.065	36257.07
539.266	35972.4
539.466	36097.33
539.667	35605.81
539.868	36259.12
540.068	36027.7
540.269	35874.1
540.469	36275.5
540.67	35857.71
540.87	35521.85
541.071	35597.62
541.271	36023.6
541.472	35861.81
541.672	35648.82
541.873	35511.61
542.073	35474.74
542.274	35988.78
542.474	36082.99
542.675	35605.81
542.875	35634.49
543.075	35677.49
543.276	35327.29
543.476	36144.43
543.676	35493.18
543.877	35722.55
544.077	35671.35
544.277	35542.33
544.478	35839.28
544.678	35743.03
544.878	35771.7
545.078	35511.61
545.279	35763.51
545.479	35280.19
545.679	35970.35
545.879	35622.2
546.079	35665.21
546.28	35743.03
546.48	35439.93
546.68	35296.57
546.88	35839.28
547.08	35808.56
547.28	35296.57
547.48	35079.49
547.68	35624.25
547.88	35145.02
548.081	35650.87
548.281	35806.51
548.481	35138.88
548.681	35409.21
548.881	35401.02
549.081	35605.81
549.28	35519.8
549.48	35943.73
549.68	35775.8
549.88	36126
550.08	35208.51
550.28	35362.11
550.48	35259.71
550.68	35421.5
550.88	35228.99
551.08	35177.79
551.279	35310.91
551.479	34942.27
551.679	35136.83
551.879	35013.95
552.079	35648.82
552.278	35536.18
552.478	34977.09
552.678	35136.83
552.878	35267.9
553.077	34989.38
553.277	35050.81
553.477	35583.29
553.676	35110.21
553.876	35022.14
554.076	35095.87
554.275	35202.36
554.475	34762.05
554.674	34739.52
554.874	34870.59
555.074	34958.66
555.273	35157.31
555.473	34995.52
555.672	34952.51
555.872	34635.08
556.071	34870.59
556.271	34884.93
556.47	34927.94
556.67	34608.45
556.869	34481.48
557.068	34837.83
557.268	34647.36
557.467	35011.9
557.667	34487.62
557.866	34399.56
558.065	34592.07
558.265	34518.34
558.464	34254.15
558.663	34540.87
558.863	33989.97
559.062	34807.11
559.261	34114.89
559.461	34477.38
559.66	33815.89
559.859	33983.82
560.058	33881.42
560.258	33959.25
560.457	33779.03
560.656	34254.15
560.855	33621.33
561.054	33748.31
561.253	33439.06
561.453	33865.04
561.652	33776.98
561.851	34024.78
562.05	33707.35
562.249	33045.85
562.448	33832.27
562.647	33500.5
562.846	33537.37
563.045	33320.28
563.244	32953.69
563.443	33609.04
563.642	33090.91
563.841	33230.17
564.04	33217.88
564.239	33381.72
564.438	32992.61
564.637	32839.01
564.836	33113.44
565.035	32482.66
565.234	32689.51
565.432	32748.9
565.631	32607.59
565.83	32724.32
566.029	32507.24
566.228	32245.1
566.427	32697.7
566.625	32081.26
566.824	32269.67
567.023	32398.69
567.222	31542.64
567.42	32185.71
567.619	32335.21
567.818	31802.74
568.016	31667.57
568.215	31991.15
568.414	31612.27
568.612	32281.96
568.811	31454.58
569.01	31556.98
569.208	31049.08
569.407	31802.74
569.605	31360.37
569.804	31581.56
570.002	30879.1
570.201	31432.05
570.4	31012.22
570.598	31061.37
570.797	30963.07
570.995	31110.52
571.193	30498.18
571.392	31110.52
571.59	30549.38
571.789	30664.07
571.987	30508.42
572.186	30223.75
572.384	30500.23
572.582	30946.69
572.781	30547.33
572.979	29752.72
573.177	30082.44
573.376	29963.66
573.574	30115.21
573.772	29750.67
573.971	29853.07
574.169	29992.33
574.367	29468.05
574.565	29857.17
574.763	29359.51
574.962	29492.63
575.16	29109.66
575.358	29461.91
575.556	29095.32
575.754	29574.55
575.952	29185.43
576.151	29386.13
576.349	29109.66
576.547	28927.39
576.745	28771.74
576.943	29169.05
577.141	29015.45
577.339	29078.94
577.537	28673.44
577.735	28798.37
577.933	28349.86
578.131	28468.64
578.329	28183.98
578.527	28091.82
578.725	28403.11
578.923	28313
579.121	28044.71
579.319	27960.75
579.516	27887.02
579.714	27942.31
579.912	28116.39
580.11	27755.95
580.308	28073.38
580.506	27553.2
580.704	27299.25
580.901	27545.01
581.099	27665.84
581.297	27278.77
581.495	27354.55
581.692	27512.24
581.89	26971.58
582.088	27112.89
582.285	26918.33
582.483	26897.85
582.681	26987.96
582.878	26822.08
583.076	26604.99
583.274	27012.54
583.471	26521.02
583.669	26783.16
583.866	26506.69
584.064	26590.66
584.262	26492.35
584.459	26580.42
584.657	26181.06
584.854	26435.01
585.052	25730.51
585.249	26273.22
585.447	25791.95
585.644	25771.47
585.841	25990.6
586.039	26035.66
586.236	25597.39
586.434	25349.59
586.631	25548.24
586.828	25515.47
587.026	25122.26
587.223	25263.57
587.42	25415.12
587.618	25015.77
587.815	25136.6
588.012	24962.52
588.21	24606.17
588.407	25175.51
588.604	24896.99
588.801	24739.29
588.999	24604.13
589.196	24792.54
589.393	24780.25
589.59	24458.72
589.787	24382.95
589.984	24358.37
590.182	24098.28
590.379	24464.86
590.576	24178.15
590.773	24268.26
590.97	23942.63
591.167	23823.85
591.364	23836.14
591.561	24016.36
591.758	23643.63
591.955	23674.35
592.152	23649.77
592.349	23715.31
592.546	23805.42
592.743	23492.08
592.94	23289.33
593.137	23334.39
593.334	23453.17
593.531	23148.02
593.727	23447.02
593.924	23105.01
594.121	22932.98
594.318	23084.53
594.515	22918.65
594.712	23397.87
594.908	22961.65
595.105	22963.7
595.302	22464
595.499	22861.3
595.696	22582.78
595.892	22400.51
596.089	22435.33
596.286	22224.39
596.482	22330.88
596.679	22208
596.876	22298.11
597.072	21990.92
597.269	22078.98
597.466	21861.9
597.662	21845.51
597.859	21534.22
598.055	21663.24
598.252	21634.57
598.448	21667.34
598.645	21386.77
598.841	21376.53
599.038	21581.32
599.234	21689.87
599.431	21120.53
599.627	21106.2
599.824	21194.26
600.02	20895.25
600.217	21265.94
600.413	20956.69
600.609	20944.41
600.806	20540.96
601.002	21141.01
601.198	20702.75
601.395	20520.48
601.591	20471.32
601.787	20395.55
601.984	20497.95
602.18	20807.19
602.376	20143.65
602.572	20516.38
602.769	20500
602.965	20010.53
603.161	20264.48
603.357	20157.99
603.553	20086.31
603.75	20153.89
603.946	19957.28
604.142	19977.76
604.338	19602.99
604.534	20110.88
604.73	19420.72
604.926	19627.56
605.122	19721.77
605.318	19492.4
605.514	19375.66
605.71	19269.17
605.906	19394.09
606.102	19244.59
606.298	19279.41
606.494	19449.39
606.69	19498.54
606.886	19330.61
607.082	18830.9
607.278	19318.32
607.474	18779.7
607.67	19148.34
607.866	18685.5
608.062	19238.45
608.257	18972.21
608.453	18945.59
608.649	18804.28
608.845	18687.54
609.041	18374.2
609.236	18787.89
609.432	18806.33
609.628	18576.95
609.824	18425.4
610.019	18402.88
610.215	18251.33
610.411	18478.65
610.606	18368.06
610.802	18378.3
610.998	18345.53
611.193	18355.77
611.389	18183.74
611.584	18335.29
611.78	18079.3
611.976	17991.23
612.171	18013.76
612.367	18064.96
612.562	17962.56
612.758	17978.95
612.953	17776.2
613.149	18132.54
613.344	17335.88
613.539	17833.54
613.735	17505.87
613.93	17827.4
614.126	17679.94
614.321	17903.17
614.517	17884.74
614.712	17874.5
614.907	17657.42
615.103	17679.94
615.298	17620.55
615.493	17595.98
615.688	17270.35
615.884	17774.15
616.079	17329.74
616.274	17481.29
616.47	17370.7
616.665	17528.39
616.86	17165.9
617.055	17313.36
617.25	17172.05
617.445	17382.99
617.641	16875.09
617.836	17225.29
618.031	16827.99
618.226	17047.12
618.421	16881.24
618.616	16795.22
618.811	16643.67
619.006	16762.45
619.201	16440.92
619.396	16598.62
619.591	16193.12
619.786	16528.99
619.981	16178.78
620.176	16221.79
620.371	15892.07
620.566	16201.31
620.761	16340.57
620.956	16354.91
621.151	15933.03
621.346	15906.4
621.541	15851.11
621.735	16012.9
621.93	15310.44
622.125	15634.02
622.32	15502.95
622.515	15621.73
622.709	15603.3
622.904	15390.31
623.099	15203.95
623.294	15212.14
623.488	15187.57
623.683	15206
623.878	14820.98
624.072	14980.72
624.267	14839.41
624.462	14724.72
624.656	14356.09
624.851	14458.49
625.046	14286.46
625.24	14587.51
625.435	14317.18
625.629	14313.08
625.824	14294.65
626.018	14210.68
626.213	13827.71
626.407	13940.35
626.602	13731.46
626.796	13962.88
626.991	13903.49
627.185	13885.06
627.38	13635.21
627.574	13610.63
627.768	13534.85
627.963	13450.89
628.157	13106.83
628.352	13436.55
628.546	12969.62
628.74	13297.29
628.935	12988.05
629.129	13143.69
629.323	12641.94
629.517	12942.99
629.712	12893.84
629.906	13045.39
630.1	12705.43
630.294	12709.52
630.489	12654.23
630.683	12328.6
630.877	12281.5
631.071	12424.86
631.265	12117.66
631.459	12424.86
631.653	11974.3
631.848	12248.73
632.042	12111.52
632.236	11923.1
632.43	11972.25
632.624	11777.7
632.818	11812.51
633.012	11718.31
633.206	11593.38
633.4	11544.23
633.594	11509.41
633.788	11435.69
633.982	11345.58
634.176	11386.54
634.369	11300.52
634.563	11331.24
634.757	11024.05
634.951	11292.33
635.145	11271.85
635.339	11036.33
635.533	11022
635.726	10985.13
635.92	10841.78
636.114	10815.15
636.308	10731.19
636.501	10858.16
636.695	10645.17
636.889	10628.79
637.083	10493.62
637.276	10475.19
637.47	10532.53
637.664	10581.68
637.857	10335.93
638.051	10167.99
638.244	10204.86
638.438	10225.34
638.632	10106.56
638.825	9907.9
639.019	10159.8
639.212	9973.44
639.406	9932.48
639.599	10020.54
639.793	9903.81
639.986	9709.25
640.18	9647.81
640.373	9860.8
640.567	9836.22
640.76	9864.89
640.954	9514.69
641.147	9625.28
641.34	9451.21
641.534	9361.09
641.727	9389.77
641.92	9334.47
642.114	9182.92
642.307	9434.82
642.5	9055.95
642.694	9047.76
642.887	9045.71
643.08	9146.06
643.273	8871.63
643.467	8908.49
643.66	8648.4
643.853	8701.65
644.046	8615.63
644.239	8713.94
644.432	8603.35
644.626	8451.8
644.819	8656.59
645.012	8546
645.205	8474.32
645.398	8537.81
645.591	8488.66
645.784	8367.83
645.977	8429.27
646.17	8543.95
646.363	8369.88
646.556	8072.92
646.749	8134.36
646.942	8136.41
647.135	7988.96
647.328	7960.28
647.521	8005.34
647.714	7882.46
647.907	7935.71
648.099	8009.44
648.292	7833.31
648.485	7829.21
648.678	7565.03
648.871	7829.21
649.064	7597.79
649.256	7577.31
649.449	7395.04
649.642	7440.1
649.835	7397.09
650.027	7413.48
650.22	7456.48
650.413	7313.13
650.605	7470.82
650.798	7413.48
650.991	7255.78
651.183	7112.42
651.376	7177.96
651.568	7270.12
651.761	7096.04
651.954	7104.23
652.146	6960.88
652.339	7143.14
652.531	7212.78
652.724	6815.47
652.916	6909.68
653.109	6881
653.301	6844.14
653.494	7012.07
653.686	6776.56
653.879	6827.76
654.071	6799.09
654.263	6706.93
654.456	6821.61
654.648	6573.81
654.84	6522.61
655.033	6596.34
655.225	6350.58
655.417	6475.51
655.61	6487.79
655.802	6495.99
655.994	6305.53
656.186	6473.46
656.379	6182.65
656.571	6276.85
656.763	6178.55
656.955	6162.17
657.148	6057.72
657.34	6104.82
657.532	5932.79
657.724	5967.61
657.916	6027
658.108	5848.83
658.3	5998.33
658.492	5900.03
658.684	5893.88
658.876	5838.59
659.068	5846.78
659.26	5773.05
659.452	5902.08
659.644	5828.35
659.836	5625.6
660.028	5820.16
660.22	5601.02
660.412	5549.82
660.604	5621.5
660.796	5732.09
660.988	5662.46
661.18	5560.06
661.372	5445.38
661.563	5541.63
661.755	5375.75
661.947	5383.94
662.139	5338.88
662.331	5302.02
662.522	5205.77
662.714	5410.56
662.906	5304.07
663.097	5373.7
663.289	5050.12
663.481	5152.52
663.673	5232.39
663.864	5103.37
664.056	5203.72
664.247	4964.11
664.439	5015.3
664.631	5191.43
664.822	5023.5
665.014	5011.21
665.205	5064.46
665.397	4855.56
665.588	4966.15
665.78	4835.08
665.971	4822.8
666.163	4790.03
666.354	4704.01
666.546	4679.44
666.737	4572.94
666.929	4695.82
667.12	4763.4
667.311	4687.63
667.503	4728.59
667.694	4630.29
667.885	4542.22
668.077	4458.26
668.268	4419.35
668.459	4609.81
668.651	4423.44
668.842	4538.13
669.033	4343.57
669.224	4380.43
669.416	4450.07
669.607	4488.98
669.798	4245.27
669.989	4441.87
670.18	4388.63
670.371	4337.43
670.563	4427.54
670.754	4306.71
670.945	4151.06
671.136	4208.41
671.327	4245.27
671.518	4146.97
671.709	4226.84
671.9	4026.14
672.091	4222.74
672.282	4075.29
672.473	4056.86
672.664	4103.96
672.855	3987.22
673.046	4042.52
673.237	3985.18
673.428	3829.53
673.619	3854.11
673.809	3993.37
674	3893.02
674.191	3845.91
674.382	3882.78
674.573	3858.2
674.764	3954.46
674.954	3843.87
675.145	3757.85
675.336	3821.34
675.527	3825.43
675.717	3792.67
675.908	3665.69
676.099	3745.56
676.289	3739.42
676.48	3655.45
676.671	3718.94
676.861	3696.41
677.052	3608.35
677.243	3616.54
677.433	3495.71
677.624	3639.07
677.814	3528.48
678.005	3673.89
678.195	3499.81
678.386	3493.66
678.576	3585.82
678.767	3503.9
678.957	3415.84
679.148	3516.19
679.338	3510.05
679.529	3532.58
679.719	3387.17
679.909	3428.13
680.1	3378.98
680.29	3335.97
680.481	3274.53
680.671	3383.07
680.861	3372.83
681.052	3415.84
681.242	3370.79
681.432	3350.31
681.622	3295.01
681.813	3184.42
682.003	3262.24
682.193	3241.76
682.383	3360.55
682.573	3133.22
682.764	3172.13
682.954	3256.1
683.144	3190.56
683.334	3180.32
683.524	3024.68
683.714	3194.66
683.904	3127.08
684.094	3155.75
684.284	3143.46
684.474	3094.31
684.664	3165.99
684.854	3045.16
685.044	3131.17
685.234	2963.24
685.424	3006.25
685.614	3028.78
685.804	2987.82
685.994	2983.72
686.184	2948.9
686.374	3032.87
686.564	2948.9
686.753	3010.34
686.943	2830.12
687.133	2914.09
687.323	2953
687.513	2926.38
687.702	2860.84
687.892	2840.36
688.082	2803.5
688.272	2920.23
688.461	2826.03
688.651	2821.93
688.841	2744.11
689.03	2746.16
689.22	2742.06
689.41	2770.73
689.599	2778.92
689.789	2719.53
689.979	2639.66
690.168	2821.93
690.358	2678.57
690.547	2688.81
690.737	2805.55
690.926	2740.01
691.116	2631.47
691.305	2750.25
691.495	2699.05
691.684	2658.09
691.874	2641.71
692.063	2522.93
692.252	2576.17
692.442	2598.7
692.631	2592.56
692.82	2555.69
693.01	2565.93
693.199	2545.45
693.388	2625.33
693.578	2533.17
693.767	2572.08
693.956	2506.54
694.146	2406.19
694.335	2535.21
694.524	2467.63
694.713	2524.97
694.902	2447.15
695.092	2428.72
695.281	2389.81
695.47	2484.02
695.659	2455.34
695.848	2438.96
696.037	2398
696.226	2527.02
696.415	2496.3
696.604	2506.54
696.793	2387.76
696.982	2363.19
697.171	2451.25
697.36	2334.51
697.549	2328.37
697.738	2172.72
697.927	2291.51
698.116	2379.57
698.305	2299.7
698.494	2330.42
698.683	2291.51
698.872	2338.61
699.061	2289.46
699.25	2234.16
699.438	2299.7
699.627	2311.99
699.816	2354.99
700.005	2170.68
700.193	2279.22
700.382	2250.55
700.571	2199.35
700.76	2211.64
700.948	2205.49
701.137	2201.4
701.326	2275.12
701.514	2203.44
701.703	2156.34
701.892	2195.25
702.08	2490.16
702.269	2158.39
702.457	2189.11
702.646	2174.77
702.834	2211.64
703.023	2359.09
703.212	2197.3
703.4	2205.49
703.589	2303.79
703.777	2148.15
703.965	2146.1
704.154	2201.4
704.342	2111.29
704.531	2279.22
704.719	2129.72
704.907	2225.97
705.096	2058.04
705.284	2139.96
705.472	2322.23
705.661	2264.88
705.849	2123.57
706.037	2246.45
706.226	2176.82
706.414	2111.29
706.602	2094.9
706.79	2131.76
706.979	2129.72
707.167	2207.54
707.355	2170.68
707.543	2074.42
707.731	2205.49
707.919	2240.31
708.107	2111.29
708.296	2191.16
708.484	2115.38
708.672	2144.05
708.86	2225.97
709.048	2209.59
709.236	2111.29
709.424	2072.37
709.612	2119.48
709.8	2099
709.988	2219.83
710.176	2273.07
710.364	2182.96
710.551	2047.8
710.739	2160.44
710.927	2031.41
711.115	2166.58
711.303	2090.81
711.491	2084.66
711.679	2084.66
711.866	2021.17
712.054	2094.9
712.242	2156.34
712.43	2131.76
712.617	2172.72
712.805	2195.25
712.993	2160.44
713.181	2131.76
713.368	2180.92
713.556	2045.75
713.744	1953.59
713.931	2127.67
714.119	2150.2
714.306	2064.18
714.494	2025.27
714.682	2230.07
714.869	2017.08
715.057	2195.25
715.244	2037.56
715.432	2213.68
715.619	2146.1
715.807	2117.43
715.994	2101.05
716.182	2010.93
716.369	2076.47
716.556	2185.01
716.744	2004.79
716.931	2137.91
717.119	2195.25
717.306	2146.1
717.493	2119.48
717.681	2070.33
717.868	2139.96
718.055	2027.32
718.242	2119.48
718.43	2174.77
718.617	2058.04
718.804	2127.67
718.991	2152.24
719.179	2189.11
719.366	2107.19
719.553	2199.35
719.74	2131.76
719.927	2176.82
720.114	2029.37
720.301	2154.29
720.488	2039.61
720.676	2023.22
720.863	2139.96
721.05	2219.83
721.237	2117.43
721.424	2049.85
721.611	2131.76
721.798	2062.13
721.985	2119.48
722.172	2146.1
722.358	2174.77
722.545	2123.57
722.732	2187.06
722.919	2004.79
723.106	2025.27
723.293	2043.7
723.48	2088.76
723.667	2006.84
723.853	2025.27
724.04	2139.96
724.227	2037.56
724.414	2127.67
724.6	2103.09
724.787	2099
724.974	2111.29
725.161	2189.11
725.347	2062.13
725.534	2133.81
725.72	2197.3
725.907	2017.08
726.094	2021.17
726.28	2154.29
726.467	1986.36
726.653	2137.91
726.84	2025.27
727.027	2271.03
727.213	2248.5
727.4	2135.86
727.586	2148.15
727.773	2123.57
727.959	2076.47
728.145	2129.72
728.332	2053.94
728.518	2131.76
728.705	2125.62
728.891	2176.82
729.077	2152.24
729.264	2084.66
729.45	2096.95
729.636	2123.57
729.823	2025.27
730.009	2031.41
730.195	2074.42
730.382	2162.48
730.568	2049.85
730.754	2058.04
730.94	2041.65
731.126	2086.71
731.313	2273.07
731.499	2027.32
731.685	2029.37
731.871	2051.89
732.057	2137.91
732.243	2152.24
732.429	2107.19
732.615	2033.46
732.801	2058.04
732.987	1924.92
733.173	2021.17
733.359	2058.04
733.545	2076.47
733.731	2004.79
733.917	2062.13
734.103	2058.04
734.289	1992.5
734.475	2041.65
734.661	2176.82
734.847	2074.42
735.033	2090.81
735.219	2080.57
735.404	1978.17
735.59	2109.24
735.776	2004.79
735.962	2041.65
736.148	2109.24
736.333	2062.13
736.519	2060.09
736.705	2064.18
736.89	2008.89
737.076	2099
737.262	2070.33
737.447	1908.54
737.633	1986.36
737.819	2082.61
738.004	1959.74
738.19	1990.45
738.375	1963.83
738.561	2090.81
738.747	2074.42
738.932	1902.39
739.118	1986.36
739.303	1967.93
739.489	2037.56
739.674	1916.73
739.859	1943.35
740.045	1904.44
740.23	1937.21
740.416	1994.55
740.601	1898.3
740.786	1890.1
740.972	1855.29
741.157	1871.67
741.342	1935.16
741.528	1945.4
741.713	1998.65
741.898	1834.81
742.084	1957.69
742.269	1926.97
742.454	1830.71
742.639	1953.59
742.824	1926.97
743.01	1812.28
743.195	1867.58
743.38	1906.49
743.565	1898.3
743.75	1814.33
743.935	1742.65
744.12	1845.05
744.305	1912.63
744.49	1859.38
744.675	1804.09
744.86	1789.75
745.045	1808.19
745.23	1761.08
745.415	1781.56
745.6	1789.75
745.785	1779.51
745.97	1781.56
746.155	1742.65
746.34	1806.14
746.525	1697.6
746.71	1781.56
746.895	1759.03
747.079	1748.79
747.264	1695.55
747.449	1726.27
747.634	1689.4
747.819	1632.06
748.003	1574.72
748.188	1675.07
748.373	1638.2
748.557	1539.9
748.742	1572.67
748.927	1687.36
749.111	1636.16
749.296	1603.39
749.481	1623.87
749.665	1615.68
749.85	1500.99
750.034	1576.77
750.219	1541.95
750.404	1505.09
750.588	1550.14
750.773	1447.74
750.957	1427.26
751.141	1505.09
751.326	1476.41
751.51	1527.61
751.695	1527.61
751.879	1541.95
752.064	1541.95
752.248	1441.6
752.432	1480.51
752.617	1496.89
752.801	1531.71
752.985	1378.11
753.17	1374.02
753.354	1359.68
753.538	1500.99
753.722	1318.72
753.907	1314.63
754.091	1353.54
754.275	1326.91
754.459	1271.62
754.643	1324.87
754.828	1306.43
755.012	1290.05
755.196	1273.67
755.38	1261.38
755.564	1279.81
755.748	1275.71
755.932	1230.66
756.116	1240.9
756.3	1210.18
756.484	1288
756.668	1226.56
756.852	1150.79
757.036	1230.66
757.22	1193.8
757.404	1216.32
757.588	1189.7
757.772	1232.71
757.956	1193.8
758.14	1187.65
758.323	1099.59
758.507	1156.93
758.691	1101.64
758.875	1208.13
759.059	1206.08
759.242	1091.4
759.426	1091.4
759.61	1179.46
759.794	1134.4
759.977	1187.65
760.161	1128.26
760.345	1095.49
760.528	1154.88
760.712	1009.48
760.895	1148.74
761.079	1095.49
761.263	1095.49
761.446	1015.62
761.63	1042.25
761.813	1072.96
761.997	1029.96
762.18	1009.48
762.364	950.09
762.547	939.85
762.731	1038.15
762.914	986.95
763.098	997.19
763.281	1044.29
763.464	1027.91
763.648	995.14
763.831	989
764.015	976.71
764.198	978.76
764.381	986.95
764.564	1007.43
764.748	1087.3
764.931	970.57
765.114	1034.05
765.297	1013.57
765.481	943.94
765.664	843.59
765.847	948.04
766.03	960.33
766.213	913.22
766.397	868.17
766.58	933.7
766.763	919.37
766.946	911.18
767.129	935.75
767.312	931.66
767.495	872.26
767.678	886.6
767.861	964.42
768.044	839.5
768.227	919.37
768.41	868.17
768.593	948.04
768.776	945.99
768.959	907.08
769.142	882.5
769.324	880.46
769.507	894.79
769.69	825.16
769.873	821.06
770.056	919.37
770.239	868.17
770.421	911.18
770.604	902.98
770.787	874.31
770.97	882.5
771.152	773.96
771.335	890.7
771.518	751.43
771.7	837.45
771.883	821.06
772.066	925.51
772.248	866.12
772.431	782.15
772.613	823.11
772.796	821.06
772.978	812.87
773.161	755.53
773.343	831.3
773.526	819.02
773.708	780.11
773.891	714.57
774.073	780.11
774.256	730.95
774.438	730.95
774.621	737.1
774.803	778.06
774.985	747.34
775.168	829.26
775.35	722.76
775.532	692.04
775.715	675.66
775.897	735.05
776.079	671.56
776.261	769.87
776.444	718.67
776.626	724.81
776.808	665.42
776.99	632.65
777.173	769.87
777.355	651.08
777.537	728.91
777.719	708.43
777.901	673.61
778.083	718.67
778.265	552.78
778.447	610.12
778.629	653.13
778.811	708.43
778.993	612.17
779.175	780.11
779.357	634.7
779.539	558.92
779.721	509.77
779.903	608.08
780.085	589.64
780.267	534.35
780.449	544.59
780.631	585.55
780.812	673.61
780.994	563.02
781.176	532.3
781.358	599.88
781.54	552.78
781.721	528.21
781.903	528.21
782.085	493.39
782.267	509.77
782.448	501.58
782.63	513.87
782.812	583.5
782.993	577.36
783.175	597.84
783.357	497.49
783.538	542.54
783.72	501.58
783.901	505.68
784.083	573.26
784.264	448.33
784.446	485.2
784.627	483.15
784.809	493.39
784.99	388.94
785.172	542.54
785.353	520.01
785.535	423.76
785.716	505.68
785.897	507.73
786.079	454.48
786.26	483.15
786.441	413.52
786.623	464.72
786.804	493.39
786.985	487.25
787.167	335.7
787.348	415.57
787.529	419.66
787.71	468.81
787.891	436.05
788.073	370.51
788.254	405.33
788.435	472.91
788.616	450.38
788.797	378.7
788.978	362.32
789.159	409.42
789.34	460.62
789.522	393.04
789.703	415.57
789.884	354.13
790.065	329.55
790.246	409.42
790.427	341.84
790.607	431.95
790.788	395.09
790.969	358.22
791.15	370.51
791.331	464.72
791.512	370.51
791.693	413.52
791.874	345.94
792.054	276.31
792.235	354.13
792.416	380.75
792.597	350.03
792.778	358.22
792.958	388.94
793.139	327.5
793.32	259.92
793.5	321.36
793.681	341.84
793.862	366.42
794.042	380.75
794.223	337.74
794.404	354.13
794.584	274.26
794.765	276.31
794.945	364.37
795.126	321.36
795.306	362.32
795.487	290.64
795.667	337.74
795.848	325.46
796.028	317.26
796.209	380.75
796.389	296.78
796.57	366.42
796.75	270.16
796.93	302.93
797.111	235.35
797.291	292.69
797.471	347.98
797.652	274.26
797.832	407.38
798.012	309.07
798.192	259.92
798.373	315.22
798.553	255.83
798.733	282.45
798.913	304.98
799.093	264.02
799.274	282.45
799.454	317.26
799.634	210.77
799.814	307.02
799.994	196.43
800.174	247.63
800.354	276.31
800.534	137.04
800.714	235.35
800.894	206.67
801.074	229.2
801.254	186.19
801.434	266.07
801.614	304.98
801.794	204.63
801.974	696.14
802.154	182.1
802.334	282.45
802.514	296.78
802.693	288.59
802.873	233.3
803.053	245.59
803.233	276.31
803.413	247.63
803.592	196.43
803.772	229.2
803.952	241.49
804.131	175.95
804.311	249.68
804.491	259.92
804.67	214.87
804.85	200.53
805.03	227.15
805.209	212.82
805.389	235.35
805.568	194.39
805.748	182.1
805.928	286.54
806.107	184.15
806.287	245.59
806.466	202.58
806.646	178
806.825	247.63
807.004	173.91
807.184	143.19
807.363	157.52
807.543	243.54
807.722	196.43
807.901	245.59
808.081	268.11
808.26	108.37
808.439	210.77
808.619	186.19
808.798	216.91
808.977	282.45
809.156	276.31
809.336	124.76
809.515	221.01
809.694	214.87
809.873	200.53
810.052	169.81
810.231	272.21
810.411	100.18
810.59	227.15
810.769	141.14
810.948	190.29
811.127	104.28
811.306	159.57
811.485	126.8
811.664	237.39
811.843	227.15
812.022	167.76
812.201	159.57
812.38	194.39
812.559	151.38
812.737	202.58
812.916	102.23
813.095	180.05
813.274	87.89
813.453	239.44
813.632	165.71
813.811	128.85
813.989	141.14
814.168	194.39
814.347	145.24
814.526	135
814.704	163.67
814.883	214.87
815.062	149.33
815.24	208.72
815.419	182.1
815.598	141.14
815.776	73.56
815.955	137.04
816.133	69.46
816.312	188.24
816.49	171.86
816.669	139.09
816.847	178
817.026	161.62
817.204	169.81
817.383	190.29
817.561	135
817.74	163.67
817.918	161.62
818.097	85.84
818.275	137.04
818.453	124.76
818.632	161.62
818.81	128.85
818.988	118.61
819.167	159.57
819.345	69.46
819.523	98.13
819.701	91.99
819.879	85.84
820.058	89.94
820.236	122.71
820.414	165.71
820.592	85.84
820.77	147.28
820.948	91.99
821.127	77.65
821.305	135
821.483	36.69
821.661	118.61
821.839	184.15
822.017	126.8
822.195	96.08
822.373	128.85
822.551	135
822.729	159.57
822.907	116.56
823.085	132.95
823.262	83.8
823.44	118.61
823.618	180.05
823.796	40.79
823.974	89.94
824.152	159.57
824.329	132.95
824.507	153.43
824.685	137.04
824.863	141.14
825.04	71.51
825.218	157.52
825.396	59.22
825.574	208.72
825.751	91.99
825.929	151.38
826.107	57.17
826.284	130.9
826.462	139.09
826.639	75.6
826.817	75.6
826.994	94.04
827.172	75.6
827.349	198.48
827.527	143.19
827.704	108.37
827.882	104.28
828.059	118.61
828.237	34.64
828.414	116.56
828.591	71.51
828.769	65.36
828.946	1.88
829.124	126.8
829.301	139.09
829.478	83.8
829.655	124.76
829.833	151.38
830.01	38.74
830.187	69.46
830.364	147.28
830.542	69.46
830.719	73.56
830.896	114.52
831.073	59.22
831.25	75.6
831.427	18.26
831.604	40.79
831.782	79.7
831.959	67.41
832.136	89.94
832.313	126.8
832.49	26.45
832.667	65.36
832.844	83.8
833.021	108.37
833.198	94.04
833.374	81.75
833.551	73.56
833.728	108.37
833.905	55.12
834.082	87.89
834.259	55.12
834.436	85.84
834.612	26.45
834.789	59.22
834.966	51.03
835.143	40.79
835.319	59.22
835.496	102.23
835.673	77.65
835.85	153.43
836.026	94.04
836.203	91.99
836.38	55.12
836.556	112.47
836.733	69.46
836.909	157.52
837.086	55.12
837.262	94.04
837.439	85.84
837.616	61.27
837.792	157.52
837.968	67.41
838.145	5.97
838.321	55.12
838.498	63.32
838.674	87.89
838.851	40.79
839.027	171.86
839.203	118.61
839.38	102.23
839.556	26.45
839.732	87.89
839.909	63.32
840.085	53.08
840.261	48.98
840.437	79.7
840.614	-8.36
840.79	112.47
840.966	63.32
841.142	83.8
841.318	-12.46
841.494	53.08
841.671	94.04
841.847	28.5
842.023	61.27
842.199	32.6
842.375	61.27
842.551	63.32
842.727	28.5
842.903	91.99
843.079	73.56
843.255	116.56
843.431	81.75
843.607	81.75
843.783	-2.22
843.959	141.14
844.134	59.22
844.31	128.85
844.486	69.46
844.662	30.55
844.838	91.99
845.013	141.14
845.189	114.52
845.365	59.22
845.541	65.36
845.716	53.08
845.892	48.98
846.068	40.79
846.244	34.64
846.419	83.8
846.595	-8.36
846.77	26.45
846.946	89.94
847.122	10.07
847.297	-20.65
847.473	151.38
847.648	75.6
847.824	-6.31
847.999	48.98
848.175	1.88
848.35	32.6
848.526	63.32
848.701	57.17
848.876	67.41
849.052	85.84
849.227	-12.46
849.403	32.6
849.578	3.93
849.753	85.84
849.929	77.65
850.104	30.55
850.279	48.98
850.454	38.74
850.63	44.88
850.805	77.65
850.98	100.18
851.155	77.65
851.33	69.46
851.505	-18.6
851.681	-2.22
851.856	55.12
852.031	-2.22
852.206	16.21
852.381	18.26
852.556	104.28
852.731	44.88
852.906	46.93
853.081	18.26
853.256	38.74
853.431	-4.27
853.606	61.27
853.781	28.5
853.956	-2.22
854.131	12.12
854.305	53.08
854.48	61.27
854.655	16.21
854.83	40.79
855.005	-10.41
855.18	48.98
855.354	-22.7
855.529	85.84
855.704	61.27
855.879	42.84
856.053	44.88
856.228	81.75
856.403	-22.7
856.577	1.88
856.752	20.31
856.926	59.22
857.101	-0.17
857.276	28.5
857.45	100.18
857.625	22.36
857.799	110.42
857.974	16.21
858.148	61.27
858.323	59.22
858.497	10.07
858.672	59.22
858.846	36.69
859.02	-14.51
859.195	87.89
859.369	32.6
859.543	75.6
859.718	44.88
859.892	51.03
860.066	16.21
860.241	22.36
860.415	59.22
860.589	-22.7
860.763	63.32
860.938	14.17
861.112	137.04
861.286	-8.36
861.46	14.17
861.634	24.4
861.808	-6.31
861.982	48.98
862.157	-6.31
862.331	32.6
862.505	16.21
862.679	30.55
862.853	10.07
863.027	14.17
863.201	81.75
863.375	38.74
863.549	26.45
863.722	24.4
863.896	-6.31
864.07	24.4
864.244	-2.22
864.418	42.84
864.592	38.74
864.766	16.21
864.939	83.8
865.113	14.17
865.287	-20.65
865.461	-0.17
865.634	32.6
865.808	44.88
865.982	18.26
866.156	-2.22
866.329	-37.03
866.503	51.03
866.676	3.93
866.85	5.97
867.024	5.97
867.197	38.74
867.371	34.64
867.544	91.99
867.718	108.37
867.891	-28.84
868.065	-47.27
868.238	-2.22
868.412	44.88
868.585	-30.89
868.759	61.27
868.932	-8.36
869.105	26.45
869.279	59.22
869.452	-55.47
869.625	36.69
869.799	12.12
869.972	40.79
870.145	8.02
870.319	57.17
870.492	-18.6
870.665	34.64
870.838	1.88
871.011	16.21
871.185	34.64
871.358	-8.36
871.531	98.13
871.704	85.84
871.877	57.17
872.05	-47.27
872.223	-2.22
872.396	42.84
872.569	-8.36
872.742	22.36
872.915	81.75
873.088	89.94
873.261	1.88
873.434	38.74
873.607	18.26
873.78	96.08
873.953	-2.22
874.126	65.36
874.299	85.84
874.471	-37.03
874.644	-67.75
874.817	83.8
874.99	79.7
875.163	-45.23
875.335	-0.17
875.508	59.22
875.681	61.27
875.853	-18.6
876.026	18.26
876.199	-6.31
876.371	63.32
876.544	67.41
876.717	-4.27
876.889	3.93
877.062	69.46
877.234	79.7
877.407	83.8
877.579	-14.51
877.752	77.65
877.924	44.88
878.097	69.46
878.269	3.93
878.442	120.66
878.614	-6.31
878.786	3.93
878.959	20.31
879.131	69.46
879.303	30.55
879.476	14.17
879.648	-47.27
879.82	38.74
879.993	71.51
880.165	-32.94
880.337	59.22
880.509	102.23
880.681	34.64
880.854	55.12
881.026	38.74
881.198	53.08
881.37	42.84
881.542	-71.85
881.714	-24.75
881.886	63.32
882.058	5.97
882.23	53.08
882.402	69.46
882.574	-10.41
882.746	24.4
882.918	32.6
883.09	24.4
883.262	46.93
883.434	24.4
883.606	124.76
883.778	137.04
883.95	26.45
884.122	22.36
884.293	91.99
884.465	24.4
884.637	79.7
884.809	65.36
884.98	59.22
885.152	20.31
885.324	30.55
885.496	-12.46
885.667	96.08
885.839	-30.89
886.011	5.97
886.182	5.97
886.354	10.07
886.525	18.26
886.697	48.98
886.869	-47.27
887.04	-55.47
887.212	63.32
887.383	-8.36
887.555	42.84
887.726	51.03
887.897	69.46
888.069	-37.03
888.24	8.02
888.412	-14.51
888.583	26.45
888.754	48.98
888.926	-14.51
889.097	36.69
889.268	26.45
889.44	38.74
889.611	-41.13
889.782	20.31
889.953	-24.75
890.125	94.04
890.296	-2.22
890.467	-61.61
890.638	-0.17
890.809	5.97
890.98	-6.31
891.151	42.84
891.323	65.36
891.494	10.07
891.665	24.4
891.836	73.56
892.007	-47.27
892.178	-6.31
892.349	8.02
892.52	-10.41
892.691	26.45
892.862	59.22
893.032	-104.62
893.203	-4.27
893.374	12.12
893.545	24.4
893.716	-34.99
893.887	46.93
894.057	42.84
894.228	12.12
894.399	18.26
894.57	61.27
894.74	-4.27
894.911	34.64
895.082	34.64
895.253	36.69
895.423	28.5
895.594	30.55
895.764	44.88
895.935	1.88
896.106	-30.89
896.276	85.84
896.447	10.07
896.617	40.79
896.788	-16.55
896.958	36.69
897.129	42.84
897.299	-67.75
897.47	44.88
897.64	42.84
897.81	-6.31
897.981	22.36
898.151	-6.31
898.322	75.6
898.492	-22.7
898.662	12.12
898.832	12.12
899.003	-14.51
899.173	42.84
899.343	-12.46
899.513	-0.17
