Data from USB4F104151__16__13-10-26-966.txt Node

Date: Fri Mar 14 13:10:26 EDT 2025
User: louis
Spectrometer: USB4F10415
Trigger mode: 4
Integration Time (sec): 2.000000E-2
Scans to average: 1
Electric dark correction enabled: true
Nonlinearity correction enabled: false
Boxcar width: 0
XAxis mode: Wavelengths
Number of Pixels in Spectrum: 3648
>>>>>Begin Spectral Data<<<<<
178.204	-103.08
178.424	-103.08
178.644	-103.08
178.864	-164.52
179.084	-70.31
179.304	-10.92
179.524	42.32
179.744	-74.41
179.964	32.08
180.184	-4.78
180.404	17.75
180.624	21.85
180.844	-66.22
181.064	-37.55
181.283	19.8
181.503	71
181.723	-10.92
181.943	-76.46
182.163	42.32
182.383	46.42
182.602	30.04
182.822	-21.16
183.042	-10.92
183.262	38.23
183.482	9.56
183.701	48.47
183.921	-8.87
184.141	-4.78
184.361	87.38
184.58	23.89
184.8	-25.26
185.02	1.37
185.239	40.28
185.459	15.7
185.679	25.94
185.898	-53.93
186.118	68.95
186.338	-15.02
186.557	77.14
186.777	-17.07
186.997	109.91
187.216	-15.02
187.436	68.95
187.655	36.18
187.875	56.66
188.095	5.46
188.314	50.52
188.534	87.38
188.753	40.28
188.973	15.7
189.192	54.61
189.412	13.65
189.631	-45.74
189.851	30.04
190.07	52.56
190.29	-74.41
190.509	-70.31
190.729	15.7
190.948	81.24
191.168	138.58
191.387	87.38
191.607	-64.17
191.826	77.14
192.045	79.19
192.265	-0.68
192.484	66.9
192.704	-10.92
192.923	30.04
193.142	77.14
193.362	11.61
193.581	79.19
193.8	-33.45
194.02	101.72
194.239	68.95
194.458	27.99
194.678	-12.97
194.897	11.61
195.116	19.8
195.335	46.42
195.555	60.76
195.774	15.7
195.993	-2.73
196.212	-0.68
196.432	-49.83
196.651	36.18
196.87	-6.83
197.089	109.91
197.308	56.66
197.528	46.42
197.747	-23.21
197.966	34.13
198.185	7.51
198.404	23.89
198.623	-39.59
198.842	11.61
199.062	-19.11
199.281	58.71
199.5	-6.83
199.719	-39.59
199.938	107.86
200.157	30.04
200.376	-12.97
200.595	44.37
200.814	-27.31
201.033	25.94
201.252	52.56
201.471	3.41
201.69	5.46
201.909	15.7
202.128	-15.02
202.347	-27.31
202.566	3.41
202.785	25.94
203.004	42.32
203.223	17.75
203.442	34.13
203.661	54.61
203.879	44.37
204.098	42.32
204.317	-15.02
204.536	-10.92
204.755	34.13
204.974	114
205.193	58.71
205.411	52.56
205.63	25.94
205.849	38.23
206.068	-29.35
206.287	-43.69
206.505	23.89
206.724	9.56
206.943	-35.5
207.162	50.52
207.381	95.57
207.599	-4.78
207.818	3.41
208.037	77.14
208.255	-17.07
208.474	-19.11
208.693	-21.16
208.911	-19.11
209.13	-4.78
209.349	50.52
209.567	81.24
209.786	128.34
210.005	-12.97
210.223	36.18
210.442	-17.07
210.661	32.08
210.879	32.08
211.098	42.32
211.316	-60.07
211.535	19.8
211.753	27.99
211.972	-23.21
212.191	-31.4
212.409	-2.73
212.628	11.61
212.846	5.46
213.065	11.61
213.283	21.85
213.502	-86.7
213.72	58.71
213.938	1.37
214.157	36.18
214.375	83.28
214.594	48.47
214.812	-49.83
215.031	-31.4
215.249	60.76
215.467	-10.92
215.686	-21.16
215.904	27.99
216.122	-86.7
216.341	58.71
216.559	-2.73
216.778	17.75
216.996	-2.73
217.214	62.8
217.432	-23.21
217.651	-12.97
217.869	-37.55
218.087	38.23
218.306	36.18
218.524	32.08
218.742	19.8
218.96	68.95
219.179	36.18
219.397	-37.55
219.615	-33.45
219.833	54.61
220.051	44.37
220.27	77.14
220.488	38.23
220.706	-12.97
220.924	30.04
221.142	13.65
221.36	7.51
221.578	79.19
221.796	77.14
222.015	-27.31
222.233	21.85
222.451	21.85
222.669	23.89
222.887	99.67
223.105	5.46
223.323	17.75
223.541	-45.74
223.759	36.18
223.977	-33.45
224.195	60.76
224.413	38.23
224.631	21.85
224.849	1.37
225.067	101.72
225.285	-17.07
225.503	-35.5
225.721	-74.41
225.939	25.94
226.157	25.94
226.375	66.9
226.592	19.8
226.81	101.72
227.028	-49.83
227.246	-0.68
227.464	27.99
227.682	30.04
227.9	34.13
228.117	56.66
228.335	-12.97
228.553	-8.87
228.771	-8.87
228.989	13.65
229.206	40.28
229.424	64.85
229.642	42.32
229.86	-27.31
230.077	23.89
230.295	-10.92
230.513	77.14
230.731	13.65
230.948	54.61
231.166	44.37
231.384	38.23
231.601	11.61
231.819	60.76
232.037	46.42
232.254	-41.64
232.472	68.95
232.689	68.95
232.907	81.24
233.125	-33.45
233.342	64.85
233.56	13.65
233.777	-6.83
233.995	-25.26
234.213	46.42
234.43	81.24
234.648	46.42
234.865	-6.83
235.083	91.48
235.3	1.37
235.518	48.47
235.735	60.76
235.953	21.85
236.17	-33.45
236.388	-27.31
236.605	42.32
236.822	103.76
237.04	38.23
237.257	64.85
237.475	58.71
237.692	23.89
237.909	11.61
238.127	-33.45
238.344	44.37
238.562	5.46
238.779	-2.73
238.996	-19.11
239.214	13.65
239.431	66.9
239.648	62.8
239.865	9.56
240.083	19.8
240.3	44.37
240.517	3.41
240.735	116.05
240.952	46.42
241.169	95.57
241.386	23.89
241.603	11.61
241.821	50.52
242.038	23.89
242.255	42.32
242.472	46.42
242.689	-62.12
242.907	-25.26
243.124	-21.16
243.341	-12.97
243.558	23.89
243.775	-27.31
243.992	21.85
244.209	-6.83
244.426	15.7
244.643	77.14
244.86	-45.74
245.078	3.41
245.295	-4.78
245.512	32.08
245.729	-62.12
245.946	56.66
246.163	-29.35
246.38	66.9
246.597	25.94
246.814	-25.26
247.031	-0.68
247.248	48.47
247.464	27.99
247.681	17.75
247.898	38.23
248.115	25.94
248.332	-0.68
248.549	3.41
248.766	71
248.983	109.91
249.2	17.75
249.417	15.7
249.633	-8.87
249.85	13.65
250.067	-27.31
250.284	19.8
250.501	3.41
250.717	30.04
250.934	-21.16
251.151	5.46
251.368	23.89
251.585	-51.88
251.801	44.37
252.018	-19.11
252.235	97.62
252.451	40.28
252.668	-17.07
252.885	46.42
253.102	101.72
253.318	-4.78
253.535	-12.97
253.752	38.23
253.968	50.52
254.185	-2.73
254.401	-33.45
254.618	-4.78
254.835	30.04
255.051	93.52
255.268	52.56
255.484	-2.73
255.701	42.32
255.917	85.33
256.134	-10.92
256.351	60.76
256.567	120.15
256.784	5.46
257	-2.73
257.217	54.61
257.433	-25.26
257.65	83.28
257.866	36.18
258.082	-53.93
258.299	-35.5
258.515	68.95
258.732	54.61
258.948	62.8
259.165	25.94
259.381	-2.73
259.597	62.8
259.814	-41.64
260.03	-0.68
260.246	85.33
260.463	52.56
260.679	15.7
260.895	32.08
261.112	48.47
261.328	38.23
261.544	-25.26
261.761	101.72
261.977	54.61
262.193	21.85
262.409	3.41
262.626	17.75
262.842	5.46
263.058	-60.07
263.274	23.89
263.49	19.8
263.707	-21.16
263.923	64.85
264.139	-4.78
264.355	-35.5
264.571	62.8
264.787	-33.45
265.004	109.91
265.22	21.85
265.436	11.61
265.652	30.04
265.868	25.94
266.084	-10.92
266.3	5.46
266.516	-4.78
266.732	44.37
266.948	-4.78
267.164	3.41
267.38	-21.16
267.596	50.52
267.812	83.28
268.028	99.67
268.244	1.37
268.46	32.08
268.676	-62.12
268.892	38.23
269.108	58.71
269.324	5.46
269.54	-12.97
269.756	83.28
269.972	42.32
270.188	1.37
270.403	-45.74
270.619	-8.87
270.835	30.04
271.051	9.56
271.267	-60.07
271.483	-21.16
271.698	-17.07
271.914	-8.87
272.13	5.46
272.346	15.7
272.562	32.08
272.777	52.56
272.993	-4.78
273.209	11.61
273.425	48.47
273.64	58.71
273.856	11.61
274.072	77.14
274.287	40.28
274.503	34.13
274.719	62.8
274.934	-10.92
275.15	-21.16
275.366	3.41
275.581	-55.98
275.797	64.85
276.012	-58.03
276.228	-37.55
276.444	-4.78
276.659	103.76
276.875	13.65
277.09	87.38
277.306	11.61
277.521	38.23
277.737	17.75
277.952	54.61
278.168	21.85
278.383	-12.97
278.599	-4.78
278.814	50.52
279.03	75.09
279.245	73.04
279.461	15.7
279.676	7.51
279.892	-21.16
280.107	50.52
280.322	19.8
280.538	27.99
280.753	36.18
280.969	19.8
281.184	46.42
281.399	46.42
281.615	30.04
281.83	52.56
282.045	-6.83
282.26	38.23
282.476	60.76
282.691	140.63
282.906	23.89
283.122	-0.68
283.337	-25.26
283.552	19.8
283.767	-60.07
283.983	83.28
284.198	-23.21
284.413	-17.07
284.628	-53.93
284.843	79.19
285.058	-4.78
285.274	34.13
285.489	-23.21
285.704	-10.92
285.919	-4.78
286.134	3.41
286.349	11.61
286.564	79.19
286.779	85.33
286.995	71
287.21	3.41
287.425	75.09
287.64	-17.07
287.855	54.61
288.07	48.47
288.285	52.56
288.5	17.75
288.715	7.51
288.93	19.8
289.145	87.38
289.36	27.99
289.575	-33.45
289.79	52.56
290.004	36.18
290.219	66.9
290.434	27.99
290.649	54.61
290.864	19.8
291.079	32.08
291.294	73.04
291.509	-10.92
291.724	50.52
291.938	1.37
292.153	-45.74
292.368	15.7
292.583	9.56
292.798	56.66
293.012	11.61
293.227	-21.16
293.442	60.76
293.657	64.85
293.871	81.24
294.086	36.18
294.301	62.8
294.516	30.04
294.73	3.41
294.945	-23.21
295.16	-8.87
295.374	32.08
295.589	11.61
295.804	7.51
296.018	87.38
296.233	17.75
296.447	-0.68
296.662	-64.17
296.877	77.14
297.091	21.85
297.306	-49.83
297.52	-12.97
297.735	-21.16
297.949	36.18
298.164	13.65
298.378	-8.87
298.593	38.23
298.807	-4.78
299.022	68.95
299.236	-15.02
299.451	9.56
299.665	-72.36
299.88	30.04
300.094	-15.02
300.309	13.65
300.523	42.32
300.737	71
300.952	23.89
301.166	36.18
301.381	15.7
301.595	60.76
301.809	60.76
302.024	25.94
302.238	-15.02
302.452	79.19
302.667	7.51
302.881	56.66
303.095	-0.68
303.309	79.19
303.524	34.13
303.738	-21.16
303.952	-10.92
304.166	77.14
304.381	34.13
304.595	73.04
304.809	-17.07
305.023	1.37
305.237	-2.73
305.452	27.99
305.666	-17.07
305.88	64.85
306.094	46.42
306.308	21.85
306.522	3.41
306.736	60.76
306.95	111.96
307.164	-15.02
307.379	27.99
307.593	54.61
307.807	64.85
308.021	95.57
308.235	13.65
308.449	71
308.663	7.51
308.877	77.14
309.091	-6.83
309.305	34.13
309.519	-51.88
309.733	34.13
309.947	-62.12
310.161	64.85
310.374	66.9
310.588	21.85
310.802	-17.07
311.016	60.76
311.23	-15.02
311.444	-29.35
311.658	-2.73
311.872	85.33
312.085	85.33
312.299	50.52
312.513	85.33
312.727	-55.98
312.941	62.8
313.154	58.71
313.368	71
313.582	89.43
313.796	11.61
314.009	40.28
314.223	-29.35
314.437	30.04
314.651	46.42
314.864	5.46
315.078	7.51
315.292	25.94
315.505	27.99
315.719	87.38
315.933	30.04
316.146	27.99
316.36	-4.78
316.573	-53.93
316.787	62.8
317.001	48.47
317.214	-53.93
317.428	60.76
317.641	15.7
317.855	50.52
318.068	36.18
318.282	-53.93
318.495	87.38
318.709	93.52
318.922	64.85
319.136	40.28
319.349	68.95
319.563	-39.59
319.776	-21.16
319.99	-47.79
320.203	109.91
320.417	11.61
320.63	40.28
320.843	13.65
321.057	5.46
321.27	81.24
321.483	5.46
321.697	3.41
321.91	11.61
322.124	38.23
322.337	66.9
322.55	32.08
322.763	71
322.977	21.85
323.19	9.56
323.403	44.37
323.617	62.8
323.83	27.99
324.043	42.32
324.256	-0.68
324.469	21.85
324.683	-10.92
324.896	36.18
325.109	13.65
325.322	1.37
325.535	111.96
325.748	-8.87
325.962	56.66
326.175	-53.93
326.388	71
326.601	7.51
326.814	-15.02
327.027	46.42
327.24	101.72
327.453	11.61
327.666	13.65
327.879	-0.68
328.092	36.18
328.305	13.65
328.518	27.99
328.731	36.18
328.944	56.66
329.157	-2.73
329.37	-10.92
329.583	9.56
329.796	46.42
330.009	44.37
330.222	68.95
330.435	40.28
330.648	62.8
330.861	32.08
331.073	77.14
331.286	124.24
331.499	-8.87
331.712	11.61
331.925	-45.74
332.138	-15.02
332.35	38.23
332.563	-70.31
332.776	116.05
332.989	-84.65
333.202	23.89
333.414	52.56
333.627	-51.88
333.84	9.56
334.053	68.95
334.265	-19.11
334.478	21.85
334.691	-39.59
334.903	-19.11
335.116	-10.92
335.329	7.51
335.541	38.23
335.754	91.48
335.966	-15.02
336.179	68.95
336.392	27.99
336.604	44.37
336.817	89.43
337.029	42.32
337.242	81.24
337.454	48.47
337.667	27.99
337.88	50.52
338.092	75.09
338.305	64.85
338.517	32.08
338.729	75.09
338.942	-29.35
339.154	56.66
339.367	-66.22
339.579	-0.68
339.792	71
340.004	68.95
340.217	46.42
340.429	-12.97
340.641	56.66
340.854	-2.73
341.066	-10.92
341.278	159.06
341.491	7.51
341.703	38.23
341.915	-0.68
342.128	89.43
342.34	1.37
342.552	21.85
342.764	25.94
342.977	21.85
343.189	52.56
343.401	15.7
343.613	3.41
343.826	54.61
344.038	-47.79
344.25	-41.64
344.462	71
344.674	54.61
344.886	44.37
345.099	93.52
345.311	-33.45
345.523	48.47
345.735	-37.55
345.947	-15.02
346.159	58.71
346.371	13.65
346.583	-39.59
346.795	32.08
347.007	-58.03
347.219	11.61
347.431	7.51
347.643	77.14
347.855	-47.79
348.067	7.51
348.279	1.37
348.491	-6.83
348.703	114
348.915	-15.02
349.127	32.08
349.339	36.18
349.551	54.61
349.763	46.42
349.975	3.41
350.187	46.42
350.399	46.42
350.61	-0.68
350.822	38.23
351.034	30.04
351.246	23.89
351.458	44.37
351.669	46.42
351.881	79.19
352.093	34.13
352.305	101.72
352.517	7.51
352.728	5.46
352.94	77.14
353.152	54.61
353.363	-10.92
353.575	9.56
353.787	50.52
353.999	54.61
354.21	66.9
354.422	73.04
354.633	9.56
354.845	60.76
355.057	62.8
355.268	71
355.48	34.13
355.692	30.04
355.903	-15.02
356.115	71
356.326	-25.26
356.538	23.89
356.749	60.76
356.961	3.41
357.172	27.99
357.384	19.8
357.595	-12.97
357.807	30.04
358.018	3.41
358.23	54.61
358.441	44.37
358.653	-17.07
358.864	85.33
359.075	46.42
359.287	-33.45
359.498	97.62
359.709	13.65
359.921	11.61
360.132	107.86
360.344	-29.35
360.555	32.08
360.766	17.75
360.977	27.99
361.189	73.04
361.4	-12.97
361.611	42.32
361.823	89.43
362.034	25.94
362.245	23.89
362.456	38.23
362.667	71
362.879	60.76
363.09	42.32
363.301	44.37
363.512	60.76
363.723	36.18
363.935	54.61
364.146	58.71
364.357	5.46
364.568	11.61
364.779	66.9
364.99	23.89
365.201	68.95
365.412	52.56
365.623	-4.78
365.834	93.52
366.045	7.51
366.256	95.57
366.467	19.8
366.678	130.39
366.889	83.28
367.1	48.47
367.311	38.23
367.522	-21.16
367.733	71
367.944	64.85
368.155	17.75
368.366	1.37
368.577	-17.07
368.788	97.62
368.999	-8.87
369.209	38.23
369.42	144.72
369.631	23.89
369.842	15.7
370.053	79.19
370.264	85.33
370.474	62.8
370.685	40.28
370.896	64.85
371.107	15.7
371.317	5.46
371.528	56.66
371.739	11.61
371.95	36.18
372.16	-12.97
372.371	40.28
372.582	52.56
372.792	58.71
373.003	62.8
373.214	-2.73
373.424	-12.97
373.635	34.13
373.846	54.61
374.056	44.37
374.267	-0.68
374.477	95.57
374.688	-15.02
374.898	68.95
375.109	19.8
375.319	36.18
375.53	40.28
375.74	52.56
375.951	17.75
376.161	48.47
376.372	142.68
376.582	79.19
376.793	-12.97
377.003	50.52
377.214	23.89
377.424	36.18
377.635	105.81
377.845	5.46
378.055	173.39
378.266	-4.78
378.476	87.38
378.686	64.85
378.897	71
379.107	17.75
379.317	3.41
379.528	15.7
379.738	3.41
379.948	-66.22
380.158	136.53
380.369	124.24
380.579	60.76
380.789	44.37
380.999	52.56
381.21	68.95
381.42	36.18
381.63	11.61
381.84	54.61
382.05	105.81
382.261	11.61
382.471	38.23
382.681	-8.87
382.891	77.14
383.101	95.57
383.311	-21.16
383.521	34.13
383.731	52.56
383.941	38.23
384.151	73.04
384.361	-12.97
384.571	71
384.781	64.85
384.991	130.39
385.201	-8.87
385.411	30.04
385.621	3.41
385.831	-17.07
386.041	-17.07
386.251	36.18
386.461	126.29
386.671	42.32
386.881	1.37
387.091	11.61
387.301	36.18
387.511	13.65
387.72	60.76
387.93	23.89
388.14	13.65
388.35	-6.83
388.56	83.28
388.769	46.42
388.979	83.28
389.189	15.7
389.399	60.76
389.609	-2.73
389.818	62.8
390.028	27.99
390.238	87.38
390.447	64.85
390.657	54.61
390.867	32.08
391.076	114
391.286	87.38
391.496	17.75
391.705	93.52
391.915	75.09
392.125	77.14
392.334	95.57
392.544	19.8
392.753	79.19
392.963	85.33
393.172	3.41
393.382	15.7
393.591	-0.68
393.801	36.18
394.01	116.05
394.22	124.24
394.429	44.37
394.639	11.61
394.848	130.39
395.058	23.89
395.267	58.71
395.477	169.3
395.686	95.57
395.895	128.34
396.105	124.24
396.314	25.94
396.524	52.56
396.733	13.65
396.942	71
397.152	136.53
397.361	130.39
397.57	11.61
397.78	52.56
397.989	48.47
398.198	154.96
398.407	138.58
398.617	111.96
398.826	91.48
399.035	56.66
399.244	105.81
399.453	15.7
399.663	165.2
399.872	132.44
400.081	56.66
400.29	142.68
400.499	40.28
400.708	62.8
400.917	75.09
401.127	46.42
401.336	99.67
401.545	118.1
401.754	54.61
401.963	105.81
402.172	109.91
402.381	120.15
402.59	101.72
402.799	120.15
403.008	71
403.217	130.39
403.426	107.86
403.635	216.4
403.844	161.11
404.053	150.87
404.262	58.71
404.471	130.39
404.68	103.76
404.888	136.53
405.097	73.04
405.306	111.96
405.515	114
405.724	97.62
405.933	103.76
406.142	167.25
406.35	171.35
406.559	128.34
406.768	81.24
406.977	167.25
407.185	83.28
407.394	120.15
407.603	132.44
407.812	187.73
408.02	171.35
408.229	228.69
408.438	226.64
408.646	138.58
408.855	152.92
409.064	238.93
409.272	240.98
409.481	265.55
409.69	230.74
409.898	234.83
410.107	347.47
410.315	347.47
410.524	251.22
410.733	240.98
410.941	361.81
411.15	367.95
411.358	292.18
411.567	281.94
411.775	343.38
411.984	349.52
412.192	331.09
412.401	384.34
412.609	480.59
412.818	439.63
413.026	349.52
413.234	447.82
413.443	511.31
413.651	421.2
413.86	515.41
414.068	453.97
414.276	544.08
414.485	531.79
414.693	619.85
414.901	554.32
415.11	666.96
415.318	564.56
415.526	634.19
415.734	611.66
415.943	675.15
416.151	691.53
416.359	726.35
416.567	707.91
416.776	689.48
416.984	847.18
417.192	810.31
417.4	773.45
417.608	847.18
417.817	894.28
418.025	916.81
418.233	943.43
418.441	853.32
418.649	1054.02
418.857	1043.78
419.065	1080.64
419.273	1045.83
419.481	1133.89
419.689	1183.04
419.897	1158.47
420.105	1228.1
420.313	1289.54
420.521	1363.26
420.729	1267.01
420.937	1451.33
421.145	1559.87
421.353	1545.53
421.561	1692.99
421.769	1588.54
421.977	1742.14
422.185	1666.36
422.393	1822.01
422.601	1928.5
422.809	1862.97
423.017	1928.5
423.224	2092.34
423.432	2164.02
423.64	2121.01
423.848	2379.06
424.056	2096.44
424.263	2401.58
424.471	2389.3
424.679	2452.78
424.887	2518.32
425.094	2610.48
425.302	2649.39
425.51	2762.03
425.718	2788.65
425.925	2897.19
426.133	2981.16
426.341	3206.44
426.548	3155.24
426.756	3292.45
426.964	3380.51
427.171	3484.96
427.379	3538.21
427.586	3792.16
427.794	3863.83
428.001	3900.7
428.209	4197.65
428.417	4044.06
428.624	4314.39
428.832	4168.98
429.039	4334.87
429.247	4398.35
429.454	4762.89
429.662	4859.15
429.869	4881.67
430.076	5002.51
430.284	4902.15
430.491	5004.55
430.699	5399.81
430.906	5485.83
431.114	5610.75
431.321	5786.88
431.528	5823.74
431.736	6208.76
431.943	6450.42
432.15	6407.41
432.358	6319.35
432.565	6812.91
432.772	6550.77
432.979	7116.01
433.187	7054.57
433.394	7077.1
433.601	7652.58
433.808	7658.72
434.016	7709.92
434.223	8047.83
434.43	8393.94
434.637	8457.43
434.844	8666.32
435.052	9006.28
435.259	9002.19
435.466	9069.77
435.673	9016.52
435.88	9555.14
436.087	10218.68
436.294	10112.19
436.501	9858.24
436.708	10079.42
436.915	10343.61
437.122	10759.35
437.329	10605.75
437.537	11087.02
437.743	11381.93
437.95	11232.43
438.157	11863.2
438.364	12121.24
438.571	12162.2
438.778	12364.95
438.985	13417.61
439.192	12596.37
439.399	13231.24
439.606	13036.69
439.813	13632.65
440.02	14427.26
440.227	14392.44
440.433	14003.33
440.64	14371.96
440.847	14564.47
441.054	14730.36
441.261	15756.39
441.467	15740.01
441.674	15928.42
441.881	16555.1
442.088	16452.7
442.294	16374.88
442.501	16632.92
442.708	17091.66
442.914	17720.39
443.121	18402.36
443.328	18127.94
443.534	19049.52
443.741	19016.76
443.948	18474.04
444.154	19930.15
444.361	19655.72
444.568	19815.46
444.774	19940.39
444.981	20077.6
445.187	20735
445.394	21408.78
445.6	21408.78
445.807	23325.68
446.013	22236.16
446.22	22950.9
446.426	23682.03
446.633	23991.27
446.839	24558.56
447.046	23849.96
447.252	25072.6
447.459	25072.6
447.665	24859.61
447.871	26258.37
448.078	27337.65
448.284	26092.49
448.491	26708.93
448.697	27892.65
448.903	28183.46
449.11	28437.41
449.316	27741.1
449.522	28289.96
449.728	28969.88
449.935	29635.47
450.141	29387.67
450.347	30026.64
450.553	29119.38
450.76	29336.47
450.966	30534.53
451.172	30032.78
451.378	31210.36
451.584	30337.93
451.791	30899.07
451.997	30903.17
452.203	31456.12
452.409	31644.53
452.615	31638.39
452.821	30557.06
453.027	30233.48
453.233	31656.82
453.44	30524.29
453.646	30616.45
453.852	31048.57
454.058	31202.17
454.264	30243.72
454.47	31196.03
454.676	30438.28
454.882	31339.38
455.088	28963.74
455.294	29053.85
455.5	29580.18
455.705	29778.83
455.911	28818.33
456.117	28187.56
456.323	27982.76
456.529	26571.71
456.735	27734.96
456.941	26778.56
457.147	26209.22
457.352	25351.12
457.558	25301.97
457.764	25039.83
457.97	24873.95
458.176	24464.35
458.381	24292.32
458.587	23221.24
458.793	23131.12
458.999	22150.15
459.204	23804.91
459.41	22834.17
459.616	21396.49
459.821	21441.55
460.027	21310.48
460.233	21083.16
460.438	20016.16
460.644	20126.75
460.85	19158.06
461.055	18973.75
461.261	19053.62
461.466	17470.54
461.672	16784.47
461.878	18449.47
462.083	16968.79
462.289	16548.95
462.494	16536.67
462.7	15805.54
462.905	15117.42
463.111	15690.85
463.316	15905.89
463.522	15549.54
463.727	15658.09
463.932	15576.17
464.138	15424.62
464.343	15185.01
464.549	14797.94
464.754	15344.75
464.959	15328.36
465.165	15387.75
465.37	14259.32
465.575	14511.22
465.781	14740.6
465.986	14754.93
466.191	14304.38
466.397	13882.5
466.602	13247.63
466.807	13767.81
467.012	13913.22
467.218	13876.35
467.423	13773.96
467.628	13495.43
467.833	14398.59
468.038	13601.93
468.244	13386.89
468.449	13868.16
468.654	13397.13
468.859	13409.42
469.064	13309.07
469.269	12887.18
469.474	12881.04
469.679	13053.07
469.885	12692.63
470.09	12721.3
470.295	12799.12
470.5	12586.13
470.705	12506.26
470.91	12479.64
471.115	12311.71
471.32	12479.64
471.525	12438.68
471.73	12201.12
471.935	11949.22
472.139	11611.3
472.344	11576.48
472.549	11740.32
472.754	11549.86
472.959	11185.32
473.164	10943.66
473.369	10841.26
473.574	11295.91
473.778	11353.26
473.983	11203.75
474.188	11064.49
474.393	10648.75
474.598	10570.93
474.802	10415.29
475.007	10327.22
475.212	10511.54
475.417	9954.49
475.621	9833.66
475.826	10038.46
476.031	9921.73
476.235	9544.9
476.44	9817.28
476.645	9780.42
476.849	9981.12
477.054	9479.36
477.259	9499.84
477.463	9383.11
477.668	9110.73
477.872	9362.63
478.077	9141.45
478.282	8871.12
478.486	8828.11
478.691	8965.32
478.895	8938.7
479.1	8692.94
479.304	8789.2
479.509	8240.34
479.713	8451.28
479.918	8490.2
480.122	8385.75
480.326	8365.27
480.531	8326.36
480.735	8400.09
480.94	8361.17
481.144	8447.19
481.348	8113.37
481.553	8305.88
481.757	7933.15
481.961	8322.26
482.166	8393.94
482.37	8187.1
482.574	7929.05
482.778	8099.03
482.983	8248.54
483.187	8064.22
483.391	8217.82
483.595	8125.66
483.8	7965.92
484.004	7902.43
484.208	8187.1
484.412	8174.81
484.616	7984.35
484.821	8201.43
485.025	7933.15
485.229	8193.24
485.433	7875.81
485.637	8088.79
485.841	8010.97
486.045	8084.7
486.249	8088.79
486.453	7924.96
486.657	7990.49
486.861	8092.89
487.065	7910.62
487.269	8150.23
487.473	7902.43
487.677	8074.46
487.881	8033.5
488.085	8064.22
488.289	8170.71
488.493	7785.69
488.697	8205.53
488.901	8117.47
489.105	7982.3
489.309	8041.69
489.512	8269.02
489.716	8058.07
489.92	8303.83
490.124	7820.51
490.328	8334.55
490.531	8150.23
490.735	8213.72
490.939	8244.44
491.143	8273.11
491.346	8049.88
491.55	8418.52
491.754	8314.07
491.958	8420.56
492.161	8420.56
492.365	8406.23
492.569	8406.23
492.772	8342.74
492.976	8623.31
493.18	8582.35
493.383	8703.18
493.587	8809.68
493.79	8809.68
493.994	8858.83
494.197	8828.11
494.401	8893.65
494.605	8817.87
494.808	9127.11
495.012	9112.78
495.215	9100.49
495.419	9188.55
495.622	9194.7
495.825	9127.11
496.029	9217.22
496.232	9462.98
496.436	9430.21
496.639	9589.95
496.843	9770.18
497.046	9499.84
497.249	9884.86
497.453	9927.87
497.656	10124.47
497.859	9977.02
498.063	10255.54
498.266	10329.27
498.469	10476.73
498.673	10382.52
498.876	10525.88
499.079	10757.3
499.282	10699.95
499.485	11152.56
499.689	11091.12
499.892	11343.02
500.095	11232.43
500.298	11289.77
500.501	11496.61
500.705	11441.32
500.908	11787.43
501.111	11900.06
501.314	11981.98
501.517	12074.14
501.72	12127.39
501.923	12291.23
502.126	12487.83
502.329	12846.23
502.532	12741.78
502.735	12885.14
502.938	13022.35
503.141	12977.3
503.344	13282.44
503.547	13513.86
503.75	13491.34
503.953	13671.56
504.156	13927.55
504.359	14232.7
504.562	14083.2
504.765	14292.09
504.968	14474.36
505.17	14623.86
505.373	14769.27
505.576	14963.83
505.779	15029.36
505.982	14982.26
506.185	15508.58
506.387	15406.19
506.59	15766.63
506.793	15860.84
506.996	15838.31
507.198	16395.36
507.401	16000.1
507.604	16444.51
507.807	16735.32
508.009	17083.47
508.212	16921.68
508.415	17185.87
508.617	17132.62
508.82	17507.4
509.022	17433.68
509.225	17880.13
509.428	17929.28
509.63	18000.96
509.833	18197.57
510.035	18560.06
510.238	18334.78
510.44	18998.32
510.643	19110.96
510.845	19201.07
511.048	19172.4
511.25	19420.21
511.453	19495.98
511.655	20368.41
511.858	19934.25
512.06	20192.29
512.262	20489.24
512.465	20352.03
512.667	20702.23
512.87	20978.71
513.072	21064.72
513.274	21406.73
513.477	21601.29
513.679	21634.06
513.881	21873.67
514.084	22342.66
514.286	22137.86
514.488	22400
514.69	22963.19
514.893	22635.52
515.095	22961.14
515.297	23352.31
515.499	23378.93
515.701	23671.79
515.904	23606.25
516.106	24040.42
516.308	24273.89
516.51	24423.39
516.712	24419.3
516.914	24802.27
517.116	25297.88
517.318	25234.39
517.52	25398.23
517.722	25332.69
517.925	26102.73
518.127	26383.3
518.329	26346.44
518.531	26233.8
518.733	26840
518.935	26979.26
519.136	26667.97
519.338	27429.81
519.54	27413.43
519.742	27749.29
519.944	27800.49
520.146	28175.27
520.348	28375.97
520.55	28558.24
520.752	28658.59
520.954	29293.46
521.155	28947.36
521.357	29543.31
521.559	29940.62
521.761	29936.52
521.963	30266.25
522.164	29924.24
522.366	30595.97
522.568	30503.81
522.77	30620.55
522.971	31277.94
523.173	30948.22
523.375	31054.72
523.576	31419.25
523.778	31591.28
523.98	31619.95
524.181	32170.86
524.383	31871.85
524.584	32406.37
524.786	32156.52
524.988	32177
525.189	32568.16
525.391	32973.66
525.592	32734.05
525.794	33088.35
525.995	33188.7
526.197	33106.78
526.398	33618.77
526.6	33768.27
526.801	33491.8
527.003	33833.81
527.204	33975.12
527.406	34231.11
527.607	33950.54
527.808	34558.79
528.01	33690.45
528.211	33993.55
528.412	34831.17
528.614	34616.13
528.815	34587.46
529.016	35345.21
529.218	34761.54
529.419	34966.34
529.62	34886.46
529.822	34865.99
530.023	34919.23
530.224	35201.85
530.425	34853.7
530.626	34880.32
530.828	34683.72
531.029	35916.59
531.23	35144.51
531.431	35308.35
531.632	35523.38
531.833	35715.89
532.035	35760.95
532.236	35676.98
532.437	35814.19
532.638	35392.31
532.839	35607.35
533.04	35681.08
533.241	35371.83
533.442	36326.19
533.643	35912.5
533.844	35636.02
534.045	36029.23
534.246	35676.98
534.447	36313.9
534.648	35945.26
534.849	36105.01
535.05	35304.25
535.251	35625.78
535.451	35650.36
535.652	35795.76
535.853	35851.06
536.054	35902.26
536.255	36092.72
536.456	35703.6
536.657	36420.39
536.857	35869.49
537.058	35930.93
537.259	36031.28
537.46	36295.47
537.66	36016.94
537.861	35883.83
538.062	35619.64
538.263	36152.11
538.463	35818.29
538.664	35898.16
538.865	35978.03
539.065	36199.21
539.266	35361.59
539.466	36358.95
539.667	35527.48
539.868	36062
540.068	35590.97
540.269	35580.73
540.469	36305.71
540.67	35812.15
540.87	35863.35
541.071	36023.09
541.271	36178.73
541.472	35982.13
541.672	35533.62
541.873	35834.67
542.073	35494.71
542.274	36291.37
542.474	35857.2
542.675	35578.68
542.875	35828.53
543.075	36166.45
543.276	35525.43
543.476	35693.36
543.676	35603.25
543.877	35513.14
544.077	35881.78
544.277	35601.21
544.478	35388.22
544.678	35674.93
544.878	35332.92
545.078	36021.04
545.279	35543.86
545.479	35324.73
545.679	36031.28
545.879	35844.91
546.079	35578.68
546.28	35357.5
546.48	35494.71
546.68	35937.07
546.88	35457.85
547.08	35519.29
547.28	35576.63
547.48	35210.04
547.68	35572.53
547.88	35214.14
548.081	35533.62
548.281	35343.16
548.481	35597.11
548.681	35998.51
548.881	35683.12
549.081	35425.08
549.28	35509.05
549.48	35801.91
549.68	35535.67
549.88	36047.66
550.08	35140.41
550.28	35433.27
550.48	35208
550.68	35648.31
550.88	35074.88
551.08	35474.23
551.279	35263.29
551.479	35201.85
551.679	35406.65
551.879	35081.02
552.079	35431.22
552.278	35316.54
552.478	35238.72
552.678	35242.81
552.878	35550.01
553.077	35285.82
553.277	35101.5
553.477	36018.99
553.676	35044.16
553.876	35224.38
554.076	34806.59
554.275	34835.27
554.475	34556.74
554.674	34898.75
554.874	35101.5
555.074	34761.54
555.273	35355.45
555.473	35093.31
555.672	34739.01
555.872	35119.93
556.071	34829.12
556.271	34892.61
556.47	34704.2
556.67	34548.55
556.869	34577.22
557.068	34726.72
557.268	34683.72
557.467	34401.1
557.667	34464.58
557.866	34501.45
558.065	34593.61
558.265	34523.97
558.464	34319.18
558.663	34487.11
558.863	34200.4
559.062	34638.66
559.261	34118.48
559.461	34601.8
559.66	33657.68
559.859	34521.93
560.058	34177.87
560.258	34122.57
560.457	33844.05
560.656	34022.22
560.855	34190.16
561.054	33715.03
561.253	33602.39
561.453	33774.42
561.652	33860.43
561.851	33960.78
562.05	33436.5
562.249	33260.38
562.448	33667.92
562.647	33581.91
562.846	33493.85
563.045	33246.04
563.244	32811.87
563.443	33723.22
563.642	32969.57
563.841	33043.29
564.04	32717.67
564.239	33399.64
564.438	32828.26
564.637	33155.93
564.836	33112.92
565.035	32639.84
565.234	32920.42
565.432	32635.75
565.631	32785.25
565.83	32570.21
566.029	32430.95
566.228	32461.67
566.427	32297.83
566.625	32385.9
566.824	31923.05
567.023	32445.29
567.222	31548.28
567.42	32412.52
567.619	31488.88
567.818	31730.55
568.016	31937.39
568.215	32215.91
568.414	31861.62
568.612	31816.56
568.811	31703.92
569.01	31595.38
569.208	31361.91
569.407	31486.84
569.605	31296.38
569.804	31529.84
570.002	31028.09
570.201	31296.38
570.4	31073.15
570.598	30948.22
570.797	30976.89
570.995	30645.12
571.193	30477.19
571.392	30727.04
571.59	30403.46
571.789	30483.33
571.987	30360.45
572.186	30481.28
572.384	29690.77
572.582	30591.87
572.781	30520.2
572.979	30065.55
573.177	30219.14
573.376	30282.63
573.574	29731.73
573.772	29911.95
573.971	29610.9
574.169	29545.36
574.367	29410.2
574.565	29614.99
574.763	29258.65
574.962	29465.49
575.16	29342.61
575.358	29582.23
575.556	28763.04
575.754	29385.62
575.952	29146.01
576.151	29348.76
576.349	29012.89
576.547	29217.69
576.745	28892.06
576.943	28746.65
577.141	29043.61
577.339	28588.96
577.537	28808.09
577.735	28599.2
577.933	28476.32
578.131	28640.16
578.329	28058.54
578.527	27827.12
578.725	28242.85
578.923	28203.94
579.121	28060.59
579.319	27941.8
579.516	28324.77
579.714	27919.28
579.912	27859.88
580.11	27384.76
580.308	27947.95
580.506	27503.54
580.704	27362.23
580.901	27272.12
581.099	27587.5
581.297	27347.89
581.495	27153.33
581.692	27517.87
581.89	27063.22
582.088	27341.75
582.285	26964.92
582.483	27321.27
582.681	26999.74
582.878	26704.83
583.076	26497.99
583.274	26614.72
583.471	26612.67
583.669	26870.72
583.866	26385.35
584.064	26479.55
584.262	26272.71
584.459	26395.59
584.657	26434.5
584.854	26287.04
585.052	25811.92
585.249	26196.93
585.447	26434.5
585.644	25734.09
585.841	25902.03
586.039	26149.83
586.236	25371.6
586.434	25789.39
586.631	25363.41
586.828	25523.15
587.026	25545.68
587.223	25564.11
587.42	25609.17
587.618	25285.59
587.815	24992.73
588.012	24777.69
588.21	24968.15
588.407	24912.86
588.604	24689.63
588.801	24855.51
588.999	24841.18
589.196	24476.64
589.393	24841.18
589.59	24292.32
589.787	24533.98
589.984	24445.92
590.182	24390.63
590.379	24613.85
590.576	24554.46
590.773	24370.15
590.97	24097.77
591.167	23858.15
591.364	23782.38
591.561	24151.01
591.758	23665.64
591.955	23872.49
592.152	23917.54
592.349	23311.35
592.546	23630.83
592.743	23389.17
592.94	22977.53
593.137	23329.78
593.334	23567.34
593.531	22866.94
593.727	23245.81
593.924	23243.76
594.121	22854.65
594.318	23114.74
594.515	22854.65
594.712	23018.49
594.908	22742.01
595.105	22750.2
595.302	22469.63
595.499	22860.79
595.696	22674.43
595.892	22694.91
596.089	22154.24
596.286	22287.36
596.482	22107.14
596.679	22141.96
596.876	22225.92
597.072	22096.9
597.269	22070.28
597.466	21732.36
597.662	21937.16
597.859	21832.71
598.055	22318.08
598.252	21728.27
598.448	21851.14
598.645	21535.76
598.841	21507.09
599.038	21535.76
599.234	21476.37
599.431	21236.75
599.627	21339.15
599.824	21189.65
600.02	21212.18
600.217	21363.73
600.413	20898.84
600.609	20958.23
600.806	20810.78
601.002	20700.19
601.198	20741.14
601.395	20605.98
601.591	20747.29
601.787	20462.62
601.984	20567.07
602.18	20708.38
602.376	20155.43
602.572	20282.4
602.769	20239.39
602.965	19999.78
603.161	20067.36
603.357	19917.86
603.553	19921.96
603.75	20026.4
603.946	19737.64
604.142	19862.57
604.338	19651.63
604.534	19768.36
604.73	19592.23
604.926	19696.68
605.122	19995.68
605.318	19559.47
605.514	19219.5
605.71	19469.36
605.906	19256.37
606.102	19446.83
606.298	19344.43
606.494	19063.86
606.69	19131.44
606.886	19207.22
607.082	18721.85
607.278	19106.87
607.474	18674.74
607.67	18930.74
607.866	18789.43
608.062	19369.01
608.257	18660.41
608.453	18877.49
608.649	18887.73
608.845	18814.01
609.041	18811.96
609.236	18725.94
609.432	18680.89
609.628	18666.55
609.824	18361.41
610.019	18433.08
610.215	18412.6
610.411	18248.77
610.606	18453.56
610.802	18287.68
610.998	18447.42
611.193	18121.79
611.389	18203.71
611.584	17941.57
611.78	17855.56
611.976	18082.88
612.171	18117.7
612.367	18170.94
612.562	17882.18
612.758	17740.87
612.953	17648.71
613.149	17988.67
613.344	17689.67
613.539	17921.09
613.735	17925.19
613.93	17732.68
614.126	17792.07
614.321	17509.45
614.517	17728.58
614.712	17407.05
614.907	17452.11
615.103	17579.08
615.298	17255.5
615.493	17511.5
615.688	17251.41
615.884	17411.15
616.079	17189.97
616.274	17437.77
616.47	17146.96
616.665	17282.13
616.86	17413.2
617.055	17153.1
617.25	17048.66
617.445	17493.07
617.641	16993.36
617.836	17103.95
618.031	16784.47
618.226	17056.85
618.421	16682.07
618.616	16985.17
618.811	16606.3
619.006	16598.1
619.201	16378.97
619.396	16804.95
619.591	16434.27
619.786	16757.85
619.981	16092.26
620.176	16440.41
620.371	16092.26
620.566	16311.39
620.761	15836.26
620.956	16340.06
621.151	15694.95
621.346	16180.32
621.541	15938.66
621.735	15750.24
621.93	15682.66
622.125	15567.98
622.32	15367.27
622.515	15592.55
622.709	15430.76
622.904	15260.78
623.099	15277.16
623.294	15137.9
623.488	15025.26
623.683	15021.17
623.878	14738.55
624.072	15066.22
624.267	14865.52
624.462	14900.34
624.656	14564.47
624.851	14793.84
625.046	14261.37
625.24	14562.42
625.435	14419.07
625.629	14378.11
625.824	14042.24
626.018	13888.64
626.213	13884.55
626.407	13995.14
626.602	13644.93
626.796	13819.01
626.991	13958.27
627.185	13569.16
627.38	13470.86
627.574	13563.01
627.768	13300.87
627.963	13311.11
628.157	13292.68
628.352	13569.16
628.546	12999.82
628.74	13116.56
628.935	13149.32
629.129	13044.88
629.323	12819.6
629.517	12885.14
629.712	12790.93
629.906	12833.94
630.1	12588.18
630.294	12485.78
630.489	12545.17
630.683	12487.83
630.877	12491.93
631.071	12061.85
631.265	12401.82
631.459	12129.44
631.653	12321.95
631.848	12295.32
632.042	11926.69
632.236	11826.34
632.43	11973.79
632.624	11766.95
632.818	11840.67
633.012	11625.64
633.206	11736.23
633.4	11553.96
633.594	11621.54
633.788	11490.47
633.982	11504.81
634.176	11412.65
634.369	11312.3
634.563	11400.36
634.757	11031.72
634.951	11117.74
635.145	11084.97
635.339	11263.15
635.533	10908.85
635.726	10828.98
635.92	10859.7
636.114	10863.79
636.308	10740.91
636.501	10779.82
636.695	10806.45
636.889	10622.13
637.083	10519.73
637.276	10437.81
637.47	10429.62
637.664	10339.51
637.857	10341.56
638.051	10433.72
638.244	10083.52
638.438	10263.74
638.632	10130.62
638.825	10046.65
639.019	9956.54
639.212	10161.34
639.406	9872.57
639.599	10075.32
639.793	9737.41
639.986	9731.26
640.18	9694.4
640.373	9841.86
640.567	9440.45
640.76	9610.43
640.954	9368.77
641.147	9565.38
641.34	9395.4
641.534	9407.69
641.727	9303.24
641.92	9270.47
642.114	9313.48
642.307	9374.92
642.5	8854.73
642.694	8877.26
642.887	9006.28
643.08	8961.23
643.273	9047.24
643.467	8852.69
643.66	8864.97
643.853	8846.54
644.046	8836.3
644.239	8723.66
644.432	8670.42
644.626	8727.76
644.819	8735.95
645.012	8621.27
645.205	8406.23
645.398	8467.67
645.591	8367.32
645.784	8234.2
645.977	8285.4
646.17	8269.02
646.363	8170.71
646.556	7963.87
646.749	8256.73
646.942	8275.16
647.135	7937.24
647.328	7931.1
647.521	8031.45
647.714	7826.65
647.907	8031.45
648.099	7865.57
648.292	7961.82
648.485	7765.21
648.678	7654.62
648.871	7847.13
649.064	7556.32
649.256	7757.02
649.449	7525.6
649.642	7539.94
649.835	7498.98
650.027	7386.34
650.22	7310.57
650.413	7417.06
650.605	7263.46
650.798	7273.7
650.991	7146.73
651.183	7261.41
651.376	7208.17
651.568	7068.91
651.761	7140.58
651.954	6911.21
652.146	7165.16
652.339	6864.11
652.531	6966.51
652.724	6864.11
652.916	6761.71
653.109	6886.64
653.301	6913.26
653.494	6905.07
653.686	6749.42
653.879	6909.16
654.071	6909.16
654.263	6819.05
654.456	6702.32
654.648	6698.22
654.84	6511.86
655.033	6497.52
655.225	6436.08
655.417	6620.4
655.61	6376.69
655.802	6348.02
655.994	6321.4
656.186	6341.88
656.379	6388.98
656.571	6245.62
656.763	6202.61
656.955	6132.98
657.148	6204.66
657.34	6155.51
657.532	6067.45
657.724	5971.19
657.916	6049.02
658.108	6030.59
658.3	5922.04
658.492	5913.85
658.684	5825.79
658.876	5881.08
659.068	5848.32
659.26	5715.2
659.452	5864.7
659.644	5846.27
659.836	5848.32
660.028	5795.07
660.22	5537.02
660.412	5713.15
660.604	5598.46
660.796	5709.05
660.988	5451.01
661.18	5561.6
661.372	5321.99
661.563	5348.61
661.755	5424.39
661.947	5385.48
662.139	5303.56
662.331	5303.56
662.522	5188.87
662.714	5051.66
662.906	5305.6
663.097	5174.53
663.289	5238.02
663.481	5145.86
663.673	5121.29
663.864	5072.14
664.056	5045.51
664.247	5055.75
664.439	5123.34
664.631	4998.41
664.822	4998.41
665.014	4965.64
665.205	4807.95
665.397	4967.69
665.588	4988.17
665.78	4871.43
665.971	4787.47
666.163	4842.76
666.354	4803.85
666.546	4699.41
666.737	4662.54
666.929	4656.4
667.12	4672.78
667.311	4603.15
667.503	4764.94
667.694	4662.54
667.885	4613.39
668.077	4549.9
668.268	4547.86
668.459	4424.98
668.651	4508.94
668.842	4508.94
669.033	4435.22
669.224	4517.14
669.416	4410.64
669.607	4478.23
669.798	4306.2
669.989	4312.34
670.18	4263.19
670.371	4384.02
670.563	4193.56
670.754	4236.56
670.945	4242.71
671.136	4224.28
671.327	4156.69
671.518	4117.78
671.709	4031.77
671.9	4214.04
672.091	4175.13
672.282	4037.91
672.473	4001.05
672.664	4017.43
672.855	4013.34
673.046	3937.56
673.237	4091.16
673.428	3882.27
673.619	4070.68
673.809	3992.86
674	3921.18
674.191	3804.44
674.382	3908.89
674.573	3912.99
674.764	3763.48
674.954	3798.3
675.145	3683.61
675.336	3833.11
675.527	3728.67
675.717	3831.07
675.908	3683.61
676.099	3616.03
676.289	3650.85
676.48	3605.79
676.671	3484.96
676.861	3702.04
677.052	3601.69
677.243	3581.21
677.433	3650.85
677.624	3558.69
677.814	3618.08
678.005	3460.38
678.195	3521.82
678.386	3464.48
678.576	3577.12
678.767	3468.58
678.957	3380.51
679.148	3515.68
679.338	3331.36
679.529	3448.1
679.719	3433.76
679.909	3552.54
680.1	3482.91
680.29	3405.09
680.481	3394.85
680.671	3276.07
680.861	3323.17
681.052	3206.44
681.242	3308.83
681.432	3470.62
681.622	3300.64
681.813	3163.43
682.003	3284.26
682.193	3190.05
682.383	3179.81
682.573	3190.05
682.764	3202.34
682.954	3306.79
683.144	3157.29
683.334	3126.57
683.524	3147.05
683.714	3136.81
683.904	3067.17
684.094	3091.75
684.284	3194.15
684.474	3214.63
684.664	2985.26
684.854	3044.65
685.044	2993.45
685.234	2999.59
685.424	2878.76
685.614	2968.87
685.804	3028.26
685.994	3089.7
686.184	3003.69
686.374	2911.53
686.564	2970.92
686.753	2929.96
686.943	2956.58
687.133	2796.84
687.323	2866.47
687.513	2823.47
687.702	2864.43
687.892	2899.24
688.082	2823.47
688.272	2786.6
688.461	2958.63
688.651	2692.4
688.841	2757.93
689.03	2759.98
689.22	2712.88
689.41	2737.45
689.599	2682.16
689.789	2659.63
689.979	2688.3
690.168	2620.72
690.358	2682.16
690.547	2626.86
690.737	2561.33
690.926	2770.22
691.116	2686.25
691.305	2665.77
691.495	2559.28
691.684	2487.6
691.874	2540.85
692.063	2583.85
692.252	2604.33
692.442	2561.33
692.631	2653.48
692.82	2479.41
693.01	2610.48
693.199	2438.45
693.388	2526.51
693.578	2475.31
693.767	2448.69
693.956	2456.88
694.146	2460.98
694.335	2420.02
694.524	2458.93
694.713	2503.98
694.902	2432.3
695.092	2362.67
695.281	2342.19
695.47	2522.41
695.659	2299.19
695.848	2207.03
696.037	2370.87
696.226	2405.68
696.415	2362.67
696.604	2290.99
696.793	2348.34
696.982	2284.85
697.171	2420.02
697.36	2340.15
697.549	2182.45
697.738	2315.57
697.927	2299.19
698.116	2393.39
698.305	2288.95
698.494	2252.08
698.683	2260.27
698.872	2297.14
699.061	2270.51
699.25	2223.41
699.438	2362.67
699.627	2315.57
699.816	2317.62
700.005	2200.88
700.193	2188.6
700.382	2256.18
700.571	2149.68
700.76	2192.69
700.948	2227.51
701.137	2239.8
701.326	2317.62
701.514	2368.82
701.703	2239.8
701.892	2164.02
702.08	2295.09
702.269	2313.52
702.457	2200.88
702.646	2100.53
702.834	2164.02
703.023	2168.12
703.212	2239.8
703.4	2215.22
703.589	2166.07
703.777	2215.22
703.965	2026.81
704.154	2200.88
704.342	2092.34
704.531	2125.11
704.719	2063.67
704.907	2174.26
705.096	2182.45
705.284	2143.54
705.472	2143.54
705.661	2110.77
705.849	2145.59
706.037	2096.44
706.226	2149.68
706.414	2192.69
706.602	2151.73
706.79	2243.89
706.979	2151.73
707.167	2118.97
707.355	2266.42
707.543	2118.97
707.731	2151.73
707.919	2231.6
708.107	2104.63
708.296	2211.12
708.484	2129.2
708.672	2108.73
708.86	2104.63
709.048	2166.07
709.236	2135.35
709.424	2092.34
709.612	2143.54
709.8	2035
709.988	2153.78
710.176	2086.2
710.364	2151.73
710.551	2055.48
710.739	2192.69
710.927	2329.91
711.115	2176.31
711.303	2235.7
711.491	2198.84
711.679	2073.91
711.866	2094.39
712.054	2213.17
712.242	2213.17
712.43	2096.44
712.617	2147.64
712.805	2174.26
712.993	2100.53
713.181	2123.06
713.368	2186.55
713.556	2227.51
713.744	2133.3
713.931	2235.7
714.119	2110.77
714.306	2153.78
714.494	2121.01
714.682	2088.25
714.869	2008.37
715.057	2182.45
715.244	2161.97
715.432	2112.82
715.619	2008.37
715.807	2086.2
715.994	2047.29
716.182	2028.85
716.369	2200.88
716.556	2190.64
716.744	2184.5
716.931	2078.01
717.119	2135.35
717.306	2155.83
717.493	2080.05
717.681	2137.4
717.868	2106.68
718.055	2186.55
718.242	2032.95
718.43	2092.34
718.617	2125.11
718.804	2104.63
718.991	2024.76
719.179	2125.11
719.366	2129.2
719.553	2078.01
719.74	2139.44
719.927	2215.22
720.114	2086.2
720.301	2141.49
720.488	2057.53
720.676	2157.88
720.863	2125.11
721.05	2092.34
721.237	2057.53
721.424	2112.82
721.611	2080.05
721.798	2102.58
721.985	2037.05
722.172	2131.25
722.358	2037.05
722.545	2155.83
722.732	2045.24
722.919	2084.15
723.106	2110.77
723.293	2106.68
723.48	2088.25
723.667	2080.05
723.853	2053.43
724.04	2180.4
724.227	2198.84
724.414	2092.34
724.6	2055.48
724.787	2112.82
724.974	2141.49
725.161	2155.83
725.347	2082.1
725.534	2112.82
725.72	2168.12
725.907	2061.62
726.094	2157.88
726.28	2092.34
726.467	2061.62
726.653	2026.81
726.84	2080.05
727.027	2108.73
727.213	2129.2
727.4	2141.49
727.586	2037.05
727.773	2051.38
727.959	2139.44
728.145	2004.28
728.332	2131.25
728.518	2067.77
728.705	2164.02
728.891	2118.97
729.077	2024.76
729.264	2032.95
729.45	1981.75
729.636	2051.38
729.823	2073.91
730.009	2028.85
730.195	2028.85
730.382	2061.62
730.568	2002.23
730.754	2018.61
730.94	2004.28
731.126	2082.1
731.313	2022.71
731.499	2061.62
731.685	2106.68
731.871	2174.26
732.057	2100.53
732.243	2035
732.429	2063.67
732.615	2049.33
732.801	2059.57
732.987	1994.04
733.173	2102.58
733.359	2112.82
733.545	2075.96
733.731	2043.19
733.917	1983.8
734.103	2127.16
734.289	2026.81
734.475	2065.72
734.661	2082.1
734.847	2010.42
735.033	2053.43
735.219	2018.61
735.404	2110.77
735.59	2039.09
735.776	1922.36
735.962	1955.13
736.148	2065.72
736.333	1991.99
736.519	2049.33
736.705	2035
736.89	2067.77
737.076	2053.43
737.262	2055.48
737.447	1981.75
737.633	2006.33
737.819	1924.41
738.004	2037.05
738.19	2008.37
738.375	2006.33
738.561	1914.17
738.747	1920.31
738.932	1914.17
739.118	1895.74
739.303	1940.79
739.489	1963.32
739.674	1856.83
739.859	1889.59
740.045	1912.12
740.23	1862.97
740.416	1946.94
740.601	1928.5
740.786	1889.59
740.972	1889.59
741.157	1981.75
741.342	1903.93
741.528	1893.69
741.713	1838.39
741.898	1948.98
742.084	1830.2
742.269	1875.26
742.454	1928.5
742.639	1883.45
742.824	1879.35
743.01	1850.68
743.195	1826.11
743.38	1822.01
743.565	1830.2
743.75	1840.44
743.935	1840.44
744.12	1822.01
744.305	1766.71
744.49	1711.42
744.675	1783.1
744.86	1709.37
745.045	1723.71
745.23	1678.65
745.415	1768.76
745.6	1871.16
745.785	1764.67
745.97	1772.86
746.155	1707.32
746.34	1797.43
746.525	1672.51
746.71	1635.64
746.895	1656.12
747.079	1637.69
747.264	1707.32
747.449	1699.13
747.634	1641.79
747.819	1602.88
748.003	1658.17
748.188	1631.55
748.373	1551.68
748.557	1596.73
748.742	1502.53
748.927	1537.34
749.111	1572.16
749.296	1510.72
749.481	1586.49
749.665	1580.35
749.85	1543.49
750.034	1514.81
750.219	1529.15
750.404	1559.87
750.588	1508.67
750.773	1471.81
750.957	1527.1
751.141	1455.42
751.326	1463.62
751.51	1430.85
751.695	1428.8
751.879	1494.33
752.064	1535.29
752.248	1402.18
752.432	1365.31
752.617	1453.38
752.801	1432.9
752.985	1410.37
753.17	1443.14
753.354	1389.89
753.538	1404.22
753.722	1305.92
753.907	1346.88
754.091	1357.12
754.275	1383.74
754.459	1299.78
754.643	1350.98
754.828	1297.73
755.012	1299.78
755.196	1248.58
755.38	1316.16
755.564	1240.39
755.748	1224
755.932	1230.15
756.116	1201.47
756.3	1219.91
756.484	1246.53
756.668	1131.84
756.852	1129.8
757.036	1164.61
757.22	1162.56
757.404	1185.09
757.588	1232.19
757.772	1178.95
757.956	1224
758.14	1185.09
758.323	1125.7
758.507	1178.95
758.691	1125.7
758.875	1164.61
759.059	1148.23
759.242	1119.56
759.426	1105.22
759.61	1127.75
759.794	1117.51
759.977	1084.74
760.161	1140.04
760.345	1051.97
760.528	1064.26
760.712	1117.51
760.895	1049.93
761.079	1002.82
761.263	1021.25
761.446	1021.25
761.63	1066.31
761.813	1027.4
761.997	978.25
762.18	986.44
762.364	1111.36
762.547	873.8
762.731	1011.01
762.914	1049.93
763.098	992.58
763.281	978.25
763.464	1029.45
763.648	1064.26
763.831	968.01
764.015	1017.16
764.198	961.86
764.381	961.86
764.564	912.71
764.748	949.57
764.931	935.24
765.114	957.77
765.297	974.15
765.481	922.95
765.664	847.18
765.847	879.94
766.03	953.67
766.213	925
766.397	1008.97
766.58	927.05
766.763	914.76
766.946	904.52
767.129	927.05
767.312	838.98
767.495	884.04
767.678	853.32
767.861	963.91
768.044	849.22
768.227	869.7
768.41	884.04
768.593	904.52
768.776	937.29
768.959	863.56
769.142	943.43
769.324	830.79
769.507	824.65
769.69	898.38
769.873	812.36
770.056	992.58
770.239	853.32
770.421	789.83
770.604	798.03
770.787	886.09
770.97	855.37
771.152	800.07
771.335	871.75
771.518	818.5
771.7	820.55
771.883	851.27
772.066	757.07
772.248	884.04
772.431	814.41
772.613	826.7
772.796	806.22
772.978	841.03
773.161	824.65
773.343	759.11
773.526	695.63
773.708	716.11
773.891	714.06
774.073	726.35
774.256	777.55
774.438	808.27
774.621	709.96
774.803	695.63
774.985	701.77
775.168	687.43
775.35	750.92
775.532	752.97
775.715	789.83
775.897	736.59
776.079	765.26
776.261	718.15
776.444	720.2
776.626	759.11
776.808	705.87
776.99	664.91
777.173	683.34
777.355	626
777.537	697.67
777.719	650.57
777.901	619.85
778.083	634.19
778.265	611.66
778.447	664.91
778.629	609.61
778.811	607.56
778.993	619.85
779.175	607.56
779.357	636.24
779.539	492.88
779.721	589.13
779.903	578.89
780.085	675.15
780.267	570.7
780.449	533.84
780.631	556.36
780.812	615.76
780.994	603.47
781.176	542.03
781.358	666.96
781.54	550.22
781.721	595.28
781.903	638.28
782.085	503.12
782.267	566.6
782.448	453.97
782.63	564.56
782.812	574.8
782.993	623.95
783.175	677.2
783.357	474.45
783.538	462.16
783.72	507.21
783.901	546.12
784.083	480.59
784.264	462.16
784.446	460.11
784.627	453.97
784.809	539.98
784.99	492.88
785.172	513.36
785.353	445.77
785.535	507.21
785.716	492.88
785.897	503.12
786.079	462.16
786.26	421.2
786.441	492.88
786.623	380.24
786.804	363.86
786.985	376.14
787.167	496.97
787.348	456.01
787.529	423.25
787.71	478.54
787.891	447.82
788.073	449.87
788.254	400.72
788.435	410.96
788.616	425.29
788.797	404.82
788.978	372.05
789.159	359.76
789.34	372.05
789.522	355.66
789.703	406.86
789.884	404.82
790.065	382.29
790.246	382.29
790.427	349.52
790.607	453.97
790.788	413.01
790.969	296.27
791.15	357.71
791.331	359.76
791.512	349.52
791.693	376.14
791.874	374.1
792.054	341.33
792.235	402.77
792.416	374.1
792.597	370
792.778	343.38
792.958	351.57
793.139	406.86
793.32	339.28
793.5	376.14
793.681	370
793.862	269.65
794.042	363.86
794.223	245.07
794.404	290.13
794.584	302.42
794.765	226.64
794.945	273.75
795.126	351.57
795.306	255.31
795.487	255.31
795.667	298.32
795.848	251.22
796.028	255.31
796.209	283.99
796.389	292.18
796.57	259.41
796.75	286.03
796.93	273.75
797.111	306.51
797.291	308.56
797.471	296.27
797.652	273.75
797.832	265.55
798.012	290.13
798.192	283.99
798.373	281.94
798.553	259.41
798.733	283.99
798.913	226.64
799.093	292.18
799.274	245.07
799.454	261.46
799.634	275.79
799.814	335.18
799.994	257.36
800.174	269.65
800.354	230.74
800.534	273.75
800.714	200.02
800.894	308.56
801.074	193.87
801.254	273.75
801.434	226.64
801.614	314.7
801.794	220.5
801.974	748.87
802.154	177.49
802.334	228.69
802.514	200.02
802.693	208.21
802.873	230.74
803.053	290.13
803.233	232.79
803.413	290.13
803.592	200.02
803.772	228.69
803.952	230.74
804.131	128.34
804.311	212.31
804.491	232.79
804.67	216.4
804.85	228.69
805.03	277.84
805.209	273.75
805.389	222.55
805.568	105.81
805.748	175.44
805.928	195.92
806.107	197.97
806.287	200.02
806.466	206.16
806.646	220.5
806.825	197.97
807.004	200.02
807.184	179.54
807.363	142.68
807.543	220.5
807.722	171.35
807.901	220.5
808.081	249.17
808.26	200.02
808.439	175.44
808.619	259.41
808.798	197.97
808.977	136.53
809.156	216.4
809.336	157.01
809.515	234.83
809.694	150.87
809.873	167.25
810.052	224.59
810.231	152.92
810.411	154.96
810.59	197.97
810.769	212.31
810.948	126.29
811.127	175.44
811.306	197.97
811.485	134.48
811.664	175.44
811.843	210.26
812.022	144.72
812.201	187.73
812.38	118.1
812.559	150.87
812.737	183.63
812.916	107.86
813.095	111.96
813.274	150.87
813.453	161.11
813.632	111.96
813.811	146.77
813.989	105.81
814.168	21.85
814.347	179.54
814.526	138.58
814.704	148.82
814.883	138.58
815.062	126.29
815.24	136.53
815.419	126.29
815.598	165.2
815.776	126.29
815.955	154.96
816.133	60.76
816.312	62.8
816.49	79.19
816.669	163.15
816.847	181.59
817.026	116.05
817.204	167.25
817.383	157.01
817.561	142.68
817.74	163.15
817.918	150.87
818.097	120.15
818.275	118.1
818.453	97.62
818.632	134.48
818.81	167.25
818.988	173.39
819.167	118.1
819.345	95.57
819.523	118.1
819.701	146.77
819.879	146.77
820.058	77.14
820.236	105.81
820.414	163.15
820.592	107.86
820.77	71
820.948	68.95
821.127	118.1
821.305	114
821.483	81.24
821.661	148.82
821.839	185.68
822.017	144.72
822.195	134.48
822.373	132.44
822.551	103.76
822.729	116.05
822.907	97.62
823.085	124.24
823.262	89.43
823.44	136.53
823.618	114
823.796	144.72
823.974	128.34
824.152	83.28
824.329	-21.16
824.507	111.96
824.685	46.42
824.863	71
825.04	56.66
825.218	128.34
825.396	109.91
825.574	97.62
825.751	114
825.929	142.68
826.107	44.37
826.284	142.68
826.462	81.24
826.639	103.76
826.817	38.23
826.994	103.76
827.172	48.47
827.349	175.44
827.527	64.85
827.704	27.99
827.882	118.1
828.059	118.1
828.237	163.15
828.414	87.38
828.591	60.76
828.769	93.52
828.946	54.61
829.124	118.1
829.301	116.05
829.478	40.28
829.655	165.2
829.833	124.24
830.01	77.14
830.187	173.39
830.364	95.57
830.542	146.77
830.719	87.38
830.896	73.04
831.073	89.43
831.25	44.37
831.427	132.44
831.604	142.68
831.782	17.75
831.959	116.05
832.136	132.44
832.313	81.24
832.49	77.14
832.667	30.04
832.844	83.28
833.021	107.86
833.198	95.57
833.374	109.91
833.551	68.95
833.728	105.81
833.905	107.86
834.082	71
834.259	42.32
834.436	116.05
834.612	71
834.789	50.52
834.966	93.52
835.143	114
835.319	64.85
835.496	13.65
835.673	95.57
835.85	99.67
836.026	122.2
836.203	118.1
836.38	-0.68
836.556	46.42
836.733	11.61
836.909	150.87
837.086	71
837.262	54.61
837.439	32.08
837.616	38.23
837.792	27.99
837.968	58.71
838.145	87.38
838.321	-17.07
838.498	116.05
838.674	81.24
838.851	30.04
839.027	44.37
839.203	105.81
839.38	85.33
839.556	30.04
839.732	60.76
839.909	83.28
840.085	75.09
840.261	52.56
840.437	116.05
840.614	40.28
840.79	128.34
840.966	62.8
841.142	77.14
841.318	23.89
841.494	154.96
841.671	36.18
841.847	48.47
842.023	7.51
842.199	38.23
842.375	95.57
842.551	21.85
842.727	50.52
842.903	83.28
843.079	103.76
843.255	114
843.431	21.85
843.607	60.76
843.783	71
843.959	15.7
844.134	73.04
844.31	79.19
844.486	15.7
844.662	52.56
844.838	-41.64
845.013	85.33
845.189	3.41
845.365	-41.64
845.541	77.14
845.716	75.09
845.892	1.37
846.068	7.51
846.244	46.42
846.419	101.72
846.595	-29.35
846.77	-8.87
846.946	87.38
847.122	-27.31
847.297	46.42
847.473	40.28
847.648	13.65
847.824	-0.68
847.999	48.47
848.175	11.61
848.35	27.99
848.526	118.1
848.701	13.65
848.876	32.08
849.052	93.52
849.227	89.43
849.403	11.61
849.578	44.37
849.753	42.32
849.929	38.23
850.104	97.62
850.279	5.46
850.454	60.76
850.63	32.08
850.805	19.8
850.98	34.13
851.155	27.99
851.33	30.04
851.505	32.08
851.681	152.92
851.856	68.95
852.031	60.76
852.206	25.94
852.381	-19.11
852.556	97.62
852.731	79.19
852.906	101.72
853.081	-0.68
853.256	73.04
853.431	23.89
853.606	32.08
853.781	99.67
853.956	-31.4
854.131	34.13
854.305	-47.79
854.48	9.56
854.655	-8.87
854.83	32.08
855.005	11.61
855.18	97.62
855.354	46.42
855.529	30.04
855.704	38.23
855.879	79.19
856.053	56.66
856.228	32.08
856.403	-39.59
856.577	9.56
856.752	17.75
856.926	50.52
857.101	111.96
857.276	48.47
857.45	68.95
857.625	44.37
857.799	-12.97
857.974	7.51
858.148	-23.21
858.323	54.61
858.497	85.33
858.672	25.94
858.846	27.99
859.02	68.95
859.195	-27.31
859.369	-29.35
859.543	60.76
859.718	27.99
859.892	36.18
860.066	-45.74
860.241	54.61
860.415	3.41
860.589	52.56
860.763	-2.73
860.938	-2.73
861.112	52.56
861.286	25.94
861.46	85.33
861.634	-12.97
861.808	128.34
861.982	-66.22
862.157	-10.92
862.331	44.37
862.505	-27.31
862.679	5.46
862.853	-45.74
863.027	-2.73
863.201	27.99
863.375	25.94
863.549	21.85
863.722	68.95
863.896	-10.92
864.07	23.89
864.244	56.66
864.418	-41.64
864.592	1.37
864.766	79.19
864.939	36.18
865.113	-74.41
865.287	46.42
865.461	-0.68
865.634	48.47
865.808	-17.07
865.982	32.08
866.156	68.95
866.329	-29.35
866.503	44.37
866.676	34.13
866.85	11.61
867.024	-6.83
867.197	-2.73
867.371	36.18
867.544	-10.92
867.718	23.89
867.891	101.72
868.065	-55.98
868.238	-6.83
868.412	52.56
868.585	95.57
868.759	27.99
868.932	-58.03
869.105	-43.69
869.279	38.23
869.452	38.23
869.625	30.04
869.799	54.61
869.972	23.89
870.145	5.46
870.319	13.65
870.492	-41.64
870.665	-43.69
870.838	-19.11
871.011	-76.46
871.185	11.61
871.358	-107.18
871.531	3.41
871.704	38.23
871.877	75.09
872.05	-15.02
872.223	-12.97
872.396	-0.68
872.569	9.56
872.742	23.89
872.915	-27.31
873.088	-29.35
873.261	36.18
873.434	-4.78
873.607	-62.12
873.78	36.18
873.953	32.08
874.126	36.18
874.299	25.94
874.471	-45.74
874.644	-37.55
874.817	46.42
874.99	-6.83
875.163	-72.36
875.335	95.57
875.508	-35.5
875.681	54.61
875.853	23.89
876.026	62.8
876.199	3.41
876.371	46.42
876.544	-17.07
876.717	36.18
876.889	3.41
877.062	19.8
877.234	-33.45
877.407	-37.55
877.579	17.75
877.752	-35.5
877.924	40.28
878.097	17.75
878.269	-12.97
878.442	19.8
878.614	-90.79
878.786	107.86
878.959	-55.98
879.131	-2.73
879.303	-12.97
879.476	-25.26
879.648	-12.97
879.82	-25.26
879.993	-25.26
880.165	25.94
880.337	-21.16
880.509	-53.93
880.681	15.7
880.854	-12.97
881.026	111.96
881.198	52.56
881.37	-4.78
881.542	25.94
881.714	-8.87
881.886	-8.87
882.058	-25.26
882.23	-0.68
882.402	89.43
882.574	5.46
882.746	75.09
882.918	-37.55
883.09	-31.4
883.262	13.65
883.434	101.72
883.606	36.18
883.778	23.89
883.95	5.46
884.122	-70.31
884.293	7.51
884.465	-60.07
884.637	-8.87
884.809	-8.87
884.98	13.65
885.152	44.37
885.324	15.7
885.496	3.41
885.667	30.04
885.839	-43.69
886.011	23.89
886.182	79.19
886.354	46.42
886.525	-45.74
886.697	-2.73
886.869	-41.64
887.04	48.47
887.212	15.7
887.383	19.8
887.555	-123.56
887.726	11.61
887.897	-15.02
888.069	-21.16
888.24	-23.21
888.412	48.47
888.583	-25.26
888.754	11.61
888.926	1.37
889.097	-0.68
889.268	-19.11
889.44	-4.78
889.611	7.51
889.782	17.75
889.953	-70.31
890.125	42.32
890.296	13.65
890.467	9.56
890.638	3.41
890.809	11.61
890.98	-2.73
891.151	-4.78
891.323	-23.21
891.494	-0.68
891.665	-19.11
891.836	-21.16
892.007	-4.78
892.178	19.8
892.349	-12.97
892.52	-45.74
892.691	19.8
892.862	3.41
893.032	-8.87
893.203	-23.21
893.374	-25.26
893.545	-25.26
893.716	-4.78
893.887	-8.87
894.057	75.09
894.228	38.23
894.399	-92.84
894.57	23.89
894.74	3.41
894.911	15.7
895.082	-29.35
895.253	-23.21
895.423	-12.97
895.594	17.75
895.764	15.7
895.935	-19.11
896.106	-17.07
896.276	-10.92
896.447	17.75
896.617	-17.07
896.788	25.94
896.958	-60.07
897.129	5.46
897.299	-15.02
897.47	-64.17
897.64	13.65
897.81	40.28
897.981	54.61
898.151	-27.31
898.322	23.89
898.492	-37.55
898.662	-12.97
898.832	19.8
899.003	85.33
899.173	-10.92
899.343	-47.79
899.513	9.56
