Data from USB4F104151__95__13-14-05-442.txt Node

Date: Fri Mar 14 13:14:05 EDT 2025
User: louis
Spectrometer: USB4F10415
Trigger mode: 4
Integration Time (sec): 2.000000E-2
Scans to average: 1
Electric dark correction enabled: true
Nonlinearity correction enabled: false
Boxcar width: 0
XAxis mode: Wavelengths
Number of Pixels in Spectrum: 3648
>>>>>Begin Spectral Data<<<<<
178.204	-105.98
178.424	-105.98
178.644	-105.98
178.864	-116.22
179.084	-101.89
179.304	-15.87
179.524	41.47
179.744	16.9
179.964	111.1
180.184	-15.87
180.404	-42.5
180.624	-22.02
180.844	-40.45
181.064	-3.58
181.283	-9.73
181.503	-112.13
181.723	92.67
181.943	8.7
182.163	90.62
182.383	27.14
182.602	39.42
182.822	14.85
183.042	102.91
183.262	8.7
183.482	-13.82
183.701	-38.4
183.921	10.75
184.141	-69.12
184.361	2.56
184.58	4.61
184.8	0.51
185.02	-38.4
185.239	45.57
185.459	53.76
185.679	-13.82
185.898	-67.07
186.118	31.23
186.338	-3.58
186.557	-5.63
186.777	35.33
186.997	-32.26
187.216	16.9
187.436	88.57
187.655	70.14
187.875	94.72
188.095	-5.63
188.314	14.85
188.534	18.94
188.753	-79.36
188.973	-5.63
189.192	31.23
189.412	-17.92
189.631	-11.78
189.851	-62.98
190.07	43.52
190.29	39.42
190.509	-13.82
190.729	-15.87
190.948	123.39
191.168	61.95
191.387	137.73
191.607	39.42
191.826	8.7
192.045	-5.63
192.265	0.51
192.484	8.7
192.704	29.18
192.923	-75.26
193.142	45.57
193.362	82.43
193.581	10.75
193.8	59.9
194.02	66.05
194.239	-17.92
194.458	59.9
194.678	78.33
194.897	-9.73
195.116	49.66
195.335	-5.63
195.555	27.14
195.774	16.9
195.993	-3.58
196.212	27.14
196.432	37.38
196.651	-1.54
196.87	45.57
197.089	74.24
197.308	53.76
197.528	47.62
197.747	2.56
197.966	12.8
198.185	-15.87
198.404	-15.87
198.623	74.24
198.842	41.47
199.062	-1.54
199.281	25.09
199.5	0.51
199.719	-11.78
199.938	39.42
200.157	51.71
200.376	53.76
200.595	4.61
200.814	2.56
201.033	-17.92
201.252	53.76
201.471	0.51
201.69	55.81
201.909	45.57
202.128	27.14
202.347	18.94
202.566	25.09
202.785	96.77
203.004	23.04
203.223	68.09
203.442	82.43
203.661	-7.68
203.879	8.7
204.098	35.33
204.317	14.85
204.536	139.77
204.755	-26.11
204.974	98.81
205.193	41.47
205.411	102.91
205.63	53.76
205.849	57.86
206.068	27.14
206.287	-5.63
206.505	80.38
206.724	33.28
206.943	-17.92
207.162	25.09
207.381	-38.4
207.599	16.9
207.818	4.61
208.037	10.75
208.255	-15.87
208.474	37.38
208.693	20.99
208.911	68.09
209.13	57.86
209.349	-7.68
209.567	18.94
209.786	86.53
210.005	-28.16
210.223	18.94
210.442	33.28
210.661	10.75
210.879	23.04
211.098	-34.3
211.316	18.94
211.535	39.42
211.753	31.23
211.972	35.33
212.191	18.94
212.409	41.47
212.628	25.09
212.846	0.51
213.065	70.14
213.283	51.71
213.502	59.9
213.72	-22.02
213.938	53.76
214.157	51.71
214.375	18.94
214.594	49.66
214.812	31.23
215.031	41.47
215.249	33.28
215.467	-11.78
215.686	16.9
215.904	43.52
216.122	-44.54
216.341	102.91
216.559	-46.59
216.778	16.9
216.996	29.18
217.214	8.7
217.432	-34.3
217.651	-30.21
217.869	39.42
218.087	6.66
218.306	-34.3
218.524	84.48
218.742	-56.83
218.96	57.86
219.179	74.24
219.397	-62.98
219.615	113.15
219.833	41.47
220.051	16.9
220.27	78.33
220.488	55.81
220.706	4.61
220.924	27.14
221.142	41.47
221.36	-7.68
221.578	35.33
221.796	43.52
222.015	45.57
222.233	8.7
222.451	88.57
222.669	35.33
222.887	100.86
223.105	57.86
223.323	33.28
223.541	-3.58
223.759	-24.06
223.977	57.86
224.195	10.75
224.413	18.94
224.631	0.51
224.849	6.66
225.067	51.71
225.285	68.09
225.503	-9.73
225.721	25.09
225.939	57.86
226.157	14.85
226.375	49.66
226.592	12.8
226.81	2.56
227.028	33.28
227.246	166.4
227.464	33.28
227.682	74.24
227.9	41.47
228.117	-13.82
228.335	68.09
228.553	61.95
228.771	111.1
228.989	68.09
229.206	70.14
229.424	74.24
229.642	-83.45
229.86	16.9
230.077	16.9
230.295	6.66
230.513	-1.54
230.731	61.95
230.948	-11.78
231.166	-48.64
231.384	-15.87
231.601	74.24
231.819	-50.69
232.037	-7.68
232.254	29.18
232.472	0.51
232.689	-46.59
232.907	35.33
233.125	23.04
233.342	37.38
233.56	18.94
233.777	43.52
233.995	2.56
234.213	18.94
234.43	12.8
234.648	37.38
234.865	0.51
235.083	4.61
235.3	-32.26
235.518	43.52
235.735	78.33
235.953	-9.73
236.17	-50.69
236.388	-3.58
236.605	41.47
236.822	78.33
237.04	10.75
237.257	33.28
237.475	10.75
237.692	8.7
237.909	31.23
238.127	-15.87
238.344	61.95
238.562	37.38
238.779	-1.54
238.996	-26.11
239.214	66.05
239.431	29.18
239.648	12.8
239.865	-56.83
240.083	25.09
240.3	14.85
240.517	68.09
240.735	70.14
240.952	64
241.169	-11.78
241.386	2.56
241.603	-15.87
241.821	27.14
242.038	37.38
242.255	16.9
242.472	76.29
242.689	10.75
242.907	33.28
243.124	55.81
243.341	33.28
243.558	-11.78
243.775	6.66
243.992	51.71
244.209	-22.02
244.426	41.47
244.643	43.52
244.86	-3.58
245.078	64
245.295	70.14
245.512	-19.97
245.729	18.94
245.946	10.75
246.163	37.38
246.38	16.9
246.597	53.76
246.814	2.56
247.031	33.28
247.248	16.9
247.464	33.28
247.681	37.38
247.898	16.9
248.115	20.99
248.332	59.9
248.549	68.09
248.766	61.95
248.983	4.61
249.2	51.71
249.417	74.24
249.633	-9.73
249.85	-79.36
250.067	59.9
250.284	90.62
250.501	12.8
250.717	90.62
250.934	41.47
251.151	12.8
251.368	0.51
251.585	100.86
251.801	25.09
252.018	-13.82
252.235	70.14
252.451	23.04
252.668	35.33
252.885	37.38
253.102	49.66
253.318	8.7
253.535	-79.36
253.752	-22.02
253.968	27.14
254.185	27.14
254.401	109.05
254.618	27.14
254.835	12.8
255.051	74.24
255.268	49.66
255.484	-24.06
255.701	-9.73
255.917	47.62
256.134	2.56
256.351	43.52
256.567	72.19
256.784	10.75
257	8.7
257.217	18.94
257.433	23.04
257.65	88.57
257.866	2.56
258.082	51.71
258.299	10.75
258.515	-5.63
258.732	68.09
258.948	18.94
259.165	-56.83
259.381	-30.21
259.597	-17.92
259.814	61.95
260.03	35.33
260.246	-15.87
260.463	57.86
260.679	-32.26
260.895	-17.92
261.112	14.85
261.328	-30.21
261.544	-28.16
261.761	29.18
261.977	-3.58
262.193	53.76
262.409	6.66
262.626	18.94
262.842	68.09
263.058	49.66
263.274	41.47
263.49	72.19
263.707	-32.26
263.923	25.09
264.139	10.75
264.355	6.66
264.571	35.33
264.787	-3.58
265.004	-11.78
265.22	49.66
265.436	-44.54
265.652	-93.69
265.868	78.33
266.084	29.18
266.3	-19.97
266.516	90.62
266.732	-3.58
266.948	-32.26
267.164	33.28
267.38	78.33
267.596	35.33
267.812	43.52
268.028	-15.87
268.244	39.42
268.46	-17.92
268.676	-24.06
268.892	72.19
269.108	-3.58
269.324	-19.97
269.54	33.28
269.756	68.09
269.972	-34.3
270.188	80.38
270.403	84.48
270.619	2.56
270.835	14.85
271.051	23.04
271.267	37.38
271.483	-1.54
271.698	84.48
271.914	-7.68
272.13	98.81
272.346	-38.4
272.562	31.23
272.777	70.14
272.993	31.23
273.209	-89.6
273.425	27.14
273.64	64
273.856	8.7
274.072	2.56
274.287	53.76
274.503	37.38
274.719	61.95
274.934	25.09
275.15	-56.83
275.366	25.09
275.581	-65.02
275.797	20.99
276.012	76.29
276.228	2.56
276.444	39.42
276.659	49.66
276.875	0.51
277.09	-13.82
277.306	-19.97
277.521	25.09
277.737	25.09
277.952	76.29
278.168	-1.54
278.383	-26.11
278.599	59.9
278.814	18.94
279.03	49.66
279.245	37.38
279.461	45.57
279.676	68.09
279.892	2.56
280.107	-24.06
280.322	47.62
280.538	29.18
280.753	-32.26
280.969	27.14
281.184	-52.74
281.399	78.33
281.615	18.94
281.83	61.95
282.045	2.56
282.26	-7.68
282.476	29.18
282.691	53.76
282.906	2.56
283.122	61.95
283.337	-32.26
283.552	-3.58
283.767	39.42
283.983	25.09
284.198	-15.87
284.413	8.7
284.628	-28.16
284.843	115.2
285.058	51.71
285.274	59.9
285.489	18.94
285.704	96.77
285.919	27.14
286.134	57.86
286.349	16.9
286.564	43.52
286.779	-24.06
286.995	-24.06
287.21	10.75
287.425	2.56
287.64	-22.02
287.855	25.09
288.07	-83.45
288.285	-34.3
288.5	-73.21
288.715	-32.26
288.93	78.33
289.145	35.33
289.36	55.81
289.575	-46.59
289.79	10.75
290.004	2.56
290.219	70.14
290.434	12.8
290.649	18.94
290.864	29.18
291.079	12.8
291.294	-34.3
291.509	23.04
291.724	8.7
291.938	-24.06
292.153	27.14
292.368	25.09
292.583	61.95
292.798	14.85
293.012	14.85
293.227	33.28
293.442	10.75
293.657	51.71
293.871	33.28
294.086	-15.87
294.301	90.62
294.516	6.66
294.73	82.43
294.945	25.09
295.16	-44.54
295.374	68.09
295.589	57.86
295.804	16.9
296.018	-24.06
296.233	53.76
296.447	18.94
296.662	20.99
296.877	76.29
297.091	57.86
297.306	31.23
297.52	20.99
297.735	35.33
297.949	-24.06
298.164	70.14
298.378	-7.68
298.593	29.18
298.807	4.61
299.022	0.51
299.236	59.9
299.451	-36.35
299.665	29.18
299.88	41.47
300.094	59.9
300.309	2.56
300.523	74.24
300.737	107.01
300.952	6.66
301.166	96.77
301.381	53.76
301.595	31.23
301.809	-46.59
302.024	41.47
302.238	-40.45
302.452	16.9
302.667	8.7
302.881	72.19
303.095	64
303.309	27.14
303.524	-3.58
303.738	37.38
303.952	35.33
304.166	47.62
304.381	57.86
304.595	53.76
304.809	31.23
305.023	43.52
305.237	12.8
305.452	27.14
305.666	78.33
305.88	8.7
306.094	-5.63
306.308	70.14
306.522	96.77
306.736	43.52
306.95	51.71
307.164	-22.02
307.379	-9.73
307.593	33.28
307.807	49.66
308.021	25.09
308.235	57.86
308.449	-36.35
308.663	25.09
308.877	57.86
309.091	53.76
309.305	70.14
309.519	-7.68
309.733	2.56
309.947	39.42
310.161	84.48
310.374	-34.3
310.588	45.57
310.802	-17.92
311.016	-58.88
311.23	57.86
311.444	8.7
311.658	8.7
311.872	20.99
312.085	49.66
312.299	45.57
312.513	59.9
312.727	37.38
312.941	8.7
313.154	78.33
313.368	49.66
313.582	-9.73
313.796	57.86
314.009	18.94
314.223	-26.11
314.437	0.51
314.651	33.28
314.864	-22.02
315.078	29.18
315.292	35.33
315.505	-15.87
315.719	39.42
315.933	45.57
316.146	-36.35
316.36	39.42
316.573	74.24
316.787	33.28
317.001	53.76
317.214	35.33
317.428	25.09
317.641	-11.78
317.855	20.99
318.068	33.28
318.282	23.04
318.495	4.61
318.709	-36.35
318.922	-9.73
319.136	82.43
319.349	14.85
319.563	-24.06
319.776	74.24
319.99	29.18
320.203	55.81
320.417	10.75
320.63	-11.78
320.843	61.95
321.057	84.48
321.27	-3.58
321.483	2.56
321.697	98.81
321.91	47.62
322.124	8.7
322.337	14.85
322.55	8.7
322.763	51.71
322.977	51.71
323.19	59.9
323.403	-19.97
323.617	-7.68
323.83	49.66
324.043	-19.97
324.256	35.33
324.469	-17.92
324.683	-3.58
324.896	-9.73
325.109	70.14
325.322	-7.68
325.535	12.8
325.748	-7.68
325.962	29.18
326.175	-3.58
326.388	18.94
326.601	86.53
326.814	33.28
327.027	2.56
327.24	4.61
327.453	59.9
327.666	43.52
327.879	35.33
328.092	51.71
328.305	-19.97
328.518	-3.58
328.731	25.09
328.944	117.25
329.157	35.33
329.37	90.62
329.583	-40.45
329.796	-24.06
330.009	8.7
330.222	-5.63
330.435	35.33
330.648	45.57
330.861	8.7
331.073	64
331.286	27.14
331.499	10.75
331.712	31.23
331.925	-7.68
332.138	12.8
332.35	57.86
332.563	33.28
332.776	82.43
332.989	68.09
333.202	84.48
333.414	53.76
333.627	57.86
333.84	70.14
334.053	80.38
334.265	-17.92
334.478	-15.87
334.691	8.7
334.903	88.57
335.116	-36.35
335.329	39.42
335.541	66.05
335.754	-40.45
335.966	68.09
336.179	53.76
336.392	-5.63
336.604	35.33
336.817	18.94
337.029	51.71
337.242	70.14
337.454	74.24
337.667	33.28
337.88	4.61
338.092	-1.54
338.305	25.09
338.517	59.9
338.729	107.01
338.942	2.56
339.154	20.99
339.367	-67.07
339.579	12.8
339.792	4.61
340.004	70.14
340.217	25.09
340.429	41.47
340.641	-5.63
340.854	0.51
341.066	-13.82
341.278	53.76
341.491	90.62
341.703	23.04
341.915	2.56
342.128	29.18
342.34	18.94
342.552	-11.78
342.764	37.38
342.977	27.14
343.189	45.57
343.401	33.28
343.613	16.9
343.826	-11.78
344.038	-11.78
344.25	33.28
344.462	72.19
344.674	29.18
344.886	16.9
345.099	57.86
345.311	31.23
345.523	41.47
345.735	-97.79
345.947	86.53
346.159	-11.78
346.371	51.71
346.583	18.94
346.795	107.01
347.007	14.85
347.219	4.61
347.431	16.9
347.643	45.57
347.855	74.24
348.067	66.05
348.279	10.75
348.491	0.51
348.703	35.33
348.915	47.62
349.127	-17.92
349.339	76.29
349.551	23.04
349.763	49.66
349.975	41.47
350.187	49.66
350.399	25.09
350.61	49.66
350.822	-22.02
351.034	2.56
351.246	-13.82
351.458	57.86
351.669	27.14
351.881	8.7
352.093	64
352.305	74.24
352.517	23.04
352.728	84.48
352.94	35.33
353.152	8.7
353.363	-3.58
353.575	43.52
353.787	2.56
353.999	10.75
354.21	8.7
354.422	86.53
354.633	100.86
354.845	74.24
355.057	107.01
355.268	139.77
355.48	51.71
355.692	23.04
355.903	8.7
356.115	-62.98
356.326	-26.11
356.538	27.14
356.749	8.7
356.961	45.57
357.172	31.23
357.384	10.75
357.595	88.57
357.807	74.24
358.018	49.66
358.23	82.43
358.441	39.42
358.653	16.9
358.864	-28.16
359.075	61.95
359.287	45.57
359.498	78.33
359.709	66.05
359.921	10.75
360.132	-5.63
360.344	86.53
360.555	4.61
360.766	41.47
360.977	-13.82
361.189	74.24
361.4	6.66
361.611	68.09
361.823	96.77
362.034	35.33
362.245	-19.97
362.456	20.99
362.667	57.86
362.879	109.05
363.09	10.75
363.301	55.81
363.512	25.09
363.723	84.48
363.935	29.18
364.146	0.51
364.357	43.52
364.568	68.09
364.779	6.66
364.99	47.62
365.201	-36.35
365.412	37.38
365.623	-5.63
365.834	141.82
366.045	152.06
366.256	88.57
366.467	0.51
366.678	57.86
366.889	109.05
367.1	-15.87
367.311	61.95
367.522	59.9
367.733	8.7
367.944	55.81
368.155	-15.87
368.366	57.86
368.577	18.94
368.788	90.62
368.999	-54.78
369.209	76.29
369.42	45.57
369.631	12.8
369.842	-36.35
370.053	0.51
370.264	86.53
370.474	25.09
370.685	-58.88
370.896	16.9
371.107	47.62
371.317	23.04
371.528	-36.35
371.739	12.8
371.95	29.18
372.16	20.99
372.371	86.53
372.582	4.61
372.792	23.04
373.003	49.66
373.214	55.81
373.424	10.75
373.635	-9.73
373.846	20.99
374.056	14.85
374.267	51.71
374.477	4.61
374.688	-11.78
374.898	-48.64
375.109	33.28
375.319	55.81
375.53	59.9
375.74	82.43
375.951	33.28
376.161	-34.3
376.372	39.42
376.582	-38.4
376.793	131.58
377.003	84.48
377.214	2.56
377.424	10.75
377.635	53.76
377.845	16.9
378.055	102.91
378.266	-26.11
378.476	33.28
378.686	47.62
378.897	47.62
379.107	70.14
379.317	59.9
379.528	4.61
379.738	10.75
379.948	-44.54
380.158	74.24
380.369	27.14
380.579	49.66
380.789	33.28
380.999	-77.31
381.21	14.85
381.42	82.43
381.63	18.94
381.84	107.01
382.05	35.33
382.261	61.95
382.471	12.8
382.681	8.7
382.891	113.15
383.101	25.09
383.311	64
383.521	86.53
383.731	29.18
383.941	53.76
384.151	41.47
384.361	0.51
384.571	-9.73
384.781	43.52
384.991	27.14
385.201	59.9
385.411	53.76
385.621	-11.78
385.831	43.52
386.041	29.18
386.251	64
386.461	27.14
386.671	61.95
386.881	41.47
387.091	84.48
387.301	8.7
387.511	29.18
387.72	88.57
387.93	66.05
388.14	-19.97
388.35	55.81
388.56	90.62
388.769	0.51
388.979	47.62
389.189	18.94
389.399	53.76
389.609	100.86
389.818	104.96
390.028	18.94
390.238	76.29
390.447	41.47
390.657	41.47
390.867	51.71
391.076	25.09
391.286	119.29
391.496	66.05
391.705	35.33
391.915	31.23
392.125	66.05
392.334	43.52
392.544	117.25
392.753	88.57
392.963	25.09
393.172	4.61
393.382	2.56
393.591	127.49
393.801	66.05
394.01	61.95
394.22	45.57
394.429	82.43
394.639	43.52
394.848	49.66
395.058	16.9
395.267	4.61
395.477	27.14
395.686	4.61
395.895	96.77
396.105	78.33
396.314	107.01
396.524	43.52
396.733	-9.73
396.942	-30.21
397.152	78.33
397.361	98.81
397.57	92.67
397.78	61.95
397.989	98.81
398.198	156.16
398.407	-48.64
398.617	6.66
398.826	47.62
399.035	82.43
399.244	74.24
399.453	100.86
399.663	55.81
399.872	47.62
400.081	66.05
400.29	68.09
400.499	70.14
400.708	82.43
400.917	123.39
401.127	18.94
401.336	49.66
401.545	119.29
401.754	141.82
401.963	53.76
402.172	41.47
402.381	43.52
402.59	49.66
402.799	94.72
403.008	123.39
403.217	29.18
403.426	107.01
403.635	-36.35
403.844	41.47
404.053	104.96
404.262	74.24
404.471	139.77
404.68	74.24
404.888	76.29
405.097	160.25
405.306	82.43
405.515	176.64
405.724	147.97
405.933	49.66
406.142	113.15
406.35	117.25
406.559	82.43
406.768	152.06
406.977	143.87
407.185	111.1
407.394	133.63
407.603	82.43
407.812	68.09
408.02	158.21
408.229	166.4
408.438	147.97
408.646	154.11
408.855	109.05
409.064	133.63
409.272	164.35
409.481	199.16
409.69	188.93
409.898	172.54
410.107	135.68
410.315	166.4
410.524	156.16
410.733	231.93
410.941	199.16
411.15	303.61
411.358	262.65
411.567	168.45
411.775	268.8
411.984	248.32
412.192	268.8
412.401	201.21
412.609	289.28
412.818	236.03
413.026	330.23
413.234	281.08
413.443	330.23
413.651	291.32
413.86	283.13
414.068	373.24
414.276	428.54
414.485	334.33
414.693	393.72
414.901	430.59
415.11	377.34
415.318	373.24
415.526	426.49
415.734	393.72
415.943	467.45
416.151	412.15
416.359	516.6
416.567	496.12
416.776	492.02
416.984	467.45
417.192	551.42
417.4	594.42
417.608	561.66
417.817	608.76
418.025	674.29
418.233	733.68
418.441	657.91
418.649	770.55
418.857	688.63
419.065	762.36
419.273	662.01
419.481	705.01
419.689	739.83
419.897	788.98
420.105	778.74
420.313	913.91
420.521	963.06
420.729	942.58
420.937	928.24
421.145	1053.17
421.353	1053.17
421.561	1143.28
421.769	1010.16
421.977	1139.18
422.185	1171.95
422.393	1296.88
422.601	1229.29
422.809	1237.49
423.017	1096.18
423.224	1372.65
423.432	1415.66
423.64	1466.86
423.848	1524.2
424.056	1483.24
424.263	1542.63
424.471	1516.01
424.679	1622.5
424.887	1722.85
425.094	1866.21
425.302	1774.05
425.51	1892.84
425.718	1800.68
425.925	1892.84
426.133	2001.38
426.341	2097.63
426.548	2228.7
426.756	2169.31
426.964	2322.91
427.171	2302.43
427.379	2468.31
427.586	2433.5
427.794	2572.76
428.001	2689.49
428.209	2752.98
428.417	2746.84
428.624	2828.76
428.832	2734.55
429.039	2918.87
429.247	2767.32
429.454	3213.77
429.662	3408.33
429.869	3162.58
430.076	3301.84
430.284	3285.45
430.491	3430.86
430.699	3678.66
430.906	3615.18
431.114	3635.66
431.321	3897.8
431.528	3885.51
431.736	4129.22
431.943	4305.34
432.15	4180.42
432.358	4196.8
432.565	4391.36
432.772	4438.46
432.979	4538.81
433.187	4858.29
433.394	4848.05
433.601	5081.52
433.808	5188.02
434.016	5063.09
434.223	5302.7
434.43	5751.21
434.637	5464.49
434.844	5818.79
435.052	5925.29
435.259	5974.44
435.466	5974.44
435.673	6035.88
435.88	6345.12
436.087	6762.9
436.294	6685.08
436.501	6343.07
436.708	6756.76
436.915	6857.11
437.122	7254.42
437.329	7266.71
437.537	7356.82
437.743	7481.74
437.95	7483.79
438.157	7850.38
438.364	8116.61
438.571	8137.09
438.778	8010.12
438.985	8927.61
439.192	8511.87
439.399	8792.44
439.606	8735.1
439.813	9269.62
440.02	9822.57
440.227	9443.7
440.433	9300.34
440.64	9869.67
440.847	9765.23
441.054	9929.06
441.261	10400.1
441.467	10461.54
441.674	10860.89
441.881	11313.49
442.088	10979.67
442.294	10959.19
442.501	11241.81
442.708	11645.26
442.914	11897.16
443.121	12185.93
443.328	11888.97
443.534	12779.84
443.741	12505.41
443.948	12337.48
444.154	13295.93
444.361	13279.54
444.568	13189.43
444.774	13400.37
444.981	13302.07
445.187	13752.62
445.394	14450.98
445.6	14412.07
445.807	15948.04
446.013	15046.94
446.22	15202.58
446.426	15835.41
446.633	16173.32
446.839	16466.18
447.046	15765.78
447.252	16812.29
447.459	16703.75
447.665	16769.28
447.871	17645.81
448.078	18202.86
448.284	17522.93
448.491	17875.18
448.697	18589.92
448.903	18825.44
449.11	19177.69
449.316	18917.6
449.522	19079.39
449.728	19484.89
449.935	19718.36
450.141	19706.07
450.347	20443.34
450.553	19689.68
450.76	20076.75
450.966	20629.7
451.172	20558.02
451.378	20598.98
451.584	20515.01
451.791	21252.28
451.997	20844.74
452.203	21504.18
452.409	21319.87
452.615	21661.88
452.821	20496.58
453.027	20420.81
453.233	21389.5
453.44	20844.74
453.646	20803.78
453.852	20603.08
454.058	21215.42
454.264	20488.39
454.47	21422.27
454.676	20555.97
454.882	21407.93
455.088	19351.77
455.294	19818.71
455.5	20082.89
455.705	20496.58
455.911	19429.59
456.117	19349.72
456.323	18835.68
456.529	17774.83
456.735	18725.09
456.941	18213.1
457.147	17854.7
457.352	17248.5
457.558	17150.2
457.764	17314.04
457.97	16996.6
458.176	16474.37
458.381	16351.49
458.587	15835.41
458.793	15706.38
458.999	15042.84
459.204	16056.59
459.41	15589.65
459.616	14747.93
459.821	14647.58
460.027	14493.99
460.233	14237.99
460.438	13420.85
460.644	13678.9
460.85	13044.02
461.055	12773.69
461.261	12654.91
461.466	11649.36
461.672	11354.45
461.878	12351.81
462.083	11452.75
462.289	11559.25
462.494	11374.93
462.7	10791.26
462.905	10406.24
463.111	10807.64
463.316	10762.59
463.522	10613.09
463.727	10469.73
463.932	10504.54
464.138	10482.02
464.343	10598.75
464.549	10176.87
464.754	10387.81
464.959	10246.5
465.165	10307.94
465.37	9845.1
465.575	9623.92
465.781	9998.7
465.986	10135.91
466.191	9851.24
466.397	9437.55
466.602	9140.6
466.807	9460.08
467.012	9505.13
467.218	9388.4
467.423	9134.45
467.628	9232.76
467.833	9785.71
468.038	9339.25
468.244	9056.63
468.449	9136.5
468.654	8876.41
468.859	9038.2
469.064	9068.92
469.269	8657.28
469.474	8700.28
469.679	8806.78
469.885	8765.82
470.09	8751.48
470.295	8790.39
470.5	8452.48
470.705	8577.41
470.91	8315.27
471.115	8348.03
471.32	8454.53
471.525	8413.57
471.73	8288.64
471.935	8208.77
472.139	7848.33
472.344	8108.42
472.549	7831.94
472.754	7911.82
472.959	7604.62
473.164	7672.2
473.369	7485.84
473.574	7725.45
473.778	7733.64
473.983	7520.65
474.188	7565.71
474.393	7211.41
474.598	7037.33
474.802	7080.34
475.007	7047.57
475.212	7133.59
475.417	6789.53
475.621	6822.3
475.826	6932.89
476.031	6713.75
476.235	6521.24
476.44	6709.66
476.645	6664.6
476.849	6670.75
477.054	6308.26
477.259	6349.22
477.463	6549.92
477.668	6220.19
477.872	6355.36
478.077	6244.77
478.282	6103.46
478.486	6070.69
478.691	5939.62
478.895	5876.13
479.1	5804.46
479.304	5908.9
479.509	5573.03
479.713	5890.47
479.918	5751.21
480.122	5521.84
480.326	5820.84
480.531	5605.8
480.735	5650.86
480.94	5611.95
481.144	5800.36
481.348	5452.2
481.553	5546.41
481.757	5403.05
481.961	5360.05
482.166	5646.76
482.37	5544.36
482.574	5466.54
482.778	5589.42
482.983	5401.01
483.187	5464.49
483.391	5554.6
483.595	5417.39
483.8	5368.24
484.004	5568.94
484.208	5697.96
484.412	5501.36
484.616	5405.1
484.821	5454.25
485.025	5292.46
485.229	5538.22
485.433	5366.19
485.637	5546.41
485.841	5360.05
486.045	5407.15
486.249	5382.57
486.453	5493.16
486.657	5358
486.861	5439.92
487.065	5292.46
487.269	5462.44
487.473	5343.66
487.677	5353.9
487.881	5589.42
488.085	5444.01
488.289	5437.87
488.493	5308.85
488.697	5509.55
488.901	5743.02
489.105	5427.63
489.309	5616.04
489.512	5423.53
489.716	5415.34
489.92	5562.8
490.124	5583.27
490.328	5786.02
490.531	5581.23
490.735	5677.48
490.939	5816.74
491.143	5439.92
491.346	5562.8
491.55	5747.11
491.754	5595.56
491.958	5683.63
492.161	5738.92
492.365	5718.44
492.569	5726.63
492.772	5589.42
492.976	5769.64
493.18	5765.54
493.383	5792.17
493.587	5927.33
493.79	6035.88
493.994	5906.85
494.197	5947.81
494.401	6031.78
494.605	6091.17
494.808	6082.98
495.012	6187.43
495.215	6316.45
495.419	6142.37
495.622	6168.99
495.825	6308.26
496.029	6209.95
496.232	6474.14
496.436	6533.53
496.639	6662.55
496.843	6472.09
497.046	6777.24
497.249	6902.17
497.453	6699.42
497.656	6691.23
497.859	6842.78
498.063	6953.37
498.266	6918.55
498.469	6941.08
498.673	7002.52
498.876	7145.87
499.079	7242.13
499.282	7211.41
499.485	7526.8
499.689	7541.13
499.892	7565.71
500.095	7455.12
500.298	7637.39
500.501	7692.68
500.705	7907.72
500.908	7991.69
501.111	8176
501.314	8163.72
501.517	8268.16
501.72	8343.94
501.923	8378.75
502.126	8550.78
502.329	8710.52
502.532	8726.91
502.735	8577.41
502.938	9099.64
503.141	9007.48
503.344	8948.09
503.547	9052.53
503.75	9472.37
503.953	9290.1
504.156	9511.28
504.359	9353.59
504.562	9458.03
504.765	9902.44
504.968	9820.52
505.17	10025.32
505.373	10238.31
505.576	10066.28
505.779	10221.92
505.982	10377.57
506.185	10686.81
506.387	10535.26
506.59	10598.75
506.793	11049.3
506.996	10895.71
507.198	11200.85
507.401	11055.45
507.604	11163.99
507.807	11403.6
508.009	11549.01
508.212	11542.86
508.415	11788.62
508.617	11731.28
508.82	11903.31
509.022	12061
509.225	12306.76
509.428	12360
509.63	12544.32
509.833	12384.58
510.035	12638.53
510.238	12761.41
510.44	12927.29
510.643	13302.07
510.845	13195.57
511.048	13060.41
511.25	13279.54
511.453	13482.29
511.655	13809.97
511.858	13668.66
512.06	13893.93
512.262	13945.13
512.465	13955.37
512.667	14244.13
512.87	14428.45
513.072	14719.26
513.274	14700.83
513.477	14719.26
513.679	14952.73
513.881	15188.25
514.084	15286.55
514.286	15079.71
514.488	15397.14
514.69	15753.49
514.893	16064.78
515.095	15923.47
515.297	15898.89
515.499	16281.86
515.701	16355.59
515.904	16357.64
516.106	16677.12
516.308	16990.46
516.51	17150.2
516.712	17099
516.914	17111.29
517.116	17586.42
517.318	17662.19
517.52	17662.19
517.722	17522.93
517.925	18061.55
518.127	18215.15
518.329	18391.27
518.531	18106.6
518.733	18581.73
518.935	18735.33
519.136	18796.77
519.338	19210.46
519.54	19339.48
519.742	19300.57
519.944	19278.04
520.146	20170.96
520.348	20099.28
520.55	20254.92
520.752	20127.95
520.954	20664.52
521.155	20523.21
521.357	20611.27
521.559	20914.37
521.761	21041.34
521.963	20807.87
522.164	21407.93
522.366	21203.13
522.568	21516.47
522.77	21610.68
522.971	22077.62
523.173	21760.18
523.375	22063.28
523.576	22145.2
523.778	22311.08
523.98	22735.01
524.181	22466.73
524.383	22739.11
524.584	23269.53
524.786	23023.78
524.988	22716.58
525.189	23222.43
525.391	23273.63
525.592	23429.27
525.794	23715.99
525.995	23912.6
526.197	23584.92
526.398	23926.93
526.6	23904.4
526.801	24393.87
527.003	24418.44
527.204	24178.83
527.406	24334.48
527.607	24549.51
527.808	24535.18
528.01	24574.09
528.211	24713.35
528.412	25145.47
528.614	24787.08
528.815	24979.59
529.016	24922.24
529.218	24993.92
529.419	25065.6
529.62	25292.93
529.822	25159.81
530.023	25266.3
530.224	25479.29
530.425	25438.33
530.626	25350.27
530.828	25493.63
531.029	25770.1
531.23	25606.27
531.431	25444.48
531.632	25806.97
531.833	25837.69
532.035	25704.57
532.236	26011.76
532.437	25950.32
532.638	25573.5
532.839	25987.19
533.04	26214.51
533.241	25596.03
533.442	26388.59
533.643	25718.9
533.844	25903.22
534.045	26257.52
534.246	25935.99
534.447	26607.72
534.648	25870.45
534.849	26310.77
535.05	25839.73
535.251	26114.16
535.451	26185.84
535.652	26173.55
535.853	26148.98
536.054	26128.5
536.255	26456.17
536.456	26065.01
536.657	26554.47
536.857	26138.74
537.058	26054.77
537.259	26370.16
537.46	25919.6
537.66	26050.67
537.861	25987.19
538.062	26394.73
538.263	26435.69
538.463	26062.96
538.664	26202.22
538.865	26048.63
539.065	26404.97
539.266	26071.15
539.466	26538.09
539.667	25985.14
539.868	26249.33
540.068	26118.26
540.269	26148.98
540.469	26466.41
540.67	26140.79
540.87	26323.05
541.071	25870.45
541.271	26419.31
541.472	26284.14
541.672	25964.66
541.873	26114.16
542.073	26140.79
542.274	26531.95
542.474	26255.47
542.675	26183.79
542.875	26411.12
543.075	26032.24
543.276	25942.13
543.476	26200.18
543.676	26001.52
543.877	26136.69
544.077	26316.91
544.277	26325.1
544.478	26056.82
544.678	26050.67
544.878	25964.66
545.078	26062.96
545.279	26105.97
545.479	25989.24
545.679	26103.92
545.879	25872.5
546.079	26042.48
546.28	26067.06
546.48	25772.15
546.68	26140.79
546.88	26116.21
547.08	26108.02
547.28	25505.91
547.48	25669.75
547.68	25979
547.88	26146.93
548.081	26079.35
548.281	25860.21
548.481	25884.79
548.681	26083.44
548.881	25917.56
549.081	25917.56
549.28	25626.74
549.48	26081.39
549.68	25886.84
549.88	26083.44
550.08	25854.07
550.28	25821.3
550.48	25976.95
550.68	26124.4
550.88	25790.58
551.08	25964.66
551.279	25806.97
551.479	25643.13
551.679	25981.04
551.879	25677.94
552.079	25847.93
552.278	25673.85
552.478	25847.93
552.678	26005.62
552.878	25956.47
553.077	25780.34
553.277	25753.72
553.477	25987.19
553.676	25716.86
553.876	25716.86
554.076	25436.28
554.275	25383.04
554.475	25522.3
554.674	25606.27
554.874	25763.96
555.074	25462.91
555.273	25534.59
555.473	25669.75
555.672	25251.97
555.872	25577.59
556.071	25628.79
556.271	25788.53
556.47	25108.61
556.67	24969.35
556.869	25221.25
557.068	25636.98
557.268	25131.14
557.467	25106.56
557.667	25297.02
557.866	25139.33
558.065	25294.97
558.265	25063.55
558.464	24979.59
558.663	25118.85
558.863	24719.49
559.062	25350.27
559.261	24805.51
559.461	25280.64
559.66	24721.54
559.859	24836.23
560.058	24846.47
560.258	24789.13
560.457	24651.91
560.656	24762.5
560.855	24682.63
561.054	24653.96
561.253	24455.31
561.453	24938.63
561.652	24555.66
561.851	24535.18
562.05	24334.48
562.249	24297.61
562.448	24141.97
562.647	24164.5
562.846	24076.43
563.045	24119.44
563.244	23734.42
563.443	24301.71
563.642	23787.67
563.841	23818.39
564.04	23791.76
564.239	24080.53
564.438	23527.58
564.637	23662.74
564.836	23890.07
565.035	23185.57
565.234	23607.45
565.432	23480.47
565.631	23513.24
565.83	23531.67
566.029	23394.46
566.228	23728.28
566.427	23519.39
566.625	23062.69
566.824	22761.64
567.023	23490.71
567.222	23060.64
567.42	23177.37
567.619	23232.67
567.818	22810.79
568.016	22872.23
568.215	22986.91
568.414	22900.9
568.612	22972.58
568.811	22804.64
569.01	22761.64
569.208	22374.57
569.407	22669.48
569.605	22380.71
569.804	22726.82
570.002	22259.88
570.201	22368.43
570.4	22061.23
570.598	22036.66
570.797	22032.56
570.995	21940.4
571.193	21987.5
571.392	21967.02
571.59	21663.93
571.789	21788.85
571.987	21868.72
572.186	21729.46
572.384	21817.52
572.582	21921.97
572.781	21733.56
572.979	21334.2
573.177	21373.11
573.376	21706.93
573.574	21477.56
573.772	21475.51
573.971	21186.75
574.169	21002.43
574.367	20975.81
574.565	21072.06
574.763	21061.82
574.962	20871.36
575.16	20824.26
575.358	20877.51
575.556	20728
575.754	20721.86
575.952	20474.06
576.151	20910.27
576.349	20523.21
576.547	20000.97
576.745	20734.15
576.943	20461.77
577.141	20445.38
577.339	20144.33
577.537	20166.86
577.735	20218.06
577.933	20109.52
578.131	20095.18
578.329	19900.62
578.527	19964.11
578.725	19964.11
578.923	19894.48
579.121	19722.45
579.319	19732.69
579.516	19816.66
579.714	19771.6
579.912	19626.2
580.11	19556.57
580.308	19699.92
580.506	19534.04
580.704	19300.57
580.901	19550.42
581.099	19351.77
581.297	19443.93
581.495	19099.87
581.692	19239.13
581.89	19095.77
582.088	19335.38
582.285	18905.31
582.483	19157.21
582.681	18931.94
582.878	18843.87
583.076	18530.53
583.274	18798.82
583.471	18417.89
583.669	18694.37
583.866	18514.15
584.064	18569.44
584.262	18553.06
584.459	18637.03
584.657	18342.12
584.854	18878.69
585.052	18264.3
585.249	18221.29
585.447	18325.74
585.644	18069.74
585.841	18047.21
586.039	18360.55
586.236	18143.47
586.434	17819.89
586.631	17832.18
586.828	17948.91
587.026	18016.49
587.223	17993.97
587.42	17887.47
587.618	18098.41
587.815	17672.43
588.012	17488.12
588.21	17400.05
588.407	17729.78
588.604	17492.21
588.801	17408.25
588.999	17363.19
589.196	17236.22
589.393	17484.02
589.59	17240.31
589.787	17309.94
589.984	17273.08
590.182	16894.21
590.379	17172.73
590.576	17010.94
590.773	17010.94
590.97	16949.5
591.167	16840.96
591.364	16810.24
591.561	16853.25
591.758	16732.42
591.955	16515.33
592.152	16505.09
592.349	16466.18
592.546	16554.24
592.743	16318.73
592.94	16304.39
593.137	16593.15
593.334	16328.97
593.531	16152.84
593.727	16396.55
593.924	16498.95
594.121	15972.62
594.318	16421.13
594.515	15960.33
594.712	16128.27
594.908	16126.22
595.105	16120.07
595.302	15698.19
595.499	16027.92
595.696	15806.73
595.892	15681.81
596.089	15814.93
596.286	15546.64
596.482	15704.34
596.679	15685.9
596.876	15622.42
597.072	15386.9
597.269	15520.02
597.466	15384.85
597.662	15489.3
597.859	15298.84
598.055	15388.95
598.252	15227.16
598.448	15345.94
598.645	14938.4
598.841	15089.95
599.038	15200.54
599.234	15005.98
599.431	14571.81
599.627	14876.96
599.824	15085.85
600.02	14954.78
600.217	14977.31
600.413	14639.39
600.609	14696.74
600.806	14829.85
601.002	14842.14
601.198	14446.88
601.395	14516.51
601.591	14338.34
601.787	14528.8
601.984	14543.14
602.18	14563.62
602.376	14229.8
602.572	14461.22
602.769	14254.37
602.965	13865.26
603.161	14262.57
603.357	13895.98
603.553	13885.74
603.75	13818.16
603.946	13889.84
604.142	14051.63
604.338	14131.5
604.534	14059.82
604.73	13738.29
604.926	13715.76
605.122	13848.88
605.318	13668.66
605.514	13617.46
605.71	13627.7
605.906	13613.36
606.102	13721.9
606.298	13549.87
606.494	13470
606.69	13453.62
606.886	13394.23
607.082	13359.41
607.278	13553.97
607.474	13214.01
607.67	13394.23
607.866	13123.9
608.062	13238.58
608.257	13093.18
608.453	13390.13
608.649	13242.68
608.845	13078.84
609.041	12888.38
609.236	13046.07
609.432	12925.24
609.628	13136.18
609.824	13107.51
610.019	12955.96
610.215	12968.25
610.411	12906.81
610.606	13011.26
610.802	12884.28
610.998	12943.67
611.193	12738.88
611.389	12734.78
611.584	12900.67
611.78	12546.37
611.976	12497.22
612.171	12777.79
612.367	12781.88
612.562	12499.27
612.758	12273.99
612.953	12452.16
613.149	12689.73
613.344	12446.02
613.539	12722.49
613.735	12192.07
613.93	12360
614.126	12288.32
614.321	12435.78
614.517	12378.44
614.712	12372.29
614.907	12437.83
615.103	12278.08
615.298	12222.79
615.493	12427.59
615.688	11872.59
615.884	12271.94
616.079	12005.7
616.274	12114.25
616.47	11870.54
616.665	12165.45
616.86	11989.32
617.055	12101.96
617.25	11786.57
617.445	12104.01
617.641	11891.02
617.836	11934.03
618.031	11579.73
618.226	12020.04
618.421	11639.12
618.616	11737.42
618.811	11903.31
619.006	11622.73
619.201	11696.46
619.396	11698.51
619.591	11546.96
619.786	11479.38
619.981	11231.57
620.176	11417.94
620.371	11141.46
620.566	11524.43
620.761	11368.79
620.956	11190.61
621.151	11118.93
621.346	11159.89
621.541	10668.38
621.735	11108.69
621.93	10951
622.125	10905.95
622.32	10813.79
622.515	10928.47
622.709	10729.82
622.904	10735.96
623.099	10572.13
623.294	10545.5
623.488	10332.51
623.683	10482.02
623.878	10436.96
624.072	10289.51
624.267	10346.85
624.462	10199.4
624.656	10019.18
624.851	10172.77
625.046	10140.01
625.24	10039.65
625.435	9920.87
625.629	10154.34
625.824	9857.39
626.018	9873.77
626.213	9800.04
626.407	9728.36
626.602	9519.47
626.796	9652.59
626.991	9646.44
627.185	9634.16
627.38	9335.15
627.574	9396.59
627.768	9329.01
627.963	9322.87
628.157	9249.14
628.352	9292.15
628.546	9111.92
628.74	9290.1
628.935	9181.56
629.129	9083.25
629.323	9077.11
629.517	8935.8
629.712	9101.69
629.906	8683.9
630.1	8862.07
630.294	8845.69
630.489	8702.33
630.683	8929.66
630.877	8679.8
631.071	8761.72
631.265	8647.04
631.459	8515.97
631.653	8483.2
631.848	8581.5
632.042	8309.12
632.236	8458.62
632.43	8382.85
632.624	8329.6
632.818	8184.2
633.012	8186.24
633.206	8098.18
633.4	8235.39
633.594	8259.97
633.788	8186.24
633.982	8012.17
634.176	8040.84
634.369	7874.95
634.563	7958.92
634.757	7924.1
634.951	7606.67
635.145	7782.79
635.339	7702.92
635.533	7657.87
635.726	7647.63
635.92	7569.8
636.114	7532.94
636.308	7526.8
636.501	7465.36
636.695	7350.67
636.889	7602.57
637.083	7324.05
637.276	7412.11
637.47	7367.06
637.664	7383.44
637.857	7270.8
638.051	6988.18
638.244	7041.43
638.438	7084.44
638.632	7154.07
638.825	7121.3
639.019	7094.68
639.212	6762.9
639.406	6912.41
639.599	6848.92
639.793	6824.34
639.986	6678.94
640.18	6902.17
640.373	6693.27
640.567	6703.51
640.76	6721.95
640.954	6664.6
641.147	6554.01
641.34	6644.12
641.534	6424.99
641.727	6298.02
641.92	6388.13
642.114	6474.14
642.307	6408.61
642.5	6314.4
642.694	6261.15
642.887	6289.82
643.08	6427.04
643.273	6259.1
643.467	6265.25
643.66	6232.48
643.853	6050.21
644.046	6082.98
644.239	6078.88
644.432	5880.23
644.626	6152.61
644.819	6011.3
645.012	5956.01
645.205	5822.89
645.398	6013.35
645.591	5749.16
645.784	5745.06
645.977	5740.97
646.17	5833.13
646.363	5700.01
646.556	5695.91
646.749	5718.44
646.942	5712.3
647.135	5538.22
647.328	5513.64
647.521	5634.47
647.714	5554.6
647.907	5579.18
648.099	5472.68
648.292	5534.12
648.485	5439.92
648.678	5456.3
648.871	5427.63
649.064	5398.96
649.256	5351.85
649.449	5202.35
649.642	5224.88
649.835	5337.52
650.027	5087.67
650.22	5192.11
650.413	5071.28
650.605	5192.11
650.798	5042.61
650.991	4979.12
651.183	5190.06
651.376	4958.64
651.568	4893.11
651.761	4946.36
651.954	4972.98
652.146	4876.73
652.339	4891.06
652.531	4852.15
652.724	4839.86
652.916	4876.73
653.109	4719.03
653.301	4751.8
653.494	4702.65
653.686	4776.38
653.879	4684.22
654.071	4860.34
654.263	4626.87
654.456	4702.65
654.648	4467.13
654.84	4612.54
655.033	4491.71
655.225	4579.77
655.417	4473.28
655.61	4442.56
655.802	4420.03
655.994	4483.52
656.186	4377.02
656.379	4458.94
656.571	4565.43
656.763	4288.96
656.955	4360.64
657.148	4360.64
657.34	4348.35
657.532	4178.37
657.724	4098.5
657.916	4184.51
658.108	4282.81
658.3	4252.1
658.492	4153.79
658.684	4112.83
658.876	4051.39
659.068	4020.67
659.26	4129.22
659.452	4131.26
659.644	4084.16
659.836	4041.15
660.028	3994.05
660.22	3901.89
660.412	3899.84
660.604	3969.48
660.796	3887.56
660.988	3846.6
661.18	3838.41
661.372	3854.79
661.563	3862.98
661.755	3826.12
661.947	3779.01
662.139	3840.45
662.331	3733.96
662.522	3711.43
662.714	3772.87
662.906	3688.9
663.097	3682.76
663.289	3686.86
663.481	3514.83
663.673	3637.7
663.864	3670.47
664.056	3627.46
664.247	3559.88
664.439	3467.72
664.631	3590.6
664.822	3539.4
665.014	3473.87
665.205	3525.07
665.397	3469.77
665.588	3525.07
665.78	3303.89
665.971	3414.48
666.163	3295.69
666.354	3310.03
666.546	3398.09
666.737	3566.03
666.929	3383.76
667.12	3320.27
667.311	3318.22
667.503	3342.8
667.694	3346.89
667.885	3250.64
668.077	3307.98
668.268	3170.77
668.459	3252.69
668.651	3330.51
668.842	3164.62
669.033	3248.59
669.224	3166.67
669.416	3375.56
669.607	3123.66
669.798	3146.19
669.989	3162.58
670.18	3172.82
670.371	3144.14
670.563	3011.03
670.754	3054.03
670.945	3088.85
671.136	3140.05
671.327	3146.19
671.518	3004.88
671.709	3025.36
671.9	3054.03
672.091	3054.03
672.282	2890.2
672.473	2834.9
672.664	2945.49
672.855	2945.49
673.046	2888.15
673.237	3019.22
673.428	2873.81
673.619	3025.36
673.809	2959.83
674	2914.77
674.191	2929.11
674.382	2773.46
674.573	2869.72
674.764	2996.69
674.954	2867.67
675.145	2787.8
675.336	2916.82
675.527	2916.82
675.717	2922.96
675.908	2927.06
676.099	2785.75
676.289	2804.18
676.48	2763.22
676.671	2857.43
676.861	2787.8
677.052	2882
677.243	2767.32
677.433	2802.13
677.624	2783.7
677.814	2738.65
678.005	2693.59
678.195	2775.51
678.386	2742.74
678.576	2787.8
678.767	2738.65
678.957	2656.73
679.148	2787.8
679.338	2695.64
679.529	2726.36
679.719	2664.92
679.909	2539.99
680.1	2660.82
680.29	2580.95
680.481	2634.2
680.671	2654.68
680.861	2640.34
681.052	2675.16
681.242	2726.36
681.432	2722.26
681.622	2656.73
681.813	2521.56
682.003	2677.21
682.193	2580.95
682.383	2603.48
682.573	2572.76
682.764	2515.42
682.954	2752.98
683.144	2699.73
683.334	2671.06
683.524	2535.9
683.714	2529.75
683.904	2703.83
684.094	2556.38
684.284	2726.36
684.474	2597.34
684.664	2642.39
684.854	2503.13
685.044	2613.72
685.234	2552.28
685.424	2568.66
685.614	2597.34
685.804	2492.89
685.994	2542.04
686.184	2589.14
686.374	2488.79
686.564	2513.37
686.753	2523.61
686.943	2410.97
687.133	2548.19
687.323	2515.42
687.513	2456.03
687.702	2478.55
687.892	2423.26
688.082	2501.08
688.272	2570.71
688.461	2390.49
688.651	2419.16
688.841	2449.88
689.03	2408.92
689.22	2408.92
689.41	2443.74
689.599	2322.91
689.789	2310.62
689.979	2449.88
690.168	2507.23
690.358	2238.94
690.547	2269.66
690.737	2257.37
690.926	2304.48
691.116	2265.57
691.305	2339.29
691.495	2378.2
691.684	2204.13
691.874	2220.51
692.063	2101.73
692.252	2279.9
692.442	2161.12
692.631	2273.76
692.82	2197.98
693.01	2245.09
693.199	2206.17
693.388	2197.98
693.578	2259.42
693.767	2109.92
693.956	2099.68
694.146	2171.36
694.335	2068.96
694.524	2159.07
694.713	2189.79
694.902	2171.36
695.092	2175.45
695.281	2109.92
695.47	2044.38
695.659	2028
695.848	1991.14
696.037	1991.14
696.226	2130.4
696.415	2040.29
696.604	2249.18
696.793	1954.27
696.982	2079.2
697.171	2130.4
697.36	2013.67
697.549	1966.56
697.738	1919.46
697.927	2034.14
698.116	2066.91
698.305	2095.58
698.494	1901.03
698.683	2060.77
698.872	2058.72
699.061	1923.55
699.25	1913.31
699.438	1921.51
699.627	1896.93
699.816	2050.53
700.005	2009.57
700.193	1905.12
700.382	1991.14
700.571	1993.19
700.76	1999.33
700.948	1921.51
701.137	1948.13
701.326	2036.19
701.514	2007.52
701.703	2017.76
701.892	2032.1
702.08	2079.2
702.269	1972.71
702.457	1982.95
702.646	2159.07
702.834	1921.51
703.023	1982.95
703.212	1958.37
703.4	1952.23
703.589	1995.23
703.777	2013.67
703.965	1862.12
704.154	1901.03
704.342	1935.84
704.531	1937.89
704.719	1995.23
704.907	1991.14
705.096	1935.84
705.284	1917.41
705.472	2003.43
705.661	1925.6
705.849	1939.94
706.037	1927.65
706.226	2023.91
706.414	2001.38
706.602	1888.74
706.79	2017.76
706.979	1958.37
707.167	1888.74
707.355	1997.28
707.543	1913.31
707.731	1894.88
707.919	2003.43
708.107	2009.57
708.296	1989.09
708.484	1892.84
708.672	1919.46
708.86	1974.75
709.048	1827.3
709.236	1968.61
709.424	2052.58
709.612	1972.71
709.8	1927.65
709.988	2013.67
710.176	1937.89
710.364	1903.07
710.551	1901.03
710.739	1974.75
710.927	2081.25
711.115	2040.29
711.303	1905.12
711.491	1970.66
711.679	1901.03
711.866	1995.23
712.054	1927.65
712.242	1931.75
712.43	2052.58
712.617	1993.19
712.805	1991.14
712.993	2021.86
713.181	1978.85
713.368	2040.29
713.556	1970.66
713.744	2038.24
713.931	1956.32
714.119	1956.32
714.306	2007.52
714.494	1991.14
714.682	2013.67
714.869	1892.84
715.057	2073.06
715.244	1935.84
715.432	2134.5
715.619	2011.62
715.807	2036.19
715.994	2159.07
716.182	1972.71
716.369	1978.85
716.556	2062.82
716.744	2058.72
716.931	1937.89
717.119	2032.1
717.306	2073.06
717.493	2073.06
717.681	1935.84
717.868	2025.95
718.055	1931.75
718.242	1970.66
718.43	2034.14
718.617	2034.14
718.804	1964.51
718.991	2028
719.179	2021.86
719.366	1997.28
719.553	1901.03
719.74	2042.34
719.927	2075.1
720.114	2044.38
720.301	2085.34
720.488	2028
720.676	2015.71
720.863	2195.93
721.05	2128.35
721.237	2038.24
721.424	2083.3
721.611	2007.52
721.798	2101.73
721.985	1993.19
722.172	2040.29
722.358	2064.86
722.545	1954.27
722.732	2044.38
722.919	1982.95
723.106	1950.18
723.293	2122.21
723.48	2177.5
723.667	2073.06
723.853	2071.01
724.04	2048.48
724.227	2109.92
724.414	1974.75
724.6	2081.25
724.787	2050.53
724.974	2124.26
725.161	1978.85
725.347	2042.34
725.534	2075.1
725.72	2114.02
725.907	2023.91
726.094	2099.68
726.28	1901.03
726.467	1968.61
726.653	2021.86
726.84	2019.81
727.027	2085.34
727.213	1952.23
727.4	2064.86
727.586	2081.25
727.773	2146.78
727.959	1946.08
728.145	2054.62
728.332	2015.71
728.518	2157.02
728.705	2097.63
728.891	2099.68
729.077	2015.71
729.264	2089.44
729.45	2048.48
729.636	2044.38
729.823	1968.61
730.009	2017.76
730.195	2046.43
730.382	2218.46
730.568	2021.86
730.754	2062.82
730.94	2089.44
731.126	2140.64
731.313	2197.98
731.499	2032.1
731.685	2089.44
731.871	2083.3
732.057	2093.54
732.243	2011.62
732.429	2126.3
732.615	2093.54
732.801	2107.87
732.987	2077.15
733.173	2001.38
733.359	2081.25
733.545	2030.05
733.731	2052.58
733.917	2083.3
734.103	2052.58
734.289	2025.95
734.475	2001.38
734.661	2144.74
734.847	2118.11
735.033	2136.54
735.219	2128.35
735.404	2122.21
735.59	2120.16
735.776	2042.34
735.962	1960.42
736.148	2130.4
736.333	2075.1
736.519	2052.58
736.705	2109.92
736.89	2005.47
737.076	2124.26
737.262	1984.99
737.447	2212.32
737.633	2030.05
737.819	2048.48
738.004	2181.6
738.19	2028
738.375	1898.98
738.561	2056.67
738.747	2071.01
738.932	1997.28
739.118	2107.87
739.303	2126.3
739.489	2040.29
739.674	1999.33
739.859	2071.01
740.045	2030.05
740.23	1970.66
740.416	2011.62
740.601	1987.04
740.786	1991.14
740.972	2060.77
741.157	2011.62
741.342	1950.18
741.528	1978.85
741.713	1911.27
741.898	1925.6
742.084	1933.79
742.269	1917.41
742.454	1898.98
742.639	2005.47
742.824	1948.13
743.01	1974.75
743.195	1892.84
743.38	2064.86
743.565	1868.26
743.75	1888.74
743.935	1933.79
744.12	1909.22
744.305	1890.79
744.49	1829.35
744.675	1839.59
744.86	1911.27
745.045	1845.73
745.23	1913.31
745.415	1804.77
745.6	1866.21
745.785	1808.87
745.97	1845.73
746.155	1714.66
746.34	1880.55
746.525	1669.61
746.71	1868.26
746.895	1712.61
747.079	1784.29
747.264	1737.19
747.449	1860.07
747.634	1710.57
747.819	1749.48
748.003	1714.66
748.188	1790.44
748.373	1690.09
748.557	1702.37
748.742	1729
748.927	1683.94
749.111	1675.75
749.296	1538.54
749.481	1692.13
749.665	1554.92
749.85	1542.63
750.034	1622.5
750.219	1683.94
750.404	1524.2
750.588	1556.97
750.773	1491.43
750.957	1487.34
751.141	1593.83
751.326	1604.07
751.51	1462.76
751.695	1569.26
751.879	1561.06
752.064	1526.25
752.248	1436.14
752.432	1565.16
752.617	1487.34
752.801	1473
752.985	1454.57
753.17	1503.72
753.354	1532.39
753.538	1481.19
753.722	1352.17
753.907	1335.79
754.091	1376.75
754.275	1384.94
754.459	1356.27
754.643	1403.37
754.828	1305.07
755.012	1255.92
755.196	1352.17
755.38	1343.98
755.564	1282.54
755.748	1305.07
755.932	1313.26
756.116	1266.16
756.3	1194.48
756.484	1356.27
756.668	1311.21
756.852	1180.14
757.036	1241.58
757.22	1255.92
757.404	1182.19
757.588	1239.53
757.772	1217.01
757.956	1264.11
758.14	1268.2
758.323	1284.59
758.507	1212.91
758.691	1219.05
758.875	1202.67
759.059	1153.52
759.242	1159.66
759.426	1069.55
759.61	1202.67
759.794	1063.41
759.977	1128.94
760.161	1133.04
760.345	1081.84
760.528	1155.57
760.712	1128.94
760.895	1130.99
761.079	1034.74
761.263	997.87
761.446	987.63
761.63	1055.22
761.813	1104.37
761.997	1008.11
762.18	1077.74
762.364	995.82
762.547	987.63
762.731	1067.5
762.914	1026.54
763.098	1044.98
763.281	1024.5
763.464	1008.11
763.648	993.78
763.831	911.86
764.015	942.58
764.198	1057.26
764.381	997.87
764.564	1006.06
764.748	1028.59
764.931	1004.02
765.114	918
765.297	1006.06
765.481	1018.35
765.664	872.95
765.847	934.39
766.03	909.81
766.213	778.74
766.397	866.8
766.58	877.04
766.763	920.05
766.946	942.58
767.129	997.87
767.312	909.81
767.495	874.99
767.678	926.19
767.861	887.28
768.044	934.39
768.227	897.52
768.41	877.04
768.593	893.43
768.776	897.52
768.959	868.85
769.142	889.33
769.324	864.75
769.507	889.33
769.69	844.28
769.873	844.28
770.056	879.09
770.239	815.6
770.421	856.56
770.604	963.06
770.787	768.5
770.97	784.88
771.152	795.12
771.335	825.84
771.518	791.03
771.7	854.51
771.883	780.79
772.066	836.08
772.248	850.42
772.431	776.69
772.613	825.84
772.796	772.6
772.978	745.97
773.161	795.12
773.343	709.11
773.526	788.98
773.708	795.12
773.891	811.51
774.073	780.79
774.256	733.68
774.438	776.69
774.621	741.88
774.803	721.4
774.985	686.58
775.168	778.74
775.35	702.97
775.532	721.4
775.715	565.75
775.897	623.09
776.079	668.15
776.261	778.74
776.444	668.15
776.626	623.09
776.808	698.87
776.99	582.14
777.173	688.63
777.355	678.39
777.537	616.95
777.719	645.62
777.901	612.85
778.083	649.72
778.265	494.07
778.447	590.33
778.629	606.71
778.811	676.34
778.993	602.61
779.175	604.66
779.357	573.94
779.539	563.7
779.721	582.14
779.903	565.75
780.085	518.65
780.267	592.37
780.449	616.95
780.631	506.36
780.812	584.18
780.994	475.64
781.176	559.61
781.358	555.51
781.54	627.19
781.721	508.41
781.903	565.75
782.085	475.64
782.267	537.08
782.448	463.35
782.63	496.12
782.812	524.79
782.993	528.89
783.175	418.3
783.357	393.72
783.538	508.41
783.72	535.03
783.901	467.45
784.083	502.26
784.264	504.31
784.446	461.3
784.627	408.06
784.809	520.7
784.99	373.24
785.172	420.35
785.353	459.26
785.535	424.44
785.716	408.06
785.897	424.44
786.079	426.49
786.26	457.21
786.441	377.34
786.623	369.15
786.804	401.91
786.985	424.44
787.167	375.29
787.348	424.44
787.529	377.34
787.71	416.25
787.891	393.72
788.073	379.39
788.254	395.77
788.435	369.15
788.616	391.67
788.797	344.57
788.978	369.15
789.159	393.72
789.34	475.64
789.522	354.81
789.703	348.67
789.884	379.39
790.065	455.16
790.246	352.76
790.427	344.57
790.607	406.01
790.788	350.71
790.969	334.33
791.15	332.28
791.331	328.19
791.512	344.57
791.693	332.28
791.874	231.93
792.054	385.53
792.235	342.52
792.416	248.32
792.597	324.09
792.778	301.56
792.958	238.08
793.139	297.47
793.32	332.28
793.5	313.85
793.681	326.14
793.862	299.52
794.042	311.8
794.223	336.38
794.404	248.32
794.584	274.94
794.765	258.56
794.945	264.7
795.126	264.7
795.306	315.9
795.487	266.75
795.667	240.12
795.848	322.04
796.028	201.21
796.209	262.65
796.389	283.13
796.57	367.1
796.75	295.42
796.93	320
797.111	258.56
797.291	258.56
797.471	268.8
797.652	229.88
797.832	289.28
798.012	352.76
798.192	205.31
798.373	225.79
798.553	242.17
798.733	240.12
798.913	225.79
799.093	289.28
799.274	223.74
799.454	270.84
799.634	279.04
799.814	272.89
799.994	313.85
800.174	193.02
800.354	242.17
800.534	199.16
800.714	209.4
800.894	270.84
801.074	225.79
801.254	248.32
801.434	221.69
801.614	221.69
801.794	170.49
801.974	670.2
802.154	211.45
802.334	199.16
802.514	223.74
802.693	141.82
802.873	264.7
803.053	272.89
803.233	221.69
803.413	180.73
803.592	227.84
803.772	240.12
803.952	174.59
804.131	215.55
804.311	233.98
804.491	184.83
804.67	160.25
804.85	127.49
805.03	266.75
805.209	211.45
805.389	133.63
805.568	162.3
805.748	197.12
805.928	215.55
806.107	219.64
806.287	188.93
806.466	233.98
806.646	207.36
806.825	205.31
807.004	147.97
807.184	180.73
807.363	201.21
807.543	264.7
807.722	133.63
807.901	266.75
808.081	176.64
808.26	184.83
808.439	162.3
808.619	143.87
808.798	172.54
808.977	166.4
809.156	197.12
809.336	205.31
809.515	180.73
809.694	109.05
809.873	158.21
810.052	180.73
810.231	199.16
810.411	166.4
810.59	225.79
810.769	166.4
810.948	156.16
811.127	123.39
811.306	117.25
811.485	61.95
811.664	207.36
811.843	94.72
812.022	176.64
812.201	182.78
812.38	176.64
812.559	107.01
812.737	190.97
812.916	186.88
813.095	147.97
813.274	211.45
813.453	160.25
813.632	186.88
813.811	197.12
813.989	72.19
814.168	152.06
814.347	107.01
814.526	100.86
814.704	229.88
814.883	131.58
815.062	164.35
815.24	115.2
815.419	156.16
815.598	240.12
815.776	115.2
815.955	166.4
816.133	121.34
816.312	137.73
816.49	90.62
816.669	111.1
816.847	78.33
817.026	115.2
817.204	143.87
817.383	168.45
817.561	45.57
817.74	74.24
817.918	131.58
818.097	98.81
818.275	152.06
818.453	102.91
818.632	137.73
818.81	197.12
818.988	59.9
819.167	133.63
819.345	127.49
819.523	129.53
819.701	131.58
819.879	109.05
820.058	115.2
820.236	109.05
820.414	98.81
820.592	127.49
820.77	68.09
820.948	119.29
821.127	104.96
821.305	61.95
821.483	78.33
821.661	125.44
821.839	86.53
822.017	113.15
822.195	121.34
822.373	135.68
822.551	76.29
822.729	92.67
822.907	49.66
823.085	174.59
823.262	55.81
823.44	90.62
823.618	154.11
823.796	137.73
823.974	86.53
824.152	111.1
824.329	100.86
824.507	25.09
824.685	123.39
824.863	90.62
825.04	107.01
825.218	107.01
825.396	94.72
825.574	119.29
825.751	127.49
825.929	133.63
826.107	86.53
826.284	66.05
826.462	53.76
826.639	90.62
826.817	80.38
826.994	107.01
827.172	123.39
827.349	129.53
827.527	96.77
827.704	64
827.882	109.05
828.059	137.73
828.237	10.75
828.414	104.96
828.591	66.05
828.769	180.73
828.946	74.24
829.124	66.05
829.301	16.9
829.478	39.42
829.655	68.09
829.833	6.66
830.01	66.05
830.187	113.15
830.364	12.8
830.542	90.62
830.719	88.57
830.896	96.77
831.073	57.86
831.25	70.14
831.427	10.75
831.604	135.68
831.782	86.53
831.959	57.86
832.136	84.48
832.313	76.29
832.49	16.9
832.667	72.19
832.844	55.81
833.021	98.81
833.198	49.66
833.374	150.01
833.551	86.53
833.728	74.24
833.905	147.97
834.082	53.76
834.259	70.14
834.436	74.24
834.612	53.76
834.789	43.52
834.966	84.48
835.143	12.8
835.319	43.52
835.496	107.01
835.673	6.66
835.85	84.48
836.026	74.24
836.203	49.66
836.38	35.33
836.556	18.94
836.733	90.62
836.909	84.48
837.086	98.81
837.262	51.71
837.439	-24.06
837.616	70.14
837.792	14.85
837.968	68.09
838.145	57.86
838.321	4.61
838.498	66.05
838.674	2.56
838.851	23.04
839.027	76.29
839.203	27.14
839.38	6.66
839.556	74.24
839.732	127.49
839.909	41.47
840.085	72.19
840.261	64
840.437	76.29
840.614	107.01
840.79	158.21
840.966	129.53
841.142	82.43
841.318	90.62
841.494	51.71
841.671	94.72
841.847	25.09
842.023	53.76
842.199	33.28
842.375	127.49
842.551	20.99
842.727	-24.06
842.903	82.43
843.079	-85.5
843.255	107.01
843.431	131.58
843.607	-44.54
843.783	-46.59
843.959	104.96
844.134	47.62
844.31	4.61
844.486	70.14
844.662	10.75
844.838	37.38
845.013	94.72
845.189	66.05
845.365	115.2
845.541	92.67
845.716	2.56
845.892	35.33
846.068	35.33
846.244	12.8
846.419	80.38
846.595	74.24
846.77	-32.26
846.946	94.72
847.122	31.23
847.297	4.61
847.473	49.66
847.648	12.8
847.824	98.81
847.999	49.66
848.175	18.94
848.35	37.38
848.526	84.48
848.701	-30.21
848.876	53.76
849.052	8.7
849.227	-3.58
849.403	29.18
849.578	-19.97
849.753	41.47
849.929	-3.58
850.104	53.76
850.279	59.9
850.454	-7.68
850.63	25.09
850.805	131.58
850.98	-30.21
851.155	39.42
851.33	27.14
851.505	-28.16
851.681	82.43
851.856	133.63
852.031	70.14
852.206	88.57
852.381	68.09
852.556	72.19
852.731	33.28
852.906	-7.68
853.081	49.66
853.256	45.57
853.431	-5.63
853.606	31.23
853.781	-34.3
853.956	-17.92
854.131	16.9
854.305	-13.82
854.48	107.01
854.655	39.42
854.83	-1.54
855.005	25.09
855.18	43.52
855.354	-75.26
855.529	-5.63
855.704	0.51
855.879	0.51
856.053	-3.58
856.228	18.94
856.403	-3.58
856.577	31.23
856.752	59.9
856.926	47.62
857.101	59.9
857.276	-24.06
857.45	86.53
857.625	4.61
857.799	35.33
857.974	66.05
858.148	-11.78
858.323	25.09
858.497	45.57
858.672	59.9
858.846	57.86
859.02	-19.97
859.195	-3.58
859.369	41.47
859.543	64
859.718	37.38
859.892	-7.68
860.066	78.33
860.241	-19.97
860.415	14.85
860.589	12.8
860.763	-19.97
860.938	18.94
861.112	31.23
861.286	78.33
861.46	59.9
861.634	4.61
861.808	68.09
861.982	-3.58
862.157	43.52
862.331	14.85
862.505	47.62
862.679	-1.54
862.853	-46.59
863.027	-40.45
863.201	94.72
863.375	-26.11
863.549	10.75
863.722	74.24
863.896	76.29
864.07	18.94
864.244	23.04
864.418	-5.63
864.592	14.85
864.766	64
864.939	-19.97
865.113	-1.54
865.287	16.9
865.461	-30.21
865.634	-15.87
865.808	78.33
865.982	57.86
866.156	31.23
866.329	-40.45
866.503	-32.26
866.676	70.14
866.85	-1.54
867.024	-7.68
867.197	41.47
867.371	51.71
867.544	68.09
867.718	23.04
867.891	74.24
868.065	-1.54
868.238	-15.87
868.412	27.14
868.585	31.23
868.759	-28.16
868.932	45.57
869.105	-17.92
869.279	37.38
869.452	-13.82
869.625	78.33
869.799	43.52
869.972	-36.35
870.145	25.09
870.319	41.47
870.492	66.05
870.665	33.28
870.838	2.56
871.011	25.09
871.185	10.75
871.358	-1.54
871.531	76.29
871.704	18.94
871.877	10.75
872.05	10.75
872.223	45.57
872.396	78.33
872.569	66.05
872.742	-22.02
872.915	41.47
873.088	20.99
873.261	6.66
873.434	59.9
873.607	41.47
873.78	35.33
873.953	-50.69
874.126	59.9
874.299	12.8
874.471	-15.87
874.644	59.9
874.817	51.71
874.99	66.05
875.163	-40.45
875.335	-3.58
875.508	82.43
875.681	18.94
875.853	-3.58
876.026	37.38
876.199	18.94
876.371	16.9
876.544	-30.21
876.717	61.95
876.889	-22.02
877.062	37.38
877.234	-22.02
877.407	-65.02
877.579	4.61
877.752	-7.68
877.924	29.18
878.097	45.57
878.269	64
878.442	74.24
878.614	2.56
878.786	8.7
878.959	-24.06
879.131	-28.16
879.303	-19.97
879.476	-28.16
879.648	66.05
879.82	14.85
879.993	-30.21
880.165	29.18
880.337	8.7
880.509	53.76
880.681	-73.21
880.854	-22.02
881.026	4.61
881.198	47.62
881.37	-36.35
881.542	-7.68
881.714	-15.87
881.886	37.38
882.058	57.86
882.23	2.56
882.402	10.75
882.574	-1.54
882.746	51.71
882.918	49.66
883.09	-7.68
883.262	33.28
883.434	39.42
883.606	8.7
883.778	-58.88
883.95	86.53
884.122	25.09
884.293	-7.68
884.465	43.52
884.637	8.7
884.809	-28.16
884.98	-15.87
885.152	29.18
885.324	-5.63
885.496	-11.78
885.667	-32.26
885.839	-67.07
886.011	41.47
886.182	8.7
886.354	45.57
886.525	47.62
886.697	-15.87
886.869	23.04
887.04	-40.45
887.212	35.33
887.383	92.67
887.555	55.81
887.726	-5.63
887.897	-28.16
888.069	-42.5
888.24	51.71
888.412	53.76
888.583	31.23
888.754	23.04
888.926	-13.82
889.097	-54.78
889.268	-34.3
889.44	4.61
889.611	-50.69
889.782	10.75
889.953	45.57
890.125	37.38
890.296	10.75
890.467	16.9
890.638	20.99
890.809	45.57
890.98	-5.63
891.151	-15.87
891.323	27.14
891.494	41.47
891.665	53.76
891.836	-17.92
892.007	37.38
892.178	-24.06
892.349	33.28
892.52	-24.06
892.691	90.62
892.862	12.8
893.032	-52.74
893.203	-30.21
893.374	16.9
893.545	10.75
893.716	-67.07
893.887	23.04
894.057	-13.82
894.228	4.61
894.399	-22.02
894.57	16.9
894.74	-28.16
894.911	-40.45
895.082	-3.58
895.253	-15.87
895.423	0.51
895.594	66.05
895.764	23.04
895.935	8.7
896.106	37.38
896.276	16.9
896.447	43.52
896.617	-62.98
896.788	-71.17
896.958	12.8
897.129	18.94
897.299	84.48
897.47	-3.58
897.64	25.09
897.81	-22.02
897.981	33.28
898.151	-48.64
898.322	-9.73
898.492	-48.64
898.662	23.04
898.832	35.33
899.003	6.66
899.173	55.81
899.343	33.28
899.513	51.71
