Data from USB4F104151__17__13-10-31-385.txt Node

Date: Fri Mar 14 13:10:31 EDT 2025
User: louis
Spectrometer: USB4F10415
Trigger mode: 4
Integration Time (sec): 2.000000E-2
Scans to average: 1
Electric dark correction enabled: true
Nonlinearity correction enabled: false
Boxcar width: 0
XAxis mode: Wavelengths
Number of Pixels in Spectrum: 3648
>>>>>Begin Spectral Data<<<<<
178.204	-84.99
178.424	-84.99
178.644	-84.99
178.864	-74.75
179.084	-56.32
179.304	-11.26
179.524	39.94
179.744	-7.17
179.964	41.98
180.184	-35.84
180.404	23.55
180.624	9.22
180.844	9.22
181.064	-41.98
181.283	11.26
181.503	-60.42
181.723	21.5
181.943	-78.85
182.163	82.94
182.383	56.32
182.602	54.27
182.822	7.17
183.042	15.36
183.262	-44.03
183.482	125.95
183.701	76.8
183.921	31.74
184.141	13.31
184.361	80.89
184.58	33.79
184.8	56.32
185.02	3.07
185.239	60.42
185.459	-25.6
185.679	21.5
185.898	-11.26
186.118	44.03
186.338	-13.31
186.557	-3.07
186.777	44.03
186.997	1.02
187.216	3.07
187.436	13.31
187.655	62.46
187.875	46.08
188.095	-3.07
188.314	74.75
188.534	37.89
188.753	37.89
188.973	21.5
189.192	3.07
189.412	48.13
189.631	15.36
189.851	-1.02
190.07	25.6
190.29	23.55
190.509	62.46
190.729	23.55
190.948	97.28
191.168	158.72
191.387	66.56
191.607	-58.37
191.826	5.12
192.045	-11.26
192.265	29.7
192.484	-11.26
192.704	-1.02
192.923	-15.36
193.142	17.41
193.362	54.27
193.581	89.09
193.8	29.7
194.02	52.22
194.239	29.7
194.458	44.03
194.678	-1.02
194.897	19.46
195.116	82.94
195.335	48.13
195.555	58.37
195.774	23.55
195.993	13.31
196.212	21.5
196.432	3.07
196.651	44.03
196.87	-9.22
197.089	64.51
197.308	64.51
197.528	78.85
197.747	23.55
197.966	3.07
198.185	123.9
198.404	46.08
198.623	7.17
198.842	44.03
199.062	-15.36
199.281	101.37
199.5	-25.6
199.719	78.85
199.938	-50.18
200.157	54.27
200.376	35.84
200.595	33.79
200.814	115.71
201.033	9.22
201.252	23.55
201.471	21.5
201.69	105.47
201.909	29.7
202.128	44.03
202.347	70.65
202.566	29.7
202.785	5.12
203.004	11.26
203.223	48.13
203.442	9.22
203.661	54.27
203.879	78.85
204.098	64.51
204.317	1.02
204.536	29.7
204.755	-35.84
204.974	37.89
205.193	68.61
205.411	35.84
205.63	52.22
205.849	5.12
206.068	37.89
206.287	-11.26
206.505	95.23
206.724	68.61
206.943	44.03
207.162	15.36
207.381	17.41
207.599	56.32
207.818	46.08
208.037	19.46
208.255	64.51
208.474	3.07
208.693	80.89
208.911	62.46
209.13	-13.31
209.349	82.94
209.567	78.85
209.786	109.57
210.005	84.99
210.223	-21.5
210.442	-3.07
210.661	95.23
210.879	3.07
211.098	29.7
211.316	50.18
211.535	48.13
211.753	17.41
211.972	13.31
212.191	-21.5
212.409	56.32
212.628	15.36
212.846	9.22
213.065	31.74
213.283	9.22
213.502	9.22
213.72	64.51
213.938	-21.5
214.157	78.85
214.375	33.79
214.594	15.36
214.812	62.46
215.031	27.65
215.249	3.07
215.467	46.08
215.686	-7.17
215.904	-1.02
216.122	1.02
216.341	21.5
216.559	66.56
216.778	95.23
216.996	23.55
217.214	5.12
217.432	35.84
217.651	105.47
217.869	39.94
218.087	-7.17
218.306	91.13
218.524	58.37
218.742	58.37
218.96	64.51
219.179	50.18
219.397	103.42
219.615	78.85
219.833	31.74
220.051	25.6
220.27	66.56
220.488	105.47
220.706	25.6
220.924	-9.22
221.142	33.79
221.36	29.7
221.578	103.42
221.796	-1.02
222.015	54.27
222.233	21.5
222.451	41.98
222.669	-15.36
222.887	74.75
223.105	84.99
223.323	62.46
223.541	-31.74
223.759	78.85
223.977	-11.26
224.195	29.7
224.413	78.85
224.631	62.46
224.849	41.98
225.067	60.42
225.285	-99.33
225.503	44.03
225.721	-29.7
225.939	82.94
226.157	48.13
226.375	140.29
226.592	-19.46
226.81	80.89
227.028	72.7
227.246	89.09
227.464	13.31
227.682	97.28
227.9	64.51
228.117	23.55
228.335	62.46
228.553	7.17
228.771	3.07
228.989	15.36
229.206	5.12
229.424	3.07
229.642	9.22
229.86	-58.37
230.077	105.47
230.295	54.27
230.513	31.74
230.731	3.07
230.948	66.56
231.166	140.29
231.384	62.46
231.601	-1.02
231.819	80.89
232.037	52.22
232.254	52.22
232.472	-15.36
232.689	-13.31
232.907	35.84
233.125	41.98
233.342	33.79
233.56	-3.07
233.777	5.12
233.995	52.22
234.213	48.13
234.43	-11.26
234.648	46.08
234.865	-23.55
235.083	80.89
235.3	11.26
235.518	52.22
235.735	33.79
235.953	58.37
236.17	7.17
236.388	1.02
236.605	35.84
236.822	80.89
237.04	27.65
237.257	80.89
237.475	52.22
237.692	46.08
237.909	66.56
238.127	21.5
238.344	58.37
238.562	103.42
238.779	54.27
238.996	-7.17
239.214	84.99
239.431	93.18
239.648	-17.41
239.865	62.46
240.083	105.47
240.3	31.74
240.517	95.23
240.735	17.41
240.952	46.08
241.169	46.08
241.386	44.03
241.603	33.79
241.821	-37.89
242.038	64.51
242.255	58.37
242.472	-11.26
242.689	29.7
242.907	5.12
243.124	33.79
243.341	23.55
243.558	3.07
243.775	-35.84
243.992	-82.94
244.209	87.04
244.426	25.6
244.643	9.22
244.86	-11.26
245.078	31.74
245.295	64.51
245.512	7.17
245.729	-3.07
245.946	148.48
246.163	105.47
246.38	97.28
246.597	-15.36
246.814	5.12
247.031	54.27
247.248	-46.08
247.464	68.61
247.681	50.18
247.898	62.46
248.115	25.6
248.332	27.65
248.549	91.13
248.766	66.56
248.983	87.04
249.2	23.55
249.417	-1.02
249.633	37.89
249.85	37.89
250.067	99.33
250.284	1.02
250.501	15.36
250.717	60.42
250.934	-7.17
251.151	-21.5
251.368	-31.74
251.585	54.27
251.801	-11.26
252.018	58.37
252.235	35.84
252.451	21.5
252.668	62.46
252.885	111.61
253.102	-31.74
253.318	46.08
253.535	19.46
253.752	-35.84
253.968	9.22
254.185	7.17
254.401	-37.89
254.618	52.22
254.835	58.37
255.051	46.08
255.268	11.26
255.484	33.79
255.701	25.6
255.917	-19.46
256.134	64.51
256.351	136.19
256.567	80.89
256.784	-3.07
257	-54.27
257.217	58.37
257.433	7.17
257.65	74.75
257.866	-7.17
258.082	50.18
258.299	46.08
258.515	37.89
258.732	-39.94
258.948	-13.31
259.165	-13.31
259.381	-7.17
259.597	44.03
259.814	54.27
260.03	62.46
260.246	5.12
260.463	91.13
260.679	74.75
260.895	64.51
261.112	78.85
261.328	52.22
261.544	41.98
261.761	95.23
261.977	-23.55
262.193	84.99
262.409	-9.22
262.626	21.5
262.842	21.5
263.058	29.7
263.274	13.31
263.49	48.13
263.707	15.36
263.923	64.51
264.139	21.5
264.355	33.79
264.571	87.04
264.787	-3.07
265.004	62.46
265.22	25.6
265.436	46.08
265.652	5.12
265.868	115.71
266.084	37.89
266.3	74.75
266.516	25.6
266.732	64.51
266.948	5.12
267.164	7.17
267.38	54.27
267.596	48.13
267.812	48.13
268.028	113.66
268.244	19.46
268.46	21.5
268.676	35.84
268.892	41.98
269.108	74.75
269.324	103.42
269.54	19.46
269.756	27.65
269.972	17.41
270.188	31.74
270.403	-19.46
270.619	-9.22
270.835	-11.26
271.051	23.55
271.267	17.41
271.483	33.79
271.698	15.36
271.914	56.32
272.13	97.28
272.346	93.18
272.562	-25.6
272.777	84.99
272.993	11.26
273.209	52.22
273.425	-9.22
273.64	-7.17
273.856	54.27
274.072	31.74
274.287	17.41
274.503	7.17
274.719	7.17
274.934	-7.17
275.15	99.33
275.366	46.08
275.581	19.46
275.797	-15.36
276.012	103.42
276.228	27.65
276.444	25.6
276.659	52.22
276.875	31.74
277.09	15.36
277.306	87.04
277.521	56.32
277.737	9.22
277.952	58.37
278.168	37.89
278.383	56.32
278.599	44.03
278.814	48.13
279.03	70.65
279.245	13.31
279.461	29.7
279.676	7.17
279.892	-1.02
280.107	39.94
280.322	27.65
280.538	60.42
280.753	-13.31
280.969	97.28
281.184	60.42
281.399	62.46
281.615	29.7
281.83	33.79
282.045	11.26
282.26	-17.41
282.476	-50.18
282.691	101.37
282.906	56.32
283.122	-5.12
283.337	50.18
283.552	-11.26
283.767	9.22
283.983	33.79
284.198	-15.36
284.413	70.65
284.628	-52.22
284.843	78.85
285.058	60.42
285.274	7.17
285.489	25.6
285.704	19.46
285.919	1.02
286.134	-1.02
286.349	27.65
286.564	54.27
286.779	89.09
286.995	-29.7
287.21	-44.03
287.425	113.66
287.64	41.98
287.855	50.18
288.07	-27.65
288.285	31.74
288.5	-13.31
288.715	93.18
288.93	-19.46
289.145	56.32
289.36	64.51
289.575	-3.07
289.79	111.61
290.004	78.85
290.219	62.46
290.434	-21.5
290.649	-3.07
290.864	29.7
291.079	15.36
291.294	87.04
291.509	5.12
291.724	5.12
291.938	-7.17
292.153	74.75
292.368	29.7
292.583	41.98
292.798	15.36
293.012	95.23
293.227	25.6
293.442	54.27
293.657	60.42
293.871	54.27
294.086	35.84
294.301	99.33
294.516	152.57
294.73	19.46
294.945	-17.41
295.16	39.94
295.374	91.13
295.589	119.81
295.804	11.26
296.018	-37.89
296.233	56.32
296.447	-17.41
296.662	60.42
296.877	91.13
297.091	17.41
297.306	95.23
297.52	15.36
297.735	50.18
297.949	97.28
298.164	66.56
298.378	44.03
298.593	-11.26
298.807	-52.22
299.022	-23.55
299.236	21.5
299.451	31.74
299.665	54.27
299.88	25.6
300.094	33.79
300.309	13.31
300.523	25.6
300.737	-21.5
300.952	-1.02
301.166	31.74
301.381	29.7
301.595	64.51
301.809	41.98
302.024	5.12
302.238	-39.94
302.452	33.79
302.667	29.7
302.881	140.29
303.095	56.32
303.309	-35.84
303.524	7.17
303.738	23.55
303.952	7.17
304.166	58.37
304.381	-52.22
304.595	140.29
304.809	29.7
305.023	39.94
305.237	50.18
305.452	-27.65
305.666	-5.12
305.88	-29.7
306.094	31.74
306.308	-7.17
306.522	-3.07
306.736	23.55
306.95	-7.17
307.164	109.57
307.379	27.65
307.593	7.17
307.807	62.46
308.021	111.61
308.235	-17.41
308.449	37.89
308.663	-17.41
308.877	119.81
309.091	46.08
309.305	31.74
309.519	37.89
309.733	29.7
309.947	74.75
310.161	-29.7
310.374	31.74
310.588	68.61
310.802	62.46
311.016	23.55
311.23	52.22
311.444	74.75
311.658	-1.02
311.872	46.08
312.085	39.94
312.299	1.02
312.513	33.79
312.727	23.55
312.941	72.7
313.154	13.31
313.368	33.79
313.582	52.22
313.796	52.22
314.009	-29.7
314.223	84.99
314.437	23.55
314.651	70.65
314.864	84.99
315.078	5.12
315.292	13.31
315.505	15.36
315.719	27.65
315.933	54.27
316.146	70.65
316.36	91.13
316.573	41.98
316.787	148.48
317.001	19.46
317.214	-19.46
317.428	64.51
317.641	23.55
317.855	13.31
318.068	50.18
318.282	99.33
318.495	39.94
318.709	117.76
318.922	9.22
319.136	13.31
319.349	-17.41
319.563	-15.36
319.776	70.65
319.99	56.32
320.203	68.61
320.417	9.22
320.63	56.32
320.843	138.24
321.057	113.66
321.27	72.7
321.483	93.18
321.697	56.32
321.91	48.13
322.124	13.31
322.337	-11.26
322.55	58.37
322.763	37.89
322.977	-17.41
323.19	37.89
323.403	66.56
323.617	31.74
323.83	70.65
324.043	21.5
324.256	78.85
324.469	25.6
324.683	72.7
324.896	64.51
325.109	52.22
325.322	3.07
325.535	107.52
325.748	78.85
325.962	107.52
326.175	80.89
326.388	82.94
326.601	89.09
326.814	39.94
327.027	33.79
327.24	150.53
327.453	3.07
327.666	5.12
327.879	109.57
328.092	64.51
328.305	58.37
328.518	95.23
328.731	-3.07
328.944	76.8
329.157	54.27
329.37	-39.94
329.583	93.18
329.796	41.98
330.009	56.32
330.222	21.5
330.435	37.89
330.648	50.18
330.861	37.89
331.073	5.12
331.286	66.56
331.499	68.61
331.712	44.03
331.925	-41.98
332.138	78.85
332.35	48.13
332.563	54.27
332.776	48.13
332.989	5.12
333.202	91.13
333.414	39.94
333.627	54.27
333.84	56.32
334.053	50.18
334.265	48.13
334.478	23.55
334.691	68.61
334.903	46.08
335.116	9.22
335.329	82.94
335.541	54.27
335.754	68.61
335.966	13.31
336.179	5.12
336.392	66.56
336.604	21.5
336.817	15.36
337.029	64.51
337.242	54.27
337.454	99.33
337.667	23.55
337.88	105.47
338.092	33.79
338.305	33.79
338.517	-41.98
338.729	54.27
338.942	99.33
339.154	-5.12
339.367	56.32
339.579	62.46
339.792	-31.74
340.004	48.13
340.217	29.7
340.429	62.46
340.641	37.89
340.854	111.61
341.066	111.61
341.278	25.6
341.491	107.52
341.703	46.08
341.915	-3.07
342.128	44.03
342.34	27.65
342.552	48.13
342.764	-23.55
342.977	64.51
343.189	23.55
343.401	25.6
343.613	25.6
343.826	9.22
344.038	15.36
344.25	68.61
344.462	33.79
344.674	62.46
344.886	9.22
345.099	84.99
345.311	64.51
345.523	46.08
345.735	39.94
345.947	128
346.159	1.02
346.371	35.84
346.583	72.7
346.795	33.79
347.007	7.17
347.219	31.74
347.431	46.08
347.643	62.46
347.855	-15.36
348.067	46.08
348.279	7.17
348.491	80.89
348.703	-1.02
348.915	46.08
349.127	9.22
349.339	54.27
349.551	60.42
349.763	27.65
349.975	58.37
350.187	93.18
350.399	15.36
350.61	17.41
350.822	93.18
351.034	7.17
351.246	78.85
351.458	107.52
351.669	58.37
351.881	37.89
352.093	72.7
352.305	54.27
352.517	33.79
352.728	60.42
352.94	25.6
353.152	39.94
353.363	-35.84
353.575	64.51
353.787	136.19
353.999	27.65
354.21	13.31
354.422	17.41
354.633	13.31
354.845	13.31
355.057	33.79
355.268	84.99
355.48	70.65
355.692	25.6
355.903	33.79
356.115	58.37
356.326	15.36
356.538	76.8
356.749	37.89
356.961	62.46
357.172	52.22
357.384	93.18
357.595	82.94
357.807	-9.22
358.018	-9.22
358.23	89.09
358.441	107.52
358.653	87.04
358.864	33.79
359.075	35.84
359.287	82.94
359.498	78.85
359.709	76.8
359.921	80.89
360.132	138.24
360.344	58.37
360.555	-31.74
360.766	35.84
360.977	31.74
361.189	64.51
361.4	9.22
361.611	113.66
361.823	15.36
362.034	72.7
362.245	-17.41
362.456	115.71
362.667	11.26
362.879	33.79
363.09	13.31
363.301	82.94
363.512	91.13
363.723	60.42
363.935	29.7
364.146	21.5
364.357	58.37
364.568	54.27
364.779	-19.46
364.99	128
365.201	48.13
365.412	91.13
365.623	48.13
365.834	29.7
366.045	56.32
366.256	5.12
366.467	-5.12
366.678	33.79
366.889	105.47
367.1	37.89
367.311	111.61
367.522	37.89
367.733	89.09
367.944	70.65
368.155	105.47
368.366	107.52
368.577	17.41
368.788	29.7
368.999	21.5
369.209	62.46
369.42	56.32
369.631	33.79
369.842	111.61
370.053	95.23
370.264	78.85
370.474	23.55
370.685	44.03
370.896	62.46
371.107	56.32
371.317	56.32
371.528	84.99
371.739	56.32
371.95	74.75
372.16	60.42
372.371	44.03
372.582	52.22
372.792	99.33
373.003	64.51
373.214	87.04
373.424	48.13
373.635	50.18
373.846	72.7
374.056	23.55
374.267	41.98
374.477	19.46
374.688	136.19
374.898	7.17
375.109	50.18
375.319	11.26
375.53	48.13
375.74	101.37
375.951	11.26
376.161	111.61
376.372	179.2
376.582	-23.55
376.793	115.71
377.003	74.75
377.214	15.36
377.424	17.41
377.635	27.65
377.845	-1.02
378.055	25.6
378.266	46.08
378.476	70.65
378.686	48.13
378.897	52.22
379.107	48.13
379.317	48.13
379.528	89.09
379.738	128
379.948	-39.94
380.158	44.03
380.369	78.85
380.579	15.36
380.789	27.65
380.999	87.04
381.21	60.42
381.42	3.07
381.63	60.42
381.84	68.61
382.05	111.61
382.261	78.85
382.471	82.94
382.681	39.94
382.891	48.13
383.101	119.81
383.311	13.31
383.521	82.94
383.731	64.51
383.941	87.04
384.151	62.46
384.361	64.51
384.571	89.09
384.781	48.13
384.991	93.18
385.201	82.94
385.411	72.7
385.621	91.13
385.831	119.81
386.041	46.08
386.251	39.94
386.461	76.8
386.671	64.51
386.881	89.09
387.091	27.65
387.301	37.89
387.511	74.75
387.72	33.79
387.93	78.85
388.14	82.94
388.35	44.03
388.56	105.47
388.769	21.5
388.979	123.9
389.189	-9.22
389.399	35.84
389.609	113.66
389.818	54.27
390.028	72.7
390.238	93.18
390.447	97.28
390.657	48.13
390.867	41.98
391.076	64.51
391.286	97.28
391.496	21.5
391.705	121.85
391.915	99.33
392.125	113.66
392.334	46.08
392.544	68.61
392.753	17.41
392.963	46.08
393.172	128
393.382	39.94
393.591	132.09
393.801	93.18
394.01	109.57
394.22	66.56
394.429	95.23
394.639	-11.26
394.848	13.31
395.058	97.28
395.267	37.89
395.477	70.65
395.686	87.04
395.895	111.61
396.105	158.72
396.314	54.27
396.524	21.5
396.733	80.89
396.942	74.75
397.152	130.05
397.361	68.61
397.57	25.6
397.78	111.61
397.989	78.85
398.198	154.62
398.407	105.47
398.617	78.85
398.826	111.61
399.035	48.13
399.244	78.85
399.453	113.66
399.663	103.42
399.872	209.92
400.081	70.65
400.29	91.13
400.499	82.94
400.708	144.38
400.917	46.08
401.127	21.5
401.336	84.99
401.545	84.99
401.754	101.37
401.963	144.38
402.172	103.42
402.381	134.14
402.59	168.96
402.799	142.33
403.008	164.86
403.217	119.81
403.426	230.4
403.635	115.71
403.844	95.23
404.053	103.42
404.262	171.01
404.471	244.73
404.68	130.05
404.888	138.24
405.097	144.38
405.306	185.34
405.515	152.57
405.724	187.39
405.933	173.05
406.142	181.25
406.35	156.67
406.559	152.57
406.768	62.46
406.977	140.29
407.185	205.82
407.394	152.57
407.603	203.77
407.812	140.29
408.02	152.57
408.229	185.34
408.438	146.43
408.646	121.85
408.855	234.49
409.064	244.73
409.272	205.82
409.481	228.35
409.69	175.1
409.898	293.88
410.107	234.49
410.315	310.27
410.524	242.68
410.733	357.37
410.941	277.5
411.15	386.04
411.358	338.94
411.567	359.42
411.775	398.33
411.984	332.79
412.192	332.79
412.401	402.43
412.609	388.09
412.818	414.71
413.026	396.28
413.234	420.86
413.443	396.28
413.651	455.67
413.86	494.58
414.068	574.46
414.276	576.5
414.485	488.44
414.693	605.17
414.901	504.82
415.11	504.82
415.318	611.32
415.526	621.56
415.734	639.99
415.943	646.13
416.151	648.18
416.359	633.85
416.567	781.3
416.776	752.63
416.984	906.23
417.192	797.68
417.4	812.02
417.608	748.53
417.817	875.51
418.025	859.12
418.233	992.24
418.441	898.03
418.649	1084.4
418.857	1094.64
419.065	1049.58
419.273	1029.1
419.481	1176.56
419.689	1184.75
419.897	1217.52
420.105	1203.18
420.313	1307.63
420.521	1385.45
420.729	1403.88
420.937	1381.35
421.145	1369.07
421.353	1397.74
421.561	1616.87
421.769	1588.2
421.977	1727.46
422.185	1684.45
422.393	1782.76
422.601	2003.94
422.809	1850.34
423.017	1817.57
423.224	1928.16
423.432	1995.75
423.64	2073.57
423.848	2284.51
424.056	2198.49
424.263	2431.96
424.471	2368.48
424.679	2434.01
424.887	2444.25
425.094	2544.6
425.302	2642.9
425.51	2653.14
425.718	2827.22
425.925	2825.17
426.133	2757.59
426.341	3113.94
426.548	3333.07
426.756	3230.67
426.964	3304.4
427.171	3619.78
427.379	3458
427.586	3685.32
427.794	3658.7
428.001	3883.97
428.209	4037.57
428.417	4072.39
428.624	4139.97
428.832	4326.33
429.039	4338.62
429.247	4213.7
429.454	4688.82
429.662	4957.11
429.869	4694.97
430.076	4961.2
430.284	4750.26
430.491	5092.27
430.699	5426.09
430.906	5346.22
431.114	5366.7
431.321	5809.06
431.528	5841.83
431.736	6044.58
431.943	6353.82
432.15	6159.27
432.358	6353.82
432.565	6501.28
432.772	6470.56
432.979	6787.99
433.187	7132.05
433.394	7009.17
433.601	7584.65
433.808	7644.04
434.016	7558.03
434.223	8012.68
434.43	8577.92
434.637	8151.94
434.844	8776.57
435.052	8881.02
435.259	8862.58
435.466	8864.63
435.673	8706.94
435.88	9431.92
436.087	9759.6
436.294	9931.62
436.501	9818.99
436.708	9747.31
436.915	10029.93
437.122	10828.63
437.329	10543.97
437.537	10965.85
437.743	11019.1
437.95	11117.4
438.157	11549.52
438.364	12057.42
438.571	11942.73
438.778	12022.6
438.985	13177.65
439.192	12534.59
439.399	12874.56
439.606	12702.53
439.813	13665.07
440.02	14340.9
440.227	14125.86
440.433	14101.29
440.64	14486.31
440.847	14283.56
441.054	14514.98
441.261	15612.69
441.467	15381.27
441.674	15751.95
441.881	16425.73
442.088	16352.01
442.294	16302.86
442.501	16849.66
442.708	16995.07
442.914	17496.82
443.121	18238.19
443.328	17810.16
443.534	18809.57
443.741	18569.96
443.948	18012.91
444.154	19620.56
444.361	19651.28
444.568	19669.72
444.774	19856.08
444.981	19870.42
445.187	20273.87
445.394	21365.43
445.6	21039.81
445.807	23030.43
446.013	22368.94
446.22	22436.52
446.426	23437.98
446.633	23825.04
446.839	24277.65
447.046	23485.08
447.252	24750.73
447.459	24814.21
447.665	24582.79
447.871	25891.44
448.078	26985.06
448.284	25799.29
448.491	26258.03
448.697	27501.15
448.903	28236.37
449.11	27785.82
449.316	27763.29
449.522	27867.73
449.728	28977.73
449.935	29123.14
450.141	29049.41
450.347	30075.45
450.553	28678.73
450.76	29309.5
450.966	30347.82
451.172	30206.52
451.378	30939.69
451.584	30050.87
451.791	31142.44
451.997	30652.97
452.203	31250.98
452.409	31435.3
452.615	31207.97
452.821	29923.9
453.027	29870.65
453.233	31537.69
453.44	29962.81
453.646	30659.12
453.852	30614.06
454.058	31164.96
454.264	30413.36
454.47	31023.65
454.676	30114.36
454.882	31226.4
455.088	28398.16
455.294	29108.8
455.5	29082.18
455.705	29655.61
455.911	28539.47
456.117	27927.13
456.323	27857.49
456.529	26464.88
456.735	27376.22
456.941	26729.06
457.147	26456.68
457.352	25379.45
457.558	25408.12
457.764	25154.18
457.97	24638.09
458.176	24521.35
458.381	24320.65
458.587	23036.58
458.793	23536.28
458.999	21734.07
459.204	23478.94
459.41	22833.83
459.616	21336.76
459.821	21293.76
460.027	21222.08
460.233	20869.83
460.438	19737.3
460.644	20177.61
460.85	19141.34
461.055	18641.64
461.261	19063.52
461.466	17429.24
461.672	17101.56
461.878	18223.85
462.083	16808.7
462.289	16579.33
462.494	16456.45
462.7	15575.83
462.905	15455
463.111	15862.54
463.316	15946.51
463.522	15485.72
463.727	15526.68
463.932	15469.33
464.138	15446.8
464.343	15604.5
464.549	14873.37
464.754	15442.71
464.959	15213.34
465.165	15209.24
465.37	14621.47
465.575	14138.15
465.781	14842.65
465.986	14703.39
466.191	14250.79
466.397	14011.18
466.602	13499.19
466.807	13599.54
467.012	13923.12
467.218	13976.36
467.423	13544.24
467.628	13953.84
467.833	14183.21
468.038	13818.67
468.244	13443.89
468.449	13574.96
468.654	13443.89
468.859	13368.12
469.064	13620.02
469.269	12753.73
469.474	12909.37
469.679	13009.72
469.885	12573.5
470.09	13042.49
470.295	12888.89
470.5	12376.9
470.705	12669.76
470.91	12424
471.115	12196.68
471.32	12311.36
471.525	12151.62
471.73	12120.9
471.935	11893.58
472.139	11475.79
472.344	11840.33
472.549	11574.1
472.754	11506.51
472.959	11303.76
473.164	10949.46
473.369	10990.42
473.574	11377.49
473.778	11332.44
473.983	10869.59
474.188	11015
474.393	10527.58
474.598	10527.58
474.802	10558.3
475.007	10431.33
475.212	10333.03
475.417	10113.89
475.621	10025.83
475.826	10238.82
476.031	9818.99
476.235	9745.26
476.44	9628.53
476.645	9698.16
476.849	9708.4
477.054	9429.87
477.259	9374.58
477.463	9399.15
477.668	9145.2
477.872	9141.11
478.077	9208.69
478.282	8885.11
478.486	8835.96
478.691	8690.56
478.895	8663.93
479.1	8698.75
479.304	8717.18
479.509	8489.85
479.713	8524.67
479.918	8536.96
480.122	8272.77
480.326	8559.49
480.531	8475.52
480.735	8328.06
480.94	8340.35
481.144	8618.88
481.348	8053.64
481.553	8184.71
481.757	8104.84
481.961	8178.56
482.166	8332.16
482.37	8199.04
482.574	7928.71
482.778	8055.69
482.983	8260.48
483.187	8151.94
483.391	8106.88
483.595	8037.25
483.8	8045.45
484.004	8094.6
484.208	8158.08
484.412	8059.78
484.616	8057.73
484.821	8067.97
485.025	8057.73
485.229	8190.85
485.433	8117.12
485.637	7930.76
485.841	8098.69
486.045	7877.51
486.249	7963.53
486.453	8010.63
486.657	8014.73
486.861	8196.99
487.065	7750.54
487.269	8135.56
487.473	7965.57
487.677	8074.12
487.881	8131.46
488.085	7969.67
488.289	8246.15
488.493	8086.4
488.697	8051.59
488.901	7941
489.105	7920.52
489.309	8315.78
489.512	8373.12
489.716	8033.16
489.92	8223.62
490.124	8203.14
490.328	8446.85
490.531	8240
490.735	8182.66
490.939	8289.15
491.143	8332.16
491.346	8295.3
491.55	8348.54
491.754	8336.26
491.958	8436.61
492.161	8479.61
492.365	8489.85
492.569	8426.37
492.772	8360.83
492.976	8403.84
493.18	8588.16
493.383	8577.92
493.587	8944.5
493.79	9071.48
493.994	8670.08
494.197	8870.78
494.401	8989.56
494.605	8856.44
494.808	8967.03
495.012	9001.85
495.215	9329.52
495.419	9141.11
495.622	9143.16
495.825	9409.39
496.029	9151.35
496.232	9446.26
496.436	9382.77
496.639	9728.88
496.843	9556.85
497.046	9909.1
497.249	9861.99
497.453	9980.78
497.656	9921.38
497.859	10079.08
498.063	10222.44
498.266	10486.62
498.469	10539.87
498.673	10662.75
498.876	10713.95
499.079	10906.46
499.282	10875.74
499.485	10894.17
499.689	10976.09
499.892	11189.08
500.095	11336.53
500.298	11619.15
500.501	11393.87
500.705	11821.9
500.908	11723.6
501.111	11948.87
501.314	11932.49
501.517	12313.41
501.72	12278.6
501.923	12249.93
502.126	12485.44
502.329	12784.44
502.532	12690.24
502.735	12933.95
502.938	13042.49
503.141	13245.24
503.344	13583.15
503.547	13607.73
503.75	13667.12
503.953	13847.34
504.156	13814.57
504.359	14056.23
504.562	14226.21
504.765	14402.34
504.968	14560.03
505.17	14629.66
505.373	14875.42
505.576	14701.34
505.779	15065.88
505.982	15295.25
506.185	15510.29
506.387	15710.99
506.59	15766.29
506.793	16079.63
506.996	15782.67
507.198	16489.22
507.401	16329.48
507.604	16560.9
507.807	16909.05
508.009	16739.07
508.212	16857.85
508.415	17345.27
508.617	17353.46
508.82	17832.69
509.022	17756.91
509.225	17974
509.428	17959.66
509.63	18537.19
509.833	18178.79
510.035	18797.28
510.238	18537.19
510.44	19100.38
510.643	19413.72
510.845	19421.91
511.048	19221.21
511.25	19735.25
511.453	19612.37
511.655	20513.48
511.858	20257.48
512.06	20327.11
512.262	20667.08
512.465	20667.08
512.667	21000.9
512.87	21197.5
513.072	21023.42
513.274	21568.18
513.477	22026.93
513.679	22170.29
513.881	22223.53
514.084	22229.68
514.286	22291.12
514.488	22647.46
514.69	23296.67
514.893	22960.8
515.095	23302.81
515.297	23368.35
515.499	23648.92
515.701	23837.33
515.904	24261.26
516.106	24326.8
516.308	24613.51
516.51	24855.17
516.712	24941.19
516.914	25119.36
517.116	25617.02
517.318	25477.76
517.52	25537.15
517.722	25913.97
517.925	26159.73
518.127	26565.23
518.329	26829.41
518.531	26624.62
518.733	27126.37
518.935	27298.4
519.136	27284.06
519.338	27587.16
519.54	27746.9
519.742	27949.65
519.944	28375.63
520.146	28897.86
520.348	28672.59
520.55	28758.6
520.752	29065.8
520.954	29770.3
521.155	29604.41
521.357	29932.09
521.559	29817.4
521.761	30454.32
521.963	30421.55
522.164	30480.94
522.366	30564.91
522.568	30693.93
522.77	31081
522.971	31529.5
523.173	31023.65
523.375	31808.03
523.576	31549.98
523.778	31724.06
523.98	31973.91
524.181	32604.69
524.383	32180.76
524.584	32756.24
524.786	32936.46
524.988	32696.85
525.189	33249.8
525.391	33694.21
525.592	33356.29
525.794	33493.5
525.995	33683.97
526.197	33876.48
526.398	34128.38
526.6	34447.86
526.801	34132.47
527.003	34359.8
527.204	34400.76
527.406	34869.74
527.607	34759.15
527.808	34957.8
528.01	34519.54
528.211	34873.84
528.412	35611.1
528.614	34935.27
528.815	35449.32
529.016	35789.28
529.218	35490.27
529.419	35633.63
529.62	35629.54
529.822	35434.98
530.023	35471.84
530.224	35871.2
530.425	35844.57
530.626	35854.81
530.828	35600.86
531.029	36387.28
531.23	36022.75
531.431	35727.84
531.632	35795.42
531.833	36446.68
532.035	35936.73
532.236	36166.1
532.437	36207.06
532.638	36209.11
532.839	36186.58
533.04	36295.13
533.241	36407.76
533.442	36952.52
533.643	36727.25
533.844	36686.29
534.045	36739.54
534.246	36233.69
534.447	36645.33
534.648	36587.99
534.849	36815.31
535.05	36551.12
535.251	36579.79
535.451	36508.11
535.652	36858.32
535.853	36618.71
536.054	36897.23
536.255	36817.36
536.456	36610.51
536.657	36776.4
536.857	36522.45
537.058	36387.28
537.259	36665.81
537.46	36938.19
537.66	36221.4
537.861	36952.52
538.062	36415.96
538.263	36649.42
538.463	36694.48
538.664	36385.24
538.865	36856.27
539.065	36985.29
539.266	36530.64
539.466	37175.75
539.667	36313.56
539.868	37243.34
540.068	36897.23
540.269	36514.26
540.469	37089.74
540.67	36360.66
540.87	36837.84
541.071	36405.72
541.271	36764.11
541.472	36610.51
541.672	36630.99
541.873	36301.27
542.073	36043.23
542.274	36979.15
542.474	36092.38
542.675	36364.76
542.875	36839.89
543.075	36463.06
543.276	36311.51
543.476	36864.46
543.676	36540.88
543.877	36618.71
544.077	36506.07
544.277	36479.44
544.478	36420.05
544.678	36350.42
544.878	36590.03
545.078	36604.37
545.279	36293.08
545.479	36221.4
545.679	36403.67
545.879	36567.51
546.079	36211.16
546.28	36088.28
546.48	35977.69
546.68	36194.78
546.88	36811.21
547.08	36278.74
547.28	36499.92
547.48	35893.72
547.68	36542.93
547.88	36028.89
548.081	36544.98
548.281	36467.16
548.481	36272.6
548.681	36362.71
548.881	36098.52
549.081	36147.67
549.28	36268.5
549.48	36202.97
549.68	36481.49
549.88	36538.83
550.08	36162.01
550.28	36790.73
550.48	36229.59
550.68	36512.21
550.88	36131.29
551.08	35987.93
551.279	36411.86
551.479	35985.88
551.679	36428.24
551.879	36108.76
552.079	36454.87
552.278	36219.35
552.478	35955.16
552.678	35967.45
552.878	36172.25
553.077	35922.4
553.277	35963.36
553.477	36286.93
553.676	35903.96
553.876	36127.19
554.076	35754.46
554.275	36043.23
554.475	35467.75
554.674	35811.81
554.874	35525.09
555.074	35639.78
555.273	36293.08
555.473	35693.02
555.672	35475.94
555.872	35537.38
556.071	35760.61
556.271	35797.47
556.47	35178.98
556.67	35156.46
556.869	35461.6
557.068	35316.2
557.268	34996.71
557.467	35447.27
557.667	35637.73
557.866	35211.75
558.065	35439.08
558.265	35195.37
558.464	35103.21
558.663	35572.19
558.863	34927.08
559.062	35500.51
559.261	35027.43
559.461	35273.19
559.66	34808.3
559.859	35123.69
560.058	34595.31
560.258	35019.24
560.457	34591.22
560.656	34939.37
560.855	34255.35
561.054	34417.14
561.253	34439.67
561.453	34497.01
561.652	34957.8
561.851	34658.8
562.05	34576.88
562.249	34429.43
562.448	34634.22
562.647	34224.63
562.846	34230.77
563.045	34298.36
563.244	33673.73
563.443	34666.99
563.642	33645.05
563.841	34146.81
564.04	33608.19
564.239	34077.18
564.438	33821.18
564.637	33911.29
564.836	33874.43
565.035	33532.42
565.234	33841.66
565.432	33382.91
565.631	33251.84
565.83	33360.39
566.029	32948.75
566.228	33329.67
566.427	32829.96
566.625	33057.29
566.824	32854.54
567.023	33108.49
567.222	32475.66
567.42	32872.97
567.619	32680.46
567.818	32551.44
568.016	32569.87
568.215	32739.85
568.414	32260.63
568.612	32690.7
568.811	32074.26
569.01	32737.8
569.208	31885.85
569.407	32264.72
569.605	32223.76
569.804	32487.95
570.002	31615.52
570.201	32113.17
570.4	31736.35
570.598	31472.16
570.797	31498.78
570.995	31873.56
571.193	31240.74
571.392	31814.17
571.59	31592.99
571.789	31453.73
571.987	31490.59
572.186	31062.57
572.384	30923.3
572.582	31541.79
572.781	31296.03
572.979	30722.6
573.177	31011.37
573.376	30904.87
573.574	30333.49
573.772	30945.83
573.971	30626.35
574.169	30579.25
574.367	30159.41
574.565	30818.86
574.763	30411.31
574.962	30413.36
575.16	30091.83
575.358	30374.45
575.556	29995.57
575.754	30399.02
575.952	29993.53
576.151	30175.8
576.349	29577.79
576.547	29637.18
576.745	29819.45
576.943	29841.98
577.141	29487.68
577.339	29815.35
577.537	29338.18
577.735	29317.7
577.933	29221.44
578.131	29235.78
578.329	29295.17
578.527	28901.96
578.725	29125.19
578.923	29069.89
579.121	28830.28
579.319	28623.44
579.516	28987.97
579.714	28633.68
579.912	28602.96
580.11	28291.66
580.308	28349.01
580.506	28029.52
580.704	27998.8
580.901	27968.09
581.099	28389.97
581.297	27949.65
581.495	28125.78
581.692	27937.37
581.89	27791.96
582.088	27914.84
582.285	27753.05
582.483	28017.24
582.681	27495
582.878	27654.75
583.076	27263.58
583.274	27480.67
583.471	27101.79
583.669	27245.15
583.866	27228.77
584.064	27296.35
584.262	27075.17
584.459	27036.26
584.657	26997.35
584.854	26737.26
585.052	26444.4
585.249	26872.42
585.447	26763.88
585.644	26514.03
585.841	26669.67
586.039	26794.6
586.236	26546.79
586.434	26227.31
586.631	26182.26
586.828	26403.44
587.026	26505.84
587.223	25954.93
587.42	25850.49
587.618	25977.46
587.815	25674.36
588.012	25592.44
588.21	25700.98
588.407	25905.78
588.604	25444.99
588.801	25324.16
588.999	25465.47
589.196	25582.2
589.393	25604.73
589.59	25387.64
589.787	25012.87
589.984	24914.56
590.182	24754.82
590.379	25014.91
590.576	24855.17
590.773	24984.19
590.97	25059.97
591.167	24892.04
591.364	24461.96
591.561	24785.54
591.758	24138.38
591.955	24537.74
592.152	24656.52
592.349	24441.48
592.546	24246.93
592.743	24195.73
592.94	24058.51
593.137	24003.22
593.334	24062.61
593.531	23620.25
593.727	23765.65
593.924	23777.94
594.121	23775.89
594.318	23724.69
594.515	23579.29
594.712	23599.77
594.908	23540.38
595.105	23048.86
595.302	23386.78
595.499	23491.23
595.696	23134.88
595.892	23134.88
596.089	23147.17
596.286	23124.64
596.482	22917.79
596.679	22995.62
596.876	23206.56
597.072	23071.39
597.269	22696.61
597.466	22264.49
597.662	22520.49
597.859	22424.23
598.055	22524.58
598.252	22174.38
598.448	22377.13
598.645	22233.77
598.841	21805.75
599.038	22055.6
599.234	22221.48
599.431	21883.57
599.627	21754.55
599.824	22057.65
600.02	21676.73
600.217	22166.19
600.413	21566.13
600.609	21531.32
600.806	21215.93
601.002	21271.23
601.198	21390.01
601.395	21263.04
601.591	21316.28
601.787	21316.28
601.984	20953.79
602.18	21570.23
602.376	20943.55
602.572	20982.46
602.769	20959.94
602.965	20574.92
603.161	20921.02
603.357	20705.99
603.553	20812.48
603.75	20556.49
603.946	20249.29
604.142	20603.59
604.338	20032.21
604.534	20738.76
604.73	20155.08
604.926	20316.87
605.122	20382.41
605.318	20122.32
605.514	19970.77
605.71	19911.38
605.906	19849.94
606.102	20165.32
606.298	20089.55
606.494	19972.82
606.69	19567.32
606.886	20007.63
607.082	19526.36
607.278	19679.96
607.474	19440.34
607.67	19518.17
607.866	19184.35
608.062	19473.11
608.257	19329.75
608.453	19131.1
608.649	19532.5
608.845	19301.08
609.041	19217.11
609.236	19198.68
609.432	18981.6
609.628	19088.09
609.824	19129.05
610.019	18864.86
610.215	19016.41
610.411	18881.25
610.606	18825.95
610.802	18991.84
610.998	18754.27
611.193	18891.49
611.389	18619.11
611.584	18774.75
611.78	18490.09
611.976	18526.95
612.171	18529
612.367	18746.08
612.562	18363.11
612.758	18336.49
612.953	18254.57
613.149	18508.52
613.344	18313.96
613.539	18461.41
613.735	18453.22
613.93	18496.23
614.126	18217.71
614.321	18301.67
614.517	18178.79
614.712	18213.61
614.907	18189.03
615.103	18025.2
615.298	17801.97
615.493	18025.2
615.688	17748.72
615.884	18141.93
616.079	17777.39
616.274	17928.94
616.47	17765.1
616.665	17996.53
616.86	17761.01
617.055	17531.64
617.25	17765.1
617.445	17611.51
617.641	17365.75
617.836	17500.92
618.031	17384.18
618.226	17560.31
618.421	17294.07
618.616	17689.33
618.811	17007.36
619.006	17652.47
619.201	16972.54
619.396	17005.31
619.591	16714.5
619.786	17105.66
619.981	16618.24
620.176	17144.57
620.371	16806.66
620.566	16730.88
620.761	16636.67
620.956	16902.91
621.151	16583.43
621.346	16440.07
621.541	16222.98
621.735	16519.94
621.93	16184.07
622.125	16243.46
622.32	16007.95
622.515	16163.59
622.709	15938.32
622.904	16102.15
623.099	15657.75
623.294	15833.87
623.488	15315.73
623.683	15756.05
623.878	15121.18
624.072	15252.25
624.267	15235.86
624.462	15217.43
624.656	15110.94
624.851	15121.18
625.046	15029.02
625.24	14723.87
625.435	14807.84
625.629	15014.68
625.824	14883.61
626.018	14553.89
626.213	14488.35
626.407	14463.78
626.602	14271.27
626.796	14361.38
626.991	14177.06
627.185	14267.17
627.38	14050.09
627.574	13787.95
627.768	13775.66
627.963	13867.82
628.157	13484.85
628.352	13775.66
628.546	13413.17
628.74	13857.58
628.935	13409.08
629.129	13431.6
629.323	13267.77
629.517	13169.46
629.712	13179.7
629.906	13191.99
630.1	12782.4
630.294	12921.66
630.489	12856.12
630.683	12729.15
630.877	12639.04
631.071	12696.38
631.265	12684.09
631.459	12571.46
631.653	12501.83
631.848	12514.11
632.042	12319.56
632.236	12417.86
632.43	12268.36
632.624	12053.32
632.818	12239.69
633.012	12172.1
633.206	12151.62
633.4	11914.06
633.594	12090.18
633.788	11963.21
633.982	11983.69
634.176	11742.03
634.369	11801.42
634.563	11613.01
634.757	11629.39
634.951	11629.39
635.145	11551.57
635.339	11383.63
635.533	11357.01
635.726	11348.82
635.92	11060.06
636.114	11232.08
636.308	11072.34
636.501	11158.36
636.695	11123.54
636.889	10785.63
637.083	10941.27
637.276	10808.16
637.47	11027.29
637.664	10748.76
637.857	10572.64
638.051	10627.93
638.244	10517.34
638.438	10474.34
638.632	10548.06
638.825	10482.53
639.019	10333.03
639.212	10386.27
639.406	10240.87
639.599	10113.89
639.793	10482.53
639.986	10017.64
640.18	10222.44
640.373	10093.41
640.567	9966.44
640.76	9818.99
640.954	9689.96
641.147	9773.93
641.34	9687.92
641.534	9663.34
641.727	9757.55
641.92	9773.93
642.114	9479.02
642.307	9485.17
642.5	9270.13
642.694	9425.78
642.887	9259.89
643.08	9397.1
643.273	9214.84
643.467	9239.41
643.66	9046.9
643.853	8956.79
644.046	8924.02
644.239	8991.61
644.432	8975.22
644.626	8848.25
644.819	9055.09
645.012	8835.96
645.205	8729.47
645.398	8741.75
645.591	8696.7
645.784	8645.5
645.977	8674.17
646.17	8455.04
646.363	8315.78
646.556	8655.74
646.749	8414.08
646.942	8463.23
647.135	8287.11
647.328	8330.11
647.521	8180.61
647.714	8172.42
647.907	8100.74
648.099	8059.78
648.292	8149.89
648.485	8010.63
648.678	7846.79
648.871	7965.57
649.064	7947.14
649.256	7996.29
649.449	7910.28
649.642	7760.78
649.835	7756.68
650.027	7652.24
650.22	7691.15
650.413	7457.68
650.605	7795.59
650.798	7566.22
650.991	7545.74
651.183	7535.5
651.376	7310.22
651.568	7437.2
651.761	7414.67
651.954	7394.19
652.146	7084.95
652.339	7334.8
652.531	7183.25
652.724	7228.31
652.916	7115.67
653.109	7099.28
653.301	7080.85
653.494	7015.32
653.686	6919.06
653.879	7011.22
654.071	6917.01
654.263	6869.91
654.456	6716.31
654.648	7003.03
654.84	6761.37
655.033	6706.07
655.225	6853.53
655.417	6704.03
655.61	6591.39
655.802	6714.27
655.994	6726.55
656.186	6579.1
656.379	6587.29
656.571	6452.13
656.763	6472.61
656.955	6357.92
657.148	6450.08
657.34	6435.74
657.532	6198.18
657.724	6276
657.916	6282.14
658.108	6173.6
658.3	6228.9
658.492	6134.69
658.684	5948.33
658.876	5993.38
659.068	6153.12
659.26	5968.8
659.452	6060.96
659.644	5895.08
659.836	5772.2
660.028	5890.98
660.22	5860.26
660.412	5731.24
660.604	5866.41
660.796	5729.19
660.988	5698.47
661.18	5782.44
661.372	5682.09
661.563	5706.66
661.755	5589.93
661.947	5692.33
662.139	5499.82
662.331	5643.18
662.522	5368.75
662.714	5428.14
662.906	5389.23
663.097	5510.06
663.289	5266.35
663.481	5338.03
663.673	5323.69
663.864	5264.3
664.056	5358.51
664.247	5297.07
664.439	5219.25
664.631	5223.34
664.822	5319.6
665.014	5174.19
665.205	5057.46
665.397	5133.23
665.588	5018.55
665.78	5051.31
665.971	4942.77
666.163	5141.43
666.354	5006.26
666.546	4840.37
666.737	4914.1
666.929	4834.23
667.12	4842.42
667.311	4848.57
667.503	4688.82
667.694	4744.12
667.885	4764.6
668.077	4860.85
668.268	4787.13
668.459	4809.65
668.651	4701.11
668.842	4656.06
669.033	4664.25
669.224	4604.86
669.416	4621.24
669.607	4518.84
669.798	4545.47
669.989	4604.86
670.18	4359.1
670.371	4381.63
670.563	4369.34
670.754	4455.36
670.945	4463.55
671.136	4338.62
671.327	4418.49
671.518	4352.96
671.709	4305.85
671.9	4287.42
672.091	4285.37
672.282	4273.09
672.473	4219.84
672.664	4297.66
672.855	4156.35
673.046	4232.13
673.237	4287.42
673.428	4139.97
673.619	4068.29
673.809	4099.01
674	3910.6
674.191	4148.16
674.382	4080.58
674.573	4051.91
674.764	3945.41
674.954	3918.79
675.145	4051.91
675.336	3916.74
675.527	3830.73
675.717	3883.97
675.908	3959.75
676.099	3879.88
676.289	3906.5
676.48	3822.53
676.671	3804.1
676.861	3838.92
677.052	3806.15
677.243	3765.19
677.433	3750.85
677.624	3767.24
677.814	3664.84
678.005	3757
678.195	3783.62
678.386	3697.61
678.576	3666.89
678.767	3785.67
678.957	3695.56
679.148	3701.7
679.338	3566.54
679.529	3570.63
679.719	3609.54
679.909	3668.94
680.1	3572.68
680.29	3478.47
680.481	3593.16
680.671	3486.67
680.861	3488.71
681.052	3521.48
681.242	3425.23
681.432	3335.12
681.622	3431.37
681.813	3380.17
682.003	3460.04
682.193	3417.04
682.383	3392.46
682.573	3283.92
682.764	3294.16
682.954	3353.55
683.144	3498.95
683.334	3380.17
683.524	3320.78
683.714	3185.62
683.904	3232.72
684.094	3357.64
684.284	3197.9
684.474	3263.44
684.664	3093.46
684.854	3185.62
685.044	3191.76
685.234	3222.48
685.424	3218.38
685.614	3257.29
685.804	3177.42
685.994	3079.12
686.184	3206.1
686.374	3128.27
686.564	3011.54
686.753	2958.29
686.943	3079.12
687.133	3019.73
687.323	3011.54
687.513	2997.2
687.702	2999.25
687.892	2970.58
688.082	3046.35
688.272	2872.28
688.461	2933.72
688.651	2931.67
688.841	2866.13
689.03	2939.86
689.22	2896.85
689.41	2943.96
689.599	2823.12
689.789	2864.08
689.979	2970.58
690.168	2876.37
690.358	2819.03
690.547	2755.54
690.737	2915.28
690.926	2853.84
691.116	2890.71
691.305	2806.74
691.495	2743.25
691.684	2671.58
691.874	2610.14
692.063	2724.82
692.252	2749.4
692.442	2638.81
692.631	2743.25
692.82	2720.73
693.01	2714.58
693.199	2726.87
693.388	2618.33
693.578	2735.06
693.767	2722.77
693.956	2446.3
694.146	2622.42
694.335	2538.46
694.524	2591.7
694.713	2667.48
694.902	2552.79
695.092	2612.18
695.281	2601.94
695.47	2595.8
695.659	2530.27
695.848	2702.29
696.037	2538.46
696.226	2579.42
696.415	2536.41
696.604	2544.6
696.793	2638.81
696.982	2425.82
697.171	2497.5
697.36	2505.69
697.549	2419.68
697.738	2524.12
697.927	2474.97
698.116	2544.6
698.305	2411.48
698.494	2388.96
698.683	2309.08
698.872	2411.48
699.061	2427.87
699.25	2372.57
699.438	2368.48
699.627	2399.2
699.816	2329.56
700.005	2407.39
700.193	2366.43
700.382	2454.49
700.571	2442.2
700.76	2292.7
700.948	2274.27
701.137	2292.7
701.326	2440.15
701.514	2345.95
701.703	2253.79
701.892	2251.74
702.08	2448.35
702.269	2378.72
702.457	2264.03
702.646	2399.2
702.834	2374.62
703.023	2284.51
703.212	2341.85
703.4	2235.36
703.589	2180.06
703.777	2323.42
703.965	2266.08
704.154	2280.41
704.342	2286.56
704.531	2272.22
704.719	2192.35
704.907	2294.75
705.096	2307.04
705.284	2243.55
705.472	2323.42
705.661	2296.8
705.849	2284.51
706.037	2358.24
706.226	2210.78
706.414	2165.73
706.602	2278.37
706.79	2302.94
706.979	2161.63
707.167	2157.54
707.355	2223.07
707.543	2290.65
707.731	2325.47
707.919	2210.78
708.107	2235.36
708.296	2186.21
708.484	2282.46
708.672	2311.13
708.86	2284.51
709.048	2206.69
709.236	2239.45
709.424	2317.28
709.612	2257.89
709.8	2350.04
709.988	2233.31
710.176	2221.02
710.364	2251.74
710.551	2214.88
710.739	2286.56
710.927	2114.53
711.115	2210.78
711.303	2268.13
711.491	2102.24
711.679	2159.58
711.866	2272.22
712.054	2227.17
712.242	2243.55
712.43	2333.66
712.617	2161.63
712.805	2339.8
712.993	2192.35
713.181	2046.94
713.368	2317.28
713.556	2178.01
713.744	2186.21
713.931	2366.43
714.119	2087.9
714.306	2231.26
714.494	2229.21
714.682	2149.34
714.869	2046.94
715.057	2155.49
715.244	2225.12
715.432	2202.59
715.619	2266.08
715.807	2241.5
715.994	2231.26
716.182	2208.73
716.369	2249.69
716.556	2216.93
716.744	2241.5
716.931	2243.55
717.119	2089.95
717.306	2239.45
717.493	2169.82
717.681	2227.17
717.868	2100.19
718.055	2118.62
718.242	2112.48
718.43	2188.25
718.617	2237.41
718.804	2208.73
718.991	2116.58
719.179	2165.73
719.366	2102.24
719.553	2137.06
719.74	2118.62
719.927	2071.52
720.114	2081.76
720.301	2249.69
720.488	2020.32
720.676	2132.96
720.863	2257.89
721.05	2298.84
721.237	2120.67
721.424	2149.34
721.611	2122.72
721.798	2165.73
721.985	2194.4
722.172	2079.71
722.358	2110.43
722.545	2116.58
722.732	2110.43
722.919	2167.77
723.106	2167.77
723.293	2128.86
723.48	2112.48
723.667	2143.2
723.853	2171.87
724.04	2143.2
724.227	2051.04
724.414	2032.61
724.6	2114.53
724.787	2128.86
724.974	2083.81
725.161	2202.59
725.347	2079.71
725.534	2028.51
725.72	2130.91
725.907	2044.9
726.094	2139.1
726.28	2112.48
726.467	2034.66
726.653	2036.7
726.84	2120.67
727.027	2143.2
727.213	2202.59
727.4	1917.92
727.586	2192.35
727.773	2165.73
727.959	2085.86
728.145	2069.47
728.332	2028.51
728.518	2184.16
728.705	2087.9
728.891	2016.23
729.077	2135.01
729.264	2085.86
729.45	2143.2
729.636	2155.49
729.823	1991.65
730.009	2200.54
730.195	2030.56
730.382	2044.9
730.568	1999.84
730.754	2042.85
730.94	2157.54
731.126	2077.66
731.313	2085.86
731.499	2061.28
731.685	2128.86
731.871	2108.38
732.057	2075.62
732.243	2116.58
732.429	2071.52
732.615	2143.2
732.801	2038.75
732.987	2079.71
733.173	1930.21
733.359	2030.56
733.545	2089.95
733.731	1956.83
733.917	2083.81
734.103	2128.86
734.289	2130.91
734.475	1944.55
734.661	2081.76
734.847	2137.06
735.033	2055.14
735.219	1977.31
735.404	2069.47
735.59	1915.87
735.776	1936.35
735.962	1987.55
736.148	1881.06
736.333	2042.85
736.519	2053.09
736.705	2022.37
736.89	1911.78
737.076	1897.44
737.262	2022.37
737.447	1944.55
737.633	2003.94
737.819	1991.65
738.004	1942.5
738.19	1922.02
738.375	1821.67
738.561	1997.79
738.747	1864.68
738.932	1895.4
739.118	1919.97
739.303	1905.63
739.489	1905.63
739.674	1905.63
739.859	1954.79
740.045	1862.63
740.23	1897.44
740.416	1788.9
740.601	1909.73
740.786	1848.29
740.972	1874.92
741.157	1917.92
741.342	1842.15
741.528	1844.2
741.713	1848.29
741.898	1795.04
742.084	1879.01
742.269	1874.92
742.454	1971.17
742.639	1790.95
742.824	1676.26
743.01	1770.47
743.195	1758.18
743.38	1743.85
743.565	1819.62
743.75	1836
743.935	1807.33
744.12	1784.8
744.305	1827.81
744.49	1688.55
744.675	1739.75
744.86	1721.32
745.045	1797.09
745.23	1782.76
745.415	1711.08
745.6	1719.27
745.785	1749.99
745.97	1721.32
746.155	1696.74
746.34	1721.32
746.525	1702.89
746.71	1696.74
746.895	1588.2
747.079	1686.5
747.264	1668.07
747.449	1655.78
747.634	1584.1
747.819	1653.73
748.003	1561.58
748.188	1610.73
748.373	1610.73
748.557	1567.72
748.742	1543.14
748.927	1661.93
749.111	1420.27
749.296	1414.12
749.481	1575.91
749.665	1571.82
749.85	1498.09
750.034	1496.04
750.219	1440.75
750.404	1461.23
750.588	1346.54
750.773	1553.38
750.957	1407.98
751.141	1496.04
751.326	1440.75
751.51	1403.88
751.695	1362.92
751.879	1481.71
752.064	1500.14
752.248	1348.59
752.432	1313.77
752.617	1418.22
752.801	1514.47
752.985	1407.98
753.17	1334.25
753.354	1487.85
753.538	1303.53
753.722	1496.04
753.907	1424.36
754.091	1342.44
754.275	1319.92
754.459	1274.86
754.643	1278.96
754.828	1311.72
755.012	1305.58
755.196	1115.12
755.38	1229.81
755.564	1154.03
755.748	1371.12
755.932	1252.33
756.116	1192.94
756.3	1258.48
756.484	1227.76
756.668	1293.29
756.852	1119.21
757.036	1211.37
757.22	1250.28
757.404	1121.26
757.588	1080.3
757.772	1168.37
757.956	1158.13
758.14	1172.46
758.323	1149.93
758.507	1129.45
758.691	1072.11
758.875	1072.11
759.059	1158.13
759.242	1108.98
759.426	1086.45
759.61	1080.3
759.794	1055.73
759.977	1098.74
760.161	1121.26
760.345	1188.85
760.528	1117.17
760.712	1121.26
760.895	1053.68
761.079	1047.54
761.263	988.14
761.446	961.52
761.63	996.34
761.813	1119.21
761.997	1041.39
762.18	1006.58
762.364	1004.53
762.547	1035.25
762.731	988.14
762.914	965.62
763.098	1037.3
763.281	938.99
763.464	1000.43
763.648	994.29
763.831	1039.34
764.015	965.62
764.198	986.1
764.381	922.61
764.564	965.62
764.748	992.24
764.931	924.66
765.114	848.88
765.297	924.66
765.481	957.43
765.664	830.45
765.847	898.03
766.03	934.9
766.213	924.66
766.397	947.19
766.58	828.4
766.763	955.38
766.946	889.84
767.129	920.56
767.312	848.88
767.495	900.08
767.678	867.31
767.861	826.36
768.044	889.84
768.227	814.07
768.41	842.74
768.593	859.12
768.776	840.69
768.959	949.23
769.142	852.98
769.324	836.6
769.507	893.94
769.69	861.17
769.873	812.02
770.056	822.26
770.239	869.36
770.421	779.25
770.604	779.25
770.787	812.02
770.97	769.01
771.152	775.16
771.335	887.79
771.518	754.68
771.7	855.03
771.883	873.46
772.066	820.21
772.248	809.97
772.431	805.88
772.613	742.39
772.796	775.16
772.978	766.96
773.161	840.69
773.343	738.29
773.526	840.69
773.708	775.16
773.891	697.33
774.073	807.92
774.256	740.34
774.438	764.92
774.621	742.39
774.803	709.62
774.985	693.24
775.168	748.53
775.35	685.05
775.532	769.01
775.715	726
775.897	736.24
776.079	723.96
776.261	652.28
776.444	666.61
776.626	699.38
776.808	711.67
776.99	590.84
777.173	715.77
777.355	695.29
777.537	629.75
777.719	652.28
777.901	730.1
778.083	633.85
778.265	594.93
778.447	748.53
778.629	703.48
778.811	650.23
778.993	623.61
779.175	629.75
779.357	621.56
779.539	576.5
779.721	662.52
779.903	683
780.085	549.88
780.267	457.72
780.449	543.74
780.631	594.93
780.812	633.85
780.994	572.41
781.176	513.02
781.358	537.59
781.54	529.4
781.721	508.92
781.903	541.69
782.085	543.74
782.267	513.02
782.448	531.45
782.63	539.64
782.812	504.82
782.993	572.41
783.175	523.26
783.357	465.91
783.538	533.5
783.72	463.86
783.901	474.1
784.083	494.58
784.264	443.39
784.446	414.71
784.627	490.49
784.809	484.34
784.99	539.64
785.172	541.69
785.353	467.96
785.535	496.63
785.716	480.25
785.897	494.58
786.079	443.39
786.26	431.1
786.441	455.67
786.623	355.32
786.804	414.71
786.985	476.15
787.167	420.86
787.348	357.37
787.529	488.44
787.71	472.06
787.891	433.15
788.073	379.9
788.254	398.33
788.435	427
788.616	422.91
788.797	347.13
788.978	433.15
789.159	351.23
789.34	441.34
789.522	357.37
789.703	367.61
789.884	367.61
790.065	371.71
790.246	371.71
790.427	400.38
790.607	390.14
790.788	390.14
790.969	347.13
791.15	361.47
791.331	347.13
791.512	373.75
791.693	324.6
791.874	373.75
792.054	371.71
792.235	357.37
792.416	324.6
792.597	351.23
792.778	349.18
792.958	441.34
793.139	230.4
793.32	310.27
793.5	275.45
793.681	408.57
793.862	375.8
794.042	334.84
794.223	297.98
794.404	351.23
794.584	326.65
794.765	365.56
794.945	320.51
795.126	300.03
795.306	277.5
795.487	279.55
795.667	304.12
795.848	328.7
796.028	269.31
796.209	312.32
796.389	312.32
796.57	316.41
796.75	291.84
796.93	369.66
797.111	218.11
797.291	328.7
797.471	322.56
797.652	265.21
797.832	240.64
798.012	248.83
798.192	218.11
798.373	265.21
798.553	297.98
798.733	316.41
798.913	238.59
799.093	267.26
799.274	267.26
799.454	340.99
799.634	295.93
799.814	283.64
799.994	228.35
800.174	279.55
800.354	252.92
800.534	263.16
800.714	332.79
800.894	173.05
801.074	224.25
801.254	293.88
801.434	289.79
801.614	246.78
801.794	295.93
801.974	705.53
802.154	279.55
802.334	197.63
802.514	261.12
802.693	236.54
802.873	234.49
803.053	314.36
803.233	302.08
803.413	232.44
803.592	214.01
803.772	209.92
803.952	244.73
804.131	236.54
804.311	316.41
804.491	295.93
804.67	183.29
804.85	168.96
805.03	197.63
805.209	152.57
805.389	187.39
805.568	152.57
805.748	185.34
805.928	140.29
806.107	211.96
806.287	211.96
806.466	203.77
806.646	166.91
806.825	185.34
807.004	201.72
807.184	203.77
807.363	277.5
807.543	197.63
807.722	234.49
807.901	226.3
808.081	160.77
808.26	111.61
808.439	64.51
808.619	128
808.798	150.53
808.977	214.01
809.156	160.77
809.336	201.72
809.515	164.86
809.694	140.29
809.873	109.57
810.052	130.05
810.231	203.77
810.411	95.23
810.59	164.86
810.769	146.43
810.948	209.92
811.127	152.57
811.306	144.38
811.485	187.39
811.664	230.4
811.843	173.05
812.022	209.92
812.201	103.42
812.38	189.44
812.559	109.57
812.737	128
812.916	103.42
813.095	123.9
813.274	173.05
813.453	146.43
813.632	134.14
813.811	105.47
813.989	113.66
814.168	187.39
814.347	60.42
814.526	154.62
814.704	224.25
814.883	109.57
815.062	175.1
815.24	136.19
815.419	58.37
815.598	162.81
815.776	105.47
815.955	56.32
816.133	152.57
816.312	99.33
816.49	162.81
816.669	130.05
816.847	111.61
817.026	132.09
817.204	187.39
817.383	95.23
817.561	27.65
817.74	158.72
817.918	166.91
818.097	113.66
818.275	187.39
818.453	185.34
818.632	144.38
818.81	128
818.988	82.94
819.167	179.2
819.345	146.43
819.523	154.62
819.701	154.62
819.879	87.04
820.058	201.72
820.236	144.38
820.414	111.61
820.592	91.13
820.77	56.32
820.948	58.37
821.127	91.13
821.305	91.13
821.483	107.52
821.661	191.49
821.839	70.65
822.017	162.81
822.195	27.65
822.373	82.94
822.551	48.13
822.729	123.9
822.907	113.66
823.085	64.51
823.262	52.22
823.44	66.56
823.618	70.65
823.796	99.33
823.974	64.51
824.152	111.61
824.329	117.76
824.507	171.01
824.685	95.23
824.863	128
825.04	113.66
825.218	70.65
825.396	91.13
825.574	115.71
825.751	119.81
825.929	160.77
826.107	148.48
826.284	119.81
826.462	101.37
826.639	62.46
826.817	158.72
826.994	152.57
827.172	48.13
827.349	146.43
827.527	168.96
827.704	103.42
827.882	64.51
828.059	152.57
828.237	78.85
828.414	119.81
828.591	78.85
828.769	103.42
828.946	80.89
829.124	119.81
829.301	128
829.478	48.13
829.655	52.22
829.833	152.57
830.01	97.28
830.187	64.51
830.364	25.6
830.542	119.81
830.719	158.72
830.896	80.89
831.073	74.75
831.25	171.01
831.427	119.81
831.604	78.85
831.782	140.29
831.959	132.09
832.136	103.42
832.313	101.37
832.49	101.37
832.667	76.8
832.844	44.03
833.021	156.67
833.198	103.42
833.374	44.03
833.551	78.85
833.728	80.89
833.905	89.09
834.082	39.94
834.259	105.47
834.436	72.7
834.612	50.18
834.789	119.81
834.966	50.18
835.143	97.28
835.319	128
835.496	97.28
835.673	164.86
835.85	111.61
836.026	87.04
836.203	66.56
836.38	76.8
836.556	105.47
836.733	93.18
836.909	113.66
837.086	107.52
837.262	72.7
837.439	33.79
837.616	66.56
837.792	101.37
837.968	56.32
838.145	117.76
838.321	54.27
838.498	46.08
838.674	103.42
838.851	46.08
839.027	136.19
839.203	56.32
839.38	95.23
839.556	50.18
839.732	50.18
839.909	111.61
840.085	39.94
840.261	121.85
840.437	91.13
840.614	35.84
840.79	33.79
840.966	39.94
841.142	33.79
841.318	82.94
841.494	93.18
841.671	62.46
841.847	-13.31
842.023	72.7
842.199	107.52
842.375	11.26
842.551	52.22
842.727	62.46
842.903	134.14
843.079	89.09
843.255	115.71
843.431	7.17
843.607	87.04
843.783	-27.65
843.959	68.61
844.134	3.07
844.31	50.18
844.486	-29.7
844.662	5.12
844.838	-19.46
845.013	74.75
845.189	82.94
845.365	64.51
845.541	78.85
845.716	136.19
845.892	56.32
846.068	-66.56
846.244	111.61
846.419	15.36
846.595	46.08
846.77	89.09
846.946	84.99
847.122	62.46
847.297	62.46
847.473	119.81
847.648	17.41
847.824	-1.02
847.999	-21.5
848.175	54.27
848.35	74.75
848.526	111.61
848.701	80.89
848.876	130.05
849.052	5.12
849.227	89.09
849.403	113.66
849.578	74.75
849.753	9.22
849.929	5.12
850.104	17.41
850.279	-5.12
850.454	19.46
850.63	48.13
850.805	7.17
850.98	15.36
851.155	37.89
851.33	11.26
851.505	50.18
851.681	60.42
851.856	39.94
852.031	35.84
852.206	33.79
852.381	48.13
852.556	99.33
852.731	31.74
852.906	80.89
853.081	5.12
853.256	9.22
853.431	39.94
853.606	37.89
853.781	31.74
853.956	27.65
854.131	101.37
854.305	39.94
854.48	17.41
854.655	-1.02
854.83	13.31
855.005	-11.26
855.18	62.46
855.354	60.42
855.529	103.42
855.704	-15.36
855.879	80.89
856.053	44.03
856.228	7.17
856.403	58.37
856.577	89.09
856.752	-19.46
856.926	9.22
857.101	58.37
857.276	-3.07
857.45	64.51
857.625	50.18
857.799	68.61
857.974	103.42
858.148	-48.13
858.323	46.08
858.497	-9.22
858.672	29.7
858.846	44.03
859.02	107.52
859.195	-23.55
859.369	72.7
859.543	41.98
859.718	13.31
859.892	64.51
860.066	-33.79
860.241	56.32
860.415	-7.17
860.589	13.31
860.763	15.36
860.938	-27.65
861.112	82.94
861.286	132.09
861.46	39.94
861.634	105.47
861.808	23.55
861.982	64.51
862.157	-19.46
862.331	27.65
862.505	44.03
862.679	21.5
862.853	-11.26
863.027	72.7
863.201	128
863.375	44.03
863.549	-1.02
863.722	27.65
863.896	74.75
864.07	-13.31
864.244	19.46
864.418	87.04
864.592	80.89
864.766	25.6
864.939	39.94
865.113	29.7
865.287	-3.07
865.461	7.17
865.634	13.31
865.808	39.94
865.982	58.37
866.156	74.75
866.329	-60.42
866.503	17.41
866.676	62.46
866.85	23.55
867.024	54.27
867.197	62.46
867.371	93.18
867.544	15.36
867.718	-27.65
867.891	-1.02
868.065	44.03
868.238	15.36
868.412	13.31
868.585	107.52
868.759	13.31
868.932	23.55
869.105	-35.84
869.279	41.98
869.452	46.08
869.625	52.22
869.799	23.55
869.972	33.79
870.145	54.27
870.319	5.12
870.492	1.02
870.665	-60.42
870.838	-3.07
871.011	-44.03
871.185	-3.07
871.358	39.94
871.531	5.12
871.704	-7.17
871.877	31.74
872.05	54.27
872.223	54.27
872.396	13.31
872.569	-1.02
872.742	64.51
872.915	70.65
873.088	-50.18
873.261	-3.07
873.434	21.5
873.607	15.36
873.78	31.74
873.953	44.03
874.126	95.23
874.299	33.79
874.471	50.18
874.644	72.7
874.817	21.5
874.99	93.18
875.163	35.84
875.335	41.98
875.508	-13.31
875.681	74.75
875.853	-15.36
876.026	25.6
876.199	62.46
876.371	9.22
876.544	-11.26
876.717	33.79
876.889	9.22
877.062	-27.65
877.234	29.7
877.407	78.85
877.579	25.6
877.752	62.46
877.924	48.13
878.097	5.12
878.269	64.51
878.442	31.74
878.614	44.03
878.786	50.18
878.959	82.94
879.131	13.31
879.303	-46.08
879.476	-19.46
879.648	35.84
879.82	74.75
879.993	48.13
880.165	46.08
880.337	-13.31
880.509	78.85
880.681	31.74
880.854	11.26
881.026	39.94
881.198	29.7
881.37	-37.89
881.542	64.51
881.714	-58.37
881.886	5.12
882.058	-50.18
882.23	13.31
882.402	9.22
882.574	-13.31
882.746	1.02
882.918	109.57
883.09	29.7
883.262	35.84
883.434	-21.5
883.606	54.27
883.778	11.26
883.95	35.84
884.122	-29.7
884.293	-1.02
884.465	-25.6
884.637	-46.08
884.809	21.5
884.98	19.46
885.152	105.47
885.324	-15.36
885.496	66.56
885.667	74.75
885.839	105.47
886.011	89.09
886.182	-21.5
886.354	68.61
886.525	-13.31
886.697	52.22
886.869	-33.79
887.04	-35.84
887.212	72.7
887.383	21.5
887.555	46.08
887.726	64.51
887.897	7.17
888.069	46.08
888.24	7.17
888.412	-9.22
888.583	11.26
888.754	9.22
888.926	-15.36
889.097	13.31
889.268	-17.41
889.44	21.5
889.611	-11.26
889.782	109.57
889.953	-39.94
890.125	56.32
890.296	23.55
890.467	21.5
890.638	-13.31
890.809	84.99
890.98	13.31
891.151	-17.41
891.323	37.89
891.494	27.65
891.665	21.5
891.836	7.17
892.007	-11.26
892.178	62.46
892.349	7.17
892.52	29.7
892.691	29.7
892.862	23.55
893.032	-123.9
893.203	48.13
893.374	58.37
893.545	31.74
893.716	13.31
893.887	-5.12
894.057	-31.74
894.228	9.22
894.399	64.51
894.57	25.6
894.74	-11.26
894.911	58.37
895.082	19.46
895.253	39.94
895.423	64.51
895.594	-60.42
895.764	-13.31
895.935	56.32
896.106	13.31
896.276	46.08
896.447	9.22
896.617	41.98
896.788	-25.6
896.958	64.51
897.129	15.36
897.299	-76.8
897.47	46.08
897.64	13.31
897.81	13.31
897.981	3.07
898.151	-35.84
898.322	-15.36
898.492	15.36
898.662	-17.41
898.832	-25.6
899.003	48.13
899.173	-11.26
899.343	-21.5
899.513	-89.09
