Data from USB4F104151__5__13-10-08-709.txt Node

Date: Fri Mar 14 13:10:08 EDT 2025
User: louis
Spectrometer: USB4F10415
Trigger mode: 4
Integration Time (sec): 2.000000E-2
Scans to average: 1
Electric dark correction enabled: true
Nonlinearity correction enabled: false
Boxcar width: 0
XAxis mode: Wavelengths
Number of Pixels in Spectrum: 3648
>>>>>Begin Spectral Data<<<<<
178.204	-158.38
178.424	-158.38
178.644	-158.38
178.864	-152.23
179.084	-94.89
179.304	-10.92
179.524	17.75
179.744	-19.11
179.964	48.47
180.184	23.89
180.404	30.04
180.624	-8.87
180.844	-17.07
181.064	-111.27
181.283	-27.31
181.503	36.18
181.723	38.23
181.943	-17.07
182.163	48.47
182.383	-23.21
182.602	124.24
182.822	21.85
183.042	-33.45
183.262	32.08
183.482	19.8
183.701	17.75
183.921	23.89
184.141	15.7
184.361	1.37
184.58	77.14
184.8	1.37
185.02	46.42
185.239	54.61
185.459	-2.73
185.679	42.32
185.898	-8.87
186.118	81.24
186.338	60.76
186.557	-8.87
186.777	25.94
186.997	3.41
187.216	87.38
187.436	-8.87
187.655	-2.73
187.875	7.51
188.095	-41.64
188.314	89.43
188.534	165.2
188.753	46.42
188.973	36.18
189.192	54.61
189.412	46.42
189.631	7.51
189.851	-43.69
190.07	60.76
190.29	7.51
190.509	62.8
190.729	87.38
190.948	87.38
191.168	93.52
191.387	52.56
191.607	23.89
191.826	46.42
192.045	3.41
192.265	9.56
192.484	19.8
192.704	-6.83
192.923	120.15
193.142	87.38
193.362	27.99
193.581	21.85
193.8	52.56
194.02	54.61
194.239	68.95
194.458	21.85
194.678	-12.97
194.897	-0.68
195.116	71
195.335	56.66
195.555	-12.97
195.774	32.08
195.993	-41.64
196.212	58.71
196.432	9.56
196.651	71
196.87	48.47
197.089	50.52
197.308	71
197.528	44.37
197.747	44.37
197.966	-51.88
198.185	-33.45
198.404	21.85
198.623	-64.17
198.842	62.8
199.062	32.08
199.281	48.47
199.5	32.08
199.719	5.46
199.938	46.42
200.157	42.32
200.376	-23.21
200.595	83.28
200.814	-21.16
201.033	-10.92
201.252	11.61
201.471	44.37
201.69	136.53
201.909	122.2
202.128	-10.92
202.347	116.05
202.566	77.14
202.785	38.23
203.004	32.08
203.223	50.52
203.442	-23.21
203.661	19.8
203.879	27.99
204.098	48.47
204.317	-19.11
204.536	40.28
204.755	40.28
204.974	34.13
205.193	13.65
205.411	48.47
205.63	40.28
205.849	25.94
206.068	-53.93
206.287	-6.83
206.505	-19.11
206.724	-23.21
206.943	58.71
207.162	19.8
207.381	23.89
207.599	42.32
207.818	38.23
208.037	-15.02
208.255	5.46
208.474	13.65
208.693	-12.97
208.911	5.46
209.13	15.7
209.349	7.51
209.567	58.71
209.786	36.18
210.005	9.56
210.223	42.32
210.442	11.61
210.661	66.9
210.879	85.33
211.098	77.14
211.316	64.85
211.535	21.85
211.753	-4.78
211.972	5.46
212.191	5.46
212.409	58.71
212.628	-25.26
212.846	38.23
213.065	-4.78
213.283	15.7
213.502	-35.5
213.72	11.61
213.938	89.43
214.157	-12.97
214.375	56.66
214.594	68.95
214.812	116.05
215.031	27.99
215.249	-19.11
215.467	3.41
215.686	64.85
215.904	36.18
216.122	-21.16
216.341	103.76
216.559	25.94
216.778	13.65
216.996	36.18
217.214	36.18
217.432	83.28
217.651	-0.68
217.869	38.23
218.087	38.23
218.306	25.94
218.524	5.46
218.742	7.51
218.96	75.09
219.179	58.71
219.397	40.28
219.615	-6.83
219.833	42.32
220.051	40.28
220.27	75.09
220.488	23.89
220.706	15.7
220.924	-6.83
221.142	15.7
221.36	-21.16
221.578	58.71
221.796	-4.78
222.015	-82.6
222.233	38.23
222.451	77.14
222.669	32.08
222.887	46.42
223.105	40.28
223.323	42.32
223.541	-29.35
223.759	103.76
223.977	46.42
224.195	48.47
224.413	81.24
224.631	46.42
224.849	124.24
225.067	114
225.285	101.72
225.503	32.08
225.721	-4.78
225.939	-2.73
226.157	25.94
226.375	62.8
226.592	23.89
226.81	13.65
227.028	91.48
227.246	101.72
227.464	19.8
227.682	91.48
227.9	9.56
228.117	21.85
228.335	-8.87
228.553	-2.73
228.771	-25.26
228.989	44.37
229.206	36.18
229.424	32.08
229.642	-2.73
229.86	7.51
230.077	40.28
230.295	21.85
230.513	71
230.731	146.77
230.948	46.42
231.166	73.04
231.384	25.94
231.601	-33.45
231.819	120.15
232.037	52.56
232.254	21.85
232.472	44.37
232.689	15.7
232.907	89.43
233.125	40.28
233.342	38.23
233.56	3.41
233.777	-92.84
233.995	34.13
234.213	95.57
234.43	25.94
234.648	15.7
234.865	-19.11
235.083	118.1
235.3	-10.92
235.518	7.51
235.735	120.15
235.953	91.48
236.17	-0.68
236.388	21.85
236.605	34.13
236.822	97.62
237.04	42.32
237.257	9.56
237.475	71
237.692	68.95
237.909	15.7
238.127	34.13
238.344	-33.45
238.562	60.76
238.779	-15.02
238.996	21.85
239.214	-4.78
239.431	34.13
239.648	-6.83
239.865	17.75
240.083	38.23
240.3	48.47
240.517	11.61
240.735	32.08
240.952	71
241.169	73.04
241.386	-10.92
241.603	58.71
241.821	25.94
242.038	1.37
242.255	64.85
242.472	-39.59
242.689	50.52
242.907	52.56
243.124	-17.07
243.341	34.13
243.558	40.28
243.775	-43.69
243.992	13.65
244.209	9.56
244.426	46.42
244.643	93.52
244.86	7.51
245.078	56.66
245.295	23.89
245.512	36.18
245.729	54.61
245.946	66.9
246.163	42.32
246.38	71
246.597	36.18
246.814	83.28
247.031	15.7
247.248	32.08
247.464	34.13
247.681	-2.73
247.898	71
248.115	30.04
248.332	-60.07
248.549	77.14
248.766	91.48
248.983	52.56
249.2	9.56
249.417	103.76
249.633	-23.21
249.85	68.95
250.067	13.65
250.284	58.71
250.501	46.42
250.717	13.65
250.934	-2.73
251.151	11.61
251.368	19.8
251.585	42.32
251.801	64.85
252.018	7.51
252.235	-12.97
252.451	71
252.668	50.52
252.885	40.28
253.102	3.41
253.318	5.46
253.535	17.75
253.752	-6.83
253.968	1.37
254.185	42.32
254.401	87.38
254.618	-10.92
254.835	5.46
255.051	23.89
255.268	23.89
255.484	13.65
255.701	13.65
255.917	122.2
256.134	-4.78
256.351	15.7
256.567	-4.78
256.784	17.75
257	-43.69
257.217	95.57
257.433	38.23
257.65	64.85
257.866	1.37
258.082	64.85
258.299	-51.88
258.515	68.95
258.732	-43.69
258.948	38.23
259.165	19.8
259.381	48.47
259.597	54.61
259.814	60.76
260.03	-0.68
260.246	-10.92
260.463	38.23
260.679	46.42
260.895	36.18
261.112	56.66
261.328	-33.45
261.544	58.71
261.761	1.37
261.977	36.18
262.193	21.85
262.409	56.66
262.626	25.94
262.842	32.08
263.058	38.23
263.274	71
263.49	54.61
263.707	71
263.923	-35.5
264.139	40.28
264.355	85.33
264.571	75.09
264.787	-25.26
265.004	48.47
265.22	50.52
265.436	-43.69
265.652	5.46
265.868	1.37
266.084	-17.07
266.3	46.42
266.516	71
266.732	58.71
266.948	83.28
267.164	-58.03
267.38	34.13
267.596	9.56
267.812	64.85
268.028	56.66
268.244	5.46
268.46	11.61
268.676	85.33
268.892	7.51
269.108	34.13
269.324	-6.83
269.54	36.18
269.756	15.7
269.972	-12.97
270.188	38.23
270.403	25.94
270.619	77.14
270.835	-8.87
271.051	81.24
271.267	60.76
271.483	91.48
271.698	75.09
271.914	32.08
272.13	11.61
272.346	66.9
272.562	81.24
272.777	62.8
272.993	73.04
273.209	5.46
273.425	109.91
273.64	-10.92
273.856	136.53
274.072	56.66
274.287	40.28
274.503	38.23
274.719	13.65
274.934	46.42
275.15	7.51
275.366	21.85
275.581	36.18
275.797	1.37
276.012	71
276.228	5.46
276.444	-33.45
276.659	52.56
276.875	48.47
277.09	52.56
277.306	3.41
277.521	95.57
277.737	-19.11
277.952	87.38
278.168	48.47
278.383	50.52
278.599	5.46
278.814	30.04
279.03	36.18
279.245	79.19
279.461	-0.68
279.676	89.43
279.892	54.61
280.107	25.94
280.322	83.28
280.538	97.62
280.753	-29.35
280.969	42.32
281.184	89.43
281.399	71
281.615	79.19
281.83	34.13
282.045	-6.83
282.26	-31.4
282.476	91.48
282.691	21.85
282.906	-43.69
283.122	71
283.337	-15.02
283.552	-2.73
283.767	9.56
283.983	25.94
284.198	-4.78
284.413	83.28
284.628	42.32
284.843	34.13
285.058	68.95
285.274	11.61
285.489	3.41
285.704	-39.59
285.919	-2.73
286.134	40.28
286.349	-33.45
286.564	-8.87
286.779	83.28
286.995	54.61
287.21	-31.4
287.425	36.18
287.64	116.05
287.855	21.85
288.07	83.28
288.285	25.94
288.5	19.8
288.715	75.09
288.93	19.8
289.145	46.42
289.36	71
289.575	62.8
289.79	140.63
290.004	15.7
290.219	7.51
290.434	30.04
290.649	68.95
290.864	7.51
291.079	17.75
291.294	3.41
291.509	-23.21
291.724	54.61
291.938	-25.26
292.153	30.04
292.368	66.9
292.583	36.18
292.798	46.42
293.012	9.56
293.227	30.04
293.442	-2.73
293.657	-4.78
293.871	68.95
294.086	-43.69
294.301	5.46
294.516	32.08
294.73	71
294.945	15.7
295.16	46.42
295.374	58.71
295.589	68.95
295.804	-47.79
296.018	34.13
296.233	77.14
296.447	23.89
296.662	-35.5
296.877	107.86
297.091	25.94
297.306	48.47
297.52	30.04
297.735	64.85
297.949	-27.31
298.164	9.56
298.378	19.8
298.593	21.85
298.807	27.99
299.022	83.28
299.236	40.28
299.451	-19.11
299.665	64.85
299.88	-0.68
300.094	36.18
300.309	48.47
300.523	87.38
300.737	7.51
300.952	52.56
301.166	44.37
301.381	-2.73
301.595	5.46
301.809	46.42
302.024	11.61
302.238	50.52
302.452	75.09
302.667	64.85
302.881	42.32
303.095	-74.41
303.309	7.51
303.524	62.8
303.738	-19.11
303.952	5.46
304.166	42.32
304.381	1.37
304.595	40.28
304.809	7.51
305.023	17.75
305.237	-27.31
305.452	73.04
305.666	89.43
305.88	85.33
306.094	62.8
306.308	64.85
306.522	21.85
306.736	52.56
306.95	89.43
307.164	68.95
307.379	44.37
307.593	116.05
307.807	56.66
308.021	46.42
308.235	75.09
308.449	60.76
308.663	54.61
308.877	56.66
309.091	-8.87
309.305	64.85
309.519	5.46
309.733	42.32
309.947	40.28
310.161	27.99
310.374	-45.74
310.588	-0.68
310.802	23.89
311.016	-19.11
311.23	128.34
311.444	-17.07
311.658	-25.26
311.872	85.33
312.085	101.72
312.299	124.24
312.513	54.61
312.727	83.28
312.941	-2.73
313.154	126.29
313.368	-78.51
313.582	-0.68
313.796	9.56
314.009	-29.35
314.223	64.85
314.437	-31.4
314.651	5.46
314.864	-66.22
315.078	17.75
315.292	9.56
315.505	44.37
315.719	25.94
315.933	40.28
316.146	-41.64
316.36	11.61
316.573	21.85
316.787	30.04
317.001	-6.83
317.214	-29.35
317.428	81.24
317.641	-25.26
317.855	66.9
318.068	42.32
318.282	79.19
318.495	77.14
318.709	34.13
318.922	56.66
319.136	30.04
319.349	48.47
319.563	5.46
319.776	95.57
319.99	81.24
320.203	5.46
320.417	23.89
320.63	56.66
320.843	83.28
321.057	-25.26
321.27	7.51
321.483	-4.78
321.697	60.76
321.91	25.94
322.124	95.57
322.337	-10.92
322.55	-43.69
322.763	15.7
322.977	42.32
323.19	87.38
323.403	15.7
323.617	89.43
323.83	154.96
324.043	101.72
324.256	40.28
324.469	-6.83
324.683	154.96
324.896	-27.31
325.109	36.18
325.322	-66.22
325.535	38.23
325.748	25.94
325.962	-8.87
326.175	50.52
326.388	54.61
326.601	81.24
326.814	15.7
327.027	42.32
327.24	91.48
327.453	40.28
327.666	64.85
327.879	97.62
328.092	73.04
328.305	71
328.518	50.52
328.731	21.85
328.944	-15.02
329.157	89.43
329.37	66.9
329.583	17.75
329.796	66.9
330.009	30.04
330.222	-17.07
330.435	15.7
330.648	-2.73
330.861	40.28
331.073	-6.83
331.286	-6.83
331.499	5.46
331.712	46.42
331.925	99.67
332.138	58.71
332.35	103.76
332.563	38.23
332.776	130.39
332.989	25.94
333.202	30.04
333.414	101.72
333.627	40.28
333.84	54.61
334.053	46.42
334.265	73.04
334.478	48.47
334.691	52.56
334.903	142.68
335.116	-15.02
335.329	15.7
335.541	34.13
335.754	-10.92
335.966	7.51
336.179	32.08
336.392	-53.93
336.604	-27.31
336.817	7.51
337.029	79.19
337.242	62.8
337.454	7.51
337.667	5.46
337.88	23.89
338.092	66.9
338.305	46.42
338.517	79.19
338.729	114
338.942	-15.02
339.154	40.28
339.367	46.42
339.579	25.94
339.792	7.51
340.004	38.23
340.217	-25.26
340.429	68.95
340.641	3.41
340.854	48.47
341.066	5.46
341.278	27.99
341.491	99.67
341.703	54.61
341.915	36.18
342.128	99.67
342.34	9.56
342.552	-51.88
342.764	130.39
342.977	71
343.189	34.13
343.401	89.43
343.613	-35.5
343.826	46.42
344.038	5.46
344.25	75.09
344.462	5.46
344.674	58.71
344.886	32.08
345.099	-41.64
345.311	60.76
345.523	128.34
345.735	32.08
345.947	48.47
346.159	77.14
346.371	79.19
346.583	56.66
346.795	64.85
347.007	56.66
347.219	58.71
347.431	71
347.643	91.48
347.855	1.37
348.067	40.28
348.279	27.99
348.491	5.46
348.703	66.9
348.915	27.99
349.127	64.85
349.339	116.05
349.551	-4.78
349.763	54.61
349.975	-21.16
350.187	38.23
350.399	48.47
350.61	42.32
350.822	17.75
351.034	23.89
351.246	52.56
351.458	9.56
351.669	21.85
351.881	32.08
352.093	87.38
352.305	50.52
352.517	122.2
352.728	79.19
352.94	-17.07
353.152	44.37
353.363	21.85
353.575	-17.07
353.787	109.91
353.999	50.52
354.21	87.38
354.422	54.61
354.633	36.18
354.845	32.08
355.057	73.04
355.268	13.65
355.48	30.04
355.692	-43.69
355.903	114
356.115	13.65
356.326	17.75
356.538	1.37
356.749	46.42
356.961	85.33
357.172	19.8
357.384	73.04
357.595	75.09
357.807	64.85
358.018	50.52
358.23	71
358.441	85.33
358.653	48.47
358.864	42.32
359.075	-0.68
359.287	44.37
359.498	73.04
359.709	73.04
359.921	79.19
360.132	32.08
360.344	48.47
360.555	-2.73
360.766	42.32
360.977	44.37
361.189	89.43
361.4	34.13
361.611	89.43
361.823	109.91
362.034	-39.59
362.245	75.09
362.456	111.96
362.667	60.76
362.879	32.08
363.09	44.37
363.301	95.57
363.512	30.04
363.723	23.89
363.935	-68.27
364.146	44.37
364.357	48.47
364.568	7.51
364.779	-45.74
364.99	122.2
365.201	-2.73
365.412	-19.11
365.623	32.08
365.834	42.32
366.045	34.13
366.256	13.65
366.467	103.76
366.678	23.89
366.889	30.04
367.1	-43.69
367.311	-58.03
367.522	-29.35
367.733	21.85
367.944	42.32
368.155	38.23
368.366	-10.92
368.577	124.24
368.788	71
368.999	79.19
369.209	46.42
369.42	66.9
369.631	146.77
369.842	27.99
370.053	21.85
370.264	46.42
370.474	-35.5
370.685	25.94
370.896	-31.4
371.107	62.8
371.317	48.47
371.528	62.8
371.739	50.52
371.95	50.52
372.16	-23.21
372.371	62.8
372.582	7.51
372.792	54.61
373.003	140.63
373.214	30.04
373.424	64.85
373.635	-2.73
373.846	46.42
374.056	13.65
374.267	-21.16
374.477	54.61
374.688	30.04
374.898	9.56
375.109	32.08
375.319	27.99
375.53	42.32
375.74	-64.17
375.951	42.32
376.161	25.94
376.372	50.52
376.582	42.32
376.793	54.61
377.003	56.66
377.214	48.47
377.424	109.91
377.635	13.65
377.845	46.42
378.055	165.2
378.266	38.23
378.476	46.42
378.686	15.7
378.897	54.61
379.107	27.99
379.317	48.47
379.528	50.52
379.738	89.43
379.948	11.61
380.158	21.85
380.369	58.71
380.579	134.48
380.789	48.47
380.999	40.28
381.21	101.72
381.42	71
381.63	21.85
381.84	-8.87
382.05	9.56
382.261	62.8
382.471	60.76
382.681	13.65
382.891	23.89
383.101	111.96
383.311	-10.92
383.521	71
383.731	3.41
383.941	21.85
384.151	83.28
384.361	48.47
384.571	40.28
384.781	79.19
384.991	89.43
385.201	83.28
385.411	52.56
385.621	71
385.831	93.52
386.041	62.8
386.251	38.23
386.461	95.57
386.671	30.04
386.881	44.37
387.091	38.23
387.301	38.23
387.511	-4.78
387.72	73.04
387.93	23.89
388.14	-33.45
388.35	52.56
388.56	107.86
388.769	83.28
388.979	-10.92
389.189	58.71
389.399	30.04
389.609	111.96
389.818	42.32
390.028	52.56
390.238	71
390.447	15.7
390.657	64.85
390.867	9.56
391.076	21.85
391.286	13.65
391.496	52.56
391.705	27.99
391.915	48.47
392.125	122.2
392.334	81.24
392.544	56.66
392.753	54.61
392.963	15.7
393.172	7.51
393.382	3.41
393.591	136.53
393.801	1.37
394.01	116.05
394.22	54.61
394.429	11.61
394.639	62.8
394.848	124.24
395.058	38.23
395.267	87.38
395.477	103.76
395.686	154.96
395.895	89.43
396.105	81.24
396.314	30.04
396.524	50.52
396.733	56.66
396.942	177.49
397.152	64.85
397.361	52.56
397.57	91.48
397.78	77.14
397.989	46.42
398.198	107.86
398.407	54.61
398.617	99.67
398.826	66.9
399.035	118.1
399.244	97.62
399.453	111.96
399.663	77.14
399.872	97.62
400.081	62.8
400.29	81.24
400.499	71
400.708	103.76
400.917	17.75
401.127	136.53
401.336	-0.68
401.545	118.1
401.754	11.61
401.963	107.86
402.172	111.96
402.381	120.15
402.59	64.85
402.799	75.09
403.008	171.35
403.217	85.33
403.426	32.08
403.635	140.63
403.844	91.48
404.053	128.34
404.262	75.09
404.471	138.58
404.68	138.58
404.888	103.76
405.097	152.91
405.306	79.19
405.515	114
405.724	157.01
405.933	111.96
406.142	163.15
406.35	161.11
406.559	202.07
406.768	161.11
406.977	140.63
407.185	103.76
407.394	138.58
407.603	122.2
407.812	144.72
408.02	169.3
408.229	212.31
408.438	230.74
408.646	200.02
408.855	193.87
409.064	157.01
409.272	169.3
409.481	169.3
409.69	161.11
409.898	171.35
410.107	210.26
410.315	255.31
410.524	216.4
410.733	238.93
410.941	275.79
411.15	292.18
411.358	310.61
411.567	316.75
411.775	269.65
411.984	333.14
412.192	374.1
412.401	298.32
412.609	331.09
412.818	382.29
413.026	292.18
413.234	374.1
413.443	320.85
413.651	384.34
413.86	443.73
414.068	456.01
414.276	447.82
414.485	408.91
414.693	413.01
414.901	556.36
415.11	496.97
415.318	560.46
415.526	503.12
415.734	603.47
415.943	572.75
416.151	689.48
416.359	632.14
416.567	636.24
416.776	630.09
416.984	632.14
417.192	730.44
417.4	675.15
417.608	779.59
417.817	703.82
418.025	859.46
418.233	841.03
418.441	857.42
418.649	906.57
418.857	945.48
419.065	933.19
419.273	943.43
419.481	949.57
419.689	1084.74
419.897	1045.83
420.105	1119.56
420.313	1054.02
420.521	1299.78
420.729	1273.15
420.937	1365.31
421.145	1334.59
421.353	1449.28
421.561	1516.86
421.769	1547.58
421.977	1473.85
422.185	1578.3
422.393	1649.98
422.601	1635.64
422.809	1588.54
423.017	1770.81
423.224	1803.58
423.432	1819.96
423.64	1850.68
423.848	2028.85
424.056	1930.55
424.263	2118.97
424.471	2049.33
424.679	2098.49
424.887	2299.19
425.094	2268.47
425.302	2368.82
425.51	2422.06
425.718	2499.89
425.925	2485.55
426.133	2573.61
426.341	2667.82
426.548	2764.08
426.756	2800.94
426.964	2905.38
427.171	3128.61
427.379	3081.51
427.586	3337.51
427.794	3247.4
428.001	3360.03
428.209	3573.02
428.417	3454.24
428.624	3638.56
428.832	3767.58
429.039	3689.76
429.247	3869.98
429.454	4066.58
429.662	4445.46
429.869	4209.94
430.076	4439.31
430.284	4349.2
430.491	4379.92
430.699	4803.85
430.906	4791.56
431.114	4797.71
431.321	4977.93
431.528	5045.51
431.736	5311.75
431.943	5657.85
432.15	5530.88
432.358	5551.36
432.565	5860.6
432.772	5704.96
432.979	6208.76
433.187	6167.8
433.394	6206.71
433.601	6700.27
433.808	6751.47
434.016	6669.55
434.223	6946.03
434.43	7240.93
434.637	7310.57
434.844	7560.42
435.052	7814.37
435.259	7812.32
435.466	7884
435.673	7685.34
435.88	8352.98
436.087	8522.96
436.294	8879.31
436.501	8547.54
436.708	8565.97
436.915	9024.72
437.122	9465.03
437.329	9295.05
437.537	9708.74
437.743	9893.05
437.95	9678.02
438.157	10233.02
438.364	10413.24
438.571	10417.33
438.778	10540.21
438.985	11623.59
439.192	11119.79
439.399	11549.86
439.606	11175.08
439.813	11889.82
440.02	12612.76
440.227	12295.32
440.433	12225.69
440.64	12672.15
440.847	12618.9
441.054	12938.38
441.261	13780.1
441.467	13698.18
441.674	13929.6
441.881	14357.63
442.088	14310.52
442.294	14062.72
442.501	14773.36
442.708	14556.28
442.914	15428.71
443.121	16069.73
443.328	15590.5
443.534	16907.35
443.741	16094.3
443.948	15895.65
444.154	17175.63
444.361	16976.98
444.568	17263.69
444.774	17396.81
444.981	17347.66
445.187	18048.07
445.394	18857.01
445.6	18711.61
445.807	20216.86
446.013	19510.32
446.22	19625
446.426	20722.71
446.633	20841.5
446.839	21451.79
447.046	20716.57
447.252	21701.64
447.459	21863.43
447.665	21726.22
447.871	22821.88
448.078	23567.34
448.284	22619.13
448.491	23075.83
448.697	24280.03
448.903	24331.23
449.11	24435.68
449.316	24030.18
449.522	24372.19
449.728	25375.7
449.935	25578.45
450.141	25727.95
450.347	25893.83
450.553	25273.3
450.76	25738.19
450.966	26618.82
451.172	26235.84
451.378	26934.2
451.584	26467.27
451.791	27186.1
451.997	26903.48
452.203	27483.06
452.409	27476.91
452.615	27323.32
452.821	26346.44
453.027	26393.54
453.233	27661.23
453.44	26698.69
453.646	26672.06
453.852	26878.91
454.058	27222.97
454.264	26416.07
454.47	27204.53
454.676	26473.41
454.882	27243.45
455.088	24882.14
455.294	25553.87
455.5	25809.87
455.705	25779.15
455.911	24783.84
456.117	24568.8
456.323	24433.63
456.529	23182.32
456.735	24128.49
456.941	23286.77
457.147	22873.08
457.352	22240.26
457.558	22010.89
457.764	22174.72
457.97	21558.28
458.176	21376.02
458.381	21074.96
458.587	20272.16
458.793	20110.37
458.999	19168.3
459.204	20440.09
459.41	20153.38
459.616	18734.14
459.821	18846.77
460.027	18496.57
460.233	18105.41
460.438	17314.89
460.644	17597.51
460.85	16659.54
461.055	16653.4
461.261	16448.6
461.466	15031.41
461.672	14562.42
461.878	15565.93
462.083	14861.43
462.289	14431.35
462.494	14230.65
462.7	13585.54
462.905	13460.62
463.111	13712.52
463.316	13835.39
463.522	13640.84
463.727	13567.11
463.932	13534.34
464.138	13417.61
464.343	13395.08
464.549	12885.14
464.754	13300.87
464.959	13274.25
465.165	12999.82
465.37	12817.55
465.575	12213.4
465.781	12868.75
465.986	13063.31
466.191	12274.84
466.397	12293.27
466.602	11721.89
466.807	12154.01
467.012	12098.72
467.218	12127.39
467.423	11877.54
467.628	11850.91
467.833	12385.43
468.038	11932.83
468.244	11678.88
468.449	12055.71
468.654	11717.79
468.859	11625.64
469.064	11658.4
469.269	11074.73
469.474	11037.87
469.679	11310.25
469.885	11050.16
470.09	11320.49
470.295	11291.82
470.5	10859.7
470.705	10960.05
470.91	10538.16
471.115	10777.78
471.32	10841.26
471.525	10757.3
471.73	10575.03
471.935	10628.28
472.139	10042.56
472.344	10147
472.549	10235.07
472.754	9977.02
472.959	9673.92
473.164	9741.5
473.369	9458.89
473.574	9819.33
473.778	9837.76
473.983	9635.01
474.188	9602.24
474.393	9196.75
474.598	9258.18
474.802	9067.72
475.007	9059.53
475.212	9188.55
475.417	8680.66
475.621	8844.49
475.826	8793.3
476.031	8680.66
476.235	8559.83
476.44	8643.79
476.645	8475.86
476.849	8373.46
477.054	8484.05
477.259	8125.66
477.463	8287.45
477.668	7918.81
477.872	8090.84
478.077	7949.53
478.282	7918.81
478.486	7697.63
478.691	7748.83
478.895	7603.43
479.1	7730.4
479.304	7570.66
479.509	7283.94
479.713	7797.98
479.918	7333.09
480.122	7070.95
480.326	7136.49
480.531	7306.47
480.735	7199.98
480.94	7253.22
481.144	7410.92
481.348	7062.76
481.553	7111.91
481.757	7046.38
481.961	7130.34
482.166	7134.44
482.37	7140.58
482.574	6962.41
482.778	6837.48
482.983	7130.34
483.187	7011.56
483.391	6972.65
483.595	6857.96
483.8	6876.4
484.004	6948.08
484.208	7073
484.412	7017.71
484.616	6993.13
484.821	7073
485.025	7019.75
485.229	7085.29
485.433	6978.79
485.637	6757.61
485.841	7066.86
486.045	7089.39
486.249	7036.14
486.453	6931.69
486.657	6870.25
486.861	7140.58
487.065	6794.48
487.269	6896.88
487.473	6855.92
487.677	6925.55
487.881	7101.67
488.085	7038.19
488.289	7060.71
488.493	6913.26
488.697	7183.59
488.901	6931.69
489.105	7150.82
489.309	7040.23
489.512	6950.12
489.716	6896.88
489.92	7148.78
490.124	7132.39
490.328	7423.2
490.531	6976.75
490.735	7111.91
490.939	7206.12
491.143	7183.59
491.346	7271.65
491.55	7329
491.754	7206.12
491.958	7445.73
492.161	7329
492.365	7341.29
492.569	7159.02
492.772	7288.04
492.976	7513.31
493.18	7539.94
493.383	7660.77
493.587	7638.24
493.79	7677.15
493.994	7615.71
494.197	7652.58
494.401	7771.36
494.605	7701.73
494.808	7673.06
495.012	8074.46
495.215	7963.87
495.419	7912.67
495.622	7838.94
495.825	8230.1
496.029	8088.79
496.232	8301.78
496.436	8187.1
496.639	8436.95
496.843	8430.8
497.046	8441.04
497.249	8651.99
497.453	8664.27
497.656	8862.93
497.859	8795.34
498.063	8977.61
498.266	9227.46
498.469	9053.39
498.673	9135.31
498.876	9198.79
499.079	9446.6
499.282	9460.93
499.485	9530.56
499.689	9600.19
499.892	9753.79
500.095	9821.38
500.298	10036.41
500.501	9813.18
500.705	10314.94
500.908	10329.27
501.111	10501.3
501.314	10151.1
501.517	10476.73
501.72	10917.04
501.923	10570.93
502.126	10892.46
502.329	11175.08
502.532	11207.85
502.735	11074.73
502.938	11590.82
503.141	11347.11
503.344	11666.6
503.547	11758.75
503.75	12031.13
503.953	12248.22
504.156	12129.44
504.359	12283.03
504.562	12248.22
504.765	12713.11
504.968	12663.96
505.17	12815.51
505.373	12684.44
505.576	12858.51
505.779	13401.22
505.982	13212.81
506.185	13538.44
506.387	13661.32
506.59	13739.14
506.793	13988.99
506.996	13784.19
507.198	14177.41
507.401	14081.15
507.604	14408.83
507.807	14691.45
508.009	14808.18
508.212	14738.55
508.415	14724.21
508.617	15228.01
508.82	15379.56
509.022	15314.03
509.225	15725.67
509.428	15826.02
509.63	15774.82
509.833	16030.82
510.035	16374.88
510.238	16323.68
510.44	16739.41
510.643	16790.61
510.845	16639.06
511.048	16864.34
511.25	16995.41
511.453	17310.8
511.655	17677.38
511.858	17495.11
512.06	17726.53
512.262	17839.17
512.465	17697.86
512.667	18412.6
512.87	18742.33
513.072	18588.73
513.274	18854.97
513.477	19139.63
513.679	19149.87
513.881	19229.74
514.084	19452.97
514.286	19342.38
514.488	19475.5
514.69	20485.15
514.893	20073.51
515.095	20184.1
515.297	20515.87
515.499	20513.82
515.701	21011.48
515.904	21267.47
516.106	21095.44
516.308	21736.46
516.51	21742.6
516.712	21828.62
516.914	21820.42
517.116	22414.34
517.318	22340.61
517.52	22543.36
517.722	22881.27
517.925	22916.09
518.127	23249.91
518.329	23264.24
518.531	23335.92
518.733	23614.44
518.935	24013.8
519.136	23954.41
519.338	24067.05
519.54	24345.57
519.742	24595.42
519.944	24671.2
520.146	25099.22
520.348	25254.87
520.55	25314.26
520.752	25371.6
520.954	25756.62
521.155	25963.47
521.357	26174.41
521.559	26045.38
521.761	26751.93
521.963	26696.64
522.164	26885.05
522.366	26913.72
522.568	27020.22
522.77	27468.72
522.971	27820.97
523.173	27409.33
523.375	27536.31
523.576	27904.94
523.778	28144.55
523.98	28545.95
524.181	28593.06
524.383	28445.6
524.584	28826.53
524.786	28758.94
524.988	28623.78
525.189	29305.75
525.391	29197.21
525.592	29322.13
525.794	29596.56
525.995	29684.62
526.197	29729.68
526.398	29926.28
526.6	30235.53
526.801	30229.38
527.003	30413.7
527.204	30176.14
527.406	30600.07
527.607	30555.01
527.808	30980.99
528.01	30684.03
528.211	30831.49
528.412	31546.23
528.614	31085.43
528.815	31263.61
529.016	31230.84
529.218	31304.57
529.419	31339.38
529.62	31314.81
529.822	31691.63
530.023	31591.28
530.224	31402.87
530.425	31693.68
530.626	31329.14
530.828	31095.67
531.029	32185.19
531.23	31638.39
531.431	31638.39
531.632	31980.4
531.833	32103.28
532.035	32295.78
532.236	31789.94
532.437	32109.42
532.638	31767.41
532.839	32306.02
533.04	32111.47
533.241	31900.53
533.442	32443.24
533.643	32451.43
533.844	31826.8
534.045	32455.53
534.246	32041.84
534.447	32478.05
534.648	32084.84
534.849	32525.16
535.05	32416.61
535.251	32590.69
535.451	32412.52
535.652	32242.54
535.853	32297.83
536.054	32279.4
536.255	32240.49
536.456	32123.76
536.657	32940.89
536.857	32080.75
537.058	32236.39
537.259	32621.41
537.46	32297.83
537.66	32150.38
537.861	32695.14
538.062	32473.96
538.263	32639.84
538.463	32293.74
538.664	32260.97
538.865	32467.81
539.065	32772.96
539.266	32199.53
539.466	32637.8
539.667	32148.33
539.868	32795.49
540.068	32236.39
540.269	32476.01
540.469	32760.67
540.67	32146.28
540.87	32645.99
541.071	32336.74
541.271	32557.92
541.472	32379.75
541.672	32467.81
541.873	32234.35
542.073	32234.35
542.274	32572.26
542.474	32562.02
542.675	32050.03
542.875	32602.98
543.075	32582.5
543.276	32295.78
543.476	32562.02
543.676	32164.71
543.877	32469.86
544.077	32203.63
544.277	32428.9
544.478	32695.14
544.678	32408.42
544.878	32351.08
545.078	32453.48
545.279	32226.15
545.479	32519.01
545.679	32392.04
545.879	32478.05
546.079	32332.65
546.28	32643.94
546.48	31949.68
546.68	32455.53
546.88	32410.47
547.08	32453.48
547.28	32207.72
547.48	31982.45
547.68	32353.13
547.88	32224.11
548.081	32426.85
548.281	32277.35
548.481	32195.43
548.681	32568.16
548.881	32295.78
549.081	32234.35
549.28	32330.6
549.48	32187.24
549.68	32080.75
549.88	32510.82
550.08	31941.49
550.28	32422.76
550.48	32433
550.68	32555.88
550.88	32095.08
551.08	32078.7
551.279	32193.39
551.479	31814.51
551.679	32209.77
551.879	31902.57
552.079	32252.78
552.278	32060.27
552.478	31978.35
552.678	32246.63
552.878	32310.12
553.077	31794.03
553.277	31951.73
553.477	32215.91
553.676	31781.74
553.876	32088.94
554.076	32088.94
554.275	32191.34
554.475	31957.87
554.674	32101.23
554.874	31787.89
555.074	31681.39
555.273	31849.33
555.473	32074.6
555.672	31337.34
555.872	31888.24
556.071	31857.52
556.271	31878
556.47	31697.78
556.67	31914.86
556.869	31384.44
557.068	31685.49
557.268	31003.52
557.467	31677.3
557.667	31396.73
557.866	31591.28
558.065	31153.02
558.265	31189.88
558.464	31169.4
558.663	31871.85
558.863	30913.41
559.062	31452.02
559.261	31001.47
559.461	31181.69
559.66	30915.45
559.859	31069.05
560.058	31153.02
560.258	31021.95
560.457	30794.62
560.656	30937.98
560.855	30897.02
561.054	31306.62
561.253	30452.61
561.453	30886.78
561.652	30843.77
561.851	30563.2
562.05	30436.23
562.249	30473.09
562.448	30874.49
562.647	30716.8
562.846	30577.54
563.045	30479.24
563.244	29834.13
563.443	30290.82
563.642	29969.29
563.841	30012.3
564.04	30571.39
564.239	30176.14
564.438	29901.71
564.637	29848.46
564.836	29928.33
565.035	29893.52
565.234	30077.83
565.432	29832.08
565.631	29334.42
565.83	29889.42
566.029	29473.68
566.228	29424.53
566.427	29623.19
566.625	29481.88
566.824	28988.31
567.023	29565.84
567.222	28967.84
567.42	29379.48
567.619	28896.16
567.818	28900.25
568.016	28980.12
568.215	29201.3
568.414	28822.43
568.612	29305.75
568.811	28681.12
569.01	28896.16
569.208	28332.96
569.407	28437.41
569.605	28445.6
569.804	28572.58
570.002	28228.52
570.201	28398.5
570.4	28119.98
570.598	27911.08
570.797	28122.02
570.995	28058.54
571.193	27620.27
571.392	28134.31
571.59	27999.15
571.789	27737.01
571.987	27859.88
572.186	27462.58
572.384	27607.98
572.582	27667.38
572.781	27519.92
572.979	27161.53
573.177	27247.54
573.376	27265.97
573.574	27065.27
573.772	27198.39
573.971	26751.93
574.169	26461.12
574.367	26319.81
574.565	26784.7
574.763	26637.25
574.962	26803.13
575.16	26151.88
575.358	26606.53
575.556	26178.5
575.754	26555.33
575.952	26096.58
576.151	26362.82
576.349	25910.22
576.547	25994.18
576.745	25844.68
576.943	26033.1
577.141	25641.93
577.339	25830.35
577.537	25822.16
577.735	25727.95
577.933	25549.78
578.131	25773
578.329	25586.64
578.527	25498.58
578.725	25347.03
578.923	25611.21
579.121	25582.54
579.319	25445.33
579.516	25406.42
579.714	24908.76
579.912	24875.99
580.11	25119.7
580.308	24685.53
580.506	25031.64
580.704	24654.81
580.901	24898.52
581.099	24630.24
581.297	24597.47
581.495	24609.76
581.692	24810.46
581.89	24271.84
582.088	24435.68
582.285	24124.39
582.483	24255.46
582.681	24310.75
582.878	24105.96
583.076	23993.32
583.274	24429.54
583.471	23573.49
583.669	24075.24
583.866	23964.65
584.064	23825.39
584.262	23684.08
584.459	23555.05
584.657	23733.23
584.854	23624.68
585.052	23321.59
585.249	23374.83
585.447	23278.58
585.644	23397.36
585.841	23423.98
586.039	23131.12
586.236	23206.9
586.434	23004.15
586.631	22815.74
586.828	23110.64
587.026	22975.48
587.223	22713.34
587.42	22621.18
587.618	22735.87
587.815	22633.47
588.012	22387.71
588.21	22430.72
588.407	22594.56
588.604	22336.51
588.801	21920.77
588.999	22350.85
589.196	22268.93
589.393	22189.06
589.59	22057.99
589.787	21892.1
589.984	21920.77
590.182	21683.21
590.379	22027.27
590.576	21845
590.773	21781.51
590.97	21519.37
591.167	21646.35
591.364	21556.24
591.561	21439.5
591.758	21242.9
591.955	20900.89
592.152	21318.67
592.349	20931.61
592.546	21167.12
592.743	21058.58
592.94	20907.03
593.137	20904.98
593.334	21240.85
593.531	20685.85
593.727	20788.25
593.924	20663.32
594.121	20565.02
594.318	20380.7
594.515	20343.84
594.712	20671.51
594.908	20266.02
595.105	20288.54
595.302	20155.43
595.499	20188.19
595.696	20157.47
595.892	19987.49
596.089	20251.68
596.286	20161.57
596.482	19954.72
596.679	19663.91
596.876	19745.83
597.072	19676.2
597.269	19770.41
597.466	19364.91
597.662	19616.81
597.859	19653.67
598.055	19362.86
598.252	19338.29
598.448	19594.28
598.645	19176.5
598.841	18961.46
599.038	18871.35
599.234	19377.2
599.431	18908.21
599.627	18988.08
599.824	19156.02
600.02	18777.14
600.217	18842.68
600.413	18586.68
600.609	18756.66
600.806	18732.09
601.002	18654.26
601.198	18594.87
601.395	18443.32
601.591	18406.46
601.787	18564.15
601.984	18437.18
602.18	18598.97
602.376	18256.96
602.572	18043.97
602.769	18066.5
602.965	18109.5
603.161	18052.16
603.357	18003.01
603.553	17927.24
603.75	18033.73
603.946	17620.04
604.142	17859.65
604.338	17392.72
604.534	17925.19
604.73	17646.66
604.926	17237.07
605.122	17409.1
605.318	17282.13
605.514	17443.92
605.71	17194.06
605.906	17562.7
606.102	16964.69
606.298	17142.86
606.494	17077.33
606.69	17185.87
606.886	17110.1
607.082	16997.46
607.278	17093.71
607.474	16661.59
607.67	16952.4
607.866	16708.69
608.062	16802.9
608.257	16694.36
608.453	16694.36
608.649	16938.07
608.845	16735.32
609.041	16720.98
609.236	16708.69
609.432	16489.56
609.628	16612.44
609.824	16462.94
610.019	16407.64
610.215	16516.19
610.411	16270.43
610.606	16225.37
610.802	16344.16
610.998	16290.91
611.193	16428.12
611.389	16151.65
611.584	16180.32
611.78	15965.28
611.976	16073.82
612.171	16133.22
612.367	16006.24
612.562	16049.25
612.758	15815.78
612.953	15748.2
613.149	16079.97
613.344	15774.82
613.539	15959.14
613.735	15926.37
613.93	15838.31
614.126	15660.13
614.321	15797.35
614.517	15641.7
614.712	15283.31
614.907	15840.36
615.103	15688.81
615.298	15506.54
615.493	15711.33
615.688	15350.89
615.884	15561.83
616.079	15522.92
616.274	15377.51
616.47	15000.69
616.665	15586.41
616.86	15156.33
617.055	15170.67
617.25	15154.29
617.445	15193.2
617.641	15215.73
617.836	15148.14
618.031	14847.09
618.226	15098.99
618.421	14937.2
618.616	14990.45
618.811	14679.16
619.006	14853.23
619.201	14675.06
619.396	14646.39
619.591	14494.84
619.786	14820.47
619.981	14425.21
620.176	14675.06
620.371	14466.17
620.566	14402.68
620.761	14419.07
620.956	14527.61
621.151	14136.45
621.346	14011.52
621.541	14064.77
621.735	14195.84
621.93	13890.69
622.125	13923.46
622.32	13546.63
622.515	14048.38
622.709	13583.49
622.904	13462.66
623.099	13747.33
623.294	13388.94
623.488	13063.31
623.683	13382.79
623.878	13132.94
624.072	13132.94
624.267	13057.17
624.462	12866.7
624.656	12942.48
624.851	12954.77
625.046	12975.25
625.24	12661.91
625.435	12612.76
625.629	12551.32
625.824	12434.58
626.018	12338.33
626.213	12375.19
626.407	12397.72
626.602	12158.11
626.796	12276.89
626.991	12297.37
627.185	12379.29
627.38	12063.9
627.574	12080.28
627.768	12014.75
627.963	11977.89
628.157	11812
628.352	11746.47
628.546	11537.57
628.74	11889.82
628.935	11533.48
629.129	11441.32
629.323	11394.22
629.517	11259.05
629.712	11125.93
629.906	11375.78
630.1	11064.49
630.294	11146.41
630.489	11017.39
630.683	11250.86
630.877	10904.75
631.071	10960.05
631.265	10982.57
631.459	10849.46
631.653	10710.19
631.848	10646.71
632.042	10636.47
632.236	10679.47
632.43	10579.12
632.624	10566.84
632.818	10452.15
633.012	10339.51
633.206	10331.32
633.4	10276.02
633.594	10013.88
633.788	10181.82
633.982	10269.88
634.176	10011.84
634.369	10024.12
634.563	9780.42
634.757	9888.96
634.951	9891.01
635.145	9802.94
635.339	9802.94
635.533	9729.22
635.726	9657.54
635.92	9473.22
636.114	9501.89
636.308	9290.95
636.501	9342.15
636.695	9368.77
636.889	9270.47
637.083	9264.33
637.276	9393.35
637.47	9118.92
637.664	9108.68
637.857	9059.53
638.051	9262.28
638.244	9075.91
638.438	8959.18
638.632	8867.02
638.825	8717.52
639.019	8697.04
639.212	8977.61
639.406	8699.09
639.599	8807.63
639.793	8723.66
639.986	8576.21
640.18	8588.5
640.373	8551.63
640.567	8338.65
640.76	8430.8
640.954	8436.95
641.147	8219.86
641.34	8309.97
641.534	8348.89
641.727	8283.35
641.92	8205.53
642.114	8029.4
642.307	8056.03
642.5	7855.33
642.694	7867.61
642.887	7918.81
643.08	7947.48
643.273	7812.32
643.467	7791.84
643.66	7695.58
643.853	7849.18
644.046	7660.77
644.239	7691.49
644.432	7644.38
644.626	7478.5
644.819	7453.92
645.012	7552.23
645.205	7435.49
645.398	7398.63
645.591	7496.93
645.784	7324.9
645.977	7339.24
646.17	7253.22
646.363	7288.04
646.556	7060.71
646.749	7038.19
646.942	7015.66
647.135	7034.09
647.328	6976.75
647.521	6978.79
647.714	6978.79
647.907	6919.4
648.099	6890.73
648.292	6886.64
648.485	6853.87
648.678	6728.94
648.871	6702.32
649.064	6632.69
649.256	6769.9
649.449	6550.77
649.642	6532.34
649.835	6604.02
650.027	6526.19
650.22	6511.86
650.413	6413.56
650.605	6477.04
650.798	6448.37
650.991	6266.1
651.183	6401.27
651.376	6280.44
651.568	6350.07
651.761	6305.01
651.954	6241.53
652.146	6216.95
652.339	6257.91
652.531	6253.81
652.724	6055.16
652.916	5907.71
653.109	5991.67
653.301	5979.39
653.494	5844.22
653.686	5844.22
653.879	6006.01
654.071	5766.4
654.263	5831.93
654.456	5776.64
654.648	5932.28
654.84	5633.28
655.033	5717.25
655.225	5709.05
655.417	5661.95
655.61	5639.42
655.802	5584.13
655.994	5604.61
656.186	5604.61
656.379	5350.66
656.571	5408
656.763	5313.8
656.955	5383.43
657.148	5313.8
657.34	5291.27
657.532	5158.15
657.724	5227.78
657.916	5205.25
658.108	5149.96
658.3	5098.76
658.492	5174.53
658.684	5160.2
658.876	5027.08
659.068	5072.14
659.26	5018.89
659.452	4971.79
659.644	5039.37
659.836	4752.65
660.028	4990.22
660.22	4920.59
660.412	4957.45
660.604	4791.56
660.796	4855.05
660.988	4807.95
661.18	4810
661.372	4689.17
661.563	4609.29
661.755	4629.77
661.947	4783.37
662.139	4588.82
662.331	4590.86
662.522	4549.9
662.714	4590.86
662.906	4560.14
663.097	4541.71
663.289	4525.33
663.481	4427.03
663.673	4396.31
663.864	4365.59
664.056	4388.11
664.247	4449.55
664.439	4259.09
664.631	4551.95
664.822	4248.85
665.014	4240.66
665.205	4242.71
665.397	4218.13
665.588	4283.67
665.78	4160.79
665.971	4146.45
666.163	4164.89
666.354	4168.98
666.546	4066.58
666.737	4054.3
666.929	4162.84
667.12	3902.75
667.311	4007.19
667.503	4119.83
667.694	3927.32
667.885	3857.69
668.077	3974.42
668.268	3849.5
668.459	3843.35
668.651	3812.64
668.842	3935.51
669.033	3771.68
669.224	3882.27
669.416	3968.28
669.607	3755.29
669.798	3640.61
669.989	3783.96
670.18	3730.72
670.371	3732.76
670.563	3796.25
670.754	3714.33
670.945	3487.01
671.136	3616.03
671.327	3540.26
671.518	3659.04
671.709	3585.31
671.9	3507.49
672.091	3626.27
672.282	3495.2
672.473	3462.43
672.664	3482.91
672.855	3435.81
673.046	3458.34
673.237	3495.2
673.428	3409.19
673.619	3376.42
673.809	3349.79
674	3386.66
674.191	3470.62
674.382	3304.74
674.573	3247.4
674.764	3179.81
674.954	3276.07
675.145	3292.45
675.336	3265.83
675.527	3239.2
675.717	3284.26
675.908	3188
676.099	3110.18
676.289	3126.57
676.48	3171.62
676.671	3101.99
676.861	3067.17
677.052	3071.27
677.243	3069.22
677.433	3128.61
677.624	3169.57
677.814	3050.79
678.005	3028.26
678.195	3063.08
678.386	3116.33
678.576	2895.15
678.767	2952.49
678.957	2993.45
679.148	2870.57
679.338	2981.16
679.529	2946.34
679.719	2913.58
679.909	3040.55
680.1	2796.84
680.29	2919.72
680.481	2821.42
680.671	2774.31
680.861	2811.18
681.052	2757.93
681.242	2823.47
681.432	2768.17
681.622	2815.27
681.813	2665.77
682.003	2776.36
682.193	2643.24
682.383	2858.28
682.573	2694.44
682.764	2786.6
682.954	2782.51
683.144	2692.4
683.334	2659.63
683.524	2641.2
683.714	2692.4
683.904	2633.01
684.094	2563.37
684.284	2626.86
684.474	2585.9
684.664	2565.42
684.854	2671.92
685.044	2583.85
685.234	2536.75
685.424	2526.51
685.614	2520.37
685.804	2524.46
685.994	2426.16
686.184	2557.23
686.374	2491.7
686.564	2510.13
686.753	2297.14
686.943	2489.65
687.133	2383.15
687.323	2549.04
687.513	2452.78
687.702	2491.7
687.892	2377.01
688.082	2393.39
688.272	2356.53
688.461	2309.43
688.651	2465.07
688.841	2385.2
689.03	2323.76
689.22	2319.67
689.41	2311.47
689.599	2399.54
689.789	2237.75
689.979	2207.03
690.168	2331.95
690.358	2301.23
690.547	2250.03
690.737	2211.12
690.926	2188.6
691.116	2209.08
691.305	2186.55
691.495	2182.45
691.684	2227.51
691.874	2082.1
692.063	1989.94
692.252	2118.97
692.442	2102.58
692.631	2151.73
692.82	2086.2
693.01	2100.53
693.199	2190.64
693.388	2073.91
693.578	2174.26
693.767	2129.2
693.956	2078.01
694.146	2049.33
694.335	2209.08
694.524	2096.44
694.713	2112.82
694.902	2061.62
695.092	1938.74
695.281	2092.34
695.47	2037.05
695.659	2086.2
695.848	2030.9
696.037	2018.61
696.226	2047.29
696.415	1981.75
696.604	2047.29
696.793	2035
696.982	1987.89
697.171	2149.68
697.36	2016.57
697.549	1983.8
697.738	2067.77
697.927	2043.19
698.116	1940.79
698.305	2014.52
698.494	2018.61
698.683	2016.57
698.872	2045.24
699.061	2045.24
699.25	1944.89
699.438	1985.85
699.627	1946.94
699.816	1940.79
700.005	1916.22
700.193	1994.04
700.382	1912.12
700.571	1918.26
700.76	1875.26
700.948	1912.12
701.137	1803.58
701.326	1938.74
701.514	1944.89
701.703	1983.8
701.892	1842.49
702.08	2090.29
702.269	1951.03
702.457	1871.16
702.646	1983.8
702.834	1779
703.023	1920.31
703.212	2008.37
703.4	1860.92
703.589	1932.6
703.777	1803.58
703.965	1852.73
704.154	1881.4
704.342	1889.59
704.531	1957.18
704.719	1844.54
704.907	2020.66
705.096	1926.46
705.284	1844.54
705.472	2014.52
705.661	1926.46
705.849	2000.18
706.037	1824.06
706.226	1955.13
706.414	1930.55
706.602	1846.59
706.79	1895.74
706.979	1867.06
707.167	1826.11
707.355	1869.11
707.543	1848.63
707.731	1877.3
707.919	1852.73
708.107	1951.03
708.296	1756.47
708.484	1928.5
708.672	1826.11
708.86	1948.98
709.048	1893.69
709.236	1948.98
709.424	1897.78
709.612	1875.26
709.8	1856.83
709.988	1865.02
710.176	1963.32
710.364	1858.87
710.551	1877.3
710.739	1844.54
710.927	1828.15
711.115	1889.59
711.303	1975.61
711.491	1875.26
711.679	1793.34
711.866	1883.45
712.054	1891.64
712.242	1842.49
712.43	1860.92
712.617	1838.39
712.805	1832.25
712.993	1822.01
713.181	1795.39
713.368	1981.75
713.556	1850.68
713.744	1776.95
713.931	1879.35
714.119	1891.64
714.306	1973.56
714.494	1865.02
714.682	1770.81
714.869	1781.05
715.057	1920.31
715.244	1867.06
715.432	1893.69
715.619	1844.54
715.807	1819.96
715.994	1828.15
716.182	1828.15
716.369	1779
716.556	1850.68
716.744	1805.63
716.931	1807.67
717.119	1850.68
717.306	1758.52
717.493	1807.67
717.681	1772.86
717.868	1813.82
718.055	1787.19
718.242	1711.42
718.43	1776.95
718.617	1887.54
718.804	1914.17
718.991	1885.5
719.179	1774.91
719.366	1871.16
719.553	1881.4
719.74	1799.48
719.927	1822.01
720.114	1850.68
720.301	1791.29
720.488	1869.11
720.676	1854.78
720.863	1885.5
721.05	1783.1
721.237	1678.65
721.424	1787.19
721.611	1836.35
721.798	1840.44
721.985	1719.61
722.172	1748.28
722.358	1750.33
722.545	1856.83
722.732	1662.27
722.919	1795.39
723.106	1889.59
723.293	1772.86
723.48	1754.43
723.667	1752.38
723.853	1758.52
724.04	1746.23
724.227	1738.04
724.414	1815.87
724.6	1723.71
724.787	1721.66
724.974	1793.34
725.161	1684.8
725.347	1713.47
725.534	1760.57
725.72	1824.06
725.907	1746.23
726.094	1697.08
726.28	1688.89
726.467	1733.95
726.653	1676.6
726.84	1721.66
727.027	1774.91
727.213	1617.21
727.4	1815.87
727.586	1656.12
727.773	1721.66
727.959	1742.14
728.145	1776.95
728.332	1678.65
728.518	1699.13
728.705	1774.91
728.891	1647.93
729.077	1774.91
729.264	1611.07
729.45	1707.32
729.636	1656.12
729.823	1748.28
730.009	1688.89
730.195	1701.18
730.382	1697.08
730.568	1715.52
730.754	1723.71
730.94	1750.33
731.126	1701.18
731.313	1717.56
731.499	1662.27
731.685	1668.41
731.871	1645.88
732.057	1744.19
732.243	1645.88
732.429	1684.8
732.615	1768.76
732.801	1705.28
732.987	1590.59
733.173	1703.23
733.359	1654.08
733.545	1613.12
733.731	1676.6
733.917	1647.93
734.103	1617.21
734.289	1662.27
734.475	1559.87
734.661	1680.7
734.847	1633.6
735.033	1719.61
735.219	1641.79
735.404	1555.77
735.59	1662.27
735.776	1510.72
735.962	1613.12
736.148	1629.5
736.333	1549.63
736.519	1670.46
736.705	1604.92
736.89	1561.92
737.076	1604.92
737.262	1537.34
737.447	1582.4
737.633	1602.88
737.819	1617.21
738.004	1690.94
738.19	1500.48
738.375	1496.38
738.561	1592.64
738.747	1615.16
738.932	1590.59
739.118	1539.39
739.303	1574.21
739.489	1580.35
739.674	1482.05
739.859	1465.66
740.045	1541.44
740.23	1469.76
740.416	1418.56
740.601	1531.2
740.786	1416.51
740.972	1451.33
741.157	1467.71
741.342	1453.38
741.528	1379.65
741.713	1512.77
741.898	1365.31
742.084	1539.39
742.269	1471.81
742.454	1447.23
742.639	1469.76
742.824	1453.38
743.01	1359.17
743.195	1406.27
743.38	1408.32
743.565	1441.09
743.75	1408.32
743.935	1400.13
744.12	1385.79
744.305	1408.32
744.49	1371.46
744.675	1432.9
744.86	1340.74
745.045	1301.83
745.23	1463.62
745.415	1396.03
745.6	1357.12
745.785	1328.45
745.97	1267.01
746.155	1303.87
746.34	1324.35
746.525	1250.63
746.71	1291.59
746.895	1307.97
747.079	1240.39
747.264	1250.63
747.449	1258.82
747.634	1287.49
747.819	1209.67
748.003	1209.67
748.188	1105.22
748.373	1213.76
748.557	1232.19
748.742	1201.48
748.927	1248.58
749.111	1238.34
749.296	1119.56
749.481	1289.54
749.665	1283.39
749.85	1127.75
750.034	1305.92
750.219	1064.26
750.404	1160.52
750.588	1191.24
750.773	1080.64
750.957	1250.63
751.141	1107.27
751.326	1066.31
751.51	1131.84
751.695	1129.8
751.879	1127.75
752.064	1170.76
752.248	1078.6
752.432	1168.71
752.617	1099.08
752.801	1097.03
752.985	1090.88
753.17	1097.03
753.354	1101.12
753.538	1086.79
753.722	1060.17
753.907	996.68
754.091	1008.97
754.275	1168.71
754.459	996.68
754.643	1072.45
754.828	990.53
755.012	1035.59
755.196	939.33
755.38	1023.3
755.564	937.29
755.748	968.01
755.932	943.43
756.116	974.15
756.3	976.2
756.484	933.19
756.668	988.49
756.852	949.57
757.036	894.28
757.22	972.1
757.404	857.42
757.588	933.19
757.772	894.28
757.956	865.61
758.14	972.1
758.323	851.27
758.507	879.94
758.691	871.75
758.875	847.18
759.059	912.71
759.242	910.66
759.426	861.51
759.61	834.89
759.794	849.22
759.977	863.56
760.161	949.57
760.345	845.13
760.528	830.79
760.712	812.36
760.895	851.27
761.079	863.56
761.263	767.31
761.446	814.41
761.63	744.78
761.813	785.74
761.997	732.49
762.18	820.55
762.364	759.11
762.547	746.83
762.731	806.22
762.914	802.12
763.098	691.53
763.281	755.02
763.464	783.69
763.648	726.35
763.831	722.25
764.015	759.11
764.198	869.7
764.381	857.42
764.564	769.35
764.748	771.4
764.931	838.98
765.114	804.17
765.297	820.55
765.481	701.77
765.664	752.97
765.847	699.72
766.03	734.54
766.213	660.81
766.397	744.78
766.58	746.83
766.763	763.21
766.946	703.82
767.129	775.5
767.312	660.81
767.495	677.19
767.678	699.72
767.861	695.63
768.044	648.52
768.227	671.05
768.41	658.76
768.593	701.77
768.776	744.78
768.959	699.72
769.142	752.97
769.324	736.59
769.507	611.66
769.69	736.59
769.873	691.53
770.056	738.63
770.239	642.38
770.421	767.31
770.604	654.67
770.787	650.57
770.97	742.73
771.152	646.48
771.335	638.28
771.518	679.24
771.7	654.67
771.883	738.63
772.066	648.52
772.248	738.63
772.431	558.41
772.613	646.48
772.796	640.33
772.978	687.43
773.161	677.19
773.343	656.72
773.526	556.36
773.708	720.2
773.891	554.32
774.073	531.79
774.256	660.81
774.438	613.71
774.621	589.13
774.803	582.99
774.985	601.42
775.168	603.47
775.35	564.56
775.532	603.47
775.715	595.28
775.897	656.72
776.079	501.07
776.261	554.32
776.444	519.5
776.626	484.69
776.808	554.32
776.99	523.6
777.173	587.08
777.355	482.64
777.537	582.99
777.719	570.7
777.901	556.36
778.083	505.17
778.265	464.21
778.447	472.4
778.629	556.36
778.811	490.83
778.993	623.95
779.175	535.89
779.357	552.27
779.539	472.4
779.721	542.03
779.903	539.98
780.085	386.38
780.267	507.21
780.449	484.69
780.631	523.6
780.812	531.79
780.994	445.77
781.176	523.6
781.358	480.59
781.54	423.25
781.721	505.17
781.903	413.01
782.085	507.21
782.267	488.78
782.448	460.11
782.63	372.05
782.812	423.25
782.993	427.34
783.175	456.01
783.357	496.97
783.538	406.86
783.72	525.65
783.901	390.48
784.083	374.1
784.264	341.33
784.446	429.39
784.627	460.11
784.809	419.15
784.99	441.68
785.172	429.39
785.353	337.23
785.535	318.8
785.716	329.04
785.897	351.57
786.079	286.03
786.26	370
786.441	404.82
786.623	357.71
786.804	464.21
786.985	386.38
787.167	433.49
787.348	333.14
787.529	402.77
787.71	406.86
787.891	349.52
788.073	312.66
788.254	363.86
788.435	415.06
788.616	388.43
788.797	294.22
788.978	312.66
789.159	218.45
789.34	316.75
789.522	302.42
789.703	329.04
789.884	343.38
790.065	341.33
790.246	378.19
790.427	296.27
790.607	335.18
790.788	255.31
790.969	275.79
791.15	337.23
791.331	322.9
791.512	253.27
791.693	236.88
791.874	210.26
792.054	312.66
792.235	365.9
792.416	316.75
792.597	238.93
792.778	243.03
792.958	259.41
793.139	220.5
793.32	230.74
793.5	275.79
793.681	365.9
793.862	222.55
794.042	294.22
794.223	243.03
794.404	302.42
794.584	257.36
794.765	251.22
794.945	245.07
795.126	265.55
795.306	245.07
795.487	152.91
795.667	288.08
795.848	318.8
796.028	292.18
796.209	238.93
796.389	251.22
796.57	249.17
796.75	187.73
796.93	230.74
797.111	267.6
797.291	243.03
797.471	265.55
797.652	179.54
797.832	238.93
798.012	265.55
798.192	228.69
798.373	204.11
798.553	177.49
798.733	249.17
798.913	263.51
799.093	226.64
799.274	210.26
799.454	185.68
799.634	197.97
799.814	224.59
799.994	259.41
800.174	236.88
800.354	216.4
800.534	191.83
800.714	224.59
800.894	185.68
801.074	251.22
801.254	220.5
801.434	218.45
801.614	208.21
801.794	193.87
801.974	650.57
802.154	152.91
802.334	224.59
802.514	220.5
802.693	202.07
802.873	132.44
803.053	208.21
803.233	93.52
803.413	179.54
803.592	83.28
803.772	177.49
803.952	161.11
804.131	212.31
804.311	120.15
804.491	247.12
804.67	161.11
804.85	165.2
805.03	138.58
805.209	224.59
805.389	206.16
805.568	163.15
805.748	245.07
805.928	154.96
806.107	218.45
806.287	146.77
806.466	212.31
806.646	150.87
806.825	152.91
807.004	236.88
807.184	163.15
807.363	181.59
807.543	210.26
807.722	105.81
807.901	169.3
808.081	159.06
808.26	134.48
808.439	150.87
808.619	218.45
808.798	161.11
808.977	177.49
809.156	154.96
809.336	93.52
809.515	177.49
809.694	195.92
809.873	52.56
810.052	169.3
810.231	154.96
810.411	138.58
810.59	179.54
810.769	101.72
810.948	169.3
811.127	107.86
811.306	152.91
811.485	171.35
811.664	150.87
811.843	146.77
812.022	124.24
812.201	138.58
812.38	83.28
812.559	21.85
812.737	148.82
812.916	97.62
813.095	99.67
813.274	142.68
813.453	103.76
813.632	111.96
813.811	118.1
813.989	87.38
814.168	120.15
814.347	177.49
814.526	103.76
814.704	167.25
814.883	171.35
815.062	89.43
815.24	118.1
815.419	60.76
815.598	144.72
815.776	87.38
815.955	105.81
816.133	103.76
816.312	173.39
816.49	134.48
816.669	202.07
816.847	169.3
817.026	40.28
817.204	120.15
817.383	105.81
817.561	126.29
817.74	157.01
817.918	101.72
818.097	34.13
818.275	36.18
818.453	66.9
818.632	83.28
818.81	118.1
818.988	122.2
819.167	60.76
819.345	64.85
819.523	124.24
819.701	93.52
819.879	142.68
820.058	91.48
820.236	109.91
820.414	34.13
820.592	132.44
820.77	111.96
820.948	105.81
821.127	107.86
821.305	136.53
821.483	46.42
821.661	107.86
821.839	77.14
822.017	118.1
822.195	81.24
822.373	144.72
822.551	116.05
822.729	109.91
822.907	136.53
823.085	118.1
823.262	77.14
823.44	128.34
823.618	71
823.796	146.77
823.974	120.15
824.152	32.08
824.329	50.52
824.507	99.67
824.685	58.71
824.863	79.19
825.04	103.76
825.218	142.68
825.396	48.47
825.574	68.95
825.751	83.28
825.929	56.66
826.107	40.28
826.284	99.67
826.462	58.71
826.639	60.76
826.817	64.85
826.994	87.38
827.172	15.7
827.349	114
827.527	54.61
827.704	114
827.882	81.24
828.059	75.09
828.237	101.72
828.414	52.56
828.591	68.95
828.769	46.42
828.946	54.61
829.124	122.2
829.301	109.91
829.478	7.51
829.655	99.67
829.833	93.52
830.01	95.57
830.187	91.48
830.364	77.14
830.542	146.77
830.719	154.96
830.896	154.96
831.073	-10.92
831.25	120.15
831.427	91.48
831.604	30.04
831.782	71
831.959	97.62
832.136	83.28
832.313	105.81
832.49	54.61
832.667	75.09
832.844	34.13
833.021	140.63
833.198	64.85
833.374	173.39
833.551	60.76
833.728	99.67
833.905	38.23
834.082	23.89
834.259	97.62
834.436	50.52
834.612	73.04
834.789	111.96
834.966	120.15
835.143	79.19
835.319	-6.83
835.496	93.52
835.673	118.1
835.85	89.43
836.026	7.51
836.203	87.38
836.38	64.85
836.556	-4.78
836.733	93.52
836.909	81.24
837.086	101.72
837.262	40.28
837.439	19.8
837.616	71
837.792	68.95
837.968	124.24
838.145	48.47
838.321	50.52
838.498	97.62
838.674	120.15
838.851	91.48
839.027	66.9
839.203	48.47
839.38	93.52
839.556	-12.97
839.732	79.19
839.909	25.94
840.085	105.81
840.261	46.42
840.437	64.85
840.614	56.66
840.79	27.99
840.966	71
841.142	19.8
841.318	101.72
841.494	91.48
841.671	66.9
841.847	136.53
842.023	19.8
842.199	91.48
842.375	120.15
842.551	62.8
842.727	89.43
842.903	50.52
843.079	-6.83
843.255	21.85
843.431	87.38
843.607	-29.35
843.783	7.51
843.959	21.85
844.134	38.23
844.31	77.14
844.486	-8.87
844.662	97.62
844.838	64.85
845.013	1.37
845.189	40.28
845.365	52.56
845.541	77.14
845.716	13.65
845.892	9.56
846.068	5.46
846.244	50.52
846.419	111.96
846.595	40.28
846.77	11.61
846.946	64.85
847.122	60.76
847.297	91.48
847.473	62.8
847.648	32.08
847.824	93.52
847.999	38.23
848.175	-39.59
848.35	54.61
848.526	48.47
848.701	56.66
848.876	-19.11
849.052	36.18
849.227	58.71
849.403	-29.35
849.578	77.14
849.753	48.47
849.929	64.85
850.104	-15.02
850.279	21.85
850.454	13.65
850.63	79.19
850.805	111.96
850.98	1.37
851.155	32.08
851.33	40.28
851.505	15.7
851.681	93.52
851.856	50.52
852.031	56.66
852.206	128.34
852.381	-15.02
852.556	34.13
852.731	42.32
852.906	79.19
853.081	48.47
853.256	56.66
853.431	38.23
853.606	7.51
853.781	-0.68
853.956	42.32
854.131	52.56
854.305	-2.73
854.48	122.2
854.655	30.04
854.83	21.85
855.005	95.57
855.18	75.09
855.354	-6.83
855.529	107.86
855.704	9.56
855.879	15.7
856.053	36.18
856.228	58.71
856.403	25.94
856.577	107.86
856.752	-41.64
856.926	21.85
857.101	46.42
857.276	44.37
857.45	34.13
857.625	30.04
857.799	73.04
857.974	-21.16
858.148	17.75
858.323	34.13
858.497	62.8
858.672	66.9
858.846	15.7
859.02	-12.97
859.195	44.37
859.369	-0.68
859.543	-15.02
859.718	-15.02
859.892	85.33
860.066	38.23
860.241	-0.68
860.415	-6.83
860.589	-37.55
860.763	48.47
860.938	-15.02
861.112	46.42
861.286	-6.83
861.46	87.38
861.634	-31.4
861.808	40.28
861.982	-55.98
862.157	15.7
862.331	15.7
862.505	66.9
862.679	27.99
862.853	-15.02
863.027	71
863.201	64.85
863.375	-12.97
863.549	34.13
863.722	97.62
863.896	73.04
864.07	-33.45
864.244	-10.92
864.418	52.56
864.592	64.85
864.766	-8.87
864.939	-0.68
865.113	-17.07
865.287	-0.68
865.461	46.42
865.634	46.42
865.808	-15.02
865.982	-29.35
866.156	42.32
866.329	30.04
866.503	-6.83
866.676	21.85
866.85	21.85
867.024	38.23
867.197	1.37
867.371	32.08
867.544	30.04
867.718	32.08
867.891	-29.35
868.065	46.42
868.238	5.46
868.412	130.39
868.585	85.33
868.759	21.85
868.932	-10.92
869.105	-0.68
869.279	-41.64
869.452	7.51
869.625	-43.69
869.799	68.95
869.972	-10.92
870.145	7.51
870.319	-31.4
870.492	62.8
870.665	-49.83
870.838	11.61
871.011	-21.16
871.185	7.51
871.358	-45.74
871.531	1.37
871.704	75.09
871.877	-10.92
872.05	-41.64
872.223	-53.93
872.396	58.71
872.569	-27.31
872.742	-82.6
872.915	36.18
873.088	-47.79
873.261	-8.87
873.434	9.56
873.607	-43.69
873.78	25.94
873.953	-12.97
874.126	15.7
874.299	71
874.471	21.85
874.644	81.24
874.817	9.56
874.99	66.9
875.163	-0.68
875.335	17.75
875.508	56.66
875.681	54.61
875.853	-19.11
876.026	-10.92
876.199	42.32
876.371	71
876.544	-12.97
876.717	1.37
876.889	-4.78
877.062	13.65
877.234	23.89
877.407	30.04
877.579	38.23
877.752	54.61
877.924	-25.26
878.097	42.32
878.269	58.71
878.442	30.04
878.614	5.46
878.786	-23.21
878.959	13.65
879.131	-15.02
879.303	-2.73
879.476	27.99
879.648	42.32
879.82	30.04
879.993	27.99
880.165	13.65
880.337	-2.73
880.509	73.04
880.681	-21.16
880.854	5.46
881.026	5.46
881.198	46.42
881.37	58.71
881.542	30.04
881.714	48.47
881.886	75.09
882.058	30.04
882.23	21.85
882.402	-33.45
882.574	71
882.746	71
882.918	95.57
883.09	15.7
883.262	-92.84
883.434	11.61
883.606	-35.5
883.778	87.38
883.95	71
884.122	21.85
884.293	23.89
884.465	-15.02
884.637	50.52
884.809	-41.64
884.98	21.85
885.152	19.8
885.324	23.89
885.496	-33.45
885.667	15.7
885.839	-6.83
886.011	-15.02
886.182	21.85
886.354	44.37
886.525	17.75
886.697	64.85
886.869	21.85
887.04	-6.83
887.212	-10.92
887.383	97.62
887.555	9.56
887.726	-0.68
887.897	-19.11
888.069	36.18
888.24	-4.78
888.412	-8.87
888.583	68.95
888.754	7.51
888.926	1.37
889.097	-2.73
889.268	-2.73
889.44	-0.68
889.611	-37.55
889.782	71
889.953	13.65
890.125	93.52
890.296	38.23
890.467	-94.89
890.638	-2.73
890.809	-43.69
890.98	21.85
891.151	-37.55
891.323	83.28
891.494	5.46
891.665	7.51
891.836	-55.98
892.007	1.37
892.178	-6.83
892.349	-8.87
892.52	-33.45
892.691	21.85
892.862	-31.4
893.032	5.46
893.203	-6.83
893.374	-25.26
893.545	13.65
893.716	-17.07
893.887	109.91
894.057	-33.45
894.228	-0.68
894.399	25.94
894.57	15.7
894.74	56.66
894.911	9.56
895.082	32.08
895.253	-6.83
895.423	5.46
895.594	1.37
895.764	52.56
895.935	23.89
896.106	-35.5
896.276	-55.98
896.447	25.94
896.617	32.08
896.788	79.19
896.958	62.8
897.129	-31.4
897.299	-35.5
897.47	-8.87
897.64	81.24
897.81	81.24
897.981	87.38
898.151	-74.41
898.322	-2.73
898.492	-23.21
898.662	62.8
898.832	-47.79
899.003	13.65
899.173	36.18
899.343	-0.68
899.513	54.61
