Data from USB4F104151__14__13-10-26-231.txt Node

Date: Fri Mar 14 13:10:26 EDT 2025
User: louis
Spectrometer: USB4F10415
Trigger mode: 4
Integration Time (sec): 2.000000E-2
Scans to average: 1
Electric dark correction enabled: true
Nonlinearity correction enabled: false
Boxcar width: 0
XAxis mode: Wavelengths
Number of Pixels in Spectrum: 3648
>>>>>Begin Spectral Data<<<<<
178.204	-105.47
178.424	-105.47
178.644	-105.47
178.864	-80.89
179.084	-62.46
179.304	-7.17
179.524	-17.41
179.744	-7.17
179.964	15.36
180.184	-13.31
180.404	54.27
180.624	33.79
180.844	13.31
181.064	-1.02
181.283	-52.22
181.503	5.12
181.723	-23.55
181.943	-62.46
182.163	44.03
182.383	39.94
182.602	66.56
182.822	95.23
183.042	-3.07
183.262	-9.22
183.482	15.36
183.701	101.37
183.921	3.07
184.141	-15.36
184.361	-11.26
184.58	5.12
184.8	5.12
185.02	33.79
185.239	52.22
185.459	54.27
185.679	87.04
185.898	11.26
186.118	72.7
186.338	17.41
186.557	48.13
186.777	52.22
186.997	39.94
187.216	41.98
187.436	115.71
187.655	29.7
187.875	66.56
188.095	44.03
188.314	19.46
188.534	66.56
188.753	17.41
188.973	60.42
189.192	95.23
189.412	15.36
189.631	41.98
189.851	3.07
190.07	91.13
190.29	7.17
190.509	84.99
190.729	87.04
190.948	-3.07
191.168	87.04
191.387	48.13
191.607	-37.89
191.826	99.33
192.045	29.7
192.265	27.65
192.484	132.09
192.704	82.94
192.923	15.36
193.142	80.89
193.362	66.56
193.581	-23.55
193.8	15.36
194.02	62.46
194.239	66.56
194.458	64.51
194.678	27.65
194.897	-39.94
195.116	-5.12
195.335	60.42
195.555	33.79
195.774	23.55
195.993	44.03
196.212	-52.22
196.432	-56.32
196.651	27.65
196.87	74.75
197.089	78.85
197.308	50.18
197.528	70.65
197.747	62.46
197.966	19.46
198.185	95.23
198.404	103.42
198.623	84.99
198.842	-31.74
199.062	82.94
199.281	29.7
199.5	109.57
199.719	-7.17
199.938	46.08
200.157	62.46
200.376	-5.12
200.595	25.6
200.814	46.08
201.033	25.6
201.252	107.52
201.471	70.65
201.69	25.6
201.909	23.55
202.128	13.31
202.347	41.98
202.566	17.41
202.785	52.22
203.004	19.46
203.223	107.52
203.442	13.31
203.661	21.5
203.879	11.26
204.098	128
204.317	5.12
204.536	31.74
204.755	31.74
204.974	35.84
205.193	-7.17
205.411	99.33
205.63	58.37
205.849	41.98
206.068	84.99
206.287	11.26
206.505	146.43
206.724	33.79
206.943	33.79
207.162	-13.31
207.381	84.99
207.599	48.13
207.818	74.75
208.037	46.08
208.255	9.22
208.474	23.55
208.693	9.22
208.911	54.27
209.13	-9.22
209.349	46.08
209.567	82.94
209.786	50.18
210.005	72.7
210.223	-60.42
210.442	-31.74
210.661	21.5
210.879	3.07
211.098	25.6
211.316	17.41
211.535	97.28
211.753	7.17
211.972	46.08
212.191	48.13
212.409	29.7
212.628	50.18
212.846	52.22
213.065	99.33
213.283	99.33
213.502	25.6
213.72	50.18
213.938	-23.55
214.157	78.85
214.375	13.31
214.594	58.37
214.812	48.13
215.031	41.98
215.249	-54.27
215.467	48.13
215.686	35.84
215.904	44.03
216.122	44.03
216.341	91.13
216.559	64.51
216.778	-72.7
216.996	68.61
217.214	107.52
217.432	52.22
217.651	19.46
217.869	48.13
218.087	13.31
218.306	1.02
218.524	44.03
218.742	-23.55
218.96	39.94
219.179	54.27
219.397	44.03
219.615	72.7
219.833	66.56
220.051	134.14
220.27	93.18
220.488	23.55
220.706	11.26
220.924	17.41
221.142	60.42
221.36	39.94
221.578	23.55
221.796	-15.36
222.015	66.56
222.233	17.41
222.451	99.33
222.669	39.94
222.887	31.74
223.105	-21.5
223.323	44.03
223.541	64.51
223.759	-31.74
223.977	87.04
224.195	15.36
224.413	66.56
224.631	-5.12
224.849	72.7
225.067	48.13
225.285	33.79
225.503	60.42
225.721	21.5
225.939	33.79
226.157	136.19
226.375	84.99
226.592	-5.12
226.81	52.22
227.028	78.85
227.246	17.41
227.464	25.6
227.682	37.89
227.9	-1.02
228.117	37.89
228.335	41.98
228.553	9.22
228.771	29.7
228.989	82.94
229.206	44.03
229.424	62.46
229.642	-23.55
229.86	39.94
230.077	33.79
230.295	39.94
230.513	48.13
230.731	72.7
230.948	80.89
231.166	62.46
231.384	11.26
231.601	27.65
231.819	35.84
232.037	-3.07
232.254	-52.22
232.472	52.22
232.689	21.5
232.907	66.56
233.125	48.13
233.342	25.6
233.56	37.89
233.777	80.89
233.995	44.03
234.213	25.6
234.43	48.13
234.648	3.07
234.865	56.32
235.083	80.89
235.3	76.8
235.518	27.65
235.735	37.89
235.953	78.85
236.17	50.18
236.388	29.7
236.605	-39.94
236.822	97.28
237.04	-11.26
237.257	27.65
237.475	35.84
237.692	82.94
237.909	99.33
238.127	33.79
238.344	60.42
238.562	39.94
238.779	-31.74
238.996	48.13
239.214	-37.89
239.431	3.07
239.648	-23.55
239.865	50.18
240.083	50.18
240.3	-41.98
240.517	23.55
240.735	39.94
240.952	15.36
241.169	-19.46
241.386	19.46
241.603	-5.12
241.821	-15.36
242.038	62.46
242.255	105.47
242.472	9.22
242.689	95.23
242.907	91.13
243.124	87.04
243.341	19.46
243.558	25.6
243.775	19.46
243.992	33.79
244.209	-19.46
244.426	72.7
244.643	82.94
244.86	-48.13
245.078	60.42
245.295	-5.12
245.512	-48.13
245.729	1.02
245.946	91.13
246.163	58.37
246.38	80.89
246.597	60.42
246.814	50.18
247.031	27.65
247.248	46.08
247.464	111.61
247.681	46.08
247.898	-5.12
248.115	-1.02
248.332	11.26
248.549	27.65
248.766	111.61
248.983	25.6
249.2	25.6
249.417	66.56
249.633	60.42
249.85	-7.17
250.067	-7.17
250.284	41.98
250.501	-62.46
250.717	-7.17
250.934	-44.03
251.151	58.37
251.368	103.42
251.585	17.41
251.801	39.94
252.018	-46.08
252.235	35.84
252.451	9.22
252.668	21.5
252.885	9.22
253.102	80.89
253.318	-19.46
253.535	-27.65
253.752	1.02
253.968	1.02
254.185	52.22
254.401	-39.94
254.618	-11.26
254.835	35.84
255.051	140.29
255.268	13.31
255.484	99.33
255.701	25.6
255.917	119.81
256.134	-17.41
256.351	93.18
256.567	11.26
256.784	99.33
257	25.6
257.217	52.22
257.433	60.42
257.65	35.84
257.866	58.37
258.082	-89.09
258.299	56.32
258.515	17.41
258.732	80.89
258.948	-17.41
259.165	-11.26
259.381	35.84
259.597	-19.46
259.814	46.08
260.03	5.12
260.246	50.18
260.463	62.46
260.679	33.79
260.895	52.22
261.112	-46.08
261.328	54.27
261.544	78.85
261.761	111.61
261.977	84.99
262.193	70.65
262.409	1.02
262.626	11.26
262.842	70.65
263.058	-21.5
263.274	115.71
263.49	50.18
263.707	107.52
263.923	5.12
264.139	29.7
264.355	44.03
264.571	48.13
264.787	-19.46
265.004	62.46
265.22	41.98
265.436	33.79
265.652	17.41
265.868	9.22
266.084	-33.79
266.3	25.6
266.516	48.13
266.732	111.61
266.948	21.5
267.164	107.52
267.38	27.65
267.596	72.7
267.812	99.33
268.028	-37.89
268.244	17.41
268.46	84.99
268.676	66.56
268.892	17.41
269.108	23.55
269.324	19.46
269.54	19.46
269.756	15.36
269.972	35.84
270.188	109.57
270.403	-17.41
270.619	62.46
270.835	-15.36
271.051	82.94
271.267	-7.17
271.483	-19.46
271.698	78.85
271.914	54.27
272.13	39.94
272.346	35.84
272.562	27.65
272.777	70.65
272.993	7.17
273.209	13.31
273.425	-35.84
273.64	50.18
273.856	-31.74
274.072	41.98
274.287	-35.84
274.503	1.02
274.719	29.7
274.934	93.18
275.15	-19.46
275.366	54.27
275.581	-27.65
275.797	-9.22
276.012	46.08
276.228	29.7
276.444	-3.07
276.659	27.65
276.875	13.31
277.09	91.13
277.306	-29.7
277.521	91.13
277.737	29.7
277.952	3.07
278.168	25.6
278.383	103.42
278.599	56.32
278.814	66.56
279.03	58.37
279.245	93.18
279.461	37.89
279.676	76.8
279.892	41.98
280.107	37.89
280.322	1.02
280.538	-3.07
280.753	-25.6
280.969	87.04
281.184	39.94
281.399	78.85
281.615	54.27
281.83	3.07
282.045	52.22
282.26	50.18
282.476	48.13
282.691	50.18
282.906	15.36
283.122	52.22
283.337	66.56
283.552	107.52
283.767	29.7
283.983	58.37
284.198	95.23
284.413	46.08
284.628	25.6
284.843	-13.31
285.058	101.37
285.274	99.33
285.489	62.46
285.704	103.42
285.919	72.7
286.134	29.7
286.349	44.03
286.564	3.07
286.779	64.51
286.995	58.37
287.21	13.31
287.425	-11.26
287.64	11.26
287.855	50.18
288.07	-5.12
288.285	82.94
288.5	15.36
288.715	125.95
288.93	54.27
289.145	93.18
289.36	23.55
289.575	58.37
289.79	-11.26
290.004	93.18
290.219	60.42
290.434	29.7
290.649	13.31
290.864	19.46
291.079	62.46
291.294	44.03
291.509	82.94
291.724	41.98
291.938	50.18
292.153	56.32
292.368	3.07
292.583	5.12
292.798	33.79
293.012	41.98
293.227	58.37
293.442	76.8
293.657	107.52
293.871	58.37
294.086	56.32
294.301	101.37
294.516	97.28
294.73	25.6
294.945	50.18
295.16	39.94
295.374	91.13
295.589	1.02
295.804	-13.31
296.018	76.8
296.233	44.03
296.447	27.65
296.662	9.22
296.877	107.52
297.091	13.31
297.306	-11.26
297.52	-11.26
297.735	33.79
297.949	1.02
298.164	-5.12
298.378	1.02
298.593	-13.31
298.807	-7.17
299.022	-7.17
299.236	68.61
299.451	11.26
299.665	56.32
299.88	35.84
300.094	33.79
300.309	41.98
300.523	91.13
300.737	3.07
300.952	109.57
301.166	74.75
301.381	46.08
301.595	48.13
301.809	70.65
302.024	-13.31
302.238	87.04
302.452	-5.12
302.667	9.22
302.881	31.74
303.095	60.42
303.309	46.08
303.524	-62.46
303.738	52.22
303.952	21.5
304.166	68.61
304.381	-21.5
304.595	70.65
304.809	-1.02
305.023	109.57
305.237	78.85
305.452	50.18
305.666	21.5
305.88	74.75
306.094	37.89
306.308	-11.26
306.522	99.33
306.736	19.46
306.95	66.56
307.164	84.99
307.379	5.12
307.593	78.85
307.807	119.81
308.021	93.18
308.235	29.7
308.449	39.94
308.663	107.52
308.877	72.7
309.091	-17.41
309.305	91.13
309.519	-7.17
309.733	105.47
309.947	-39.94
310.161	25.6
310.374	1.02
310.588	19.46
310.802	58.37
311.016	66.56
311.23	87.04
311.444	-5.12
311.658	23.55
311.872	84.99
312.085	29.7
312.299	91.13
312.513	-11.26
312.727	58.37
312.941	-1.02
313.154	140.29
313.368	9.22
313.582	21.5
313.796	48.13
314.009	54.27
314.223	17.41
314.437	-21.5
314.651	-23.55
314.864	5.12
315.078	-13.31
315.292	52.22
315.505	-27.65
315.719	46.08
315.933	-5.12
316.146	91.13
316.36	46.08
316.573	60.42
316.787	52.22
317.001	19.46
317.214	84.99
317.428	-3.07
317.641	3.07
317.855	31.74
318.068	60.42
318.282	74.75
318.495	140.29
318.709	68.61
318.922	91.13
319.136	62.46
319.349	19.46
319.563	93.18
319.776	58.37
319.99	-15.36
320.203	62.46
320.417	1.02
320.63	58.37
320.843	50.18
321.057	3.07
321.27	27.65
321.483	58.37
321.697	74.75
321.91	41.98
322.124	-21.5
322.337	76.8
322.55	-21.5
322.763	-25.6
322.977	84.99
323.19	95.23
323.403	95.23
323.617	-37.89
323.83	31.74
324.043	23.55
324.256	91.13
324.469	25.6
324.683	64.51
324.896	17.41
325.109	99.33
325.322	62.46
325.535	-19.46
325.748	52.22
325.962	-11.26
326.175	15.36
326.388	66.56
326.601	54.27
326.814	74.75
327.027	31.74
327.24	46.08
327.453	68.61
327.666	33.79
327.879	60.42
328.092	70.65
328.305	19.46
328.518	13.31
328.731	17.41
328.944	84.99
329.157	119.81
329.37	99.33
329.583	177.15
329.796	136.19
330.009	-17.41
330.222	99.33
330.435	70.65
330.648	99.33
330.861	-27.65
331.073	-33.79
331.286	84.99
331.499	37.89
331.712	89.09
331.925	-15.36
332.138	33.79
332.35	66.56
332.563	33.79
332.776	17.41
332.989	33.79
333.202	46.08
333.414	89.09
333.627	95.23
333.84	-33.79
334.053	29.7
334.265	41.98
334.478	91.13
334.691	23.55
334.903	44.03
335.116	130.05
335.329	-23.55
335.541	41.98
335.754	101.37
335.966	25.6
336.179	-7.17
336.392	70.65
336.604	25.6
336.817	74.75
337.029	44.03
337.242	13.31
337.454	37.89
337.667	3.07
337.88	41.98
338.092	132.09
338.305	11.26
338.517	-23.55
338.729	9.22
338.942	41.98
339.154	-15.36
339.367	5.12
339.579	41.98
339.792	-25.6
340.004	-7.17
340.217	3.07
340.429	-62.46
340.641	62.46
340.854	-21.5
341.066	46.08
341.278	60.42
341.491	-46.08
341.703	76.8
341.915	76.8
342.128	107.52
342.34	93.18
342.552	48.13
342.764	9.22
342.977	93.18
343.189	39.94
343.401	99.33
343.613	33.79
343.826	-3.07
344.038	13.31
344.25	66.56
344.462	41.98
344.674	91.13
344.886	25.6
345.099	-15.36
345.311	58.37
345.523	29.7
345.735	52.22
345.947	-19.46
346.159	-5.12
346.371	-1.02
346.583	17.41
346.795	97.28
347.007	-35.84
347.219	54.27
347.431	27.65
347.643	89.09
347.855	44.03
348.067	74.75
348.279	19.46
348.491	48.13
348.703	27.65
348.915	78.85
349.127	44.03
349.339	150.53
349.551	33.79
349.763	117.76
349.975	27.65
350.187	64.51
350.399	76.8
350.61	46.08
350.822	-13.31
351.034	15.36
351.246	21.5
351.458	56.32
351.669	35.84
351.881	99.33
352.093	31.74
352.305	132.09
352.517	76.8
352.728	78.85
352.94	21.5
353.152	74.75
353.363	3.07
353.575	132.09
353.787	74.75
353.999	-13.31
354.21	91.13
354.422	41.98
354.633	3.07
354.845	121.85
355.057	119.81
355.268	33.79
355.48	111.61
355.692	37.89
355.903	35.84
356.115	128
356.326	3.07
356.538	25.6
356.749	35.84
356.961	82.94
357.172	-29.7
357.384	91.13
357.595	78.85
357.807	17.41
358.018	76.8
358.23	21.5
358.441	58.37
358.653	33.79
358.864	41.98
359.075	60.42
359.287	52.22
359.498	56.32
359.709	39.94
359.921	25.6
360.132	89.09
360.344	37.89
360.555	50.18
360.766	44.03
360.977	23.55
361.189	76.8
361.4	58.37
361.611	48.13
361.823	46.08
362.034	27.65
362.245	-41.98
362.456	89.09
362.667	41.98
362.879	1.02
363.09	80.89
363.301	31.74
363.512	89.09
363.723	76.8
363.935	68.61
364.146	105.47
364.357	68.61
364.568	66.56
364.779	-13.31
364.99	-5.12
365.201	111.61
365.412	66.56
365.623	66.56
365.834	52.22
366.045	62.46
366.256	91.13
366.467	52.22
366.678	89.09
366.889	21.5
367.1	33.79
367.311	17.41
367.522	41.98
367.733	37.89
367.944	68.61
368.155	9.22
368.366	78.85
368.577	87.04
368.788	78.85
368.999	33.79
369.209	54.27
369.42	99.33
369.631	128
369.842	9.22
370.053	52.22
370.264	105.47
370.474	84.99
370.685	93.18
370.896	82.94
371.107	46.08
371.317	25.6
371.528	33.79
371.739	68.61
371.95	93.18
372.16	62.46
372.371	-21.5
372.582	3.07
372.792	99.33
373.003	66.56
373.214	29.7
373.424	74.75
373.635	-11.26
373.846	103.42
374.056	70.65
374.267	58.37
374.477	146.43
374.688	1.02
374.898	68.61
375.109	-19.46
375.319	44.03
375.53	82.94
375.74	132.09
375.951	44.03
376.161	113.66
376.372	29.7
376.582	66.56
376.793	113.66
377.003	60.42
377.214	72.7
377.424	-35.84
377.635	58.37
377.845	-27.65
378.055	74.75
378.266	15.36
378.476	64.51
378.686	64.51
378.897	46.08
379.107	9.22
379.317	56.32
379.528	-23.55
379.738	123.9
379.948	56.32
380.158	82.94
380.369	68.61
380.579	68.61
380.789	41.98
380.999	93.18
381.21	99.33
381.42	84.99
381.63	-3.07
381.84	93.18
382.05	37.89
382.261	-1.02
382.471	37.89
382.681	-15.36
382.891	48.13
383.101	99.33
383.311	97.28
383.521	35.84
383.731	115.71
383.941	13.31
384.151	66.56
384.361	115.71
384.571	44.03
384.781	25.6
384.991	148.48
385.201	152.57
385.411	99.33
385.621	41.98
385.831	21.5
386.041	58.37
386.251	41.98
386.461	82.94
386.671	95.23
386.881	70.65
387.091	17.41
387.301	134.14
387.511	50.18
387.72	99.33
387.93	95.23
388.14	17.41
388.35	62.46
388.56	132.09
388.769	99.33
388.979	58.37
389.189	-7.17
389.399	144.38
389.609	44.03
389.818	74.75
390.028	74.75
390.238	44.03
390.447	66.56
390.657	72.7
390.867	1.02
391.076	-33.79
391.286	109.57
391.496	29.7
391.705	140.29
391.915	74.75
392.125	21.5
392.334	62.46
392.544	175.1
392.753	76.8
392.963	70.65
393.172	70.65
393.382	44.03
393.591	152.57
393.801	99.33
394.01	166.91
394.22	103.42
394.429	144.38
394.639	91.13
394.848	64.51
395.058	99.33
395.267	74.75
395.477	117.76
395.686	103.42
395.895	128
396.105	136.19
396.314	105.47
396.524	54.27
396.733	48.13
396.942	179.2
397.152	74.75
397.361	31.74
397.57	117.76
397.78	78.85
397.989	115.71
398.198	195.58
398.407	46.08
398.617	19.46
398.826	31.74
399.035	101.37
399.244	107.52
399.453	80.89
399.663	84.99
399.872	115.71
400.081	80.89
400.29	119.81
400.499	35.84
400.708	76.8
400.917	160.77
401.127	58.37
401.336	21.5
401.545	183.29
401.754	95.23
401.963	125.95
402.172	177.15
402.381	107.52
402.59	99.33
402.799	119.81
403.008	117.76
403.217	142.33
403.426	138.24
403.635	97.28
403.844	80.89
404.053	105.47
404.262	134.14
404.471	111.61
404.68	168.96
404.888	185.34
405.097	113.66
405.306	101.37
405.515	95.23
405.724	138.24
405.933	185.34
406.142	89.09
406.35	136.19
406.559	164.86
406.768	168.96
406.977	224.25
407.185	187.39
407.394	181.25
407.603	252.92
407.812	195.58
408.02	275.45
408.229	228.35
408.438	164.86
408.646	181.25
408.855	201.72
409.064	205.82
409.272	267.26
409.481	269.31
409.69	224.25
409.898	279.55
410.107	277.5
410.315	242.68
410.524	257.02
410.733	308.22
410.941	246.78
411.15	306.17
411.358	316.41
411.567	371.71
411.775	340.99
411.984	390.14
412.192	480.25
412.401	347.13
412.609	351.23
412.818	439.29
413.026	467.96
413.234	465.91
413.443	472.06
413.651	443.39
413.86	545.78
414.068	572.41
414.276	533.5
414.485	474.1
414.693	603.13
414.901	668.66
415.11	621.56
415.318	551.93
415.526	642.04
415.734	642.04
415.943	644.09
416.151	719.86
416.359	650.23
416.567	787.44
416.776	691.19
416.984	865.27
417.192	834.55
417.4	857.07
417.608	826.36
417.817	922.61
418.025	930.8
418.233	988.14
418.441	1100.78
418.649	990.19
418.857	1020.91
419.065	1086.45
419.273	1139.69
419.481	1170.41
419.689	1254.38
419.897	1315.82
420.105	1328.11
420.313	1258.48
420.521	1457.13
420.729	1278.96
420.937	1420.27
421.145	1571.82
421.353	1477.61
421.561	1682.41
421.769	1725.41
421.977	1729.51
422.185	1807.33
422.393	1864.68
422.601	1956.83
422.809	1897.44
423.017	1973.22
423.224	2005.99
423.432	2087.9
423.64	2106.34
423.848	2317.28
424.056	2157.54
424.263	2294.75
424.471	2286.56
424.679	2522.07
424.887	2520.03
425.094	2651.1
425.302	2667.48
425.51	2804.69
425.718	2937.81
425.925	2776.02
426.133	2958.29
426.341	3107.79
426.548	3247.05
426.756	3249.1
426.964	3316.69
427.171	3574.73
427.379	3591.11
427.586	3687.37
427.794	3800.01
428.001	3941.32
428.209	4010.95
428.417	3976.13
428.624	4328.38
428.832	4271.04
429.039	4344.77
429.247	4424.64
429.454	4754.36
429.662	5092.27
429.869	4916.15
430.076	4965.3
430.284	4850.61
430.491	5155.76
430.699	5452.72
430.906	5508.01
431.114	5596.07
431.321	5657.51
431.528	5893.03
431.736	6124.45
431.943	6445.98
432.15	6382.49
432.358	6273.95
432.565	6710.17
432.772	6790.04
432.979	7023.51
433.187	7029.65
433.394	7238.55
433.601	7826.31
433.808	7590.8
434.016	7664.52
434.223	7947.14
434.43	8323.97
434.637	8121.22
434.844	8674.17
435.052	8987.51
435.259	8872.82
435.466	9010.04
435.673	8911.74
435.88	9534.32
436.087	9964.39
436.294	9859.95
436.501	9847.66
436.708	10013.54
436.915	10191.72
437.122	10875.74
437.329	10670.94
437.537	10990.42
437.743	11187.03
437.95	11043.67
438.157	11592.53
438.364	12145.48
438.571	12184.39
438.778	12260.16
438.985	13339.44
439.192	12616.51
439.399	13093.69
439.606	12925.75
439.813	13556.53
440.02	14398.24
440.227	14322.47
440.433	14132.01
440.64	14383.91
440.847	14478.12
441.054	14770.97
441.261	15754
441.467	15663.89
441.674	15825.68
441.881	16368.39
442.088	16640.77
442.294	16487.17
442.501	16747.26
442.708	17249.02
442.914	17636.08
443.121	18637.54
443.328	18068.2
443.534	19409.62
443.741	18744.03
443.948	18332.39
444.154	19942.1
444.361	19765.97
444.568	19917.52
444.774	19978.96
444.981	20128.46
445.187	20818.63
445.394	21516.98
445.6	21441.21
445.807	23370.4
446.013	22454.95
446.22	22856.36
446.426	23933.59
446.633	23947.92
446.839	24550.03
447.046	23722.65
447.252	24773.25
447.459	24894.08
447.665	25150.08
447.871	26249.84
448.078	27269.73
448.284	26004.08
448.491	26397.29
448.697	27724.38
448.903	27976.28
449.11	28361.3
449.316	27986.52
449.522	28414.54
449.728	29139.52
449.935	29672
450.141	29504.06
450.347	30226.99
450.553	29317.7
450.76	29663.8
450.966	30423.6
451.172	30321.2
451.378	30827.05
451.584	30192.18
451.791	30853.67
451.997	31154.72
452.203	31380
452.409	31361.57
452.615	31636
452.821	30317.11
453.027	30067.25
453.233	31891.99
453.44	30468.66
453.646	30577.2
453.852	30876.2
454.058	31578.65
454.264	30515.76
454.47	31302.18
454.676	30435.89
454.882	31234.6
455.088	28529.23
455.294	29209.15
455.5	29616.7
455.705	29680.19
455.911	28992.07
456.117	28430.93
456.323	27691.61
456.529	26722.92
456.735	27714.14
456.941	26878.57
457.147	26407.53
457.352	25764.47
457.558	25551.48
457.764	25211.52
457.97	25158.27
458.176	24533.64
458.381	24404.62
458.587	23149.21
458.793	23188.13
458.999	21973.68
459.204	23411.35
459.41	23147.17
459.616	21390.01
459.821	21439.16
460.027	21504.7
460.233	20943.55
460.438	19948.24
460.644	20202.19
460.85	19063.52
461.055	18811.62
461.261	18907.87
461.466	17337.08
461.672	16890.62
461.878	17875.7
462.083	16700.16
462.289	16392.97
462.494	16630.53
462.7	15797.01
462.905	15090.46
463.111	15579.92
463.316	15895.31
463.522	15518.48
463.727	15489.81
463.932	15665.94
464.138	15344.41
464.343	15407.89
464.549	14914.33
464.754	15477.52
464.959	15332.12
465.165	15086.36
465.37	14592.8
465.575	14297.89
465.781	14598.95
465.986	14865.18
466.191	14287.65
466.397	13929.26
466.602	13323.06
466.807	13896.49
467.012	13742.89
467.218	13865.77
467.423	13607.73
467.628	13796.14
467.833	14091.05
468.038	13744.94
468.244	13466.42
468.449	14007.08
468.654	13472.56
468.859	13304.63
469.064	13392.69
469.269	12749.63
469.474	12966.71
469.679	13099.83
469.885	12911.42
470.09	13122.36
470.295	12866.36
470.5	12442.43
470.705	12702.53
470.91	12528.45
471.115	12206.92
471.32	12585.79
471.525	12362.56
471.73	11973.45
471.935	11985.74
472.139	11635.53
472.344	11688.78
472.549	11699.02
472.754	11553.62
472.959	11430.74
473.164	11068.25
473.369	11021.14
473.574	11199.32
473.778	11285.33
473.983	11039.58
474.188	10959.7
474.393	10683.23
474.598	10746.72
474.802	10519.39
475.007	10249.06
475.212	10431.33
475.417	10144.61
475.621	10122.09
475.826	10013.54
476.031	9814.89
476.235	9657.2
476.44	9769.83
476.645	9759.6
476.849	9618.29
477.054	9577.33
477.259	9456.5
477.463	9413.49
477.668	9153.4
477.872	9290.61
478.077	9206.64
478.282	8858.49
478.486	9051
478.691	8725.37
478.895	8831.87
479.1	8778.62
479.304	8813.43
479.509	8459.13
479.713	8659.84
479.918	8430.46
480.122	8407.94
480.326	8395.65
480.531	8291.2
480.735	8448.9
480.94	8381.31
481.144	8424.32
481.348	8127.36
481.553	8106.88
481.757	8113.03
481.961	7955.33
482.166	8278.91
482.37	8162.18
482.574	8057.73
482.778	8049.54
482.983	8235.91
483.187	8242.05
483.391	8283.01
483.595	8020.87
483.8	8145.8
484.004	7949.19
484.208	8199.04
484.412	8000.39
484.616	8082.31
484.821	8170.37
485.025	7830.41
485.229	8088.45
485.433	7957.38
485.637	7877.51
485.841	7990.15
486.045	8090.5
486.249	7957.38
486.453	8037.25
486.657	7961.48
486.861	8076.16
487.065	7787.4
487.269	7873.42
487.473	7854.98
487.677	8131.46
487.881	8209.28
488.085	8094.6
488.289	7981.96
488.493	7998.34
488.697	8072.07
488.901	8061.83
489.105	8088.45
489.309	8256.39
489.512	8086.4
489.716	8020.87
489.92	8258.43
490.124	8131.46
490.328	8405.89
490.531	7971.72
490.735	8248.19
490.939	8233.86
491.143	8256.39
491.346	8295.3
491.55	8305.54
491.754	8403.84
491.958	8399.74
492.161	8434.56
492.365	8524.67
492.569	8430.46
492.772	8520.57
492.976	8688.51
493.18	8510.33
493.383	8684.41
493.587	8782.71
493.79	8842.11
493.994	8749.95
494.197	8864.63
494.401	8854.39
494.605	8913.78
494.808	9106.29
495.012	9145.2
495.215	9134.96
495.419	9096.05
495.622	9149.3
495.825	9280.37
496.029	9282.42
496.232	9560.94
496.436	9370.48
496.639	9374.58
496.843	9489.26
497.046	9882.47
497.249	10074.98
497.453	9839.47
497.656	9859.95
497.859	10161
498.063	10208.1
498.266	10349.41
498.469	10349.41
498.673	10281.83
498.876	10492.77
499.079	10877.79
499.282	10711.9
499.485	11072.34
499.689	11021.14
499.892	11064.15
500.095	11445.07
500.298	11520.85
500.501	11334.48
500.705	11789.13
500.908	11717.45
501.111	11809.61
501.314	12002.12
501.517	12135.24
501.72	12327.75
501.923	12356.42
502.126	12514.11
502.329	12849.98
502.532	12780.35
502.735	12958.52
502.938	13083.45
503.141	13153.08
503.344	13490.99
503.547	13433.65
503.75	13456.18
503.953	13669.17
504.156	13730.61
504.359	13816.62
504.562	14058.28
504.765	14283.56
504.968	14498.59
505.17	14615.33
505.373	14648.1
505.576	14910.24
505.779	15229.72
505.982	15213.34
506.185	15536.91
506.387	15366.93
506.59	15631.12
506.793	15969.04
506.996	15831.82
507.198	16558.85
507.401	16048.91
507.604	16284.42
507.807	16489.22
508.009	16646.91
508.212	16982.78
508.415	17212.15
508.617	17304.31
508.82	17332.98
509.022	17330.94
509.225	17847.02
509.428	18100.97
509.63	18055.92
509.833	18039.53
510.035	18555.62
510.238	18397.93
510.44	19026.65
510.643	18903.78
510.845	19112.67
511.048	19155.68
511.25	19280.6
511.453	19198.68
511.655	20134.6
511.858	19927.76
512.06	20269.77
512.262	20351.69
512.465	20505.29
512.667	20570.82
512.87	21048
513.072	20873.92
513.274	21691.06
513.477	21596.85
513.679	21717.68
513.881	21940.91
514.084	21992.11
514.286	22377.13
514.488	22651.56
514.69	22700.71
514.893	22778.53
515.095	22889.12
515.297	23485.08
515.499	23241.37
515.701	23632.54
515.904	24142.48
516.106	23995.03
516.308	24154.77
516.51	24478.35
516.712	24677
516.914	24992.39
517.116	25576.06
517.318	25006.72
517.52	25369.21
517.722	25453.18
517.925	26002.04
518.127	26184.3
518.329	26223.22
518.531	26135.15
518.733	27185.76
518.935	27023.97
519.136	26667.63
519.338	27239.01
519.54	27411.04
519.742	27468.38
519.944	28007
520.146	28004.95
520.348	28523.08
520.55	28486.22
520.752	28328.53
520.954	29370.94
521.155	28670.54
521.357	29481.53
521.559	29608.51
521.761	29860.41
521.963	29987.38
522.164	30061.11
522.366	30261.81
522.568	30376.5
522.77	30702.12
522.971	30868.01
523.173	30798.38
523.375	31234.6
523.576	30947.88
523.778	31240.74
523.98	31851.03
524.181	31574.56
524.383	32018.97
524.584	32440.85
524.786	32573.97
524.988	32109.08
525.189	33006.09
525.391	32930.31
525.592	32852.49
525.794	33092.1
525.995	33178.12
526.197	33159.69
526.398	33526.27
526.6	33466.88
526.801	33645.05
527.003	33649.15
527.204	33851.9
527.406	34298.36
527.607	34079.22
527.808	34445.81
528.01	34019.83
528.211	34464.24
528.412	34798.06
528.614	34595.31
528.815	34613.74
529.016	34920.94
529.218	34857.45
529.419	34818.54
529.62	34824.68
529.822	34933.23
530.023	35230.18
530.224	34961.9
530.425	34957.8
530.626	35193.32
530.828	34974.19
531.029	35676.64
531.23	34906.6
531.431	35246.57
531.632	35463.65
531.833	35549.67
532.035	35328.48
532.236	35447.27
532.437	35971.55
532.638	35668.45
532.839	35742.17
533.04	35983.83
533.241	35596.77
533.442	36069.85
533.643	35787.23
533.844	35885.53
534.045	35789.28
534.246	35564
534.447	36323.8
534.648	35740.13
534.849	35809.76
535.05	35725.79
535.251	35879.39
535.451	35934.68
535.652	36078.04
535.853	36102.62
536.054	35879.39
536.255	36268.5
536.456	35744.22
536.657	36327.89
536.857	36024.79
537.058	36045.27
537.259	36002.27
537.46	36032.99
537.66	36078.04
537.861	36315.61
538.062	35969.5
538.263	36045.27
538.463	35471.84
538.664	35672.54
538.865	35750.37
539.065	36276.69
539.266	36012.51
539.466	36112.86
539.667	35924.44
539.868	36274.65
540.068	36319.7
540.269	35789.28
540.469	35832.29
540.67	36155.86
540.87	35918.3
541.071	35869.15
541.271	35727.84
541.472	36069.85
541.672	35803.61
541.873	35406.31
542.073	35498.47
542.274	36211.16
542.474	35746.27
542.675	35334.63
542.875	36082.14
543.075	35906.01
543.276	35475.94
543.476	35748.32
543.676	35541.47
543.877	35901.92
544.077	35688.93
544.277	35586.53
544.478	35746.27
544.678	35756.51
544.878	35566.05
545.078	35660.26
545.279	35807.71
545.479	35926.49
545.679	35832.29
545.879	35748.32
546.079	35979.74
546.28	35447.27
546.48	35107.3
546.68	35533.28
546.88	35791.33
547.08	35477.99
547.28	35369.44
547.48	35330.53
547.68	35678.69
547.88	35299.81
548.081	35693.02
548.281	35836.38
548.481	35252.71
548.681	35762.65
548.881	35703.26
549.081	35523.04
549.28	35144.17
549.48	35398.12
549.68	35373.54
549.88	35824.09
550.08	35455.46
550.28	35420.64
550.48	35740.13
550.68	35430.88
550.88	35178.98
551.08	35154.41
551.279	35346.92
551.479	35389.92
551.679	35453.41
551.879	35293.67
552.079	35480.03
552.278	34796.01
552.478	35293.67
552.678	35637.73
552.878	35459.55
553.077	35226.09
553.277	34949.61
553.477	35361.25
553.676	35140.07
553.876	35498.47
554.076	34789.87
554.275	35019.24
554.475	34732.53
554.674	35052.01
554.874	34914.8
555.074	34642.42
555.273	35015.15
555.473	35310.05
555.672	34724.33
555.872	34820.59
556.071	34781.68
556.271	35049.96
556.47	34390.52
556.67	34327.03
556.869	34824.68
557.068	34857.45
557.268	34736.62
557.467	34482.67
557.667	34839.02
557.866	34562.54
558.065	34804.2
558.265	34322.93
558.464	34458.1
558.663	34531.83
558.863	34111.99
559.062	34824.68
559.261	34316.79
559.461	34621.94
559.66	33776.12
559.859	34200.05
560.058	33749.5
560.258	34267.64
560.457	33591.81
560.656	34066.94
560.855	34097.66
561.054	34187.77
561.253	33694.21
561.453	33831.42
561.652	33595.9
561.851	33874.43
562.05	33778.17
562.249	33477.12
562.448	33942.01
562.647	33468.93
562.846	33184.26
563.045	33362.43
563.244	33161.73
563.443	33649.15
563.642	32793.1
563.841	33305.09
564.04	33049.1
564.239	33559.04
564.438	32836.11
564.637	33102.34
564.836	32705.04
565.035	32827.92
565.234	32924.17
565.432	32848.39
565.631	32340.5
565.83	32713.23
566.029	32797.2
566.228	32805.39
566.427	32197.14
566.625	32053.78
566.824	31947.29
567.023	32154.13
567.222	31656.48
567.42	32473.62
567.619	31980.06
567.818	32178.71
568.016	32002.58
568.215	31965.72
568.414	31793.69
568.612	32317.97
568.811	31707.68
569.01	31826.46
569.208	31072.81
569.407	31781.4
569.605	31203.88
569.804	31549.98
570.002	31126.05
570.201	31332.9
570.4	31031.85
570.598	30825
570.797	31015.46
570.995	31255.08
571.193	30671.4
571.392	31070.76
571.59	30741.03
571.789	30419.5
571.987	30302.77
572.186	30257.71
572.384	30302.77
572.582	30433.84
572.781	30581.29
572.979	29811.26
573.177	30497.33
573.376	30401.07
573.574	29882.94
573.772	30294.58
573.971	29827.64
574.169	29522.49
574.367	29602.36
574.565	29579.84
574.763	29487.68
574.962	29323.84
575.16	29602.36
575.358	29514.3
575.556	29065.8
575.754	29450.81
575.952	29264.45
576.151	29186.63
576.349	29164.1
576.547	28815.94
576.745	28969.54
576.943	28789.32
577.141	28684.87
577.339	28697.16
577.537	28557.9
577.735	28840.52
577.933	28262.99
578.131	28412.49
578.329	28527.18
578.527	28017.24
578.725	28260.94
578.923	28197.46
579.121	28052.05
579.319	28156.5
579.516	28138.07
579.714	27927.13
579.912	27923.03
580.11	27859.54
580.308	28011.09
580.506	27499.1
580.704	27501.15
580.901	27480.67
581.099	27525.72
581.297	27347.55
581.495	27365.98
581.692	27695.71
581.89	27077.22
582.088	27458.14
582.285	26933.86
582.483	26983.01
582.681	27202.14
582.878	26767.98
583.076	26737.26
583.274	26874.47
583.471	26167.92
583.669	26667.63
583.866	26419.82
584.064	26356.33
584.262	25954.93
584.459	26528.36
584.657	26444.4
584.854	26475.12
585.052	25723.51
585.249	26215.02
585.447	26143.35
585.644	25991.8
585.841	25703.03
586.039	25879.16
586.236	25379.45
586.434	25574.01
586.631	25571.96
586.828	25617.02
587.026	25510.52
587.223	25336.45
587.42	25289.34
587.618	25285.25
587.815	25154.18
588.012	25088.64
588.21	25258.62
588.407	25070.21
588.604	24717.96
588.801	24818.31
588.999	24916.61
589.196	24638.09
589.393	24584.84
589.59	24507.02
589.787	24666.76
589.984	24162.96
590.182	24154.77
590.379	24480.39
590.576	23949.97
590.773	24054.42
590.97	23861.91
591.167	24367.76
591.364	23704.21
591.561	23849.62
591.758	23921.3
591.955	23763.61
592.152	23919.25
592.349	23646.87
592.546	23706.26
592.743	23587.48
592.94	23399.07
593.137	23440.03
593.334	23523.99
593.531	23098.02
593.727	23341.72
593.924	23132.83
594.121	22776.48
594.318	23044.77
594.515	22717.09
594.712	23067.3
594.908	22764.2
595.105	22598.31
595.302	22839.97
595.499	22373.03
595.696	22639.27
595.892	22438.57
596.089	22563.5
596.286	22510.25
596.482	22235.82
596.679	22094.51
596.876	22039.22
597.072	22114.99
597.269	22217.39
597.466	21979.82
597.662	21940.91
597.859	22139.57
598.055	21891.76
598.252	21404.35
598.448	21521.08
598.645	21772.98
598.841	21566.13
599.038	21406.39
599.234	21291.71
599.431	21361.34
599.627	21435.06
599.824	21383.87
600.02	21035.71
600.217	21142.21
600.413	21140.16
600.609	20841.15
600.806	21041.85
601.002	20951.74
601.198	20785.86
601.395	20849.35
601.591	20650.69
601.787	20503.24
601.984	20513.48
602.18	20693.7
602.376	20591.3
602.572	19997.39
602.769	20212.43
602.965	20351.69
603.161	20046.54
603.357	20171.47
603.553	20079.31
603.75	20249.29
603.946	19958.48
604.142	19968.72
604.338	19659.48
604.534	19960.53
604.73	19481.3
604.926	19589.85
605.122	19399.38
605.318	19401.43
605.514	19170.01
605.71	19190.49
605.906	19438.3
606.102	19266.27
606.298	19196.64
606.494	19172.06
606.69	19059.42
606.886	19301.08
607.082	19047.13
607.278	19327.71
607.474	18926.3
607.67	19378.9
607.866	18684.64
608.062	18922.21
608.257	18946.78
608.453	18434.79
608.649	18879.2
608.845	18846.43
609.041	18500.33
609.236	18506.47
609.432	18565.86
609.628	18660.07
609.824	18670.31
610.019	18215.66
610.215	18373.35
610.411	18453.22
610.606	18420.45
610.802	18180.84
610.998	18273
611.193	18127.6
611.389	18070.25
611.584	18045.68
611.78	17996.53
611.976	17949.42
612.171	18103.02
612.367	17947.37
612.562	17916.65
612.758	17916.65
612.953	17670.9
613.149	17998.57
613.344	17720.05
613.539	17984.24
613.735	17761.01
613.93	17885.94
614.126	17433.33
614.321	17828.59
614.517	17771.25
614.712	17662.71
614.907	17525.49
615.103	17650.42
615.298	17425.14
615.493	17625.84
615.688	17398.52
615.884	17586.93
616.079	16911.1
616.274	17699.57
616.47	17273.59
616.665	17261.3
616.86	17349.37
617.055	17130.23
617.25	17152.76
617.445	17089.28
617.641	16706.31
617.836	17031.93
618.031	17042.17
618.226	16911.1
618.421	16700.16
618.616	17005.31
618.811	16573.19
619.006	16796.42
619.201	16337.67
619.396	16802.56
619.591	16571.14
619.786	16560.9
619.981	16153.35
620.176	16560.9
620.371	16167.69
620.566	16403.21
620.761	16069.39
620.956	16401.16
621.151	15966.99
621.346	16190.22
621.541	15684.37
621.735	15872.78
621.93	15502.1
622.125	15670.03
622.32	15639.31
622.515	15475.48
622.709	15254.3
622.904	15362.84
623.099	15371.03
623.294	15407.89
623.488	15006.49
623.683	15088.41
623.878	14859.04
624.072	14934.81
624.267	14834.46
624.462	14680.86
624.656	14580.51
624.851	14652.19
625.046	14410.53
625.24	14498.59
625.435	14306.09
625.629	14170.92
625.824	14172.97
626.018	14185.26
626.213	13867.82
626.407	14119.72
626.602	13722.41
626.796	13951.79
626.991	13941.55
627.185	13673.26
627.38	13230.9
627.574	13529.91
627.768	13423.41
627.963	13517.62
628.157	13435.7
628.352	13656.88
628.546	13151.03
628.74	13157.18
628.935	13038.39
629.129	13058.87
629.323	12917.56
629.517	12888.89
629.712	12770.11
629.906	12890.94
630.1	12591.94
630.294	12690.24
630.489	12522.3
630.683	12489.54
630.877	12342.08
631.071	12153.67
631.265	12317.51
631.459	12237.64
631.653	12211.01
631.848	12260.16
632.042	12143.43
632.236	12020.55
632.43	11744.08
632.624	12045.13
632.818	11768.65
633.012	11866.95
633.206	11385.68
633.4	11819.85
633.594	11479.89
633.788	11586.38
633.982	11440.98
634.176	11209.56
634.369	11488.08
634.563	11217.75
634.757	11295.57
634.951	11316.05
635.145	10992.47
635.339	11035.48
635.533	10879.83
635.726	10845.02
635.92	10777.44
636.114	10963.8
636.308	10693.47
636.501	10558.3
636.695	10957.66
636.889	10707.8
637.083	10437.47
637.276	10623.84
637.47	10437.47
637.664	10494.82
637.857	10343.27
638.051	10396.51
638.244	10253.16
638.438	10251.11
638.632	10142.57
638.825	10136.42
639.019	10040.17
639.212	9849.71
639.406	10062.69
639.599	9829.23
639.793	9831.27
639.986	9587.57
640.18	9919.34
640.373	9735.02
640.567	9616.24
640.76	9610.09
640.954	9495.41
641.147	9382.77
641.34	9321.33
641.534	9405.3
641.727	9415.54
641.92	9292.66
642.114	9098.1
642.307	9214.84
642.5	9194.36
642.694	8946.55
642.887	9087.86
643.08	9173.88
643.273	9010.04
643.467	8979.32
643.66	8833.91
643.853	9040.76
644.046	8848.25
644.239	8774.52
644.432	8797.05
644.626	8373.12
644.819	8723.32
645.012	8577.92
645.205	8555.39
645.398	8432.51
645.591	8254.34
645.784	8387.46
645.977	8184.71
646.17	8237.95
646.363	8201.09
646.556	8240
646.749	8231.81
646.942	8242.05
647.135	8137.6
647.328	8219.52
647.521	8057.73
647.714	7996.29
647.907	8215.43
648.099	7760.78
648.292	7854.98
648.485	7777.16
648.678	7750.54
648.871	7783.31
649.064	7668.62
649.256	7832.46
649.449	7621.52
649.642	7476.11
649.835	7396.24
650.027	7517.07
650.22	7523.21
650.413	7408.53
650.605	7334.8
650.798	7320.46
650.991	7334.8
651.183	7199.63
651.376	7205.78
651.568	7216.02
651.761	7205.78
651.954	7152.53
652.146	6964.12
652.339	6988.69
652.531	7029.65
652.724	7162.77
652.916	6964.12
653.109	6775.7
653.301	6759.32
653.494	6845.34
653.686	6726.55
653.879	6812.57
654.071	6775.7
654.263	6658.97
654.456	6681.5
654.648	6525.85
654.84	6601.63
655.033	6607.77
655.225	6589.34
655.417	6423.45
655.61	6331.3
655.802	6558.62
655.994	6380.45
656.186	6290.34
656.379	6337.44
656.571	6261.66
656.763	6144.93
656.955	6284.19
657.148	6146.98
657.34	6151.07
657.532	6073.25
657.724	6032.29
657.916	6189.99
658.108	5868.45
658.3	6075.3
658.492	5827.5
658.684	5979.04
658.876	6040.48
659.068	5872.55
659.26	5807.02
659.452	5778.34
659.644	5743.53
659.836	5561.26
660.028	5655.47
660.22	5514.16
660.412	5499.82
660.604	5610.41
660.796	5546.92
660.988	5514.16
661.18	5667.75
661.372	5378.99
661.563	5491.63
661.755	5276.59
661.947	5446.57
662.139	5477.29
662.331	5256.11
662.522	5311.41
662.714	5215.15
662.906	5168.05
663.097	5112.75
663.289	5145.52
663.481	5012.4
663.673	5043.12
663.864	5153.71
664.056	5219.25
664.247	5026.74
664.439	4942.77
664.631	5024.69
664.822	4957.11
665.014	4936.63
665.205	5129.14
665.397	4871.09
665.588	4912.05
665.78	4727.74
665.971	4752.31
666.163	4950.96
666.354	4889.53
666.546	4725.69
666.737	4662.2
666.929	4672.44
667.12	4637.63
667.311	4600.76
667.503	4596.67
667.694	4647.87
667.885	4547.51
668.077	4527.03
668.268	4465.6
668.459	4539.32
668.651	4502.46
668.842	4432.83
669.033	4346.81
669.224	4488.12
669.416	4416.44
669.607	4355.01
669.798	4318.14
669.989	4344.77
670.18	4281.28
670.371	4336.57
670.563	4242.37
670.754	4199.36
670.945	4451.26
671.136	4305.85
671.327	4301.76
671.518	4193.22
671.709	4123.59
671.9	4219.84
672.091	4058.05
672.282	4088.77
672.473	4058.05
672.664	3933.12
672.855	4058.05
673.046	4043.71
673.237	4117.44
673.428	4023.23
673.619	3967.94
673.809	4039.62
674	3836.87
674.191	4000.71
674.382	3933.12
674.573	3953.6
674.764	3875.78
674.954	3879.88
675.145	3781.57
675.336	3759.05
675.527	3765.19
675.717	3746.76
675.908	3806.15
676.099	3720.14
676.289	3814.34
676.48	3609.54
676.671	3675.08
676.861	3707.85
677.052	3699.66
677.243	3603.4
677.433	3566.54
677.624	3591.11
677.814	3513.29
678.005	3460.04
678.195	3435.47
678.386	3607.5
678.576	3613.64
678.767	3398.6
678.957	3656.65
679.148	3556.3
679.338	3462.09
679.529	3367.88
679.719	3474.38
679.909	3378.12
680.1	3376.08
680.29	3351.5
680.481	3312.59
680.671	3277.77
680.861	3339.21
681.052	3339.21
681.242	3355.6
681.432	3339.21
681.622	3298.25
681.813	3288.01
682.003	3238.86
682.193	3103.7
682.383	3226.57
682.573	3197.9
682.764	3298.25
682.954	3310.54
683.144	3169.23
683.334	3191.76
683.524	3130.32
683.714	3220.43
683.904	3220.43
684.094	3122.13
684.284	3136.46
684.474	3087.31
684.664	3056.59
684.854	3060.69
685.044	3042.26
685.234	3138.51
685.424	2974.67
685.614	3023.83
685.804	3179.47
685.994	3021.78
686.184	3085.26
686.374	2874.32
686.564	3017.68
686.753	2986.96
686.943	2925.52
687.133	3032.02
687.323	2862.04
687.513	2853.84
687.702	2892.76
687.892	2847.7
688.082	2845.65
688.272	2821.08
688.461	2915.28
688.651	2919.38
688.841	2739.16
689.03	2835.41
689.22	2794.45
689.41	2743.25
689.599	2796.5
689.789	2724.82
689.979	2601.94
690.168	2769.88
690.358	2673.62
690.547	2636.76
690.737	2708.44
690.926	2782.17
691.116	2683.86
691.305	2724.82
691.495	2642.9
691.684	2647
691.874	2690.01
692.063	2696.15
692.252	2665.43
692.442	2585.56
692.631	2581.46
692.82	2651.1
693.01	2536.41
693.199	2540.51
693.388	2544.6
693.578	2524.12
693.767	2524.12
693.956	2501.59
694.146	2442.2
694.335	2532.31
694.524	2499.55
694.713	2364.38
694.902	2472.92
695.092	2413.53
695.281	2409.44
695.47	2495.45
695.659	2372.57
695.848	2403.29
696.037	2368.48
696.226	2380.76
696.415	2307.04
696.604	2517.98
696.793	2354.14
696.982	2479.07
697.171	2266.08
697.36	2239.45
697.549	2366.43
697.738	2315.23
697.927	2304.99
698.116	2325.47
698.305	2321.37
698.494	2511.83
698.683	2296.8
698.872	2407.39
699.061	2223.07
699.25	2200.54
699.438	2272.22
699.627	2313.18
699.816	2270.17
700.005	2302.94
700.193	2298.84
700.382	2178.01
700.571	2237.41
700.76	2311.13
700.948	2284.51
701.137	2173.92
701.326	2229.21
701.514	2143.2
701.703	2270.17
701.892	2286.56
702.08	2249.69
702.269	2200.54
702.457	2231.26
702.646	2214.88
702.834	2130.91
703.023	2218.97
703.212	2249.69
703.4	2231.26
703.589	2057.18
703.777	2169.82
703.965	2268.13
704.154	2233.31
704.342	2231.26
704.531	2259.93
704.719	2196.45
704.907	2380.76
705.096	2278.37
705.284	2165.73
705.472	2241.5
705.661	2245.6
705.849	2077.66
706.037	2141.15
706.226	2294.75
706.414	2261.98
706.602	2245.6
706.79	2196.45
706.979	2200.54
707.167	2198.49
707.355	2188.25
707.543	2212.83
707.731	2051.04
707.919	2122.72
708.107	2233.31
708.296	2196.45
708.484	2118.62
708.672	2122.72
708.86	2237.41
709.048	2268.13
709.236	2216.93
709.424	2044.9
709.612	2204.64
709.8	2135.01
709.988	2094.05
710.176	2284.51
710.364	2157.54
710.551	2149.34
710.739	2155.49
710.927	2171.87
711.115	2294.75
711.303	2087.9
711.491	2137.06
711.679	2243.55
711.866	2077.66
712.054	2302.94
712.242	2180.06
712.43	2159.58
712.617	2108.38
712.805	2118.62
712.993	2155.49
713.181	2051.04
713.368	2200.54
713.556	2130.91
713.744	2116.58
713.931	2202.59
714.119	2124.77
714.306	2163.68
714.494	2218.97
714.682	2188.25
714.869	1981.41
715.057	2216.93
715.244	2010.08
715.432	2184.16
715.619	2069.47
715.807	2083.81
715.994	2173.92
716.182	2196.45
716.369	2132.96
716.556	2098.14
716.744	2073.57
716.931	2153.44
717.119	2089.95
717.306	2065.38
717.493	2044.9
717.681	2223.07
717.868	2132.96
718.055	2128.86
718.242	2122.72
718.43	2143.2
718.617	2149.34
718.804	2098.14
718.991	2178.01
719.179	2251.74
719.366	2139.1
719.553	2087.9
719.74	2085.86
719.927	2196.45
720.114	2167.77
720.301	2048.99
720.488	2063.33
720.676	2128.86
720.863	2083.81
721.05	2087.9
721.237	2157.54
721.424	2157.54
721.611	2175.97
721.798	2163.68
721.985	2139.1
722.172	2036.7
722.358	2132.96
722.545	2069.47
722.732	2171.87
722.919	2114.53
723.106	2212.83
723.293	2214.88
723.48	2188.25
723.667	2153.44
723.853	2182.11
724.04	2085.86
724.227	2145.25
724.414	2034.66
724.6	2034.66
724.787	2102.24
724.974	2067.42
725.161	2237.41
725.347	2022.37
725.534	2153.44
725.72	2149.34
725.907	2126.82
726.094	2114.53
726.28	2106.34
726.467	2067.42
726.653	2034.66
726.84	2114.53
727.027	2206.69
727.213	2182.11
727.4	2083.81
727.586	2110.43
727.773	2130.91
727.959	2130.91
728.145	2128.86
728.332	2102.24
728.518	2235.36
728.705	2016.23
728.891	2028.51
729.077	2169.82
729.264	2065.38
729.45	2048.99
729.636	2270.17
729.823	2118.62
730.009	2081.76
730.195	2016.23
730.382	2124.77
730.568	2147.3
730.754	2157.54
730.94	2116.58
731.126	2069.47
731.313	2114.53
731.499	1971.17
731.685	2044.9
731.871	2073.57
732.057	2024.42
732.243	1993.7
732.429	2104.29
732.615	1952.74
732.801	2014.18
732.987	2048.99
733.173	1977.31
733.359	2096.1
733.545	2094.05
733.731	2067.42
733.917	2053.09
734.103	2079.71
734.289	2042.85
734.475	2085.86
734.661	2085.86
734.847	1999.84
735.033	2079.71
735.219	2139.1
735.404	2092
735.59	1952.74
735.776	2022.37
735.962	1989.6
736.148	1985.51
736.333	2046.94
736.519	2044.9
736.705	2040.8
736.89	2055.14
737.076	2059.23
737.262	1999.84
737.447	1987.55
737.633	1977.31
737.819	2008.03
738.004	2053.09
738.19	2022.37
738.375	1926.11
738.561	2118.62
738.747	1944.55
738.932	2018.27
739.118	2122.72
739.303	2048.99
739.489	1995.75
739.674	1848.29
739.859	1995.75
740.045	2024.42
740.23	1883.11
740.416	1885.16
740.601	2008.03
740.786	1942.5
740.972	1936.35
741.157	1883.11
741.342	2008.03
741.528	1870.82
741.713	1928.16
741.898	1846.24
742.084	1995.75
742.269	1899.49
742.454	1971.17
742.639	1911.78
742.824	1930.21
743.01	1897.44
743.195	1922.02
743.38	1868.77
743.565	1889.25
743.75	1885.16
743.935	1866.72
744.12	1850.34
744.305	1856.48
744.49	1797.09
744.675	1860.58
744.86	1721.32
745.045	1735.65
745.23	1809.38
745.415	1850.34
745.6	1770.47
745.785	1803.24
745.97	1747.94
746.155	1801.19
746.34	1704.93
746.525	1754.09
746.71	1692.65
746.895	1702.89
747.079	1729.51
747.264	1776.61
747.449	1631.21
747.634	1610.73
747.819	1655.78
748.003	1588.2
748.188	1704.93
748.373	1584.1
748.557	1641.45
748.742	1598.44
748.927	1616.87
749.111	1541.1
749.296	1573.86
749.481	1553.38
749.665	1663.97
749.85	1569.77
750.034	1655.78
750.219	1692.65
750.404	1596.39
750.588	1522.66
750.773	1524.71
750.957	1516.52
751.141	1481.71
751.326	1514.47
751.51	1518.57
751.695	1534.95
751.879	1475.56
752.064	1453.03
752.248	1453.03
752.432	1450.99
752.617	1412.07
752.801	1420.27
752.985	1420.27
753.17	1319.92
753.354	1360.88
753.538	1524.71
753.722	1379.31
753.907	1364.97
754.091	1340.4
754.275	1489.9
754.459	1297.39
754.643	1364.97
754.828	1289.2
755.012	1360.88
755.196	1250.28
755.38	1209.33
755.564	1266.67
755.748	1276.91
755.932	1360.88
756.116	1344.49
756.3	1307.63
756.484	1264.62
756.668	1274.86
756.852	1248.24
757.036	1160.17
757.22	1266.67
757.404	1297.39
757.588	1111.02
757.772	1235.95
757.956	1162.22
758.14	1254.38
758.323	1238
758.507	1194.99
758.691	1194.99
758.875	1131.5
759.059	1180.65
759.242	1082.35
759.426	1121.26
759.61	1166.32
759.794	1125.36
759.977	1020.91
760.161	1203.18
760.345	1131.5
760.528	1055.73
760.712	1108.98
760.895	1061.87
761.079	1115.12
761.263	1039.34
761.446	986.1
761.63	1084.4
761.813	1098.74
761.997	994.29
762.18	1106.93
762.364	1027.06
762.547	1016.82
762.731	1072.11
762.914	1018.86
763.098	1016.82
763.281	1039.34
763.464	986.1
763.648	914.42
763.831	975.86
764.015	979.95
764.198	1002.48
764.381	947.19
764.564	902.13
764.748	877.55
764.931	943.09
765.114	1047.54
765.297	947.19
765.481	924.66
765.664	916.47
765.847	1012.72
766.03	984.05
766.213	973.81
766.397	918.51
766.58	850.93
766.763	1059.82
766.946	930.8
767.129	1016.82
767.312	900.08
767.495	906.23
767.678	881.65
767.861	957.43
768.044	836.6
768.227	914.42
768.41	936.95
768.593	855.03
768.776	943.09
768.959	910.32
769.142	879.6
769.324	1041.39
769.507	840.69
769.69	916.47
769.873	969.71
770.056	986.1
770.239	920.56
770.421	930.8
770.604	836.6
770.787	803.83
770.97	822.26
771.152	803.83
771.335	832.5
771.518	801.78
771.7	830.45
771.883	846.84
772.066	834.55
772.248	910.32
772.431	795.64
772.613	900.08
772.796	863.22
772.978	707.57
773.161	805.88
773.343	898.03
773.526	781.3
773.708	762.87
773.891	789.49
774.073	658.42
774.256	850.93
774.438	814.07
774.621	738.29
774.803	850.93
774.985	680.95
775.168	822.26
775.35	738.29
775.532	771.06
775.715	877.55
775.897	746.48
776.079	691.19
776.261	713.72
776.444	689.14
776.626	746.48
776.808	629.75
776.99	676.85
777.173	728.05
777.355	707.57
777.537	656.37
777.719	697.33
777.901	701.43
778.083	644.09
778.265	689.14
778.447	683
778.629	605.17
778.811	570.36
778.993	674.81
779.175	691.19
779.357	619.51
779.539	558.07
779.721	588.79
779.903	609.27
780.085	652.28
780.267	654.33
780.449	672.76
780.631	609.27
780.812	590.84
780.994	619.51
781.176	627.7
781.358	586.74
781.54	553.98
781.721	584.7
781.903	584.7
782.085	535.54
782.267	551.93
782.448	484.34
782.63	549.88
782.812	543.74
782.993	545.78
783.175	562.17
783.357	551.93
783.538	603.13
783.72	476.15
783.901	480.25
784.083	646.13
784.264	484.34
784.446	525.3
784.627	476.15
784.809	545.78
784.99	416.76
785.172	580.6
785.353	545.78
785.535	467.96
785.716	490.49
785.897	500.73
786.079	431.1
786.26	412.67
786.441	467.96
786.623	441.34
786.804	447.48
786.985	488.44
787.167	410.62
787.348	467.96
787.529	412.67
787.71	451.58
787.891	418.81
788.073	427
788.254	383.99
788.435	494.58
788.616	433.15
788.797	437.24
788.978	349.18
789.159	457.72
789.34	390.14
789.522	482.3
789.703	427
789.884	453.63
790.065	398.33
790.246	398.33
790.427	371.71
790.607	457.72
790.788	429.05
790.969	488.44
791.15	361.47
791.331	388.09
791.512	427
791.693	336.89
791.874	390.14
792.054	371.71
792.235	357.37
792.416	345.08
792.597	300.03
792.778	359.42
792.958	396.28
793.139	402.43
793.32	308.22
793.5	277.5
793.681	328.7
793.862	328.7
794.042	308.22
794.223	254.97
794.404	351.23
794.584	279.55
794.765	287.74
794.945	359.42
795.126	322.56
795.306	377.85
795.487	244.73
795.667	359.42
795.848	304.12
796.028	259.07
796.209	312.32
796.389	388.09
796.57	285.69
796.75	336.89
796.93	291.84
797.111	322.56
797.291	265.21
797.471	287.74
797.652	312.32
797.832	283.64
798.012	304.12
798.192	205.82
798.373	205.82
798.553	273.4
798.733	257.02
798.913	191.49
799.093	275.45
799.274	242.68
799.454	246.78
799.634	345.08
799.814	322.56
799.994	232.44
800.174	246.78
800.354	267.26
800.534	304.12
800.714	279.55
800.894	238.59
801.074	244.73
801.254	242.68
801.434	308.22
801.614	128
801.794	205.82
801.974	650.23
802.154	175.1
802.334	320.51
802.514	230.4
802.693	181.25
802.873	197.63
803.053	332.79
803.233	175.1
803.413	306.17
803.592	295.93
803.772	295.93
803.952	259.07
804.131	216.06
804.311	248.83
804.491	293.88
804.67	179.2
804.85	168.96
805.03	281.6
805.209	177.15
805.389	252.92
805.568	185.34
805.748	201.72
805.928	273.4
806.107	281.6
806.287	201.72
806.466	230.4
806.646	128
806.825	185.34
807.004	248.83
807.184	181.25
807.363	273.4
807.543	224.25
807.722	224.25
807.901	181.25
808.081	199.68
808.26	82.94
808.439	140.29
808.619	191.49
808.798	238.59
808.977	218.11
809.156	199.68
809.336	191.49
809.515	201.72
809.694	222.2
809.873	187.39
810.052	201.72
810.231	201.72
810.411	205.82
810.59	224.25
810.769	166.91
810.948	238.59
811.127	125.95
811.306	254.97
811.485	140.29
811.664	121.85
811.843	177.15
812.022	117.76
812.201	101.37
812.38	199.68
812.559	156.67
812.737	185.34
812.916	146.43
813.095	246.78
813.274	211.96
813.453	132.09
813.632	31.74
813.811	193.53
813.989	175.1
814.168	134.14
814.347	140.29
814.526	125.95
814.704	214.01
814.883	207.87
815.062	132.09
815.24	109.57
815.419	76.8
815.598	166.91
815.776	54.27
815.955	138.24
816.133	144.38
816.312	72.7
816.49	62.46
816.669	109.57
816.847	74.75
817.026	140.29
817.204	164.86
817.383	197.63
817.561	113.66
817.74	246.78
817.918	216.06
818.097	130.05
818.275	140.29
818.453	109.57
818.632	113.66
818.81	183.29
818.988	148.48
819.167	99.33
819.345	197.63
819.523	54.27
819.701	103.42
819.879	103.42
820.058	158.72
820.236	58.37
820.414	109.57
820.592	166.91
820.77	181.25
820.948	60.42
821.127	46.08
821.305	189.44
821.483	160.77
821.661	148.48
821.839	138.24
822.017	78.85
822.195	78.85
822.373	209.92
822.551	148.48
822.729	115.71
822.907	152.57
823.085	164.86
823.262	117.76
823.44	82.94
823.618	123.9
823.796	175.1
823.974	113.66
824.152	132.09
824.329	136.19
824.507	99.33
824.685	54.27
824.863	80.89
825.04	117.76
825.218	144.38
825.396	89.09
825.574	66.56
825.751	99.33
825.929	138.24
826.107	95.23
826.284	103.42
826.462	189.44
826.639	27.65
826.817	76.8
826.994	156.67
827.172	-11.26
827.349	168.96
827.527	78.85
827.704	117.76
827.882	160.77
828.059	123.9
828.237	78.85
828.414	140.29
828.591	41.98
828.769	119.81
828.946	150.53
829.124	103.42
829.301	93.18
829.478	64.51
829.655	146.43
829.833	95.23
830.01	72.7
830.187	109.57
830.364	74.75
830.542	82.94
830.719	117.76
830.896	158.72
831.073	140.29
831.25	113.66
831.427	134.14
831.604	168.96
831.782	1.02
831.959	187.39
832.136	41.98
832.313	158.72
832.49	84.99
832.667	72.7
832.844	35.84
833.021	125.95
833.198	95.23
833.374	123.9
833.551	84.99
833.728	125.95
833.905	119.81
834.082	13.31
834.259	74.75
834.436	152.57
834.612	39.94
834.789	99.33
834.966	46.08
835.143	84.99
835.319	103.42
835.496	117.76
835.673	66.56
835.85	136.19
836.026	44.03
836.203	158.72
836.38	89.09
836.556	70.65
836.733	1.02
836.909	125.95
837.086	97.28
837.262	46.08
837.439	87.04
837.616	80.89
837.792	78.85
837.968	80.89
838.145	19.46
838.321	144.38
838.498	52.22
838.674	107.52
838.851	84.99
839.027	144.38
839.203	152.57
839.38	52.22
839.556	17.41
839.732	148.48
839.909	35.84
840.085	62.46
840.261	72.7
840.437	21.5
840.614	35.84
840.79	101.37
840.966	21.5
841.142	70.65
841.318	76.8
841.494	48.13
841.671	115.71
841.847	82.94
842.023	46.08
842.199	46.08
842.375	25.6
842.551	89.09
842.727	70.65
842.903	74.75
843.079	44.03
843.255	84.99
843.431	56.32
843.607	27.65
843.783	50.18
843.959	89.09
844.134	29.7
844.31	93.18
844.486	105.47
844.662	107.52
844.838	27.65
845.013	95.23
845.189	84.99
845.365	41.98
845.541	62.46
845.716	109.57
845.892	105.47
846.068	37.89
846.244	41.98
846.419	95.23
846.595	19.46
846.77	113.66
846.946	101.37
847.122	82.94
847.297	-64.51
847.473	46.08
847.648	-27.65
847.824	91.13
847.999	82.94
848.175	50.18
848.35	35.84
848.526	132.09
848.701	82.94
848.876	76.8
849.052	44.03
849.227	-15.36
849.403	13.31
849.578	9.22
849.753	48.13
849.929	29.7
850.104	56.32
850.279	130.05
850.454	97.28
850.63	78.85
850.805	23.55
850.98	33.79
851.155	-1.02
851.33	15.36
851.505	-13.31
851.681	93.18
851.856	1.02
852.031	74.75
852.206	44.03
852.381	56.32
852.556	29.7
852.731	72.7
852.906	66.56
853.081	1.02
853.256	35.84
853.431	-5.12
853.606	-37.89
853.781	50.18
853.956	70.65
854.131	101.37
854.305	50.18
854.48	76.8
854.655	70.65
854.83	-11.26
855.005	41.98
855.18	35.84
855.354	27.65
855.529	25.6
855.704	35.84
855.879	52.22
856.053	-7.17
856.228	23.55
856.403	58.37
856.577	19.46
856.752	9.22
856.926	50.18
857.101	-11.26
857.276	46.08
857.45	11.26
857.625	9.22
857.799	5.12
857.974	113.66
858.148	-54.27
858.323	64.51
858.497	33.79
858.672	107.52
858.846	25.6
859.02	41.98
859.195	21.5
859.369	44.03
859.543	9.22
859.718	119.81
859.892	76.8
860.066	-3.07
860.241	23.55
860.415	31.74
860.589	-54.27
860.763	33.79
860.938	23.55
861.112	64.51
861.286	74.75
861.46	41.98
861.634	3.07
861.808	58.37
861.982	25.6
862.157	39.94
862.331	48.13
862.505	87.04
862.679	21.5
862.853	46.08
863.027	37.89
863.201	95.23
863.375	41.98
863.549	78.85
863.722	44.03
863.896	9.22
864.07	33.79
864.244	29.7
864.418	13.31
864.592	25.6
864.766	17.41
864.939	78.85
865.113	29.7
865.287	58.37
865.461	-44.03
865.634	25.6
865.808	5.12
865.982	48.13
866.156	1.02
866.329	35.84
866.503	60.42
866.676	3.07
866.85	76.8
867.024	66.56
867.197	-31.74
867.371	50.18
867.544	-27.65
867.718	-19.46
867.891	37.89
868.065	-5.12
868.238	-35.84
868.412	95.23
868.585	7.17
868.759	-37.89
868.932	-17.41
869.105	31.74
869.279	7.17
869.452	33.79
869.625	23.55
869.799	41.98
869.972	5.12
870.145	-25.6
870.319	19.46
870.492	97.28
870.665	52.22
870.838	-11.26
871.011	39.94
871.185	37.89
871.358	41.98
871.531	62.46
871.704	37.89
871.877	-7.17
872.05	29.7
872.223	-19.46
872.396	23.55
872.569	95.23
872.742	87.04
872.915	66.56
873.088	54.27
873.261	-13.31
873.434	-7.17
873.607	41.98
873.78	33.79
873.953	41.98
874.126	-13.31
874.299	-21.5
874.471	29.7
874.644	23.55
874.817	97.28
874.99	50.18
875.163	27.65
875.335	39.94
875.508	27.65
875.681	97.28
875.853	23.55
876.026	33.79
876.199	78.85
876.371	1.02
876.544	29.7
876.717	56.32
876.889	19.46
877.062	54.27
877.234	-11.26
877.407	21.5
877.579	52.22
877.752	33.79
877.924	17.41
878.097	78.85
878.269	5.12
878.442	78.85
878.614	-68.61
878.786	50.18
878.959	62.46
879.131	15.36
879.303	23.55
879.476	52.22
879.648	31.74
879.82	70.65
879.993	17.41
880.165	25.6
880.337	1.02
880.509	41.98
880.681	60.42
880.854	-3.07
881.026	82.94
881.198	25.6
881.37	-37.89
881.542	62.46
881.714	48.13
881.886	44.03
882.058	5.12
882.23	62.46
882.402	-17.41
882.574	13.31
882.746	13.31
882.918	29.7
883.09	35.84
883.262	17.41
883.434	-11.26
883.606	21.5
883.778	44.03
883.95	50.18
884.122	-17.41
884.293	33.79
884.465	1.02
884.637	23.55
884.809	11.26
884.98	37.89
885.152	62.46
885.324	-58.37
885.496	62.46
885.667	66.56
885.839	-23.55
886.011	-78.85
886.182	23.55
886.354	46.08
886.525	41.98
886.697	64.51
886.869	46.08
887.04	82.94
887.212	-23.55
887.383	-44.03
887.555	-54.27
887.726	54.27
887.897	-46.08
888.069	33.79
888.24	3.07
888.412	-5.12
888.583	50.18
888.754	1.02
888.926	21.5
889.097	-13.31
889.268	-13.31
889.44	-17.41
889.611	27.65
889.782	35.84
889.953	-64.51
890.125	-13.31
890.296	7.17
890.467	-33.79
890.638	-56.32
890.809	-25.6
890.98	15.36
891.151	21.5
891.323	64.51
891.494	-70.65
891.665	-11.26
891.836	44.03
892.007	31.74
892.178	11.26
892.349	11.26
892.52	54.27
892.691	5.12
892.862	5.12
893.032	-15.36
893.203	-3.07
893.374	11.26
893.545	58.37
893.716	-3.07
893.887	-23.55
894.057	41.98
894.228	-19.46
894.399	56.32
894.57	17.41
894.74	29.7
894.911	72.7
895.082	107.52
895.253	3.07
895.423	1.02
895.594	33.79
895.764	-7.17
895.935	-21.5
896.106	41.98
896.276	132.09
896.447	17.41
896.617	-25.6
896.788	-5.12
896.958	1.02
897.129	9.22
897.299	44.03
897.47	68.61
897.64	46.08
897.81	19.46
897.981	-31.74
898.151	-46.08
898.322	52.22
898.492	-7.17
898.662	25.6
898.832	50.18
899.003	58.37
899.173	-23.55
899.343	17.41
899.513	1.02
