Data from USB4F104151__58__13-11-44-358.txt Node

Date: Fri Mar 14 13:11:44 EDT 2025
User: louis
Spectrometer: USB4F10415
Trigger mode: 4
Integration Time (sec): 2.000000E-2
Scans to average: 1
Electric dark correction enabled: true
Nonlinearity correction enabled: false
Boxcar width: 0
XAxis mode: Wavelengths
Number of Pixels in Spectrum: 3648
>>>>>Begin Spectral Data<<<<<
178.204	-52.05
178.424	-52.05
178.644	-52.05
178.864	-121.68
179.084	-121.68
179.304	-47.96
179.524	-35.67
179.744	25.77
179.964	-19.29
180.184	31.91
180.404	-50
180.624	31.91
180.844	-25.43
181.064	23.72
181.283	27.82
181.503	29.87
181.723	7.34
181.943	-50
182.163	36.01
182.383	42.15
182.602	40.11
182.822	79.02
183.042	9.39
183.262	29.87
183.482	13.48
183.701	21.67
183.921	21.67
184.141	-35.67
184.361	-9.05
184.58	11.43
184.8	15.53
185.02	9.39
185.239	27.82
185.459	-2.9
185.679	7.34
185.898	-29.52
186.118	15.53
186.338	5.29
186.557	33.96
186.777	-35.67
186.997	-52.05
187.216	-37.72
187.436	62.63
187.655	72.87
187.875	42.15
188.095	-23.38
188.314	13.48
188.534	31.91
188.753	56.49
188.973	70.83
189.192	38.06
189.412	21.67
189.631	-15.19
189.851	-4.95
190.07	113.83
190.29	-31.57
190.509	105.64
190.729	-33.62
190.948	40.11
191.168	128.17
191.387	27.82
191.607	19.63
191.826	21.67
192.045	-27.48
192.265	-43.86
192.484	11.43
192.704	-23.38
192.923	38.06
193.142	25.77
193.362	70.83
193.581	23.72
193.8	54.44
194.02	38.06
194.239	15.53
194.458	23.72
194.678	42.15
194.897	23.72
195.116	27.82
195.335	-23.38
195.555	-35.67
195.774	-47.96
195.993	17.58
196.212	68.78
196.432	54.44
196.651	76.97
196.87	-60.24
197.089	138.41
197.308	21.67
197.528	-25.43
197.747	-19.29
197.966	33.96
198.185	56.49
198.404	17.58
198.623	15.53
198.842	-2.9
199.062	68.78
199.281	40.11
199.5	31.91
199.719	42.15
199.938	-15.19
200.157	70.83
200.376	-0.85
200.595	29.87
200.814	44.2
201.033	-37.72
201.252	56.49
201.471	36.01
201.69	83.11
201.909	105.64
202.128	36.01
202.347	79.02
202.566	17.58
202.785	19.63
203.004	-11.09
203.223	68.78
203.442	31.91
203.661	9.39
203.879	-0.85
204.098	29.87
204.317	9.39
204.536	42.15
204.755	-11.09
204.974	46.25
205.193	70.83
205.411	54.44
205.63	60.59
205.849	29.87
206.068	70.83
206.287	11.43
206.505	33.96
206.724	5.29
206.943	15.53
207.162	-15.19
207.381	3.24
207.599	62.63
207.818	62.63
208.037	15.53
208.255	15.53
208.474	-25.43
208.693	-15.19
208.911	7.34
209.13	27.82
209.349	31.91
209.567	38.06
209.786	50.35
210.005	-29.52
210.223	-11.09
210.442	-7
210.661	-11.09
210.879	17.58
211.098	9.39
211.316	107.69
211.535	48.3
211.753	54.44
211.972	38.06
212.191	-66.39
212.409	70.83
212.628	107.69
212.846	62.63
213.065	-33.62
213.283	42.15
213.502	79.02
213.72	-23.38
213.938	25.77
214.157	-41.81
214.375	93.35
214.594	103.59
214.812	-11.09
215.031	66.73
215.249	1.19
215.467	33.96
215.686	23.72
215.904	50.35
216.122	23.72
216.341	29.87
216.559	-31.57
216.778	17.58
216.996	76.97
217.214	3.24
217.432	17.58
217.651	56.49
217.869	23.72
218.087	54.44
218.306	40.11
218.524	36.01
218.742	-21.33
218.96	7.34
219.179	-2.9
219.397	-41.81
219.615	23.72
219.833	15.53
220.051	-41.81
220.27	83.11
220.488	36.01
220.706	29.87
220.924	-29.52
221.142	-13.14
221.36	19.63
221.578	70.83
221.796	136.36
222.015	50.35
222.233	5.29
222.451	19.63
222.669	68.78
222.887	23.72
223.105	-56.15
223.323	46.25
223.541	99.5
223.759	-50
223.977	42.15
224.195	56.49
224.413	66.73
224.631	-33.62
224.849	21.67
225.067	50.35
225.285	27.82
225.503	70.83
225.721	15.53
225.939	15.53
226.157	115.88
226.375	87.21
226.592	19.63
226.81	54.44
227.028	42.15
227.246	50.35
227.464	17.58
227.682	27.82
227.9	64.68
228.117	66.73
228.335	29.87
228.553	-11.09
228.771	-76.63
228.989	48.3
229.206	19.63
229.424	44.2
229.642	29.87
229.86	-72.53
230.077	-2.9
230.295	21.67
230.513	79.02
230.731	-2.9
230.948	66.73
231.166	13.48
231.384	25.77
231.601	17.58
231.819	13.48
232.037	-9.05
232.254	-19.29
232.472	23.72
232.689	23.72
232.907	48.3
233.125	-9.05
233.342	9.39
233.56	9.39
233.777	-11.09
233.995	-9.05
234.213	79.02
234.43	46.25
234.648	-82.77
234.865	-29.52
235.083	-29.52
235.3	-95.06
235.518	54.44
235.735	-43.86
235.953	48.3
236.17	-43.86
236.388	-9.05
236.605	7.34
236.822	36.01
237.04	54.44
237.257	-11.09
237.475	1.19
237.692	29.87
237.909	25.77
238.127	-17.24
238.344	25.77
238.562	-45.91
238.779	50.35
238.996	3.24
239.214	-27.48
239.431	-7
239.648	99.5
239.865	-17.24
240.083	-31.57
240.3	-7
240.517	40.11
240.735	58.54
240.952	46.25
241.169	-9.05
241.386	76.97
241.603	85.16
241.821	7.34
242.038	15.53
242.255	23.72
242.472	-4.95
242.689	66.73
242.907	48.3
243.124	-13.14
243.341	54.44
243.558	-2.9
243.775	48.3
243.992	-70.48
244.209	1.19
244.426	-0.85
244.643	50.35
244.86	5.29
245.078	81.07
245.295	-9.05
245.512	46.25
245.729	-15.19
245.946	72.87
246.163	29.87
246.38	54.44
246.597	52.39
246.814	56.49
247.031	46.25
247.248	60.59
247.464	50.35
247.681	29.87
247.898	44.2
248.115	1.19
248.332	-52.05
248.549	21.67
248.766	50.35
248.983	29.87
249.2	74.92
249.417	29.87
249.633	-17.24
249.85	68.78
250.067	5.29
250.284	27.82
250.501	91.31
250.717	40.11
250.934	-27.48
251.151	-54.1
251.368	38.06
251.585	27.82
251.801	17.58
252.018	-52.05
252.235	70.83
252.451	9.39
252.668	62.63
252.885	79.02
253.102	93.35
253.318	15.53
253.535	58.54
253.752	-41.81
253.968	7.34
254.185	-29.52
254.401	23.72
254.618	3.24
254.835	-7
255.051	97.45
255.268	126.12
255.484	52.39
255.701	1.19
255.917	1.19
256.134	5.29
256.351	48.3
256.567	-47.96
256.784	31.91
257	7.34
257.217	46.25
257.433	17.58
257.65	119.98
257.866	29.87
258.082	-93.01
258.299	52.39
258.515	-27.48
258.732	1.19
258.948	64.68
259.165	60.59
259.381	62.63
259.597	27.82
259.814	-9.05
260.03	-7
260.246	50.35
260.463	29.87
260.679	33.96
260.895	40.11
261.112	5.29
261.328	1.19
261.544	-7
261.761	87.21
261.977	3.24
262.193	15.53
262.409	23.72
262.626	38.06
262.842	23.72
263.058	52.39
263.274	46.25
263.49	54.44
263.707	27.82
263.923	56.49
264.139	44.2
264.355	-52.05
264.571	1.19
264.787	-11.09
265.004	66.73
265.22	36.01
265.436	19.63
265.652	-2.9
265.868	40.11
266.084	-33.62
266.3	3.24
266.516	-9.05
266.732	31.91
266.948	109.74
267.164	-7
267.38	5.29
267.596	38.06
267.812	62.63
268.028	21.67
268.244	-43.86
268.46	7.34
268.676	17.58
268.892	62.63
269.108	46.25
269.324	-74.58
269.54	1.19
269.756	91.31
269.972	13.48
270.188	62.63
270.403	-25.43
270.619	13.48
270.835	66.73
271.051	-25.43
271.267	-35.67
271.483	-35.67
271.698	50.35
271.914	97.45
272.13	3.24
272.346	70.83
272.562	-43.86
272.777	29.87
272.993	105.64
273.209	50.35
273.425	40.11
273.64	87.21
273.856	21.67
274.072	62.63
274.287	-11.09
274.503	23.72
274.719	-41.81
274.934	27.82
275.15	-76.63
275.366	-23.38
275.581	-9.05
275.797	17.58
276.012	97.45
276.228	54.44
276.444	42.15
276.659	60.59
276.875	-43.86
277.09	1.19
277.306	-17.24
277.521	19.63
277.737	-74.58
277.952	23.72
278.168	42.15
278.383	-35.67
278.599	29.87
278.814	-11.09
279.03	29.87
279.245	70.83
279.461	-58.2
279.676	-19.29
279.892	-76.63
280.107	7.34
280.322	-37.72
280.538	29.87
280.753	38.06
280.969	1.19
281.184	23.72
281.399	81.07
281.615	74.92
281.83	72.87
282.045	29.87
282.26	70.83
282.476	25.77
282.691	46.25
282.906	-64.34
283.122	21.67
283.337	5.29
283.552	-11.09
283.767	70.83
283.983	-25.43
284.198	79.02
284.413	150.7
284.628	-21.33
284.843	31.91
285.058	17.58
285.274	64.68
285.489	29.87
285.704	36.01
285.919	-95.06
286.134	9.39
286.349	52.39
286.564	29.87
286.779	79.02
286.995	87.21
287.21	1.19
287.425	81.07
287.64	13.48
287.855	27.82
288.07	3.24
288.285	46.25
288.5	5.29
288.715	-37.72
288.93	-27.48
289.145	5.29
289.36	17.58
289.575	40.11
289.79	79.02
290.004	31.91
290.219	56.49
290.434	97.45
290.649	38.06
290.864	44.2
291.079	17.58
291.294	-23.38
291.509	-33.62
291.724	5.29
291.938	1.19
292.153	48.3
292.368	-17.24
292.583	-9.05
292.798	19.63
293.012	40.11
293.227	23.72
293.442	-52.05
293.657	-41.81
293.871	38.06
294.086	40.11
294.301	-23.38
294.516	56.49
294.73	36.01
294.945	15.53
295.16	56.49
295.374	46.25
295.589	40.11
295.804	5.29
296.018	29.87
296.233	130.22
296.447	54.44
296.662	-31.57
296.877	54.44
297.091	93.35
297.306	-19.29
297.52	46.25
297.735	40.11
297.949	36.01
298.164	50.35
298.378	36.01
298.593	5.29
298.807	-60.24
299.022	-27.48
299.236	50.35
299.451	83.11
299.665	91.31
299.88	136.36
300.094	36.01
300.309	21.67
300.523	19.63
300.737	38.06
300.952	3.24
301.166	-19.29
301.381	-7
301.595	-11.09
301.809	33.96
302.024	56.49
302.238	-41.81
302.452	111.78
302.667	42.15
302.881	97.45
303.095	23.72
303.309	21.67
303.524	38.06
303.738	97.45
303.952	7.34
304.166	40.11
304.381	11.43
304.595	70.83
304.809	42.15
305.023	-11.09
305.237	-0.85
305.452	-0.85
305.666	19.63
305.88	54.44
306.094	97.45
306.308	46.25
306.522	83.11
306.736	33.96
306.95	103.59
307.164	36.01
307.379	40.11
307.593	91.31
307.807	83.11
308.021	56.49
308.235	31.91
308.449	-7
308.663	-33.62
308.877	58.54
309.091	17.58
309.305	62.63
309.519	64.68
309.733	15.53
309.947	-4.95
310.161	-13.14
310.374	29.87
310.588	72.87
310.802	40.11
311.016	-4.95
311.23	68.78
311.444	-2.9
311.658	46.25
311.872	27.82
312.085	11.43
312.299	119.98
312.513	91.31
312.727	-9.05
312.941	-7
313.154	44.2
313.368	5.29
313.582	50.35
313.796	-27.48
314.009	-19.29
314.223	48.3
314.437	-7
314.651	-17.24
314.864	-4.95
315.078	7.34
315.292	-15.19
315.505	27.82
315.719	7.34
315.933	23.72
316.146	-13.14
316.36	-23.38
316.573	-2.9
316.787	48.3
317.001	60.59
317.214	-2.9
317.428	9.39
317.641	54.44
317.855	48.3
318.068	5.29
318.282	60.59
318.495	21.67
318.709	29.87
318.922	-0.85
319.136	74.92
319.349	97.45
319.563	60.59
319.776	-2.9
319.99	-2.9
320.203	-2.9
320.417	81.07
320.63	15.53
320.843	62.63
321.057	-29.52
321.27	25.77
321.483	115.88
321.697	126.12
321.91	23.72
322.124	-7
322.337	11.43
322.55	19.63
322.763	7.34
322.977	-2.9
323.19	25.77
323.403	17.58
323.617	72.87
323.83	93.35
324.043	11.43
324.256	-0.85
324.469	-4.95
324.683	68.78
324.896	40.11
325.109	21.67
325.322	29.87
325.535	-58.2
325.748	23.72
325.962	29.87
326.175	54.44
326.388	9.39
326.601	-19.29
326.814	-4.95
327.027	38.06
327.24	-2.9
327.453	48.3
327.666	97.45
327.879	19.63
328.092	33.96
328.305	46.25
328.518	-29.52
328.731	56.49
328.944	27.82
329.157	83.11
329.37	-9.05
329.583	25.77
329.796	44.2
330.009	60.59
330.222	46.25
330.435	48.3
330.648	25.77
330.861	-23.38
331.073	21.67
331.286	72.87
331.499	68.78
331.712	-80.72
331.925	60.59
332.138	-25.43
332.35	13.48
332.563	-72.53
332.776	70.83
332.989	31.91
333.202	3.24
333.414	54.44
333.627	62.63
333.84	36.01
334.053	17.58
334.265	-50
334.478	50.35
334.691	40.11
334.903	3.24
335.116	38.06
335.329	-11.09
335.541	64.68
335.754	83.11
335.966	-2.9
336.179	23.72
336.392	31.91
336.604	85.16
336.817	38.06
337.029	72.87
337.242	-9.05
337.454	56.49
337.667	-64.34
337.88	3.24
338.092	40.11
338.305	56.49
338.517	21.67
338.729	33.96
338.942	62.63
339.154	7.34
339.367	50.35
339.579	27.82
339.792	-21.33
340.004	46.25
340.217	-13.14
340.429	76.97
340.641	-54.1
340.854	56.49
341.066	27.82
341.278	-52.05
341.491	66.73
341.703	5.29
341.915	25.77
342.128	58.54
342.34	-25.43
342.552	-13.14
342.764	-47.96
342.977	99.5
343.189	-4.95
343.401	50.35
343.613	-41.81
343.826	15.53
344.038	-21.33
344.25	58.54
344.462	36.01
344.674	38.06
344.886	91.31
345.099	-43.86
345.311	11.43
345.523	-2.9
345.735	3.24
345.947	66.73
346.159	-62.29
346.371	5.29
346.583	79.02
346.795	5.29
347.007	-2.9
347.219	15.53
347.431	-15.19
347.643	29.87
347.855	15.53
348.067	48.3
348.279	-43.86
348.491	54.44
348.703	-0.85
348.915	52.39
349.127	13.48
349.339	1.19
349.551	-13.14
349.763	87.21
349.975	-15.19
350.187	17.58
350.399	40.11
350.61	64.68
350.822	-47.96
351.034	52.39
351.246	-54.1
351.458	38.06
351.669	46.25
351.881	40.11
352.093	-11.09
352.305	58.54
352.517	29.87
352.728	17.58
352.94	13.48
353.152	17.58
353.363	-66.39
353.575	3.24
353.787	72.87
353.999	23.72
354.21	7.34
354.422	44.2
354.633	27.82
354.845	3.24
355.057	-0.85
355.268	-52.05
355.48	54.44
355.692	46.25
355.903	3.24
356.115	56.49
356.326	54.44
356.538	85.16
356.749	74.92
356.961	-0.85
357.172	29.87
357.384	97.45
357.595	87.21
357.807	-62.29
358.018	-21.33
358.23	-43.86
358.441	58.54
358.653	42.15
358.864	46.25
359.075	40.11
359.287	11.43
359.498	36.01
359.709	15.53
359.921	56.49
360.132	7.34
360.344	5.29
360.555	-4.95
360.766	42.15
360.977	27.82
361.189	66.73
361.4	25.77
361.611	19.63
361.823	38.06
362.034	38.06
362.245	-0.85
362.456	-11.09
362.667	23.72
362.879	-21.33
363.09	21.67
363.301	29.87
363.512	1.19
363.723	5.29
363.935	11.43
364.146	19.63
364.357	-0.85
364.568	9.39
364.779	29.87
364.99	130.22
365.201	31.91
365.412	56.49
365.623	-68.44
365.834	46.25
366.045	70.83
366.256	-25.43
366.467	13.48
366.678	21.67
366.889	40.11
367.1	23.72
367.311	29.87
367.522	13.48
367.733	79.02
367.944	64.68
368.155	70.83
368.366	76.97
368.577	13.48
368.788	17.58
368.999	40.11
369.209	101.55
369.42	60.59
369.631	79.02
369.842	62.63
370.053	58.54
370.264	146.6
370.474	81.07
370.685	17.58
370.896	-25.43
371.107	54.44
371.317	70.83
371.528	64.68
371.739	105.64
371.95	7.34
372.16	93.35
372.371	46.25
372.582	-41.81
372.792	58.54
373.003	87.21
373.214	17.58
373.424	38.06
373.635	5.29
373.846	64.68
374.056	-23.38
374.267	11.43
374.477	21.67
374.688	7.34
374.898	50.35
375.109	7.34
375.319	89.26
375.53	40.11
375.74	50.35
375.951	-19.29
376.161	31.91
376.372	64.68
376.582	-35.67
376.793	33.96
377.003	-11.09
377.214	83.11
377.424	1.19
377.635	13.48
377.845	-23.38
378.055	21.67
378.266	-13.14
378.476	3.24
378.686	9.39
378.897	-11.09
379.107	7.34
379.317	40.11
379.528	-35.67
379.738	68.78
379.948	-0.85
380.158	1.19
380.369	52.39
380.579	5.29
380.789	-2.9
380.999	-33.62
381.21	111.78
381.42	64.68
381.63	-17.24
381.84	29.87
382.05	29.87
382.261	52.39
382.471	74.92
382.681	-35.67
382.891	-23.38
383.101	11.43
383.311	-58.2
383.521	64.68
383.731	38.06
383.941	21.67
384.151	-9.05
384.361	48.3
384.571	-2.9
384.781	48.3
384.991	13.48
385.201	56.49
385.411	44.2
385.621	9.39
385.831	122.02
386.041	58.54
386.251	128.17
386.461	42.15
386.671	-33.62
386.881	38.06
387.091	9.39
387.301	15.53
387.511	79.02
387.72	66.73
387.93	-66.39
388.14	21.67
388.35	89.26
388.56	21.67
388.769	1.19
388.979	33.96
389.189	48.3
389.399	25.77
389.609	17.58
389.818	27.82
390.028	62.63
390.238	29.87
390.447	48.3
390.657	64.68
390.867	56.49
391.076	-19.29
391.286	54.44
391.496	72.87
391.705	27.82
391.915	5.29
392.125	25.77
392.334	11.43
392.544	-0.85
392.753	83.11
392.963	76.97
393.172	64.68
393.382	46.25
393.591	46.25
393.801	15.53
394.01	29.87
394.22	-19.29
394.429	95.4
394.639	-37.72
394.848	25.77
395.058	7.34
395.267	-2.9
395.477	122.02
395.686	44.2
395.895	83.11
396.105	48.3
396.314	52.39
396.524	23.72
396.733	81.07
396.942	52.39
397.152	91.31
397.361	19.63
397.57	-11.09
397.78	33.96
397.989	85.16
398.198	122.02
398.407	36.01
398.617	111.78
398.826	25.77
399.035	7.34
399.244	107.69
399.453	21.67
399.663	17.58
399.872	105.64
400.081	13.48
400.29	54.44
400.499	23.72
400.708	74.92
400.917	33.96
401.127	25.77
401.336	25.77
401.545	109.74
401.754	99.5
401.963	113.83
402.172	66.73
402.381	23.72
402.59	36.01
402.799	81.07
403.008	48.3
403.217	21.67
403.426	58.54
403.635	46.25
403.844	33.96
404.053	58.54
404.262	66.73
404.471	128.17
404.68	85.16
404.888	66.73
405.097	5.29
405.306	117.93
405.515	107.69
405.724	103.59
405.933	87.21
406.142	72.87
406.35	101.55
406.559	101.55
406.768	97.45
406.977	136.36
407.185	58.54
407.394	83.11
407.603	93.35
407.812	101.55
408.02	144.55
408.229	115.88
408.438	97.45
408.646	109.74
408.855	124.07
409.064	79.02
409.272	60.59
409.481	148.65
409.69	119.98
409.898	83.11
410.107	142.5
410.315	95.4
410.524	177.32
410.733	160.94
410.941	128.17
411.15	136.36
411.358	117.93
411.567	193.7
411.775	175.27
411.984	212.14
412.192	251.05
412.401	175.27
412.609	249
412.818	177.32
413.026	222.38
413.234	195.75
413.443	224.42
413.651	292.01
413.86	271.53
414.068	285.86
414.276	246.95
414.485	228.52
414.693	351.4
414.901	300.2
415.11	345.25
415.318	316.58
415.526	287.91
415.734	306.34
415.943	332.97
416.151	341.16
416.359	341.16
416.567	378.02
416.776	361.64
416.984	369.83
417.192	418.98
417.4	382.12
417.608	412.84
417.817	398.5
418.025	453.8
418.233	511.14
418.441	382.12
418.649	588.96
418.857	541.86
419.065	545.95
419.273	562.34
419.481	564.39
419.689	562.34
419.897	623.78
420.105	728.22
420.313	648.35
420.521	693.41
420.729	687.26
420.937	752.8
421.145	691.36
421.353	808.09
421.561	816.29
421.769	885.92
421.977	877.73
422.185	838.81
422.393	875.68
422.601	986.27
422.809	982.17
423.017	957.6
423.224	1045.66
423.432	1125.53
423.64	1039.51
423.848	1236.12
424.056	1051.8
424.263	1266.84
424.471	1250.46
424.679	1227.93
424.887	1344.66
425.094	1315.99
425.302	1352.85
425.51	1369.24
425.718	1528.98
425.925	1422.48
426.133	1463.44
426.341	1662.1
426.548	1787.02
426.756	1678.48
426.964	1737.87
427.171	1811.6
427.379	1922.19
427.586	1860.75
427.794	1860.75
428.001	2022.54
428.209	2065.55
428.417	2192.52
428.624	2184.33
428.832	2258.06
429.039	2210.95
429.247	1991.82
429.454	2434.18
429.662	2524.29
429.869	2469
430.076	2647.17
430.284	2522.24
430.491	2548.87
430.699	2792.58
430.906	2778.24
431.114	2888.83
431.321	3032.19
431.528	2974.85
431.736	3239.03
431.943	3380.34
432.15	3204.22
432.358	3175.55
432.565	3445.88
432.772	3499.13
432.979	3677.3
433.187	3736.69
433.394	3806.32
433.601	3896.43
433.808	4033.65
434.016	3845.23
434.223	4142.19
434.43	4303.98
434.637	4279.4
434.844	4578.4
435.052	4514.92
435.259	4662.37
435.466	4811.87
435.673	4510.82
435.88	5022.81
436.087	5061.73
436.294	5098.59
436.501	5065.82
436.708	5084.25
436.915	5233.75
437.122	5366.87
437.329	5557.33
437.537	5626.96
437.743	5821.52
437.95	5792.85
438.157	6141
438.364	6112.33
438.571	6276.17
438.778	6286.41
438.985	6808.64
439.192	6499.4
439.399	6790.21
439.606	6509.64
439.813	7064.64
440.02	7613.49
440.227	7304.25
440.433	7306.3
440.64	7709.75
440.847	7351.35
441.054	7586.87
441.261	8203.31
441.467	8197.17
441.674	8305.71
441.881	8565.8
442.088	8363.05
442.294	8492.07
442.501	8571.94
442.708	8795.17
442.914	9247.77
443.121	9538.59
443.328	9274.4
443.534	10077.2
443.741	9847.83
443.948	9577.5
444.154	10351.63
444.361	10214.41
444.568	10368.01
444.774	10449.93
444.981	10449.93
445.187	10685.45
445.394	10873.86
445.6	11064.32
445.807	12133.36
446.013	11637.75
446.22	11715.58
446.426	12198.9
446.633	12278.77
446.839	12891.11
447.046	12311.53
447.252	13095.91
447.459	13048.8
447.665	12975.08
447.871	13542.36
448.078	14078.93
448.284	13507.55
448.491	14068.69
448.697	14369.74
448.903	14977.99
449.11	14625.74
449.316	14582.73
449.522	14736.33
449.728	15426.5
449.935	15121.35
450.141	15393.73
450.347	15375.3
450.553	15021
450.76	15375.3
450.966	15807.42
451.172	15831.99
451.378	16096.18
451.584	16038.84
451.791	16352.18
451.997	16212.92
452.203	16481.2
452.409	16423.86
452.615	16489.39
452.821	15760.31
453.027	15569.85
453.233	16257.97
453.44	16014.26
453.646	16182.2
453.852	15948.73
454.058	16528.3
454.264	15948.73
454.47	16219.06
454.676	16083.89
454.882	16153.52
455.088	15197.12
455.294	15203.27
455.5	15432.64
455.705	15563.71
455.911	14988.23
456.117	14887.88
456.323	14556.11
456.529	13751.26
456.735	14330.83
456.941	14140.37
457.147	13808.6
457.352	13546.46
457.558	13204.45
457.764	13343.71
457.97	13071.33
458.176	12766.18
458.381	12889.06
458.587	12379.12
458.793	12270.58
458.999	11496.44
459.204	12311.53
459.41	12176.37
459.616	11256.83
459.821	11160.58
460.027	11250.69
460.233	10912.77
460.438	10368.01
460.644	10714.12
460.85	10155.02
461.055	9999.38
461.261	9802.77
461.466	9118.75
461.672	8885.28
461.878	9640.98
462.083	8819.75
462.289	8889.38
462.494	8604.71
462.7	8420.39
462.905	8156.21
463.111	8266.8
463.316	8338.48
463.522	8115.25
463.727	8135.73
463.932	8197.17
464.138	8043.57
464.343	8133.68
464.549	8088.62
464.754	8082.48
464.959	8131.63
465.165	7955.51
465.37	7427.13
465.575	7357.5
465.781	7787.57
465.986	7633.97
466.191	7416.89
466.397	7382.07
466.602	6908.99
466.807	7365.69
467.012	7117.89
467.218	7273.53
467.423	7183.42
467.628	7134.27
467.833	7650.36
468.038	7377.98
468.244	7138.37
468.449	7337.02
468.654	7142.46
468.859	7058.49
469.064	7130.17
469.269	6779.97
469.474	6698.05
469.679	6990.91
469.885	6749.25
470.09	6990.91
470.295	6700.1
470.5	6452.3
470.705	6511.69
470.91	6550.6
471.115	6476.87
471.32	6435.91
471.525	6501.45
471.73	6440.01
471.935	6405.19
472.139	6122.57
472.344	6313.03
472.549	5952.59
472.754	6118.48
472.959	6014.03
473.164	5895.25
473.369	5854.29
473.574	5962.83
473.778	5794.9
473.983	5786.71
474.188	6061.13
474.393	5508.18
474.598	5835.86
474.802	5467.22
475.007	5493.85
475.212	5721.17
475.417	5317.72
475.621	5344.35
475.826	5323.87
476.031	5321.82
476.235	5117.02
476.44	5272.67
476.645	5133.4
476.849	5200.99
477.054	4947.04
477.259	5106.78
477.463	5071.97
477.668	4920.42
477.872	4922.46
478.077	4818.02
478.282	4811.87
478.486	4717.67
478.691	4559.97
478.895	4719.71
479.1	4770.91
479.304	4600.93
479.509	4373.61
479.713	4545.64
479.918	4459.62
480.122	4318.31
480.326	4531.3
480.531	4465.77
480.735	4398.18
480.94	4324.46
481.144	4514.92
481.348	4402.28
481.553	4289.64
481.757	4232.3
481.961	4519.01
482.166	4455.53
482.37	4461.67
482.574	4295.79
482.778	4324.46
482.983	4400.23
483.187	4201.58
483.391	4269.16
483.595	4275.31
483.8	4185.19
484.004	4357.22
484.208	4351.08
484.412	4400.23
484.616	4416.62
484.821	4185.19
485.025	4326.5
485.229	4449.38
485.433	4170.86
485.637	4265.07
485.841	4306.02
486.045	4291.69
486.249	4164.72
486.453	4213.87
486.657	4312.17
486.861	4258.92
487.065	4365.42
487.269	4265.07
487.473	4162.67
487.677	4473.96
487.881	4363.37
488.085	4340.84
488.289	4355.18
488.493	4222.06
488.697	4293.74
488.901	4412.52
489.105	4369.51
489.309	4301.93
489.512	4375.66
489.716	4328.55
489.92	4422.76
490.124	4385.9
490.328	4488.29
490.531	4310.12
490.735	4516.97
490.939	4424.81
491.143	4314.22
491.346	4373.61
491.55	4535.4
491.754	4488.29
491.958	4531.3
492.161	4619.36
492.365	4619.36
492.569	4580.45
492.772	4562.02
492.976	4586.6
493.18	4592.74
493.383	4652.13
493.587	4666.47
493.79	4766.82
493.994	4756.58
494.197	4715.62
494.401	4848.74
494.605	4627.56
494.808	4916.32
495.012	4869.22
495.215	4877.41
495.419	4813.92
495.622	4953.18
495.825	4965.47
496.029	4961.37
496.232	5170.27
496.436	5010.53
496.639	5260.38
496.843	5241.95
497.046	5250.14
497.249	5368.92
497.453	5287
497.656	5432.41
497.859	5370.97
498.063	5397.59
498.266	5651.54
498.469	5569.62
498.673	5522.52
498.876	5706.84
499.079	5649.49
499.282	5704.79
499.485	6100.05
499.689	6014.03
499.892	6057.04
500.095	6057.04
500.298	6296.65
500.501	6157.39
500.705	6282.31
500.908	6536.26
501.111	6392.91
501.314	6548.55
501.517	6636.61
501.72	6597.7
501.923	6691.91
502.126	6908.99
502.329	6923.33
502.532	6802.5
502.735	6933.57
502.938	7007.3
503.141	7128.13
503.344	7314.49
503.547	7291.96
503.75	7365.69
503.953	7568.44
504.156	7701.56
504.359	7580.73
504.562	7713.84
504.765	7676.98
504.968	7908.4
505.17	7883.83
505.373	7975.98
505.576	8371.24
505.779	8315.95
505.982	8205.36
506.185	8463.4
506.387	8442.92
506.59	8600.62
506.793	8801.32
506.996	8737.83
507.198	8862.76
507.401	8961.06
507.604	9010.21
507.807	9362.46
508.009	9294.88
508.212	9395.23
508.415	9376.8
508.617	9602.07
508.82	9688.09
509.022	9466.91
509.225	9802.77
509.428	9831.44
509.63	10087.44
509.833	9960.47
510.035	10245.13
510.238	10292.24
510.44	10548.23
510.643	10617.86
510.845	10738.69
511.048	10855.43
511.25	10884.1
511.453	10945.54
511.655	11279.36
511.858	11099.14
512.06	11482.11
512.262	11375.61
512.465	11699.19
512.667	11758.58
512.87	11801.59
513.072	12004.34
513.274	11959.28
513.477	12108.79
513.679	12278.77
513.881	12243.95
514.084	12446.7
514.286	12532.72
514.488	12499.95
514.69	12944.36
514.893	12997.6
515.095	13038.56
515.297	13255.65
515.499	13245.41
515.701	13554.65
515.904	13601.76
516.106	13925.33
516.308	13999.06
516.51	14144.47
516.712	14115.8
516.914	14253.01
517.116	14719.95
517.318	14590.92
517.52	14787.53
517.722	14496.72
517.925	15094.72
518.127	15197.12
518.329	15121.35
518.531	15504.32
518.733	15504.32
518.935	15498.17
519.136	15719.35
519.338	15743.93
519.54	16085.94
519.742	16249.78
519.944	16399.28
520.146	16583.6
520.348	16620.46
520.55	16802.73
520.752	16933.8
520.954	17028.01
521.155	16991.14
521.357	17224.61
521.559	17380.26
521.761	17671.07
521.963	17791.9
522.164	17621.92
522.366	18011.03
522.568	18162.58
522.77	18123.67
522.971	18676.62
523.173	18326.42
523.375	18535.31
523.576	18672.53
523.778	18781.07
523.98	19041.16
524.181	19231.62
524.383	19063.69
524.584	19342.21
524.786	19135.37
524.988	19286.92
525.189	19753.85
525.391	19807.1
525.592	19665.79
525.794	20185.97
525.995	19856.25
526.197	19985.27
526.398	20190.07
526.6	20341.62
526.801	20435.83
527.003	20501.36
527.204	20591.47
527.406	20542.32
527.607	20611.95
527.808	20953.96
528.01	20491.12
528.211	20958.06
528.412	21156.71
528.614	20976.49
528.815	21214.05
529.016	21381.99
529.218	21099.37
529.419	21345.12
529.62	21523.3
529.822	21201.77
530.023	21429.09
530.224	21607.26
530.425	21502.82
530.626	21472.1
530.828	21427.04
531.029	21820.25
531.23	21834.59
531.431	21869.4
531.632	21683.04
531.833	22020.95
532.035	21824.35
532.236	22117.21
532.437	21984.09
532.638	22152.02
532.839	21865.31
533.04	22084.44
533.241	21840.73
533.442	22307.67
533.643	22188.89
533.844	22111.07
534.045	22426.45
534.246	22084.44
534.447	22324.05
534.648	22262.61
534.849	22373.21
535.05	22059.87
535.251	22293.33
535.451	22401.88
535.652	22254.42
535.853	22297.43
536.054	22170.46
536.255	22262.61
536.456	22154.07
536.657	22557.52
536.857	22410.07
537.058	22053.72
537.259	22653.78
537.46	22541.14
537.66	22303.57
537.861	22733.65
538.062	22324.05
538.263	22367.06
538.463	22303.57
538.664	22365.01
538.865	22215.51
539.065	22502.23
539.266	22389.59
539.466	22762.32
539.667	22084.44
539.868	22338.39
540.068	22309.72
540.269	22240.09
540.469	22418.26
540.67	22326.1
540.87	22246.23
541.071	22127.45
541.271	22731.6
541.472	22176.6
541.672	22174.55
541.873	22477.65
542.073	22477.65
542.274	22596.43
542.474	22424.4
542.675	22098.78
542.875	22223.7
543.075	22276.95
543.276	22025.05
543.476	22471.51
543.676	22326.1
543.877	22190.94
544.077	22225.75
544.277	22299.48
544.478	22442.84
544.678	22254.42
544.878	22082.39
545.078	22156.12
545.279	22256.47
545.479	22219.61
545.679	22324.05
545.879	22285.14
546.079	22393.68
546.28	22313.81
546.48	21736.29
546.68	22358.87
546.88	22217.56
547.08	22270.81
547.28	22315.86
547.48	21883.74
547.68	22066.01
547.88	22020.95
548.081	22534.99
548.281	22061.91
548.481	21900.12
548.681	22201.18
548.881	22188.89
549.081	22066.01
549.28	21826.4
549.48	22289.24
549.68	22025.05
549.88	22311.77
550.08	21936.99
550.28	22080.35
550.48	21930.84
550.68	22340.44
550.88	22100.83
551.08	22190.94
551.279	22197.08
551.479	21904.22
551.679	22309.72
551.879	22268.76
552.079	22164.31
552.278	22207.32
552.478	22338.39
552.678	22115.16
552.878	22156.12
553.077	22063.96
553.277	21857.12
553.477	22154.07
553.676	22076.25
553.876	22049.63
554.076	21992.28
554.275	21850.97
554.475	21519.2
554.674	21910.36
554.874	21879.64
555.074	21678.94
555.273	21789.53
555.473	21850.97
555.672	21603.17
555.872	21771.1
556.071	21957.47
556.271	21949.28
556.47	21617.5
556.67	21381.99
556.869	21474.15
557.068	21887.84
557.268	21609.31
557.467	21713.76
557.667	21734.24
557.866	21519.2
558.065	21674.85
558.265	21158.76
558.464	21238.63
558.663	21615.46
558.863	21248.87
559.062	21480.29
559.261	21205.86
559.461	21463.91
559.66	21214.05
559.859	21181.29
560.058	21052.27
560.258	21341.03
560.457	21080.94
560.656	21345.12
560.855	20966.25
561.054	21199.72
561.253	20798.32
561.453	20978.54
561.652	21093.22
561.851	20876.14
562.05	20763.5
562.249	20546.42
562.448	20913
562.647	20771.69
562.846	20507.51
563.045	20601.71
563.244	20499.31
563.443	20867.95
563.642	20298.61
563.841	20181.88
564.04	20345.72
564.239	20566.9
564.438	20063.1
564.637	20169.59
564.836	20478.83
565.035	20042.62
565.234	20239.22
565.432	19954.55
565.631	19989.37
565.83	20222.84
566.029	19684.22
566.228	19764.09
566.427	20015.99
566.625	19782.52
566.824	19874.68
567.023	19630.98
567.222	19370.88
567.42	19354.5
567.619	19454.85
567.818	19356.55
568.016	19598.21
568.215	19499.91
568.414	19194.76
568.612	19233.67
568.811	19018.63
569.01	19137.41
569.208	19086.22
569.407	19209.09
569.605	18914.19
569.804	19043.21
570.002	18922.38
570.201	19051.4
570.4	18631.57
570.598	18901.9
570.797	18477.97
570.995	18748.3
571.193	18455.44
571.392	18727.82
571.59	18295.7
571.789	18469.78
571.987	18422.67
572.186	18262.93
572.384	18228.12
572.582	18015.13
572.781	18439.06
572.979	17654.69
573.177	18166.68
573.376	18148.25
573.574	17904.54
573.772	18049.94
573.971	17912.73
574.169	17578.91
574.367	17558.43
574.565	17699.74
574.763	17566.62
574.962	17685.4
575.16	17372.07
575.358	17480.61
575.556	17320.87
575.754	17378.21
575.952	17236.9
576.151	17339.3
576.349	17126.31
576.547	17333.15
576.745	17066.92
576.943	17214.37
577.141	16892.84
577.339	17210.28
577.537	17089.45
577.735	16976.81
577.933	16741.29
578.131	16931.75
578.329	16726.96
578.527	16894.89
578.725	16708.52
578.923	16675.76
579.121	16513.97
579.319	16671.66
579.516	16585.65
579.714	16645.04
579.912	16395.18
580.11	16264.11
580.308	16102.32
580.506	16135.09
580.704	16036.79
580.901	15930.3
581.099	16087.99
581.297	16069.56
581.495	15752.12
581.692	15993.78
581.89	15936.44
582.088	16073.65
582.285	15743.93
582.483	15825.85
582.681	15866.81
582.878	15850.42
583.076	15741.88
583.274	15643.58
583.471	15426.5
583.669	15633.34
583.866	15414.21
584.064	15461.31
584.262	15291.33
584.459	15414.21
584.657	15135.68
584.854	15373.25
585.052	15066.05
585.249	15057.86
585.447	15059.91
585.644	15041.48
585.841	14930.89
586.039	15184.83
586.236	14642.12
586.434	14949.32
586.631	14726.09
586.828	14953.41
587.026	14775.24
587.223	14816.2
587.42	14762.95
587.618	14857.16
587.815	14689.23
588.012	14492.62
588.21	14646.22
588.407	14578.64
588.604	14246.87
588.801	14332.88
588.999	14343.12
589.196	14250.96
589.393	14212.05
589.59	14296.02
589.787	14072.79
589.984	13990.87
590.182	14019.54
590.379	14128.08
590.576	13855.7
590.773	13935.57
590.97	13872.09
591.167	14025.68
591.364	13609.95
591.561	13747.16
591.758	13755.35
591.955	13734.87
592.152	13929.43
592.349	13677.53
592.546	13620.19
592.743	13732.83
592.94	13286.37
593.137	13667.29
593.334	13519.84
593.531	13366.24
593.727	13382.62
593.924	13153.25
594.121	13329.38
594.318	13378.53
594.515	13138.91
594.712	13032.42
594.908	13175.78
595.105	13018.08
595.302	13267.94
595.499	13016.04
595.696	13073.38
595.892	13059.04
596.089	12999.65
596.286	12936.17
596.482	12612.59
596.679	12897.25
596.876	12753.9
597.072	12743.66
597.269	12712.94
597.466	12573.67
597.662	12508.14
597.859	12643.31
598.055	12473.32
598.252	12547.05
598.448	12327.92
598.645	12456.94
598.841	12315.63
599.038	12270.58
599.234	12418.03
599.431	12141.55
599.627	12262.38
599.824	12211.18
600.02	11887.61
600.217	12186.61
600.413	11850.74
600.609	12020.72
600.806	12065.78
601.002	11947
601.198	11971.57
601.395	11693.05
601.591	12123.12
601.787	11834.36
601.984	11893.75
602.18	11658.23
602.376	11555.83
602.572	11631.61
602.769	11586.55
602.965	11494.4
603.161	11551.74
603.357	11566.07
603.553	11635.71
603.75	11424.76
603.946	11518.97
604.142	11463.68
604.338	11244.54
604.534	11422.72
604.73	11113.47
604.926	11301.89
605.122	11228.16
605.318	11293.69
605.514	11187.2
605.71	10953.73
605.906	10966.02
606.102	11308.03
606.298	10861.57
606.494	11101.19
606.69	11031.55
606.886	10812.42
607.082	10849.29
607.278	10916.87
607.474	10695.69
607.67	10712.07
607.866	10597.38
608.062	10736.65
608.257	10630.15
608.453	10832.9
608.649	10779.65
608.845	10427.4
609.041	10419.21
609.236	10443.79
609.432	10503.18
609.628	10519.56
609.824	10624.01
610.019	10392.59
610.215	10523.66
610.411	10372.11
610.606	10378.25
610.802	10574.86
610.998	10378.25
611.193	10165.26
611.389	10327.05
611.584	10220.56
611.78	10116.11
611.976	10259.47
612.171	10173.46
612.367	10265.61
612.562	10222.61
612.758	10087.44
612.953	10040.34
613.149	10181.65
613.344	9937.94
613.539	10275.85
613.735	10026
613.93	10040.34
614.126	10099.73
614.321	9991.19
614.517	9937.94
614.712	9843.73
614.907	9849.88
615.103	9853.97
615.298	9878.55
615.493	10138.64
615.688	9743.38
615.884	9997.33
616.079	9655.32
616.274	9853.97
616.47	9780.25
616.665	9700.37
616.86	9520.15
617.055	9780.25
617.25	9706.52
617.445	9667.61
617.641	9370.65
617.836	9602.07
618.031	9393.18
618.226	9380.89
618.421	9471
618.616	9432.09
618.811	9229.34
619.006	9491.48
619.201	9397.28
619.396	9337.88
619.591	9253.92
619.786	9286.68
619.981	9194.53
620.176	9157.66
620.371	9139.23
620.566	9088.03
620.761	8946.72
620.956	9024.54
621.151	8866.85
621.346	9073.7
621.541	8633.38
621.735	8893.47
621.93	8750.12
622.125	8772.64
622.32	8463.4
622.515	8670.25
622.709	8813.6
622.904	8541.22
623.099	8563.75
623.294	8573.99
623.488	8463.4
623.683	8449.07
623.878	8231.98
624.072	8406.06
624.267	8356.91
624.462	8295.47
624.656	8107.05
624.851	8197.17
625.046	8207.41
625.24	7906.35
625.435	8035.38
625.629	7924.79
625.824	7937.07
626.018	8064.05
626.213	7674.93
626.407	7957.55
626.602	7767.09
626.796	7683.13
626.991	7715.89
627.185	7521.34
627.38	7711.8
627.574	7466.04
627.768	7410.75
627.963	7427.13
628.157	7597.11
628.352	7392.31
628.546	7281.72
628.74	7318.59
628.935	7050.3
629.129	7279.68
629.323	7074.88
629.517	7119.93
629.712	7083.07
629.906	7074.88
630.1	7007.3
630.294	7203.9
630.489	7099.45
630.683	6931.52
630.877	6800.45
631.071	6798.4
631.265	6896.71
631.459	6667.33
631.653	6777.92
631.848	6706.24
632.042	6661.19
632.236	6642.76
632.43	6589.51
632.624	6595.65
632.818	6749.25
633.012	6653
633.206	6552.65
633.4	6460.49
633.594	6356.04
633.788	6446.15
633.982	6472.78
634.176	6247.5
634.369	6241.36
634.563	6214.73
634.757	6091.85
634.951	6181.96
635.145	6071.37
635.339	6122.57
635.533	6034.51
635.726	6018.13
635.92	5960.78
636.114	5999.7
636.308	6054.99
636.501	5962.83
636.695	5975.12
636.889	5721.17
637.083	5917.78
637.276	5770.32
637.47	5698.64
637.664	5837.91
637.857	5839.95
638.051	5762.13
638.244	5459.03
638.438	5639.25
638.632	5602.39
638.825	5592.15
639.019	5575.77
639.212	5465.18
639.406	5620.82
639.599	5588.05
639.793	5420.12
639.986	5338.2
640.18	5465.18
640.373	5461.08
640.567	5299.29
640.76	5370.97
640.954	5190.75
641.147	5135.45
641.34	4949.09
641.534	5088.35
641.727	5229.66
641.92	5026.91
642.114	5018.72
642.307	4930.66
642.5	5006.43
642.694	4961.37
642.887	4901.98
643.08	5051.49
643.273	4858.98
643.467	4828.26
643.66	4942.94
643.853	4658.28
644.046	4707.43
644.239	4811.87
644.432	4822.11
644.626	4666.47
644.819	4686.95
645.012	4635.75
645.205	4615.27
645.398	4678.76
645.591	4553.83
645.784	4609.12
645.977	4488.29
646.17	4494.44
646.363	4504.68
646.556	4596.84
646.749	4385.9
646.942	4533.35
647.135	4361.32
647.328	4338.79
647.521	4379.75
647.714	4318.31
647.907	4371.56
648.099	4445.29
648.292	4256.87
648.485	4338.79
648.678	4306.02
648.871	4222.06
649.064	4150.38
649.256	4138.09
649.449	4199.53
649.642	4215.91
649.835	4093.04
650.027	4097.13
650.22	3990.64
650.413	4000.88
650.605	4011.12
650.798	3966.06
650.991	4004.97
651.183	4060.27
651.376	3996.78
651.568	3882.1
651.761	3845.23
651.954	3802.22
652.146	3869.81
652.339	3730.55
652.531	3900.53
652.724	3865.71
652.916	3740.79
653.109	3824.75
653.301	3671.15
653.494	3744.88
653.686	3656.82
653.879	3769.46
654.071	3681.39
654.263	3605.62
654.456	3691.63
654.648	3654.77
654.84	3400.82
655.033	3466.36
655.225	3501.17
655.417	3542.13
655.61	3468.41
655.802	3486.84
655.994	3538.04
656.186	3597.43
656.379	3265.66
656.571	3298.42
656.763	3402.87
656.955	3263.61
657.148	3343.48
657.34	3314.81
657.532	3318.9
657.724	3308.66
657.916	3333.24
658.108	3361.91
658.3	3290.23
658.492	3236.99
658.684	3259.51
658.876	3245.18
659.068	3249.27
659.26	3030.14
659.452	3226.75
659.644	3038.33
659.836	2999.42
660.028	3148.92
660.22	3085.44
660.412	2995.32
660.604	2964.61
660.796	3040.38
660.988	3024
661.18	2874.49
661.372	2817.15
661.563	3110.01
661.755	2925.69
661.947	3101.82
662.139	2860.16
662.331	2823.3
662.522	2868.35
662.714	2796.67
662.906	2933.89
663.097	2765.95
663.289	2788.48
663.481	2825.34
663.673	2796.67
663.864	2747.52
664.056	2765.95
664.247	2704.51
664.439	2704.51
664.631	2716.8
664.822	2606.21
665.014	2690.18
665.205	2659.46
665.397	2694.27
665.588	2559.11
665.78	2751.62
665.971	2503.81
666.163	2698.37
666.354	2626.69
666.546	2544.77
666.737	2589.83
666.929	2542.72
667.12	2368.65
667.311	2487.43
667.503	2503.81
667.694	2454.66
667.885	2446.47
668.077	2292.87
668.268	2393.22
668.459	2602.11
668.651	2436.23
668.842	2446.47
669.033	2448.52
669.224	2339.97
669.416	2374.79
669.607	2362.5
669.798	2307.21
669.989	2479.24
670.18	2425.99
670.371	2256.01
670.563	2303.11
670.754	2354.31
670.945	2208.9
671.136	2360.45
671.327	2364.55
671.518	2299.02
671.709	2282.63
671.9	2370.69
672.091	2198.67
672.282	2319.5
672.473	2266.25
672.664	2258.06
672.855	2133.13
673.046	2307.21
673.237	2202.76
673.428	2112.65
673.619	2260.1
673.809	2253.96
674	2053.26
674.191	2083.98
674.382	2006.16
674.573	1989.77
674.764	2165.9
674.954	2204.81
675.145	2098.31
675.336	2081.93
675.527	2059.4
675.717	2086.03
675.908	2061.45
676.099	2155.66
676.289	2157.71
676.48	2110.6
676.671	1957
676.861	1918.09
677.052	2075.79
677.243	1948.81
677.433	1879.18
677.624	2067.6
677.814	1899.66
678.005	2118.79
678.195	1950.86
678.386	1924.24
678.576	1926.29
678.767	1815.69
678.957	1862.8
679.148	1784.98
679.338	1991.82
679.529	1975.44
679.719	1858.7
679.909	1942.67
680.1	1901.71
680.29	1944.72
680.481	1903.76
680.671	1942.67
680.861	1787.02
681.052	1819.79
681.242	1918.09
681.432	1963.15
681.622	1827.98
681.813	1893.52
682.003	1834.13
682.193	1844.37
682.383	1842.32
682.573	1805.46
682.764	1817.74
682.954	1782.93
683.144	1936.53
683.334	1758.35
683.524	1768.59
683.714	1819.79
683.904	1756.3
684.094	1784.98
684.284	1852.56
684.474	1680.53
684.664	1838.22
684.854	1868.94
685.044	1776.78
685.234	1807.5
685.424	1758.35
685.614	1795.22
685.804	1756.3
685.994	1830.03
686.184	1748.11
686.374	1696.91
686.564	1660.05
686.753	1752.21
686.943	1735.82
687.133	1764.5
687.323	1627.28
687.513	1809.55
687.702	1746.06
687.892	1690.77
688.082	1584.27
688.272	1692.82
688.461	1627.28
688.651	1731.73
688.841	1631.38
689.03	1604.75
689.22	1621.14
689.41	1660.05
689.599	1565.84
689.789	1664.15
689.979	1674.39
690.168	1619.09
690.358	1635.47
690.547	1608.85
690.737	1686.67
690.926	1623.19
691.116	1598.61
691.305	1666.19
691.495	1535.12
691.684	1545.36
691.874	1574.03
692.063	1606.8
692.252	1619.09
692.442	1479.83
692.631	1537.17
692.82	1477.78
693.01	1547.41
693.199	1528.98
693.388	1576.08
693.578	1496.21
693.767	1541.27
693.956	1551.51
694.146	1545.36
694.335	1467.54
694.524	1442.96
694.713	1598.61
694.902	1496.21
695.092	1569.94
695.281	1545.36
695.47	1477.78
695.659	1578.13
695.848	1479.83
696.037	1473.68
696.226	1520.79
696.415	1596.56
696.604	1393.81
696.793	1471.64
696.982	1385.62
697.171	1555.6
697.36	1494.16
697.549	1531.03
697.738	1402.01
697.927	1422.48
698.116	1512.6
698.305	1537.17
698.494	1514.64
698.683	1479.83
698.872	1475.73
699.061	1508.5
699.25	1471.64
699.438	1504.4
699.627	1488.02
699.816	1531.03
700.005	1488.02
700.193	1447.06
700.382	1461.4
700.571	1363.09
700.76	1547.41
700.948	1416.34
701.137	1420.44
701.326	1541.27
701.514	1399.96
701.703	1399.96
701.892	1496.21
702.08	1528.98
702.269	1496.21
702.457	1504.4
702.646	1475.73
702.834	1445.01
703.023	1447.06
703.212	1430.68
703.4	1490.07
703.589	1473.68
703.777	1422.48
703.965	1479.83
704.154	1492.12
704.342	1500.31
704.531	1449.11
704.719	1393.81
704.907	1520.79
705.096	1469.59
705.284	1399.96
705.472	1578.13
705.661	1526.93
705.849	1506.45
706.037	1469.59
706.226	1496.21
706.414	1528.98
706.602	1473.68
706.79	1494.16
706.979	1602.71
707.167	1504.4
707.355	1457.3
707.543	1457.3
707.731	1524.88
707.919	1377.43
708.107	1512.6
708.296	1404.05
708.484	1412.25
708.672	1541.27
708.86	1406.1
709.048	1453.2
709.236	1483.92
709.424	1571.99
709.612	1524.88
709.8	1498.26
709.988	1481.88
710.176	1512.6
710.364	1510.55
710.551	1574.03
710.739	1402.01
710.927	1520.79
711.115	1471.64
711.303	1473.68
711.491	1514.64
711.679	1522.84
711.866	1522.84
712.054	1559.7
712.242	1416.34
712.43	1541.27
712.617	1514.64
712.805	1502.36
712.993	1528.98
713.181	1453.2
713.368	1488.02
713.556	1582.23
713.744	1500.31
713.931	1621.14
714.119	1533.08
714.306	1561.75
714.494	1399.96
714.682	1580.18
714.869	1488.02
715.057	1569.94
715.244	1430.68
715.432	1408.15
715.619	1580.18
715.807	1481.88
715.994	1580.18
716.182	1528.98
716.369	1584.27
716.556	1533.08
716.744	1516.69
716.931	1516.69
717.119	1393.81
717.306	1537.17
717.493	1406.1
717.681	1588.37
717.868	1574.03
718.055	1574.03
718.242	1531.03
718.43	1537.17
718.617	1557.65
718.804	1565.84
718.991	1522.84
719.179	1467.54
719.366	1528.98
719.553	1506.45
719.74	1561.75
719.927	1584.27
720.114	1502.36
720.301	1524.88
720.488	1479.83
720.676	1553.55
720.863	1547.41
721.05	1537.17
721.237	1588.37
721.424	1475.73
721.611	1678.48
721.798	1410.2
721.985	1481.88
722.172	1522.84
722.358	1539.22
722.545	1596.56
722.732	1492.12
722.919	1496.21
723.106	1598.61
723.293	1623.19
723.48	1574.03
723.667	1561.75
723.853	1481.88
724.04	1502.36
724.227	1402.01
724.414	1563.79
724.6	1479.83
724.787	1553.55
724.974	1578.13
725.161	1459.35
725.347	1447.06
725.534	1502.36
725.72	1559.7
725.907	1557.65
726.094	1537.17
726.28	1457.3
726.467	1522.84
726.653	1533.08
726.84	1520.79
727.027	1541.27
727.213	1500.31
727.4	1537.17
727.586	1512.6
727.773	1389.72
727.959	1590.42
728.145	1477.78
728.332	1469.59
728.518	1514.64
728.705	1524.88
728.891	1473.68
729.077	1619.09
729.264	1465.49
729.45	1514.64
729.636	1504.4
729.823	1449.11
730.009	1526.93
730.195	1488.02
730.382	1571.99
730.568	1445.01
730.754	1451.16
730.94	1465.49
731.126	1569.94
731.313	1578.13
731.499	1410.2
731.685	1522.84
731.871	1508.5
732.057	1457.3
732.243	1561.75
732.429	1481.88
732.615	1559.7
732.801	1541.27
732.987	1375.38
733.173	1496.21
733.359	1455.25
733.545	1531.03
733.731	1541.27
733.917	1537.17
734.103	1430.68
734.289	1488.02
734.475	1453.2
734.661	1481.88
734.847	1412.25
735.033	1402.01
735.219	1502.36
735.404	1504.4
735.59	1451.16
735.776	1422.48
735.962	1537.17
736.148	1494.16
736.333	1514.64
736.519	1559.7
736.705	1418.39
736.89	1393.81
737.076	1488.02
737.262	1442.96
737.447	1504.4
737.633	1471.64
737.819	1477.78
738.004	1430.68
738.19	1557.65
738.375	1449.11
738.561	1520.79
738.747	1494.16
738.932	1367.19
739.118	1492.12
739.303	1395.86
739.489	1479.83
739.674	1420.44
739.859	1524.88
740.045	1414.29
740.23	1399.96
740.416	1365.14
740.601	1475.73
740.786	1412.25
740.972	1377.43
741.157	1459.35
741.342	1395.86
741.528	1416.34
741.713	1342.61
741.898	1381.53
742.084	1424.53
742.269	1287.32
742.454	1346.71
742.639	1500.31
742.824	1330.33
743.01	1383.57
743.195	1414.29
743.38	1334.42
743.565	1402.01
743.75	1328.28
743.935	1354.9
744.12	1393.81
744.305	1277.08
744.49	1275.03
744.675	1297.56
744.86	1332.37
745.045	1334.42
745.23	1242.26
745.415	1307.8
745.6	1315.99
745.785	1272.98
745.97	1252.5
746.155	1205.4
746.34	1318.04
746.525	1160.34
746.71	1334.42
746.895	1146.01
747.079	1182.87
747.264	1178.78
747.449	1150.11
747.634	1168.54
747.819	1152.15
748.003	1184.92
748.188	1139.87
748.373	1193.11
748.557	1189.02
748.742	1086.62
748.927	1170.58
749.111	1186.97
749.296	1074.33
749.481	1127.58
749.665	1150.11
749.85	1064.09
750.034	1170.58
750.219	1080.47
750.404	1234.07
750.588	990.36
750.773	1039.51
750.957	1127.58
751.141	1049.75
751.326	1092.76
751.51	1117.34
751.695	1045.66
751.879	1051.8
752.064	1021.08
752.248	1059.99
752.432	1002.65
752.617	1014.94
752.801	1072.28
752.985	1041.56
753.17	1094.81
753.354	1023.13
753.538	953.5
753.722	1002.65
753.907	945.31
754.091	922.78
754.275	1002.65
754.459	1002.65
754.643	961.69
754.828	890.01
755.012	933.02
755.196	816.29
755.38	890.01
755.564	898.2
755.748	1000.6
755.932	847.01
756.116	949.4
756.3	865.44
756.484	875.68
756.668	906.4
756.852	828.57
757.036	867.49
757.22	853.15
757.404	906.4
757.588	834.72
757.772	959.64
757.956	875.68
758.14	892.06
758.323	773.28
758.507	857.25
758.691	894.11
758.875	875.68
759.059	791.71
759.242	728.22
759.426	801.95
759.61	836.77
759.794	881.82
759.977	834.72
760.161	779.42
760.345	765.09
760.528	808.09
760.712	834.72
760.895	758.94
761.079	734.37
761.263	781.47
761.446	740.51
761.63	801.95
761.813	693.41
761.997	713.89
762.18	742.56
762.364	777.37
762.547	691.36
762.731	668.83
762.914	752.8
763.098	744.61
763.281	683.17
763.464	752.8
763.648	711.84
763.831	705.7
764.015	701.6
764.198	734.37
764.381	668.83
764.564	636.06
764.748	715.94
764.931	619.68
765.114	629.92
765.297	754.85
765.481	728.22
765.664	660.64
765.847	570.53
766.03	724.13
766.213	695.46
766.397	660.64
766.58	623.78
766.763	623.78
766.946	709.79
767.129	703.65
767.312	705.7
767.495	615.59
767.678	670.88
767.861	726.18
768.044	701.6
768.227	601.25
768.41	662.69
768.593	656.54
768.776	582.82
768.959	613.54
769.142	627.87
769.324	666.78
769.507	578.72
769.69	578.72
769.873	609.44
770.056	656.54
770.239	601.25
770.421	644.26
770.604	689.31
770.787	550.05
770.97	597.15
771.152	627.87
771.335	644.26
771.518	568.48
771.7	679.07
771.883	611.49
772.066	609.44
772.248	576.67
772.431	711.84
772.613	582.82
772.796	570.53
772.978	566.43
773.161	724.13
773.343	560.29
773.526	560.29
773.708	541.86
773.891	408.74
774.073	548
774.256	578.72
774.438	564.39
774.621	570.53
774.803	472.23
774.985	529.57
775.168	580.77
775.35	435.36
775.532	543.91
775.715	455.84
775.897	572.58
776.079	455.84
776.261	578.72
776.444	502.95
776.626	496.8
776.808	533.67
776.99	472.23
777.173	500.9
777.355	445.6
777.537	455.84
777.719	435.36
777.901	466.08
778.083	517.28
778.265	435.36
778.447	480.42
778.629	554.15
778.811	361.64
778.993	476.32
779.175	474.28
779.357	480.42
779.539	511.14
779.721	441.51
779.903	404.64
780.085	359.59
780.267	423.08
780.449	525.47
780.631	474.28
780.812	423.08
780.994	320.68
781.176	421.03
781.358	394.4
781.54	326.82
781.721	421.03
781.903	396.45
782.085	443.56
782.267	345.25
782.448	330.92
782.63	380.07
782.812	369.83
782.993	337.06
783.175	414.88
783.357	378.02
783.538	445.6
783.72	421.03
783.901	373.92
784.083	408.74
784.264	402.6
784.446	298.15
784.627	398.5
784.809	345.25
784.99	298.15
785.172	341.16
785.353	345.25
785.535	316.58
785.716	275.62
785.897	298.15
786.079	400.55
786.26	400.55
786.441	304.29
786.623	267.43
786.804	277.67
786.985	304.29
787.167	261.29
787.348	275.62
787.529	363.69
787.71	308.39
787.891	349.35
788.073	283.81
788.254	222.38
788.435	310.44
788.616	332.97
788.797	281.77
788.978	279.72
789.159	289.96
789.34	304.29
789.522	210.09
789.703	275.62
789.884	232.62
790.065	345.25
790.246	277.67
790.427	253.09
790.607	236.71
790.788	257.19
790.969	226.47
791.15	292.01
791.331	228.52
791.512	251.05
791.693	257.19
791.874	292.01
792.054	277.67
792.235	308.39
792.416	191.66
792.597	255.14
792.778	156.84
792.958	292.01
793.139	205.99
793.32	265.38
793.5	246.95
793.681	271.53
793.862	275.62
794.042	220.33
794.223	169.13
794.404	191.66
794.584	130.22
794.765	216.23
794.945	249
795.126	298.15
795.306	249
795.487	275.62
795.667	210.09
795.848	224.42
796.028	251.05
796.209	267.43
796.389	197.8
796.57	263.33
796.75	175.27
796.93	220.33
797.111	162.98
797.291	242.85
797.471	177.32
797.652	236.71
797.832	158.89
798.012	212.14
798.192	189.61
798.373	179.37
798.553	218.28
798.733	181.42
798.913	185.51
799.093	103.59
799.274	169.13
799.454	165.03
799.634	236.71
799.814	167.08
799.994	251.05
800.174	175.27
800.354	167.08
800.534	259.24
800.714	203.94
800.894	160.94
801.074	99.5
801.254	169.13
801.434	175.27
801.614	257.19
801.794	113.83
801.974	668.83
802.154	132.26
802.334	195.75
802.514	165.03
802.693	97.45
802.873	107.69
803.053	232.62
803.233	214.18
803.413	197.8
803.592	218.28
803.772	115.88
803.952	113.83
804.131	177.32
804.311	169.13
804.491	173.22
804.67	144.55
804.85	136.36
805.03	130.22
805.209	199.85
805.389	134.31
805.568	158.89
805.748	181.42
805.928	150.7
806.107	124.07
806.287	156.84
806.466	173.22
806.646	105.64
806.825	60.59
807.004	193.7
807.184	58.54
807.363	111.78
807.543	220.33
807.722	142.5
807.901	105.64
808.081	148.65
808.26	68.78
808.439	175.27
808.619	130.22
808.798	191.66
808.977	113.83
809.156	208.04
809.336	169.13
809.515	97.45
809.694	60.59
809.873	150.7
810.052	146.6
810.231	203.94
810.411	148.65
810.59	173.22
810.769	119.98
810.948	148.65
811.127	136.36
811.306	68.78
811.485	185.51
811.664	109.74
811.843	148.65
812.022	97.45
812.201	177.32
812.38	48.3
812.559	132.26
812.737	128.17
812.916	115.88
813.095	91.31
813.274	115.88
813.453	122.02
813.632	62.63
813.811	81.07
813.989	89.26
814.168	115.88
814.347	115.88
814.526	54.44
814.704	117.93
814.883	128.17
815.062	89.26
815.24	124.07
815.419	171.18
815.598	72.87
815.776	25.77
815.955	21.67
816.133	115.88
816.312	138.41
816.49	115.88
816.669	79.02
816.847	103.59
817.026	111.78
817.204	103.59
817.383	189.61
817.561	64.68
817.74	91.31
817.918	101.55
818.097	62.63
818.275	128.17
818.453	128.17
818.632	95.4
818.81	107.69
818.988	46.25
819.167	107.69
819.345	79.02
819.523	9.39
819.701	40.11
819.879	72.87
820.058	195.75
820.236	142.5
820.414	158.89
820.592	-15.19
820.77	128.17
820.948	29.87
821.127	64.68
821.305	66.73
821.483	36.01
821.661	21.67
821.839	103.59
822.017	58.54
822.195	70.83
822.373	54.44
822.551	9.39
822.729	7.34
822.907	126.12
823.085	95.4
823.262	95.4
823.44	-9.05
823.618	58.54
823.796	99.5
823.974	13.48
824.152	70.83
824.329	36.01
824.507	68.78
824.685	27.82
824.863	40.11
825.04	50.35
825.218	36.01
825.396	54.44
825.574	48.3
825.751	56.49
825.929	66.73
826.107	17.58
826.284	48.3
826.462	111.78
826.639	87.21
826.817	103.59
826.994	9.39
827.172	107.69
827.349	146.6
827.527	33.96
827.704	101.55
827.882	79.02
828.059	97.45
828.237	11.43
828.414	72.87
828.591	31.91
828.769	95.4
828.946	79.02
829.124	107.69
829.301	91.31
829.478	72.87
829.655	117.93
829.833	132.26
830.01	-13.14
830.187	21.67
830.364	64.68
830.542	62.63
830.719	74.92
830.896	44.2
831.073	109.74
831.25	115.88
831.427	58.54
831.604	29.87
831.782	29.87
831.959	36.01
832.136	72.87
832.313	115.88
832.49	-0.85
832.667	13.48
832.844	-27.48
833.021	72.87
833.198	46.25
833.374	33.96
833.551	46.25
833.728	60.59
833.905	107.69
834.082	36.01
834.259	33.96
834.436	230.57
834.612	15.53
834.789	79.02
834.966	36.01
835.143	40.11
835.319	48.3
835.496	46.25
835.673	95.4
835.85	-13.14
836.026	-13.14
836.203	70.83
836.38	76.97
836.556	81.07
836.733	58.54
836.909	111.78
837.086	70.83
837.262	-11.09
837.439	23.72
837.616	46.25
837.792	5.29
837.968	25.77
838.145	5.29
838.321	68.78
838.498	23.72
838.674	5.29
838.851	25.77
839.027	7.34
839.203	19.63
839.38	38.06
839.556	64.68
839.732	97.45
839.909	44.2
840.085	105.64
840.261	7.34
840.437	50.35
840.614	13.48
840.79	29.87
840.966	21.67
841.142	31.91
841.318	74.92
841.494	91.31
841.671	74.92
841.847	62.63
842.023	-47.96
842.199	66.73
842.375	99.5
842.551	23.72
842.727	31.91
842.903	70.83
843.079	15.53
843.255	44.2
843.431	36.01
843.607	27.82
843.783	-2.9
843.959	62.63
844.134	7.34
844.31	113.83
844.486	68.78
844.662	27.82
844.838	40.11
845.013	66.73
845.189	54.44
845.365	62.63
845.541	62.63
845.716	38.06
845.892	52.39
846.068	76.97
846.244	17.58
846.419	19.63
846.595	33.96
846.77	15.53
846.946	-4.95
847.122	38.06
847.297	-7
847.473	107.69
847.648	13.48
847.824	128.17
847.999	50.35
848.175	38.06
848.35	-4.95
848.526	36.01
848.701	72.87
848.876	81.07
849.052	13.48
849.227	21.67
849.403	54.44
849.578	48.3
849.753	23.72
849.929	-25.43
850.104	87.21
850.279	15.53
850.454	72.87
850.63	7.34
850.805	42.15
850.98	44.2
851.155	99.5
851.33	-23.38
851.505	15.53
851.681	56.49
851.856	11.43
852.031	54.44
852.206	7.34
852.381	27.82
852.556	1.19
852.731	48.3
852.906	101.55
853.081	29.87
853.256	1.19
853.431	60.59
853.606	85.16
853.781	81.07
853.956	44.2
854.131	-41.81
854.305	27.82
854.48	7.34
854.655	-11.09
854.83	66.73
855.005	58.54
855.18	9.39
855.354	7.34
855.529	17.58
855.704	50.35
855.879	46.25
856.053	46.25
856.228	21.67
856.403	-2.9
856.577	-0.85
856.752	-27.48
856.926	52.39
857.101	15.53
857.276	1.19
857.45	38.06
857.625	119.98
857.799	38.06
857.974	72.87
858.148	-25.43
858.323	-7
858.497	-35.67
858.672	58.54
858.846	21.67
859.02	-11.09
859.195	21.67
859.369	-35.67
859.543	46.25
859.718	50.35
859.892	81.07
860.066	29.87
860.241	-15.19
860.415	15.53
860.589	56.49
860.763	-17.24
860.938	103.59
861.112	111.78
861.286	-2.9
861.46	21.67
861.634	17.58
861.808	76.97
861.982	5.29
862.157	-58.2
862.331	23.72
862.505	-15.19
862.679	-27.48
862.853	-7
863.027	29.87
863.201	-0.85
863.375	21.67
863.549	25.77
863.722	-15.19
863.896	54.44
864.07	50.35
864.244	-9.05
864.418	-2.9
864.592	-33.62
864.766	-2.9
864.939	52.39
865.113	38.06
865.287	40.11
865.461	27.82
865.634	13.48
865.808	13.48
865.982	-9.05
866.156	27.82
866.329	7.34
866.503	40.11
866.676	76.97
866.85	9.39
867.024	-66.39
867.197	42.15
867.371	21.67
867.544	36.01
867.718	-52.05
867.891	70.83
868.065	29.87
868.238	-2.9
868.412	38.06
868.585	11.43
868.759	62.63
868.932	-0.85
869.105	-37.72
869.279	-7
869.452	21.67
869.625	29.87
869.799	-11.09
869.972	-15.19
870.145	-19.29
870.319	-35.67
870.492	-7
870.665	-93.01
870.838	-64.34
871.011	-39.76
871.185	-45.91
871.358	-37.72
871.531	21.67
871.704	-7
871.877	-31.57
872.05	-15.19
872.223	3.24
872.396	62.63
872.569	-11.09
872.742	-58.2
872.915	58.54
873.088	-13.14
873.261	5.29
873.434	-70.48
873.607	-58.2
873.78	48.3
873.953	27.82
874.126	13.48
874.299	15.53
874.471	19.63
874.644	1.19
874.817	46.25
874.99	-0.85
875.163	-39.76
875.335	95.4
875.508	5.29
875.681	15.53
875.853	7.34
876.026	-27.48
876.199	7.34
876.371	-19.29
876.544	38.06
876.717	36.01
876.889	-11.09
877.062	9.39
877.234	-19.29
877.407	29.87
877.579	40.11
877.752	-29.52
877.924	15.53
878.097	-7
878.269	-90.96
878.442	58.54
878.614	13.48
878.786	56.49
878.959	-39.76
879.131	21.67
879.303	-37.72
879.476	42.15
879.648	5.29
879.82	115.88
879.993	25.77
880.165	38.06
880.337	-70.48
880.509	50.35
880.681	-41.81
880.854	1.19
881.026	97.45
881.198	72.87
881.37	-23.38
881.542	-21.33
881.714	1.19
881.886	5.29
882.058	74.92
882.23	48.3
882.402	-74.58
882.574	111.78
882.746	44.2
882.918	74.92
883.09	13.48
883.262	13.48
883.434	-43.86
883.606	5.29
883.778	-54.1
883.95	-11.09
884.122	-9.05
884.293	103.59
884.465	-37.72
884.637	21.67
884.809	52.39
884.98	46.25
885.152	25.77
885.324	62.63
885.496	-15.19
885.667	42.15
885.839	62.63
886.011	21.67
886.182	33.96
886.354	1.19
886.525	27.82
886.697	-0.85
886.869	-41.81
887.04	7.34
887.212	-13.14
887.383	62.63
887.555	54.44
887.726	-9.05
887.897	-19.29
888.069	27.82
888.24	46.25
888.412	72.87
888.583	-58.2
888.754	-9.05
888.926	-35.67
889.097	-13.14
889.268	-90.96
889.44	15.53
889.611	3.24
889.782	44.2
889.953	-25.43
890.125	-27.48
890.296	19.63
890.467	-29.52
890.638	3.24
890.809	5.29
890.98	-50
891.151	70.83
891.323	-2.9
891.494	27.82
891.665	13.48
891.836	50.35
892.007	15.53
892.178	-33.62
892.349	-19.29
892.52	-41.81
892.691	9.39
892.862	25.77
893.032	33.96
893.203	48.3
893.374	29.87
893.545	5.29
893.716	5.29
893.887	81.07
894.057	-2.9
894.228	83.11
894.399	-76.63
894.57	48.3
894.74	46.25
894.911	7.34
895.082	-11.09
895.253	17.58
895.423	64.68
895.594	-11.09
895.764	1.19
895.935	-2.9
896.106	-23.38
896.276	-0.85
896.447	-4.95
896.617	-4.95
896.788	-2.9
896.958	38.06
897.129	-2.9
897.299	-35.67
897.47	-0.85
897.64	-0.85
897.81	17.58
897.981	27.82
898.151	-35.67
898.322	7.34
898.492	17.58
898.662	-56.15
898.832	70.83
899.003	40.11
899.173	-60.24
899.343	15.53
899.513	5.29
