Data from USB4F104151__91__13-13-12-068.txt Node

Date: Fri Mar 14 13:13:12 EDT 2025
User: louis
Spectrometer: USB4F10415
Trigger mode: 4
Integration Time (sec): 2.000000E-2
Scans to average: 1
Electric dark correction enabled: true
Nonlinearity correction enabled: false
Boxcar width: 0
XAxis mode: Wavelengths
Number of Pixels in Spectrum: 3648
>>>>>Begin Spectral Data<<<<<
178.204	-112.47
178.424	-112.47
178.644	-112.47
178.864	-91.99
179.084	-91.99
179.304	-16.21
179.524	34.99
179.744	32.94
179.964	-18.26
180.184	-42.84
180.404	4.27
180.624	-8.02
180.844	20.65
181.064	-5.97
181.283	-5.97
181.503	0.17
181.723	4.27
181.943	-106.32
182.163	51.37
182.383	37.03
182.602	61.61
182.822	51.37
183.042	41.13
183.262	-28.5
183.482	65.71
183.701	14.51
183.921	-36.69
184.141	104.62
184.361	123.05
184.58	88.23
184.8	22.7
185.02	43.18
185.239	30.89
185.459	-12.12
185.679	47.27
185.898	-32.6
186.118	-26.45
186.338	39.08
186.557	59.56
186.777	61.61
186.997	69.8
187.216	49.32
187.436	12.46
187.655	82.09
187.875	-26.45
188.095	73.9
188.314	-16.21
188.534	108.71
188.753	69.8
188.973	-10.07
189.192	82.09
189.412	16.55
189.631	65.71
189.851	67.75
190.07	-8.02
190.29	-36.69
190.509	59.56
190.729	14.51
190.948	75.95
191.168	84.14
191.387	28.84
191.607	75.95
191.826	47.27
192.045	65.71
192.265	47.27
192.484	-32.6
192.704	-10.07
192.923	-24.4
193.142	82.09
193.362	20.65
193.581	90.28
193.8	32.94
194.02	47.27
194.239	47.27
194.458	61.61
194.678	8.36
194.897	18.6
195.116	22.7
195.335	100.52
195.555	-8.02
195.774	71.85
195.993	39.08
196.212	18.6
196.432	32.94
196.651	-20.31
196.87	-5.97
197.089	26.79
197.308	32.94
197.528	51.37
197.747	37.03
197.966	28.84
198.185	16.55
198.404	34.99
198.623	39.08
198.842	41.13
199.062	88.23
199.281	55.47
199.5	51.37
199.719	49.32
199.938	73.9
200.157	43.18
200.376	6.31
200.595	53.42
200.814	84.14
201.033	75.95
201.252	67.75
201.471	-22.36
201.69	104.62
201.909	55.47
202.128	108.71
202.347	98.47
202.566	28.84
202.785	39.08
203.004	-12.12
203.223	16.55
203.442	88.23
203.661	49.32
203.879	-38.74
204.098	88.23
204.317	18.6
204.536	106.67
204.755	-24.4
204.974	34.99
205.193	39.08
205.411	139.43
205.63	86.19
205.849	14.51
206.068	12.46
206.287	10.41
206.505	-24.4
206.724	92.33
206.943	24.75
207.162	-24.4
207.381	41.13
207.599	67.75
207.818	90.28
208.037	28.84
208.255	86.19
208.474	96.43
208.693	63.66
208.911	65.71
209.13	10.41
209.349	77.99
209.567	61.61
209.786	75.95
210.005	32.94
210.223	28.84
210.442	2.22
210.661	0.17
210.879	37.03
211.098	-16.21
211.316	102.57
211.535	61.61
211.753	24.75
211.972	12.46
212.191	92.33
212.409	94.38
212.628	28.84
212.846	-1.88
213.065	100.52
213.283	73.9
213.502	37.03
213.72	67.75
213.938	32.94
214.157	10.41
214.375	67.75
214.594	-8.02
214.812	-18.26
215.031	61.61
215.249	47.27
215.467	129.19
215.686	32.94
215.904	16.55
216.122	-57.17
216.341	30.89
216.559	-3.93
216.778	71.85
216.996	106.67
217.214	-5.97
217.432	28.84
217.651	24.75
217.869	90.28
218.087	-8.02
218.306	94.38
218.524	61.61
218.742	-5.97
218.96	0.17
219.179	34.99
219.397	51.37
219.615	63.66
219.833	65.71
220.051	16.55
220.27	-5.97
220.488	75.95
220.706	57.51
220.924	-38.74
221.142	6.31
221.36	8.36
221.578	24.75
221.796	-18.26
222.015	34.99
222.233	43.18
222.451	18.6
222.669	-24.4
222.887	63.66
223.105	24.75
223.323	59.56
223.541	82.09
223.759	114.86
223.977	20.65
224.195	39.08
224.413	114.86
224.631	96.43
224.849	51.37
225.067	106.67
225.285	-5.97
225.503	61.61
225.721	63.66
225.939	53.42
226.157	28.84
226.375	88.23
226.592	-16.21
226.81	65.71
227.028	45.23
227.246	41.13
227.464	34.99
227.682	39.08
227.9	45.23
228.117	57.51
228.335	67.75
228.553	12.46
228.771	-20.31
228.989	57.51
229.206	71.85
229.424	34.99
229.642	12.46
229.86	41.13
230.077	123.05
230.295	59.56
230.513	32.94
230.731	102.57
230.948	67.75
231.166	61.61
231.384	49.32
231.601	45.23
231.819	34.99
232.037	37.03
232.254	41.13
232.472	16.55
232.689	-16.21
232.907	37.03
233.125	51.37
233.342	41.13
233.56	41.13
233.777	47.27
233.995	-10.07
234.213	37.03
234.43	24.75
234.648	34.99
234.865	24.75
235.083	57.51
235.3	59.56
235.518	41.13
235.735	4.27
235.953	0.17
236.17	30.89
236.388	2.22
236.605	-57.17
236.822	102.57
237.04	32.94
237.257	-24.4
237.475	90.28
237.692	59.56
237.909	45.23
238.127	32.94
238.344	49.32
238.562	63.66
238.779	37.03
238.996	24.75
239.214	37.03
239.431	-18.26
239.648	32.94
239.865	32.94
240.083	10.41
240.3	37.03
240.517	51.37
240.735	100.52
240.952	133.29
241.169	-14.17
241.386	30.89
241.603	84.14
241.821	69.8
242.038	102.57
242.255	82.09
242.472	-46.93
242.689	57.51
242.907	34.99
243.124	86.19
243.341	84.14
243.558	-18.26
243.775	22.7
243.992	32.94
244.209	-8.02
244.426	77.99
244.643	63.66
244.86	43.18
245.078	63.66
245.295	96.43
245.512	49.32
245.729	57.51
245.946	51.37
246.163	75.95
246.38	0.17
246.597	-14.17
246.814	34.99
247.031	24.75
247.248	75.95
247.464	-24.4
247.681	6.31
247.898	14.51
248.115	90.28
248.332	34.99
248.549	77.99
248.766	57.51
248.983	116.9
249.2	14.51
249.417	114.86
249.633	47.27
249.85	92.33
250.067	18.6
250.284	90.28
250.501	24.75
250.717	55.47
250.934	-3.93
251.151	6.31
251.368	-26.45
251.585	94.38
251.801	-8.02
252.018	-28.5
252.235	51.37
252.451	-28.5
252.668	80.04
252.885	24.75
253.102	86.19
253.318	121
253.535	41.13
253.752	59.56
253.968	-3.93
254.185	61.61
254.401	75.95
254.618	26.79
254.835	2.22
255.051	61.61
255.268	39.08
255.484	39.08
255.701	-69.46
255.917	37.03
256.134	16.55
256.351	32.94
256.567	26.79
256.784	65.71
257	75.95
257.217	82.09
257.433	139.43
257.65	39.08
257.866	32.94
258.082	49.32
258.299	82.09
258.515	14.51
258.732	4.27
258.948	4.27
259.165	-12.12
259.381	16.55
259.597	32.94
259.814	34.99
260.03	-22.36
260.246	65.71
260.463	32.94
260.679	116.9
260.895	73.9
261.112	59.56
261.328	-14.17
261.544	-16.21
261.761	-32.6
261.977	77.99
262.193	59.56
262.409	49.32
262.626	-1.88
262.842	-14.17
263.058	-32.6
263.274	71.85
263.49	82.09
263.707	47.27
263.923	73.9
264.139	-20.31
264.355	-34.64
264.571	114.86
264.787	24.75
265.004	16.55
265.22	112.81
265.436	39.08
265.652	61.61
265.868	0.17
266.084	49.32
266.3	16.55
266.516	53.42
266.732	4.27
266.948	39.08
267.164	-20.31
267.38	-8.02
267.596	-24.4
267.812	37.03
268.028	-42.84
268.244	6.31
268.46	51.37
268.676	22.7
268.892	41.13
269.108	73.9
269.324	8.36
269.54	65.71
269.756	59.56
269.972	-34.64
270.188	12.46
270.403	16.55
270.619	-5.97
270.835	57.51
271.051	-16.21
271.267	-77.65
271.483	108.71
271.698	75.95
271.914	90.28
272.13	65.71
272.346	67.75
272.562	75.95
272.777	53.42
272.993	37.03
273.209	4.27
273.425	-51.03
273.64	8.36
273.856	65.71
274.072	-8.02
274.287	47.27
274.503	92.33
274.719	34.99
274.934	2.22
275.15	61.61
275.366	-14.17
275.581	20.65
275.797	77.99
276.012	80.04
276.228	43.18
276.444	-42.84
276.659	24.75
276.875	45.23
277.09	63.66
277.306	-8.02
277.521	41.13
277.737	-1.88
277.952	51.37
278.168	30.89
278.383	65.71
278.599	61.61
278.814	16.55
279.03	37.03
279.245	49.32
279.461	37.03
279.676	84.14
279.892	-1.88
280.107	-16.21
280.322	22.7
280.538	82.09
280.753	41.13
280.969	104.62
281.184	2.22
281.399	-14.17
281.615	86.19
281.83	73.9
282.045	-26.45
282.26	-32.6
282.476	8.36
282.691	-3.93
282.906	92.33
283.122	75.95
283.337	28.84
283.552	49.32
283.767	2.22
283.983	86.19
284.198	39.08
284.413	10.41
284.628	-16.21
284.843	49.32
285.058	34.99
285.274	118.95
285.489	12.46
285.704	24.75
285.919	26.79
286.134	59.56
286.349	75.95
286.564	88.23
286.779	77.99
286.995	94.38
287.21	34.99
287.425	41.13
287.64	-5.97
287.855	82.09
288.07	-3.93
288.285	8.36
288.5	61.61
288.715	65.71
288.93	14.51
289.145	106.67
289.36	80.04
289.575	51.37
289.79	96.43
290.004	84.14
290.219	32.94
290.434	-20.31
290.649	-5.97
290.864	28.84
291.079	47.27
291.294	18.6
291.509	131.24
291.724	94.38
291.938	57.51
292.153	100.52
292.368	80.04
292.583	10.41
292.798	86.19
293.012	77.99
293.227	84.14
293.442	-8.02
293.657	20.65
293.871	67.75
294.086	37.03
294.301	61.61
294.516	-8.02
294.73	84.14
294.945	41.13
295.16	0.17
295.374	39.08
295.589	96.43
295.804	26.79
296.018	10.41
296.233	151.72
296.447	59.56
296.662	-8.02
296.877	16.55
297.091	96.43
297.306	80.04
297.52	92.33
297.735	-10.07
297.949	49.32
298.164	110.76
298.378	-26.45
298.593	-3.93
298.807	69.8
299.022	32.94
299.236	71.85
299.451	59.56
299.665	73.9
299.88	65.71
300.094	73.9
300.309	-16.21
300.523	67.75
300.737	41.13
300.952	-12.12
301.166	121
301.381	24.75
301.595	71.85
301.809	75.95
302.024	24.75
302.238	80.04
302.452	16.55
302.667	32.94
302.881	18.6
303.095	61.61
303.309	24.75
303.524	10.41
303.738	-5.97
303.952	26.79
304.166	-24.4
304.381	57.51
304.595	86.19
304.809	-18.26
305.023	63.66
305.237	32.94
305.452	28.84
305.666	75.95
305.88	34.99
306.094	102.57
306.308	16.55
306.522	61.61
306.736	22.7
306.95	65.71
307.164	22.7
307.379	2.22
307.593	110.76
307.807	63.66
308.021	80.04
308.235	26.79
308.449	0.17
308.663	2.22
308.877	63.66
309.091	14.51
309.305	82.09
309.519	-32.6
309.733	53.42
309.947	41.13
310.161	147.62
310.374	24.75
310.588	110.76
310.802	-34.64
311.016	121
311.23	55.47
311.444	65.71
311.658	47.27
311.872	24.75
312.085	51.37
312.299	98.47
312.513	41.13
312.727	39.08
312.941	8.36
313.154	10.41
313.368	2.22
313.582	41.13
313.796	69.8
314.009	84.14
314.223	82.09
314.437	-3.93
314.651	82.09
314.864	24.75
315.078	-18.26
315.292	43.18
315.505	0.17
315.719	69.8
315.933	63.66
316.146	55.47
316.36	16.55
316.573	47.27
316.787	71.85
317.001	18.6
317.214	-1.88
317.428	59.56
317.641	84.14
317.855	98.47
318.068	-18.26
318.282	75.95
318.495	131.24
318.709	16.55
318.922	16.55
319.136	16.55
319.349	-12.12
319.563	141.48
319.776	108.71
319.99	32.94
320.203	39.08
320.417	37.03
320.63	108.71
320.843	84.14
321.057	100.52
321.27	39.08
321.483	2.22
321.697	45.23
321.91	88.23
322.124	43.18
322.337	65.71
322.55	-12.12
322.763	10.41
322.977	61.61
323.19	26.79
323.403	71.85
323.617	43.18
323.83	108.71
324.043	34.99
324.256	82.09
324.469	53.42
324.683	110.76
324.896	-30.55
325.109	114.86
325.322	8.36
325.535	57.51
325.748	-5.97
325.962	28.84
326.175	10.41
326.388	96.43
326.601	49.32
326.814	59.56
327.027	34.99
327.24	129.19
327.453	-10.07
327.666	37.03
327.879	61.61
328.092	65.71
328.305	-3.93
328.518	67.75
328.731	43.18
328.944	0.17
329.157	24.75
329.37	57.51
329.583	104.62
329.796	75.95
330.009	22.7
330.222	47.27
330.435	16.55
330.648	24.75
330.861	24.75
331.073	-10.07
331.286	49.32
331.499	53.42
331.712	-5.97
331.925	53.42
332.138	92.33
332.35	53.42
332.563	108.71
332.776	39.08
332.989	32.94
333.202	16.55
333.414	102.57
333.627	90.28
333.84	-16.21
334.053	82.09
334.265	37.03
334.478	-24.4
334.691	24.75
334.903	104.62
335.116	6.31
335.329	10.41
335.541	14.51
335.754	55.47
335.966	82.09
336.179	75.95
336.392	65.71
336.604	59.56
336.817	88.23
337.029	-8.02
337.242	8.36
337.454	106.67
337.667	-30.55
337.88	49.32
338.092	67.75
338.305	41.13
338.517	73.9
338.729	37.03
338.942	41.13
339.154	41.13
339.367	-5.97
339.579	90.28
339.792	53.42
340.004	16.55
340.217	10.41
340.429	16.55
340.641	12.46
340.854	-12.12
341.066	106.67
341.278	106.67
341.491	112.81
341.703	30.89
341.915	-30.55
342.128	37.03
342.34	84.14
342.552	47.27
342.764	53.42
342.977	65.71
343.189	41.13
343.401	2.22
343.613	28.84
343.826	30.89
344.038	-16.21
344.25	114.86
344.462	4.27
344.674	57.51
344.886	37.03
345.099	28.84
345.311	49.32
345.523	30.89
345.735	34.99
345.947	8.36
346.159	-16.21
346.371	6.31
346.583	61.61
346.795	94.38
347.007	69.8
347.219	84.14
347.431	55.47
347.643	86.19
347.855	-48.98
348.067	49.32
348.279	26.79
348.491	34.99
348.703	57.51
348.915	12.46
349.127	49.32
349.339	94.38
349.551	82.09
349.763	82.09
349.975	63.66
350.187	59.56
350.399	98.47
350.61	47.27
350.822	88.23
351.034	39.08
351.246	-10.07
351.458	47.27
351.669	69.8
351.881	51.37
352.093	147.62
352.305	71.85
352.517	41.13
352.728	98.47
352.94	10.41
353.152	71.85
353.363	32.94
353.575	16.55
353.787	90.28
353.999	8.36
354.21	127.14
354.422	-14.17
354.633	16.55
354.845	65.71
355.057	98.47
355.268	57.51
355.48	51.37
355.692	26.79
355.903	4.27
356.115	39.08
356.326	-3.93
356.538	131.24
356.749	12.46
356.961	161.96
357.172	2.22
357.384	176.3
357.595	41.13
357.807	102.57
358.018	0.17
358.23	16.55
358.441	47.27
358.653	59.56
358.864	-77.65
359.075	-34.64
359.287	65.71
359.498	110.76
359.709	37.03
359.921	32.94
360.132	24.75
360.344	90.28
360.555	102.57
360.766	8.36
360.977	39.08
361.189	114.86
361.4	53.42
361.611	131.24
361.823	28.84
362.034	73.9
362.245	-5.97
362.456	45.23
362.667	22.7
362.879	55.47
363.09	4.27
363.301	59.56
363.512	88.23
363.723	34.99
363.935	34.99
364.146	157.86
364.357	67.75
364.568	49.32
364.779	65.71
364.99	82.09
365.201	77.99
365.412	67.75
365.623	24.75
365.834	75.95
366.045	43.18
366.256	26.79
366.467	45.23
366.678	2.22
366.889	47.27
367.1	59.56
367.311	49.32
367.522	45.23
367.733	73.9
367.944	41.13
368.155	-46.93
368.366	59.56
368.577	32.94
368.788	57.51
368.999	73.9
369.209	53.42
369.42	77.99
369.631	84.14
369.842	49.32
370.053	18.6
370.264	43.18
370.474	100.52
370.685	67.75
370.896	80.04
371.107	59.56
371.317	51.37
371.528	82.09
371.739	28.84
371.95	73.9
372.16	26.79
372.371	10.41
372.582	65.71
372.792	30.89
373.003	32.94
373.214	137.38
373.424	63.66
373.635	73.9
373.846	69.8
374.056	28.84
374.267	82.09
374.477	43.18
374.688	-16.21
374.898	75.95
375.109	24.75
375.319	37.03
375.53	53.42
375.74	37.03
375.951	22.7
376.161	51.37
376.372	90.28
376.582	43.18
376.793	47.27
377.003	39.08
377.214	98.47
377.424	86.19
377.635	26.79
377.845	37.03
378.055	69.8
378.266	75.95
378.476	37.03
378.686	57.51
378.897	73.9
379.107	2.22
379.317	28.84
379.528	51.37
379.738	32.94
379.948	45.23
380.158	-5.97
380.369	98.47
380.579	121
380.789	108.71
380.999	82.09
381.21	61.61
381.42	55.47
381.63	73.9
381.84	43.18
382.05	61.61
382.261	86.19
382.471	20.65
382.681	0.17
382.891	75.95
383.101	28.84
383.311	59.56
383.521	49.32
383.731	82.09
383.941	73.9
384.151	69.8
384.361	133.29
384.571	28.84
384.781	-44.88
384.991	49.32
385.201	67.75
385.411	-51.03
385.621	34.99
385.831	39.08
386.041	86.19
386.251	2.22
386.461	63.66
386.671	28.84
386.881	-1.88
387.091	34.99
387.301	24.75
387.511	47.27
387.72	106.67
387.93	41.13
388.14	-24.4
388.35	2.22
388.56	139.43
388.769	47.27
388.979	118.95
389.189	57.51
389.399	8.36
389.609	2.22
389.818	14.51
390.028	92.33
390.238	86.19
390.447	4.27
390.657	28.84
390.867	131.24
391.076	43.18
391.286	43.18
391.496	57.51
391.705	57.51
391.915	94.38
392.125	51.37
392.334	106.67
392.544	45.23
392.753	96.43
392.963	45.23
393.172	59.56
393.382	16.55
393.591	18.6
393.801	77.99
394.01	80.04
394.22	102.57
394.429	41.13
394.639	51.37
394.848	104.62
395.058	65.71
395.267	108.71
395.477	18.6
395.686	59.56
395.895	116.9
396.105	118.95
396.314	92.33
396.524	61.61
396.733	116.9
396.942	133.29
397.152	16.55
397.361	129.19
397.57	10.41
397.78	55.47
397.989	94.38
398.198	151.72
398.407	57.51
398.617	157.86
398.826	45.23
399.035	123.05
399.244	118.95
399.453	34.99
399.663	73.9
399.872	94.38
400.081	118.95
400.29	90.28
400.499	-22.36
400.708	86.19
400.917	57.51
401.127	20.65
401.336	94.38
401.545	182.44
401.754	112.81
401.963	188.58
402.172	73.9
402.381	96.43
402.59	129.19
402.799	131.24
403.008	69.8
403.217	88.23
403.426	133.29
403.635	39.08
403.844	67.75
404.053	116.9
404.262	155.82
404.471	123.05
404.68	123.05
404.888	127.14
405.097	114.86
405.306	143.53
405.515	125.1
405.724	98.47
405.933	161.96
406.142	172.2
406.35	131.24
406.559	73.9
406.768	127.14
406.977	247.97
407.185	135.34
407.394	198.82
407.603	245.93
407.812	182.44
408.02	184.49
408.229	151.72
408.438	164.01
408.646	155.82
408.855	180.39
409.064	239.78
409.272	188.58
409.481	213.16
409.69	217.26
409.898	207.02
410.107	276.65
410.315	260.26
410.524	256.17
410.733	243.88
410.941	233.64
411.15	258.21
411.358	295.08
411.567	315.56
411.775	282.79
411.984	288.93
412.192	288.93
412.401	207.02
412.609	336.04
412.818	358.57
413.026	393.38
413.234	397.48
413.443	446.63
413.651	336.04
413.86	358.57
414.068	411.81
414.276	417.96
414.485	467.11
414.693	370.85
414.901	483.49
415.11	401.57
415.318	444.58
415.526	487.59
415.734	503.97
415.943	569.51
416.151	571.55
416.359	561.31
416.567	659.62
416.776	608.42
416.984	702.62
417.192	721.06
417.4	671.9
417.608	645.28
417.817	643.23
418.025	747.68
418.233	845.98
418.441	739.49
418.649	845.98
418.857	770.21
419.065	954.52
419.273	880.8
419.481	938.14
419.689	983.2
419.897	1022.11
420.105	1011.87
420.313	1159.32
420.521	1073.31
420.729	1050.78
420.937	1142.94
421.145	1112.22
421.353	1280.15
421.561	1280.15
421.769	1286.3
421.977	1386.65
422.185	1376.41
422.393	1405.08
422.601	1484.95
422.809	1558.67
423.017	1556.63
423.224	1581.2
423.432	1728.66
423.64	1652.88
423.848	1949.84
424.056	1851.53
424.263	1900.69
424.471	1915.02
424.679	1927.31
424.887	2097.29
425.094	2097.29
425.302	2195.59
425.51	2164.87
425.718	2318.47
425.925	2304.14
426.133	2474.12
426.341	2502.79
426.548	2666.63
426.756	2586.76
426.964	2670.72
427.171	2797.7
427.379	2924.67
427.586	2900.09
427.794	2934.91
428.001	3170.43
428.209	3311.74
428.417	3262.58
428.624	3522.68
428.832	3498.1
429.039	3463.29
429.247	3348.6
429.454	3817.58
429.662	4040.81
429.869	3932.27
430.076	4098.16
430.284	3913.84
430.491	4143.21
430.699	4198.51
430.906	4298.86
431.114	4474.98
431.321	4673.64
431.528	4671.59
431.736	4976.73
431.943	5150.81
432.15	5075.04
432.358	5027.93
432.565	5314.65
432.772	5398.62
432.979	5677.14
433.187	5732.44
433.394	5802.07
433.601	6318.15
433.808	6258.76
434.016	6035.53
434.223	6361.16
434.43	6883.39
434.637	6729.8
434.844	6934.59
435.052	7223.36
435.259	7077.95
435.466	7254.08
435.673	7192.64
435.88	7618.61
436.087	8015.92
436.294	7938.1
436.501	7825.46
436.708	8083.5
436.915	8271.92
437.122	8824.87
437.329	8757.29
437.537	8884.26
437.743	8892.45
437.95	9050.14
438.157	9553.94
438.364	9701.4
438.571	9859.09
438.778	10084.37
438.985	10674.18
439.192	10311.69
439.399	10635.27
439.606	10395.66
439.813	11198.46
440.02	11749.37
440.227	11440.12
440.433	11390.97
440.64	11775.99
440.847	11732.98
441.054	11878.39
441.261	12795.88
441.467	12609.51
441.674	12861.41
441.881	13256.67
442.088	13318.11
442.294	13324.26
442.501	13518.81
442.708	13739.99
442.914	14440.4
443.121	14938.05
443.328	14544.84
443.534	15626.17
443.741	15058.88
443.948	14829.51
444.154	16084.92
444.361	15976.37
444.568	16109.49
444.774	16295.86
444.981	16265.14
445.187	16795.56
445.394	17444.77
445.6	17506.21
445.807	19144.58
446.013	18311.06
446.22	18442.13
446.426	18988.94
446.633	19472.26
446.839	20215.67
447.046	19224.45
447.252	20203.38
447.459	20477.81
447.665	20279.16
447.871	21323.62
448.078	22359.89
448.284	21190.5
448.491	21583.71
448.697	22603.6
448.903	23150.41
449.11	23082.83
449.316	22740.82
449.522	23058.25
449.728	23906.11
449.935	23869.25
450.141	23828.29
450.347	24489.78
450.553	23715.65
450.76	23955.26
450.966	24942.38
451.172	24350.52
451.378	25190.19
451.584	24715.06
451.791	25128.75
451.997	25417.51
452.203	25784.1
452.409	25640.74
452.615	25591.59
452.821	24868.66
453.027	24547.12
453.233	25515.81
453.44	24747.83
453.646	25409.32
453.852	25364.26
454.058	25872.16
454.264	24776.5
454.47	25351.98
454.676	24928.05
454.882	25851.68
455.088	23488.32
455.294	23906.11
455.5	24164.15
455.705	24323.9
455.911	23650.11
456.117	22890.32
456.323	22994.76
456.529	21596
456.735	22527.83
456.941	22087.51
457.147	21600.1
457.352	21084.01
457.558	20897.64
457.764	20729.71
457.97	20260.73
458.176	20017.02
458.381	19967.87
458.587	18884.49
458.793	19064.71
458.999	18034.58
459.204	19365.76
459.41	18726.8
459.616	17641.37
459.821	17704.86
460.027	17639.33
460.233	17057.7
460.438	16345.01
460.644	16545.71
460.85	15839.16
461.055	15380.42
461.261	15454.14
461.466	14512.08
461.672	13895.64
461.878	15026.12
462.083	13858.78
462.289	13533.15
462.494	13459.42
462.7	12984.29
462.905	12718.06
463.111	13068.26
463.316	13363.17
463.522	12599.27
463.727	12939.24
463.932	12853.22
464.138	12605.42
464.343	12734.44
464.549	12169.2
464.754	12711.91
464.959	12599.27
465.165	12517.36
465.37	11829.24
465.575	11458.56
465.781	12158.96
465.986	12111.86
466.191	11642.87
466.397	11651.06
466.602	11005.95
466.807	11290.62
467.012	11438.08
467.218	11489.28
467.423	11163.65
467.628	11241.47
467.833	11618.3
468.038	11268.09
468.244	10975.24
468.449	11374.59
468.654	11333.63
468.859	11014.15
469.064	10858.5
469.269	10592.27
469.474	10526.73
469.679	10860.55
469.885	10305.55
470.09	10549.26
470.295	10436.62
470.5	10207.25
470.705	10424.33
470.91	10004.5
471.115	9979.92
471.32	10221.58
471.525	10006.55
471.73	9936.92
471.935	9713.69
472.139	9375.77
472.344	9574.42
472.549	9584.66
472.754	9592.86
472.959	9267.23
473.164	9064.48
473.369	9017.38
473.574	9355.29
473.778	9240.61
473.983	9054.24
474.188	8966.18
474.393	8749.09
474.598	8798.24
474.802	8466.47
475.007	8572.97
475.212	8734.76
475.417	8204.33
475.621	8327.21
475.826	8280.11
476.031	8206.38
476.235	7979.06
476.44	8157.23
476.645	7899.19
476.849	7970.87
477.054	7931.95
477.259	7934
477.463	7737.4
477.668	7696.44
477.872	7475.26
478.077	7389.24
478.282	7403.58
478.486	7436.35
478.691	7329.85
478.895	7266.36
479.1	7129.15
479.304	7327.8
479.509	7080
479.713	7180.35
479.918	6914.11
480.122	6750.28
480.326	7008.32
480.531	7036.99
480.735	6694.98
480.94	6697.03
481.144	7190.59
481.348	6658.12
481.553	6717.51
481.757	6604.87
481.961	6735.94
482.166	6803.52
482.37	6797.38
482.574	6709.32
482.778	6637.64
482.983	6789.19
483.187	6883.39
483.391	6727.75
483.595	6518.86
483.8	6686.79
484.004	6707.27
484.208	6793.28
484.412	6588.49
484.616	6637.64
484.821	6625.35
485.025	6398.03
485.229	6543.43
485.433	6600.77
485.637	6668.36
485.841	6647.88
486.045	6740.04
486.249	6711.36
486.453	6391.88
486.657	6541.38
486.861	6713.41
487.065	6514.76
487.269	6688.84
487.473	6471.75
487.677	6774.85
487.881	6842.43
488.085	6611.01
488.289	6643.78
488.493	6615.11
488.697	6758.47
488.901	6580.29
489.105	6668.36
489.309	6762.56
489.512	6584.39
489.716	6701.12
489.92	6580.29
490.124	6621.25
490.328	6998.08
490.531	6815.81
490.735	6907.97
490.939	6789.19
491.143	6801.47
491.346	6717.51
491.55	6969.41
491.754	6957.12
491.958	6973.5
492.161	6793.28
492.365	6963.26
492.569	6875.2
492.772	7157.82
492.976	6991.94
493.18	7120.96
493.383	7290.94
493.587	7245.88
493.79	7315.52
493.994	7073.85
494.197	7098.43
494.401	7346.23
494.605	7422.01
494.808	7454.78
495.012	7551.03
495.215	7710.77
495.419	7542.84
495.622	7589.94
495.825	7692.34
496.029	7764.02
496.232	8001.58
496.436	7829.56
496.639	8136.75
496.843	8048.69
497.046	8144.94
497.249	8220.72
497.453	8171.57
497.656	8245.29
497.859	8362.03
498.063	8380.46
498.266	8478.76
498.469	8575.02
498.673	8798.24
498.876	8925.22
499.079	9005.09
499.282	8933.41
499.485	9222.17
499.689	9125.92
499.892	9205.79
500.095	9252.89
500.298	9586.71
500.501	9326.62
500.705	9719.83
500.908	9920.53
501.111	9674.78
501.314	10067.99
501.517	10108.94
501.72	10178.58
501.923	10188.82
502.126	10436.62
502.329	10614.79
502.532	10756.1
502.735	10952.71
502.938	10903.56
503.141	10780.68
503.344	11171.84
503.547	11104.26
503.75	11403.26
503.953	11280.38
504.156	11558.91
504.359	11782.13
504.562	11948.02
504.765	12173.3
504.968	12085.23
505.17	12177.39
505.373	12247.02
505.576	12632.04
505.779	12703.72
505.982	12885.99
506.185	12906.47
506.387	13035.49
506.59	13369.31
506.793	13762.52
506.996	13524.96
507.198	13629.4
507.401	13617.11
507.604	13897.69
507.807	14106.58
508.009	14360.53
508.212	14385.1
508.415	14403.53
508.617	14671.82
508.82	14784.46
509.022	14827.46
509.225	15091.65
509.428	15245.25
509.63	15376.32
509.833	15476.67
510.035	15740.86
510.238	16041.91
510.44	16019.38
510.643	16172.98
510.845	16238.51
511.048	16289.71
511.25	16582.57
511.453	16355.25
511.655	17356.71
511.858	17129.38
512.06	17352.61
512.262	17608.61
512.465	17663.9
512.667	17897.37
512.87	17837.98
513.072	17979.29
513.274	18362.26
513.477	18579.34
513.679	18663.31
513.881	18876.3
514.084	19095.43
514.286	19087.24
514.488	19087.24
514.69	19625.86
514.893	20074.36
515.095	19881.85
515.297	20205.43
515.499	20318.07
515.701	20682.61
515.904	20273.01
516.106	20737.9
516.308	21364.58
516.51	21086.06
516.712	21526.37
516.914	21612.38
517.116	22169.43
517.318	21925.72
517.52	22089.56
517.722	22183.77
517.925	22576.98
518.127	22726.48
518.329	23158.6
518.531	23033.68
518.733	23471.94
518.935	23693.12
519.136	23633.73
519.338	24006.46
519.54	23953.21
519.742	24477.49
519.944	24332.09
520.146	24747.83
520.348	24997.68
520.55	25206.57
520.752	25149.23
520.954	25759.52
521.155	25599.78
521.357	25790.24
521.559	26134.3
521.761	26636.05
521.963	26681.11
522.164	26582.81
522.366	26576.66
522.568	26885.9
522.77	27000.59
522.971	27903.74
523.173	27262.73
523.375	27500.3
523.576	27623.17
523.778	27938.56
523.98	28215.04
524.181	28126.97
524.383	28161.79
524.584	28636.92
524.786	28534.52
524.988	28616.44
525.189	29296.36
525.391	29300.46
525.592	29523.69
525.794	29859.56
525.995	29687.53
526.197	29933.28
526.398	29877.99
526.6	29953.76
526.801	29902.56
527.003	30377.69
527.204	30144.22
527.406	30996.18
527.607	30734.04
527.808	30727.89
528.01	30412.51
528.211	30746.33
528.412	31168.21
528.614	31504.07
528.815	31420.11
529.016	31481.55
529.218	31102.67
529.419	31385.29
529.62	31440.59
529.822	31534.79
530.023	31647.43
530.224	32030.4
530.425	31766.21
530.626	31827.65
530.828	31536.84
531.029	32300.73
531.23	32065.22
531.431	31872.71
531.632	32186.05
531.833	32122.56
532.035	32276.16
532.236	32161.47
532.437	32474.81
532.638	32153.28
532.839	32128.7
533.04	32376.51
533.241	32257.73
533.442	33189.55
533.643	32685.75
533.844	32532.15
534.045	32784.05
534.246	32333.5
534.447	32691.9
534.648	32675.51
534.849	32548.54
535.05	32538.3
535.251	32882.36
535.451	32779.96
535.652	32984.76
535.853	32573.11
536.054	32800.44
536.255	32945.84
536.456	32706.23
536.657	33244.85
536.857	32587.45
537.058	32685.75
537.259	33115.83
537.46	33078.96
537.66	32734.9
537.861	32800.44
538.062	32964.28
538.263	32712.38
538.463	32939.7
538.664	32562.87
538.865	33031.86
539.065	32939.7
539.266	32724.66
539.466	33169.07
539.667	32695.99
539.868	33062.58
540.068	32800.44
540.269	33113.78
540.469	32900.79
540.67	32460.48
540.87	32597.69
541.071	32906.93
541.271	32810.68
541.472	32779.96
541.672	32550.59
541.873	32663.22
542.073	32630.46
542.274	33033.91
542.474	32962.23
542.675	32683.7
542.875	32802.49
543.075	32851.64
543.276	32652.98
543.476	33056.43
543.676	32499.39
543.877	32833.21
544.077	32689.85
544.277	32509.63
544.478	32636.6
544.678	32712.38
544.878	32784.05
545.078	32773.81
545.279	32026.31
545.479	32736.95
545.679	32837.3
545.879	32693.94
546.079	32595.64
546.28	32452.28
546.48	32575.16
546.68	32528.06
546.88	32872.12
547.08	32521.91
547.28	32515.77
547.48	32655.03
547.68	32648.89
547.88	32018.11
548.081	32761.53
548.281	32519.87
548.481	32546.49
548.681	32972.47
548.881	32569.02
549.081	32638.65
549.28	32460.48
549.48	32526.01
549.68	32714.42
549.88	33228.46
550.08	32353.98
550.28	32693.94
550.48	32601.79
550.68	32609.98
550.88	32288.45
551.08	32419.52
551.279	32870.07
551.479	32483
551.679	32063.17
551.879	32417.47
552.079	32521.91
552.278	32153.28
552.478	32261.82
552.678	32483
552.878	32435.9
553.077	32253.63
553.277	32057.03
553.477	32587.45
553.676	32122.56
553.876	32272.06
554.076	32200.38
554.275	32202.43
554.475	31768.26
554.674	32046.79
554.874	32526.01
555.074	31848.13
555.273	32353.98
555.473	32222.91
555.672	31911.62
555.872	31809.22
556.071	32186.05
556.271	32222.91
556.47	31889.09
556.67	31325.9
556.869	31864.52
557.068	31735.49
557.268	31534.79
557.467	31768.26
557.667	31602.38
557.866	31489.74
558.065	31653.58
558.265	31387.34
558.464	31346.38
558.663	31694.54
558.863	31157.97
559.062	31610.57
559.261	31092.43
559.461	31446.73
559.66	31006.42
559.859	31061.71
560.058	31002.32
560.258	31295.18
560.457	30623.45
560.656	30930.64
560.855	31016.66
561.054	31082.19
561.253	30420.7
561.453	30492.38
561.652	30815.96
561.851	30830.29
562.05	30543.58
562.249	30162.65
562.448	30557.91
562.647	30705.37
562.846	30449.37
563.045	30709.46
563.244	29877.99
563.443	30652.12
563.642	30187.23
563.841	30527.19
564.04	30142.17
564.239	30056.16
564.438	29955.81
564.637	30099.17
564.836	29986.53
565.035	29619.94
565.234	29548.26
565.432	29615.85
565.631	29413.1
565.83	29693.67
566.029	29552.36
566.228	28831.47
566.427	29136.62
566.625	29019.89
566.824	28815.09
567.023	29087.47
567.222	28817.14
567.42	29249.26
567.619	28815.09
567.818	28880.63
568.016	28804.85
568.215	28708.6
568.414	28610.29
568.612	28772.08
568.811	28292.86
569.01	28878.58
569.208	28219.13
569.407	28489.46
569.605	27803.39
569.804	28444.41
570.002	28129.02
570.201	28260.09
570.4	27703.04
570.598	27672.32
570.797	27496.2
570.995	27791.11
571.193	27346.7
571.392	27805.44
571.59	27244.3
571.789	27410.18
571.987	27537.16
572.186	27264.78
572.384	26937.1
572.582	27514.63
572.781	27668.23
572.979	26316.57
573.177	27062.03
573.376	27205.39
573.574	26867.47
573.772	27164.43
573.971	26613.52
574.169	26685.2
574.367	26398.49
574.565	26681.11
574.763	26402.58
574.962	26394.39
575.16	26070.81
575.358	26404.63
575.556	25736.99
575.754	26281.75
575.952	25646.88
576.151	26380.06
576.349	25517.86
576.547	25880.35
576.745	25515.81
576.943	25585.44
577.141	25460.52
577.339	25581.35
577.537	25599.78
577.735	25536.29
577.933	25124.65
578.131	25214.76
578.329	24993.58
578.527	24868.66
578.725	25005.87
578.923	25235.24
579.121	24911.66
579.319	24778.54
579.516	24710.96
579.714	24792.88
579.912	24397.62
580.11	24792.88
580.308	24739.63
580.506	24319.8
580.704	23942.97
580.901	24022.84
581.099	24379.19
581.297	24176.44
581.495	24399.67
581.692	24135.48
581.89	24037.18
582.088	23867.2
582.285	23566.15
582.483	23988.03
582.681	23750.46
582.878	23781.18
583.076	23363.4
583.274	23779.14
583.471	23463.75
583.669	23301.96
583.866	23181.13
584.064	23500.61
584.262	22998.86
584.459	23185.22
584.657	23097.16
584.854	23017.29
585.052	22800.21
585.249	22992.72
585.447	22929.23
585.644	22538.07
585.841	22726.48
586.039	22949.71
586.236	22505.3
586.434	22101.85
586.631	22191.96
586.828	22456.15
587.026	22533.97
587.223	22034.27
587.42	22183.77
587.618	22275.93
587.815	21841.76
588.012	21974.88
588.21	21901.15
588.407	22036.31
588.604	21815.13
588.801	21765.98
588.999	21768.03
589.196	21737.31
589.393	21538.66
589.59	21561.19
589.787	21546.85
589.984	21399.4
590.182	21362.53
590.379	21643.1
590.576	21014.38
590.773	21229.41
590.97	20834.16
591.167	21129.06
591.364	20842.35
591.561	20752.24
591.758	20975.47
591.955	20682.61
592.152	20850.54
592.349	20692.85
592.546	20905.84
592.743	20889.45
592.94	20352.88
593.137	20430.71
593.334	20606.83
593.531	20189.05
593.727	20379.51
593.924	20324.21
594.121	20187
594.318	20242.29
594.515	19906.43
594.712	20172.66
594.908	19853.18
595.105	19777.4
595.302	19736.45
595.499	19701.63
595.696	19838.84
595.892	19713.92
596.089	19799.93
596.286	19603.33
596.482	19644.29
596.679	19361.67
596.876	19484.55
597.072	19347.33
597.269	19234.69
597.466	19054.47
597.662	19093.38
597.859	19226.5
598.055	19189.64
598.252	18896.78
598.448	18833.29
598.645	18849.68
598.841	18618.25
599.038	18737.04
599.234	18648.97
599.431	18280.34
599.627	18743.18
599.824	18558.86
600.02	18347.92
600.217	18567.06
600.413	18444.18
600.609	18161.56
600.806	17903.51
601.002	18499.47
601.198	17911.71
601.395	17786.78
601.591	18118.55
601.787	18016.15
601.984	17844.12
602.18	18020.25
602.376	17823.64
602.572	17495.97
602.769	17696.67
602.965	17428.38
603.161	17772.44
603.357	17354.66
603.553	17514.4
603.75	17399.71
603.946	17319.84
604.142	17407.91
604.338	17328.03
604.534	17024.93
604.73	17188.77
604.926	17078.18
605.122	17168.29
605.318	16994.22
605.514	16920.49
605.71	16773.03
605.906	16836.52
606.102	16832.43
606.298	16754.6
606.494	16592.81
606.69	16699.31
606.886	17006.5
607.082	16480.18
607.278	16787.37
607.474	16279.47
607.67	16551.85
607.866	16234.42
608.062	16498.61
608.257	16299.95
608.453	16469.94
608.649	16385.97
608.845	16025.53
609.041	16136.12
609.236	16371.63
609.432	16275.38
609.628	16113.59
609.824	16046.01
610.019	16015.29
610.215	16003
610.411	15976.37
610.606	15738.81
610.802	16136.12
610.998	15683.52
611.193	15740.86
611.389	15876.02
611.584	15683.52
611.78	15542.21
611.976	15599.55
612.171	15642.56
612.367	15607.74
612.562	15439.81
612.758	15507.39
612.953	15607.74
613.149	15597.5
613.344	15470.53
613.539	15622.08
613.735	15570.88
613.93	15351.74
614.126	15429.57
614.321	15488.96
614.517	15239.11
614.712	15038.41
614.907	15073.22
615.103	15255.49
615.298	15024.07
615.493	15073.22
615.688	14954.44
615.884	15278.02
616.079	14862.28
616.274	14964.68
616.47	15001.54
616.665	14946.25
616.86	14778.31
617.055	14983.11
617.25	14702.54
617.445	14718.92
617.641	14444.49
617.836	14868.42
618.031	14661.58
618.226	14741.45
618.421	14438.35
618.616	14598.09
618.811	14206.93
619.006	14335.95
619.201	14000.09
619.396	14479.31
619.591	14114.77
619.786	14145.49
619.981	13995.99
620.176	13957.08
620.371	13907.93
620.566	14049.24
620.761	13936.6
620.956	14008.28
621.151	13805.53
621.346	13795.29
621.541	13647.83
621.735	13803.48
621.93	13363.17
622.125	13408.22
622.32	13191.14
622.515	13383.65
622.709	13191.14
622.904	13232.1
623.099	13008.87
623.294	13213.67
623.488	12877.8
623.683	12929
623.878	12832.74
624.072	12814.31
624.267	12795.88
624.462	12783.59
624.656	12648.43
624.851	12646.38
625.046	12466.16
625.24	12376.05
625.435	12277.74
625.629	12320.75
625.824	12326.89
626.018	12253.17
626.213	11937.78
626.407	12103.67
626.602	11935.73
626.796	11962.36
626.991	11765.75
627.185	11702.26
627.38	11669.5
627.574	11644.92
627.768	11620.35
627.963	11464.7
628.157	11372.54
628.352	11632.63
628.546	11413.5
628.74	11356.16
628.935	11278.33
629.129	11274.24
629.323	11075.59
629.517	11038.72
629.712	11016.19
629.906	11282.43
630.1	10778.63
630.294	10948.61
630.489	10674.18
630.683	10874.88
630.877	10608.65
631.071	10565.64
631.265	10674.18
631.459	10561.55
631.653	10422.28
631.848	10352.65
632.042	10307.6
632.236	10258.45
632.43	10199.06
632.624	10283.02
632.818	10037.27
633.012	9822.23
633.206	9986.07
633.4	9920.53
633.594	9842.71
633.788	9936.92
633.982	9922.58
634.176	9822.23
634.369	9574.42
634.563	9822.23
634.757	9693.21
634.951	9535.51
635.145	9650.2
635.339	9474.07
635.533	9455.64
635.726	9558.04
635.92	9338.91
636.114	9334.81
636.308	9289.76
636.501	9310.24
636.695	9168.93
636.889	9158.69
637.083	9091.1
637.276	8968.23
637.47	8921.12
637.664	8892.45
637.857	8949.79
638.051	8847.4
638.244	8740.9
638.438	8747.05
638.632	8695.85
638.825	8630.31
639.019	8642.6
639.212	8513.58
639.406	8644.65
639.599	8419.37
639.793	8402.99
639.986	8308.78
640.18	8204.33
640.373	8337.45
640.567	8296.49
640.76	8196.14
640.954	8235.05
641.147	8253.48
641.34	8120.37
641.534	8067.12
641.727	7987.25
641.92	8194.09
642.114	7921.71
642.307	7860.27
642.5	7903.28
642.694	7796.79
642.887	7604.28
643.08	7899.19
643.273	7741.49
643.467	7751.73
643.66	7518.26
643.853	7489.59
644.046	7424.06
644.239	7591.99
644.432	7522.36
644.626	7385.15
644.819	7258.17
645.012	7237.69
645.205	7254.08
645.398	7217.21
645.591	7077.95
645.784	6942.78
645.977	7032.9
646.17	7082.05
646.363	7094.33
646.556	6885.44
646.749	7022.66
646.942	6887.49
647.135	7063.61
647.328	6707.27
647.521	6883.39
647.714	6643.78
647.907	6735.94
648.099	6742.08
648.292	6776.9
648.485	6606.92
648.678	6690.88
648.871	6602.82
649.064	6725.7
649.256	6602.82
649.449	6594.63
649.642	6447.18
649.835	6549.57
650.027	6281.29
650.22	6367.31
650.413	6336.59
650.605	6467.66
650.798	6219.85
650.991	6119.5
651.183	6045.77
651.376	6324.3
651.568	6099.02
651.761	6076.49
651.954	6027.34
652.146	6049.87
652.339	5986.38
652.531	5789.78
652.724	5904.46
652.916	5892.18
653.109	5840.98
653.301	5697.62
653.494	5830.74
653.686	5693.52
653.879	5697.62
654.071	5781.59
654.263	5523.54
654.456	5697.62
654.648	5703.76
654.84	5507.16
655.033	5503.06
655.225	5429.34
655.417	5480.54
655.61	5539.93
655.802	5638.23
655.994	5257.31
656.186	5460.06
656.379	5292.12
656.571	5308.51
656.763	5204.06
656.955	5224.54
657.148	5333.08
657.34	5214.3
657.532	5062.75
657.724	5177.44
657.916	5161.05
658.108	5181.53
658.3	4931.68
658.492	4931.68
658.684	5089.37
658.876	4952.16
659.068	5081.18
659.26	5083.23
659.452	4929.63
659.644	4788.32
659.836	4870.24
660.028	4958.3
660.22	4796.51
660.412	4837.47
660.604	4767.84
660.796	4767.84
660.988	4673.64
661.18	4788.32
661.372	4647.01
661.563	4614.24
661.755	4702.31
661.947	4675.68
662.139	4577.38
662.331	4509.8
662.522	4567.14
662.714	4583.52
662.906	4563.05
663.097	4454.5
663.289	4524.13
663.481	4513.89
663.673	4386.92
663.864	4368.49
664.056	4194.41
664.247	4282.47
664.439	4214.89
664.631	4329.58
664.822	4366.44
665.014	4313.19
665.205	4175.98
665.397	4202.6
665.588	4348.01
665.78	4139.12
665.971	4108.4
666.163	4184.17
666.354	4087.92
666.546	4036.72
666.737	4018.29
666.929	4106.35
667.12	3946.61
667.311	3997.81
667.503	4120.68
667.694	4042.86
667.885	3874.93
668.077	3995.76
668.268	3891.31
668.459	3942.51
668.651	3858.54
668.842	3924.08
669.033	3856.5
669.224	3836.02
669.416	3797.1
669.607	3860.59
669.798	3747.95
669.989	3952.75
670.18	3801.2
670.371	3719.28
670.563	3645.56
670.754	3836.02
670.945	3676.27
671.136	3752.05
671.327	3704.95
671.518	3623.03
671.709	3686.51
671.9	3743.86
672.091	3727.47
672.282	3590.26
672.473	3563.64
672.664	3655.79
672.855	3508.34
673.046	3539.06
673.237	3661.94
673.428	3520.63
673.619	3563.64
673.809	3526.77
674	3494.01
674.191	3534.96
674.382	3498.1
674.573	3348.6
674.764	3479.67
674.954	3426.42
675.145	3547.25
675.336	3328.12
675.527	3383.42
675.717	3469.43
675.908	3371.13
676.099	3229.82
676.289	3326.07
676.48	3375.22
676.671	3412.09
676.861	3401.85
677.052	3340.41
677.243	3266.68
677.433	3270.78
677.624	3266.68
677.814	3399.8
678.005	3278.97
678.195	3145.85
678.386	3362.94
678.576	3293.3
678.767	3174.52
678.957	3358.84
679.148	3268.73
679.338	3285.11
679.529	3238.01
679.719	3098.75
679.909	3321.98
680.1	3211.39
680.29	3244.15
680.481	3100.8
680.671	3090.56
680.861	3197.05
681.052	3221.63
681.242	3164.28
681.432	3158.14
681.622	3127.42
681.813	3195
682.003	3145.85
682.193	3180.67
682.383	3074.17
682.573	3047.55
682.764	3055.74
682.954	3102.84
683.144	3053.69
683.334	3129.47
683.524	3027.07
683.714	3090.56
683.904	3172.47
684.094	2994.3
684.284	3033.21
684.474	3098.75
684.664	3141.75
684.854	3092.6
685.044	2900.09
685.234	3049.6
685.424	2941.05
685.614	2998.4
685.804	3014.78
685.994	3010.68
686.184	2932.86
686.374	2990.21
686.564	2998.4
686.753	3006.59
686.943	2846.85
687.133	2975.87
687.323	2818.18
687.513	2889.85
687.702	2859.14
687.892	2855.04
688.082	2896
688.272	2812.03
688.461	2955.39
688.651	2852.99
688.841	2928.77
689.03	2855.04
689.22	2916.48
689.41	2930.81
689.599	2705.54
689.789	2816.13
689.979	2816.13
690.168	2803.84
690.358	2637.95
690.547	2750.59
690.737	2713.73
690.926	2680.96
691.116	2752.64
691.305	2820.22
691.495	2691.2
691.684	2603.14
691.874	2699.39
692.063	2699.39
692.252	2746.5
692.442	2719.87
692.631	2572.42
692.82	2662.53
693.01	2680.96
693.199	2713.73
693.388	2590.85
693.578	2582.66
693.767	2629.76
693.956	2564.23
694.146	2588.8
694.335	2541.7
694.524	2566.28
694.713	2502.79
694.902	2562.18
695.092	2406.53
695.281	2506.88
695.47	2465.93
695.659	2488.45
695.848	2506.88
696.037	2513.03
696.226	2422.92
696.415	2437.25
696.604	2558.08
696.793	2445.45
696.982	2470.02
697.171	2439.3
697.36	2476.16
697.549	2351.24
697.738	2338.95
697.927	2433.16
698.116	2549.89
698.305	2377.86
698.494	2416.77
698.683	2273.42
698.872	2367.62
699.061	2470.02
699.25	2465.93
699.438	2367.62
699.627	2433.16
699.816	2433.16
700.005	2488.45
700.193	2320.52
700.382	2441.35
700.571	2328.71
700.76	2484.36
700.948	2320.52
701.137	2347.14
701.326	2304.14
701.514	2359.43
701.703	2465.93
701.892	2424.97
702.08	2394.25
702.269	2449.54
702.457	2306.18
702.646	2367.62
702.834	2306.18
703.023	2365.57
703.212	2291.85
703.4	2381.96
703.589	2269.32
703.777	2398.34
703.965	2254.98
704.154	2365.57
704.342	2279.56
704.531	2244.74
704.719	2392.2
704.907	2322.57
705.096	2330.76
705.284	2244.74
705.472	2238.6
705.661	2203.79
705.849	2424.97
706.037	2365.57
706.226	2285.7
706.414	2197.64
706.602	2361.48
706.79	2318.47
706.979	2277.51
707.167	2318.47
707.355	2238.6
707.543	2275.46
707.731	2334.86
707.919	2359.43
708.107	2289.8
708.296	2330.76
708.484	2211.98
708.672	2396.29
708.86	2367.62
709.048	2244.74
709.236	2375.81
709.424	2322.57
709.612	2365.57
709.8	2234.5
709.988	2259.08
710.176	2361.48
710.364	2273.42
710.551	2359.43
710.739	2322.57
710.927	2332.81
711.115	2439.3
711.303	2257.03
711.491	2265.22
711.679	2261.13
711.866	2365.57
712.054	2287.75
712.242	2246.79
712.43	2300.04
712.617	2334.86
712.805	2254.98
712.993	2400.39
713.181	2240.65
713.368	2390.15
713.556	2263.18
713.744	2310.28
713.931	2435.21
714.119	2334.86
714.306	2211.98
714.494	2259.08
714.682	2293.9
714.869	2324.62
715.057	2240.65
715.244	2338.95
715.432	2359.43
715.619	2400.39
715.807	2312.33
715.994	2318.47
716.182	2285.7
716.369	2326.66
716.556	2345.09
716.744	2273.42
716.931	2281.61
717.119	2265.22
717.306	2257.03
717.493	2240.65
717.681	2390.15
717.868	2279.56
718.055	2314.38
718.242	2338.95
718.43	2357.38
718.617	2361.48
718.804	2302.09
718.991	2244.74
719.179	2252.94
719.366	2326.66
719.553	2332.81
719.74	2228.36
719.927	2234.5
720.114	2312.33
720.301	2195.59
720.488	2269.32
720.676	2291.85
720.863	2205.83
721.05	2300.04
721.237	2359.43
721.424	2316.42
721.611	2324.62
721.798	2281.61
721.985	2173.07
722.172	2162.83
722.358	2214.02
722.545	2306.18
722.732	2222.22
722.919	2238.6
723.106	2203.79
723.293	2242.7
723.48	2375.81
723.667	2246.79
723.853	2281.61
724.04	2222.22
724.227	2306.18
724.414	2277.51
724.6	2250.89
724.787	2312.33
724.974	2214.02
725.161	2171.02
725.347	2175.11
725.534	2244.74
725.72	2191.5
725.907	2238.6
726.094	2228.36
726.28	2218.12
726.467	2222.22
726.653	2199.69
726.84	2277.51
727.027	2312.33
727.213	2254.98
727.4	2254.98
727.586	2240.65
727.773	2269.32
727.959	2125.96
728.145	2320.52
728.332	2214.02
728.518	2232.46
728.705	2271.37
728.891	2199.69
729.077	2259.08
729.264	2318.47
729.45	2211.98
729.636	2201.74
729.823	2199.69
730.009	2357.38
730.195	2318.47
730.382	2242.7
730.568	2291.85
730.754	2297.99
730.94	2320.52
731.126	2265.22
731.313	2078.86
731.499	2287.75
731.685	2244.74
731.871	2205.83
732.057	2279.56
732.243	2257.03
732.429	2287.75
732.615	2201.74
732.801	2277.51
732.987	2224.26
733.173	2138.25
733.359	2297.99
733.545	2330.76
733.731	2234.5
733.917	2351.24
734.103	2209.93
734.289	2318.47
734.475	2297.99
734.661	2285.7
734.847	2214.02
735.033	2209.93
735.219	2322.57
735.404	2285.7
735.59	2250.89
735.776	2205.83
735.962	2254.98
736.148	2240.65
736.333	2267.27
736.519	2187.4
736.705	2295.94
736.89	2158.73
737.076	2144.39
737.262	2179.21
737.447	2263.18
737.633	2338.95
737.819	2197.64
738.004	2164.87
738.19	2173.07
738.375	2230.41
738.561	2128.01
738.747	2138.25
738.932	2144.39
739.118	2197.64
739.303	2191.5
739.489	2148.49
739.674	2162.83
739.859	2023.56
740.045	2105.48
740.23	2193.55
740.416	2009.23
740.601	2154.63
740.786	2068.62
740.972	2179.21
741.157	2044.04
741.342	2048.14
741.528	2132.11
741.713	2058.38
741.898	2101.39
742.084	2048.14
742.269	1994.89
742.454	2056.33
742.639	1984.65
742.824	2142.35
743.01	1982.6
743.195	2185.35
743.38	1908.88
743.565	1953.93
743.75	1990.8
743.935	1951.88
744.12	2029.71
744.305	1974.41
744.49	1990.8
744.675	1853.58
744.86	1955.98
745.045	1890.45
745.23	1929.36
745.415	1958.03
745.6	1853.58
745.785	1869.97
745.97	1925.26
746.155	1937.55
746.34	1896.59
746.525	1984.65
746.71	1919.12
746.895	1908.88
747.079	1941.65
747.264	1792.14
747.449	1853.58
747.634	1849.49
747.819	1835.15
748.003	1806.48
748.188	1767.57
748.373	1783.95
748.557	1788.05
748.742	1863.82
748.927	1708.18
749.111	1589.39
749.296	1724.56
749.481	1826.96
749.665	1724.56
749.85	1755.28
750.034	1745.04
750.219	1702.03
750.404	1755.28
750.588	1695.89
750.773	1583.25
750.957	1558.67
751.141	1532.05
751.326	1681.55
751.51	1552.53
751.695	1568.91
751.879	1583.25
752.064	1532.05
752.248	1564.82
752.432	1577.11
752.617	1546.39
752.801	1566.87
752.985	1519.76
753.17	1534.1
753.354	1570.96
753.538	1517.72
753.722	1466.52
753.907	1575.06
754.091	1527.96
754.275	1509.52
754.459	1380.5
754.643	1450.13
754.828	1407.13
755.012	1452.18
755.196	1366.17
755.38	1329.3
755.564	1409.17
755.748	1317.01
755.932	1343.64
756.116	1360.02
756.3	1357.97
756.484	1357.97
756.668	1331.35
756.852	1323.16
757.036	1333.4
757.22	1298.58
757.404	1237.14
757.588	1335.45
757.772	1274.01
757.956	1282.2
758.14	1339.54
758.323	1216.66
758.507	1265.82
758.691	1190.04
758.875	1239.19
759.059	1274.01
759.242	1171.61
759.426	1171.61
759.61	1190.04
759.794	1167.51
759.977	1159.32
760.161	1155.23
760.345	1276.06
760.528	1198.23
760.712	1196.18
760.895	1163.42
761.079	1134.75
761.263	1239.19
761.446	1130.65
761.63	1192.09
761.813	1126.55
761.997	1165.46
762.18	1099.93
762.364	1083.55
762.547	1087.64
762.731	1089.69
762.914	1048.73
763.098	1067.16
763.281	1050.78
763.464	1122.46
763.648	1036.44
763.831	1069.21
764.015	991.39
764.198	993.44
764.381	1054.87
764.564	1048.73
764.748	999.58
764.931	1003.68
765.114	979.1
765.297	1110.17
765.481	1020.06
765.664	1015.96
765.847	919.71
766.03	997.53
766.213	1015.96
766.397	995.48
766.58	940.19
766.763	1015.96
766.946	940.19
767.129	966.81
767.312	977.05
767.495	913.56
767.678	946.33
767.861	991.39
768.044	946.33
768.227	893.09
768.41	901.28
768.593	958.62
768.776	936.09
768.959	964.76
769.142	837.79
769.324	938.14
769.507	950.43
769.69	909.47
769.873	952.48
770.056	925.85
770.239	856.22
770.421	944.28
770.604	897.18
770.787	921.76
770.97	841.89
771.152	839.84
771.335	848.03
771.518	811.17
771.7	782.49
771.883	929.95
772.066	868.51
772.248	802.97
772.431	788.64
772.613	880.8
772.796	762.02
772.978	835.74
773.161	823.45
773.343	747.68
773.526	815.26
773.708	848.03
773.891	729.25
774.073	794.78
774.256	786.59
774.438	782.49
774.621	749.73
774.803	788.64
774.985	780.45
775.168	786.59
775.35	716.96
775.532	845.98
775.715	735.39
775.897	686.24
776.079	794.78
776.261	665.76
776.444	716.96
776.626	772.25
776.808	682.14
776.99	618.66
777.173	706.72
777.355	772.25
777.537	774.3
777.719	766.11
777.901	667.81
778.083	635.04
778.265	645.28
778.447	725.15
778.629	606.37
778.811	678.05
778.993	637.09
779.175	673.95
779.357	659.62
779.539	655.52
779.721	632.99
779.903	657.57
780.085	589.99
780.267	589.99
780.449	622.75
780.631	624.8
780.812	667.81
780.994	616.61
781.176	637.09
781.358	538.79
781.54	598.18
781.721	563.36
781.903	592.03
782.085	544.93
782.267	536.74
782.448	497.83
782.63	497.83
782.812	571.55
782.993	639.14
783.175	538.79
783.357	546.98
783.538	567.46
783.72	540.83
783.901	526.5
784.083	450.72
784.264	434.34
784.446	510.11
784.627	503.97
784.809	432.29
784.99	477.35
785.172	483.49
785.353	469.16
785.535	508.07
785.716	460.96
785.897	397.48
786.079	381.09
786.26	520.35
786.441	491.68
786.623	493.73
786.804	458.92
786.985	456.87
787.167	485.54
787.348	463.01
787.529	405.67
787.71	450.72
787.891	403.62
788.073	346.28
788.254	403.62
788.435	405.67
788.616	401.57
788.797	329.89
788.978	411.81
789.159	387.24
789.34	409.76
789.522	362.66
789.703	340.13
789.884	401.57
790.065	446.63
790.246	415.91
790.427	370.85
790.607	399.52
790.788	405.67
790.969	360.61
791.15	385.19
791.331	393.38
791.512	196.78
791.693	354.47
791.874	350.37
792.054	434.34
792.235	352.42
792.416	374.95
792.597	336.04
792.778	430.24
792.958	389.28
793.139	311.46
793.32	290.98
793.5	356.52
793.681	336.04
793.862	336.04
794.042	346.28
794.223	221.35
794.404	327.85
794.584	262.31
794.765	286.89
794.945	370.85
795.126	333.99
795.306	348.33
795.487	325.8
795.667	299.17
795.848	360.61
796.028	237.74
796.209	217.26
796.389	258.21
796.57	356.52
796.75	333.99
796.93	364.71
797.111	295.08
797.291	379.04
797.471	366.76
797.652	254.12
797.832	325.8
798.012	311.46
798.192	241.83
798.373	250.02
798.553	276.65
798.733	331.94
798.913	241.83
799.093	247.97
799.274	241.83
799.454	276.65
799.634	282.79
799.814	278.69
799.994	278.69
800.174	264.36
800.354	256.17
800.534	256.17
800.714	247.97
800.894	321.7
801.074	192.68
801.254	237.74
801.434	286.89
801.614	184.49
801.794	229.54
801.974	784.54
802.154	188.58
802.334	243.88
802.514	260.26
802.693	178.34
802.873	225.45
803.053	219.3
803.233	225.45
803.413	213.16
803.592	192.68
803.772	190.63
803.952	229.54
804.131	204.97
804.311	213.16
804.491	178.34
804.67	221.35
804.85	190.63
805.03	280.74
805.209	223.4
805.389	237.74
805.568	223.4
805.748	170.15
805.928	172.2
806.107	282.79
806.287	327.85
806.466	297.13
806.646	272.55
806.825	186.54
807.004	327.85
807.184	164.01
807.363	245.93
807.543	247.97
807.722	227.5
807.901	178.34
808.081	278.69
808.26	196.78
808.439	239.78
808.619	172.2
808.798	180.39
808.977	278.69
809.156	157.86
809.336	155.82
809.515	229.54
809.694	155.82
809.873	174.25
810.052	172.2
810.231	231.59
810.411	213.16
810.59	174.25
810.769	129.19
810.948	192.68
811.127	227.5
811.306	217.26
811.485	96.43
811.664	137.38
811.843	174.25
812.022	159.91
812.201	194.73
812.38	143.53
812.559	141.48
812.737	170.15
812.916	196.78
813.095	192.68
813.274	118.95
813.453	131.24
813.632	192.68
813.811	207.02
813.989	204.97
814.168	100.52
814.347	121
814.526	172.2
814.704	133.29
814.883	149.67
815.062	215.21
815.24	94.38
815.419	127.14
815.598	250.02
815.776	155.82
815.955	153.77
816.133	110.76
816.312	151.72
816.49	164.01
816.669	135.34
816.847	139.43
817.026	131.24
817.204	202.92
817.383	180.39
817.561	94.38
817.74	137.38
817.918	133.29
818.097	127.14
818.275	94.38
818.453	59.56
818.632	149.67
818.81	116.9
818.988	77.99
819.167	104.62
819.345	116.9
819.523	16.55
819.701	141.48
819.879	110.76
820.058	84.14
820.236	123.05
820.414	75.95
820.592	108.71
820.77	92.33
820.948	82.09
821.127	133.29
821.305	168.1
821.483	32.94
821.661	49.32
821.839	135.34
822.017	47.27
822.195	129.19
822.373	157.86
822.551	129.19
822.729	108.71
822.907	94.38
823.085	141.48
823.262	49.32
823.44	28.84
823.618	166.06
823.796	161.96
823.974	139.43
824.152	143.53
824.329	139.43
824.507	96.43
824.685	116.9
824.863	188.58
825.04	135.34
825.218	258.21
825.396	125.1
825.574	57.51
825.751	178.34
825.929	110.76
826.107	92.33
826.284	80.04
826.462	63.66
826.639	59.56
826.817	98.47
826.994	118.95
827.172	80.04
827.349	110.76
827.527	94.38
827.704	172.2
827.882	32.94
828.059	123.05
828.237	86.19
828.414	100.52
828.591	75.95
828.769	116.9
828.946	57.51
829.124	100.52
829.301	112.81
829.478	94.38
829.655	106.67
829.833	174.25
830.01	125.1
830.187	157.86
830.364	51.37
830.542	96.43
830.719	135.34
830.896	90.28
831.073	141.48
831.25	57.51
831.427	80.04
831.604	196.78
831.782	53.42
831.959	182.44
832.136	41.13
832.313	139.43
832.49	30.89
832.667	63.66
832.844	137.38
833.021	82.09
833.198	116.9
833.374	84.14
833.551	53.42
833.728	51.37
833.905	84.14
834.082	110.76
834.259	84.14
834.436	157.86
834.612	55.47
834.789	98.47
834.966	127.14
835.143	32.94
835.319	32.94
835.496	51.37
835.673	10.41
835.85	77.99
836.026	67.75
836.203	75.95
836.38	86.19
836.556	98.47
836.733	45.23
836.909	98.47
837.086	61.61
837.262	92.33
837.439	75.95
837.616	47.27
837.792	82.09
837.968	155.82
838.145	41.13
838.321	106.67
838.498	98.47
838.674	77.99
838.851	98.47
839.027	53.42
839.203	65.71
839.38	102.57
839.556	82.09
839.732	43.18
839.909	80.04
840.085	75.95
840.261	121
840.437	43.18
840.614	100.52
840.79	141.48
840.966	71.85
841.142	86.19
841.318	104.62
841.494	-16.21
841.671	45.23
841.847	-12.12
842.023	41.13
842.199	84.14
842.375	149.67
842.551	73.9
842.727	75.95
842.903	123.05
843.079	51.37
843.255	63.66
843.431	14.51
843.607	67.75
843.783	22.7
843.959	94.38
844.134	30.89
844.31	98.47
844.486	98.47
844.662	41.13
844.838	63.66
845.013	86.19
845.189	59.56
845.365	94.38
845.541	57.51
845.716	10.41
845.892	88.23
846.068	45.23
846.244	102.57
846.419	61.61
846.595	59.56
846.77	94.38
846.946	143.53
847.122	108.71
847.297	84.14
847.473	59.56
847.648	73.9
847.824	37.03
847.999	10.41
848.175	73.9
848.35	75.95
848.526	88.23
848.701	47.27
848.876	131.24
849.052	90.28
849.227	-14.17
849.403	12.46
849.578	51.37
849.753	84.14
849.929	57.51
850.104	-22.36
850.279	82.09
850.454	32.94
850.63	-5.97
850.805	121
850.98	34.99
851.155	8.36
851.33	-14.17
851.505	10.41
851.681	67.75
851.856	53.42
852.031	108.71
852.206	104.62
852.381	26.79
852.556	98.47
852.731	77.99
852.906	26.79
853.081	10.41
853.256	75.95
853.431	110.76
853.606	16.55
853.781	90.28
853.956	-20.31
854.131	47.27
854.305	24.75
854.48	94.38
854.655	26.79
854.83	16.55
855.005	28.84
855.18	73.9
855.354	28.84
855.529	18.6
855.704	24.75
855.879	16.55
856.053	37.03
856.228	59.56
856.403	0.17
856.577	53.42
856.752	65.71
856.926	157.86
857.101	24.75
857.276	26.79
857.45	114.86
857.625	49.32
857.799	10.41
857.974	-1.88
858.148	6.31
858.323	65.71
858.497	82.09
858.672	8.36
858.846	41.13
859.02	82.09
859.195	24.75
859.369	114.86
859.543	37.03
859.718	28.84
859.892	30.89
860.066	121
860.241	114.86
860.415	32.94
860.589	24.75
860.763	2.22
860.938	2.22
861.112	41.13
861.286	37.03
861.46	90.28
861.634	-24.4
861.808	24.75
861.982	45.23
862.157	24.75
862.331	-69.46
862.505	65.71
862.679	-12.12
862.853	100.52
863.027	26.79
863.201	51.37
863.375	32.94
863.549	69.8
863.722	4.27
863.896	82.09
864.07	24.75
864.244	143.53
864.418	37.03
864.592	51.37
864.766	8.36
864.939	24.75
865.113	82.09
865.287	24.75
865.461	18.6
865.634	159.91
865.808	34.99
865.982	61.61
866.156	-53.08
866.329	26.79
866.503	4.27
866.676	45.23
866.85	18.6
867.024	47.27
867.197	34.99
867.371	47.27
867.544	8.36
867.718	-36.69
867.891	133.29
868.065	6.31
868.238	73.9
868.412	106.67
868.585	-3.93
868.759	-8.02
868.932	28.84
869.105	-5.97
869.279	28.84
869.452	-16.21
869.625	-30.55
869.799	4.27
869.972	-18.26
870.145	28.84
870.319	137.38
870.492	24.75
870.665	59.56
870.838	-10.07
871.011	-28.5
871.185	-20.31
871.358	-57.17
871.531	94.38
871.704	-30.55
871.877	57.51
872.05	-14.17
872.223	14.51
872.396	61.61
872.569	18.6
872.742	77.99
872.915	-16.21
873.088	4.27
873.261	26.79
873.434	32.94
873.607	57.51
873.78	63.66
873.953	94.38
874.126	24.75
874.299	24.75
874.471	0.17
874.644	2.22
874.817	53.42
874.99	2.22
875.163	-3.93
875.335	86.19
875.508	53.42
875.681	88.23
875.853	20.65
876.026	82.09
876.199	73.9
876.371	57.51
876.544	82.09
876.717	8.36
876.889	55.47
877.062	24.75
877.234	53.42
877.407	32.94
877.579	-14.17
877.752	-44.88
877.924	37.03
878.097	43.18
878.269	4.27
878.442	18.6
878.614	-24.4
878.786	61.61
878.959	43.18
879.131	61.61
879.303	-40.79
879.476	51.37
879.648	53.42
879.82	49.32
879.993	16.55
880.165	18.6
880.337	-112.47
880.509	88.23
880.681	0.17
880.854	39.08
881.026	24.75
881.198	73.9
881.37	26.79
881.542	49.32
881.714	32.94
881.886	-24.4
882.058	-10.07
882.23	6.31
882.402	16.55
882.574	24.75
882.746	-34.64
882.918	114.86
883.09	45.23
883.262	49.32
883.434	-24.4
883.606	-3.93
883.778	-53.08
883.95	73.9
884.122	53.42
884.293	49.32
884.465	71.85
884.637	34.99
884.809	-8.02
884.98	-1.88
885.152	-14.17
885.324	24.75
885.496	75.95
885.667	18.6
885.839	18.6
886.011	92.33
886.182	26.79
886.354	24.75
886.525	20.65
886.697	37.03
886.869	-1.88
887.04	53.42
887.212	59.56
887.383	45.23
887.555	12.46
887.726	-67.41
887.897	22.7
888.069	24.75
888.24	45.23
888.412	0.17
888.583	8.36
888.754	45.23
888.926	-28.5
889.097	114.86
889.268	-24.4
889.44	-16.21
889.611	-16.21
889.782	47.27
889.953	43.18
890.125	45.23
890.296	-59.22
890.467	73.9
890.638	10.41
890.809	73.9
890.98	-18.26
891.151	8.36
891.323	34.99
891.494	37.03
891.665	4.27
891.836	16.55
892.007	37.03
892.178	-79.7
892.349	-34.64
892.52	2.22
892.691	98.47
892.862	49.32
893.032	12.46
893.203	34.99
893.374	71.85
893.545	0.17
893.716	28.84
893.887	49.32
894.057	12.46
894.228	-3.93
894.399	-12.12
894.57	53.42
894.74	34.99
894.911	-22.36
895.082	37.03
895.253	-61.27
895.423	-10.07
895.594	51.37
895.764	-14.17
895.935	2.22
896.106	-1.88
896.276	26.79
896.447	-24.4
896.617	-32.6
896.788	-51.03
896.958	-10.07
897.129	2.22
897.299	20.65
897.47	12.46
897.64	22.7
897.81	-28.5
897.981	125.1
898.151	28.84
898.322	34.99
898.492	-22.36
898.662	-55.12
898.832	30.89
899.003	-14.17
899.173	-8.02
899.343	-20.31
899.513	12.46
