Data from USB4F104151__78__13-12-28-853.txt Node

Date: Fri Mar 14 13:12:28 EDT 2025
User: louis
Spectrometer: USB4F10415
Trigger mode: 4
Integration Time (sec): 2.000000E-2
Scans to average: 1
Electric dark correction enabled: true
Nonlinearity correction enabled: false
Boxcar width: 0
XAxis mode: Wavelengths
Number of Pixels in Spectrum: 3648
>>>>>Begin Spectral Data<<<<<
178.204	-80.21
178.424	-80.21
178.644	-80.21
178.864	-53.59
179.084	-57.68
179.304	-6.49
179.524	-35.16
179.744	-18.77
179.964	40.62
180.184	-8.53
180.404	50.86
180.624	3.75
180.844	24.23
181.064	5.8
181.283	-10.58
181.503	-31.06
181.723	-14.68
181.943	-35.16
182.163	48.81
182.383	24.23
182.602	89.77
182.822	65.19
183.042	3.75
183.262	7.85
183.482	59.05
183.701	50.86
183.921	9.9
184.141	32.43
184.361	-12.63
184.58	-0.34
184.8	59.05
185.02	-10.58
185.239	36.52
185.459	16.04
185.679	38.57
185.898	22.19
186.118	57
186.338	20.14
186.557	67.24
186.777	-6.49
186.997	87.72
187.216	-0.34
187.436	26.28
187.655	-4.44
187.875	75.43
188.095	-65.88
188.314	42.67
188.534	36.52
188.753	-41.3
188.973	16.04
189.192	102.06
189.412	11.95
189.631	87.72
189.851	30.38
190.07	7.85
190.29	-24.92
190.509	52.91
190.729	36.52
190.948	28.33
191.168	106.15
191.387	85.67
191.607	57
191.826	75.43
192.045	-4.44
192.265	18.09
192.484	54.95
192.704	1.71
192.923	-20.82
193.142	-4.44
193.362	24.23
193.581	46.76
193.8	26.28
194.02	48.81
194.239	34.47
194.458	52.91
194.678	7.85
194.897	26.28
195.116	7.85
195.335	77.48
195.555	9.9
195.774	-0.34
195.993	-45.4
196.212	32.43
196.432	28.33
196.651	-22.87
196.87	-6.49
197.089	32.43
197.308	71.34
197.528	22.19
197.747	-86.36
197.966	42.67
198.185	38.57
198.404	30.38
198.623	34.47
198.842	67.24
199.062	71.34
199.281	44.71
199.5	-0.34
199.719	79.53
199.938	116.39
200.157	63.15
200.376	132.78
200.595	18.09
200.814	20.14
201.033	-8.53
201.252	-72.02
201.471	50.86
201.69	24.23
201.909	-4.44
202.128	30.38
202.347	7.85
202.566	57
202.785	16.04
203.004	52.91
203.223	73.39
203.442	-0.34
203.661	63.15
203.879	71.34
204.098	57
204.317	9.9
204.536	63.15
204.755	44.71
204.974	26.28
205.193	65.19
205.411	71.34
205.63	44.71
205.849	1.71
206.068	-61.78
206.287	18.09
206.505	52.91
206.724	65.19
206.943	57
207.162	3.75
207.381	30.38
207.599	28.33
207.818	50.86
208.037	11.95
208.255	-14.68
208.474	32.43
208.693	26.28
208.911	-0.34
209.13	54.95
209.349	-0.34
209.567	-0.34
209.786	67.24
210.005	16.04
210.223	5.8
210.442	-35.16
210.661	116.39
210.879	-67.92
211.098	-8.53
211.316	36.52
211.535	13.99
211.753	16.04
211.972	52.91
212.191	-31.06
212.409	18.09
212.628	-2.39
212.846	-0.34
213.065	57
213.283	83.63
213.502	40.62
213.72	28.33
213.938	-2.39
214.157	69.29
214.375	22.19
214.594	-4.44
214.812	75.43
215.031	87.72
215.249	-0.34
215.467	36.52
215.686	30.38
215.904	114.34
216.122	91.82
216.341	-33.11
216.559	73.39
216.778	44.71
216.996	89.77
217.214	-37.2
217.432	40.62
217.651	32.43
217.869	59.05
218.087	83.63
218.306	-24.92
218.524	24.23
218.742	32.43
218.96	18.09
219.179	40.62
219.397	65.19
219.615	85.67
219.833	9.9
220.051	-6.49
220.27	3.75
220.488	71.34
220.706	36.52
220.924	42.67
221.142	26.28
221.36	57
221.578	20.14
221.796	-41.3
222.015	20.14
222.233	26.28
222.451	54.95
222.669	-65.88
222.887	71.34
223.105	-14.68
223.323	79.53
223.541	-0.34
223.759	42.67
223.977	7.85
224.195	77.48
224.413	1.71
224.631	32.43
224.849	93.87
225.067	97.96
225.285	71.34
225.503	7.85
225.721	-82.26
225.939	34.47
226.157	79.53
226.375	110.25
226.592	34.47
226.81	-98.64
227.028	-41.3
227.246	79.53
227.464	34.47
227.682	59.05
227.9	13.99
228.117	81.58
228.335	77.48
228.553	-74.07
228.771	16.04
228.989	87.72
229.206	11.95
229.424	63.15
229.642	30.38
229.86	13.99
230.077	24.23
230.295	-10.58
230.513	130.73
230.731	48.81
230.948	36.52
231.166	97.96
231.384	5.8
231.601	79.53
231.819	50.86
232.037	44.71
232.254	-20.82
232.472	59.05
232.689	-33.11
232.907	24.23
233.125	22.19
233.342	-16.73
233.56	-51.54
233.777	11.95
233.995	28.33
234.213	126.63
234.43	-45.4
234.648	1.71
234.865	38.57
235.083	36.52
235.3	-8.53
235.518	59.05
235.735	65.19
235.953	57
236.17	79.53
236.388	83.63
236.605	24.23
236.822	34.47
237.04	5.8
237.257	32.43
237.475	42.67
237.692	36.52
237.909	-20.82
238.127	3.75
238.344	50.86
238.562	54.95
238.779	-14.68
238.996	32.43
239.214	57
239.431	-22.87
239.648	38.57
239.865	13.99
240.083	36.52
240.3	9.9
240.517	-16.73
240.735	102.06
240.952	7.85
241.169	91.82
241.386	-8.53
241.603	57
241.821	-16.73
242.038	7.85
242.255	95.91
242.472	-80.21
242.689	57
242.907	59.05
243.124	61.1
243.341	1.71
243.558	40.62
243.775	16.04
243.992	-6.49
244.209	32.43
244.426	120.49
244.643	16.04
244.86	-61.78
245.078	40.62
245.295	-57.68
245.512	67.24
245.729	18.09
245.946	57
246.163	-24.92
246.38	26.28
246.597	16.04
246.814	63.15
247.031	22.19
247.248	73.39
247.464	-0.34
247.681	-33.11
247.898	89.77
248.115	34.47
248.332	28.33
248.549	-8.53
248.766	81.58
248.983	83.63
249.2	38.57
249.417	9.9
249.633	-29.01
249.85	40.62
250.067	97.96
250.284	-29.01
250.501	34.47
250.717	-51.54
250.934	50.86
251.151	63.15
251.368	1.71
251.585	73.39
251.801	18.09
252.018	16.04
252.235	83.63
252.451	3.75
252.668	16.04
252.885	67.24
253.102	97.96
253.318	11.95
253.535	3.75
253.752	22.19
253.968	69.29
254.185	26.28
254.401	9.9
254.618	36.52
254.835	26.28
255.051	73.39
255.268	-6.49
255.484	44.71
255.701	44.71
255.917	24.23
256.134	1.71
256.351	85.67
256.567	42.67
256.784	28.33
257	7.85
257.217	18.09
257.433	89.77
257.65	26.28
257.866	1.71
258.082	59.05
258.299	44.71
258.515	-10.58
258.732	106.15
258.948	-39.25
259.165	40.62
259.381	24.23
259.597	32.43
259.814	104.11
260.03	52.91
260.246	28.33
260.463	57
260.679	28.33
260.895	73.39
261.112	50.86
261.328	57
261.544	-6.49
261.761	155.3
261.977	42.67
262.193	75.43
262.409	57
262.626	32.43
262.842	106.15
263.058	-8.53
263.274	36.52
263.49	44.71
263.707	42.67
263.923	-12.63
264.139	20.14
264.355	59.05
264.571	-8.53
264.787	-33.11
265.004	61.1
265.22	54.95
265.436	48.81
265.652	26.28
265.868	20.14
266.084	3.75
266.3	-16.73
266.516	-8.53
266.732	24.23
266.948	75.43
267.164	11.95
267.38	-6.49
267.596	24.23
267.812	149.16
268.028	48.81
268.244	24.23
268.46	40.62
268.676	69.29
268.892	7.85
269.108	26.28
269.324	-10.58
269.54	52.91
269.756	26.28
269.972	-20.82
270.188	22.19
270.403	-6.49
270.619	155.3
270.835	-29.01
271.051	44.71
271.267	-20.82
271.483	-16.73
271.698	161.45
271.914	16.04
272.13	75.43
272.346	85.67
272.562	69.29
272.777	73.39
272.993	87.72
273.209	-20.82
273.425	75.43
273.64	44.71
273.856	54.95
274.072	48.81
274.287	16.04
274.503	3.75
274.719	73.39
274.934	59.05
275.15	-61.78
275.366	-33.11
275.581	46.76
275.797	-41.3
276.012	59.05
276.228	-26.96
276.444	87.72
276.659	59.05
276.875	11.95
277.09	42.67
277.306	-49.49
277.521	3.75
277.737	112.3
277.952	50.86
278.168	34.47
278.383	38.57
278.599	32.43
278.814	67.24
279.03	20.14
279.245	85.67
279.461	87.72
279.676	32.43
279.892	32.43
280.107	34.47
280.322	38.57
280.538	1.71
280.753	-16.73
280.969	18.09
281.184	28.33
281.399	61.1
281.615	50.86
281.83	75.43
282.045	54.95
282.26	26.28
282.476	63.15
282.691	83.63
282.906	-22.87
283.122	83.63
283.337	32.43
283.552	57
283.767	24.23
283.983	50.86
284.198	-12.63
284.413	50.86
284.628	-57.68
284.843	65.19
285.058	50.86
285.274	22.19
285.489	1.71
285.704	93.87
285.919	48.81
286.134	106.15
286.349	24.23
286.564	40.62
286.779	48.81
286.995	-2.39
287.21	-24.92
287.425	48.81
287.64	46.76
287.855	65.19
288.07	3.75
288.285	73.39
288.5	59.05
288.715	40.62
288.93	36.52
289.145	-8.53
289.36	48.81
289.575	20.14
289.79	65.19
290.004	61.1
290.219	61.1
290.434	40.62
290.649	11.95
290.864	-6.49
291.079	36.52
291.294	110.25
291.509	-16.73
291.724	44.71
291.938	-12.63
292.153	81.58
292.368	16.04
292.583	50.86
292.798	40.62
293.012	-10.58
293.227	22.19
293.442	22.19
293.657	13.99
293.871	89.77
294.086	-61.78
294.301	97.96
294.516	16.04
294.73	85.67
294.945	54.95
295.16	50.86
295.374	-22.87
295.589	122.54
295.804	81.58
296.018	42.67
296.233	20.14
296.447	40.62
296.662	42.67
296.877	5.8
297.091	24.23
297.306	30.38
297.52	-57.68
297.735	24.23
297.949	77.48
298.164	34.47
298.378	77.48
298.593	1.71
298.807	44.71
299.022	32.43
299.236	59.05
299.451	77.48
299.665	-0.34
299.88	126.63
300.094	5.8
300.309	-22.87
300.523	32.43
300.737	24.23
300.952	61.1
301.166	36.52
301.381	-12.63
301.595	7.85
301.809	-12.63
302.024	63.15
302.238	20.14
302.452	26.28
302.667	52.91
302.881	40.62
303.095	40.62
303.309	34.47
303.524	34.47
303.738	44.71
303.952	-12.63
304.166	75.43
304.381	-0.34
304.595	81.58
304.809	20.14
305.023	81.58
305.237	42.67
305.452	34.47
305.666	36.52
305.88	-14.68
306.094	-0.34
306.308	40.62
306.522	40.62
306.736	79.53
306.95	20.14
307.164	106.15
307.379	42.67
307.593	52.91
307.807	3.75
308.021	73.39
308.235	81.58
308.449	-0.34
308.663	-20.82
308.877	83.63
309.091	-8.53
309.305	38.57
309.519	18.09
309.733	-24.92
309.947	36.52
310.161	13.99
310.374	16.04
310.588	75.43
310.802	32.43
311.016	-24.92
311.23	67.24
311.444	-4.44
311.658	71.34
311.872	57
312.085	48.81
312.299	26.28
312.513	61.1
312.727	69.29
312.941	22.19
313.154	32.43
313.368	91.82
313.582	26.28
313.796	-39.25
314.009	-6.49
314.223	104.11
314.437	38.57
314.651	-6.49
314.864	-10.58
315.078	-35.16
315.292	120.49
315.505	42.67
315.719	93.87
315.933	57
316.146	48.81
316.36	46.76
316.573	48.81
316.787	50.86
317.001	48.81
317.214	3.75
317.428	38.57
317.641	-51.54
317.855	87.72
318.068	11.95
318.282	59.05
318.495	52.91
318.709	132.78
318.922	73.39
319.136	65.19
319.349	122.54
319.563	36.52
319.776	30.38
319.99	34.47
320.203	52.91
320.417	69.29
320.63	69.29
320.843	48.81
321.057	-0.34
321.27	1.71
321.483	-18.77
321.697	16.04
321.91	11.95
322.124	36.52
322.337	40.62
322.55	-12.63
322.763	54.95
322.977	16.04
323.19	-51.54
323.403	-14.68
323.617	-24.92
323.83	-12.63
324.043	5.8
324.256	57
324.469	1.71
324.683	118.44
324.896	79.53
325.109	50.86
325.322	1.71
325.535	81.58
325.748	40.62
325.962	11.95
326.175	18.09
326.388	34.47
326.601	85.67
326.814	42.67
327.027	69.29
327.24	73.39
327.453	57
327.666	36.52
327.879	65.19
328.092	67.24
328.305	97.96
328.518	-12.63
328.731	34.47
328.944	40.62
329.157	11.95
329.37	65.19
329.583	104.11
329.796	54.95
330.009	-4.44
330.222	11.95
330.435	30.38
330.648	16.04
330.861	-0.34
331.073	34.47
331.286	48.81
331.499	54.95
331.712	40.62
331.925	32.43
332.138	-35.16
332.35	83.63
332.563	-18.77
332.776	-22.87
332.989	67.24
333.202	-22.87
333.414	-0.34
333.627	81.58
333.84	77.48
334.053	44.71
334.265	59.05
334.478	-12.63
334.691	100.01
334.903	44.71
335.116	16.04
335.329	61.1
335.541	11.95
335.754	52.91
335.966	34.47
336.179	-10.58
336.392	52.91
336.604	93.87
336.817	54.95
337.029	38.57
337.242	22.19
337.454	-4.44
337.667	73.39
337.88	-22.87
338.092	65.19
338.305	77.48
338.517	5.8
338.729	28.33
338.942	79.53
339.154	38.57
339.367	16.04
339.579	73.39
339.792	42.67
340.004	65.19
340.217	48.81
340.429	11.95
340.641	52.91
340.854	-49.49
341.066	65.19
341.278	50.86
341.491	36.52
341.703	20.14
341.915	40.62
342.128	77.48
342.34	40.62
342.552	36.52
342.764	52.91
342.977	50.86
343.189	-51.54
343.401	-29.01
343.613	28.33
343.826	3.75
344.038	-12.63
344.25	7.85
344.462	65.19
344.674	106.15
344.886	-6.49
345.099	52.91
345.311	42.67
345.523	69.29
345.735	-26.96
345.947	32.43
346.159	24.23
346.371	61.1
346.583	18.09
346.795	102.06
347.007	73.39
347.219	77.48
347.431	16.04
347.643	48.81
347.855	24.23
348.067	97.96
348.279	5.8
348.491	61.1
348.703	36.52
348.915	71.34
349.127	59.05
349.339	7.85
349.551	87.72
349.763	63.15
349.975	-14.68
350.187	34.47
350.399	61.1
350.61	16.04
350.822	-16.73
351.034	50.86
351.246	106.15
351.458	50.86
351.669	40.62
351.881	165.54
352.093	67.24
352.305	57
352.517	93.87
352.728	36.52
352.94	-22.87
353.152	28.33
353.363	3.75
353.575	52.91
353.787	16.04
353.999	106.15
354.21	48.81
354.422	-10.58
354.633	-6.49
354.845	28.33
355.057	77.48
355.268	11.95
355.48	40.62
355.692	11.95
355.903	100.01
356.115	83.63
356.326	46.76
356.538	81.58
356.749	65.19
356.961	16.04
357.172	-10.58
357.384	-2.39
357.595	108.2
357.807	-24.92
358.018	73.39
358.23	110.25
358.441	112.3
358.653	122.54
358.864	16.04
359.075	69.29
359.287	16.04
359.498	89.77
359.709	20.14
359.921	44.71
360.132	54.95
360.344	57
360.555	28.33
360.766	13.99
360.977	30.38
361.189	18.09
361.4	-8.53
361.611	61.1
361.823	67.24
362.034	81.58
362.245	83.63
362.456	32.43
362.667	65.19
362.879	-0.34
363.09	69.29
363.301	7.85
363.512	18.09
363.723	16.04
363.935	50.86
364.146	50.86
364.357	-0.34
364.568	-8.53
364.779	3.75
364.99	97.96
365.201	7.85
365.412	67.24
365.623	18.09
365.834	65.19
366.045	89.77
366.256	97.96
366.467	44.71
366.678	26.28
366.889	50.86
367.1	-0.34
367.311	75.43
367.522	32.43
367.733	-18.77
367.944	59.05
368.155	16.04
368.366	102.06
368.577	85.67
368.788	-4.44
368.999	7.85
369.209	57
369.42	85.67
369.631	65.19
369.842	73.39
370.053	67.24
370.264	138.92
370.474	48.81
370.685	91.82
370.896	28.33
371.107	61.1
371.317	69.29
371.528	63.15
371.739	85.67
371.95	81.58
372.16	50.86
372.371	81.58
372.582	50.86
372.792	16.04
373.003	32.43
373.214	89.77
373.424	36.52
373.635	-26.96
373.846	102.06
374.056	32.43
374.267	61.1
374.477	91.82
374.688	48.81
374.898	102.06
375.109	32.43
375.319	50.86
375.53	65.19
375.74	1.71
375.951	75.43
376.161	36.52
376.372	67.24
376.582	-35.16
376.793	42.67
377.003	67.24
377.214	50.86
377.424	44.71
377.635	36.52
377.845	46.76
378.055	61.1
378.266	34.47
378.476	40.62
378.686	42.67
378.897	16.04
379.107	46.76
379.317	138.92
379.528	48.81
379.738	36.52
379.948	118.44
380.158	73.39
380.369	81.58
380.579	22.19
380.789	9.9
380.999	73.39
381.21	93.87
381.42	32.43
381.63	20.14
381.84	87.72
382.05	69.29
382.261	42.67
382.471	26.28
382.681	18.09
382.891	32.43
383.101	118.44
383.311	32.43
383.521	22.19
383.731	73.39
383.941	75.43
384.151	-8.53
384.361	32.43
384.571	24.23
384.781	97.96
384.991	40.62
385.201	89.77
385.411	52.91
385.621	38.57
385.831	-22.87
386.041	42.67
386.251	57
386.461	128.68
386.671	-10.58
386.881	97.96
387.091	114.34
387.301	5.8
387.511	75.43
387.72	106.15
387.93	108.2
388.14	26.28
388.35	48.81
388.56	26.28
388.769	87.72
388.979	112.3
389.189	32.43
389.399	59.05
389.609	-16.73
389.818	75.43
390.028	32.43
390.238	42.67
390.447	28.33
390.657	59.05
390.867	83.63
391.076	61.1
391.286	81.58
391.496	73.39
391.705	69.29
391.915	34.47
392.125	89.77
392.334	100.01
392.544	95.91
392.753	106.15
392.963	48.81
393.172	77.48
393.382	32.43
393.591	13.99
393.801	9.9
394.01	112.3
394.22	97.96
394.429	67.24
394.639	93.87
394.848	32.43
395.058	38.57
395.267	57
395.477	59.05
395.686	128.68
395.895	116.39
396.105	114.34
396.314	71.34
396.524	22.19
396.733	108.2
396.942	30.38
397.152	63.15
397.361	100.01
397.57	89.77
397.78	89.77
397.989	147.11
398.198	108.2
398.407	71.34
398.617	106.15
398.826	83.63
399.035	102.06
399.244	18.09
399.453	104.11
399.663	108.2
399.872	143.02
400.081	40.62
400.29	69.29
400.499	40.62
400.708	108.2
400.917	46.76
401.127	151.21
401.336	-0.34
401.545	132.78
401.754	97.96
401.963	124.58
402.172	95.91
402.381	57
402.59	69.29
402.799	126.63
403.008	83.63
403.217	122.54
403.426	130.73
403.635	114.34
403.844	151.21
404.053	97.96
404.262	69.29
404.471	208.55
404.68	114.34
404.888	122.54
405.097	147.11
405.306	138.92
405.515	120.49
405.724	112.3
405.933	134.82
406.142	138.92
406.35	97.96
406.559	212.65
406.768	188.07
406.977	120.49
407.185	140.97
407.394	183.98
407.603	183.98
407.812	163.5
408.02	233.13
408.229	202.41
408.438	249.51
408.646	224.94
408.855	198.31
409.064	251.56
409.272	212.65
409.481	278.18
409.69	202.41
409.898	247.46
410.107	251.56
410.315	253.61
410.524	167.59
410.733	306.85
410.941	231.08
411.15	294.57
411.358	243.37
411.567	329.38
411.775	231.08
411.984	331.43
412.192	337.57
412.401	351.91
412.609	384.68
412.818	399.01
413.026	386.72
413.234	401.06
413.443	409.25
413.651	515.75
413.86	437.92
414.068	528.03
414.276	546.47
414.485	583.33
414.693	589.47
414.901	601.76
415.11	609.95
415.318	566.95
415.526	585.38
415.734	738.98
415.943	657.06
416.151	700.06
416.359	687.78
416.567	687.78
416.776	712.35
416.984	827.04
417.192	773.79
417.4	724.64
417.608	794.27
417.817	876.19
418.025	863.9
418.233	990.88
418.441	902.81
418.649	986.78
418.857	1027.74
419.065	1058.46
419.273	1042.07
419.481	1167
419.689	1210.01
419.897	1212.06
420.105	1310.36
420.313	1384.09
420.521	1279.64
420.729	1365.65
420.937	1412.76
421.145	1451.67
421.353	1535.64
421.561	1607.31
421.769	1568.4
421.977	1672.85
422.185	1621.65
422.393	1722
422.601	1818.25
422.809	1918.61
423.017	1908.37
423.224	1926.8
423.432	1998.48
423.64	2115.21
423.848	2217.61
424.056	2127.5
424.263	2322.06
424.471	2317.96
424.679	2289.29
424.887	2565.76
425.094	2528.9
425.302	2582.15
425.51	2541.19
425.718	2719.36
425.925	2653.83
426.133	2715.27
426.341	3079.8
426.548	3178.11
426.756	3192.44
426.964	3151.48
427.171	3391.09
427.379	3511.93
427.586	3530.36
427.794	3640.95
428.001	4005.49
428.209	3999.34
428.417	3841.65
428.624	4128.36
428.832	4191.85
429.039	4028.01
429.247	4265.58
429.454	4546.15
429.662	4888.16
429.869	4540.01
430.076	5002.85
430.284	4632.16
430.491	4877.92
430.699	5232.22
430.906	5232.22
431.114	5328.47
431.321	5416.54
431.528	5563.99
431.736	5914.19
431.943	6381.13
432.15	6035.02
432.358	6045.26
432.565	6479.43
432.772	6510.15
432.979	6749.76
433.187	6766.15
433.394	7009.86
433.601	7448.12
433.808	7388.73
434.016	7286.33
434.223	7622.2
434.43	8080.94
434.637	8003.12
434.844	8601.13
435.052	8795.68
435.259	8556.07
435.466	8637.99
435.673	8513.06
435.88	9340.44
436.087	9747.99
436.294	9575.96
436.501	9545.24
436.708	9647.64
436.915	9965.07
437.122	10360.33
437.329	10313.23
437.537	10642.95
437.743	10780.17
437.95	10688.01
438.157	11329.02
438.364	11750.9
438.571	11832.82
438.778	11822.58
438.985	13057.51
439.192	12111.35
439.399	13053.41
439.606	12664.3
439.813	13241.82
440.02	13960.66
440.227	13876.69
440.433	13487.58
440.64	14067.16
440.847	13991.38
441.054	14165.46
441.261	15146.44
441.467	15095.24
441.674	15330.75
441.881	16080.31
442.088	15904.18
442.294	15889.85
442.501	16106.93
442.708	16573.87
442.914	17317.28
443.121	17913.24
443.328	17501.6
443.534	18664.85
443.741	18077.08
443.948	17952.15
444.154	19010.95
444.361	19019.14
444.568	19127.69
444.774	19269
444.981	19467.65
445.187	19940.73
445.394	20872.56
445.6	20794.73
445.807	22881.61
446.013	21511.52
446.22	21984.6
446.426	22922.57
446.633	23293.26
446.839	23983.42
447.046	23115.08
447.252	24018.24
447.459	24454.45
447.665	23921.98
447.871	25341.22
448.078	26342.68
448.284	25152.81
448.491	25808.16
448.697	26828.05
448.903	27458.82
449.11	27198.73
449.316	27084.05
449.522	27577.61
449.728	28136.7
449.935	28617.97
450.141	28491
450.347	29504.74
450.553	28134.65
450.76	28708.08
450.966	29451.5
451.172	29199.6
451.378	29863.14
451.584	29494.5
451.791	30110.94
451.997	30074.08
452.203	30665.94
452.409	30778.58
452.615	30520.54
452.821	29361.39
453.027	29162.73
453.233	30663.89
453.44	29666.53
453.646	29621.48
453.852	29820.13
454.058	30491.87
454.264	29621.48
454.47	30188.77
454.676	29281.52
454.882	30428.38
455.088	27897.09
455.294	28288.25
455.5	28685.56
455.705	28804.34
455.911	28046.59
456.117	27512.07
456.323	26998.03
456.529	25619.75
456.735	26699.03
456.941	25888.03
457.147	25279.78
457.352	24997.17
457.558	24671.54
457.764	24782.13
457.97	24243.51
458.176	23844.16
458.381	23633.22
458.587	22467.92
458.793	22590.8
458.999	21701.98
459.204	23225.67
459.41	22105.43
459.616	20860.27
459.821	20655.47
460.027	20831.6
460.233	20413.81
460.438	19408.26
460.644	19547.52
460.85	18939.27
461.055	18644.37
461.261	18468.24
461.466	17055.14
461.672	16473.52
461.878	17769.88
462.083	16629.16
462.289	16324.02
462.494	15807.93
462.7	15187.39
462.905	14908.87
463.111	15379.9
463.316	15365.57
463.522	15121.86
463.727	15271.36
463.932	15185.35
464.138	15033.8
464.343	14867.91
464.549	14550.48
464.754	15007.17
464.959	15017.41
465.165	14792.14
465.37	14073.3
465.575	13641.18
465.781	14378.45
465.986	14339.54
466.191	13821.4
466.397	13669.85
466.602	13258.21
466.807	13602.27
467.012	13499.87
467.218	13540.83
467.423	13168.1
467.628	13491.68
467.833	13979.09
468.038	13327.84
468.244	12860.9
468.449	13438.43
468.654	13110.75
468.859	13143.52
469.064	12991.97
469.269	12469.74
469.474	12508.65
469.679	12959.2
469.885	12344.81
470.09	12484.08
470.295	12484.08
470.5	12226.03
470.705	12373.49
470.91	12064.24
471.115	11984.37
471.32	12107.25
471.525	12019.19
471.73	11744.76
471.935	11851.25
472.139	11286.01
472.344	11642.36
472.549	11191.81
472.754	11220.48
472.959	11050.5
473.164	10907.14
473.369	10841.61
473.574	11003.39
473.778	11013.63
473.983	10862.08
474.188	10894.85
474.393	10346
474.598	10329.61
474.802	10331.66
475.007	10251.79
475.212	10071.57
475.417	9672.22
475.621	9905.68
475.826	9829.91
476.031	9877.01
476.235	9414.17
476.44	9588.25
476.645	9401.88
476.849	9444.89
477.054	9473.56
477.259	9074.21
477.463	9285.15
477.668	8994.34
477.872	9186.85
478.077	8994.34
478.282	8484.39
478.486	8717.86
478.691	8726.05
478.895	8650.28
479.1	8584.74
479.304	8615.46
479.509	8275.5
479.713	8429.1
479.918	8230.45
480.122	8119.85
480.326	8140.33
480.531	8199.73
480.735	8158.77
480.94	8162.86
481.144	8347.18
481.348	7822.9
481.553	8132.14
481.757	7726.64
481.961	7892.53
482.166	8003.12
482.37	8005.17
482.574	7812.66
482.778	8173.1
482.983	7902.77
483.187	8021.55
483.391	7849.52
483.595	7761.46
483.8	7790.13
484.004	7718.45
484.208	7812.66
484.412	8068.66
484.616	7921.2
484.821	7986.74
485.025	7827
485.229	8162.86
485.433	7759.41
485.637	7779.89
485.841	7710.26
486.045	7777.84
486.249	7847.47
486.453	7757.36
486.657	7915.06
486.861	7964.21
487.065	7734.84
487.269	7808.56
487.473	7898.67
487.677	7765.56
487.881	7941.68
488.085	7855.67
488.289	7820.85
488.493	7747.12
488.697	8015.41
488.901	8031.79
489.105	7888.43
489.309	8021.55
489.512	8054.32
489.716	8021.55
489.92	7992.88
490.124	7999.02
490.328	8201.77
490.531	7921.2
490.735	8015.41
490.939	8107.57
491.143	8027.7
491.346	8082.99
491.55	8175.15
491.754	8185.39
491.958	8322.6
492.161	8216.11
492.365	8142.38
492.569	8238.64
492.772	8177.2
492.976	8257.07
493.18	8341.04
493.383	8429.1
493.587	8779.3
493.79	8554.02
493.994	8486.44
494.197	8652.33
494.401	8764.96
494.605	8617.51
494.808	8789.54
495.012	8828.45
495.215	8814.12
495.419	9082.4
495.622	8891.94
495.825	8973.86
496.029	9000.48
496.232	9115.17
496.436	9266.72
496.639	9455.13
496.843	9240.09
497.046	9686.55
497.249	9674.26
497.453	9590.3
497.656	9678.36
497.859	9895.44
498.063	9944.59
498.266	10128.91
498.469	10028.56
498.673	10030.61
498.876	10337.8
499.079	10356.24
499.282	10475.02
499.485	10716.68
499.689	10542.6
499.892	10776.07
500.095	10876.42
500.298	11202.05
500.501	11013.63
500.705	11206.14
500.908	11296.25
501.111	11570.68
501.314	11806.2
501.517	11812.34
501.72	11838.97
501.923	11845.11
502.126	12160.5
502.329	12361.2
502.532	12328.43
502.735	12516.84
502.938	12776.94
503.141	12727.78
503.344	13092.32
503.547	13018.6
503.75	13159.91
503.953	13585.88
504.156	13460.96
504.359	13684.19
504.562	13733.34
504.765	14081.49
504.968	13983.19
505.17	14200.27
505.373	14274
505.576	14513.61
505.779	14751.18
505.982	14503.37
506.185	15195.59
506.387	15070.66
506.59	15168.96
506.793	15596.99
506.996	15392.19
507.198	15779.26
507.401	15750.59
507.604	16008.63
507.807	16244.15
508.009	16405.94
508.212	16532.91
508.415	16422.32
508.617	16829.87
508.82	17145.25
509.022	16901.54
509.225	17259.94
509.428	17491.36
509.63	17612.19
509.833	17894.81
510.035	18175.38
510.238	17960.34
510.44	18220.44
510.643	18537.87
510.845	18679.18
511.048	18566.54
511.25	18855.31
511.453	18929.03
511.655	19365.25
511.858	19283.33
512.06	19398.02
512.262	19717.5
512.465	19764.61
512.667	20239.73
512.87	20198.77
513.072	20348.28
513.274	20477.3
513.477	20628.85
513.679	21028.2
513.881	21065.07
514.084	21601.63
514.286	21552.48
514.488	21683.55
514.69	22252.89
514.893	22275.41
515.095	22422.87
515.297	22504.79
515.499	22865.23
515.701	22826.32
515.904	23184.71
516.106	23096.65
516.308	23553.35
516.51	23717.18
516.712	24038.72
516.914	24239.42
517.116	24397.11
517.318	24491.32
517.52	24546.61
517.722	24685.87
517.925	25236.78
518.127	25437.48
518.329	25537.83
518.531	25410.85
518.733	26074.4
518.935	26189.08
519.136	26113.31
519.338	26604.82
519.54	26688.79
519.742	26766.61
519.944	27153.68
520.146	27104.53
520.348	27491.59
520.55	27766.02
520.752	27499.78
520.954	28179.71
521.155	28237.05
521.357	28546.3
521.559	28755.19
521.761	29052.14
521.963	29205.74
522.164	29234.41
522.366	29185.26
522.568	29125.87
522.77	29623.53
522.971	30061.79
523.173	29940.96
523.375	29934.82
523.576	29986.02
523.778	30420.19
523.98	30799.06
524.181	30751.96
524.383	30825.68
524.584	31114.45
524.786	31216.85
524.988	31202.51
525.189	31620.3
525.391	31720.65
525.592	31761.61
525.794	32160.96
525.995	32271.55
526.197	32238.78
526.398	32277.69
526.6	32564.41
526.801	32191.68
527.003	32672.95
527.204	32625.85
527.406	33088.69
527.607	32935.09
527.808	33156.27
528.01	32726.2
528.211	33037.49
528.412	33707.18
528.614	33475.76
528.815	33373.36
529.016	33379.5
529.218	33547.43
529.419	33535.15
529.62	33711.27
529.822	33762.47
530.023	33762.47
530.224	33963.17
530.425	33971.36
530.626	33604.78
530.828	33698.98
531.029	34063.52
531.23	34018.47
531.431	34196.64
531.632	34030.76
531.833	33979.56
532.035	33924.26
532.236	34542.75
532.437	34655.39
532.638	34043.04
532.839	34282.66
533.04	34475.16
533.241	34221.22
533.442	34831.51
533.643	34657.43
533.844	34569.37
534.045	34649.24
534.246	34407.58
534.447	34907.29
534.648	34466.97
534.849	34469.02
535.05	33948.84
535.251	34538.65
535.451	34456.73
535.652	34919.57
535.853	34522.27
536.054	34552.99
536.255	34544.8
536.456	34176.16
536.657	35134.61
536.857	34815.13
537.058	34473.12
537.259	35052.69
537.46	34802.84
537.66	34524.32
537.861	34618.52
538.062	34589.85
538.263	34735.26
538.463	34606.23
538.664	34720.92
538.865	34913.43
539.065	34426.01
539.266	34442.4
539.466	35009.68
539.667	34378.91
539.868	34665.63
540.068	34489.5
540.269	34622.62
540.469	34944.15
540.67	34684.06
540.87	34524.32
541.071	34788.5
541.271	34260.13
541.472	34233.5
541.672	34370.72
541.873	34262.18
542.073	34143.39
542.274	34651.29
542.474	34587.8
542.675	34301.09
542.875	34665.63
543.075	34733.21
543.276	34264.22
543.476	34770.07
543.676	34262.18
543.877	34581.66
544.077	34555.04
544.277	34104.48
544.478	34329.76
544.678	34147.49
544.878	34335.9
545.078	34401.44
545.279	34004.13
545.479	34360.48
545.679	34186.4
545.879	34186.4
546.079	34456.73
546.28	34301.09
546.48	34178.21
546.68	34337.95
546.88	34149.54
547.08	33741.99
547.28	34208.93
547.48	33971.36
547.68	34352.29
547.88	34333.85
548.081	34340
548.281	34282.66
548.481	34104.48
548.681	34399.39
548.881	34200.74
549.081	34266.27
549.28	34108.58
549.48	34438.3
549.68	34202.78
549.88	34604.19
550.08	34401.44
550.28	34387.1
550.48	34000.04
550.68	34159.78
550.88	34253.98
551.08	33885.35
551.279	34057.38
551.479	34018.47
551.679	33889.45
551.879	33911.97
552.079	34129.06
552.278	33625.26
552.478	34069.67
552.678	33754.28
552.878	34170.02
553.077	33934.5
553.277	33825.96
553.477	33995.94
553.676	34045.09
553.876	33541.29
554.076	33666.22
554.275	33557.67
554.475	33641.64
554.674	33711.27
554.874	33891.49
555.074	33436.84
555.273	33596.59
555.473	33793.19
555.672	33352.88
555.872	33496.24
556.071	33551.53
556.271	33631.4
556.47	33381.55
556.67	33131.7
556.869	33125.55
557.068	33260.72
557.268	33295.53
557.467	33299.63
557.667	33105.07
557.866	33332.4
558.065	33098.93
558.265	32928.95
558.464	33410.22
558.663	33572.01
558.863	32783.54
559.062	33189.04
559.261	32908.47
559.461	33154.22
559.66	32660.66
559.859	32838.84
560.058	32746.68
560.258	32906.42
560.457	32570.55
560.656	32812.21
560.855	32296.13
561.054	32752.82
561.253	32517.31
561.453	32378.04
561.652	32488.63
561.851	32701.62
562.05	32244.93
562.249	32255.17
562.448	32677.05
562.647	32341.18
562.846	32085.19
563.045	32455.87
563.244	32015.55
563.443	32234.69
563.642	31812.81
563.841	32038.08
564.04	31843.52
564.239	32148.67
564.438	31825.09
564.637	31743.17
564.836	31569.1
565.035	31366.35
565.234	31730.89
565.432	31503.56
565.631	31524.04
565.83	31675.59
566.029	31419.6
566.228	31368.4
566.427	31306.96
566.625	31079.63
566.824	30835.92
567.023	31399.12
567.222	30721.24
567.42	31171.79
567.619	31145.17
567.818	30780.63
568.016	30737.62
568.215	30923.99
568.414	30584.02
568.612	30979.28
568.811	30459.1
569.01	30758.1
569.208	30387.42
569.407	30328.03
569.605	30174.43
569.804	30590.17
570.002	30215.39
570.201	30364.89
570.4	30368.99
570.598	29957.35
570.797	29725.93
570.995	29973.73
571.193	29773.03
571.392	30086.37
571.59	29578.47
571.789	29650.15
571.987	29447.4
572.186	29510.89
572.384	29449.45
572.582	29664.49
572.781	29578.47
572.979	28980.46
573.177	29037.81
573.376	29295.85
573.574	29033.71
573.772	29195.5
573.971	28857.59
574.169	28685.56
574.367	28835.06
574.565	29154.54
574.763	28617.97
574.962	28642.55
575.16	28153.09
575.358	28718.32
575.556	28298.49
575.754	28660.98
575.952	27948.29
576.151	28501.24
576.349	27925.76
576.547	28065.02
576.745	28171.52
576.943	27802.88
577.141	27962.62
577.339	28249.34
577.537	27774.21
577.735	27819.27
577.933	27632.9
578.131	27643.14
578.329	27413.77
578.527	27294.99
578.725	27395.34
578.923	27645.19
579.121	27366.67
579.319	26893.58
579.516	27630.85
579.714	27403.53
579.912	26969.36
580.11	27208.97
580.308	27217.16
580.506	26742.03
580.704	26549.53
580.901	26834.19
581.099	26907.92
581.297	26600.72
581.495	26215.71
581.692	26555.67
581.89	26000.67
582.088	26572.05
582.285	26246.43
582.483	26371.35
582.681	26322.2
582.878	26389.78
583.076	26033.44
583.274	26158.36
583.471	25797.92
583.669	26055.97
583.866	25623.84
584.064	25937.18
584.262	25523.49
584.459	25677.09
584.657	25439.53
584.854	25820.45
585.052	25283.88
585.249	25828.64
585.447	25445.67
585.644	24882.48
585.841	25400.62
586.039	25425.19
586.236	24997.17
586.434	25019.69
586.631	25269.55
586.828	25101.61
587.026	24937.77
587.223	24878.38
587.42	24270.14
587.618	24532.28
587.815	24507.7
588.012	24698.16
588.21	24540.47
588.407	24696.11
588.604	24307
588.801	24091.96
588.999	24235.32
589.196	24218.94
589.393	24089.92
589.59	23850.3
589.787	23878.97
589.984	23706.94
590.182	23786.82
590.379	24069.44
590.576	23465.28
590.773	23465.28
590.97	23409.99
591.167	23799.1
591.364	23078.22
591.561	23418.18
591.758	23379.27
591.955	23108.94
592.152	23543.11
592.349	23190.86
592.546	23223.62
592.743	23082.31
592.94	22670.67
593.137	23002.44
593.334	23170.38
593.531	22758.74
593.727	22803.79
593.924	22666.58
594.121	22406.48
594.318	22779.22
594.515	22406.48
594.712	22506.84
594.908	22252.89
595.105	22394.2
595.302	22191.45
595.499	22570.32
595.696	22056.28
595.892	21788
596.089	22193.5
596.286	22097.24
596.482	22005.08
596.679	21704.03
596.876	21736.8
597.072	21654.88
597.269	21632.35
597.466	21464.42
597.662	21529.95
597.859	21214.57
598.055	21288.29
598.252	21187.94
598.448	21321.06
598.645	21206.38
598.841	20942.19
599.038	21044.59
599.234	20884.84
599.431	20694.38
599.627	20784.49
599.824	21001.58
600.02	20544.88
600.217	20696.43
600.413	20624.75
600.609	20297.08
600.806	20282.74
601.002	20577.65
601.198	20163.96
601.395	20153.72
601.591	20069.75
601.787	20249.97
601.984	20014.46
602.18	20200.82
602.376	19803.52
602.572	19981.69
602.769	20036.98
602.965	19875.2
603.161	19860.86
603.357	19834.24
603.553	19533.18
603.75	19819.9
603.946	19637.63
604.142	19518.85
604.338	19199.37
604.534	19326.34
604.73	19244.42
604.926	19346.82
605.122	19099.02
605.318	18988.42
605.514	18656.65
605.71	18894.22
605.906	19176.84
606.102	18904.46
606.298	18814.35
606.494	18787.72
606.69	18828.68
606.886	18783.63
607.082	18546.06
607.278	18853.26
607.474	18324.88
607.67	18685.33
607.866	18365.84
608.062	18720.14
608.257	18300.31
608.453	18398.61
608.649	18726.28
608.845	18288.02
609.041	18097.56
609.236	18261.4
609.432	18527.63
609.628	18224.53
609.824	18204.05
610.019	18056.6
610.215	17765.79
610.411	18159
610.606	18032.02
610.802	17757.6
610.998	17921.43
611.193	17845.66
611.389	17753.5
611.584	17937.82
611.78	17419.68
611.976	17708.44
612.171	17857.95
612.367	17825.18
612.562	17393.06
612.758	17640.86
612.953	17399.2
613.149	17626.53
613.344	17198.5
613.539	17677.72
613.735	17640.86
613.93	17368.48
614.126	17423.78
614.321	17532.32
614.517	17513.89
614.712	17386.91
614.907	17165.73
615.103	17493.41
615.298	17204.64
615.493	17212.84
615.688	17094.05
615.884	17280.42
616.079	17165.73
616.274	17261.99
616.47	17024.42
616.665	16743.85
616.86	16856.49
617.055	16790.95
617.25	16750
617.445	16936.36
617.641	16475.57
617.836	16633.26
618.031	16524.72
618.226	17018.28
618.421	16520.62
618.616	16709.04
618.811	16475.57
619.006	16637.36
619.201	16096.69
619.396	16330.16
619.591	16201.14
619.786	16264.63
619.981	15967.67
620.176	16070.07
620.371	15873.46
620.566	15959.48
620.761	15783.35
620.956	15930.81
621.151	15803.83
621.346	15922.62
621.541	15490.49
621.735	15646.14
621.93	15547.84
622.125	15408.58
622.32	15117.76
622.515	15134.15
622.709	15119.81
622.904	15039.94
623.099	14976.45
623.294	14824.9
623.488	14859.72
623.683	15037.89
623.878	14380.5
624.072	14661.07
624.267	14699.98
624.462	14452.17
624.656	14390.74
624.851	14321.1
625.046	14400.97
625.24	14247.38
625.435	14132.69
625.629	14155.22
625.824	14081.49
626.018	13909.46
626.213	13729.24
626.407	13792.73
626.602	13489.63
626.796	13749.72
626.991	13477.34
627.185	13368.8
627.38	13184.48
627.574	13270.5
627.768	13112.8
627.963	13282.78
628.157	12994.02
628.352	13288.93
628.546	12656.11
628.74	12932.58
628.935	12656.11
629.129	12729.83
629.323	12688.87
629.517	12680.68
629.712	12672.49
629.906	12658.15
630.1	12266.99
630.294	12140.02
630.489	12256.75
630.683	12545.52
630.877	12295.66
631.071	12068.34
631.265	12045.81
631.459	11859.45
631.653	11886.07
631.848	12011
632.042	11843.06
632.236	11804.15
632.43	11593.21
632.624	11789.81
632.818	11554.3
633.012	11636.22
633.206	11449.85
633.4	11294.21
633.594	11122.18
633.788	11193.86
633.982	11423.23
634.176	11236.86
634.369	11312.64
634.563	11298.3
634.757	10980.87
634.951	10862.08
635.145	10952.2
635.339	10886.66
635.533	10849.8
635.726	11027.97
635.92	10620.42
636.114	10741.25
636.308	10522.12
636.501	10565.13
636.695	10610.18
636.889	10407.44
637.083	10348.04
637.276	10429.96
637.47	10145.3
637.664	10210.83
637.857	10268.17
638.051	10173.97
638.244	9983.51
638.438	10073.62
638.632	10065.43
638.825	9854.48
639.019	9969.17
639.212	9821.72
639.406	9717.27
639.599	9866.77
639.793	9793.05
639.986	9483.8
640.18	9700.89
640.373	9547.29
640.567	9625.11
640.76	9401.88
640.954	9338.4
641.147	9215.52
641.34	9084.45
641.534	9383.45
641.727	9057.82
641.92	9186.85
642.114	9201.18
642.307	9076.26
642.5	8900.13
642.694	8967.71
642.887	9102.88
643.08	9070.11
643.273	8898.08
643.467	8703.53
643.66	8801.83
643.853	8666.66
644.046	8468.01
644.239	8633.89
644.432	8353.32
644.626	8463.91
644.819	8336.94
645.012	8478.25
645.205	8402.47
645.398	8111.66
645.591	8293.93
645.784	8134.19
645.977	8121.9
646.17	8175.15
646.363	8037.94
646.556	8072.75
646.749	8056.37
646.942	8082.99
647.135	7915.06
647.328	8013.36
647.521	7872.05
647.714	7700.02
647.907	7769.65
648.099	7712.31
648.292	7851.57
648.485	7681.59
648.678	7562.81
648.871	7388.73
649.064	7542.33
649.256	7544.38
649.449	7421.5
649.642	7407.16
649.835	7407.16
650.027	7339.58
650.22	7302.72
650.413	7245.37
650.605	7251.52
650.798	7231.04
650.991	7241.28
651.183	7153.21
651.376	6991.42
651.568	7183.93
651.761	7159.36
651.954	6987.33
652.146	6989.38
652.339	7020.1
652.531	6985.28
652.724	6805.06
652.916	6749.76
653.109	6653.51
653.301	6798.91
653.494	6764.1
653.686	6657.61
653.879	6923.84
654.071	6561.35
654.263	6415.94
654.456	6495.82
654.648	6620.74
654.84	6225.48
655.033	6493.77
655.225	6264.4
655.417	6372.94
655.61	6266.44
655.802	6465.1
655.994	6274.63
656.186	6192.72
656.379	6184.52
656.571	6139.47
656.763	6125.13
656.955	6065.74
657.148	6037.07
657.34	5998.16
657.532	6032.97
657.724	5914.19
657.916	5836.37
658.108	5949.01
658.3	5834.32
658.492	5758.55
658.684	5805.65
658.876	5791.31
659.068	5799.51
659.26	5756.5
659.452	5789.27
659.644	5707.35
659.836	5586.52
660.028	5756.5
660.22	5496.41
660.412	5613.14
660.604	5496.41
660.796	5428.82
660.988	5482.07
661.18	5449.3
661.372	5381.72
661.563	5332.57
661.755	5594.71
661.947	5414.49
662.139	5357.14
662.331	5232.22
662.522	5258.84
662.714	5191.26
662.906	5260.89
663.097	5154.4
663.289	5131.87
663.481	5162.59
663.673	4974.17
663.864	5047.9
664.056	4978.27
664.247	4929.12
664.439	4908.64
664.631	5056.09
664.822	4929.12
665.014	4879.97
665.205	4857.44
665.397	4941.41
665.588	4705.89
665.78	4726.37
665.971	4707.94
666.163	4804.19
666.354	4664.93
666.546	4744.8
666.737	4722.27
666.929	4351.59
667.12	4685.41
667.311	4791.91
667.503	4611.68
667.694	4521.57
667.885	4507.24
668.077	4507.24
668.268	4466.28
668.459	4404.84
668.651	4372.07
668.842	4343.4
669.033	4429.42
669.224	4324.97
669.416	4419.18
669.607	4396.65
669.798	4345.45
669.989	4349.54
670.18	4417.13
670.371	4249.19
670.563	4238.95
670.754	4273.77
670.945	4212.33
671.136	4093.55
671.327	4132.46
671.518	4214.38
671.709	4132.46
671.9	4167.28
672.091	4013.68
672.282	4103.79
672.473	4077.16
672.664	4038.25
672.855	4005.49
673.046	4068.97
673.237	4171.37
673.428	4009.58
673.619	3913.33
673.809	3837.55
674	3935.85
674.191	3888.75
674.382	3950.19
674.573	3896.94
674.764	3821.17
674.954	3806.83
675.145	3874.42
675.336	3737.2
675.527	3710.58
675.717	3866.22
675.908	3819.12
676.099	3677.81
676.289	3776.11
676.48	3647.09
676.671	3686
676.861	3704.43
677.052	3612.28
677.243	3563.12
677.433	3698.29
677.624	3610.23
677.814	3692.15
678.005	3407.48
678.195	3448.44
678.386	3595.89
678.576	3612.28
678.767	3452.53
678.957	3573.36
679.148	3563.12
679.338	3507.83
679.529	3425.91
679.719	3339.9
679.909	3448.44
680.1	3528.31
680.29	3300.98
680.481	3366.52
680.671	3380.86
680.861	3387
681.052	3366.52
681.242	3329.66
681.432	3333.75
681.622	3303.03
681.813	3343.99
682.003	3196.54
682.193	3257.98
682.383	3343.99
682.573	3161.72
682.764	3350.14
682.954	3292.79
683.144	3251.83
683.334	3157.63
683.524	3212.92
683.714	3163.77
683.904	3208.83
684.094	3221.11
684.284	3104.38
684.474	3286.65
684.664	3106.43
684.854	3137.15
685.044	3112.57
685.234	3102.33
685.424	3104.38
685.614	2924.16
685.804	3051.13
685.994	3085.95
686.184	3155.58
686.374	3038.84
686.564	3049.08
686.753	3012.22
686.943	3012.22
687.133	2913.92
687.323	2860.67
687.513	3042.94
687.702	2915.97
687.892	2920.06
688.082	2977.41
688.272	2842.24
688.461	2889.34
688.651	2975.36
688.841	2784.9
689.03	2858.62
689.22	2952.83
689.41	2733.7
689.599	2686.59
689.789	2696.83
689.979	2961.02
690.168	2776.7
690.358	2752.13
690.547	2727.55
690.737	2737.79
690.926	2760.32
691.116	2680.45
691.305	2754.18
691.495	2733.7
691.684	2707.07
691.874	2727.55
692.063	2653.83
692.252	2664.07
692.442	2590.34
692.631	2645.63
692.82	2545.28
693.01	2571.91
693.199	2539.14
693.388	2498.18
693.578	2580.1
693.767	2571.91
693.956	2584.2
694.146	2559.62
694.335	2602.63
694.524	2498.18
694.713	2576
694.902	2393.73
695.092	2512.52
695.281	2565.76
695.47	2399.88
695.659	2444.93
695.848	2432.65
696.037	2438.79
696.226	2508.42
696.415	2420.36
696.604	2469.51
696.793	2492.04
696.982	2305.67
697.171	2416.26
697.36	2358.92
697.549	2418.31
697.738	2277
697.927	2342.53
698.116	2381.45
698.305	2344.58
698.494	2313.86
698.683	2385.54
698.872	2305.67
699.061	2258.57
699.25	2281.1
699.438	2356.87
699.627	2213.51
699.816	2248.33
700.005	2268.81
700.193	2193.03
700.382	2383.49
700.571	2320.01
700.76	2225.8
700.948	2238.09
701.137	2203.27
701.326	2287.24
701.514	2260.62
701.703	2109.07
701.892	2205.32
702.08	2272.9
702.269	2213.51
702.457	2178.7
702.646	2377.35
702.834	2174.6
703.023	2248.33
703.212	2172.55
703.4	2330.25
703.589	2270.86
703.777	2164.36
703.965	2068.11
704.154	2107.02
704.342	2150.03
704.531	2201.23
704.719	2119.31
704.907	2201.23
705.096	2104.97
705.284	2168.46
705.472	2141.83
705.661	2215.56
705.849	2182.79
706.037	2182.79
706.226	2096.78
706.414	2170.51
706.602	2068.11
706.79	2152.07
706.979	2086.54
707.167	2150.03
707.355	2178.7
707.543	2111.11
707.731	2072.2
707.919	2043.53
708.107	2107.02
708.296	2123.4
708.484	2125.45
708.672	2088.59
708.86	2092.68
709.048	2121.35
709.236	1988.24
709.424	2133.64
709.612	2016.91
709.8	2070.16
709.988	2047.63
710.176	2084.49
710.364	2041.48
710.551	2123.4
710.739	2033.29
710.927	2156.17
711.115	2156.17
711.303	2053.77
711.491	2162.31
711.679	2027.15
711.866	2182.79
712.054	2096.78
712.242	2049.68
712.43	2059.92
712.617	2092.68
712.805	2145.93
712.993	2035.34
713.181	2051.72
713.368	2047.63
713.556	2121.35
713.744	2033.29
713.931	2084.49
714.119	2164.36
714.306	2121.35
714.494	2129.55
714.682	2088.59
714.869	2014.86
715.057	2115.21
715.244	1971.85
715.432	2057.87
715.619	2119.31
715.807	2129.55
715.994	2035.34
716.182	2090.63
716.369	2125.45
716.556	2127.5
716.744	2051.72
716.931	2049.68
717.119	2025.1
717.306	1969.8
717.493	2115.21
717.681	2016.91
717.868	2100.87
718.055	2002.57
718.242	2107.02
718.43	2096.78
718.617	2080.39
718.804	2111.11
718.991	2008.72
719.179	2016.91
719.366	2156.17
719.553	2135.69
719.74	2049.68
719.927	2070.16
720.114	2039.44
720.301	2068.11
720.488	2043.53
720.676	1996.43
720.863	1975.95
721.05	2064.01
721.237	2037.39
721.424	2064.01
721.611	2129.55
721.798	2164.36
721.985	1994.38
722.172	1971.85
722.358	2074.25
722.545	2088.59
722.732	2121.35
722.919	2023.05
723.106	2045.58
723.293	2104.97
723.48	2057.87
723.667	2082.44
723.853	2094.73
724.04	2064.01
724.227	2064.01
724.414	2082.44
724.6	2090.63
724.787	2014.86
724.974	2068.11
725.161	1924.75
725.347	1982.09
725.534	2057.87
725.72	2186.89
725.907	2010.76
726.094	2186.89
726.28	2104.97
726.467	2094.73
726.653	2049.68
726.84	2074.25
727.027	2049.68
727.213	1971.85
727.4	2055.82
727.586	2082.44
727.773	1943.18
727.959	1998.48
728.145	2066.06
728.332	1994.38
728.518	2084.49
728.705	2027.15
728.891	1912.46
729.077	2127.5
729.264	2102.92
729.45	2072.2
729.636	2229.9
729.823	2066.06
730.009	2199.18
730.195	2002.57
730.382	2219.66
730.568	2066.06
730.754	2021
730.94	2041.48
731.126	2039.44
731.313	2117.26
731.499	2061.96
731.685	2098.83
731.871	2133.64
732.057	2039.44
732.243	2098.83
732.429	2053.77
732.615	1980.04
732.801	2178.7
732.987	2053.77
733.173	2246.28
733.359	2072.2
733.545	2080.39
733.731	2123.4
733.917	2059.92
734.103	2006.67
734.289	2199.18
734.475	2023.05
734.661	2061.96
734.847	2014.86
735.033	2006.67
735.219	1959.56
735.404	2041.48
735.59	2012.81
735.776	2025.1
735.962	2002.57
736.148	1971.85
736.333	2064.01
736.519	1986.19
736.705	1943.18
736.89	2113.16
737.076	2006.67
737.262	2008.72
737.447	1957.52
737.633	1967.76
737.819	1982.09
738.004	2002.57
738.19	2031.24
738.375	2010.76
738.561	2029.2
738.747	1945.23
738.932	1986.19
739.118	2027.15
739.303	1906.32
739.489	2010.76
739.674	1982.09
739.859	1986.19
740.045	2029.2
740.23	1994.38
740.416	1934.99
740.601	1994.38
740.786	1922.7
740.972	1873.55
741.157	1990.28
741.342	1906.32
741.528	2027.15
741.713	1906.32
741.898	1961.61
742.084	1877.65
742.269	1969.8
742.454	1928.85
742.639	1861.26
742.824	1871.5
743.01	1869.45
743.195	1875.6
743.38	1949.32
743.565	1932.94
743.75	1765.01
743.935	1846.93
744.12	1814.16
744.305	1834.64
744.49	1797.78
744.675	1783.44
744.86	1777.3
745.045	1713.81
745.23	1736.34
745.415	1683.09
745.6	1697.42
745.785	1646.23
745.97	1756.82
746.155	1752.72
746.34	1631.89
746.525	1711.76
746.71	1801.87
746.895	1781.39
747.079	1681.04
747.264	1762.96
747.449	1678.99
747.634	1695.38
747.819	1615.51
748.003	1689.23
748.188	1511.06
748.373	1660.56
748.557	1707.66
748.742	1638.03
748.927	1730.19
749.111	1549.97
749.296	1568.4
749.481	1672.85
749.665	1521.3
749.85	1552.02
750.034	1588.88
750.219	1506.96
750.404	1519.25
750.588	1513.11
750.773	1443.48
750.957	1427.09
751.141	1468.05
751.326	1529.49
751.51	1367.7
751.695	1498.77
751.879	1459.86
752.064	1468.05
752.248	1412.76
752.432	1449.62
752.617	1431.19
752.801	1461.91
752.985	1431.19
753.17	1449.62
753.354	1494.68
753.538	1355.41
753.722	1457.81
753.907	1384.09
754.091	1341.08
754.275	1371.8
754.459	1353.37
754.643	1379.99
754.828	1488.53
755.012	1375.89
755.196	1324.69
755.38	1361.56
755.564	1296.02
755.748	1277.59
755.932	1234.58
756.116	1355.41
756.3	1318.55
756.484	1236.63
756.668	1320.6
756.852	1189.53
757.036	1253.02
757.22	1171.1
757.404	1197.72
757.588	1216.15
757.772	1230.49
757.956	1277.59
758.14	1248.92
758.323	1205.91
758.507	1162.9
758.691	1187.48
758.875	1156.76
759.059	1230.49
759.242	1089.18
759.426	1154.71
759.61	1121.95
759.794	1093.27
759.977	1113.75
760.161	1134.23
760.345	1113.75
760.528	1097.37
760.712	1117.85
760.895	1009.31
761.079	1066.65
761.263	1035.93
761.446	1080.99
761.63	1007.26
761.813	1017.5
761.997	1083.03
762.18	1009.31
762.364	1097.37
762.547	892.57
762.731	1048.22
762.914	1056.41
763.098	929.44
763.281	982.68
763.464	1121.95
763.648	1025.69
763.831	980.64
764.015	984.73
764.198	1052.31
764.381	939.68
764.564	919.2
764.748	929.44
764.931	911
765.114	1033.88
765.297	992.92
765.481	992.92
765.664	982.68
765.847	1025.69
766.03	880.29
766.213	927.39
766.397	949.92
766.58	788.13
766.763	906.91
766.946	949.92
767.129	954.01
767.312	863.9
767.495	929.44
767.678	921.24
767.861	982.68
768.044	878.24
768.227	898.72
768.41	878.24
768.593	939.68
768.776	949.92
768.959	941.72
769.142	827.04
769.324	884.38
769.507	884.38
769.69	806.56
769.873	849.57
770.056	919.2
770.239	888.48
770.421	925.34
770.604	884.38
770.787	845.47
770.97	845.47
771.152	837.28
771.335	812.7
771.518	829.09
771.7	794.27
771.883	878.24
772.066	806.56
772.248	822.94
772.431	855.71
772.613	822.94
772.796	812.7
772.978	829.09
773.161	763.55
773.343	829.09
773.526	736.93
773.708	736.93
773.891	753.31
774.073	741.02
774.256	736.93
774.438	833.18
774.621	827.04
774.803	822.94
774.985	732.83
775.168	818.85
775.35	865.95
775.532	767.65
775.715	671.39
775.897	736.93
776.079	734.88
776.261	671.39
776.444	700.06
776.626	640.67
776.808	702.11
776.99	702.11
777.173	595.62
777.355	616.1
777.537	689.82
777.719	648.86
777.901	693.92
778.083	732.83
778.265	644.77
778.447	712.35
778.629	585.38
778.811	698.02
778.993	609.95
779.175	589.47
779.357	542.37
779.539	536.23
779.721	636.58
779.903	614.05
780.085	601.76
780.267	675.49
780.449	622.24
780.631	614.05
780.812	673.44
780.994	657.06
781.176	566.95
781.358	560.8
781.54	632.48
781.721	489.12
781.903	548.51
782.085	532.13
782.267	564.9
782.448	517.79
782.63	530.08
782.812	517.79
782.993	605.86
783.175	552.61
783.357	511.65
783.538	511.65
783.72	491.17
783.901	564.9
784.083	433.83
784.264	519.84
784.446	435.88
784.627	482.98
784.809	597.67
784.99	466.6
785.172	470.69
785.353	458.4
785.535	487.08
785.716	517.79
785.897	480.93
786.079	491.17
786.26	437.92
786.441	366.25
786.623	421.54
786.804	417.44
786.985	388.77
787.167	411.3
787.348	437.92
787.529	339.62
787.71	421.54
787.891	421.54
788.073	431.78
788.254	439.97
788.435	370.34
788.616	421.54
788.797	419.49
788.978	335.53
789.159	392.87
789.34	337.57
789.522	419.49
789.703	325.29
789.884	429.73
790.065	399.01
790.246	399.01
790.427	431.78
790.607	403.11
790.788	407.2
790.969	374.44
791.15	435.88
791.331	345.77
791.512	286.37
791.693	362.15
791.874	302.76
792.054	456.36
792.235	394.92
792.416	288.42
792.597	351.91
792.778	403.11
792.958	384.68
793.139	323.24
793.32	327.33
793.5	331.43
793.681	401.06
793.862	368.29
794.042	321.19
794.223	366.25
794.404	286.37
794.584	288.42
794.765	341.67
794.945	276.13
795.126	339.62
795.306	292.52
795.487	315.05
795.667	241.32
795.848	333.48
796.028	341.67
796.209	212.65
796.389	310.95
796.57	296.61
796.75	321.19
796.93	284.33
797.111	222.89
797.291	298.66
797.471	290.47
797.652	235.18
797.832	220.84
798.012	284.33
798.192	226.98
798.373	241.32
798.553	276.13
798.733	269.99
798.913	247.46
799.093	308.9
799.274	276.13
799.454	290.47
799.634	272.04
799.814	235.18
799.994	306.85
800.174	269.99
800.354	220.84
800.534	222.89
800.714	288.42
800.894	190.12
801.074	192.17
801.254	274.09
801.434	220.84
801.614	235.18
801.794	239.27
801.974	822.94
802.154	261.8
802.334	235.18
802.514	241.32
802.693	298.66
802.873	241.32
803.053	229.03
803.233	255.65
803.413	333.48
803.592	247.46
803.772	226.98
803.952	247.46
804.131	255.65
804.311	239.27
804.491	216.74
804.67	163.5
804.85	147.11
805.03	202.41
805.209	218.79
805.389	218.79
805.568	167.59
805.748	229.03
805.928	222.89
806.107	163.5
806.287	257.7
806.466	202.41
806.646	229.03
806.825	145.06
807.004	165.54
807.184	208.55
807.363	259.75
807.543	212.65
807.722	140.97
807.901	173.74
808.081	274.09
808.26	165.54
808.439	200.36
808.619	231.08
808.798	155.3
808.977	235.18
809.156	186.02
809.336	243.37
809.515	196.26
809.694	130.73
809.873	122.54
810.052	167.59
810.231	186.02
810.411	122.54
810.59	229.03
810.769	157.35
810.948	167.59
811.127	151.21
811.306	181.93
811.485	231.08
811.664	124.58
811.843	183.98
812.022	183.98
812.201	138.92
812.38	204.46
812.559	231.08
812.737	200.36
812.916	69.29
813.095	163.5
813.274	155.3
813.453	179.88
813.632	100.01
813.811	116.39
813.989	143.02
814.168	153.26
814.347	91.82
814.526	179.88
814.704	126.63
814.883	239.27
815.062	159.4
815.24	147.11
815.419	112.3
815.598	151.21
815.776	143.02
815.955	157.35
816.133	124.58
816.312	122.54
816.49	179.88
816.669	181.93
816.847	97.96
817.026	59.05
817.204	157.35
817.383	155.3
817.561	147.11
817.74	171.69
817.918	171.69
818.097	97.96
818.275	91.82
818.453	175.78
818.632	171.69
818.81	163.5
818.988	100.01
819.167	149.16
819.345	75.43
819.523	169.64
819.701	120.49
819.879	179.88
820.058	50.86
820.236	106.15
820.414	138.92
820.592	108.2
820.77	143.02
820.948	93.87
821.127	73.39
821.305	106.15
821.483	77.48
821.661	116.39
821.839	106.15
822.017	132.78
822.195	126.63
822.373	122.54
822.551	97.96
822.729	204.46
822.907	140.97
823.085	120.49
823.262	116.39
823.44	140.97
823.618	130.73
823.796	91.82
823.974	52.91
824.152	165.54
824.329	100.01
824.507	83.63
824.685	128.68
824.863	167.59
825.04	50.86
825.218	97.96
825.396	69.29
825.574	106.15
825.751	151.21
825.929	138.92
826.107	89.77
826.284	159.4
826.462	93.87
826.639	79.53
826.817	1.71
826.994	89.77
827.172	81.58
827.349	36.52
827.527	89.77
827.704	44.71
827.882	147.11
828.059	69.29
828.237	128.68
828.414	140.97
828.591	81.58
828.769	61.1
828.946	91.82
829.124	83.63
829.301	89.77
829.478	75.43
829.655	85.67
829.833	11.95
830.01	65.19
830.187	163.5
830.364	71.34
830.542	40.62
830.719	67.24
830.896	122.54
831.073	83.63
831.25	38.57
831.427	71.34
831.604	114.34
831.782	73.39
831.959	128.68
832.136	28.33
832.313	128.68
832.49	-39.25
832.667	124.58
832.844	120.49
833.021	114.34
833.198	40.62
833.374	110.25
833.551	89.77
833.728	85.67
833.905	59.05
834.082	77.48
834.259	16.04
834.436	67.24
834.612	91.82
834.789	50.86
834.966	91.82
835.143	102.06
835.319	16.04
835.496	59.05
835.673	140.97
835.85	40.62
836.026	104.11
836.203	69.29
836.38	138.92
836.556	34.47
836.733	83.63
836.909	136.87
837.086	20.14
837.262	42.67
837.439	128.68
837.616	132.78
837.792	69.29
837.968	48.81
838.145	-29.01
838.321	28.33
838.498	100.01
838.674	13.99
838.851	75.43
839.027	32.43
839.203	104.11
839.38	132.78
839.556	-0.34
839.732	18.09
839.909	52.91
840.085	108.2
840.261	52.91
840.437	85.67
840.614	83.63
840.79	57
840.966	110.25
841.142	81.58
841.318	63.15
841.494	79.53
841.671	54.95
841.847	100.01
842.023	7.85
842.199	151.21
842.375	145.06
842.551	-4.44
842.727	95.91
842.903	32.43
843.079	61.1
843.255	48.81
843.431	75.43
843.607	61.1
843.783	5.8
843.959	91.82
844.134	7.85
844.31	95.91
844.486	77.48
844.662	106.15
844.838	50.86
845.013	50.86
845.189	97.96
845.365	65.19
845.541	57
845.716	11.95
845.892	16.04
846.068	13.99
846.244	114.34
846.419	120.49
846.595	7.85
846.77	54.95
846.946	57
847.122	32.43
847.297	48.81
847.473	50.86
847.648	16.04
847.824	48.81
847.999	32.43
848.175	24.23
848.35	22.19
848.526	50.86
848.701	5.8
848.876	40.62
849.052	69.29
849.227	40.62
849.403	16.04
849.578	40.62
849.753	59.05
849.929	40.62
850.104	-26.96
850.279	16.04
850.454	32.43
850.63	11.95
850.805	28.33
850.98	108.2
851.155	57
851.33	63.15
851.505	13.99
851.681	13.99
851.856	-37.2
852.031	83.63
852.206	-12.63
852.381	-8.53
852.556	124.58
852.731	89.77
852.906	16.04
853.081	44.71
853.256	59.05
853.431	-41.3
853.606	73.39
853.781	18.09
853.956	-16.73
854.131	3.75
854.305	59.05
854.48	61.1
854.655	34.47
854.83	-18.77
855.005	50.86
855.18	59.05
855.354	-35.16
855.529	32.43
855.704	52.91
855.879	100.01
856.053	24.23
856.228	16.04
856.403	69.29
856.577	-16.73
856.752	69.29
856.926	-10.58
857.101	46.76
857.276	-14.68
857.45	69.29
857.625	5.8
857.799	16.04
857.974	83.63
858.148	-37.2
858.323	11.95
858.497	-29.01
858.672	50.86
858.846	-33.11
859.02	73.39
859.195	36.52
859.369	114.34
859.543	87.72
859.718	30.38
859.892	40.62
860.066	7.85
860.241	9.9
860.415	75.43
860.589	38.57
860.763	-2.39
860.938	30.38
861.112	69.29
861.286	22.19
861.46	16.04
861.634	75.43
861.808	73.39
861.982	54.95
862.157	-12.63
862.331	40.62
862.505	13.99
862.679	26.28
862.853	40.62
863.027	9.9
863.201	26.28
863.375	11.95
863.549	9.9
863.722	61.1
863.896	36.52
864.07	-26.96
864.244	89.77
864.418	38.57
864.592	63.15
864.766	1.71
864.939	73.39
865.113	42.67
865.287	52.91
865.461	-16.73
865.634	13.99
865.808	32.43
865.982	75.43
866.156	24.23
866.329	61.1
866.503	9.9
866.676	-0.34
866.85	-6.49
867.024	28.33
867.197	-6.49
867.371	26.28
867.544	16.04
867.718	34.47
867.891	63.15
868.065	81.58
868.238	52.91
868.412	-4.44
868.585	42.67
868.759	16.04
868.932	50.86
869.105	-8.53
869.279	-14.68
869.452	-4.44
869.625	143.02
869.799	-33.11
869.972	-0.34
870.145	18.09
870.319	20.14
870.492	-12.63
870.665	42.67
870.838	3.75
871.011	75.43
871.185	-41.3
871.358	-18.77
871.531	-41.3
871.704	-12.63
871.877	42.67
872.05	52.91
872.223	34.47
872.396	69.29
872.569	83.63
872.742	-6.49
872.915	-12.63
873.088	-8.53
873.261	42.67
873.434	-20.82
873.607	-39.25
873.78	81.58
873.953	-16.73
874.126	34.47
874.299	59.05
874.471	48.81
874.644	18.09
874.817	5.8
874.99	126.63
875.163	7.85
875.335	28.33
875.508	48.81
875.681	67.24
875.853	28.33
876.026	-0.34
876.199	57
876.371	-31.06
876.544	11.95
876.717	11.95
876.889	16.04
877.062	24.23
877.234	20.14
877.407	3.75
877.579	57
877.752	11.95
877.924	26.28
878.097	-41.3
878.269	65.19
878.442	61.1
878.614	-0.34
878.786	81.58
878.959	79.53
879.131	79.53
879.303	44.71
879.476	7.85
879.648	87.72
879.82	-24.92
879.993	61.1
880.165	9.9
880.337	-4.44
880.509	20.14
880.681	32.43
880.854	26.28
881.026	32.43
881.198	65.19
881.37	-18.77
881.542	40.62
881.714	11.95
881.886	-0.34
882.058	32.43
882.23	-16.73
882.402	28.33
882.574	75.43
882.746	18.09
882.918	32.43
883.09	42.67
883.262	5.8
883.434	16.04
883.606	-41.3
883.778	59.05
883.95	63.15
884.122	52.91
884.293	79.53
884.465	36.52
884.637	18.09
884.809	52.91
884.98	-18.77
885.152	-20.82
885.324	-0.34
885.496	5.8
885.667	71.34
885.839	-6.49
886.011	106.15
886.182	-12.63
886.354	143.02
886.525	59.05
886.697	26.28
886.869	22.19
887.04	-29.01
887.212	-6.49
887.383	-35.16
887.555	24.23
887.726	30.38
887.897	30.38
888.069	36.52
888.24	93.87
888.412	-20.82
888.583	-0.34
888.754	1.71
888.926	20.14
889.097	38.57
889.268	-61.78
889.44	-2.39
889.611	-18.77
889.782	-35.16
889.953	20.14
890.125	16.04
890.296	-29.01
890.467	48.81
890.638	-49.49
890.809	-4.44
890.98	-0.34
891.151	69.29
891.323	52.91
891.494	7.85
891.665	30.38
891.836	50.86
892.007	-33.11
892.178	50.86
892.349	91.82
892.52	59.05
892.691	-31.06
892.862	36.52
893.032	-41.3
893.203	50.86
893.374	-22.87
893.545	26.28
893.716	20.14
893.887	30.38
894.057	-24.92
894.228	24.23
894.399	44.71
894.57	63.15
894.74	7.85
894.911	65.19
895.082	50.86
895.253	7.85
895.423	-31.06
895.594	28.33
895.764	-20.82
895.935	28.33
896.106	18.09
896.276	-59.73
896.447	-10.58
896.617	40.62
896.788	7.85
896.958	24.23
897.129	-49.49
897.299	-14.68
897.47	36.52
897.64	28.33
897.81	3.75
897.981	3.75
898.151	-12.63
898.322	48.81
898.492	57
898.662	-57.68
898.832	-61.78
899.003	16.04
899.173	57
899.343	-55.64
899.513	-2.39
