Data from USB4F104151__70__13-12-13-195.txt Node

Date: Fri Mar 14 13:12:13 EDT 2025
User: louis
Spectrometer: USB4F10415
Trigger mode: 4
Integration Time (sec): 2.000000E-2
Scans to average: 1
Electric dark correction enabled: true
Nonlinearity correction enabled: false
Boxcar width: 0
XAxis mode: Wavelengths
Number of Pixels in Spectrum: 3648
>>>>>Begin Spectral Data<<<<<
178.204	-78.51
178.424	-78.51
178.644	-78.51
178.864	-60.07
179.084	-94.89
179.304	5.46
179.524	-31.4
179.744	25.94
179.964	-8.87
180.184	-31.4
180.404	38.23
180.624	19.8
180.844	-17.07
181.064	-4.78
181.283	21.85
181.503	-39.59
181.723	21.85
181.943	-31.4
182.163	46.42
182.383	21.85
182.602	116.05
182.822	62.8
183.042	30.04
183.262	17.75
183.482	52.56
183.701	-4.78
183.921	60.76
184.141	-6.83
184.361	25.94
184.58	-6.83
184.8	58.71
185.02	11.61
185.239	75.09
185.459	17.75
185.679	136.53
185.898	32.08
186.118	40.28
186.338	66.9
186.557	9.56
186.777	-12.97
186.997	27.99
187.216	23.89
187.436	25.94
187.655	25.94
187.875	-6.83
188.095	83.28
188.314	-31.4
188.534	5.46
188.753	-2.73
188.973	-6.83
189.192	21.85
189.412	79.19
189.631	-45.74
189.851	85.33
190.07	91.48
190.29	9.56
190.509	42.32
190.729	-12.97
190.948	32.08
191.168	79.19
191.387	122.2
191.607	83.28
191.826	56.66
192.045	85.33
192.265	-4.78
192.484	99.67
192.704	75.09
192.923	50.52
193.142	101.72
193.362	46.42
193.581	91.48
193.8	52.56
194.02	34.13
194.239	19.8
194.458	83.28
194.678	-29.35
194.897	81.24
195.116	95.57
195.335	91.48
195.555	85.33
195.774	50.52
195.993	36.18
196.212	-6.83
196.432	48.47
196.651	52.56
196.87	46.42
197.089	144.72
197.308	52.56
197.528	11.61
197.747	-25.26
197.966	44.37
198.185	114
198.404	-39.59
198.623	93.52
198.842	71
199.062	-27.31
199.281	5.46
199.5	32.08
199.719	52.56
199.938	1.37
200.157	97.62
200.376	1.37
200.595	17.75
200.814	21.85
201.033	-37.55
201.252	79.19
201.471	-15.02
201.69	58.71
201.909	1.37
202.128	17.75
202.347	93.52
202.566	66.9
202.785	17.75
203.004	-33.45
203.223	95.57
203.442	-10.92
203.661	1.37
203.879	-23.21
204.098	66.9
204.317	-19.11
204.536	42.32
204.755	38.23
204.974	42.32
205.193	52.56
205.411	142.68
205.63	93.52
205.849	-78.51
206.068	19.8
206.287	-4.78
206.505	27.99
206.724	40.28
206.943	54.61
207.162	30.04
207.381	-15.02
207.599	-12.97
207.818	81.24
208.037	-15.02
208.255	111.96
208.474	17.75
208.693	36.18
208.911	5.46
209.13	54.61
209.349	-31.4
209.567	30.04
209.786	40.28
210.005	5.46
210.223	50.52
210.442	5.46
210.661	50.52
210.879	50.52
211.098	52.56
211.316	81.24
211.535	3.41
211.753	9.56
211.972	75.09
212.191	42.32
212.409	-0.68
212.628	38.23
212.846	5.46
213.065	58.71
213.283	34.13
213.502	-15.02
213.72	-29.35
213.938	25.94
214.157	52.56
214.375	89.43
214.594	42.32
214.812	73.04
215.031	50.52
215.249	-6.83
215.467	103.76
215.686	-21.16
215.904	13.65
216.122	30.04
216.341	83.28
216.559	25.94
216.778	118.1
216.996	56.66
217.214	50.52
217.432	91.48
217.651	7.51
217.869	19.8
218.087	50.52
218.306	-29.35
218.524	27.99
218.742	58.71
218.96	5.46
219.179	17.75
219.397	48.47
219.615	79.19
219.833	62.8
220.051	42.32
220.27	62.8
220.488	17.75
220.706	13.65
220.924	77.14
221.142	-21.16
221.36	118.1
221.578	46.42
221.796	40.28
222.015	48.47
222.233	93.52
222.451	38.23
222.669	21.85
222.887	-8.87
223.105	30.04
223.323	77.14
223.541	60.76
223.759	11.61
223.977	-29.35
224.195	75.09
224.413	-12.97
224.631	9.56
224.849	81.24
225.067	77.14
225.285	38.23
225.503	-4.78
225.721	-2.73
225.939	34.13
226.157	73.04
226.375	148.82
226.592	34.13
226.81	-6.83
227.028	32.08
227.246	64.85
227.464	-4.78
227.682	91.48
227.9	48.47
228.117	34.13
228.335	9.56
228.553	32.08
228.771	1.37
228.989	34.13
229.206	73.04
229.424	66.9
229.642	-0.68
229.86	32.08
230.077	99.67
230.295	83.28
230.513	9.56
230.731	3.41
230.948	97.62
231.166	81.24
231.384	30.04
231.601	48.47
231.819	99.67
232.037	3.41
232.254	27.99
232.472	68.95
232.689	5.46
232.907	50.52
233.125	38.23
233.342	-15.02
233.56	9.56
233.777	58.71
233.995	36.18
234.213	116.05
234.43	105.81
234.648	64.85
234.865	58.71
235.083	93.52
235.3	13.65
235.518	-23.21
235.735	68.95
235.953	116.05
236.17	48.47
236.388	7.51
236.605	77.14
236.822	-6.83
237.04	30.04
237.257	25.94
237.475	165.2
237.692	101.72
237.909	36.18
238.127	93.52
238.344	52.56
238.562	52.56
238.779	15.7
238.996	-72.36
239.214	73.04
239.431	75.09
239.648	11.61
239.865	83.28
240.083	13.65
240.3	17.75
240.517	66.9
240.735	50.52
240.952	109.91
241.169	93.52
241.386	81.24
241.603	83.28
241.821	13.65
242.038	128.34
242.255	19.8
242.472	30.04
242.689	79.19
242.907	85.33
243.124	30.04
243.341	19.8
243.558	-43.69
243.775	21.85
243.992	105.81
244.209	54.61
244.426	83.28
244.643	118.1
244.86	54.61
245.078	118.1
245.295	75.09
245.512	75.09
245.729	87.38
245.946	93.52
246.163	75.09
246.38	46.42
246.597	77.14
246.814	5.46
247.031	52.56
247.248	83.28
247.464	1.37
247.681	103.76
247.898	17.75
248.115	52.56
248.332	27.99
248.549	50.52
248.766	101.72
248.983	85.33
249.2	-2.73
249.417	75.09
249.633	19.8
249.85	75.09
250.067	91.48
250.284	44.37
250.501	42.32
250.717	60.76
250.934	42.32
251.151	48.47
251.368	77.14
251.585	56.66
251.801	48.47
252.018	9.56
252.235	52.56
252.451	-23.21
252.668	75.09
252.885	52.56
253.102	71
253.318	44.37
253.535	46.42
253.752	5.46
253.968	52.56
254.185	-53.93
254.401	-0.68
254.618	34.13
254.835	-10.92
255.051	-27.31
255.268	38.23
255.484	-25.26
255.701	42.32
255.917	81.24
256.134	13.65
256.351	19.8
256.567	9.56
256.784	19.8
257	56.66
257.217	-17.07
257.433	36.18
257.65	38.23
257.866	48.47
258.082	27.99
258.299	17.75
258.515	36.18
258.732	46.42
258.948	77.14
259.165	21.85
259.381	50.52
259.597	89.43
259.814	17.75
260.03	42.32
260.246	91.48
260.463	1.37
260.679	42.32
260.895	48.47
261.112	64.85
261.328	83.28
261.544	81.24
261.761	68.95
261.977	11.61
262.193	23.89
262.409	89.43
262.626	71
262.842	42.32
263.058	-70.31
263.274	111.96
263.49	3.41
263.707	81.24
263.923	34.13
264.139	-2.73
264.355	27.99
264.571	128.34
264.787	99.67
265.004	27.99
265.22	66.9
265.436	-15.02
265.652	50.52
265.868	17.75
266.084	56.66
266.3	71
266.516	7.51
266.732	48.47
266.948	25.94
267.164	75.09
267.38	101.72
267.596	101.72
267.812	27.99
268.028	46.42
268.244	36.18
268.46	109.91
268.676	34.13
268.892	58.71
269.108	83.28
269.324	36.18
269.54	34.13
269.756	32.08
269.972	50.52
270.188	11.61
270.403	3.41
270.619	-39.59
270.835	48.47
271.051	7.51
271.267	66.9
271.483	19.8
271.698	52.56
271.914	87.38
272.13	19.8
272.346	87.38
272.562	21.85
272.777	85.33
272.993	-39.59
273.209	58.71
273.425	54.61
273.64	-2.73
273.856	3.41
274.072	64.85
274.287	54.61
274.503	52.56
274.719	17.75
274.934	9.56
275.15	1.37
275.366	73.04
275.581	42.32
275.797	23.89
276.012	77.14
276.228	87.38
276.444	7.51
276.659	95.57
276.875	19.8
277.09	30.04
277.306	34.13
277.521	25.94
277.737	46.42
277.952	66.9
278.168	50.52
278.383	109.91
278.599	32.08
278.814	32.08
279.03	-15.02
279.245	77.14
279.461	71
279.676	46.42
279.892	3.41
280.107	-25.26
280.322	25.94
280.538	64.85
280.753	54.61
280.969	73.04
281.184	85.33
281.399	25.94
281.615	32.08
281.83	58.71
282.045	-72.36
282.26	3.41
282.476	1.37
282.691	128.34
282.906	103.76
283.122	54.61
283.337	17.75
283.552	-29.35
283.767	36.18
283.983	136.53
284.198	66.9
284.413	17.75
284.628	44.37
284.843	9.56
285.058	-45.74
285.274	1.37
285.489	-43.69
285.704	52.56
285.919	11.61
286.134	36.18
286.349	36.18
286.564	-27.31
286.779	60.76
286.995	60.76
287.21	34.13
287.425	91.48
287.64	9.56
287.855	75.09
288.07	36.18
288.285	114
288.5	1.37
288.715	93.52
288.93	38.23
289.145	25.94
289.36	40.28
289.575	13.65
289.79	-2.73
290.004	99.67
290.219	64.85
290.434	-2.73
290.649	-29.35
290.864	7.51
291.079	42.32
291.294	-6.83
291.509	52.56
291.724	11.61
291.938	36.18
292.153	1.37
292.368	124.24
292.583	9.56
292.798	19.8
293.012	15.7
293.227	83.28
293.442	42.32
293.657	89.43
293.871	42.32
294.086	62.8
294.301	-2.73
294.516	11.61
294.73	36.18
294.945	5.46
295.16	60.76
295.374	9.56
295.589	58.71
295.804	32.08
296.018	25.94
296.233	107.86
296.447	-6.83
296.662	46.42
296.877	60.76
297.091	62.8
297.306	54.61
297.52	1.37
297.735	71
297.949	27.99
298.164	68.95
298.378	15.7
298.593	1.37
298.807	-2.73
299.022	-2.73
299.236	32.08
299.451	5.46
299.665	48.47
299.88	-6.83
300.094	30.04
300.309	95.57
300.523	9.56
300.737	27.99
300.952	44.37
301.166	25.94
301.381	19.8
301.595	52.56
301.809	54.61
302.024	-10.92
302.238	85.33
302.452	56.66
302.667	13.65
302.881	73.04
303.095	25.94
303.309	9.56
303.524	19.8
303.738	71
303.952	66.9
304.166	52.56
304.381	27.99
304.595	71
304.809	91.48
305.023	62.8
305.237	5.46
305.452	87.38
305.666	13.65
305.88	-35.5
306.094	27.99
306.308	27.99
306.522	48.47
306.736	60.76
306.95	36.18
307.164	36.18
307.379	71
307.593	3.41
307.807	77.14
308.021	50.52
308.235	1.37
308.449	5.46
308.663	25.94
308.877	50.52
309.091	75.09
309.305	-6.83
309.519	66.9
309.733	62.8
309.947	-53.93
310.161	42.32
310.374	124.24
310.588	44.37
310.802	44.37
311.016	13.65
311.23	1.37
311.444	-8.87
311.658	38.23
311.872	60.76
312.085	44.37
312.299	85.33
312.513	17.75
312.727	60.76
312.941	-29.35
313.154	130.39
313.368	-6.83
313.582	-10.92
313.796	73.04
314.009	-23.21
314.223	152.91
314.437	-21.16
314.651	-33.45
314.864	7.51
315.078	68.95
315.292	62.8
315.505	34.13
315.719	73.04
315.933	9.56
316.146	79.19
316.36	-25.26
316.573	99.67
316.787	3.41
317.001	77.14
317.214	5.46
317.428	19.8
317.641	36.18
317.855	-4.78
318.068	-2.73
318.282	60.76
318.495	140.63
318.709	75.09
318.922	71
319.136	71
319.349	77.14
319.563	83.28
319.776	-12.97
319.99	17.75
320.203	85.33
320.417	-31.4
320.63	38.23
320.843	11.61
321.057	101.72
321.27	99.67
321.483	5.46
321.697	44.37
321.91	30.04
322.124	85.33
322.337	79.19
322.55	48.47
322.763	21.85
322.977	13.65
323.19	1.37
323.403	17.75
323.617	44.37
323.83	50.52
324.043	-15.02
324.256	91.48
324.469	-29.35
324.683	83.28
324.896	54.61
325.109	93.52
325.322	1.37
325.535	83.28
325.748	17.75
325.962	114
326.175	66.9
326.388	-6.83
326.601	161.11
326.814	17.75
327.027	66.9
327.24	46.42
327.453	42.32
327.666	42.32
327.879	40.28
328.092	91.48
328.305	52.56
328.518	17.75
328.731	-35.5
328.944	36.18
329.157	-23.21
329.37	46.42
329.583	75.09
329.796	9.56
330.009	50.52
330.222	77.14
330.435	58.71
330.648	-55.98
330.861	105.81
331.073	107.86
331.286	62.8
331.499	3.41
331.712	34.13
331.925	-51.88
332.138	66.9
332.35	89.43
332.563	109.91
332.776	52.56
332.989	58.71
333.202	-2.73
333.414	-0.68
333.627	-2.73
333.84	3.41
334.053	52.56
334.265	91.48
334.478	66.9
334.691	40.28
334.903	-19.11
335.116	-12.97
335.329	46.42
335.541	9.56
335.754	134.48
335.966	-8.87
336.179	19.8
336.392	50.52
336.604	58.71
336.817	38.23
337.029	75.09
337.242	-12.97
337.454	21.85
337.667	87.38
337.88	68.95
338.092	7.51
338.305	68.95
338.517	77.14
338.729	38.23
338.942	85.33
339.154	25.94
339.367	62.8
339.579	48.47
339.792	17.75
340.004	34.13
340.217	13.65
340.429	32.08
340.641	-2.73
340.854	-39.59
341.066	62.8
341.278	138.58
341.491	75.09
341.703	32.08
341.915	50.52
342.128	42.32
342.34	46.42
342.552	11.61
342.764	38.23
342.977	48.47
343.189	83.28
343.401	77.14
343.613	-0.68
343.826	99.67
344.038	68.95
344.25	111.96
344.462	-31.4
344.674	148.82
344.886	54.61
345.099	105.81
345.311	136.53
345.523	81.24
345.735	13.65
345.947	25.94
346.159	66.9
346.371	99.67
346.583	27.99
346.795	124.24
347.007	50.52
347.219	32.08
347.431	36.18
347.643	1.37
347.855	32.08
348.067	-10.92
348.279	50.52
348.491	44.37
348.703	1.37
348.915	42.32
349.127	-10.92
349.339	60.76
349.551	5.46
349.763	103.76
349.975	-8.87
350.187	132.44
350.399	64.85
350.61	-21.16
350.822	-2.73
351.034	34.13
351.246	30.04
351.458	17.75
351.669	44.37
351.881	83.28
352.093	30.04
352.305	99.67
352.517	-21.16
352.728	42.32
352.94	62.8
353.152	62.8
353.363	-8.87
353.575	19.8
353.787	85.33
353.999	48.47
354.21	-12.97
354.422	-4.78
354.633	-35.5
354.845	7.51
355.057	32.08
355.268	109.91
355.48	-49.83
355.692	17.75
355.903	99.67
356.115	-21.16
356.326	36.18
356.538	93.52
356.749	1.37
356.961	34.13
357.172	9.56
357.384	64.85
357.595	107.86
357.807	-17.07
358.018	-2.73
358.23	34.13
358.441	23.89
358.653	111.96
358.864	50.52
359.075	42.32
359.287	83.28
359.498	66.9
359.709	17.75
359.921	27.99
360.132	-2.73
360.344	13.65
360.555	-25.26
360.766	13.65
360.977	91.48
361.189	-6.83
361.4	9.56
361.611	25.94
361.823	32.08
362.034	38.23
362.245	36.18
362.456	5.46
362.667	7.51
362.879	116.05
363.09	44.37
363.301	44.37
363.512	34.13
363.723	71
363.935	-17.07
364.146	52.56
364.357	52.56
364.568	60.76
364.779	56.66
364.99	159.06
365.201	103.76
365.412	52.56
365.623	46.42
365.834	30.04
366.045	36.18
366.256	27.99
366.467	13.65
366.678	-4.78
366.889	44.37
367.1	54.61
367.311	71
367.522	101.72
367.733	42.32
367.944	60.76
368.155	3.41
368.366	85.33
368.577	103.76
368.788	171.35
368.999	23.89
369.209	42.32
369.42	42.32
369.631	81.24
369.842	62.8
370.053	60.76
370.264	7.51
370.474	-21.16
370.685	81.24
370.896	66.9
371.107	161.11
371.317	46.42
371.528	-21.16
371.739	34.13
371.95	103.76
372.16	30.04
372.371	-17.07
372.582	79.19
372.792	68.95
373.003	11.61
373.214	5.46
373.424	58.71
373.635	58.71
373.846	93.52
374.056	-39.59
374.267	134.48
374.477	73.04
374.688	-10.92
374.898	134.48
375.109	68.95
375.319	77.14
375.53	58.71
375.74	71
375.951	9.56
376.161	124.24
376.372	54.61
376.582	-21.16
376.793	68.95
377.003	52.56
377.214	52.56
377.424	-6.83
377.635	50.52
377.845	-19.11
378.055	226.64
378.266	103.76
378.476	83.28
378.686	48.47
378.897	103.76
379.107	95.57
379.317	46.42
379.528	-4.78
379.738	91.48
379.948	11.61
380.158	42.32
380.369	5.46
380.579	103.76
380.789	44.37
380.999	97.62
381.21	58.71
381.42	77.14
381.63	140.63
381.84	52.56
382.05	91.48
382.261	60.76
382.471	107.86
382.681	132.44
382.891	81.24
383.101	79.19
383.311	66.9
383.521	-15.02
383.731	9.56
383.941	36.18
384.151	95.57
384.361	52.56
384.571	75.09
384.781	75.09
384.991	60.76
385.201	109.91
385.411	83.28
385.621	25.94
385.831	36.18
386.041	77.14
386.251	-31.4
386.461	60.76
386.671	32.08
386.881	-12.97
387.091	71
387.301	68.95
387.511	34.13
387.72	48.47
387.93	152.91
388.14	44.37
388.35	48.47
388.56	48.47
388.769	99.67
388.979	46.42
389.189	46.42
389.399	93.52
389.609	-10.92
389.818	60.76
390.028	25.94
390.238	44.37
390.447	75.09
390.657	75.09
390.867	105.81
391.076	21.85
391.286	38.23
391.496	30.04
391.705	60.76
391.915	58.71
392.125	87.38
392.334	42.32
392.544	85.33
392.753	62.8
392.963	44.37
393.172	60.76
393.382	21.85
393.591	142.68
393.801	1.37
394.01	79.19
394.22	71
394.429	77.14
394.639	75.09
394.848	124.24
395.058	89.43
395.267	34.13
395.477	17.75
395.686	85.33
395.895	66.9
396.105	140.63
396.314	44.37
396.524	-4.78
396.733	73.04
396.942	64.85
397.152	150.87
397.361	83.28
397.57	40.28
397.78	138.58
397.989	1.37
398.198	161.11
398.407	68.95
398.617	83.28
398.826	44.37
399.035	111.96
399.244	38.23
399.453	93.52
399.663	83.28
399.872	124.24
400.081	27.99
400.29	111.96
400.499	73.04
400.708	75.09
400.917	68.95
401.127	36.18
401.336	79.19
401.545	97.62
401.754	95.57
401.963	19.8
402.172	124.24
402.381	21.85
402.59	111.96
402.799	148.82
403.008	99.67
403.217	101.72
403.426	169.3
403.635	62.8
403.844	32.08
404.053	103.76
404.262	101.72
404.471	134.48
404.68	128.34
404.888	99.67
405.097	97.62
405.306	101.72
405.515	103.76
405.724	183.63
405.933	85.33
406.142	114
406.35	187.73
406.559	134.48
406.768	114
406.977	189.78
407.185	73.04
407.394	234.83
407.603	171.35
407.812	177.49
408.02	148.82
408.229	206.16
408.438	103.76
408.646	75.09
408.855	140.63
409.064	173.39
409.272	206.16
409.481	222.55
409.69	175.44
409.898	181.59
410.107	177.49
410.315	238.93
410.524	169.3
410.733	232.79
410.941	173.39
411.15	226.64
411.358	247.12
411.567	247.12
411.775	177.49
411.984	357.71
412.192	281.94
412.401	222.55
412.609	318.8
412.818	292.18
413.026	300.37
413.234	304.46
413.443	335.18
413.651	337.23
413.86	304.46
414.068	365.9
414.276	380.24
414.485	392.53
414.693	400.72
414.901	435.53
415.11	427.34
415.318	386.38
415.526	421.2
415.734	408.91
415.943	460.11
416.151	525.65
416.359	570.7
416.567	582.99
416.776	550.22
416.984	652.62
417.192	640.33
417.4	626
417.608	582.99
417.817	601.42
418.025	681.29
418.233	714.06
418.441	654.67
418.649	712.01
418.857	734.54
419.065	808.26
419.273	709.96
419.481	877.9
419.689	802.12
419.897	865.61
420.105	953.67
420.313	933.19
420.521	959.81
420.729	1000.77
420.937	945.48
421.145	1101.12
421.353	1135.94
421.561	1160.52
421.769	1258.82
421.977	1228.1
422.185	1258.82
422.393	1320.26
422.601	1402.18
422.809	1271.11
423.017	1436.99
423.224	1377.6
423.432	1463.61
423.64	1451.33
423.848	1584.45
424.056	1566.01
424.263	1672.51
424.471	1746.23
424.679	1580.35
424.887	1822.01
425.094	1832.25
425.302	1918.26
425.51	1914.17
425.718	2030.9
425.925	2010.42
426.133	2114.87
426.341	2250.03
426.548	2401.58
426.756	2274.61
426.964	2385.2
427.171	2501.94
427.379	2612.53
427.586	2626.86
427.794	2655.53
428.001	2719.02
428.209	2970.92
428.417	2962.73
428.624	3054.89
428.832	3056.93
429.039	3022.12
429.247	3128.61
429.454	3298.6
429.662	3640.61
429.869	3394.85
430.076	3654.94
430.284	3466.53
430.491	3763.48
430.699	4033.82
430.906	3845.4
431.114	3921.18
431.321	3982.62
431.528	4166.93
431.736	4424.98
431.943	4568.34
432.15	4474.13
432.358	4498.7
432.565	4769.04
432.772	4640.01
432.979	5139.72
433.187	5020.94
433.394	5008.65
433.601	5457.15
433.808	5473.54
434.016	5393.67
434.223	5664
434.43	5858.56
434.637	5786.88
434.844	6208.76
435.052	6370.55
435.259	6268.15
435.466	6362.36
435.673	6460.66
435.88	6694.13
436.087	7218.41
436.294	7068.91
436.501	6890.73
436.708	6991.08
436.915	7304.42
437.122	7726.3
437.329	7773.41
437.537	7683.3
437.743	7916.76
437.95	7871.71
438.157	8471.76
438.364	8576.21
438.571	8525.01
438.778	8723.66
438.985	9454.79
439.192	9280.71
439.399	9467.08
439.606	9168.07
439.813	9915.58
440.02	10190.01
440.227	10220.73
440.433	10134.71
440.64	10491.06
440.847	10357.94
441.054	10450.1
441.261	11181.23
441.467	11236.52
441.674	11406.5
441.881	11936.93
442.088	11807.91
442.294	11605.16
442.501	12090.52
442.708	12151.96
442.914	12887.18
443.121	13173.9
443.328	12827.79
443.534	13784.19
443.741	13331.59
443.948	13249.68
444.154	14165.12
444.361	14259.32
444.568	14044.29
444.774	14132.35
444.981	14345.34
445.187	14814.32
445.394	15238.25
445.6	15154.29
445.807	16612.44
446.013	16063.58
446.22	16288.86
446.426	16852.05
446.633	17050.71
446.839	17673.29
447.046	16925.78
447.252	17863.75
447.459	17835.08
447.665	18041.92
447.871	18730.04
448.078	19590.19
448.284	18486.33
448.491	19289.13
448.697	19842.09
448.903	20257.82
449.11	20341.79
449.316	19958.82
449.522	20407.33
449.728	20728.86
449.935	21019.67
450.141	21216.27
450.347	21877.77
450.553	21009.43
450.76	21216.27
450.966	22496.25
451.172	21742.6
451.378	22197.25
451.584	21849.1
451.791	22621.18
451.997	22500.35
452.203	22680.57
452.409	22569.98
452.615	22838.26
452.821	21920.77
453.027	21750.79
453.233	22998.01
453.44	21855.24
453.646	22268.93
453.852	22338.56
454.058	22653.95
454.264	22101
454.47	22658.04
454.676	21963.78
454.882	22813.69
455.088	20888.6
455.294	21287.95
455.5	21564.43
455.705	21894.15
455.911	20663.32
456.117	20440.09
456.323	20128.8
456.529	19211.31
456.735	19725.35
456.941	19416.11
457.147	19182.64
457.352	18572.35
457.558	18342.97
457.764	18476.09
457.97	18238.53
458.176	17648.71
458.381	17779.78
458.587	16778.33
458.793	16864.34
458.999	16065.63
459.204	17200.21
459.41	16688.21
459.616	15527.02
459.821	15770.72
460.027	15389.8
460.233	15017.07
460.438	14324.86
460.644	14605.43
460.85	14175.36
461.055	13579.4
461.261	13841.54
461.466	12651.67
461.672	12344.47
461.878	13151.37
462.083	12422.3
462.289	12119.2
462.494	11893.92
462.7	11369.64
462.905	11082.92
463.111	11340.97
463.316	11453.61
463.522	11252.91
463.727	11447.46
463.932	11379.88
464.138	11168.94
464.343	11359.4
464.549	10992.81
464.754	11447.46
464.959	11056.3
465.165	11314.34
465.37	10759.35
465.575	10486.97
465.781	10671.28
465.986	10876.08
466.191	10503.35
466.397	10151.1
466.602	9569.48
466.807	10042.56
467.012	10202.3
467.218	10067.13
467.423	9829.57
467.628	10058.94
467.833	10403
468.038	10079.42
468.244	9639.11
468.449	10147
468.654	9856.19
468.859	9870.53
469.064	9612.48
469.269	9170.12
469.474	9411.78
469.679	9585.86
469.885	9436.36
470.09	9510.08
470.295	9528.52
470.5	9223.37
470.705	9145.55
470.91	9100.49
471.115	8975.56
471.32	9166.03
471.525	8809.68
471.73	8924.37
471.935	8623.31
472.139	8492.24
472.344	8725.71
472.549	8674.51
472.754	8535.25
472.959	8295.64
473.164	8127.71
473.369	7904.48
473.574	8273.11
473.778	7988.44
473.983	8039.64
474.188	8043.74
474.393	7795.93
474.598	7754.97
474.802	7791.84
475.007	7765.21
475.212	7771.36
475.417	7224.55
475.621	7415.01
475.826	7312.61
476.031	7267.56
476.235	7105.77
476.44	7443.68
476.645	7087.34
476.849	7206.12
477.054	7007.47
477.259	7023.85
477.463	6890.73
477.668	6747.37
477.872	6905.07
478.077	6778.09
478.282	6589.68
478.486	6532.34
478.691	6608.11
478.895	6403.32
479.1	6407.41
479.304	6563.06
479.509	6268.15
479.713	6362.36
479.918	6313.2
480.122	6212.85
480.326	6192.37
480.531	6245.62
480.735	6108.41
480.94	6049.02
481.144	6161.66
481.348	6100.22
481.553	5901.56
481.757	5895.42
481.961	6104.31
482.166	6085.88
482.37	6085.88
482.574	6014.2
482.778	5907.71
482.983	6001.91
483.187	5926.14
483.391	5909.76
483.595	5989.63
483.8	6059.26
484.004	5985.53
484.208	6079.74
484.412	5872.89
484.616	6034.68
484.821	5883.13
485.025	5805.31
485.229	6102.26
485.433	5932.28
485.637	5874.94
485.841	5979.39
486.045	5881.08
486.249	6141.18
486.453	5913.85
486.657	5893.37
486.861	5950.71
487.065	5715.2
487.269	6038.78
487.473	5915.9
487.677	5965.05
487.881	6016.25
488.085	5813.5
488.289	6030.59
488.493	6003.96
488.697	6151.42
488.901	6034.68
489.105	5932.28
489.309	6102.26
489.512	6075.64
489.716	5973.24
489.92	6010.11
490.124	6042.87
490.328	6178.04
490.531	6161.66
490.735	6092.02
490.939	6020.35
491.143	6055.16
491.346	6184.18
491.55	6257.91
491.754	6194.42
491.958	6077.69
492.161	6333.68
492.365	6276.34
492.569	6358.26
492.772	6358.26
492.976	6403.32
493.18	6397.17
493.383	6595.82
493.587	6427.89
493.79	6595.82
493.994	6542.58
494.197	6569.2
494.401	6825.2
494.605	6503.67
494.808	6749.42
495.012	6771.95
495.215	6825.2
495.419	6878.44
495.622	6755.57
495.825	7159.02
496.029	7040.23
496.232	7066.86
496.436	7183.59
496.639	7208.17
496.843	7130.34
497.046	7382.24
497.249	7537.89
497.453	7445.73
497.656	7677.15
497.859	7619.81
498.063	7574.75
498.266	7972.06
498.469	7826.65
498.673	7967.96
498.876	8113.37
499.079	7980.25
499.282	8004.83
499.485	8430.8
499.689	8326.36
499.892	8611.03
500.095	8416.47
500.298	8594.64
500.501	8615.12
500.705	8735.95
500.908	8871.12
501.111	9018.57
501.314	9174.22
501.517	8965.32
501.72	9315.53
501.923	9276.62
502.126	9467.08
502.329	9551.04
502.532	9702.59
502.735	9755.84
502.938	10007.74
503.141	9983.17
503.344	10216.63
503.547	10228.92
503.75	10290.36
503.953	10489.01
504.156	10583.22
504.359	10618.04
504.562	10665.14
504.765	10914.99
504.968	11011.25
505.17	11320.49
505.373	10998.96
505.576	11357.35
505.779	11324.58
505.982	11459.75
506.185	11644.07
506.387	11650.21
506.59	12113.05
506.793	12240.03
506.996	12268.7
507.198	12463.26
507.401	12428.44
507.604	12528.79
507.807	12872.85
508.009	13005.97
508.212	12784.79
508.415	13141.13
508.617	13505.67
508.82	13452.42
509.022	13243.53
509.225	13829.25
509.428	13911.17
509.63	13802.63
509.833	13982.85
510.035	14445.69
510.238	14021.76
510.44	14443.64
510.643	14955.63
510.845	14771.32
511.048	15080.56
511.25	15142
511.453	15232.11
511.655	15713.38
511.858	15549.54
512.06	15703.14
512.262	15891.55
512.465	15971.43
512.667	16473.18
512.87	16299.1
513.072	16274.53
513.274	16772.18
513.477	16737.37
513.679	16931.92
513.881	17146.96
514.084	17513.55
514.286	17196.11
514.488	17378.38
514.69	18136.13
514.893	18207.81
515.095	17986.63
515.297	18443.32
515.499	18453.56
515.701	18592.83
515.904	19020.85
516.106	18801.72
516.308	19024.95
516.51	19364.91
516.712	19430.44
516.914	19495.98
517.116	19870.76
517.318	20087.84
517.52	20108.32
517.722	20055.08
517.925	20700.19
518.127	20712.47
518.329	21009.43
518.531	20651.03
518.733	21287.95
518.935	21707.79
519.136	21502.99
519.338	21885.96
519.54	21580.81
519.742	22275.07
519.944	22094.85
520.146	22592.51
520.348	22590.46
520.55	22744.06
520.752	22914.04
520.954	23448.56
521.155	23260.15
521.357	23555.05
521.559	23626.73
521.761	23835.63
521.963	24130.53
522.164	23895.02
522.366	24364
522.568	24699.87
522.77	24843.23
522.971	24847.32
523.173	24675.29
523.375	25064.41
523.576	25218
523.778	25207.76
523.98	25363.41
524.181	25517.01
524.383	25949.13
524.584	26102.73
524.786	26135.49
524.988	26086.34
525.189	26532.8
525.391	26344.39
525.592	26448.83
525.794	26856.38
525.995	26706.88
526.197	26936.25
526.398	26987.45
526.6	27241.4
526.801	27265.97
527.003	27472.82
527.204	27581.36
527.406	27921.32
527.607	27837.36
527.808	28107.69
528.01	27755.44
528.211	28185.51
528.412	28717.98
528.614	28171.18
528.815	28193.7
529.016	28812.19
529.218	28095.4
529.419	28402.6
529.62	28517.28
529.822	28591.01
530.023	28713.89
530.224	28775.33
530.425	29008.79
530.626	28967.84
530.828	28341.16
531.029	29213.59
531.23	28857.24
531.431	28570.53
531.632	29029.27
531.833	29090.71
532.035	28953.5
532.236	29199.26
532.437	29510.55
532.638	29139.86
532.839	29717.39
533.04	29719.44
533.241	29227.93
533.442	29942.67
533.643	29195.16
533.844	29483.92
534.045	29412.24
534.246	29533.07
534.447	29596.56
534.648	29668.24
534.849	29676.43
535.05	29074.33
535.251	29408.15
535.451	29514.64
535.652	29877.13
535.853	29584.27
536.054	29744.02
536.255	29641.62
536.456	29270.93
536.657	29907.85
536.857	29739.92
537.058	29178.78
537.259	29842.32
537.46	29232.02
537.66	29715.34
537.861	29692.82
538.062	29692.82
538.263	29819.79
538.463	29533.07
538.664	29658
538.865	29524.88
539.065	29920.14
539.266	29528.98
539.466	29782.93
539.667	29320.09
539.868	30081.93
540.068	29594.51
540.269	29399.96
540.469	29651.86
540.67	29506.45
540.87	29713.3
541.071	29565.84
541.271	29809.55
541.472	29801.36
541.672	29352.85
541.873	29553.55
542.073	28926.88
542.274	29772.69
542.474	29692.82
542.675	29391.76
542.875	29928.33
543.075	29719.44
543.276	28978.08
543.476	30055.31
543.676	29240.22
543.877	29737.87
544.077	29877.13
544.277	29692.82
544.478	29481.88
544.678	29709.2
544.878	29688.72
545.078	29346.71
545.279	29289.37
545.479	29225.88
545.679	29705.1
545.879	29934.48
546.079	29666.19
546.28	29510.55
546.48	29262.74
546.68	29498.26
546.88	29606.8
547.08	29195.16
547.28	29461.4
547.48	28982.17
547.68	29528.98
547.88	29270.93
548.081	29393.81
548.281	29260.69
548.481	29504.4
548.681	29631.38
548.881	29709.2
549.081	29449.11
549.28	29330.33
549.48	29422.48
549.68	29375.38
549.88	29510.55
550.08	29418.39
550.28	29563.79
550.48	29381.52
550.68	29582.23
550.88	29090.71
551.08	29084.57
551.279	29109.15
551.479	28894.11
551.679	29119.38
551.879	29342.61
552.079	29344.66
552.278	28832.67
552.478	29563.79
552.678	29395.86
552.878	29698.96
553.077	29725.58
553.277	28691.36
553.477	29455.25
553.676	29078.43
553.876	29178.78
554.076	29297.56
554.275	29082.52
554.475	28947.36
554.674	29189.02
554.874	29408.15
555.074	28599.2
555.273	29035.42
555.473	28957.6
555.672	29057.95
555.872	29051.8
556.071	28795.81
556.271	29217.69
556.47	28734.37
556.67	28599.2
556.869	28781.47
557.068	28973.98
557.268	28441.51
557.467	28963.74
557.667	28662.69
557.866	28679.07
558.065	28568.48
558.265	28517.28
558.464	28537.76
558.663	28664.74
558.863	28615.58
559.062	28760.99
559.261	28070.83
559.461	28597.15
559.66	27847.6
559.859	28328.87
560.058	28165.03
560.258	28156.84
560.457	27640.75
560.656	28398.5
560.855	27802.54
561.054	27937.71
561.253	27876.27
561.453	27847.6
561.652	28097.45
561.851	28070.83
562.05	27556.78
562.249	27556.78
562.448	27747.25
562.647	27716.53
562.846	27413.43
563.045	27528.11
563.244	27284.4
563.443	27567.02
563.642	27091.9
563.841	27366.32
564.04	27067.32
564.239	27474.87
564.438	27177.91
564.637	27159.48
564.836	27163.57
565.035	26928.06
565.234	26905.53
565.432	26883
565.631	26762.17
565.83	27022.26
566.029	26729.41
566.228	26403.78
566.427	26438.59
566.625	26518.46
566.824	26469.31
567.023	26489.79
567.222	25981.9
567.42	26444.74
567.619	26211.27
567.818	25947.08
568.016	25996.23
568.215	26139.59
568.414	25621.45
568.612	25859.02
568.811	25725.9
569.01	25635.79
569.208	25494.48
569.407	25715.66
569.605	25361.36
569.804	25781.2
570.002	25408.47
570.201	25535.44
570.4	25170.9
570.598	25359.31
570.797	24923.1
570.995	25091.03
571.193	24859.61
571.392	25103.32
571.59	24585.18
571.789	24916.95
571.987	24689.63
572.186	24595.42
572.384	24552.41
572.582	24587.23
572.781	24742.88
572.979	24099.81
573.177	24497.12
573.376	24159.2
573.574	24167.4
573.772	24065
573.971	23919.59
574.169	24144.87
574.367	23938.02
574.565	24173.54
574.763	23925.74
574.962	23522.29
575.16	23866.35
575.358	23667.69
575.556	23489.52
575.754	23739.37
575.952	23200.76
576.151	23669.74
576.349	23235.57
576.547	23208.95
576.745	23411.7
576.943	23204.85
577.141	23106.55
577.339	23256.05
577.537	22811.64
577.735	23081.97
577.933	22862.84
578.131	22871.03
578.329	22705.15
578.527	22735.87
578.725	22461.44
578.923	22537.21
579.121	22574.08
579.319	22297.6
579.516	22410.24
579.714	22459.39
579.912	22320.13
580.11	22152.2
580.308	22381.57
580.506	22131.72
580.704	21750.79
580.901	21894.15
581.099	22121.48
581.297	21797.9
581.495	21799.94
581.692	21685.26
581.89	21777.42
582.088	21812.23
582.285	21662.73
582.483	21892.1
582.681	21476.37
582.878	21144.59
583.076	21279.76
583.274	21021.72
583.471	20915.22
583.669	21322.77
583.866	21103.64
584.064	21242.9
584.262	20663.32
584.459	20921.37
584.657	21001.24
584.854	20810.78
585.052	20440.09
585.249	20767.77
585.447	20864.02
585.644	20249.63
585.841	20694.04
586.039	20806.68
586.236	20399.13
586.434	20261.92
586.631	20157.47
586.828	20395.04
587.026	20139.04
587.223	20263.97
587.42	20151.33
587.618	19958.82
587.815	20032.55
588.012	19878.95
588.21	19700.78
588.407	20020.26
588.604	19745.83
588.801	19596.33
588.999	19487.79
589.196	19383.34
589.393	19534.89
589.59	19266.61
589.787	19217.46
589.984	19221.55
590.182	19194.93
590.379	19199.02
590.576	19129.39
590.773	19237.94
590.97	18752.57
591.167	18887.73
591.364	18623.55
591.561	19153.97
591.758	18414.65
591.955	18668.6
592.152	18814.01
592.349	18404.41
592.546	18883.64
592.743	18564.15
592.94	18383.93
593.137	18322.49
593.334	18474.04
593.531	18134.08
593.727	18277.44
593.924	18338.88
594.121	18246.72
594.318	18031.68
594.515	17769.54
594.712	18093.12
594.908	17970.24
595.105	17900.61
595.302	17857.6
595.499	17734.73
595.696	17781.83
595.892	17388.62
596.089	17777.73
596.286	17613.9
596.482	17622.09
596.679	17656.9
596.876	17753.16
597.072	17273.93
597.269	17593.42
597.466	17249.36
597.662	17220.69
597.859	17097.81
598.055	17151.06
598.252	16882.77
598.448	16985.17
598.645	16852.05
598.841	16852.05
599.038	16876.63
599.234	16540.76
599.431	16915.54
599.627	16507.99
599.824	16602.2
600.02	16612.44
600.217	16483.42
600.413	16481.37
600.609	16516.19
600.806	16385.12
601.002	16342.11
601.198	16190.56
601.395	16157.79
601.591	16290.91
601.787	16116.83
601.984	16319.58
602.18	16133.22
602.376	16016.48
602.572	15979.62
602.769	15809.64
602.965	15916.13
603.161	16102.5
603.357	15590.5
603.553	15787.11
603.75	15828.07
603.946	15469.67
604.142	15596.65
604.338	15678.57
604.534	15533.16
604.73	15219.82
604.926	15242.35
605.122	15451.24
605.318	15176.81
605.514	15058.03
605.71	15012.98
605.906	15156.33
606.102	14976.11
606.298	15041.65
606.494	15027.31
606.69	15058.03
606.886	15015.02
607.082	14783.6
607.278	14697.59
607.474	14623.86
607.67	14738.55
607.866	14492.79
608.062	14701.68
608.257	14566.52
608.453	14525.56
608.649	14722.16
608.845	14509.18
609.041	14464.12
609.236	14320.76
609.432	14619.77
609.628	14638.2
609.824	14367.87
610.019	14259.32
610.215	14265.47
610.411	14597.24
610.606	14228.6
610.802	14193.79
610.998	14201.98
611.193	14259.32
611.389	14288
611.584	14058.62
611.78	14089.34
611.976	14115.97
612.171	14023.81
612.367	14060.67
612.562	14220.41
612.758	13859.97
612.953	13603.97
613.149	13902.98
613.344	13640.84
613.539	14011.52
613.735	13718.66
613.93	13761.67
614.126	13565.06
614.321	13874.31
614.517	13612.17
614.712	13819.01
614.907	13583.49
615.103	13765.76
615.298	13540.49
615.493	13638.79
615.688	13307.02
615.884	13812.87
616.079	13280.39
616.274	13507.72
616.47	13354.12
616.665	13335.69
616.86	13538.44
617.055	13151.37
617.25	13403.27
617.445	13347.98
617.641	12858.51
617.836	13337.74
618.031	13235.34
618.226	13188.24
618.421	12962.96
618.616	13005.97
618.811	13020.3
619.006	13231.24
619.201	12637.33
619.396	12846.23
619.591	12500.12
619.786	12780.69
619.981	12645.52
620.176	12780.69
620.371	12448.92
620.566	12514.45
620.761	12674.2
620.956	12276.89
621.151	12143.77
621.346	12305.56
621.541	12045.47
621.735	12213.4
621.93	12172.44
622.125	12100.76
622.32	11979.93
622.515	12004.51
622.709	11955.36
622.904	11840.67
623.099	11801.76
623.294	11809.95
623.488	11394.22
623.683	11549.86
623.878	11510.95
624.072	11478.18
624.267	11259.05
624.462	11459.75
624.656	11154.6
624.851	11336.87
625.046	11273.39
625.24	11203.75
625.435	11142.32
625.629	11191.47
625.824	10896.56
626.018	10710.19
626.213	10618.04
626.407	10804.4
626.602	10663.09
626.796	10566.84
626.991	10663.09
627.185	10642.61
627.38	10529.97
627.574	10380.47
627.768	10290.36
627.963	10245.31
628.157	10222.78
628.352	10288.31
628.546	10169.53
628.74	10128.57
628.935	10058.94
629.129	9884.86
629.323	10034.36
629.517	9770.18
629.712	9964.73
629.906	9700.55
630.1	9614.53
630.294	9614.53
630.489	9512.13
630.683	9594.05
630.877	9399.49
631.071	9594.05
631.265	9434.31
631.459	9108.68
631.653	9235.66
631.848	9239.75
632.042	9252.04
632.236	9219.27
632.43	9133.26
632.624	9057.48
632.818	9090.25
633.012	9073.87
633.206	8873.17
633.4	8897.74
633.594	8840.4
633.788	8744.14
633.982	8738
634.176	8692.94
634.369	8694.99
634.563	8848.59
634.757	8561.87
634.951	8766.67
635.145	8406.23
635.339	8508.63
635.533	8330.45
635.726	8328.41
635.92	8277.21
636.114	8211.67
636.308	8174.81
636.501	8191.19
636.695	7978.2
636.889	7965.92
637.083	8070.36
637.276	8109.27
637.47	7855.33
637.664	7763.17
637.857	7943.39
638.051	7900.38
638.244	7650.53
638.438	7671.01
638.632	7750.88
638.825	7476.45
639.019	7683.3
639.212	7566.56
639.406	7548.13
639.599	7509.22
639.793	7529.7
639.986	7550.18
640.18	7380.2
640.373	7423.2
640.567	7279.85
640.76	7443.68
640.954	7283.94
641.147	7152.87
641.34	6923.5
641.534	7120.1
641.727	7023.85
641.92	7159.02
642.114	6993.13
642.307	6907.12
642.5	6855.92
642.694	6982.89
642.887	6837.48
643.08	6667.5
643.273	6653.17
643.467	6759.66
643.66	6620.4
643.853	6589.68
644.046	6540.53
644.239	6597.87
644.432	6507.76
644.626	6513.91
644.819	6495.47
645.012	6444.27
645.205	6315.25
645.398	6507.76
645.591	6282.49
645.784	6210.81
645.977	6247.67
646.17	6339.83
646.363	6110.46
646.556	6198.52
646.749	6071.54
646.942	6071.54
647.135	6323.44
647.328	6077.69
647.521	6149.37
647.714	5915.9
647.907	5821.69
648.099	5866.75
648.292	5833.98
648.485	5801.21
648.678	5686.53
648.871	5688.57
649.064	5604.61
649.256	5860.6
649.449	5899.52
649.642	5780.73
649.835	5604.61
650.027	5375.24
650.22	5606.66
650.413	5510.4
650.605	5491.97
650.798	5352.71
650.991	5514.5
651.183	5487.87
651.376	5317.89
651.568	5217.54
651.761	5190.92
651.954	5111.05
652.146	5065.99
652.339	5205.25
652.531	5360.9
652.724	5178.63
652.916	5016.84
653.109	5145.86
653.301	5170.44
653.494	5127.43
653.686	5092.62
653.879	5020.94
654.071	4896.01
654.263	4859.15
654.456	4883.72
654.648	4984.07
654.84	4934.92
655.033	4898.06
655.225	4838.67
655.417	4662.54
655.61	4795.66
655.802	4908.3
655.994	4635.92
656.186	4740.36
656.379	4726.03
656.571	4609.3
656.763	4629.77
656.955	4623.63
657.148	4621.58
657.34	4533.52
657.532	4482.32
657.724	4439.31
657.916	4556.05
658.108	4562.19
658.3	4320.53
658.492	4551.95
658.684	4273.43
658.876	4498.7
659.068	4228.37
659.26	4234.52
659.452	4252.95
659.644	4128.02
659.836	4396.31
660.028	4273.43
660.22	4138.26
660.412	4046.1
660.604	4107.54
660.796	4236.56
660.988	4238.61
661.18	3999
661.372	4105.49
661.563	4138.26
661.755	3974.42
661.947	3974.42
662.139	3945.75
662.331	4015.38
662.522	3900.7
662.714	3947.8
662.906	3962.14
663.097	3816.73
663.289	3917.08
663.481	3790.11
663.673	3876.12
663.864	3775.77
664.056	3788.06
664.247	3714.33
664.439	3540.26
664.631	3732.76
664.822	3585.31
665.014	3630.37
665.205	3677.47
665.397	3730.72
665.588	3704.09
665.78	3632.41
665.971	3507.49
666.163	3575.07
666.354	3628.32
666.546	3589.41
666.737	3470.62
666.929	3388.71
667.12	3503.39
667.311	3435.81
667.503	3425.57
667.694	3409.19
667.885	3351.84
668.077	3357.99
668.268	3310.88
668.459	3388.71
668.651	3339.55
668.842	3202.34
669.033	3339.55
669.224	3263.78
669.416	3188
669.607	3271.97
669.798	3231.01
669.989	3202.34
670.18	3200.29
670.371	3231.01
670.563	3075.37
670.754	3147.05
670.945	3101.99
671.136	3099.94
671.327	3147.05
671.518	3095.85
671.709	3018.02
671.9	3132.71
672.091	2950.44
672.282	3026.22
672.473	2909.48
672.664	2964.78
672.855	3093.8
673.046	2983.21
673.237	2991.4
673.428	2948.39
673.619	2895.15
673.809	2815.27
674	2882.86
674.191	2712.88
674.382	2794.79
674.573	2829.61
674.764	2858.28
674.954	2809.13
675.145	2811.18
675.336	2737.45
675.527	2747.69
675.717	2770.22
675.908	2721.07
676.099	2669.87
676.289	2714.92
676.48	2635.05
676.671	2706.73
676.861	2786.6
677.052	2643.24
677.243	2645.29
677.433	2606.38
677.624	2663.72
677.814	2653.48
678.005	2590
678.195	2630.96
678.386	2630.96
678.576	2571.57
678.767	2483.5
678.957	2555.18
679.148	2676.01
679.338	2596.14
679.529	2528.56
679.719	2655.53
679.909	2405.68
680.1	2475.31
680.29	2520.37
680.481	2385.2
680.671	2600.24
680.861	2508.08
681.052	2393.39
681.242	2600.24
681.432	2493.74
681.622	2463.02
681.813	2450.74
682.003	2389.3
682.193	2344.24
682.383	2440.5
682.573	2393.39
682.764	2340.15
682.954	2460.98
683.144	2358.58
683.334	2405.68
683.524	2305.33
683.714	2477.36
683.904	2458.93
684.094	2403.63
684.284	2280.75
684.474	2297.14
684.664	2338.1
684.854	2245.94
685.044	2200.88
685.234	2229.56
685.424	2204.98
685.614	2297.14
685.804	2245.94
685.994	2166.07
686.184	2256.18
686.374	2209.08
686.564	2245.94
686.753	2168.12
686.943	2112.82
687.133	2223.41
687.323	2202.93
687.513	2174.26
687.702	2198.84
687.892	2172.21
688.082	2035
688.272	2139.44
688.461	2161.97
688.651	2159.92
688.841	2084.15
689.03	2057.53
689.22	2108.73
689.41	2155.83
689.599	2102.58
689.789	1922.36
689.979	2067.77
690.168	2008.37
690.358	2051.38
690.547	1930.55
690.737	2114.87
690.926	2073.91
691.116	2053.43
691.305	2141.49
691.495	1953.08
691.684	1944.89
691.874	1987.89
692.063	1899.83
692.252	1901.88
692.442	1942.84
692.631	2028.85
692.82	2094.39
693.01	1895.74
693.199	1971.51
693.388	1983.8
693.578	1856.82
693.767	2026.81
693.956	1940.79
694.146	1815.87
694.335	1938.74
694.524	1819.96
694.713	1983.8
694.902	1883.45
695.092	1860.92
695.281	1914.17
695.47	1936.7
695.659	1797.43
695.848	1746.23
696.037	1860.92
696.226	1838.39
696.415	1813.82
696.604	1881.4
696.793	1910.07
696.982	1834.3
697.171	1854.78
697.36	1924.41
697.549	1854.78
697.738	1850.68
697.927	1844.54
698.116	1996.09
698.305	1871.16
698.494	1875.26
698.683	2008.37
698.872	1860.92
699.061	1826.11
699.25	1781.05
699.438	1883.45
699.627	1910.07
699.816	1830.2
700.005	1824.06
700.193	1809.72
700.382	1766.71
700.571	1805.63
700.76	1887.54
700.948	1830.2
701.137	1787.19
701.326	1914.17
701.514	1865.02
701.703	1846.59
701.892	1738.04
702.08	1944.89
702.269	1750.33
702.457	1871.16
702.646	1928.5
702.834	1832.25
703.023	1805.63
703.212	1881.4
703.4	1783.1
703.589	1770.81
703.777	1764.67
703.965	1905.98
704.154	1813.82
704.342	1862.97
704.531	1783.1
704.719	1852.73
704.907	1828.15
705.096	1797.43
705.284	1764.67
705.472	1836.35
705.661	1774.91
705.849	1822.01
706.037	1813.82
706.226	1744.19
706.414	1891.64
706.602	1713.47
706.79	1862.97
706.979	1752.38
707.167	1740.09
707.355	1641.79
707.543	1873.21
707.731	1848.63
707.919	1770.81
708.107	1793.34
708.296	1852.73
708.484	1744.19
708.672	1803.58
708.86	1791.29
709.048	1822.01
709.236	1828.15
709.424	1789.24
709.612	1752.38
709.8	1799.48
709.988	1838.39
710.176	1860.92
710.364	1877.3
710.551	1795.39
710.739	1699.13
710.927	1740.09
711.115	1779
711.303	1750.33
711.491	1746.23
711.679	1854.78
711.866	1860.92
712.054	1793.34
712.242	1848.63
712.43	1770.81
712.617	1854.78
712.805	1817.91
712.993	1779
713.181	1746.23
713.368	1832.25
713.556	1873.21
713.744	1750.33
713.931	1801.53
714.119	1858.87
714.306	1795.39
714.494	1877.3
714.682	1744.19
714.869	1764.67
715.057	1852.73
715.244	1817.91
715.432	1801.53
715.619	1744.19
715.807	1842.49
715.994	1758.52
716.182	1797.43
716.369	1936.7
716.556	1754.43
716.744	1807.67
716.931	1930.55
717.119	1738.04
717.306	1770.81
717.493	1758.52
717.681	1721.66
717.868	1830.2
718.055	1828.15
718.242	1779
718.43	1844.54
718.617	1754.43
718.804	1811.77
718.991	1875.26
719.179	1854.78
719.366	1725.76
719.553	1711.42
719.74	1865.02
719.927	1692.99
720.114	1842.49
720.301	1869.11
720.488	1742.14
720.676	1799.48
720.863	1811.77
721.05	1860.92
721.237	1791.29
721.424	1959.22
721.611	1717.56
721.798	1684.8
721.985	1801.53
722.172	1686.84
722.358	1865.02
722.545	1811.77
722.732	1754.43
722.919	1881.4
723.106	1813.82
723.293	1901.88
723.48	1811.77
723.667	1772.86
723.853	1854.78
724.04	1637.69
724.227	1686.84
724.414	1721.66
724.6	1815.87
724.787	1795.39
724.974	1836.35
725.161	1672.51
725.347	1774.91
725.534	1785.15
725.72	1779
725.907	1824.06
726.094	1715.52
726.28	1795.39
726.467	1721.66
726.653	1664.32
726.84	1844.54
727.027	1766.71
727.213	1799.48
727.4	1779
727.586	1776.95
727.773	1865.02
727.959	1742.14
728.145	1832.25
728.332	1822.01
728.518	1944.89
728.705	1762.62
728.891	1860.92
729.077	1664.32
729.264	1701.18
729.45	1779
729.636	1799.48
729.823	1779
730.009	1723.71
730.195	1697.08
730.382	1705.28
730.568	1740.09
730.754	1729.85
730.94	1738.04
731.126	1817.91
731.313	1723.71
731.499	1789.24
731.685	1752.38
731.871	1840.44
732.057	1844.54
732.243	1717.56
732.429	1664.32
732.615	1813.82
732.801	1709.37
732.987	1772.86
733.173	1688.89
733.359	1750.33
733.545	1692.99
733.731	1680.7
733.917	1666.36
734.103	1692.99
734.289	1770.81
734.475	1707.32
734.661	1695.04
734.847	1639.74
735.033	1733.95
735.219	1645.88
735.404	1664.32
735.59	1697.08
735.776	1746.23
735.962	1639.74
736.148	1758.52
736.333	1705.28
736.519	1695.04
736.705	1635.64
736.89	1658.17
737.076	1664.32
737.262	1557.82
737.447	1606.97
737.633	1582.4
737.819	1682.75
738.004	1707.32
738.19	1686.84
738.375	1582.4
738.561	1715.52
738.747	1711.42
738.932	1615.16
739.118	1664.32
739.303	1635.64
739.489	1686.84
739.674	1606.97
739.859	1647.93
740.045	1744.19
740.23	1688.89
740.416	1584.45
740.601	1705.28
740.786	1660.22
740.972	1551.68
741.157	1520.96
741.342	1549.63
741.528	1602.88
741.713	1721.66
741.898	1613.12
742.084	1533.25
742.269	1598.78
742.454	1576.25
742.639	1625.4
742.824	1541.44
743.01	1545.53
743.195	1553.73
743.38	1486.14
743.565	1623.36
743.75	1488.19
743.935	1471.81
744.12	1557.82
744.305	1443.14
744.49	1498.43
744.675	1424.7
744.86	1393.98
745.045	1543.49
745.23	1525.05
745.415	1377.6
745.6	1490.24
745.785	1408.32
745.97	1434.94
746.155	1492.29
746.34	1473.85
746.525	1367.36
746.71	1422.66
746.895	1416.51
747.079	1262.91
747.264	1295.68
747.449	1404.22
747.634	1414.46
747.819	1412.42
748.003	1344.83
748.188	1314.11
748.373	1381.7
748.557	1361.22
748.742	1314.11
748.927	1410.37
749.111	1297.73
749.296	1281.35
749.481	1312.07
749.665	1332.55
749.85	1215.81
750.034	1291.59
750.219	1297.73
750.404	1252.67
750.588	1275.2
750.773	1242.43
750.957	1189.19
751.141	1283.39
751.326	1254.72
751.51	1164.61
751.695	1361.22
751.879	1176.9
752.064	1183.04
752.248	1176.9
752.432	1193.28
752.617	1197.38
752.801	1215.81
752.985	1189.19
753.17	1099.08
753.354	1209.67
753.538	1123.65
753.722	1103.17
753.907	1181
754.091	965.96
754.275	1156.42
754.459	1131.84
754.643	1121.6
754.828	1054.02
755.012	1021.25
755.196	1056.07
755.38	1131.84
755.564	1029.45
755.748	1068.36
755.932	1054.02
756.116	1097.03
756.3	988.49
756.484	1056.07
756.668	1060.17
756.852	990.53
757.036	1035.59
757.22	1006.92
757.404	892.23
757.588	927.05
757.772	961.86
757.956	1019.21
758.14	1011.01
758.323	1037.64
758.507	1002.82
758.691	951.62
758.875	922.95
759.059	900.42
759.242	939.34
759.426	970.05
759.61	963.91
759.794	900.42
759.977	939.34
760.161	961.86
760.345	808.26
760.528	941.38
760.712	851.27
760.895	931.14
761.079	869.7
761.263	918.86
761.446	937.29
761.63	853.32
761.813	968.01
761.997	879.94
762.18	830.79
762.364	855.37
762.547	777.55
762.731	886.09
762.914	763.21
763.098	871.75
763.281	888.14
763.464	824.65
763.648	787.79
763.831	822.6
764.015	789.83
764.198	793.93
764.381	816.46
764.564	863.56
764.748	808.26
764.931	804.17
765.114	775.5
765.297	838.98
765.481	830.79
765.664	763.21
765.847	830.79
766.03	879.94
766.213	755.02
766.397	836.94
766.58	826.7
766.763	810.31
766.946	752.97
767.129	800.07
767.312	810.31
767.495	802.12
767.678	771.4
767.861	820.55
768.044	707.91
768.227	730.44
768.41	820.55
768.593	818.5
768.776	724.3
768.959	736.59
769.142	752.97
769.324	712.01
769.507	712.01
769.69	718.15
769.873	732.49
770.056	828.74
770.239	681.29
770.421	779.59
770.604	679.24
770.787	789.83
770.97	656.72
771.152	752.97
771.335	763.21
771.518	693.58
771.7	791.88
771.883	685.39
772.066	691.53
772.248	720.2
772.431	709.96
772.613	714.06
772.796	709.96
772.978	707.91
773.161	675.15
773.343	634.19
773.526	658.76
773.708	720.2
773.891	582.99
774.073	691.53
774.256	632.14
774.438	537.93
774.621	632.14
774.803	607.56
774.985	628.04
775.168	652.62
775.35	654.67
775.532	607.56
775.715	689.48
775.897	566.6
776.079	566.6
776.261	613.71
776.444	591.18
776.626	632.14
776.808	673.1
776.99	591.18
777.173	566.6
777.355	568.65
777.537	574.8
777.719	539.98
777.901	585.04
778.083	527.69
778.265	517.45
778.447	593.23
778.629	486.73
778.811	513.36
778.993	546.12
779.175	521.55
779.357	533.84
779.539	478.54
779.721	499.02
779.903	535.89
780.085	519.5
780.267	435.53
780.449	482.64
780.631	546.12
780.812	529.74
780.994	521.55
781.176	535.89
781.358	451.92
781.54	488.78
781.721	488.78
781.903	394.58
782.085	404.82
782.267	519.5
782.448	435.53
782.63	470.35
782.812	419.15
782.993	472.4
783.175	464.21
783.357	533.84
783.538	388.43
783.72	449.87
783.901	462.16
784.083	496.97
784.264	406.86
784.446	451.92
784.627	453.97
784.809	384.34
784.99	433.49
785.172	453.97
785.353	372.05
785.535	400.72
785.716	372.05
785.897	423.25
786.079	378.19
786.26	447.82
786.441	429.39
786.623	421.2
786.804	363.86
786.985	433.49
787.167	351.57
787.348	326.99
787.529	435.53
787.71	433.49
787.891	359.76
788.073	331.09
788.254	458.06
788.435	413.01
788.616	347.47
788.797	314.7
788.978	308.56
789.159	376.14
789.34	347.47
789.522	326.99
789.703	292.18
789.884	333.14
790.065	314.7
790.246	378.19
790.427	347.47
790.607	345.42
790.788	329.04
790.969	312.66
791.15	308.56
791.331	337.23
791.512	390.48
791.693	345.42
791.874	353.62
792.054	240.98
792.235	343.38
792.416	267.6
792.597	308.56
792.778	384.34
792.958	249.17
793.139	288.08
793.32	306.51
793.5	202.07
793.681	345.42
793.862	304.46
794.042	255.31
794.223	353.62
794.404	298.32
794.584	197.97
794.765	273.75
794.945	249.17
795.126	232.79
795.306	386.38
795.487	189.78
795.667	181.59
795.848	249.17
796.028	298.32
796.209	277.84
796.389	228.69
796.57	247.12
796.75	208.21
796.93	257.36
797.111	197.97
797.291	230.74
797.471	200.02
797.652	263.51
797.832	357.71
798.012	304.46
798.192	187.73
798.373	214.35
798.553	206.16
798.733	208.21
798.913	222.55
799.093	234.83
799.274	245.07
799.454	292.18
799.634	206.16
799.814	290.13
799.994	193.87
800.174	181.59
800.354	265.55
800.534	140.63
800.714	228.69
800.894	210.26
801.074	197.97
801.254	181.59
801.434	132.44
801.614	197.97
801.794	157.01
801.974	701.77
802.154	169.3
802.334	232.79
802.514	212.31
802.693	230.74
802.873	173.39
803.053	157.01
803.233	165.2
803.413	240.98
803.592	210.26
803.772	179.54
803.952	232.79
804.131	191.83
804.311	210.26
804.491	273.75
804.67	216.4
804.85	157.01
805.03	228.69
805.209	275.79
805.389	230.74
805.568	189.78
805.748	191.83
805.928	245.07
806.107	218.45
806.287	171.35
806.466	157.01
806.646	208.21
806.825	132.44
807.004	159.06
807.184	208.21
807.363	224.59
807.543	171.35
807.722	120.15
807.901	210.26
808.081	206.16
808.26	214.35
808.439	193.87
808.619	150.87
808.798	173.39
808.977	195.92
809.156	214.35
809.336	161.11
809.515	136.53
809.694	120.15
809.873	165.2
810.052	122.2
810.231	177.49
810.411	157.01
810.59	189.78
810.769	142.68
810.948	148.82
811.127	177.49
811.306	173.39
811.485	216.4
811.664	124.24
811.843	191.83
812.022	169.3
812.201	118.1
812.38	197.97
812.559	118.1
812.737	214.35
812.916	71
813.095	116.05
813.274	161.11
813.453	130.39
813.632	161.11
813.811	195.92
813.989	83.28
814.168	165.2
814.347	68.95
814.526	167.25
814.704	124.24
814.883	187.73
815.062	101.72
815.24	134.48
815.419	167.25
815.598	173.39
815.776	99.67
815.955	214.35
816.133	118.1
816.312	87.38
816.49	177.49
816.669	132.44
816.847	165.2
817.026	169.3
817.204	118.1
817.383	142.68
817.561	68.95
817.74	42.32
817.918	77.14
818.097	75.09
818.275	71
818.453	136.53
818.632	177.49
818.81	120.15
818.988	150.87
819.167	99.67
819.345	118.1
819.523	152.91
819.701	191.83
819.879	75.09
820.058	83.28
820.236	150.87
820.414	68.95
820.592	71
820.77	122.2
820.948	77.14
821.127	105.81
821.305	25.94
821.483	58.71
821.661	152.91
821.839	44.37
822.017	95.57
822.195	25.94
822.373	99.67
822.551	126.29
822.729	124.24
822.907	77.14
823.085	173.39
823.262	148.82
823.44	87.38
823.618	103.76
823.796	116.05
823.974	124.24
824.152	146.77
824.329	114
824.507	75.09
824.685	50.52
824.863	77.14
825.04	134.48
825.218	122.2
825.396	34.13
825.574	144.72
825.751	118.1
825.929	46.42
826.107	17.75
826.284	54.61
826.462	146.77
826.639	93.52
826.817	46.42
826.994	58.71
827.172	134.48
827.349	142.68
827.527	97.62
827.704	68.95
827.882	122.2
828.059	52.56
828.237	103.76
828.414	95.57
828.591	38.23
828.769	11.61
828.946	120.15
829.124	44.37
829.301	97.62
829.478	34.13
829.655	103.76
829.833	144.72
830.01	73.04
830.187	17.75
830.364	85.33
830.542	120.15
830.719	99.67
830.896	126.29
831.073	120.15
831.25	107.86
831.427	159.06
831.604	42.32
831.782	42.32
831.959	157.01
832.136	130.39
832.313	40.28
832.49	134.48
832.667	134.48
832.844	36.18
833.021	107.86
833.198	91.48
833.374	66.9
833.551	97.62
833.728	77.14
833.905	77.14
834.082	130.39
834.259	95.57
834.436	107.86
834.612	5.46
834.789	103.76
834.966	103.76
835.143	163.15
835.319	42.32
835.496	50.52
835.673	134.48
835.85	1.37
836.026	42.32
836.203	56.66
836.38	30.04
836.556	134.48
836.733	75.09
836.909	32.08
837.086	105.81
837.262	114
837.439	99.67
837.616	109.91
837.792	93.52
837.968	25.94
838.145	75.09
838.321	134.48
838.498	101.72
838.674	46.42
838.851	58.71
839.027	93.52
839.203	30.04
839.38	83.28
839.556	25.94
839.732	132.44
839.909	52.56
840.085	109.91
840.261	44.37
840.437	95.57
840.614	105.81
840.79	58.71
840.966	66.9
841.142	42.32
841.318	50.52
841.494	19.8
841.671	54.61
841.847	68.95
842.023	101.72
842.199	42.32
842.375	103.76
842.551	-66.22
842.727	52.56
842.903	75.09
843.079	46.42
843.255	97.62
843.431	13.65
843.607	101.72
843.783	62.8
843.959	62.8
844.134	34.13
844.31	77.14
844.486	103.76
844.662	40.28
844.838	38.23
845.013	17.75
845.189	30.04
845.365	93.52
845.541	-17.07
845.716	73.04
845.892	42.32
846.068	34.13
846.244	-0.68
846.419	142.68
846.595	42.32
846.77	32.08
846.946	73.04
847.122	87.38
847.297	-10.92
847.473	75.09
847.648	77.14
847.824	19.8
847.999	5.46
848.175	50.52
848.35	77.14
848.526	68.95
848.701	71
848.876	42.32
849.052	101.72
849.227	7.51
849.403	38.23
849.578	60.76
849.753	81.24
849.929	122.2
850.104	30.04
850.279	75.09
850.454	19.8
850.63	66.9
850.805	58.71
850.98	79.19
851.155	9.56
851.33	58.71
851.505	38.23
851.681	159.06
851.856	62.8
852.031	107.86
852.206	32.08
852.381	-4.78
852.556	89.43
852.731	30.04
852.906	-45.74
853.081	19.8
853.256	34.13
853.431	48.47
853.606	-10.92
853.781	34.13
853.956	13.65
854.131	-27.31
854.305	30.04
854.48	95.57
854.655	3.41
854.83	34.13
855.005	62.8
855.18	66.9
855.354	7.51
855.529	27.99
855.704	75.09
855.879	-17.07
856.053	42.32
856.228	116.05
856.403	42.32
856.577	36.18
856.752	11.61
856.926	83.28
857.101	21.85
857.276	54.61
857.45	34.13
857.625	3.41
857.799	68.95
857.974	79.19
858.148	5.46
858.323	107.86
858.497	27.99
858.672	17.75
858.846	-27.31
859.02	40.28
859.195	-2.73
859.369	66.9
859.543	25.94
859.718	-4.78
859.892	-35.5
860.066	64.85
860.241	48.47
860.415	40.28
860.589	19.8
860.763	30.04
860.938	15.7
861.112	-27.31
861.286	5.46
861.46	75.09
861.634	-37.55
861.808	34.13
861.982	9.56
862.157	42.32
862.331	50.52
862.505	-4.78
862.679	-12.97
862.853	21.85
863.027	83.28
863.201	103.76
863.375	-41.64
863.549	23.89
863.722	-15.02
863.896	40.28
864.07	116.05
864.244	-15.02
864.418	36.18
864.592	50.52
864.766	64.85
864.939	42.32
865.113	23.89
865.287	97.62
865.461	11.61
865.634	27.99
865.808	21.85
865.982	9.56
866.156	32.08
866.329	25.94
866.503	38.23
866.676	56.66
866.85	-41.64
867.024	52.56
867.197	50.52
867.371	85.33
867.544	15.7
867.718	13.65
867.891	34.13
868.065	-17.07
868.238	-4.78
868.412	77.14
868.585	11.61
868.759	38.23
868.932	9.56
869.105	40.28
869.279	46.42
869.452	87.38
869.625	54.61
869.799	87.38
869.972	-21.16
870.145	34.13
870.319	58.71
870.492	42.32
870.665	-60.07
870.838	25.94
871.011	-92.84
871.185	60.76
871.358	-2.73
871.531	9.56
871.704	19.8
871.877	25.94
872.05	44.37
872.223	5.46
872.396	42.32
872.569	73.04
872.742	-6.83
872.915	62.8
873.088	87.38
873.261	32.08
873.434	23.89
873.607	38.23
873.78	124.24
873.953	15.7
874.126	-25.26
874.299	-51.88
874.471	23.89
874.644	-33.45
874.817	60.76
874.99	58.71
875.163	-37.55
875.335	56.66
875.508	-31.4
875.681	56.66
875.853	79.19
876.026	44.37
876.199	30.04
876.371	44.37
876.544	44.37
876.717	66.9
876.889	-10.92
877.062	58.71
877.234	-23.21
877.407	32.08
877.579	-45.74
877.752	99.67
877.924	11.61
878.097	50.52
878.269	19.8
878.442	34.13
878.614	-21.16
878.786	52.56
878.959	42.32
879.131	32.08
879.303	85.33
879.476	42.32
879.648	9.56
879.82	87.38
879.993	-23.21
880.165	13.65
880.337	73.04
880.509	46.42
880.681	36.18
880.854	30.04
881.026	50.52
881.198	30.04
881.37	-17.07
881.542	118.1
881.714	11.61
881.886	-21.16
882.058	27.99
882.23	87.38
882.402	30.04
882.574	42.32
882.746	40.28
882.918	114
883.09	71
883.262	58.71
883.434	48.47
883.606	93.52
883.778	-29.35
883.95	75.09
884.122	58.71
884.293	3.41
884.465	5.46
884.637	38.23
884.809	79.19
884.98	46.42
885.152	64.85
885.324	-12.97
885.496	46.42
885.667	-4.78
885.839	36.18
886.011	93.52
886.182	42.32
886.354	66.9
886.525	38.23
886.697	23.89
886.869	13.65
887.04	30.04
887.212	75.09
887.383	97.62
887.555	-0.68
887.726	11.61
887.897	-15.02
888.069	-39.59
888.24	46.42
888.412	27.99
888.583	58.71
888.754	-55.98
888.926	-37.55
889.097	99.67
889.268	32.08
889.44	3.41
889.611	-15.02
889.782	23.89
889.953	-37.55
890.125	40.28
890.296	9.56
890.467	50.52
890.638	50.52
890.809	34.13
890.98	62.8
891.151	42.32
891.323	50.52
891.494	-12.97
891.665	81.24
891.836	44.37
892.007	44.37
892.178	3.41
892.349	-2.73
892.52	38.23
892.691	83.28
892.862	25.94
893.032	-76.46
893.203	-47.79
893.374	46.42
893.545	83.28
893.716	-19.11
893.887	109.91
894.057	25.94
894.228	-2.73
894.399	-21.16
894.57	-23.21
894.74	75.09
894.911	11.61
895.082	-0.68
895.253	-64.17
895.423	36.18
895.594	54.61
895.764	-8.87
895.935	46.42
896.106	13.65
896.276	48.47
896.447	1.37
896.617	-68.27
896.788	64.85
896.958	25.94
897.129	11.61
897.299	91.48
897.47	-49.83
897.64	15.7
897.81	60.76
897.981	38.23
898.151	5.46
898.322	19.8
898.492	27.99
898.662	3.41
898.832	-12.97
899.003	5.46
899.173	34.13
899.343	54.61
899.513	-10.92
