Data from USB4F104151__38__13-11-01-042.txt Node

Date: Fri Mar 14 13:11:01 EDT 2025
User: louis
Spectrometer: USB4F10415
Trigger mode: 4
Integration Time (sec): 2.000000E-2
Scans to average: 1
Electric dark correction enabled: true
Nonlinearity correction enabled: false
Boxcar width: 0
XAxis mode: Wavelengths
Number of Pixels in Spectrum: 3648
>>>>>Begin Spectral Data<<<<<
178.204	-109.74
178.424	-109.74
178.644	-109.74
178.864	-79.02
179.084	-62.63
179.304	76.63
179.524	-62.63
179.744	-3.24
179.964	7
180.184	-15.53
180.404	25.43
180.624	-13.48
180.844	52.05
181.064	-44.2
181.283	27.48
181.503	-25.77
181.723	-23.72
181.943	4.95
182.163	52.05
182.383	-15.53
182.602	17.24
182.822	41.81
183.042	9.05
183.262	23.38
183.482	13.14
183.701	62.29
183.921	21.33
184.141	29.52
184.361	-3.24
184.58	-17.58
184.8	70.48
185.02	-7.34
185.239	45.91
185.459	-17.58
185.679	93.01
185.898	23.38
186.118	78.68
186.338	17.24
186.557	52.05
186.777	41.81
186.997	39.76
187.216	37.72
187.436	140.12
187.655	-15.53
187.875	7
188.095	9.05
188.314	93.01
188.534	19.29
188.753	11.09
188.973	11.09
189.192	33.62
189.412	-46.25
189.631	72.53
189.851	47.96
190.07	41.81
190.29	2.9
190.509	-9.39
190.729	4.95
190.948	117.59
191.168	97.11
191.387	99.16
191.607	-9.39
191.826	33.62
192.045	2.9
192.265	62.29
192.484	41.81
192.704	107.35
192.923	-29.87
193.142	19.29
193.362	50
193.581	84.82
193.8	27.48
194.02	80.72
194.239	25.43
194.458	13.14
194.678	2.9
194.897	27.48
195.116	50
195.335	17.24
195.555	41.81
195.774	150.36
195.993	4.95
196.212	7
196.432	-17.58
196.651	74.58
196.87	21.33
197.089	140.12
197.308	68.44
197.528	84.82
197.747	9.05
197.966	-3.24
198.185	80.72
198.404	17.24
198.623	33.62
198.842	31.57
199.062	27.48
199.281	43.86
199.5	25.43
199.719	33.62
199.938	29.52
200.157	66.39
200.376	76.63
200.595	37.72
200.814	66.39
201.033	25.43
201.252	97.11
201.471	54.1
201.69	76.63
201.909	90.96
202.128	-27.82
202.347	35.67
202.566	-15.53
202.785	-9.39
203.004	45.91
203.223	45.91
203.442	27.48
203.661	115.54
203.879	29.52
204.098	99.16
204.317	39.76
204.536	0.85
204.755	4.95
204.974	23.38
205.193	-17.58
205.411	97.11
205.63	58.2
205.849	29.52
206.068	9.05
206.287	70.48
206.505	-7.34
206.724	-1.19
206.943	-33.96
207.162	17.24
207.381	-5.29
207.599	88.92
207.818	-46.25
208.037	54.1
208.255	-3.24
208.474	0.85
208.693	54.1
208.911	105.3
209.13	41.81
209.349	43.86
209.567	70.48
209.786	138.07
210.005	58.2
210.223	60.24
210.442	-21.67
210.661	41.81
210.879	68.44
211.098	17.24
211.316	37.72
211.535	15.19
211.753	25.43
211.972	-46.25
212.191	-15.53
212.409	2.9
212.628	-3.24
212.846	56.15
213.065	17.24
213.283	27.48
213.502	-11.43
213.72	11.09
213.938	2.9
214.157	84.82
214.375	60.24
214.594	-5.29
214.812	109.4
215.031	72.53
215.249	9.05
215.467	80.72
215.686	45.91
215.904	43.86
216.122	17.24
216.341	62.29
216.559	58.2
216.778	33.62
216.996	9.05
217.214	82.77
217.432	15.19
217.651	13.14
217.869	37.72
218.087	45.91
218.306	74.58
218.524	7
218.742	74.58
218.96	107.35
219.179	4.95
219.397	11.09
219.615	45.91
219.833	27.48
220.051	17.24
220.27	90.96
220.488	4.95
220.706	56.15
220.924	17.24
221.142	-15.53
221.36	70.48
221.578	56.15
221.796	-3.24
222.015	25.43
222.233	97.11
222.451	115.54
222.669	21.33
222.887	82.77
223.105	-27.82
223.323	-17.58
223.541	37.72
223.759	17.24
223.977	-44.2
224.195	33.62
224.413	76.63
224.631	35.67
224.849	27.48
225.067	97.11
225.285	13.14
225.503	88.92
225.721	-7.34
225.939	39.76
226.157	52.05
226.375	52.05
226.592	-36.01
226.81	76.63
227.028	-25.77
227.246	99.16
227.464	76.63
227.682	107.35
227.9	-66.73
228.117	13.14
228.335	50
228.553	39.76
228.771	21.33
228.989	4.95
229.206	105.3
229.424	-38.06
229.642	-1.19
229.86	66.39
230.077	33.62
230.295	97.11
230.513	25.43
230.731	127.83
230.948	74.58
231.166	76.63
231.384	11.09
231.601	27.48
231.819	52.05
232.037	-33.96
232.254	-7.34
232.472	66.39
232.689	90.96
232.907	43.86
233.125	33.62
233.342	78.68
233.56	-44.2
233.777	50
233.995	66.39
234.213	109.4
234.43	-36.01
234.648	29.52
234.865	27.48
235.083	35.67
235.3	82.77
235.518	-19.63
235.735	52.05
235.953	64.34
236.17	-3.24
236.388	78.68
236.605	9.05
236.822	68.44
237.04	97.11
237.257	45.91
237.475	54.1
237.692	50
237.909	19.29
238.127	21.33
238.344	-31.91
238.562	35.67
238.779	-13.48
238.996	50
239.214	76.63
239.431	74.58
239.648	2.9
239.865	66.39
240.083	-3.24
240.3	62.29
240.517	2.9
240.735	27.48
240.952	68.44
241.169	11.09
241.386	41.81
241.603	62.29
241.821	-31.91
242.038	35.67
242.255	54.1
242.472	27.48
242.689	-9.39
242.907	66.39
243.124	-17.58
243.341	23.38
243.558	0.85
243.775	19.29
243.992	17.24
244.209	27.48
244.426	11.09
244.643	29.52
244.86	29.52
245.078	27.48
245.295	29.52
245.512	95.06
245.729	-76.97
245.946	4.95
246.163	47.96
246.38	9.05
246.597	9.05
246.814	43.86
247.031	15.19
247.248	43.86
247.464	-38.06
247.681	74.58
247.898	95.06
248.115	82.77
248.332	25.43
248.549	70.48
248.766	109.4
248.983	-7.34
249.2	43.86
249.417	21.33
249.633	9.05
249.85	-5.29
250.067	37.72
250.284	-15.53
250.501	99.16
250.717	70.48
250.934	35.67
251.151	39.76
251.368	7
251.585	62.29
251.801	70.48
252.018	35.67
252.235	7
252.451	-11.43
252.668	39.76
252.885	2.9
253.102	35.67
253.318	17.24
253.535	17.24
253.752	56.15
253.968	33.62
254.185	56.15
254.401	45.91
254.618	66.39
254.835	17.24
255.051	58.2
255.268	-21.67
255.484	95.06
255.701	17.24
255.917	88.92
256.134	33.62
256.351	58.2
256.567	33.62
256.784	19.29
257	-31.91
257.217	11.09
257.433	25.43
257.65	56.15
257.866	47.96
258.082	11.09
258.299	-33.96
258.515	50
258.732	11.09
258.948	-3.24
259.165	21.33
259.381	31.57
259.597	84.82
259.814	-5.29
260.03	2.9
260.246	45.91
260.463	66.39
260.679	76.63
260.895	31.57
261.112	13.14
261.328	25.43
261.544	-36.01
261.761	99.16
261.977	56.15
262.193	-21.67
262.409	11.09
262.626	68.44
262.842	97.11
263.058	-38.06
263.274	50
263.49	13.14
263.707	27.48
263.923	-15.53
264.139	31.57
264.355	23.38
264.571	101.2
264.787	66.39
265.004	52.05
265.22	25.43
265.436	62.29
265.652	0.85
265.868	60.24
266.084	-11.43
266.3	56.15
266.516	9.05
266.732	56.15
266.948	35.67
267.164	-38.06
267.38	58.2
267.596	15.19
267.812	-11.43
268.028	-27.82
268.244	19.29
268.46	121.68
268.676	39.76
268.892	25.43
269.108	-48.3
269.324	-7.34
269.54	50
269.756	56.15
269.972	4.95
270.188	2.9
270.403	-27.82
270.619	105.3
270.835	35.67
271.051	19.29
271.267	7
271.483	90.96
271.698	41.81
271.914	76.63
272.13	-38.06
272.346	74.58
272.562	82.77
272.777	50
272.993	-3.24
273.209	37.72
273.425	82.77
273.64	17.24
273.856	29.52
274.072	45.91
274.287	56.15
274.503	41.81
274.719	84.82
274.934	35.67
275.15	-11.43
275.366	19.29
275.581	50
275.797	0.85
276.012	11.09
276.228	27.48
276.444	17.24
276.659	56.15
276.875	19.29
277.09	-11.43
277.306	0.85
277.521	99.16
277.737	-23.72
277.952	2.9
278.168	127.83
278.383	31.57
278.599	13.14
278.814	15.19
279.03	103.25
279.245	86.87
279.461	23.38
279.676	133.97
279.892	-7.34
280.107	23.38
280.322	39.76
280.538	35.67
280.753	50
280.969	-5.29
281.184	70.48
281.399	84.82
281.615	33.62
281.83	115.54
282.045	27.48
282.26	4.95
282.476	56.15
282.691	125.78
282.906	-1.19
283.122	7
283.337	-40.11
283.552	45.91
283.767	58.2
283.983	37.72
284.198	50
284.413	47.96
284.628	39.76
284.843	13.14
285.058	58.2
285.274	50
285.489	-40.11
285.704	146.26
285.919	-15.53
286.134	25.43
286.349	25.43
286.564	25.43
286.779	41.81
286.995	58.2
287.21	25.43
287.425	52.05
287.64	72.53
287.855	72.53
288.07	-17.58
288.285	17.24
288.5	25.43
288.715	68.44
288.93	19.29
289.145	56.15
289.36	99.16
289.575	2.9
289.79	-25.77
290.004	-21.67
290.219	72.53
290.434	41.81
290.649	84.82
290.864	-5.29
291.079	2.9
291.294	37.72
291.509	31.57
291.724	35.67
291.938	68.44
292.153	25.43
292.368	-1.19
292.583	90.96
292.798	-15.53
293.012	58.2
293.227	64.34
293.442	43.86
293.657	33.62
293.871	41.81
294.086	-31.91
294.301	101.2
294.516	66.39
294.73	121.68
294.945	54.1
295.16	60.24
295.374	13.14
295.589	17.24
295.804	-23.72
296.018	-5.29
296.233	33.62
296.447	117.59
296.662	70.48
296.877	25.43
297.091	64.34
297.306	35.67
297.52	-3.24
297.735	72.53
297.949	43.86
298.164	35.67
298.378	68.44
298.593	52.05
298.807	33.62
299.022	47.96
299.236	146.26
299.451	56.15
299.665	60.24
299.88	11.09
300.094	33.62
300.309	4.95
300.523	17.24
300.737	56.15
300.952	13.14
301.166	74.58
301.381	33.62
301.595	64.34
301.809	0.85
302.024	33.62
302.238	82.77
302.452	60.24
302.667	-76.97
302.881	37.72
303.095	19.29
303.309	62.29
303.524	-1.19
303.738	74.58
303.952	35.67
304.166	45.91
304.381	74.58
304.595	58.2
304.809	-42.15
305.023	23.38
305.237	39.76
305.452	60.24
305.666	7
305.88	58.2
306.094	9.05
306.308	7
306.522	136.02
306.736	82.77
306.95	-13.48
307.164	82.77
307.379	25.43
307.593	76.63
307.807	21.33
308.021	90.96
308.235	101.2
308.449	-13.48
308.663	-36.01
308.877	84.82
309.091	37.72
309.305	25.43
309.519	-3.24
309.733	27.48
309.947	19.29
310.161	-11.43
310.374	33.62
310.588	29.52
310.802	-17.58
311.016	-40.11
311.23	80.72
311.444	45.91
311.658	45.91
311.872	95.06
312.085	80.72
312.299	31.57
312.513	23.38
312.727	74.58
312.941	68.44
313.154	-11.43
313.368	56.15
313.582	84.82
313.796	4.95
314.009	76.63
314.223	74.58
314.437	58.2
314.651	19.29
314.864	99.16
315.078	35.67
315.292	25.43
315.505	64.34
315.719	-1.19
315.933	13.14
316.146	27.48
316.36	-31.91
316.573	76.63
316.787	17.24
317.001	19.29
317.214	-1.19
317.428	35.67
317.641	17.24
317.855	11.09
318.068	78.68
318.282	47.96
318.495	62.29
318.709	54.1
318.922	-5.29
319.136	62.29
319.349	39.76
319.563	82.77
319.776	84.82
319.99	41.81
320.203	117.59
320.417	35.67
320.63	80.72
320.843	27.48
321.057	70.48
321.27	33.62
321.483	58.2
321.697	62.29
321.91	-31.91
322.124	37.72
322.337	-15.53
322.55	66.39
322.763	-15.53
322.977	60.24
323.19	37.72
323.403	19.29
323.617	72.53
323.83	54.1
324.043	-62.63
324.256	19.29
324.469	35.67
324.683	52.05
324.896	23.38
325.109	54.1
325.322	54.1
325.535	50
325.748	27.48
325.962	50
326.175	76.63
326.388	19.29
326.601	62.29
326.814	-23.72
327.027	33.62
327.24	25.43
327.453	-23.72
327.666	105.3
327.879	35.67
328.092	19.29
328.305	45.91
328.518	84.82
328.731	45.91
328.944	50
329.157	45.91
329.37	33.62
329.583	148.31
329.796	58.2
330.009	19.29
330.222	66.39
330.435	60.24
330.648	29.52
330.861	27.48
331.073	17.24
331.286	54.1
331.499	35.67
331.712	27.48
331.925	37.72
332.138	66.39
332.35	39.76
332.563	27.48
332.776	50
332.989	45.91
333.202	13.14
333.414	82.77
333.627	23.38
333.84	31.57
334.053	-21.67
334.265	62.29
334.478	93.01
334.691	72.53
334.903	82.77
335.116	21.33
335.329	64.34
335.541	41.81
335.754	64.34
335.966	21.33
336.179	23.38
336.392	23.38
336.604	62.29
336.817	-5.29
337.029	9.05
337.242	-29.87
337.454	9.05
337.667	35.67
337.88	99.16
338.092	88.92
338.305	121.68
338.517	33.62
338.729	115.54
338.942	35.67
339.154	127.83
339.367	-7.34
339.579	86.87
339.792	-5.29
340.004	74.58
340.217	33.62
340.429	97.11
340.641	-19.63
340.854	35.67
341.066	70.48
341.278	66.39
341.491	82.77
341.703	9.05
341.915	78.68
342.128	111.44
342.34	-31.91
342.552	4.95
342.764	-17.58
342.977	62.29
343.189	37.72
343.401	-46.25
343.613	50
343.826	39.76
344.038	45.91
344.25	74.58
344.462	60.24
344.674	66.39
344.886	35.67
345.099	47.96
345.311	39.76
345.523	107.35
345.735	125.78
345.947	39.76
346.159	-5.29
346.371	93.01
346.583	50
346.795	58.2
347.007	68.44
347.219	45.91
347.431	-1.19
347.643	82.77
347.855	-13.48
348.067	84.82
348.279	35.67
348.491	72.53
348.703	90.96
348.915	19.29
349.127	62.29
349.339	31.57
349.551	84.82
349.763	-13.48
349.975	41.81
350.187	45.91
350.399	4.95
350.61	31.57
350.822	2.9
351.034	33.62
351.246	31.57
351.458	19.29
351.669	0.85
351.881	58.2
352.093	115.54
352.305	84.82
352.517	103.25
352.728	113.49
352.94	45.91
353.152	90.96
353.363	17.24
353.575	86.87
353.787	95.06
353.999	47.96
354.21	43.86
354.422	41.81
354.633	-27.82
354.845	99.16
355.057	41.81
355.268	39.76
355.48	74.58
355.692	56.15
355.903	62.29
356.115	39.76
356.326	-44.2
356.538	131.92
356.749	131.92
356.961	90.96
357.172	60.24
357.384	-46.25
357.595	54.1
357.807	50
358.018	60.24
358.23	60.24
358.441	133.97
358.653	15.19
358.864	7
359.075	19.29
359.287	109.4
359.498	84.82
359.709	29.52
359.921	45.91
360.132	-1.19
360.344	2.9
360.555	-1.19
360.766	25.43
360.977	74.58
361.189	17.24
361.4	86.87
361.611	82.77
361.823	-15.53
362.034	74.58
362.245	9.05
362.456	54.1
362.667	74.58
362.879	-31.91
363.09	35.67
363.301	43.86
363.512	45.91
363.723	68.44
363.935	-44.2
364.146	50
364.357	-3.24
364.568	66.39
364.779	9.05
364.99	90.96
365.201	-21.67
365.412	66.39
365.623	15.19
365.834	21.33
366.045	13.14
366.256	90.96
366.467	17.24
366.678	78.68
366.889	-5.29
367.1	-7.34
367.311	41.81
367.522	99.16
367.733	11.09
367.944	-5.29
368.155	50
368.366	70.48
368.577	64.34
368.788	58.2
368.999	54.1
369.209	-17.58
369.42	164.69
369.631	156.5
369.842	9.05
370.053	11.09
370.264	58.2
370.474	97.11
370.685	68.44
370.896	113.49
371.107	74.58
371.317	109.4
371.528	4.95
371.739	11.09
371.95	62.29
372.16	66.39
372.371	-13.48
372.582	17.24
372.792	111.44
373.003	62.29
373.214	-23.72
373.424	21.33
373.635	27.48
373.846	101.2
374.056	129.88
374.267	-36.01
374.477	66.39
374.688	74.58
374.898	29.52
375.109	27.48
375.319	17.24
375.53	86.87
375.74	60.24
375.951	45.91
376.161	58.2
376.372	64.34
376.582	21.33
376.793	54.1
377.003	9.05
377.214	74.58
377.424	62.29
377.635	52.05
377.845	4.95
378.055	117.59
378.266	4.95
378.476	33.62
378.686	37.72
378.897	115.54
379.107	70.48
379.317	68.44
379.528	54.1
379.738	84.82
379.948	68.44
380.158	93.01
380.369	37.72
380.579	95.06
380.789	37.72
380.999	35.67
381.21	101.2
381.42	50
381.63	19.29
381.84	50
382.05	86.87
382.261	43.86
382.471	68.44
382.681	-7.34
382.891	62.29
383.101	43.86
383.311	43.86
383.521	39.76
383.731	107.35
383.941	45.91
384.151	78.68
384.361	66.39
384.571	138.07
384.781	133.97
384.991	4.95
385.201	99.16
385.411	9.05
385.621	56.15
385.831	4.95
386.041	19.29
386.251	99.16
386.461	93.01
386.671	0.85
386.881	68.44
387.091	90.96
387.301	25.43
387.511	45.91
387.72	107.35
387.93	19.29
388.14	58.2
388.35	56.15
388.56	54.1
388.769	105.3
388.979	-1.19
389.189	41.81
389.399	115.54
389.609	47.96
389.818	25.43
390.028	62.29
390.238	97.11
390.447	47.96
390.657	47.96
390.867	17.24
391.076	84.82
391.286	45.91
391.496	52.05
391.705	115.54
391.915	58.2
392.125	105.3
392.334	13.14
392.544	27.48
392.753	60.24
392.963	39.76
393.172	72.53
393.382	93.01
393.591	183.12
393.801	-62.63
394.01	74.58
394.22	47.96
394.429	88.92
394.639	13.14
394.848	54.1
395.058	80.72
395.267	76.63
395.477	136.02
395.686	74.58
395.895	146.26
396.105	150.36
396.314	117.59
396.524	133.97
396.733	21.33
396.942	52.05
397.152	66.39
397.361	107.35
397.57	47.96
397.78	43.86
397.989	133.97
398.198	125.78
398.407	78.68
398.617	58.2
398.826	107.35
399.035	99.16
399.244	70.48
399.453	52.05
399.663	107.35
399.872	140.12
400.081	93.01
400.29	138.07
400.499	43.86
400.708	152.4
400.917	131.92
401.127	29.52
401.336	123.73
401.545	25.43
401.754	99.16
401.963	90.96
402.172	99.16
402.381	60.24
402.59	131.92
402.799	136.02
403.008	82.77
403.217	58.2
403.426	88.92
403.635	64.34
403.844	105.3
404.053	60.24
404.262	125.78
404.471	60.24
404.68	54.1
404.888	172.88
405.097	66.39
405.306	164.69
405.515	95.06
405.724	121.68
405.933	152.4
406.142	129.88
406.35	113.49
406.559	189.27
406.768	160.59
406.977	209.75
407.185	121.68
407.394	197.46
407.603	99.16
407.812	207.7
408.02	181.07
408.229	228.18
408.438	150.36
408.646	144.21
408.855	234.32
409.064	215.89
409.272	127.83
409.481	209.75
409.69	172.88
409.898	191.31
410.107	189.27
410.315	289.62
410.524	258.9
410.733	248.66
410.941	189.27
411.15	342.86
411.358	277.33
411.567	367.44
411.775	355.15
411.984	316.24
412.192	324.43
412.401	303.95
412.609	404.3
412.818	320.34
413.026	353.1
413.234	394.06
413.443	353.1
413.651	371.54
413.86	400.21
414.068	422.73
414.276	441.17
414.485	402.26
414.693	463.69
414.901	484.17
415.11	437.07
415.318	531.28
415.526	486.22
415.734	504.65
415.943	523.09
416.151	625.48
416.359	598.86
416.567	637.77
416.776	580.43
416.984	693.07
417.192	746.31
417.4	783.18
417.608	738.12
417.817	809.8
418.025	787.27
418.233	928.58
418.441	824.14
418.649	848.71
418.857	961.35
419.065	947.01
419.273	842.57
419.481	1110.85
419.689	1020.74
419.897	1141.57
420.105	1139.52
420.313	1164.1
420.521	1188.68
420.729	1108.8
420.937	1225.54
421.145	1289.03
421.353	1348.42
421.561	1448.77
421.769	1459.01
421.977	1540.93
422.185	1526.59
422.393	1645.37
422.601	1631.04
422.809	1653.56
423.017	1579.84
423.224	1753.91
423.432	1805.11
423.64	1927.99
423.848	1905.46
424.056	1995.57
424.263	1999.67
424.471	2079.54
424.679	2106.17
424.887	2270
425.094	2372.4
425.302	2351.92
425.51	2364.21
425.718	2538.29
425.925	2489.14
426.133	2468.66
426.341	2810.67
426.548	2810.67
426.756	2818.86
426.964	2798.38
427.171	2908.97
427.379	3107.62
427.586	3191.59
427.794	3316.51
428.001	3271.46
428.209	3576.61
428.417	3523.36
428.624	3681.05
428.832	3957.53
429.039	3683.1
429.247	3746.59
429.454	4082.46
429.662	4139.8
429.869	4182.81
430.076	4344.6
430.284	4193.05
430.491	4354.83
430.699	4709.13
430.906	4662.03
431.114	4662.03
431.321	5014.28
431.528	5088.01
431.736	5421.83
431.943	5636.86
432.15	5319.43
432.358	5415.68
432.565	5735.17
432.772	5554.94
432.979	5958.39
433.187	6198.01
433.394	6124.28
433.601	6527.73
433.808	6462.19
434.016	6630.13
434.223	6759.15
434.43	7185.13
434.637	7176.94
434.844	7574.24
435.052	7750.37
435.259	7768.8
435.466	7760.61
435.673	7672.54
435.88	8200.92
436.087	8626.9
436.294	8592.08
436.501	8450.77
436.708	8559.31
436.915	8704.72
437.122	9276.1
437.329	9286.34
437.537	9554.63
437.743	9640.64
437.95	9622.21
438.157	10277.56
438.364	10572.47
438.571	10601.14
438.778	10486.45
438.985	11543.21
439.192	11141.8
439.399	11489.96
439.606	10969.77
439.813	11575.97
440.02	12427.93
440.227	12264.09
440.433	11924.13
440.64	12546.71
440.847	12577.43
441.054	12839.57
441.261	13699.72
441.467	13394.57
441.674	13894.27
441.881	14238.33
442.088	14248.57
442.294	14084.73
442.501	14244.48
442.708	14795.38
442.914	15352.43
443.121	15979.11
443.328	15639.14
443.534	16738.9
443.741	16433.75
443.948	16132.7
444.154	17064.53
444.361	17060.43
444.568	17072.72
444.774	17209.93
444.981	17553.99
445.187	18065.99
445.394	18721.34
445.6	18453.05
445.807	20251.17
446.013	19511.85
446.22	19710.5
446.426	20513.31
446.633	20795.93
446.839	21533.2
447.046	20578.84
447.252	21758.47
447.459	21709.32
447.665	21393.93
447.871	22659.58
448.078	23405.04
448.284	22407.68
448.491	23214.58
448.697	24222.18
448.903	24336.87
449.11	24775.13
449.316	24390.11
449.522	24289.76
449.728	25276.88
449.935	25512.4
450.141	25588.17
450.347	26184.13
450.553	25360.85
450.76	25835.98
450.966	26462.66
451.172	26307.01
451.378	26849.72
451.584	26724.8
451.791	27394.48
451.997	27134.39
452.203	27324.85
452.409	27705.77
452.615	27328.95
452.821	26358.21
453.027	26212.81
453.233	27441.59
453.44	26620.35
453.646	26816.96
453.852	27640.24
454.058	27195.83
454.264	26466.75
454.47	27249.08
454.676	26673.6
454.882	27695.53
455.088	25096.66
455.294	25293.27
455.5	25698.77
455.705	25995.72
455.911	25217.49
456.117	24441.31
456.323	24414.69
456.529	23009.78
456.735	23882.22
456.941	23101.94
457.147	23302.64
457.352	22469.12
457.558	22323.71
457.764	22196.74
457.97	21639.69
458.176	21416.46
458.381	21385.74
458.587	20347.42
458.793	20488.73
458.999	19378.73
459.204	20793.88
459.41	20257.31
459.616	18725.43
459.821	18872.89
460.027	19063.35
460.233	18281.02
460.438	17476.17
460.644	17711.69
460.85	16863.83
461.055	16642.65
461.261	16599.64
461.466	15149.68
461.672	15020.66
461.878	15929.95
462.083	14776.95
462.289	14492.28
462.494	14348.92
462.7	13798.02
462.905	13419.14
463.111	13894.27
463.316	13922.94
463.522	13435.53
463.727	13574.79
463.932	13660.8
464.138	13453.96
464.343	13617.8
464.549	13157
464.754	13845.12
464.959	13517.45
465.165	13290.12
465.37	12778.13
465.575	12356.25
465.781	12941.97
465.986	12925.58
466.191	12853.91
466.397	12233.37
466.602	11676.32
466.807	12167.84
467.012	11954.85
467.218	11977.37
467.423	12094.11
467.628	12165.79
467.833	12423.83
468.038	11821.73
468.244	11872.93
468.449	12157.6
468.654	11700.9
468.859	11831.97
469.064	11541.16
469.269	11365.03
469.474	11340.46
469.679	11655.84
469.885	11193
470.09	11408.04
470.295	11233.96
470.5	10939.05
470.705	11164.33
470.91	10926.77
471.115	10728.11
471.32	11072.17
471.525	10889.9
471.73	10521.27
471.935	10623.67
472.139	10265.27
472.344	10265.27
472.549	10164.92
472.754	10138.3
472.959	9861.82
473.164	9769.66
473.369	9587.4
473.574	9962.17
473.778	9919.17
473.983	9728.7
474.188	9691.84
474.393	9185.99
474.598	9413.32
474.802	9253.58
475.007	9110.22
475.212	9392.84
475.417	8852.17
475.621	8917.71
475.826	8815.31
476.031	8829.65
476.235	8708.82
476.44	8819.41
476.645	8260.31
476.849	8506.07
477.054	8520.4
477.259	8284.89
477.463	8159.96
477.668	8143.58
477.872	8348.37
478.077	8131.29
478.282	8002.27
478.486	7996.12
478.691	7869.15
478.895	7856.86
479.1	7637.73
479.304	7711.46
479.509	7520.99
479.713	7553.76
479.918	7619.3
480.122	7265
480.326	7369.44
480.531	7500.51
480.735	7471.84
480.94	7420.64
481.144	7578.34
481.348	7168.74
481.553	7074.54
481.757	7019.24
481.961	7166.7
482.166	7357.16
482.37	7209.7
482.574	7000.81
482.778	7250.66
482.983	7258.85
483.187	7191.27
483.391	7322.34
483.595	7072.49
483.8	7164.65
484.004	7172.84
484.208	7273.19
484.412	7099.11
484.616	7123.69
484.821	7037.67
485.025	6937.32
485.229	7256.81
485.433	7164.65
485.637	7082.73
485.841	7080.68
486.045	7121.64
486.249	7209.7
486.453	7142.12
486.657	7009
486.861	7209.7
487.065	6875.88
487.269	7033.58
487.473	6959.85
487.677	7387.88
487.881	7283.43
488.085	7095.02
488.289	7131.88
488.493	6877.93
488.697	7076.59
488.901	7252.71
489.105	7041.77
489.309	7101.16
489.512	7387.88
489.716	7226.09
489.92	7097.07
490.124	7181.03
490.328	7324.39
490.531	7336.68
490.735	7381.73
490.939	7369.44
491.143	7140.07
491.346	7334.63
491.55	7447.27
491.754	7361.25
491.958	7447.27
492.161	7498.47
492.365	7336.68
492.569	7619.3
492.772	7471.84
492.976	7529.19
493.18	7572.19
493.383	7533.28
493.587	7733.98
493.79	7693.02
493.994	7832.29
494.197	7946.97
494.401	8030.94
494.605	7850.72
494.808	7817.95
495.012	7977.69
495.215	8170.2
495.419	8280.79
495.622	8106.71
495.825	8340.18
496.029	8315.61
496.232	8381.14
496.436	8467.16
496.639	8610.51
496.843	8534.74
497.046	8882.89
497.249	8837.84
497.453	8921.81
497.656	8917.71
497.859	9118.41
498.063	8975.05
498.266	9147.08
498.469	9218.76
498.673	9431.75
498.876	9444.04
499.079	9630.4
499.282	9530.05
499.485	9757.38
499.689	9775.81
499.892	10154.68
500.095	10091.2
500.298	10111.68
500.501	10291.9
500.705	10402.49
500.908	10504.89
501.111	10664.63
501.314	10797.74
501.517	10838.7
501.72	10863.28
501.923	10861.23
502.126	11332.26
502.329	11514.53
502.532	11416.23
502.735	11455.14
502.938	11807.39
503.141	11748
503.344	12100.25
503.547	11793.06
503.75	12186.27
503.953	12372.63
504.156	12493.46
504.359	12583.57
504.562	12544.66
504.765	12737.17
504.968	12956.3
505.17	13146.76
505.373	13025.93
505.576	13388.43
505.779	13372.04
505.982	13550.21
506.185	13984.38
506.387	13949.57
506.59	13914.75
506.793	14307.96
506.996	14381.69
507.198	14731.89
507.401	14568.06
507.604	14848.63
507.807	15112.81
508.009	15063.66
508.212	15123.05
508.415	15395.43
508.617	15712.87
508.82	15606.38
509.022	15719.01
509.225	16194.14
509.428	16253.53
509.63	16419.42
509.833	16163.42
510.035	16695.89
510.238	16732.76
510.44	17060.43
510.643	17185.36
510.845	17420.88
511.048	17269.33
511.25	17519.18
511.453	17877.57
511.655	18252.35
511.858	18080.32
512.06	18238.02
512.262	18494.01
512.465	18145.86
512.667	18911.8
512.87	18704.95
513.072	18846.26
513.274	19624.49
513.477	19483.18
513.679	19786.28
513.881	19800.62
514.084	20175.39
514.286	20156.96
514.488	20322.85
514.69	20816.41
514.893	20599.32
515.095	20787.74
515.297	21135.89
515.499	20972.05
515.701	21527.05
515.904	21506.57
516.106	21750.28
516.308	22405.63
516.51	22213.12
516.712	22221.31
516.914	22557.18
517.116	22860.28
517.318	23024.12
517.52	23282.16
517.722	23314.93
517.925	23314.93
518.127	23720.43
518.329	24084.97
518.531	23792.11
518.733	24646.11
518.935	24838.62
519.136	24373.73
519.338	24893.91
519.54	25334.23
519.742	25422.29
519.944	25457.1
520.146	26026.44
520.348	25813.45
520.55	26026.44
520.752	26339.78
520.954	26618.3
521.155	26446.27
521.357	26681.79
521.559	26714.56
521.761	27218.36
521.963	27507.12
522.164	27670.96
522.366	27683.25
522.568	28072.36
522.77	27783.6
522.971	28584.35
523.173	28438.95
523.375	28805.53
523.576	28778.91
523.778	28828.06
523.98	29342.1
524.181	29372.82
524.383	29454.74
524.584	29643.15
524.786	29821.33
524.988	29661.58
525.189	29835.66
525.391	30247.3
525.592	30488.96
525.794	30355.85
525.995	30407.05
526.197	30521.73
526.398	30730.62
526.6	30871.93
526.801	31226.23
527.003	31256.95
527.204	31152.51
527.406	31359.35
527.607	31379.83
527.808	31924.59
528.01	31371.64
528.211	31820.14
528.412	32119.15
528.614	31822.19
528.815	32121.2
529.016	32375.14
529.218	32113
529.419	32629.09
529.62	32280.94
529.822	32434.53
530.023	32776.55
530.224	32420.2
530.425	32407.91
530.626	32422.25
530.828	32577.89
531.029	32915.81
531.23	32536.93
531.431	32741.73
531.632	32866.66
531.833	32858.46
532.035	33032.54
532.236	32921.95
532.437	33368.41
532.638	33249.63
532.839	33380.7
533.04	33470.81
533.241	32852.32
533.442	33579.35
533.643	33284.44
533.844	33390.94
534.045	33425.75
534.246	33010.01
534.447	33476.95
534.648	33306.97
534.849	33446.23
535.05	33552.73
535.251	33325.4
535.451	33227.1
535.652	33522.01
535.853	33554.77
536.054	33317.21
536.255	33360.22
536.456	33442.14
536.657	33935.7
536.857	33741.14
537.058	33386.84
537.259	33599.83
537.46	33612.12
537.66	33558.87
537.861	33657.17
538.062	33556.82
538.263	33282.39
538.463	33290.59
538.664	33423.7
538.865	33634.64
539.065	33894.74
539.266	32969.05
539.466	33274.2
539.667	33061.21
539.868	33575.25
540.068	33548.63
540.269	33411.42
540.469	33896.78
540.67	33380.7
540.87	33413.46
541.071	33143.13
541.271	33550.68
541.472	33595.73
541.672	33358.17
541.873	33063.26
542.073	32715.11
542.274	33601.88
542.474	33270.11
542.675	33227.1
542.875	33560.92
543.075	33407.32
543.276	32885.09
543.476	33538.39
543.676	33034.59
543.877	33356.12
544.077	33286.49
544.277	33440.09
544.478	33038.69
544.678	33448.28
544.878	33233.24
545.078	33325.4
545.279	33003.87
545.479	33040.73
545.679	33413.46
545.879	33192.28
546.079	33223
546.28	32817.5
546.48	33016.16
546.68	33372.5
546.88	33311.07
547.08	33165.66
547.28	33315.16
547.48	32887.14
547.68	33399.13
547.88	33130.84
548.081	33116.51
548.281	33323.35
548.481	32993.63
548.681	33571.16
548.881	33182.04
549.081	33167.71
549.28	33251.67
549.48	33374.55
549.68	33005.92
549.88	33364.31
550.08	32696.67
550.28	32936.29
550.48	32772.45
550.68	33003.87
550.88	32694.63
551.08	32981.34
551.279	32895.33
551.479	32737.63
551.679	33001.82
551.879	32862.56
552.079	32741.73
552.278	32844.13
552.478	33016.16
552.678	32905.57
552.878	33390.94
553.077	32655.72
553.277	32639.33
553.477	33085.79
553.676	32610.66
553.876	32883.04
554.076	32919.9
554.275	32649.57
554.475	32612.71
554.674	32680.29
554.874	32549.22
555.074	32713.06
555.273	32579.94
555.473	33005.92
555.672	32395.62
555.872	32764.26
556.071	32239.98
556.271	33016.16
556.47	32422.25
556.67	32559.46
556.869	32401.77
557.068	32627.04
557.268	32188.78
557.467	32373.1
557.667	32545.12
557.866	32504.17
558.065	32217.45
558.265	32094.57
558.464	32289.13
558.663	32483.69
558.863	31582.58
559.062	32448.87
559.261	32018.8
559.461	32121.2
559.66	31398.26
559.859	31777.14
560.058	31682.93
560.258	31779.18
560.457	31467.89
560.656	31963.5
560.855	31549.81
561.054	32080.24
561.253	31562.1
561.453	31799.66
561.652	31543.67
561.851	31633.78
562.05	31428.98
562.249	31199.61
562.448	31580.53
562.647	31494.52
562.846	31078.78
563.045	31422.84
563.244	30980.48
563.443	31299.96
563.642	30960
563.841	30966.14
564.04	31007.1
564.239	31134.07
564.438	30523.78
564.637	30835.07
564.836	30706.05
565.035	30663.04
565.234	30548.36
565.432	30351.75
565.631	30241.16
565.83	30333.32
566.029	30560.64
566.228	30368.13
566.427	30445.96
566.625	29925.77
566.824	29893.01
567.023	30376.33
567.222	29761.94
567.42	30149
567.619	29997.45
567.818	29876.62
568.016	30056.84
568.215	29698.45
568.414	29651.34
568.612	29694.35
568.811	29348.25
569.01	29591.95
569.208	29276.57
569.407	29530.51
569.605	29055.39
569.804	29323.67
570.002	28959.13
570.201	28946.84
570.4	29114.78
570.598	28696.99
570.797	28887.45
570.995	28852.64
571.193	28492.19
571.392	28633.5
571.59	28443.04
571.789	28594.59
571.987	28395.94
572.186	28469.67
572.384	28074.41
572.582	28359.08
572.781	28232.1
572.979	27636.14
573.177	28015.02
573.376	28072.36
573.574	27673.01
573.772	28094.89
573.971	27879.85
574.169	27515.31
574.367	27441.59
574.565	27662.77
574.763	27238.84
574.962	27365.81
575.16	27228.6
575.358	27513.27
575.556	27165.11
575.754	27455.92
575.952	26737.09
576.151	27183.54
576.349	26757.57
576.547	27111.86
576.745	26673.6
576.943	26798.52
577.141	26546.62
577.339	26745.28
577.537	26603.97
577.735	26421.7
577.933	25993.67
578.131	26495.43
578.329	26309.06
578.527	26188.23
578.725	26098.12
578.923	26122.69
579.121	25969.1
579.319	25905.61
579.516	26163.65
579.714	25762.25
579.912	25545.17
580.11	25954.76
580.308	25989.58
580.506	25749.96
580.704	25588.17
580.901	25334.23
581.099	25799.12
581.297	25209.3
581.495	25182.68
581.692	25399.76
581.89	24996.31
582.088	25364.95
582.285	25113.05
582.483	24973.78
582.681	24994.26
582.878	25139.67
583.076	24633.82
583.274	24807.9
583.471	24613.34
583.669	24685.02
583.866	24467.94
584.064	24803.8
584.262	24257
584.459	24701.4
584.657	24412.64
584.854	24697.31
585.052	24037.86
585.249	24603.1
585.447	24230.37
585.644	24142.31
585.841	24269.28
586.039	24431.07
586.236	23693.8
586.434	23871.98
586.631	23706.09
586.828	23679.47
587.026	23298.55
587.223	23499.25
587.42	23433.71
587.618	23740.91
587.815	23220.72
588.012	23224.82
588.21	23095.8
588.407	23325.17
588.604	23036.41
588.801	23030.26
588.999	22907.38
589.196	22905.34
589.393	23136.76
589.59	22606.33
589.787	22788.6
589.984	22868.47
590.182	22440.45
590.379	22573.56
590.576	22297.09
590.773	22383.1
590.97	22407.68
591.167	22354.43
591.364	22422.02
591.561	22444.54
591.758	22010.37
591.955	22022.66
592.152	22143.49
592.349	21942.79
592.546	21719.56
592.743	21922.31
592.94	21721.61
593.137	21688.84
593.334	21746.19
593.531	21592.59
593.727	21471.76
593.924	21477.9
594.121	21076.5
594.318	21680.65
594.515	20802.07
594.712	21293.58
594.908	21240.34
595.105	21269.01
595.302	20840.98
595.499	21209.62
595.696	21062.16
595.892	20736.54
596.089	21148.18
596.286	21172.75
596.482	20738.58
596.679	20863.51
596.876	20810.26
597.072	20492.83
597.269	20531.74
597.466	20607.51
597.662	20175.39
597.859	20455.97
598.055	20316.7
598.252	20130.34
598.448	20156.96
598.645	19876.39
598.841	19866.15
599.038	19866.15
599.234	19866.15
599.431	19694.12
599.627	19761.7
599.824	19825.19
600.02	19507.76
600.217	19747.37
600.413	19470.89
600.609	19567.15
600.806	19419.69
601.002	19501.61
601.198	19130.93
601.395	19173.94
601.591	19196.46
601.787	19198.51
601.984	19360.3
602.18	19108.4
602.376	19145.27
602.572	19012.15
602.769	18969.14
602.965	18541.11
603.161	18960.95
603.357	18639.42
603.553	18797.11
603.75	18829.88
603.946	18653.75
604.142	18162.24
604.338	18348.61
604.534	18420.28
604.73	18364.99
604.926	18141.76
605.122	18401.85
605.318	18086.47
605.514	17914.44
605.71	18070.08
605.906	18059.84
606.102	17699.4
606.298	18010.69
606.494	18037.31
606.69	17857.09
606.886	17488.46
607.082	17336.91
607.278	18014.79
607.474	17412.68
607.67	17660.49
607.866	17304.14
608.062	17564.23
608.257	17754.69
608.453	17553.99
608.649	17574.47
608.845	17525.32
609.041	17298
609.236	17347.15
609.432	17281.61
609.628	17218.13
609.824	17238.61
610.019	17025.62
610.215	16976.47
610.411	17240.65
610.606	16955.99
610.802	17238.61
610.998	16880.21
611.193	17076.82
611.389	16808.53
611.584	16781.91
611.78	16802.39
611.976	16937.55
612.171	16716.37
612.367	16718.42
612.562	16689.75
612.758	16675.41
612.953	16421.47
613.149	16783.96
613.344	16570.97
613.539	16587.35
613.735	16525.91
613.93	16573.02
614.126	16388.7
614.321	16413.27
614.517	16360.03
614.712	16222.81
614.907	16360.03
615.103	16577.11
615.298	16081.5
615.493	16388.7
615.688	15979.11
615.884	16534.11
616.079	16042.59
616.274	16214.62
616.47	16292.44
616.665	16310.88
616.86	15876.71
617.055	15630.95
617.25	15985.25
617.445	16099.94
617.641	15805.03
617.836	15938.15
618.031	15528.55
618.226	15700.58
618.421	15557.22
618.616	15565.42
618.811	15311.47
619.006	15770.21
619.201	15393.39
619.396	15370.86
619.591	15383.15
619.786	15647.33
619.981	15475.31
620.176	15260.27
620.371	14975.6
620.566	15149.68
620.761	14877.3
620.956	14979.7
621.151	14561.91
621.346	14840.43
621.541	14496.38
621.735	14967.41
621.93	14666.36
622.125	14658.17
622.32	14373.5
622.515	14428.79
622.709	14185.08
622.904	14379.64
623.099	14189.18
623.294	14201.47
623.488	13996.67
623.683	14170.75
623.878	13804.16
624.072	13937.28
624.267	13615.75
624.462	13648.52
624.656	13580.93
624.851	13748.87
625.046	13650.57
625.24	13492.87
625.435	13384.33
625.629	13161.1
625.824	13185.68
626.018	13105.81
626.213	12667.54
626.407	13200.01
626.602	12769.94
626.796	13140.62
626.991	12835.47
627.185	12565.14
627.38	12860.05
627.574	12759.7
627.768	12288.67
627.963	12429.98
628.157	12333.72
628.352	12468.89
628.546	12012.19
628.74	12161.69
628.935	11926.18
629.129	12192.41
629.323	12141.21
629.517	12085.92
629.712	11872.93
629.906	11967.13
630.1	11807.39
630.294	12018.33
630.489	11786.91
630.683	11729.57
630.877	11512.49
631.071	11256.49
631.265	11698.85
631.459	11260.59
631.653	11307.69
631.848	11367.08
632.042	11100.84
632.236	11143.85
632.43	10965.68
632.624	11076.27
632.818	10963.63
633.012	10943.15
633.206	10969.77
633.4	10803.89
633.594	10734.26
633.788	10613.43
633.982	10701.49
634.176	10668.72
634.369	10535.6
634.563	10476.21
634.757	10402.49
634.951	10492.6
635.145	10435.25
635.339	10334.9
635.533	10343.1
635.726	10154.68
635.92	10097.34
636.114	10113.72
636.308	10068.67
636.501	9974.46
636.695	10029.76
636.889	9808.58
637.083	9771.71
637.276	9618.11
637.47	9847.49
637.664	9720.51
637.857	9632.45
638.051	9577.16
638.244	9437.89
638.438	9476.8
638.632	9335.49
638.825	9386.69
639.019	9341.64
639.212	9380.55
639.406	9247.43
639.599	9247.43
639.793	9118.41
639.986	9122.51
640.18	9366.21
640.373	9110.22
640.567	8721.1
640.76	8872.65
640.954	8831.69
641.147	8698.58
641.34	8676.05
641.534	8874.7
641.727	8755.92
641.92	8825.55
642.114	8569.55
642.307	8647.38
642.5	8440.53
642.694	8362.71
642.887	8370.9
643.08	8440.53
643.273	8260.31
643.467	8196.82
643.66	8241.88
643.853	8241.88
644.046	8055.51
644.239	8106.71
644.432	8168.15
644.626	8116.95
644.819	7920.35
645.012	8035.03
645.205	7852.77
645.398	7838.43
645.591	7750.37
645.784	7776.99
645.977	7838.43
646.17	7908.06
646.363	7463.65
646.556	7518.95
646.749	7635.68
646.942	7570.15
647.135	7602.91
647.328	7516.9
647.521	7506.66
647.714	7195.37
647.907	7525.09
648.099	7305.96
648.292	7299.81
648.485	7146.22
648.678	7291.62
648.871	7144.17
649.064	6990.57
649.256	7099.11
649.449	6851.31
649.642	7004.91
649.835	6982.38
650.027	6918.89
650.22	6785.77
650.413	6886.12
650.605	6990.57
650.798	6847.21
650.991	6736.62
651.183	6882.03
651.376	6636.27
651.568	6793.97
651.761	6658.8
651.954	6626.03
652.146	6355.7
652.339	6578.93
652.531	6597.36
652.724	6406.9
652.916	6294.26
653.109	6359.8
653.301	6464.24
653.494	6427.38
653.686	6478.58
653.879	6302.45
654.071	6370.04
654.263	6114.04
654.456	6081.27
654.648	6187.77
654.84	6048.51
655.033	6138.62
655.225	6138.62
655.417	6058.74
655.61	5935.87
655.802	6083.32
655.994	6054.65
656.186	5978.87
656.379	5849.85
656.571	5915.39
656.763	5710.59
656.955	5845.76
657.148	5874.43
657.34	5700.35
657.532	5804.8
657.724	5516.03
657.916	5540.61
658.108	5595.9
658.3	5552.9
658.492	5479.17
658.684	5427.97
658.876	5415.68
659.068	5505.79
659.26	5421.83
659.452	5434.11
659.644	5399.3
659.836	5421.83
660.028	5348.1
660.22	5214.98
660.412	5321.48
660.604	5155.59
660.796	5294.85
660.988	5040.9
661.18	5157.64
661.372	5090.06
661.563	5188.36
661.755	5063.43
661.947	5010.18
662.139	5145.35
662.331	4946.7
662.522	4973.32
662.714	4963.08
662.906	4993.8
663.097	4911.88
663.289	4950.79
663.481	4909.83
663.673	4913.93
663.864	4715.28
664.056	4758.28
664.247	4657.93
664.439	4870.92
664.631	4801.29
664.822	4832.01
665.014	4737.81
665.205	4444.95
665.397	4621.07
665.588	4717.33
665.78	4651.79
665.971	4512.53
666.163	4590.35
666.354	4377.36
666.546	4416.27
666.737	4494.1
666.929	4350.74
667.12	4442.9
667.311	4440.85
667.503	4266.77
667.694	4252.44
667.885	4229.91
668.077	4150.04
668.268	4180.76
668.459	4244.24
668.651	4217.62
668.842	4092.69
669.033	4070.17
669.224	4221.72
669.416	4260.63
669.607	4133.65
669.798	4168.47
669.989	4057.88
670.18	4080.41
670.371	4021.02
670.563	3984.15
670.754	3914.52
670.945	3914.52
671.136	3941.15
671.327	4092.69
671.518	3855.13
671.709	3881.75
671.9	4102.93
672.091	3765.02
672.282	3928.86
672.473	3789.6
672.664	3924.76
672.855	3769.12
673.046	3760.92
673.237	3869.47
673.428	3724.06
673.619	3836.7
673.809	3726.11
674	3646.24
674.191	3685.15
674.382	3656.48
674.573	3545.89
674.764	3588.89
674.954	3580.7
675.145	3441.44
675.336	3572.51
675.527	3537.7
675.717	3420.96
675.908	3509.02
676.099	3527.46
676.289	3435.3
676.48	3334.95
676.671	3482.4
676.861	3463.97
677.052	3369.76
677.243	3310.37
677.433	3394.34
677.624	3314.47
677.814	3349.28
678.005	3357.47
678.195	3289.89
678.386	3259.17
678.576	3146.53
678.767	3232.55
678.957	3261.22
679.148	3404.58
679.338	3203.88
679.529	3210.02
679.719	3097.38
679.909	3232.55
680.1	3248.93
680.29	3154.73
680.481	3175.2
680.671	3097.38
680.861	3152.68
681.052	3181.35
681.242	3070.76
681.432	3105.57
681.622	3115.81
681.813	3009.32
682.003	3154.73
682.193	3083.05
682.383	3017.51
682.573	3064.61
682.764	2908.97
682.954	2988.84
683.144	3107.62
683.334	2951.98
683.524	3005.22
683.714	3050.28
683.904	3134.25
684.094	2951.98
684.284	2947.88
684.474	3105.57
684.664	2894.63
684.854	2984.74
685.044	2810.67
685.234	2847.53
685.424	2958.12
685.614	2847.53
685.804	2935.59
685.994	2728.75
686.184	2917.16
686.374	2761.52
686.564	2827.05
686.753	2960.17
686.943	2736.94
687.133	2767.66
687.323	2720.56
687.513	2825
687.702	2691.88
687.892	2695.98
688.082	2755.37
688.272	2706.22
688.461	2722.6
688.651	2751.28
688.841	2609.97
689.03	2622.25
689.22	2775.85
689.41	2591.53
689.599	2569.01
689.789	2755.37
689.979	2499.38
690.168	2511.66
690.358	2507.57
690.547	2554.67
690.737	2472.75
690.926	2544.43
691.116	2605.87
691.305	2603.82
691.495	2511.66
691.684	2548.53
691.874	2499.38
692.063	2562.86
692.252	2480.94
692.442	2491.18
692.631	2519.85
692.82	2349.87
693.01	2405.17
693.199	2435.89
693.388	2386.74
693.578	2394.93
693.767	2360.11
693.956	2325.3
694.146	2405.17
694.335	2421.55
694.524	2362.16
694.713	2417.46
694.902	2300.72
695.092	2427.7
695.281	2343.73
695.47	2313.01
695.659	2335.54
695.848	2272.05
696.037	2257.71
696.226	2313.01
696.415	2290.48
696.604	2323.25
696.793	2306.87
696.982	2323.25
697.171	2171.7
697.36	2249.52
697.549	2235.19
697.738	2280.24
697.927	2136.88
698.116	2255.67
698.305	2153.27
698.494	2198.32
698.683	2220.85
698.872	2204.47
699.061	2194.23
699.25	2163.51
699.438	2190.13
699.627	2153.27
699.816	2214.71
700.005	2224.95
700.193	2175.8
700.382	2429.74
700.571	2110.26
700.76	2206.52
700.948	2181.94
701.137	2151.22
701.326	2120.5
701.514	2173.75
701.703	2186.04
701.892	2304.82
702.08	2186.04
702.269	2052.92
702.457	2097.97
702.646	2222.9
702.834	2120.5
703.023	2075.45
703.212	2173.75
703.4	2057.01
703.589	2114.36
703.777	2114.36
703.965	2114.36
704.154	2075.45
704.342	2157.36
704.531	2061.11
704.719	2120.5
704.907	2130.74
705.096	2061.11
705.284	2153.27
705.472	2155.32
705.661	2206.52
705.849	2151.22
706.037	2171.7
706.226	2190.13
706.414	2106.17
706.602	2112.31
706.79	2102.07
706.979	2091.83
707.167	1991.48
707.355	2100.02
707.543	2157.36
707.731	2044.73
707.919	2265.91
708.107	2110.26
708.296	2114.36
708.484	2081.59
708.672	2155.32
708.86	1973.05
709.048	2136.88
709.236	2054.97
709.424	2112.31
709.612	1979.19
709.8	2042.68
709.988	2134.84
710.176	2100.02
710.364	2181.94
710.551	2140.98
710.739	2081.59
710.927	2095.93
711.115	2183.99
711.303	2167.6
711.491	2042.68
711.679	2040.63
711.866	2011.96
712.054	2102.07
712.242	2005.81
712.43	2192.18
712.617	2118.45
712.805	2091.83
712.993	2104.12
713.181	1958.71
713.368	2147.12
713.556	2081.59
713.744	2190.13
713.931	2032.44
714.119	1991.48
714.306	2083.64
714.494	2026.29
714.682	2034.49
714.869	1983.29
715.057	2095.93
715.244	2050.87
715.432	2149.17
715.619	1962.81
715.807	2069.3
715.994	2128.69
716.182	2046.77
716.369	2097.97
716.556	2026.29
716.744	2036.53
716.931	2073.4
717.119	2063.16
717.306	2018.1
717.493	1999.67
717.681	2118.45
717.868	2011.96
718.055	2011.96
718.242	2134.84
718.43	2042.68
718.617	2132.79
718.804	2091.83
718.991	2042.68
719.179	2110.26
719.366	1983.29
719.553	2100.02
719.74	2061.11
719.927	2046.77
720.114	2106.17
720.301	1944.38
720.488	2040.63
720.676	2069.3
720.863	1997.62
721.05	2067.25
721.237	2050.87
721.424	2042.68
721.611	2018.1
721.798	1989.43
721.985	1919.8
722.172	1966.9
722.358	1891.13
722.545	1971
722.732	2059.06
722.919	1975.1
723.106	2054.97
723.293	2067.25
723.48	2095.93
723.667	2005.81
723.853	2057.01
724.04	2073.4
724.227	2048.82
724.414	1975.1
724.6	1999.67
724.787	2106.17
724.974	2044.73
725.161	2018.1
725.347	2067.25
725.534	2024.25
725.72	2095.93
725.907	1962.81
726.094	2011.96
726.28	2091.83
726.467	2114.36
726.653	2040.63
726.84	2026.29
727.027	2087.73
727.213	1930.04
727.4	1991.48
727.586	2100.02
727.773	2003.77
727.959	1966.9
728.145	2020.15
728.332	2083.64
728.518	1991.48
728.705	2116.41
728.891	2034.49
729.077	1868.6
729.264	1889.08
729.45	2009.91
729.636	2052.92
729.823	1956.66
730.009	1999.67
730.195	2024.25
730.382	2063.16
730.568	1940.28
730.754	2009.91
730.94	2071.35
731.126	1860.41
731.313	2038.58
731.499	1968.95
731.685	1895.22
731.871	1899.32
732.057	2003.77
732.243	1979.19
732.429	1968.95
732.615	2009.91
732.801	1893.18
732.987	2018.1
733.173	1927.99
733.359	2011.96
733.545	1993.53
733.731	1878.84
733.917	1946.42
734.103	1975.1
734.289	1979.19
734.475	2007.86
734.661	1981.24
734.847	1911.61
735.033	2040.63
735.219	2003.77
735.404	1979.19
735.59	1915.7
735.776	2057.01
735.962	1948.47
736.148	1989.43
736.333	1913.66
736.519	1946.42
736.705	1948.47
736.89	1936.18
737.076	1903.42
737.262	1860.41
737.447	1868.6
737.633	1876.79
737.819	1870.65
738.004	1868.6
738.19	1837.88
738.375	1858.36
738.561	1946.42
738.747	1913.66
738.932	1878.84
739.118	1862.46
739.303	1938.23
739.489	1895.22
739.674	1897.27
739.859	1745.72
740.045	1846.07
740.23	1934.14
740.416	1858.36
740.601	1813.31
740.786	1753.91
740.972	1844.03
741.157	1860.41
741.342	1729.34
741.528	1858.36
741.713	1860.41
741.898	1870.65
742.084	1833.79
742.269	1901.37
742.454	1809.21
742.639	1870.65
742.824	1690.43
743.01	1743.67
743.195	1692.48
743.38	1854.27
743.565	1788.73
743.75	1835.83
743.935	1872.7
744.12	1952.57
744.305	1641.28
744.49	1729.34
744.675	1708.86
744.86	1715
745.045	1674.04
745.23	1776.44
745.415	1667.9
745.6	1669.95
745.785	1663.8
745.97	1794.87
746.155	1626.94
746.34	1721.15
746.525	1678.14
746.71	1708.86
746.895	1508.16
747.079	1624.89
747.264	1561.41
747.449	1686.33
747.634	1598.27
747.819	1528.64
748.003	1598.27
748.188	1553.21
748.373	1618.75
748.557	1499.97
748.742	1510.21
748.927	1549.12
749.111	1504.06
749.296	1502.01
749.481	1559.36
749.665	1526.59
749.85	1528.64
750.034	1481.53
750.219	1456.96
750.404	1448.77
750.588	1538.88
750.773	1344.32
750.957	1469.25
751.141	1551.17
751.326	1381.18
751.51	1377.09
751.695	1450.82
751.879	1399.62
752.064	1395.52
752.248	1387.33
752.432	1377.09
752.617	1405.76
752.801	1315.65
752.985	1329.99
753.17	1395.52
753.354	1383.23
753.538	1327.94
753.722	1286.98
753.907	1311.55
754.091	1342.27
754.275	1278.79
754.459	1289.03
754.643	1307.46
754.828	1270.59
755.012	1272.64
755.196	1200.96
755.38	1147.72
755.564	1264.45
755.748	1143.62
755.932	1323.84
756.116	1217.35
756.3	1192.77
756.484	1268.55
756.668	1129.28
756.852	1252.16
757.036	1125.19
757.22	1219.39
757.404	1174.34
757.588	1082.18
757.772	1155.91
757.956	1125.19
758.14	1190.72
758.323	1114.95
758.507	1170.24
758.691	1098.56
758.875	1114.95
759.059	1184.58
759.242	1078.08
759.426	1092.42
759.61	1108.8
759.794	1010.5
759.977	1071.94
760.161	1094.47
760.345	1100.61
760.528	1073.99
760.712	979.78
760.895	1082.18
761.079	977.73
761.263	996.17
761.446	959.3
761.63	967.49
761.813	1035.08
761.997	998.21
762.18	1026.89
762.364	1016.65
762.547	832.33
762.731	920.39
762.914	994.12
763.098	981.83
763.281	985.93
763.464	889.67
763.648	985.93
763.831	1018.69
764.015	914.25
764.198	1018.69
764.381	994.12
764.564	990.02
764.748	891.72
764.931	1059.65
765.114	881.48
765.297	930.63
765.481	985.93
765.664	957.25
765.847	887.62
766.03	893.77
766.213	824.14
766.397	850.76
766.58	983.88
766.763	877.38
766.946	901.96
767.129	797.51
767.312	963.4
767.495	942.92
767.678	795.47
767.861	930.63
768.044	975.69
768.227	858.95
768.41	906.06
768.593	904.01
768.776	861
768.959	811.85
769.142	951.11
769.324	832.33
769.507	805.71
769.69	861
769.873	785.23
770.056	852.81
770.239	764.75
770.421	848.71
770.604	869.19
770.787	879.43
770.97	830.28
771.152	815.94
771.335	848.71
771.518	762.7
771.7	834.38
771.883	861
772.066	858.95
772.248	793.42
772.431	758.6
772.613	817.99
772.796	762.7
772.978	750.41
773.161	805.71
773.343	785.23
773.526	736.07
773.708	731.98
773.891	770.89
774.073	738.12
774.256	787.27
774.438	770.89
774.621	699.21
774.803	719.69
774.985	705.35
775.168	729.93
775.35	748.36
775.532	697.16
775.715	686.92
775.897	734.03
776.079	627.53
776.261	721.74
776.444	713.55
776.626	695.11
776.808	662.35
776.99	680.78
777.173	672.59
777.355	666.44
777.537	645.96
777.719	717.64
777.901	709.45
778.083	584.52
778.265	645.96
778.447	701.26
778.629	543.57
778.811	660.3
778.993	625.48
779.175	658.25
779.357	633.68
779.539	598.86
779.721	598.86
779.903	635.72
780.085	588.62
780.267	537.42
780.449	578.38
780.631	658.25
780.812	602.96
780.994	518.99
781.176	566.09
781.358	578.38
781.54	621.39
781.721	547.66
781.903	500.56
782.085	549.71
782.267	502.61
782.448	574.28
782.63	527.18
782.812	549.71
782.993	562
783.175	498.51
783.357	500.56
783.538	455.5
783.72	496.46
783.901	529.23
784.083	502.61
784.264	471.89
784.446	469.84
784.627	459.6
784.809	467.79
784.99	504.65
785.172	422.73
785.353	457.55
785.535	488.27
785.716	437.07
785.897	379.73
786.079	451.41
786.26	486.22
786.441	510.8
786.623	396.11
786.804	443.21
786.985	383.82
787.167	471.89
787.348	471.89
787.529	482.13
787.71	494.41
787.891	414.54
788.073	324.43
788.254	443.21
788.435	387.92
788.616	402.26
788.797	416.59
788.978	408.4
789.159	379.73
789.34	389.97
789.522	359.25
789.703	412.5
789.884	410.45
790.065	475.98
790.246	414.54
790.427	398.16
790.607	379.73
790.788	402.26
790.969	379.73
791.15	387.92
791.331	367.44
791.512	279.38
791.693	369.49
791.874	385.87
792.054	396.11
792.235	412.5
792.416	267.09
792.597	291.66
792.778	271.19
792.958	412.5
793.139	314.19
793.32	353.1
793.5	295.76
793.681	359.25
793.862	324.43
794.042	322.38
794.223	295.76
794.404	291.66
794.584	279.38
794.765	289.62
794.945	375.63
795.126	289.62
795.306	295.76
795.487	312.14
795.667	262.99
795.848	283.47
796.028	258.9
796.209	289.62
796.389	273.23
796.57	265.04
796.75	299.86
796.93	328.53
797.111	228.18
797.291	267.09
797.471	371.54
797.652	265.04
797.832	232.27
798.012	271.19
798.192	271.19
798.373	271.19
798.553	205.65
798.733	281.43
798.913	226.13
799.093	320.34
799.274	281.43
799.454	334.67
799.634	285.52
799.814	295.76
799.994	217.94
800.174	226.13
800.354	275.28
800.534	262.99
800.714	248.66
800.894	123.73
801.074	273.23
801.254	306
801.434	273.23
801.614	238.42
801.794	238.42
801.974	742.22
802.154	267.09
802.334	273.23
802.514	191.31
802.693	285.52
802.873	164.69
803.053	246.61
803.233	232.27
803.413	203.6
803.592	267.09
803.772	215.89
803.952	215.89
804.131	215.89
804.311	242.51
804.491	269.14
804.67	230.23
804.85	203.6
805.03	199.51
805.209	205.65
805.389	224.08
805.568	185.17
805.748	152.4
805.928	205.65
806.107	260.95
806.287	179.03
806.466	142.16
806.646	226.13
806.825	193.36
807.004	234.32
807.184	238.42
807.363	170.83
807.543	193.36
807.722	213.84
807.901	179.03
808.081	254.8
808.26	181.07
808.439	242.51
808.619	179.03
808.798	176.98
808.977	205.65
809.156	256.85
809.336	238.42
809.515	166.74
809.694	160.59
809.873	242.51
810.052	215.89
810.231	213.84
810.411	207.7
810.59	265.04
810.769	164.69
810.948	224.08
811.127	152.4
811.306	76.63
811.485	232.27
811.664	183.12
811.843	185.17
812.022	144.21
812.201	226.13
812.38	109.4
812.559	187.22
812.737	219.99
812.916	164.69
813.095	193.36
813.274	187.22
813.453	207.7
813.632	117.59
813.811	172.88
813.989	117.59
814.168	179.03
814.347	230.23
814.526	181.07
814.704	84.82
814.883	170.83
815.062	99.16
815.24	174.93
815.419	170.83
815.598	172.88
815.776	115.54
815.955	140.12
816.133	64.34
816.312	93.01
816.49	150.36
816.669	187.22
816.847	86.87
817.026	156.5
817.204	138.07
817.383	127.83
817.561	150.36
817.74	113.49
817.918	150.36
818.097	113.49
818.275	90.96
818.453	142.16
818.632	156.5
818.81	107.35
818.988	140.12
819.167	138.07
819.345	129.88
819.523	138.07
819.701	228.18
819.879	107.35
820.058	129.88
820.236	183.12
820.414	82.77
820.592	119.64
820.77	148.31
820.948	47.96
821.127	170.83
821.305	160.59
821.483	142.16
821.661	131.92
821.839	84.82
822.017	207.7
822.195	101.2
822.373	183.12
822.551	193.36
822.729	121.68
822.907	133.97
823.085	144.21
823.262	113.49
823.44	45.91
823.618	123.73
823.796	72.53
823.974	93.01
824.152	113.49
824.329	37.72
824.507	158.55
824.685	107.35
824.863	170.83
825.04	-9.39
825.218	107.35
825.396	109.4
825.574	166.74
825.751	86.87
825.929	90.96
826.107	50
826.284	127.83
826.462	131.92
826.639	103.25
826.817	80.72
826.994	142.16
827.172	133.97
827.349	101.2
827.527	129.88
827.704	117.59
827.882	113.49
828.059	41.81
828.237	129.88
828.414	52.05
828.591	88.92
828.769	146.26
828.946	156.5
829.124	142.16
829.301	215.89
829.478	56.15
829.655	66.39
829.833	123.73
830.01	60.24
830.187	174.93
830.364	95.06
830.542	74.58
830.719	123.73
830.896	103.25
831.073	123.73
831.25	82.77
831.427	131.92
831.604	123.73
831.782	101.2
831.959	148.31
832.136	115.54
832.313	123.73
832.49	123.73
832.667	129.88
832.844	58.2
833.021	76.63
833.198	129.88
833.374	140.12
833.551	164.69
833.728	123.73
833.905	88.92
834.082	78.68
834.259	90.96
834.436	66.39
834.612	142.16
834.789	9.05
834.966	52.05
835.143	95.06
835.319	17.24
835.496	99.16
835.673	86.87
835.85	127.83
836.026	181.07
836.203	62.29
836.38	95.06
836.556	125.78
836.733	97.11
836.909	74.58
837.086	86.87
837.262	88.92
837.439	117.59
837.616	25.43
837.792	0.85
837.968	35.67
838.145	29.52
838.321	123.73
838.498	68.44
838.674	47.96
838.851	70.48
839.027	31.57
839.203	95.06
839.38	0.85
839.556	52.05
839.732	-15.53
839.909	45.91
840.085	25.43
840.261	2.9
840.437	70.48
840.614	99.16
840.79	150.36
840.966	-3.24
841.142	31.57
841.318	121.68
841.494	39.76
841.671	37.72
841.847	95.06
842.023	66.39
842.199	95.06
842.375	123.73
842.551	25.43
842.727	31.57
842.903	25.43
843.079	164.69
843.255	58.2
843.431	131.92
843.607	82.77
843.783	19.29
843.959	60.24
844.134	103.25
844.31	64.34
844.486	74.58
844.662	80.72
844.838	37.72
845.013	90.96
845.189	62.29
845.365	66.39
845.541	84.82
845.716	0.85
845.892	84.82
846.068	27.48
846.244	9.05
846.419	33.62
846.595	82.77
846.77	9.05
846.946	54.1
847.122	-7.34
847.297	70.48
847.473	129.88
847.648	-5.29
847.824	101.2
847.999	64.34
848.175	66.39
848.35	37.72
848.526	125.78
848.701	66.39
848.876	101.2
849.052	62.29
849.227	33.62
849.403	15.19
849.578	45.91
849.753	115.54
849.929	21.33
850.104	82.77
850.279	13.14
850.454	-19.63
850.63	90.96
850.805	9.05
850.98	88.92
851.155	25.43
851.33	66.39
851.505	66.39
851.681	25.43
851.856	39.76
852.031	0.85
852.206	25.43
852.381	103.25
852.556	56.15
852.731	-23.72
852.906	99.16
853.081	74.58
853.256	66.39
853.431	93.01
853.606	47.96
853.781	-66.73
853.956	25.43
854.131	133.97
854.305	66.39
854.48	90.96
854.655	41.81
854.83	54.1
855.005	133.97
855.18	123.73
855.354	21.33
855.529	35.67
855.704	9.05
855.879	-1.19
856.053	43.86
856.228	35.67
856.403	-9.39
856.577	2.9
856.752	37.72
856.926	58.2
857.101	17.24
857.276	-3.24
857.45	19.29
857.625	70.48
857.799	41.81
857.974	52.05
858.148	33.62
858.323	58.2
858.497	-21.67
858.672	-21.67
858.846	31.57
859.02	50
859.195	2.9
859.369	13.14
859.543	7
859.718	60.24
859.892	2.9
860.066	29.52
860.241	31.57
860.415	2.9
860.589	15.19
860.763	68.44
860.938	43.86
861.112	50
861.286	-3.24
861.46	9.05
861.634	41.81
861.808	58.2
861.982	43.86
862.157	-23.72
862.331	43.86
862.505	68.44
862.679	-38.06
862.853	62.29
863.027	64.34
863.201	45.91
863.375	62.29
863.549	27.48
863.722	62.29
863.896	52.05
864.07	-7.34
864.244	64.34
864.418	-64.68
864.592	90.96
864.766	-7.34
864.939	0.85
865.113	7
865.287	76.63
865.461	15.19
865.634	54.1
865.808	66.39
865.982	-21.67
866.156	9.05
866.329	78.68
866.503	52.05
866.676	31.57
866.85	11.09
867.024	13.14
867.197	82.77
867.371	27.48
867.544	82.77
867.718	9.05
867.891	39.76
868.065	-23.72
868.238	-3.24
868.412	47.96
868.585	29.52
868.759	50
868.932	-29.87
869.105	9.05
869.279	21.33
869.452	66.39
869.625	29.52
869.799	35.67
869.972	-31.91
870.145	50
870.319	45.91
870.492	23.38
870.665	88.92
870.838	88.92
871.011	47.96
871.185	43.86
871.358	4.95
871.531	43.86
871.704	-31.91
871.877	-36.01
872.05	17.24
872.223	41.81
872.396	56.15
872.569	62.29
872.742	136.02
872.915	68.44
873.088	29.52
873.261	-21.67
873.434	43.86
873.607	23.38
873.78	56.15
873.953	35.67
874.126	25.43
874.299	33.62
874.471	0.85
874.644	-29.87
874.817	86.87
874.99	82.77
875.163	4.95
875.335	39.76
875.508	0.85
875.681	68.44
875.853	-36.01
876.026	-7.34
876.199	72.53
876.371	115.54
876.544	70.48
876.717	-11.43
876.889	50
877.062	33.62
877.234	-29.87
877.407	-5.29
877.579	27.48
877.752	54.1
877.924	43.86
878.097	66.39
878.269	0.85
878.442	13.14
878.614	47.96
878.786	62.29
878.959	-1.19
879.131	33.62
879.303	19.29
879.476	25.43
879.648	56.15
879.82	64.34
879.993	11.09
880.165	-11.43
880.337	-25.77
880.509	-23.72
880.681	13.14
880.854	15.19
881.026	50
881.198	99.16
881.37	-9.39
881.542	4.95
881.714	-54.44
881.886	58.2
882.058	76.63
882.23	-42.15
882.402	4.95
882.574	60.24
882.746	4.95
882.918	74.58
883.09	33.62
883.262	-46.25
883.434	50
883.606	-7.34
883.778	19.29
883.95	37.72
884.122	21.33
884.293	45.91
884.465	21.33
884.637	39.76
884.809	35.67
884.98	33.62
885.152	-29.87
885.324	45.91
885.496	25.43
885.667	41.81
885.839	25.43
886.011	11.09
886.182	-9.39
886.354	45.91
886.525	23.38
886.697	27.48
886.869	37.72
887.04	-11.43
887.212	27.48
887.383	50
887.555	60.24
887.726	9.05
887.897	17.24
888.069	43.86
888.24	31.57
888.412	2.9
888.583	52.05
888.754	140.12
888.926	25.43
889.097	-29.87
889.268	-13.48
889.44	-33.96
889.611	-38.06
889.782	-13.48
889.953	29.52
890.125	41.81
890.296	9.05
890.467	37.72
890.638	-95.4
890.809	11.09
890.98	0.85
891.151	-19.63
891.323	27.48
891.494	-7.34
891.665	-3.24
891.836	9.05
892.007	-7.34
892.178	84.82
892.349	13.14
892.52	17.24
892.691	11.09
892.862	-58.54
893.032	21.33
893.203	29.52
893.374	45.91
893.545	37.72
893.716	66.39
893.887	41.81
894.057	56.15
894.228	37.72
894.399	11.09
894.57	58.2
894.74	25.43
894.911	17.24
895.082	86.87
895.253	-50.35
895.423	15.19
895.594	27.48
895.764	29.52
895.935	11.09
896.106	56.15
896.276	-5.29
896.447	17.24
896.617	-40.11
896.788	-31.91
896.958	-44.2
897.129	56.15
897.299	-3.24
897.47	74.58
897.64	66.39
897.81	74.58
897.981	45.91
898.151	-3.24
898.322	66.39
898.492	37.72
898.662	15.19
898.832	-3.24
899.003	11.09
899.173	7
899.343	37.72
899.513	4.95
