Data from USB4F104151__73__13-12-21-114.txt Node

Date: Fri Mar 14 13:12:21 EDT 2025
User: louis
Spectrometer: USB4F10415
Trigger mode: 4
Integration Time (sec): 2.000000E-2
Scans to average: 1
Electric dark correction enabled: true
Nonlinearity correction enabled: false
Boxcar width: 0
XAxis mode: Wavelengths
Number of Pixels in Spectrum: 3648
>>>>>Begin Spectral Data<<<<<
178.204	-47.79
178.424	-47.79
178.644	-47.79
178.864	-111.27
179.084	-60.07
179.304	1.37
179.524	1.37
179.744	13.65
179.964	-17.07
180.184	-23.21
180.404	9.56
180.624	-17.07
180.844	-21.16
181.064	-15.02
181.283	32.08
181.503	-64.17
181.723	99.67
181.943	25.94
182.163	36.18
182.383	19.8
182.602	95.57
182.822	34.13
183.042	36.18
183.262	50.52
183.482	3.41
183.701	23.89
183.921	44.37
184.141	-51.88
184.361	-47.79
184.58	58.71
184.8	1.37
185.02	27.99
185.239	1.37
185.459	25.94
185.679	66.9
185.898	-21.16
186.118	52.56
186.338	-10.92
186.557	83.28
186.777	-6.83
186.997	-15.02
187.216	-21.16
187.436	103.76
187.655	-12.97
187.875	30.04
188.095	-33.45
188.314	66.9
188.534	17.75
188.753	-37.55
188.973	99.67
189.192	40.28
189.412	9.56
189.631	44.37
189.851	21.84
190.07	50.52
190.29	-31.4
190.509	50.52
190.729	-60.07
190.948	3.41
191.168	105.81
191.387	56.66
191.607	-29.35
191.826	48.47
192.045	66.9
192.265	9.56
192.484	77.14
192.704	75.09
192.923	-23.21
193.142	81.24
193.362	77.14
193.581	38.23
193.8	3.41
194.02	73.04
194.239	9.56
194.458	52.56
194.678	89.43
194.897	-23.21
195.116	66.9
195.335	42.32
195.555	32.08
195.774	42.32
195.993	27.99
196.212	13.65
196.432	-19.11
196.651	19.8
196.87	60.76
197.089	103.76
197.308	48.47
197.528	-41.64
197.747	66.9
197.966	-6.83
198.185	13.65
198.404	13.65
198.623	62.8
198.842	27.99
199.062	-4.78
199.281	128.34
199.5	1.37
199.719	-37.55
199.938	48.47
200.157	73.04
200.376	42.32
200.595	52.56
200.814	15.7
201.033	81.24
201.252	38.23
201.471	27.99
201.69	79.19
201.909	-23.21
202.128	52.56
202.347	5.46
202.566	30.04
202.785	44.37
203.004	34.13
203.223	99.67
203.442	9.56
203.661	44.37
203.879	15.7
204.098	68.95
204.317	-21.16
204.536	73.04
204.755	73.04
204.974	21.84
205.193	17.75
205.411	66.9
205.63	25.94
205.849	-37.55
206.068	79.19
206.287	-15.02
206.505	19.8
206.724	46.42
206.943	13.65
207.162	34.13
207.381	81.24
207.599	25.94
207.818	7.51
208.037	73.04
208.255	7.51
208.474	91.48
208.693	21.84
208.911	60.76
209.13	68.95
209.349	32.08
209.567	-4.78
209.786	66.9
210.005	-25.26
210.223	-19.11
210.442	-39.59
210.661	25.94
210.879	-19.11
211.098	3.41
211.316	56.66
211.535	134.48
211.753	-4.78
211.972	27.99
212.191	-15.02
212.409	25.94
212.628	9.56
212.846	13.65
213.065	77.14
213.283	42.32
213.502	38.23
213.72	62.8
213.938	13.65
214.157	-0.68
214.375	64.85
214.594	89.43
214.812	71
215.031	44.37
215.249	23.89
215.467	32.08
215.686	3.41
215.904	5.46
216.122	13.65
216.341	93.52
216.559	11.61
216.778	17.75
216.996	79.19
217.214	15.7
217.432	64.85
217.651	23.89
217.869	58.71
218.087	7.51
218.306	5.46
218.524	-2.73
218.742	52.56
218.96	5.46
219.179	32.08
219.397	30.04
219.615	66.9
219.833	9.56
220.051	85.33
220.27	71
220.488	38.23
220.706	83.28
220.924	-27.31
221.142	9.56
221.36	-4.78
221.578	38.23
221.796	54.61
222.015	-2.73
222.233	-2.73
222.451	9.56
222.669	7.51
222.887	-6.83
223.105	23.89
223.323	42.32
223.541	66.9
223.759	81.24
223.977	13.65
224.195	19.8
224.413	34.13
224.631	105.81
224.849	52.56
225.067	48.47
225.285	-43.69
225.503	114
225.721	-21.16
225.939	54.61
226.157	-12.97
226.375	44.37
226.592	-15.02
226.81	5.46
227.028	1.37
227.246	128.34
227.464	19.8
227.682	-2.73
227.9	62.8
228.117	30.04
228.335	36.18
228.553	-4.78
228.771	30.04
228.989	54.61
229.206	9.56
229.424	40.28
229.642	109.91
229.86	11.61
230.077	19.8
230.295	3.41
230.513	13.65
230.731	87.38
230.948	11.61
231.166	60.76
231.384	68.95
231.601	9.56
231.819	19.8
232.037	-39.59
232.254	48.47
232.472	9.56
232.689	-47.79
232.907	40.28
233.125	79.19
233.342	46.42
233.56	27.99
233.777	-25.26
233.995	-55.98
234.213	27.99
234.43	21.84
234.648	-10.92
234.865	60.76
235.083	77.14
235.3	21.84
235.518	-21.16
235.735	79.19
235.953	25.94
236.17	-6.83
236.388	52.56
236.605	9.56
236.822	66.9
237.04	42.32
237.257	13.65
237.475	99.67
237.692	50.52
237.909	-43.69
238.127	1.37
238.344	89.43
238.562	3.41
238.779	-31.4
238.996	25.94
239.214	-12.97
239.431	36.18
239.648	54.61
239.865	56.66
240.083	58.71
240.3	44.37
240.517	-6.83
240.735	62.8
240.952	68.95
241.169	-6.83
241.386	68.95
241.603	60.76
241.821	19.8
242.038	21.84
242.255	13.65
242.472	9.56
242.689	89.43
242.907	58.71
243.124	48.47
243.341	77.14
243.558	15.7
243.775	13.65
243.992	-39.59
244.209	-0.68
244.426	111.96
244.643	109.91
244.86	48.47
245.078	46.42
245.295	52.56
245.512	42.32
245.729	27.99
245.946	68.95
246.163	95.57
246.38	25.94
246.597	48.47
246.814	-8.87
247.031	32.08
247.248	-23.21
247.464	5.46
247.681	50.52
247.898	-21.16
248.115	66.9
248.332	36.18
248.549	-29.35
248.766	21.84
248.983	150.87
249.2	21.84
249.417	-43.69
249.633	11.61
249.85	34.13
250.067	34.13
250.284	91.48
250.501	-6.83
250.717	11.61
250.934	15.7
251.151	-31.4
251.368	11.61
251.585	77.14
251.801	11.61
252.018	-6.83
252.235	50.52
252.451	83.28
252.668	85.33
252.885	34.13
253.102	25.94
253.318	36.18
253.535	71
253.752	30.04
253.968	91.48
254.185	87.38
254.401	19.8
254.618	-45.74
254.835	19.8
255.051	42.32
255.268	77.14
255.484	13.65
255.701	-6.83
255.917	116.05
256.134	36.18
256.351	9.56
256.567	50.52
256.784	38.23
257	62.8
257.217	52.56
257.433	36.18
257.65	48.47
257.866	122.2
258.082	42.32
258.299	25.94
258.515	-8.87
258.732	101.72
258.948	25.94
259.165	32.08
259.381	42.32
259.597	17.75
259.814	9.56
260.03	60.76
260.246	-27.31
260.463	-23.21
260.679	50.52
260.895	27.99
261.112	77.14
261.328	-6.83
261.544	-31.4
261.761	21.84
261.977	36.18
262.193	17.75
262.409	93.52
262.626	44.37
262.842	60.76
263.058	36.18
263.274	83.28
263.49	17.75
263.707	64.85
263.923	60.76
264.139	-4.78
264.355	44.37
264.571	87.38
264.787	52.56
265.004	52.56
265.22	54.61
265.436	27.99
265.652	3.41
265.868	44.37
266.084	50.52
266.3	42.32
266.516	17.75
266.732	99.67
266.948	34.13
267.164	-2.73
267.38	-37.55
267.596	99.67
267.812	58.71
268.028	46.42
268.244	34.13
268.46	-6.83
268.676	54.61
268.892	9.56
269.108	-25.26
269.324	58.71
269.54	-2.73
269.756	17.75
269.972	13.65
270.188	25.94
270.403	-60.07
270.619	52.56
270.835	-12.97
271.051	44.37
271.267	-23.21
271.483	66.9
271.698	-62.12
271.914	32.08
272.13	36.18
272.346	58.71
272.562	-27.31
272.777	81.24
272.993	5.46
273.209	32.08
273.425	79.19
273.64	21.84
273.856	81.24
274.072	44.37
274.287	46.42
274.503	62.8
274.719	5.46
274.934	40.28
275.15	13.65
275.366	-29.35
275.581	19.8
275.797	3.41
276.012	11.61
276.228	1.37
276.444	71
276.659	87.38
276.875	23.89
277.09	25.94
277.306	-10.92
277.521	71
277.737	32.08
277.952	56.66
278.168	54.61
278.383	48.47
278.599	-10.92
278.814	-19.11
279.03	-10.92
279.245	9.56
279.461	44.37
279.676	91.48
279.892	15.7
280.107	62.8
280.322	-43.69
280.538	25.94
280.753	34.13
280.969	5.46
281.184	-27.31
281.399	99.67
281.615	107.86
281.83	1.37
282.045	-25.26
282.26	44.37
282.476	66.9
282.691	34.13
282.906	-2.73
283.122	5.46
283.337	95.57
283.552	38.23
283.767	-15.02
283.983	-12.97
284.198	25.94
284.413	9.56
284.628	25.94
284.843	-45.74
285.058	-2.73
285.274	11.61
285.489	-51.88
285.704	-6.83
285.919	83.28
286.134	-55.98
286.349	-35.5
286.564	-27.31
286.779	11.61
286.995	-31.4
287.21	-31.4
287.425	75.09
287.64	1.37
287.855	17.75
288.07	7.51
288.285	91.48
288.5	36.18
288.715	-12.97
288.93	34.13
289.145	50.52
289.36	34.13
289.575	42.32
289.79	34.13
290.004	64.85
290.219	38.23
290.434	48.47
290.649	5.46
290.864	71
291.079	-12.97
291.294	77.14
291.509	93.52
291.724	50.52
291.938	52.56
292.153	3.41
292.368	11.61
292.583	-39.59
292.798	58.71
293.012	66.9
293.227	62.8
293.442	-8.87
293.657	77.14
293.871	58.71
294.086	-49.83
294.301	30.04
294.516	40.28
294.73	93.52
294.945	99.67
295.16	27.99
295.374	77.14
295.589	-2.73
295.804	7.51
296.018	17.75
296.233	60.76
296.447	46.42
296.662	48.47
296.877	93.52
297.091	32.08
297.306	17.75
297.52	25.94
297.735	42.32
297.949	36.18
298.164	-10.92
298.378	11.61
298.593	25.94
298.807	32.08
299.022	17.75
299.236	46.42
299.451	38.23
299.665	-4.78
299.88	21.84
300.094	19.8
300.309	-4.78
300.523	17.75
300.737	1.37
300.952	-4.78
301.166	66.9
301.381	23.89
301.595	107.86
301.809	-37.55
302.024	27.99
302.238	-10.92
302.452	91.48
302.667	-27.31
302.881	91.48
303.095	122.2
303.309	21.84
303.524	3.41
303.738	60.76
303.952	60.76
304.166	32.08
304.381	21.84
304.595	56.66
304.809	34.13
305.023	11.61
305.237	34.13
305.452	44.37
305.666	161.11
305.88	83.28
306.094	52.56
306.308	27.99
306.522	120.15
306.736	54.61
306.95	60.76
307.164	34.13
307.379	-12.97
307.593	15.7
307.807	75.09
308.021	-70.31
308.235	114
308.449	1.37
308.663	9.56
308.877	101.72
309.091	71
309.305	73.04
309.519	-21.16
309.733	42.32
309.947	-25.26
310.161	-35.5
310.374	105.81
310.588	66.9
310.802	66.9
311.016	54.61
311.23	79.19
311.444	48.47
311.658	54.61
311.872	42.32
312.085	-2.73
312.299	79.19
312.513	48.47
312.727	27.99
312.941	3.41
313.154	62.8
313.368	-39.59
313.582	91.48
313.796	25.94
314.009	15.7
314.223	58.71
314.437	40.28
314.651	48.47
314.864	-2.73
315.078	34.13
315.292	-6.83
315.505	79.19
315.719	17.75
315.933	19.8
316.146	40.28
316.36	13.65
316.573	5.46
316.787	50.52
317.001	73.04
317.214	11.61
317.428	21.84
317.641	15.7
317.855	5.46
318.068	58.71
318.282	-27.31
318.495	95.57
318.709	91.48
318.922	9.56
319.136	66.9
319.349	15.7
319.563	23.89
319.776	42.32
319.99	42.32
320.203	42.32
320.417	105.81
320.63	48.47
320.843	73.04
321.057	99.67
321.27	27.99
321.483	-21.16
321.697	25.94
321.91	54.61
322.124	34.13
322.337	-2.73
322.55	3.41
322.763	75.09
322.977	44.37
323.19	17.75
323.403	58.71
323.617	-6.83
323.83	44.37
324.043	13.65
324.256	7.51
324.469	-55.98
324.683	66.9
324.896	64.85
325.109	107.86
325.322	38.23
325.535	-31.4
325.748	58.71
325.962	-21.16
326.175	101.72
326.388	36.18
326.601	75.09
326.814	52.56
327.027	13.65
327.24	99.67
327.453	38.23
327.666	38.23
327.879	50.52
328.092	136.53
328.305	58.71
328.518	-2.73
328.731	85.33
328.944	-19.11
329.157	46.42
329.37	77.14
329.583	46.42
329.796	32.08
330.009	17.75
330.222	81.24
330.435	83.28
330.648	85.33
330.861	36.18
331.073	25.94
331.286	11.61
331.499	27.99
331.712	34.13
331.925	21.84
332.138	52.56
332.35	-21.16
332.563	-51.88
332.776	58.71
332.989	46.42
333.202	50.52
333.414	15.7
333.627	60.76
333.84	101.72
334.053	-0.68
334.265	46.42
334.478	21.84
334.691	81.24
334.903	19.8
335.116	27.99
335.329	56.66
335.541	-4.78
335.754	25.94
335.966	-49.83
336.179	85.33
336.392	73.04
336.604	9.56
336.817	142.68
337.029	50.52
337.242	13.65
337.454	50.52
337.667	71
337.88	30.04
338.092	25.94
338.305	81.24
338.517	-33.45
338.729	42.32
338.942	54.61
339.154	46.42
339.367	3.41
339.579	11.61
339.792	62.8
340.004	36.18
340.217	7.51
340.429	64.85
340.641	25.94
340.854	50.52
341.066	-23.21
341.278	107.86
341.491	79.19
341.703	-2.73
341.915	68.95
342.128	97.62
342.34	44.37
342.552	109.91
342.764	19.8
342.977	73.04
343.189	21.84
343.401	-4.78
343.613	-23.21
343.826	-23.21
344.038	71
344.25	116.05
344.462	75.09
344.674	-2.73
344.886	-6.83
345.099	120.15
345.311	71
345.523	50.52
345.735	-23.21
345.947	-19.11
346.159	44.37
346.371	44.37
346.583	44.37
346.795	89.43
347.007	15.7
347.219	62.8
347.431	27.99
347.643	138.58
347.855	46.42
348.067	71
348.279	-66.22
348.491	81.24
348.703	34.13
348.915	126.29
349.127	-10.92
349.339	42.32
349.551	17.75
349.763	30.04
349.975	23.89
350.187	73.04
350.399	44.37
350.61	93.52
350.822	93.52
351.034	60.76
351.246	42.32
351.458	111.96
351.669	11.61
351.881	42.32
352.093	44.37
352.305	73.04
352.517	66.9
352.728	58.71
352.94	44.37
353.152	19.8
353.363	38.23
353.575	87.38
353.787	83.28
353.999	21.84
354.21	105.81
354.422	30.04
354.633	-23.21
354.845	60.76
355.057	11.61
355.268	42.32
355.48	116.05
355.692	-12.97
355.903	-17.07
356.115	66.9
356.326	44.37
356.538	75.09
356.749	-29.35
356.961	103.76
357.172	7.51
357.384	62.8
357.595	95.57
357.807	75.09
358.018	54.61
358.23	62.8
358.441	128.34
358.653	38.23
358.864	1.37
359.075	9.56
359.287	60.76
359.498	27.99
359.709	77.14
359.921	1.37
360.132	42.32
360.344	42.32
360.555	142.68
360.766	54.61
360.977	54.61
361.189	107.86
361.4	-94.89
361.611	66.9
361.823	34.13
362.034	44.37
362.245	9.56
362.456	5.46
362.667	42.32
362.879	81.24
363.09	58.71
363.301	56.66
363.512	58.71
363.723	46.42
363.935	23.89
364.146	62.8
364.357	50.52
364.568	50.52
364.779	-33.45
364.99	42.32
365.201	-31.4
365.412	107.86
365.623	15.7
365.834	21.84
366.045	44.37
366.256	107.86
366.467	54.61
366.678	62.8
366.889	1.37
367.1	9.56
367.311	66.9
367.522	3.41
367.733	136.53
367.944	165.2
368.155	60.76
368.366	54.61
368.577	5.46
368.788	91.48
368.999	36.18
369.209	50.52
369.42	95.57
369.631	103.76
369.842	62.8
370.053	42.32
370.264	-23.21
370.474	48.47
370.685	132.44
370.896	54.61
371.107	44.37
371.317	60.76
371.528	13.65
371.739	81.24
371.95	36.18
372.16	42.32
372.371	42.32
372.582	5.46
372.792	13.65
373.003	40.28
373.214	25.94
373.424	34.13
373.635	48.47
373.846	148.82
374.056	13.65
374.267	99.67
374.477	15.7
374.688	77.14
374.898	7.51
375.109	30.04
375.319	83.28
375.53	79.19
375.74	116.05
375.951	91.48
376.161	-6.83
376.372	1.37
376.582	25.94
376.793	50.52
377.003	9.56
377.214	9.56
377.424	52.56
377.635	71
377.845	9.56
378.055	83.28
378.266	-53.93
378.476	62.8
378.686	109.91
378.897	25.94
379.107	27.99
379.317	66.9
379.528	5.46
379.738	56.66
379.948	68.95
380.158	27.99
380.369	75.09
380.579	79.19
380.789	136.53
380.999	79.19
381.21	15.7
381.42	71
381.63	44.37
381.84	75.09
382.05	17.75
382.261	93.52
382.471	3.41
382.681	30.04
382.891	97.62
383.101	77.14
383.311	83.28
383.521	25.94
383.731	64.85
383.941	62.8
384.151	1.37
384.361	83.28
384.571	52.56
384.781	56.66
384.991	118.1
385.201	58.71
385.411	3.41
385.621	103.76
385.831	85.33
386.041	95.57
386.251	97.62
386.461	-15.02
386.671	13.65
386.881	62.8
387.091	30.04
387.301	81.24
387.511	-15.02
387.72	60.76
387.93	-19.11
388.14	83.28
388.35	101.72
388.56	93.52
388.769	56.66
388.979	32.08
389.189	11.61
389.399	107.86
389.609	42.32
389.818	93.52
390.028	42.32
390.238	85.33
390.447	111.96
390.657	91.48
390.867	27.99
391.076	11.61
391.286	101.72
391.496	25.94
391.705	-12.97
391.915	79.19
392.125	97.62
392.334	77.14
392.544	101.72
392.753	15.7
392.963	105.81
393.172	116.05
393.382	71
393.591	83.28
393.801	83.28
394.01	36.18
394.22	42.32
394.429	42.32
394.639	17.75
394.848	66.9
395.058	107.86
395.267	132.44
395.477	81.24
395.686	116.05
395.895	83.28
396.105	169.3
396.314	161.11
396.524	66.9
396.733	118.1
396.942	50.52
397.152	128.34
397.361	107.86
397.57	85.33
397.78	114
397.989	189.78
398.198	124.24
398.407	107.86
398.617	79.19
398.826	73.04
399.035	116.05
399.244	116.05
399.453	85.33
399.663	46.42
399.872	179.54
400.081	75.09
400.29	193.87
400.499	58.71
400.708	109.91
400.917	116.05
401.127	116.05
401.336	44.37
401.545	132.44
401.754	116.05
401.963	148.82
402.172	140.63
402.381	85.33
402.59	107.86
402.799	77.14
403.008	46.42
403.217	91.48
403.426	116.05
403.635	42.32
403.844	48.47
404.053	116.05
404.262	159.06
404.471	177.49
404.68	116.05
404.888	75.09
405.097	109.91
405.306	83.28
405.515	144.72
405.724	77.14
405.933	99.67
406.142	120.15
406.35	202.07
406.559	140.63
406.768	296.27
406.977	228.69
407.185	185.68
407.394	214.35
407.603	171.35
407.812	251.22
408.02	208.21
408.229	202.07
408.438	189.78
408.646	136.53
408.855	234.83
409.064	238.93
409.272	263.51
409.481	255.31
409.69	222.55
409.898	206.16
410.107	304.46
410.315	329.04
410.524	214.35
410.733	251.22
410.941	306.51
411.15	378.19
411.358	349.52
411.567	355.66
411.775	410.96
411.984	271.7
412.192	349.52
412.401	349.52
412.609	378.19
412.818	499.02
413.026	404.82
413.234	351.57
413.443	427.34
413.651	382.29
413.86	490.83
414.068	484.69
414.276	544.08
414.485	488.78
414.693	544.08
414.901	656.72
415.11	597.32
415.318	591.18
415.526	673.1
415.734	605.52
415.943	587.08
416.151	707.91
416.359	714.06
416.567	755.02
416.776	718.15
416.984	787.79
417.192	814.41
417.4	795.98
417.608	707.91
417.817	884.04
418.025	992.58
418.233	949.57
418.441	939.33
418.649	980.29
418.857	1121.6
419.065	1037.64
419.273	1051.97
419.481	1119.56
419.689	1170.76
419.897	1305.92
420.105	1264.96
420.313	1271.11
420.521	1375.55
420.729	1379.65
420.937	1305.92
421.145	1443.14
421.353	1506.62
421.561	1459.52
421.769	1574.21
421.977	1701.18
422.185	1735.99
422.393	1764.67
422.601	1867.06
422.809	1967.42
423.017	1850.68
423.224	1959.22
423.432	2090.29
423.64	2082.1
423.848	2278.71
424.056	2155.83
424.263	2458.93
424.471	2379.06
424.679	2428.21
424.887	2544.94
425.094	2540.85
425.302	2590
425.51	2815.27
425.718	2725.16
425.925	2784.55
426.133	2948.39
426.341	3091.75
426.548	3140.9
426.756	3269.92
426.964	3331.36
427.171	3425.57
427.379	3630.37
427.586	3646.75
427.794	3804.44
428.001	3851.55
428.209	3994.9
428.417	3929.37
428.624	4068.63
428.832	4218.13
429.039	4203.8
429.247	4269.33
429.454	4797.71
429.662	5016.84
429.869	4687.12
430.076	5016.84
430.284	4728.08
430.491	5129.48
430.699	5362.95
430.906	5369.09
431.114	5514.5
431.321	5704.96
431.528	5711.1
431.736	6374.64
431.943	6323.44
432.15	6245.62
432.358	6255.86
432.565	6640.88
432.772	6571.25
432.979	6878.44
433.187	7052.52
433.394	7128.3
433.601	7605.47
433.808	7607.52
434.016	7503.07
434.223	7689.44
434.43	8312.02
434.637	8355.03
434.844	8830.16
435.052	8944.84
435.259	8834.25
435.466	8826.06
435.673	8869.07
435.88	9299.14
436.087	9723.07
436.294	9884.86
436.501	9622.72
436.708	9817.28
436.915	10394.81
437.122	10640.56
437.329	10773.68
437.537	10890.42
437.743	11109.55
437.95	11117.74
438.157	11410.6
438.364	12074.14
438.571	11986.08
438.778	12135.58
438.985	13204.62
439.192	12629.14
439.399	13192.33
439.606	12807.31
439.813	13505.67
440.02	14546.04
440.227	14128.25
440.433	14191.74
440.64	14480.5
440.847	14541.94
441.054	14777.46
441.261	15543.4
441.467	15359.08
441.674	15789.16
441.881	16272.48
442.088	16524.38
442.294	15969.38
442.501	16684.12
442.708	16888.92
442.914	17634.38
443.121	18289.73
443.328	17800.26
443.534	19178.54
443.741	18562.11
443.948	18390.08
444.154	19604.52
444.361	19751.98
444.568	19711.02
444.774	19770.41
444.981	19942.44
445.187	20718.62
445.394	21392.4
445.6	20933.65
445.807	22791.16
446.013	22289.41
446.22	22240.26
446.426	24069.09
446.633	23901.16
446.839	24880.09
447.046	23641.07
447.252	24796.12
447.459	24992.73
447.665	24740.83
447.871	25777.1
448.078	27280.31
448.284	25650.13
448.491	26629.06
448.697	27640.75
448.903	28304.29
449.11	27894.7
449.316	27882.41
449.522	28269.48
449.728	28902.3
449.935	29410.2
450.141	29369.24
450.347	29823.89
450.553	29041.56
450.76	28957.6
450.966	30180.23
451.172	29746.06
451.378	30864.25
451.584	30325.64
451.791	30548.87
451.997	30892.93
452.203	31687.54
452.409	31292.28
452.615	31277.94
452.821	30018.44
453.027	29965.2
453.233	31462.26
453.44	30141.32
453.646	30839.68
453.852	30722.94
454.058	31052.67
454.264	30253.96
454.47	30839.68
454.676	30301.06
454.882	31529.84
455.088	28771.23
455.294	29068.19
455.5	29490.07
455.705	29725.58
455.911	28578.72
456.117	27919.28
456.323	27628.46
456.529	26299.33
456.735	27587.5
456.941	26645.44
457.147	26508.22
457.352	25422.8
457.558	25177.05
457.764	25455.57
457.97	24871.9
458.176	24220.64
458.381	24161.25
458.587	23215.09
458.793	23045.11
458.999	21881.86
459.204	23573.49
459.41	22985.72
459.616	21195.79
459.821	21421.07
460.027	21371.92
460.233	20841.5
460.438	19670.06
460.644	19940.39
460.85	19141.68
461.055	18580.54
461.261	18838.58
461.466	17214.54
461.672	16788.57
461.878	18232.38
462.083	16919.64
462.289	16487.51
462.494	16450.65
462.7	15639.65
462.905	15600.74
463.111	15617.13
463.316	16245.85
463.522	15397.99
463.727	15596.65
463.932	15617.13
464.138	15346.8
464.343	15397.99
464.549	14584.95
464.754	14945.39
464.959	15182.96
465.165	15084.66
465.37	14537.85
465.575	14050.43
465.781	14791.8
465.986	14707.83
466.191	14148.73
466.397	13894.79
466.602	13366.41
466.807	13710.47
467.012	13755.52
467.218	13739.14
467.423	13597.83
467.628	13839.49
467.833	14226.56
468.038	13898.88
468.244	13286.54
468.449	14130.3
468.654	13274.25
468.859	13433.99
469.064	13278.35
469.269	12743.83
469.474	12856.47
469.679	13040.78
469.885	12594.33
470.09	12864.66
470.295	12539.03
470.5	12549.27
470.705	12690.58
470.91	12274.84
471.115	12240.03
471.32	12397.72
471.525	12561.56
471.73	12020.89
471.935	11932.83
472.139	11568.29
472.344	11723.94
472.549	11629.73
472.754	11437.22
472.959	11320.49
473.164	11107.5
473.369	10818.74
473.574	11117.74
473.778	11070.64
473.983	11044.01
474.188	10904.75
474.393	10376.38
474.598	10646.71
474.802	10583.22
475.007	10505.4
475.212	10265.78
475.417	10095.8
475.621	10173.63
475.826	10104
476.031	9850.05
476.235	9675.97
476.44	9962.69
476.645	9745.6
476.849	9553.09
477.054	9508.04
477.259	9460.93
477.463	9331.91
477.668	9182.41
477.872	9069.77
478.077	9243.85
478.282	8795.34
478.486	8803.53
478.691	8723.66
478.895	8785.1
479.1	8471.76
479.304	8787.15
479.509	8522.96
479.713	8535.25
479.918	8535.25
480.122	8223.96
480.326	8455.38
480.531	8467.67
480.735	8283.35
480.94	8180.95
481.144	8621.27
481.348	7916.76
481.553	8142.04
481.757	8117.47
481.961	8021.21
482.166	8262.87
482.37	8164.57
482.574	8013.02
482.778	8062.17
482.983	8234.2
483.187	8121.56
483.391	8033.5
483.595	8064.22
483.8	7828.7
484.004	7875.81
484.208	8262.87
484.412	8060.12
484.616	7920.86
484.821	8191.19
485.025	7822.56
485.229	7951.58
485.433	7906.52
485.637	7996.64
485.841	7939.29
486.045	8039.64
486.249	7867.61
486.453	8000.73
486.657	7959.77
486.861	8103.13
487.065	7777.5
487.269	8037.59
487.473	7644.38
487.677	8041.69
487.881	8119.51
488.085	7865.57
488.289	8037.59
488.493	8004.83
488.697	8088.79
488.901	8045.79
489.105	8074.46
489.309	7949.53
489.512	8109.27
489.716	7920.86
489.92	7974.11
490.124	7984.35
490.328	8201.43
490.531	8000.73
490.735	8273.11
490.939	8185.05
491.143	8277.21
491.346	8082.65
491.55	8365.27
491.754	8293.59
491.958	8447.19
492.161	8520.92
492.365	8432.85
492.569	8385.75
492.772	8545.49
492.976	8453.33
493.18	8299.73
493.383	8506.58
493.587	8817.87
493.79	8531.16
493.994	8694.99
494.197	8791.25
494.401	8643.79
494.605	8836.3
494.808	8873.17
495.012	8983.76
495.215	8922.32
495.419	9188.55
495.622	9147.59
495.825	9194.7
496.029	9286.86
496.232	9342.15
496.436	9417.93
496.639	9471.17
496.843	9430.21
497.046	9743.55
497.249	9909.44
497.453	9796.8
497.656	10077.37
497.859	9915.58
498.063	9981.12
498.266	10364.09
498.469	10292.41
498.673	10529.97
498.876	10650.8
499.079	10826.93
499.282	10554.55
499.485	10941.61
499.689	11048.11
499.892	11080.88
500.095	11109.55
500.298	11390.12
500.501	11166.89
500.705	11492.52
500.908	11857.06
501.111	11949.22
501.314	11879.58
501.517	11984.03
501.72	12209.31
501.923	12068
502.126	12336.28
502.329	12598.42
502.532	12489.88
502.735	12829.84
502.938	12709.01
503.141	12934.29
503.344	13395.08
503.547	13190.28
503.75	13485.19
503.953	13589.64
504.156	13702.28
504.359	13751.43
504.562	13825.15
504.765	14249.08
504.968	14548.09
505.17	14541.94
505.373	14369.91
505.576	14861.43
505.779	14847.09
505.982	14939.25
506.185	15264.88
506.387	15215.73
506.59	15557.74
506.793	15799.4
506.996	15873.12
507.198	15879.27
507.401	16176.22
507.604	16505.95
507.807	16743.51
508.009	16788.57
508.212	16700.5
508.415	17271.89
508.617	17294.41
508.82	17376.33
509.022	17257.55
509.225	17974.34
509.428	17671.24
509.63	17912.9
509.833	17964.1
510.035	18342.97
510.238	18517.05
510.44	18670.65
510.643	18887.73
510.845	19127.35
511.048	19211.31
511.25	19420.2
511.453	19348.53
511.655	19979.3
511.858	19874.85
512.06	20022.31
512.262	20128.8
512.465	20202.53
512.667	20519.96
512.87	20630.55
513.072	20782.1
513.274	21341.2
513.477	21466.13
513.679	21644.3
513.881	21941.25
514.084	22213.63
514.286	22180.87
514.488	22391.81
514.69	22838.26
514.893	22873.08
515.095	22922.23
515.297	23176.18
515.499	23088.12
515.701	23589.87
515.904	23880.68
516.106	24101.86
516.308	24191.97
516.51	24593.37
516.712	24529.89
516.914	24841.18
517.116	25170.9
517.318	25035.74
517.52	25398.23
517.722	25455.57
517.925	25926.6
518.127	26086.34
518.329	26350.53
518.531	25932.75
518.733	26962.87
518.935	26684.35
519.136	26938.3
519.338	27421.62
519.54	27382.71
519.742	27814.83
519.944	27902.89
520.146	28435.36
520.348	28324.77
520.55	28521.38
520.752	28748.7
520.954	28949.4
521.155	29123.48
521.357	29209.5
521.559	29389.72
521.761	30016.4
521.963	29895.57
522.164	30352.26
522.366	30327.69
522.568	30366.6
522.77	30729.09
522.971	30862.21
523.173	30858.11
523.375	31120.25
523.576	31263.61
523.778	31241.08
523.98	31476.6
524.181	31988.59
524.383	32154.47
524.584	31951.73
524.786	32512.87
524.988	32201.58
525.189	32885.6
525.391	33022.81
525.592	32969.57
525.794	32899.94
525.995	33342.3
526.197	33076.06
526.398	33330.01
526.6	33598.29
526.801	33858.38
527.003	33903.44
527.204	33897.3
527.406	34165.58
527.607	34100.04
527.808	34319.18
528.01	33698.64
528.211	34603.85
528.412	34857.79
528.614	34908.99
528.815	34569.03
529.016	35443.51
529.218	34870.08
529.419	34904.9
529.62	35095.36
529.822	34878.27
530.023	35341.11
530.224	34800.45
530.425	35107.65
530.626	35173.18
530.828	35023.68
531.029	35777.33
531.23	35271.48
531.431	35480.38
531.632	35849.01
531.833	35531.58
532.035	35740.47
532.236	35513.14
532.437	35746.61
532.638	35320.63
532.839	35543.86
533.04	36121.39
533.241	35838.77
533.442	35965.74
533.643	35769.14
533.844	35963.7
534.045	35980.08
534.246	35636.02
534.447	36174.64
534.648	35869.49
534.849	36129.58
535.05	35654.45
535.251	35666.74
535.451	35984.18
535.652	35955.5
535.853	35930.93
536.054	36180.78
536.255	36401.96
536.456	35918.64
536.657	36498.22
536.857	36002.61
537.058	35799.86
537.259	35826.48
537.46	36199.21
537.66	36205.36
537.861	36262.7
538.062	35648.31
538.263	36438.83
538.463	36016.94
538.664	35779.38
538.865	36369.19
539.065	36117.29
539.266	35474.23
539.466	36201.26
539.667	35752.76
539.868	36571.94
540.068	36199.21
540.269	35773.24
540.469	36436.78
540.67	35795.76
540.87	35961.65
541.071	35785.52
541.271	35971.89
541.472	36016.94
541.672	35732.28
541.873	35967.79
542.073	35208
542.274	36231.98
542.474	35730.23
542.675	36188.97
542.875	36055.86
543.075	35842.87
543.276	35349.31
543.476	36211.5
543.676	36025.14
543.877	35922.74
544.077	35797.81
544.277	35924.79
544.478	35832.63
544.678	35750.71
544.878	35695.41
545.078	35609.4
545.279	35169.08
545.479	35365.69
545.679	35654.45
545.879	35461.94
546.079	35738.42
546.28	35730.23
546.48	35568.44
546.68	36115.25
546.88	35625.78
547.08	35255.1
547.28	35638.07
547.48	35621.69
547.68	35650.36
547.88	35406.65
548.081	35631.93
548.281	35478.33
548.481	35490.62
548.681	35838.77
548.881	35234.62
549.081	35339.07
549.28	35466.04
549.48	35875.63
549.68	35388.22
549.88	36010.8
550.08	35398.46
550.28	35679.03
550.48	35400.51
550.68	35515.19
550.88	35355.45
551.08	35439.42
551.279	35685.17
551.479	35406.65
551.679	35468.09
551.879	35146.56
552.079	35580.73
552.278	35431.22
552.478	35547.96
552.678	35529.53
552.878	35857.2
553.077	35031.87
553.277	34806.59
553.477	35449.66
553.676	35083.07
553.876	35130.17
554.076	35044.16
554.275	35158.84
554.475	34526.02
554.674	34730.82
554.874	34876.23
555.074	35261.24
555.273	34970.43
555.473	35017.53
555.672	34806.59
555.872	34816.83
556.071	35236.67
556.271	35091.26
556.47	34587.46
556.67	34716.48
556.869	34915.14
557.068	34853.7
557.268	34667.33
557.467	34818.88
557.667	34587.46
557.866	34448.2
558.065	34622.28
558.265	34442.06
558.464	34448.2
558.663	34822.98
558.863	34138.96
559.062	34544.45
559.261	33872.72
559.461	34526.02
559.66	33889.1
559.859	34282.31
560.058	33450.84
560.258	34308.94
560.457	33559.38
560.656	34044.75
560.855	34069.33
561.054	33997.65
561.253	33545.05
561.453	33858.38
561.652	33647.44
561.851	34032.46
562.05	33790.8
562.249	33342.3
562.448	33551.19
562.647	33811.28
562.846	33622.87
563.045	33825.62
563.244	33221.47
563.443	33311.58
563.642	32861.02
563.841	33207.13
564.04	32922.46
564.239	33108.83
564.438	32576.36
564.637	32901.98
564.836	32988
565.035	32596.84
565.234	32844.64
565.432	32797.54
565.631	32605.03
565.83	32758.63
566.029	32693.09
566.228	32232.3
566.427	32494.44
566.625	32004.97
566.824	31728.5
567.023	32297.83
567.222	31617.91
567.42	32312.17
567.619	31974.25
567.818	31867.76
568.016	31882.09
568.215	31808.37
568.414	31744.88
568.612	31910.77
568.811	31914.86
569.01	31810.42
569.208	30864.25
569.407	31421.3
569.605	31245.18
569.804	31720.31
570.002	30933.89
570.201	31126.39
570.4	30880.64
570.598	30757.76
570.797	31159.16
570.995	30749.57
571.193	30536.58
571.392	30866.3
571.59	30333.83
571.789	30651.27
571.987	30679.94
572.186	30321.54
572.384	30538.63
572.582	30200.71
572.781	30239.62
572.979	29965.2
573.177	30378.89
573.376	29993.87
573.574	29889.42
573.772	29778.83
573.971	29739.92
574.169	29688.72
574.367	29270.93
574.565	29973.39
574.763	29614.99
574.962	29303.7
575.16	29199.26
575.358	29326.23
575.556	29109.15
575.754	29512.59
575.952	28658.59
576.151	29365.14
576.349	29002.65
576.547	28543.91
576.745	28769.18
576.943	28765.09
577.141	28672.93
577.339	28834.72
577.537	28586.91
577.735	28437.41
577.933	28378.02
578.131	28562.34
578.329	28074.92
578.527	28218.28
578.725	28238.76
578.923	28005.29
579.121	28140.46
579.319	27904.94
579.516	27784.11
579.714	27808.68
579.912	27440.05
580.11	28091.3
580.308	27657.14
580.506	27636.66
580.704	27100.09
580.901	27616.18
581.099	27321.27
581.297	27046.84
581.495	27079.61
581.692	26911.67
581.89	26840
582.088	27562.93
582.285	27073.46
582.483	27114.42
582.681	26663.87
582.878	26567.62
583.076	26592.19
583.274	26786.75
583.471	26094.54
583.669	26416.07
583.866	26319.81
584.064	26661.82
584.262	26180.55
584.459	26397.63
584.657	25940.94
584.854	26407.87
585.052	25830.35
585.249	25895.88
585.447	26137.54
585.644	25603.02
585.841	25682.89
586.039	25840.59
586.236	25545.68
586.434	25543.63
586.631	25312.21
586.828	25457.62
587.026	25258.96
587.223	25273.3
587.42	25164.76
587.618	25193.43
587.815	24931.29
588.012	25056.22
588.21	24998.87
588.407	25031.64
588.604	24796.12
588.801	24693.72
588.999	24726.49
589.196	24495.07
589.393	24400.86
589.59	24341.47
589.787	24349.67
589.984	24474.59
590.182	24124.39
590.379	24300.51
590.576	23999.46
590.773	24144.87
590.97	24198.12
591.167	23901.16
591.364	23714.8
591.561	24046.57
591.758	23530.48
591.955	23692.27
592.152	23557.1
592.349	23553.01
592.546	23413.74
592.743	23532.53
592.94	23280.63
593.137	23340.02
593.334	23352.31
593.531	22948.86
593.727	23108.6
593.924	22696.95
594.121	22625.28
594.318	23219.19
594.515	22582.27
594.712	22940.66
594.908	22578.17
595.105	22780.92
595.302	22043.65
595.499	22426.62
595.696	22516.73
595.892	22125.57
596.089	22281.22
596.286	22227.97
596.482	22400
596.679	22144
596.876	22164.48
597.072	22078.47
597.269	22127.62
597.466	21672.97
597.662	21779.47
597.859	21898.25
598.055	21646.35
598.252	21640.2
598.448	21445.65
598.645	21525.52
598.841	21271.57
599.038	21388.3
599.234	21646.35
599.431	21283.86
599.627	20976.66
599.824	21306.38
600.02	20904.98
600.217	21124.11
600.413	20847.64
600.609	20720.67
600.806	20489.24
601.002	20831.26
601.198	20814.87
601.395	20579.36
601.591	20605.98
601.787	20548.64
601.984	20282.4
602.18	20468.76
602.376	20169.76
602.572	20294.69
602.769	20382.75
602.965	19690.54
603.161	20319.26
603.357	19960.87
603.553	19901.48
603.75	20167.71
603.946	19672.11
604.142	20018.21
604.338	19567.66
604.534	19620.91
604.73	19311.66
604.926	19393.58
605.122	19751.98
605.318	19256.37
605.514	19467.31
605.71	19215.41
605.906	19512.36
606.102	19162.16
606.298	19342.38
606.494	19207.22
606.69	19031.09
606.886	19303.47
607.082	18897.97
607.278	19213.36
607.474	18687.03
607.67	19215.41
607.866	18752.57
608.062	18674.74
608.257	18887.73
608.453	18652.22
608.649	18422.84
608.845	18615.35
609.041	18308.16
609.236	18609.21
609.432	18603.07
609.628	18402.36
609.824	18428.99
610.019	18613.31
610.215	18488.38
610.411	18486.33
610.606	18156.61
610.802	18207.81
610.998	18109.51
611.193	18091.07
611.389	18093.12
611.584	17876.04
611.78	18033.73
611.976	17906.76
612.171	18158.66
612.367	18011.2
612.562	17992.77
612.758	17654.86
612.953	17677.38
613.149	17830.98
613.344	17413.2
613.539	17935.43
613.735	17824.84
613.93	17650.76
614.126	17501.26
614.321	17724.49
614.517	17251.41
614.712	17482.83
614.907	17648.71
615.103	17497.16
615.298	17308.75
615.493	17503.31
615.688	17310.8
615.884	17503.31
616.079	17019.99
616.274	17540.17
616.47	17407.05
616.665	17097.81
616.86	17149.01
617.055	17085.52
617.25	16929.88
617.445	16995.41
617.641	16720.98
617.836	16972.88
618.031	16514.14
618.226	17034.32
618.421	16583.77
618.616	16897.11
618.811	16563.29
619.006	16706.65
619.201	16430.17
619.396	16649.3
619.591	16407.64
619.786	16585.82
619.981	16200.8
620.176	16434.27
620.371	16057.44
620.566	16254.05
620.761	15952.99
620.956	16049.25
621.151	15625.32
621.346	15899.75
621.541	15733.86
621.735	15787.11
621.93	15758.44
622.125	15715.43
622.32	15182.96
622.515	15531.11
622.709	15475.82
622.904	15301.74
623.099	15242.35
623.294	15412.33
623.488	14734.45
623.683	14969.97
623.878	14771.32
624.072	14935.15
624.267	14804.08
624.462	14705.78
624.656	14361.72
624.851	14478.46
625.046	14277.76
625.24	14480.5
625.435	14142.59
625.629	14058.62
625.824	14077.05
626.018	14099.58
626.213	13741.19
626.407	13864.07
626.602	13675.65
626.796	13937.79
626.991	13667.46
627.185	13657.22
627.38	13376.65
627.574	13470.86
627.768	13470.86
627.963	13302.92
628.157	13083.79
628.352	13223.05
628.546	12733.59
628.74	13290.63
628.935	12590.23
629.129	13108.37
629.323	12682.39
629.517	12645.52
629.712	12604.57
629.906	12694.68
630.1	12299.42
630.294	12336.28
630.489	12469.4
630.683	12405.91
630.877	12356.76
631.071	12250.27
631.265	12334.23
631.459	12203.16
631.653	12068
631.848	12029.09
632.042	11998.37
632.236	11887.78
632.43	11902.11
632.624	11850.91
632.818	11584.68
633.012	11685.03
633.206	11601.06
633.4	11525.29
633.594	11363.5
633.788	11445.41
633.982	11353.26
634.176	11404.46
634.369	11080.88
634.563	11168.94
634.757	10933.42
634.951	11082.92
635.145	10976.43
635.339	11111.6
635.533	10947.76
635.726	10921.13
635.92	10667.19
636.114	10706.1
636.308	10677.43
636.501	10630.32
636.695	10712.24
636.889	10386.61
637.083	10544.31
637.276	10337.46
637.47	10392.76
637.664	10417.33
637.857	10341.56
638.051	10144.95
638.244	10101.95
638.438	10151.1
638.632	10001.6
638.825	9923.77
639.019	9757.89
639.212	9862.33
639.406	9831.62
639.599	9702.59
639.793	9880.77
639.986	9643.2
640.18	9764.03
640.373	9718.98
640.567	9442.5
640.76	9575.62
640.954	9491.65
641.147	9366.73
641.34	9194.7
641.534	9372.87
641.727	9221.32
641.92	9131.21
642.114	9131.21
642.307	8987.85
642.5	8979.66
642.694	8922.32
642.887	8907.98
643.08	9016.52
643.273	8889.55
643.467	8785.1
643.66	8809.68
643.853	8617.17
644.046	8594.64
644.239	8660.18
644.432	8541.4
644.626	8352.98
644.819	8471.76
645.012	8504.53
645.205	8447.19
645.398	8135.9
645.591	8391.89
645.784	8309.97
645.977	8246.49
646.17	8121.56
646.363	8066.27
646.556	7980.25
646.749	8025.31
646.942	8127.71
647.135	7910.62
647.328	7967.96
647.521	7912.67
647.714	7845.09
647.907	7965.92
648.099	7845.09
648.292	7728.35
648.485	7775.45
648.678	7668.96
648.871	7605.47
649.064	7648.48
649.256	7529.7
649.449	7343.33
649.642	7451.88
649.835	7378.15
650.027	7302.37
650.22	7306.47
650.413	7318.76
650.605	7226.6
650.798	7210.22
650.991	7060.71
651.183	7099.62
651.376	7179.5
651.568	7156.97
651.761	7042.28
651.954	6984.94
652.146	6948.08
652.339	6894.83
652.531	6796.53
652.724	6892.78
652.916	6716.65
653.109	6868.2
653.301	6882.54
653.494	6808.81
653.686	6497.52
653.879	6712.56
654.071	6436.08
654.263	6558.96
654.456	6489.33
654.648	6401.27
654.84	6542.58
655.033	6419.7
655.225	6388.98
655.417	6374.64
655.61	6444.27
655.802	6305.01
655.994	6343.92
656.186	6241.53
656.379	6141.18
656.571	6180.09
656.763	6165.75
656.955	6126.84
657.148	6151.42
657.34	6159.61
657.532	6098.17
657.724	5811.45
657.916	5850.36
658.108	6010.11
658.3	5733.63
658.492	5860.6
658.684	5827.84
658.876	5876.99
659.068	5801.21
659.26	5713.15
659.452	5707.01
659.644	5674.24
659.836	5487.87
660.028	5678.33
660.22	5571.84
660.412	5496.07
660.604	5604.61
660.796	5565.7
660.988	5475.59
661.18	5491.97
661.372	5283.08
661.563	5489.92
661.755	5354.76
661.947	5451.01
662.139	5367.04
662.331	5362.95
662.522	5014.79
662.714	5215.49
662.906	5229.83
663.097	5022.98
663.289	5008.65
663.481	5022.98
663.673	5065.99
663.864	5074.18
664.056	4912.39
664.247	5063.94
664.439	4904.2
664.631	4965.64
664.822	4863.24
665.014	5057.8
665.205	5035.27
665.397	4853
665.588	4820.24
665.78	4842.76
665.971	4754.7
666.163	4779.28
666.354	4664.59
666.546	4850.96
666.737	4785.42
666.929	4803.85
667.12	4775.18
667.311	4562.19
667.503	4549.9
667.694	4560.14
667.885	4467.99
668.077	4390.16
668.268	4453.65
668.459	4556.05
668.651	4427.03
668.842	4386.07
669.033	4375.83
669.224	4414.74
669.416	4338.96
669.607	4289.81
669.798	4240.66
669.989	4291.86
670.18	4308.24
670.371	4234.52
670.563	4281.62
670.754	4220.18
670.945	4121.88
671.136	4136.21
671.327	4310.29
671.518	4097.3
671.709	4056.34
671.9	4181.27
672.091	4105.49
672.282	4031.77
672.473	3966.23
672.664	3976.47
672.855	3960.09
673.046	4048.15
673.237	3933.47
673.428	3869.98
673.619	3841.31
673.809	3953.94
674	3939.61
674.191	3910.94
674.382	3794.2
674.573	3872.03
674.764	3714.33
674.954	3851.55
675.145	3673.37
675.336	3826.97
675.527	3736.86
675.717	3722.52
675.908	3865.88
676.099	3892.51
676.289	3786.01
676.48	3773.72
676.671	3765.53
676.861	3730.72
677.052	3597.6
677.243	3652.89
677.433	3605.79
677.624	3732.76
677.814	3607.84
678.005	3484.96
678.195	3525.92
678.386	3593.5
678.576	3548.45
678.767	3540.26
678.957	3550.5
679.148	3568.93
679.338	3607.84
679.529	3462.43
679.719	3540.26
679.909	3378.47
680.1	3464.48
680.29	3353.89
680.481	3493.15
680.671	3413.28
680.861	3355.94
681.052	3349.79
681.242	3310.88
681.432	3374.37
681.622	3263.78
681.813	3222.82
682.003	3353.89
682.193	3427.62
682.383	3253.54
682.573	3110.18
682.764	3302.69
682.954	3216.68
683.144	3204.39
683.334	3265.83
683.524	3251.49
683.714	3097.89
683.904	3173.67
684.094	3269.92
684.284	3233.06
684.474	3112.23
684.664	3196.2
684.854	3147.05
685.044	3032.36
685.234	2944.3
685.424	3075.37
685.614	3036.45
685.804	3003.69
685.994	2932.01
686.184	3126.57
686.374	3056.93
686.564	3040.55
686.753	2913.58
686.943	2802.99
687.133	2817.32
687.323	3028.26
687.513	2907.43
687.702	2983.21
687.892	2909.48
688.082	2876.71
688.272	2872.62
688.461	2917.67
688.651	2835.75
688.841	2813.23
689.03	2940.2
689.22	2802.99
689.41	2813.23
689.599	2872.62
689.789	2891.05
689.979	2751.79
690.168	2831.66
690.358	2684.2
690.547	2809.13
690.737	2698.54
690.926	2764.08
691.116	2579.76
691.305	2655.53
691.495	2723.12
691.684	2555.18
691.874	2649.39
692.063	2661.68
692.252	2815.27
692.442	2645.29
692.631	2676.01
692.82	2526.51
693.01	2590
693.199	2528.56
693.388	2499.89
693.578	2551.09
693.767	2637.1
693.956	2643.24
694.146	2577.71
694.335	2590
694.524	2436.4
694.713	2473.26
694.902	2489.65
695.092	2516.27
695.281	2446.64
695.47	2422.06
695.659	2475.31
695.848	2422.06
696.037	2405.68
696.226	2372.91
696.415	2417.97
696.604	2430.26
696.793	2442.54
696.982	2469.17
697.171	2383.15
697.36	2432.3
697.549	2385.2
697.738	2379.06
697.927	2319.67
698.116	2352.43
698.305	2299.19
698.494	2319.67
698.683	2389.3
698.872	2393.39
699.061	2368.82
699.25	2288.95
699.438	2284.85
699.627	2385.2
699.816	2377.01
700.005	2391.34
700.193	2313.52
700.382	2305.33
700.571	2284.85
700.76	2223.41
700.948	2258.23
701.137	2334
701.326	2190.64
701.514	2278.71
701.703	2340.15
701.892	2174.26
702.08	2317.62
702.269	2221.36
702.457	2272.56
702.646	2229.56
702.834	2272.56
703.023	2198.84
703.212	2315.57
703.4	2360.63
703.589	2129.2
703.777	2278.71
703.965	2180.4
704.154	2211.12
704.342	2286.9
704.531	2217.27
704.719	2180.4
704.907	2231.6
705.096	2254.13
705.284	2241.84
705.472	2229.56
705.661	2237.75
705.849	2284.85
706.037	2168.12
706.226	2071.86
706.414	2293.04
706.602	2118.97
706.79	2254.13
706.979	2250.03
707.167	2223.41
707.355	2227.51
707.543	2139.44
707.731	2131.25
707.919	2118.97
708.107	2174.26
708.296	2139.44
708.484	2196.79
708.672	2241.84
708.86	2237.75
709.048	2149.68
709.236	2157.88
709.424	2202.93
709.612	2098.49
709.8	2184.5
709.988	2143.54
710.176	2188.6
710.364	2137.4
710.551	2180.4
710.739	2190.64
710.927	2139.44
711.115	2090.29
711.303	2106.68
711.491	2239.8
711.679	2204.98
711.866	2258.23
712.054	2168.12
712.242	2075.96
712.43	2159.92
712.617	2209.08
712.805	2198.84
712.993	2215.22
713.181	2149.68
713.368	2209.08
713.556	2178.36
713.744	2131.25
713.931	2157.88
714.119	2254.13
714.306	2149.68
714.494	2209.08
714.682	2256.18
714.869	2168.12
715.057	2211.12
715.244	2164.02
715.432	2213.17
715.619	2069.81
715.807	2336.05
715.994	2100.53
716.182	2207.03
716.369	2233.65
716.556	2082.1
716.744	2108.73
716.931	2170.16
717.119	2198.84
717.306	2233.65
717.493	2286.9
717.681	2227.51
717.868	2202.93
718.055	2157.88
718.242	2166.07
718.43	2258.23
718.617	2186.55
718.804	2143.54
718.991	2288.95
719.179	2192.69
719.366	2164.02
719.553	2196.79
719.74	2184.5
719.927	2135.35
720.114	2186.55
720.301	2143.54
720.488	2157.88
720.676	2129.2
720.863	2207.03
721.05	2250.03
721.237	2290.99
721.424	2114.87
721.611	2143.54
721.798	2139.44
721.985	2204.98
722.172	2084.15
722.358	2170.16
722.545	2256.18
722.732	2184.5
722.919	2174.26
723.106	2141.49
723.293	2106.68
723.48	2198.84
723.667	2123.06
723.853	2118.97
724.04	2137.4
724.227	2188.6
724.414	2164.02
724.6	2176.31
724.787	2157.88
724.974	2055.48
725.161	2088.25
725.347	2082.1
725.534	2258.23
725.72	2315.57
725.907	2102.58
726.094	2133.3
726.28	2147.64
726.467	2129.2
726.653	2182.45
726.84	2116.92
727.027	2278.71
727.213	2270.51
727.4	2223.41
727.586	2090.29
727.773	2143.54
727.959	2166.07
728.145	2204.98
728.332	2098.49
728.518	2215.22
728.705	2315.57
728.891	2157.88
729.077	2184.5
729.264	2192.69
729.45	2221.36
729.636	2198.84
729.823	2153.78
730.009	2180.4
730.195	2102.58
730.382	2207.03
730.568	2121.01
730.754	2143.54
730.94	2071.86
731.126	2276.66
731.313	2170.16
731.499	2194.74
731.685	2127.16
731.871	2065.72
732.057	2094.39
732.243	2133.3
732.429	2245.94
732.615	2037.05
732.801	2219.32
732.987	2274.61
733.173	2078.01
733.359	2094.39
733.545	2131.25
733.731	2075.96
733.917	2125.11
734.103	2209.08
734.289	2196.79
734.475	2133.3
734.661	2141.49
734.847	2061.62
735.033	2229.56
735.219	2207.03
735.404	2198.84
735.59	2147.64
735.776	2135.35
735.962	2204.98
736.148	2239.8
736.333	2151.73
736.519	2104.63
736.705	2073.91
736.89	2057.53
737.076	2161.97
737.262	2229.56
737.447	2231.6
737.633	2090.29
737.819	2213.17
738.004	2041.14
738.19	2174.26
738.375	2092.34
738.561	2155.83
738.747	2094.39
738.932	2041.14
739.118	2217.27
739.303	2082.1
739.489	2100.53
739.674	2061.62
739.859	2075.96
740.045	2116.92
740.23	2020.66
740.416	2037.05
740.601	2096.44
740.786	2053.43
740.972	2094.39
741.157	2043.19
741.342	2030.9
741.528	2010.42
741.713	2057.53
741.898	1930.55
742.084	2010.42
742.269	2108.73
742.454	1969.46
742.639	1893.69
742.824	1944.89
743.01	1994.04
743.195	2053.43
743.38	1869.11
743.565	1985.85
743.75	1975.61
743.935	1955.13
744.12	2006.33
744.305	1963.32
744.49	1981.75
744.675	1916.22
744.86	1994.04
745.045	1951.03
745.23	1772.86
745.415	1932.6
745.6	1932.6
745.785	1963.32
745.97	1885.5
746.155	1922.36
746.34	1867.06
746.525	1795.39
746.71	1852.73
746.895	1840.44
747.079	1779
747.264	1813.82
747.449	1793.34
747.634	1805.63
747.819	1813.82
748.003	1652.03
748.188	1801.53
748.373	1832.25
748.557	1762.62
748.742	1756.47
748.927	1764.67
749.111	1729.85
749.296	1725.75
749.481	1692.99
749.665	1662.27
749.85	1707.32
750.034	1617.21
750.219	1688.89
750.404	1709.37
750.588	1703.23
750.773	1574.21
750.957	1641.79
751.141	1649.98
751.326	1588.54
751.51	1545.53
751.695	1447.23
751.879	1533.25
752.064	1652.03
752.248	1594.68
752.432	1635.64
752.617	1510.72
752.801	1559.87
752.985	1510.72
753.17	1492.29
753.354	1467.71
753.538	1557.82
753.722	1404.22
753.907	1484.09
754.091	1447.23
754.275	1482.05
754.459	1420.61
754.643	1461.57
754.828	1420.61
755.012	1396.03
755.196	1400.13
755.38	1459.52
755.564	1318.21
755.748	1297.73
755.932	1363.26
756.116	1312.07
756.3	1334.59
756.484	1293.63
756.668	1285.44
756.852	1312.07
757.036	1279.3
757.22	1273.15
757.404	1197.38
757.588	1346.88
757.772	1242.43
757.956	1324.35
758.14	1246.53
758.323	1275.2
758.507	1215.81
758.691	1264.96
758.875	1254.72
759.059	1271.11
759.242	1174.85
759.426	1164.61
759.61	1176.9
759.794	1140.04
759.977	1115.46
760.161	1195.33
760.345	1129.8
760.528	1217.86
760.712	1207.62
760.895	1111.36
761.079	1252.67
761.263	1047.88
761.446	1094.98
761.63	1117.51
761.813	1176.9
761.997	1074.5
762.18	1062.21
762.364	1101.12
762.547	1066.31
762.731	1131.84
762.914	980.29
763.098	1051.97
763.281	1037.64
763.464	1056.07
763.648	1023.3
763.831	1066.31
764.015	992.58
764.198	1062.21
764.381	1017.16
764.564	974.15
764.748	1115.46
764.931	1117.51
765.114	939.33
765.297	1045.83
765.481	968.01
765.664	1027.4
765.847	1043.78
766.03	1039.69
766.213	1015.11
766.397	963.91
766.58	968.01
766.763	1037.64
766.946	957.77
767.129	947.53
767.312	968.01
767.495	1031.49
767.678	933.19
767.861	1004.87
768.044	1004.87
768.227	976.2
768.41	1031.49
768.593	998.73
768.776	980.29
768.959	1033.54
769.142	910.66
769.324	939.33
769.507	920.9
769.69	902.47
769.873	939.33
770.056	900.42
770.239	961.86
770.421	965.96
770.604	990.53
770.787	912.71
770.97	935.24
771.152	918.86
771.335	800.07
771.518	890.18
771.7	855.37
771.883	853.32
772.066	863.56
772.248	773.45
772.431	798.03
772.613	931.14
772.796	802.12
772.978	861.51
773.161	904.52
773.343	859.46
773.526	853.32
773.708	822.6
773.891	855.37
774.073	765.26
774.256	750.92
774.438	828.74
774.621	748.87
774.803	933.19
774.985	830.79
775.168	757.07
775.35	775.5
775.532	775.5
775.715	738.63
775.897	722.25
776.079	724.3
776.261	791.88
776.444	693.58
776.626	724.3
776.808	763.21
776.99	714.06
777.173	685.39
777.355	699.72
777.537	726.35
777.719	724.3
777.901	730.44
778.083	689.48
778.265	638.28
778.447	654.67
778.629	709.96
778.811	673.1
778.993	675.15
779.175	699.72
779.357	689.48
779.539	632.14
779.721	626
779.903	646.48
780.085	595.28
780.267	630.09
780.449	585.04
780.631	646.48
780.812	601.42
780.994	707.91
781.176	609.61
781.358	658.76
781.54	570.7
781.721	662.86
781.903	630.09
782.085	599.37
782.267	585.04
782.448	619.85
782.63	503.12
782.812	507.21
782.993	632.14
783.175	580.94
783.357	558.41
783.538	558.41
783.72	578.89
783.901	429.39
784.083	537.93
784.264	468.3
784.446	503.12
784.627	503.12
784.809	503.12
784.99	496.97
785.172	484.69
785.353	478.54
785.535	458.06
785.716	484.69
785.897	443.73
786.079	464.21
786.26	546.12
786.441	470.35
786.623	404.82
786.804	460.11
786.985	431.44
787.167	355.66
787.348	408.91
787.529	533.84
787.71	572.75
787.891	402.77
788.073	496.97
788.254	445.77
788.435	480.59
788.616	468.3
788.797	410.96
788.978	394.58
789.159	374.1
789.34	425.29
789.522	347.47
789.703	380.24
789.884	372.05
790.065	388.43
790.246	474.45
790.427	396.62
790.607	384.34
790.788	351.57
790.969	304.46
791.15	390.48
791.331	396.62
791.512	394.58
791.693	386.38
791.874	433.49
792.054	312.66
792.235	476.49
792.416	318.8
792.597	296.27
792.778	355.66
792.958	400.72
793.139	359.76
793.32	298.32
793.5	304.46
793.681	318.8
793.862	353.62
794.042	370
794.223	320.85
794.404	349.52
794.584	279.89
794.765	306.51
794.945	296.27
795.126	367.95
795.306	312.66
795.487	290.13
795.667	224.59
795.848	361.81
796.028	238.93
796.209	288.08
796.389	331.09
796.57	263.51
796.75	283.98
796.93	329.04
797.111	281.94
797.291	349.52
797.471	302.42
797.652	247.12
797.832	314.7
798.012	322.9
798.192	329.04
798.373	218.45
798.553	349.52
798.733	331.09
798.913	226.64
799.093	290.13
799.274	263.51
799.454	251.22
799.634	226.64
799.814	306.51
799.994	251.22
800.174	290.13
800.354	271.7
800.534	208.21
800.714	206.16
800.894	294.22
801.074	304.46
801.254	253.27
801.434	230.74
801.614	257.36
801.794	236.88
801.974	732.49
802.154	263.51
802.334	273.75
802.514	277.84
802.693	183.63
802.873	267.6
803.053	322.9
803.233	185.68
803.413	263.51
803.592	277.84
803.772	216.4
803.952	251.22
804.131	159.06
804.311	238.93
804.491	288.08
804.67	222.55
804.85	263.51
805.03	320.85
805.209	238.93
805.389	263.51
805.568	226.64
805.748	253.27
805.928	216.4
806.107	189.78
806.287	228.69
806.466	232.79
806.646	218.45
806.825	157.01
807.004	197.97
807.184	230.74
807.363	269.65
807.543	218.45
807.722	195.92
807.901	259.41
808.081	214.35
808.26	77.14
808.439	130.39
808.619	214.35
808.798	165.2
808.977	197.97
809.156	259.41
809.336	118.1
809.515	271.7
809.694	163.15
809.873	173.39
810.052	263.51
810.231	97.62
810.411	191.83
810.59	224.59
810.769	136.53
810.948	257.36
811.127	212.31
811.306	148.82
811.485	230.74
811.664	240.98
811.843	165.2
812.022	247.12
812.201	200.02
812.38	247.12
812.559	200.02
812.737	130.39
812.916	148.82
813.095	140.63
813.274	126.29
813.453	134.48
813.632	148.82
813.811	200.02
813.989	27.99
814.168	171.35
814.347	175.44
814.526	243.03
814.704	259.41
814.883	218.45
815.062	146.77
815.24	130.39
815.419	105.81
815.598	126.29
815.776	136.53
815.955	138.58
816.133	66.9
816.312	107.86
816.49	169.3
816.669	126.29
816.847	140.63
817.026	208.21
817.204	89.43
817.383	185.68
817.561	128.34
817.74	152.91
817.918	138.58
818.097	144.72
818.275	89.43
818.453	124.24
818.632	157.01
818.81	134.48
818.988	107.86
819.167	150.87
819.345	124.24
819.523	116.05
819.701	95.57
819.879	202.07
820.058	150.87
820.236	189.78
820.414	118.1
820.592	159.06
820.77	124.24
820.948	142.68
821.127	118.1
821.305	60.76
821.483	146.77
821.661	134.48
821.839	128.34
822.017	73.04
822.195	42.32
822.373	167.25
822.551	134.48
822.729	91.48
822.907	130.39
823.085	77.14
823.262	171.35
823.44	105.81
823.618	93.52
823.796	101.72
823.974	66.9
824.152	107.86
824.329	171.35
824.507	136.53
824.685	97.62
824.863	128.34
825.04	122.2
825.218	218.45
825.396	93.52
825.574	99.67
825.751	83.28
825.929	159.06
826.107	66.9
826.284	83.28
826.462	77.14
826.639	132.44
826.817	91.48
826.994	56.66
827.172	116.05
827.349	189.78
827.527	150.87
827.704	81.24
827.882	111.96
828.059	173.39
828.237	54.61
828.414	36.18
828.591	77.14
828.769	107.86
828.946	11.61
829.124	148.82
829.301	124.24
829.478	130.39
829.655	134.48
829.833	83.28
830.01	62.8
830.187	68.95
830.364	11.61
830.542	138.58
830.719	126.29
830.896	101.72
831.073	38.23
831.25	146.77
831.427	85.33
831.604	85.33
831.782	68.95
831.959	101.72
832.136	30.04
832.313	91.48
832.49	91.48
832.667	136.53
832.844	157.01
833.021	114
833.198	62.8
833.374	71
833.551	62.8
833.728	68.95
833.905	111.96
834.082	89.43
834.259	118.1
834.436	132.44
834.612	68.95
834.789	150.87
834.966	95.57
835.143	62.8
835.319	107.86
835.496	95.57
835.673	30.04
835.85	50.52
836.026	144.72
836.203	116.05
836.38	116.05
836.556	111.96
836.733	11.61
836.909	93.52
837.086	50.52
837.262	40.28
837.439	79.19
837.616	27.99
837.792	91.48
837.968	114
838.145	-15.02
838.321	54.61
838.498	40.28
838.674	50.52
838.851	23.89
839.027	97.62
839.203	40.28
839.38	36.18
839.556	17.75
839.732	91.48
839.909	107.86
840.085	83.28
840.261	60.76
840.437	38.23
840.614	124.24
840.79	48.47
840.966	46.42
841.142	97.62
841.318	-2.73
841.494	83.28
841.671	54.61
841.847	17.75
842.023	54.61
842.199	101.72
842.375	27.99
842.551	32.08
842.727	44.37
842.903	109.91
843.079	34.13
843.255	32.08
843.431	46.42
843.607	21.84
843.783	23.89
843.959	87.38
844.134	91.48
844.31	95.57
844.486	23.89
844.662	56.66
844.838	13.65
845.013	97.62
845.189	66.9
845.365	-27.31
845.541	68.95
845.716	52.56
845.892	66.9
846.068	60.76
846.244	-23.21
846.419	75.09
846.595	66.9
846.77	25.94
846.946	97.62
847.122	46.42
847.297	83.28
847.473	103.76
847.648	-27.31
847.824	-2.73
847.999	-6.83
848.175	7.51
848.35	95.57
848.526	101.72
848.701	34.13
848.876	109.91
849.052	34.13
849.227	77.14
849.403	56.66
849.578	79.19
849.753	46.42
849.929	103.76
850.104	54.61
850.279	7.51
850.454	58.71
850.63	52.56
850.805	77.14
850.98	32.08
851.155	73.04
851.33	75.09
851.505	40.28
851.681	75.09
851.856	95.57
852.031	79.19
852.206	32.08
852.381	-6.83
852.556	-55.98
852.731	34.13
852.906	66.9
853.081	73.04
853.256	73.04
853.431	11.61
853.606	-37.55
853.781	3.41
853.956	-39.59
854.131	71
854.305	7.51
854.48	52.56
854.655	107.86
854.83	11.61
855.005	3.41
855.18	32.08
855.354	77.14
855.529	73.04
855.704	23.89
855.879	44.37
856.053	52.56
856.228	44.37
856.403	54.61
856.577	32.08
856.752	23.89
856.926	52.56
857.101	85.33
857.276	17.75
857.45	-15.02
857.625	5.46
857.799	17.75
857.974	46.42
858.148	36.18
858.323	50.52
858.497	-21.16
858.672	46.42
858.846	34.13
859.02	34.13
859.195	77.14
859.369	36.18
859.543	81.24
859.718	36.18
859.892	-6.83
860.066	42.32
860.241	-29.35
860.415	66.9
860.589	25.94
860.763	32.08
860.938	-6.83
861.112	27.99
861.286	17.75
861.46	87.38
861.634	-23.21
861.808	21.84
861.982	46.42
862.157	1.37
862.331	7.51
862.505	85.33
862.679	11.61
862.853	-12.97
863.027	-8.87
863.201	58.71
863.375	-64.17
863.549	23.89
863.722	73.04
863.896	34.13
864.07	40.28
864.244	-6.83
864.418	111.96
864.592	71
864.766	-2.73
864.939	62.8
865.113	19.8
865.287	-33.45
865.461	19.8
865.634	7.51
865.808	17.75
865.982	13.65
866.156	56.66
866.329	95.57
866.503	-21.16
866.676	1.37
866.85	-35.5
867.024	52.56
867.197	73.04
867.371	75.09
867.544	56.66
867.718	-29.35
867.891	15.7
868.065	1.37
868.238	32.08
868.412	109.91
868.585	54.61
868.759	-4.78
868.932	75.09
869.105	-0.68
869.279	3.41
869.452	66.9
869.625	44.37
869.799	-17.07
869.972	1.37
870.145	50.52
870.319	114
870.492	-6.83
870.665	30.04
870.838	-0.68
871.011	-84.65
871.185	38.23
871.358	68.95
871.531	-4.78
871.704	48.47
871.877	19.8
872.05	58.71
872.223	-53.93
872.396	17.75
872.569	52.56
872.742	44.37
872.915	71
873.088	17.75
873.261	52.56
873.434	17.75
873.607	7.51
873.78	48.47
873.953	9.56
874.126	-15.02
874.299	52.56
874.471	-15.02
874.644	-47.79
874.817	42.32
874.99	68.95
875.163	-8.87
875.335	-15.02
875.508	9.56
875.681	64.85
875.853	-23.21
876.026	132.44
876.199	-2.73
876.371	56.66
876.544	52.56
876.717	-4.78
876.889	-25.26
877.062	36.18
877.234	-8.87
877.407	5.46
877.579	1.37
877.752	46.42
877.924	75.09
878.097	1.37
878.269	11.61
878.442	27.99
878.614	54.61
878.786	50.52
878.959	27.99
879.131	-19.11
879.303	-33.45
879.476	-49.83
879.648	-6.83
879.82	44.37
879.993	34.13
880.165	13.65
880.337	-51.88
880.509	5.46
880.681	-6.83
880.854	-39.59
881.026	-0.68
881.198	40.28
881.37	1.37
881.542	-27.31
881.714	-33.45
881.886	-21.16
882.058	21.84
882.23	38.23
882.402	23.89
882.574	-19.11
882.746	32.08
882.918	58.71
883.09	17.75
883.262	-6.83
883.434	-47.79
883.606	91.48
883.778	-39.59
883.95	17.75
884.122	-19.11
884.293	34.13
884.465	17.75
884.637	73.04
884.809	-10.92
884.98	3.41
885.152	-25.26
885.324	66.9
885.496	-2.73
885.667	25.94
885.839	-12.97
886.011	25.94
886.182	-25.26
886.354	-43.69
886.525	-15.02
886.697	89.43
886.869	27.99
887.04	30.04
887.212	79.19
887.383	60.76
887.555	17.75
887.726	-4.78
887.897	-10.92
888.069	11.61
888.24	-12.97
888.412	25.94
888.583	36.18
888.754	11.61
888.926	-49.83
889.097	50.52
889.268	-53.93
889.44	62.8
889.611	11.61
889.782	-60.07
889.953	3.41
890.125	-2.73
890.296	-25.26
890.467	-66.22
890.638	50.52
890.809	54.61
890.98	-47.79
891.151	-49.83
891.323	23.89
891.494	-31.4
891.665	50.52
891.836	-10.92
892.007	32.08
892.178	-23.21
892.349	44.37
892.52	17.75
892.691	25.94
892.862	-10.92
893.032	-10.92
893.203	30.04
893.374	34.13
893.545	71
893.716	-2.73
893.887	17.75
894.057	-31.4
894.228	48.47
894.399	52.56
894.57	77.14
894.74	60.76
894.911	5.46
895.082	25.94
895.253	-0.68
895.423	-6.83
895.594	17.75
895.764	66.9
895.935	52.56
896.106	19.8
896.276	-19.11
896.447	9.56
896.617	-0.68
896.788	-2.73
896.958	3.41
897.129	17.75
897.299	19.8
897.47	46.42
897.64	17.75
897.81	27.99
897.981	27.99
898.151	-43.69
898.322	11.61
898.492	21.84
898.662	-27.31
898.832	-43.69
899.003	-23.21
899.173	-6.83
899.343	1.37
899.513	19.8
