Data from USB4F104151__63__13-11-59-376.txt Node

Date: Fri Mar 14 13:11:59 EDT 2025
User: louis
Spectrometer: USB4F10415
Trigger mode: 4
Integration Time (sec): 2.000000E-2
Scans to average: 1
Electric dark correction enabled: true
Nonlinearity correction enabled: false
Boxcar width: 0
XAxis mode: Wavelengths
Number of Pixels in Spectrum: 3648
>>>>>Begin Spectral Data<<<<<
178.204	-19.46
178.424	-19.46
178.644	-19.46
178.864	-164.86
179.084	-103.42
179.304	-39.94
179.524	-23.55
179.744	-5.12
179.964	60.42
180.184	17.41
180.404	5.12
180.624	-21.5
180.844	52.22
181.064	-33.79
181.283	44.03
181.503	-23.55
181.723	-31.74
181.943	-13.31
182.163	70.65
182.383	50.18
182.602	78.85
182.822	-7.17
183.042	7.17
183.262	5.12
183.482	19.46
183.701	48.13
183.921	58.37
184.141	-17.41
184.361	-7.17
184.58	-1.02
184.8	3.07
185.02	72.7
185.239	1.02
185.459	27.65
185.679	50.18
185.898	-5.12
186.118	68.61
186.338	74.75
186.557	54.27
186.777	19.46
186.997	13.31
187.216	13.31
187.436	27.65
187.655	74.75
187.875	130.05
188.095	39.94
188.314	-1.02
188.534	111.61
188.753	25.6
188.973	-11.26
189.192	66.56
189.412	-5.12
189.631	3.07
189.851	111.61
190.07	68.61
190.29	-9.22
190.509	99.33
190.729	87.04
190.948	117.76
191.168	117.76
191.387	91.13
191.607	68.61
191.826	138.24
192.045	84.99
192.265	31.74
192.484	44.03
192.704	84.99
192.923	33.79
193.142	54.27
193.362	23.55
193.581	64.51
193.8	48.13
194.02	87.04
194.239	70.65
194.458	56.32
194.678	-37.89
194.897	-3.07
195.116	111.61
195.335	-19.46
195.555	50.18
195.774	54.27
195.993	-9.22
196.212	-3.07
196.432	39.94
196.651	-3.07
196.87	1.02
197.089	103.42
197.308	50.18
197.528	48.13
197.747	58.37
197.966	29.7
198.185	138.24
198.404	50.18
198.623	11.26
198.842	31.74
199.062	68.61
199.281	91.13
199.5	9.22
199.719	72.7
199.938	37.89
200.157	35.84
200.376	3.07
200.595	31.74
200.814	-74.75
201.033	13.31
201.252	72.7
201.471	39.94
201.69	9.22
201.909	54.27
202.128	-21.5
202.347	46.08
202.566	66.56
202.785	-29.7
203.004	-3.07
203.223	84.99
203.442	-29.7
203.661	31.74
203.879	70.65
204.098	46.08
204.317	-23.55
204.536	-3.07
204.755	54.27
204.974	23.55
205.193	52.22
205.411	70.65
205.63	-5.12
205.849	15.36
206.068	5.12
206.287	-11.26
206.505	62.46
206.724	21.5
206.943	23.55
207.162	-19.46
207.381	-11.26
207.599	60.42
207.818	19.46
208.037	29.7
208.255	-3.07
208.474	109.57
208.693	107.52
208.911	44.03
209.13	37.89
209.349	54.27
209.567	27.65
209.786	87.04
210.005	70.65
210.223	84.99
210.442	89.09
210.661	74.75
210.879	9.22
211.098	-44.03
211.316	27.65
211.535	29.7
211.753	89.09
211.972	35.84
212.191	25.6
212.409	74.75
212.628	-5.12
212.846	68.61
213.065	89.09
213.283	60.42
213.502	23.55
213.72	23.55
213.938	56.32
214.157	5.12
214.375	93.18
214.594	-37.89
214.812	48.13
215.031	89.09
215.249	33.79
215.467	-7.17
215.686	109.57
215.904	5.12
216.122	64.51
216.341	35.84
216.559	15.36
216.778	9.22
216.996	21.5
217.214	44.03
217.432	109.57
217.651	-33.79
217.869	70.65
218.087	41.98
218.306	37.89
218.524	37.89
218.742	64.51
218.96	68.61
219.179	9.22
219.397	-13.31
219.615	123.9
219.833	-7.17
220.051	7.17
220.27	46.08
220.488	119.81
220.706	48.13
220.924	-25.6
221.142	19.46
221.36	31.74
221.578	62.46
221.796	25.6
222.015	17.41
222.233	29.7
222.451	132.09
222.669	25.6
222.887	41.98
223.105	-19.46
223.323	21.5
223.541	-13.31
223.759	31.74
223.977	-5.12
224.195	27.65
224.413	31.74
224.631	19.46
224.849	50.18
225.067	103.42
225.285	44.03
225.503	62.46
225.721	-29.7
225.939	50.18
226.157	21.5
226.375	54.27
226.592	-41.98
226.81	39.94
227.028	27.65
227.246	35.84
227.464	35.84
227.682	1.02
227.9	56.32
228.117	35.84
228.335	3.07
228.553	64.51
228.771	76.8
228.989	31.74
229.206	17.41
229.424	25.6
229.642	-29.7
229.86	72.7
230.077	84.99
230.295	23.55
230.513	-1.02
230.731	17.41
230.948	64.51
231.166	97.28
231.384	105.47
231.601	15.36
231.819	76.8
232.037	11.26
232.254	37.89
232.472	29.7
232.689	-1.02
232.907	17.41
233.125	13.31
233.342	50.18
233.56	-33.79
233.777	23.55
233.995	-25.6
234.213	87.04
234.43	68.61
234.648	-39.94
234.865	44.03
235.083	29.7
235.3	-1.02
235.518	31.74
235.735	68.61
235.953	95.23
236.17	13.31
236.388	-11.26
236.605	-1.02
236.822	29.7
237.04	56.32
237.257	142.33
237.475	27.65
237.692	17.41
237.909	103.42
238.127	-13.31
238.344	-3.07
238.562	74.75
238.779	-50.18
238.996	-44.03
239.214	50.18
239.431	68.61
239.648	21.5
239.865	41.98
240.083	17.41
240.3	-19.46
240.517	21.5
240.735	-35.84
240.952	-1.02
241.169	76.8
241.386	44.03
241.603	-29.7
241.821	-15.36
242.038	9.22
242.255	23.55
242.472	91.13
242.689	48.13
242.907	19.46
243.124	76.8
243.341	52.22
243.558	58.37
243.775	29.7
243.992	21.5
244.209	-13.31
244.426	70.65
244.643	101.37
244.86	-9.22
245.078	64.51
245.295	19.46
245.512	113.66
245.729	-9.22
245.946	60.42
246.163	-29.7
246.38	74.75
246.597	5.12
246.814	76.8
247.031	25.6
247.248	19.46
247.464	60.42
247.681	-21.5
247.898	50.18
248.115	105.47
248.332	-64.51
248.549	13.31
248.766	179.2
248.983	15.36
249.2	21.5
249.417	56.32
249.633	41.98
249.85	29.7
250.067	-5.12
250.284	13.31
250.501	52.22
250.717	11.26
250.934	-5.12
251.151	35.84
251.368	44.03
251.585	11.26
251.801	29.7
252.018	21.5
252.235	105.47
252.451	1.02
252.668	15.36
252.885	99.33
253.102	41.98
253.318	17.41
253.535	-58.37
253.752	50.18
253.968	64.51
254.185	39.94
254.401	44.03
254.618	-11.26
254.835	-33.79
255.051	31.74
255.268	70.65
255.484	25.6
255.701	29.7
255.917	74.75
256.134	39.94
256.351	41.98
256.567	52.22
256.784	121.85
257	-19.46
257.217	-17.41
257.433	48.13
257.65	33.79
257.866	46.08
258.082	89.09
258.299	11.26
258.515	27.65
258.732	23.55
258.948	56.32
259.165	25.6
259.381	-1.02
259.597	58.37
259.814	33.79
260.03	107.52
260.246	48.13
260.463	70.65
260.679	109.57
260.895	-9.22
261.112	11.26
261.328	44.03
261.544	21.5
261.761	84.99
261.977	1.02
262.193	-19.46
262.409	7.17
262.626	39.94
262.842	52.22
263.058	31.74
263.274	87.04
263.49	-46.08
263.707	68.61
263.923	95.23
264.139	-3.07
264.355	37.89
264.571	111.61
264.787	33.79
265.004	56.32
265.22	101.37
265.436	-9.22
265.652	-56.32
265.868	23.55
266.084	56.32
266.3	1.02
266.516	-3.07
266.732	25.6
266.948	11.26
267.164	37.89
267.38	17.41
267.596	52.22
267.812	29.7
268.028	-3.07
268.244	-35.84
268.46	13.31
268.676	35.84
268.892	21.5
269.108	31.74
269.324	-29.7
269.54	-9.22
269.756	91.13
269.972	-7.17
270.188	64.51
270.403	-21.5
270.619	29.7
270.835	44.03
271.051	15.36
271.267	19.46
271.483	50.18
271.698	60.42
271.914	35.84
272.13	23.55
272.346	11.26
272.562	48.13
272.777	70.65
272.993	39.94
273.209	3.07
273.425	74.75
273.64	66.56
273.856	56.32
274.072	66.56
274.287	21.5
274.503	142.33
274.719	82.94
274.934	76.8
275.15	-44.03
275.366	-9.22
275.581	-1.02
275.797	87.04
276.012	25.6
276.228	44.03
276.444	17.41
276.659	121.85
276.875	9.22
277.09	48.13
277.306	48.13
277.521	44.03
277.737	-39.94
277.952	56.32
278.168	37.89
278.383	15.36
278.599	11.26
278.814	68.61
279.03	25.6
279.245	93.18
279.461	21.5
279.676	35.84
279.892	13.31
280.107	41.98
280.322	-21.5
280.538	48.13
280.753	-9.22
280.969	25.6
281.184	21.5
281.399	87.04
281.615	11.26
281.83	17.41
282.045	-3.07
282.26	3.07
282.476	54.27
282.691	95.23
282.906	1.02
283.122	3.07
283.337	11.26
283.552	101.37
283.767	-13.31
283.983	54.27
284.198	13.31
284.413	52.22
284.628	7.17
284.843	11.26
285.058	19.46
285.274	5.12
285.489	-3.07
285.704	109.57
285.919	136.19
286.134	11.26
286.349	11.26
286.564	35.84
286.779	56.32
286.995	21.5
287.21	15.36
287.425	19.46
287.64	54.27
287.855	35.84
288.07	15.36
288.285	56.32
288.5	23.55
288.715	119.81
288.93	-27.65
289.145	21.5
289.36	66.56
289.575	5.12
289.79	87.04
290.004	33.79
290.219	50.18
290.434	19.46
290.649	-5.12
290.864	66.56
291.079	29.7
291.294	68.61
291.509	97.28
291.724	-9.22
291.938	56.32
292.153	84.99
292.368	76.8
292.583	72.7
292.798	-19.46
293.012	44.03
293.227	78.85
293.442	-11.26
293.657	33.79
293.871	35.84
294.086	-1.02
294.301	70.65
294.516	46.08
294.73	56.32
294.945	-35.84
295.16	21.5
295.374	44.03
295.589	-1.02
295.804	-99.33
296.018	44.03
296.233	35.84
296.447	60.42
296.662	-25.6
296.877	89.09
297.091	1.02
297.306	29.7
297.52	17.41
297.735	111.61
297.949	23.55
298.164	35.84
298.378	-9.22
298.593	-48.13
298.807	48.13
299.022	72.7
299.236	91.13
299.451	41.98
299.665	23.55
299.88	23.55
300.094	-35.84
300.309	5.12
300.523	56.32
300.737	72.7
300.952	27.65
301.166	-21.5
301.381	-13.31
301.595	60.42
301.809	27.65
302.024	3.07
302.238	3.07
302.452	107.52
302.667	7.17
302.881	54.27
303.095	58.37
303.309	68.61
303.524	21.5
303.738	-33.79
303.952	19.46
304.166	11.26
304.381	-50.18
304.595	19.46
304.809	-15.36
305.023	35.84
305.237	21.5
305.452	17.41
305.666	56.32
305.88	74.75
306.094	80.89
306.308	64.51
306.522	41.98
306.736	-31.74
306.95	-3.07
307.164	52.22
307.379	9.22
307.593	70.65
307.807	56.32
308.021	56.32
308.235	29.7
308.449	35.84
308.663	29.7
308.877	60.42
309.091	27.65
309.305	-50.18
309.519	13.31
309.733	41.98
309.947	-3.07
310.161	-7.17
310.374	11.26
310.588	27.65
310.802	44.03
311.016	35.84
311.23	56.32
311.444	50.18
311.658	50.18
311.872	3.07
312.085	15.36
312.299	76.8
312.513	87.04
312.727	50.18
312.941	-27.65
313.154	-33.79
313.368	93.18
313.582	21.5
313.796	35.84
314.009	23.55
314.223	76.8
314.437	44.03
314.651	58.37
314.864	11.26
315.078	60.42
315.292	54.27
315.505	66.56
315.719	52.22
315.933	56.32
316.146	35.84
316.36	-21.5
316.573	84.99
316.787	140.29
317.001	-39.94
317.214	31.74
317.428	39.94
317.641	19.46
317.855	60.42
318.068	23.55
318.282	23.55
318.495	46.08
318.709	87.04
318.922	123.9
319.136	52.22
319.349	115.71
319.563	-15.36
319.776	64.51
319.99	17.41
320.203	29.7
320.417	-5.12
320.63	70.65
320.843	128
321.057	82.94
321.27	125.95
321.483	78.85
321.697	84.99
321.91	25.6
322.124	117.76
322.337	19.46
322.55	37.89
322.763	35.84
322.977	35.84
323.19	-3.07
323.403	84.99
323.617	-21.5
323.83	37.89
324.043	44.03
324.256	52.22
324.469	-3.07
324.683	54.27
324.896	23.55
325.109	70.65
325.322	56.32
325.535	113.66
325.748	93.18
325.962	31.74
326.175	21.5
326.388	66.56
326.601	-3.07
326.814	15.36
327.027	58.37
327.24	89.09
327.453	23.55
327.666	46.08
327.879	39.94
328.092	136.19
328.305	56.32
328.518	39.94
328.731	-25.6
328.944	-25.6
329.157	78.85
329.37	72.7
329.583	62.46
329.796	78.85
330.009	56.32
330.222	48.13
330.435	91.13
330.648	17.41
330.861	17.41
331.073	3.07
331.286	5.12
331.499	50.18
331.712	1.02
331.925	-31.74
332.138	60.42
332.35	17.41
332.563	29.7
332.776	7.17
332.989	7.17
333.202	50.18
333.414	-29.7
333.627	3.07
333.84	80.89
334.053	72.7
334.265	35.84
334.478	27.65
334.691	54.27
334.903	68.61
335.116	15.36
335.329	44.03
335.541	105.47
335.754	31.74
335.966	-44.03
336.179	13.31
336.392	7.17
336.604	21.5
336.817	60.42
337.029	25.6
337.242	21.5
337.454	35.84
337.667	52.22
337.88	21.5
338.092	19.46
338.305	125.95
338.517	93.18
338.729	76.8
338.942	72.7
339.154	50.18
339.367	-23.55
339.579	150.53
339.792	-15.36
340.004	31.74
340.217	19.46
340.429	125.95
340.641	52.22
340.854	1.02
341.066	-19.46
341.278	50.18
341.491	87.04
341.703	41.98
341.915	35.84
342.128	97.28
342.34	33.79
342.552	66.56
342.764	31.74
342.977	48.13
343.189	60.42
343.401	27.65
343.613	7.17
343.826	62.46
344.038	46.08
344.25	15.36
344.462	128
344.674	72.7
344.886	-3.07
345.099	76.8
345.311	119.81
345.523	80.89
345.735	11.26
345.947	64.51
346.159	152.57
346.371	-60.42
346.583	17.41
346.795	72.7
347.007	72.7
347.219	15.36
347.431	19.46
347.643	84.99
347.855	48.13
348.067	60.42
348.279	27.65
348.491	87.04
348.703	5.12
348.915	39.94
349.127	35.84
349.339	-27.65
349.551	-23.55
349.763	117.76
349.975	111.61
350.187	50.18
350.399	76.8
350.61	99.33
350.822	19.46
351.034	54.27
351.246	-5.12
351.458	70.65
351.669	19.46
351.881	48.13
352.093	70.65
352.305	39.94
352.517	7.17
352.728	74.75
352.94	48.13
353.152	70.65
353.363	62.46
353.575	95.23
353.787	101.37
353.999	74.75
354.21	68.61
354.422	27.65
354.633	84.99
354.845	9.22
355.057	1.02
355.268	37.89
355.48	-1.02
355.692	56.32
355.903	76.8
356.115	23.55
356.326	11.26
356.538	-37.89
356.749	60.42
356.961	142.33
357.172	23.55
357.384	78.85
357.595	39.94
357.807	7.17
358.018	84.99
358.23	27.65
358.441	78.85
358.653	27.65
358.864	74.75
359.075	1.02
359.287	56.32
359.498	113.66
359.709	29.7
359.921	-13.31
360.132	54.27
360.344	23.55
360.555	-15.36
360.766	70.65
360.977	33.79
361.189	99.33
361.4	70.65
361.611	11.26
361.823	115.71
362.034	76.8
362.245	-9.22
362.456	13.31
362.667	109.57
362.879	64.51
363.09	-9.22
363.301	72.7
363.512	21.5
363.723	-9.22
363.935	44.03
364.146	41.98
364.357	-1.02
364.568	158.72
364.779	37.89
364.99	74.75
365.201	17.41
365.412	54.27
365.623	-11.26
365.834	48.13
366.045	48.13
366.256	41.98
366.467	64.51
366.678	89.09
366.889	37.89
367.1	37.89
367.311	11.26
367.522	15.36
367.733	117.76
367.944	17.41
368.155	3.07
368.366	27.65
368.577	128
368.788	95.23
368.999	-3.07
369.209	58.37
369.42	148.48
369.631	103.42
369.842	60.42
370.053	13.31
370.264	89.09
370.474	31.74
370.685	31.74
370.896	-3.07
371.107	68.61
371.317	50.18
371.528	25.6
371.739	62.46
371.95	60.42
372.16	60.42
372.371	9.22
372.582	60.42
372.792	31.74
373.003	101.37
373.214	23.55
373.424	56.32
373.635	-13.31
373.846	84.99
374.056	35.84
374.267	119.81
374.477	103.42
374.688	93.18
374.898	54.27
375.109	50.18
375.319	76.8
375.53	29.7
375.74	60.42
375.951	35.84
376.161	5.12
376.372	142.33
376.582	29.7
376.793	91.13
377.003	39.94
377.214	68.61
377.424	46.08
377.635	54.27
377.845	80.89
378.055	41.98
378.266	-7.17
378.476	46.08
378.686	44.03
378.897	142.33
379.107	64.51
379.317	62.46
379.528	46.08
379.738	84.99
379.948	60.42
380.158	39.94
380.369	46.08
380.579	48.13
380.789	52.22
380.999	50.18
381.21	3.07
381.42	117.76
381.63	50.18
381.84	72.7
382.05	78.85
382.261	56.32
382.471	76.8
382.681	48.13
382.891	95.23
383.101	64.51
383.311	48.13
383.521	76.8
383.731	62.46
383.941	54.27
384.151	46.08
384.361	23.55
384.571	29.7
384.781	64.51
384.991	46.08
385.201	-21.5
385.411	76.8
385.621	19.46
385.831	93.18
386.041	60.42
386.251	27.65
386.461	19.46
386.671	50.18
386.881	44.03
387.091	48.13
387.301	80.89
387.511	17.41
387.72	35.84
387.93	31.74
388.14	66.56
388.35	101.37
388.56	31.74
388.769	109.57
388.979	-5.12
389.189	13.31
389.399	64.51
389.609	37.89
389.818	62.46
390.028	15.36
390.238	54.27
390.447	-39.94
390.657	5.12
390.867	27.65
391.076	97.28
391.286	99.33
391.496	89.09
391.705	68.61
391.915	80.89
392.125	68.61
392.334	39.94
392.544	62.46
392.753	93.18
392.963	70.65
393.172	84.99
393.382	23.55
393.591	64.51
393.801	7.17
394.01	44.03
394.22	136.19
394.429	33.79
394.639	46.08
394.848	111.61
395.058	5.12
395.267	54.27
395.477	80.89
395.686	119.81
395.895	84.99
396.105	168.96
396.314	35.84
396.524	11.26
396.733	80.89
396.942	93.18
397.152	121.85
397.361	21.5
397.57	46.08
397.78	107.52
397.989	109.57
398.198	84.99
398.407	37.89
398.617	105.47
398.826	62.46
399.035	154.62
399.244	74.75
399.453	105.47
399.663	132.09
399.872	136.19
400.081	58.37
400.29	113.66
400.499	68.61
400.708	128
400.917	9.22
401.127	117.76
401.336	128
401.545	160.77
401.754	117.76
401.963	72.7
402.172	35.84
402.381	33.79
402.59	150.53
402.799	70.65
403.008	68.61
403.217	89.09
403.426	168.96
403.635	101.37
403.844	146.43
404.053	56.32
404.262	76.8
404.471	148.48
404.68	64.51
404.888	82.94
405.097	109.57
405.306	166.91
405.515	144.38
405.724	93.18
405.933	123.9
406.142	152.57
406.35	158.72
406.559	62.46
406.768	142.33
406.977	160.77
407.185	97.28
407.394	191.49
407.603	132.09
407.812	76.8
408.02	166.91
408.229	95.23
408.438	158.72
408.646	87.04
408.855	142.33
409.064	228.35
409.272	140.29
409.481	197.63
409.69	103.42
409.898	257.02
410.107	230.4
410.315	218.11
410.524	230.4
410.733	228.35
410.941	318.46
411.15	291.84
411.358	257.02
411.567	390.14
411.775	338.94
411.984	302.08
412.192	275.45
412.401	347.13
412.609	287.74
412.818	324.6
413.026	353.27
413.234	330.75
413.443	326.65
413.651	340.99
413.86	355.32
414.068	447.48
414.276	390.14
414.485	429.05
414.693	455.67
414.901	504.82
415.11	437.24
415.318	422.91
415.526	553.98
415.734	594.93
415.943	543.74
416.151	576.5
416.359	637.94
416.567	701.43
416.776	603.13
416.984	584.7
417.192	707.57
417.4	678.9
417.608	691.19
417.817	732.15
418.025	805.88
418.233	836.6
418.441	760.82
418.649	797.68
418.857	883.7
419.065	924.66
419.273	859.12
419.481	814.07
419.689	1096.69
419.897	957.43
420.105	1108.98
420.313	1004.53
420.521	1129.45
420.729	1215.47
420.937	1131.5
421.145	1199.09
421.353	1346.54
421.561	1264.62
421.769	1379.31
421.977	1489.9
422.185	1483.75
422.393	1526.76
422.601	1641.45
422.809	1649.64
423.017	1596.39
423.224	1825.76
423.432	1862.63
423.64	1823.72
423.848	1913.83
424.056	1903.59
424.263	1977.31
424.471	2026.47
424.679	2059.23
424.887	2147.3
425.094	2175.97
425.302	2251.74
425.51	2339.8
425.718	2481.11
425.925	2419.68
426.133	2505.69
426.341	2583.51
426.548	2792.41
426.756	2655.19
426.964	2773.97
427.171	2896.85
427.379	3021.78
427.586	3025.87
427.794	3140.56
428.001	3310.54
428.209	3435.47
428.417	3369.93
428.624	3523.53
428.832	3695.56
429.039	3560.39
429.247	3677.13
429.454	4115.39
429.662	4221.89
429.869	3939.27
430.076	4135.87
430.284	4238.27
430.491	4414.4
430.699	4502.46
430.906	4531.13
431.114	4627.39
431.321	4623.29
431.528	4864.95
431.736	5190.58
431.943	5383.09
432.15	5311.41
432.358	5301.17
432.565	5694.38
432.772	5637.03
432.979	5958.57
433.187	6101.92
433.394	6108.07
433.601	6493.08
433.808	6405.02
434.016	6458.27
434.223	6605.72
434.43	7035.8
434.637	6957.97
434.844	7474.06
435.052	7504.78
435.259	7443.34
435.466	7656.33
435.673	7482.25
435.88	7959.43
436.087	8520.57
436.294	8428.42
436.501	8244.1
436.708	8291.2
436.915	8643.45
437.122	9016.18
437.329	8913.78
437.537	9266.03
437.743	9579.37
437.95	9495.41
438.157	9939.82
438.364	10392.42
438.571	10124.13
438.778	10183.52
438.985	11227.99
439.192	10924.89
439.399	11160.41
439.606	10830.68
439.813	11676.49
440.02	12235.59
440.227	11873.1
440.433	12034.89
440.64	12118.86
440.847	12147.53
441.054	12350.28
441.261	13212.47
441.467	13161.27
441.674	13437.75
441.881	14125.86
442.088	13820.72
442.294	13630.26
442.501	13994.79
442.708	14414.63
442.914	14828.32
443.121	15596.31
443.328	15180.57
443.534	16257.8
443.741	15635.22
443.948	15727.38
444.154	16499.46
444.361	16687.87
444.568	16870.14
444.774	17136.38
444.981	17130.23
445.187	17404.66
445.394	18010.86
445.6	17887.98
445.807	19862.22
446.013	18979.55
446.22	19239.64
446.426	19966.67
446.633	20341.45
446.839	20951.74
447.046	19966.67
447.252	21269.18
447.459	21306.04
447.665	21025.47
447.871	22112.94
448.078	22885.03
448.284	21715.64
448.491	22442.67
448.697	23534.23
448.903	23968.4
449.11	24126.1
449.316	23720.6
449.522	23982.74
449.728	24779.4
449.935	24621.7
450.141	24773.25
450.347	25395.84
450.553	24996.48
450.76	25297.53
450.966	25940.6
451.172	25440.89
451.378	26182.26
451.584	25883.25
451.791	26600.04
451.997	26223.22
452.203	26976.87
452.409	26931.81
452.615	26462.83
452.821	25721.46
453.027	25524.86
453.233	27005.54
453.44	25926.26
453.646	26163.82
453.852	26045.04
454.058	26778.22
454.264	25782.9
454.47	26385.01
454.676	25627.26
454.882	26860.13
455.088	24347.28
455.294	24818.31
455.5	25090.69
455.705	25531
455.911	24521.35
456.117	24093.33
456.323	23751.32
456.529	22377.13
456.735	23534.23
456.941	22645.41
457.147	22399.66
457.352	21738.16
457.558	21381.82
457.764	21539.51
457.97	21125.82
458.176	21015.23
458.381	20845.25
458.587	19696.34
458.793	19589.85
458.999	18569.96
459.204	20191.95
459.41	19524.31
459.616	18320.1
459.821	18359.02
460.027	18084.59
460.233	17814.26
460.438	17050.36
460.644	17124.09
460.85	16452.36
461.055	16063.24
461.261	15993.61
461.466	14797.6
461.672	14537.51
461.878	15379.22
462.083	14388
462.289	13959.98
462.494	14166.82
462.7	13189.94
462.905	13003.58
463.111	13407.03
463.316	13462.32
463.522	13374.26
463.727	13036.35
463.932	13318.96
464.138	12944.19
464.343	13243.19
464.549	12634.94
464.754	13075.26
464.959	12964.67
465.165	12878.65
465.37	12536.64
465.575	12065.61
465.781	12516.16
465.986	12698.43
466.191	12424
466.397	12053.32
466.602	11301.72
466.807	11782.99
467.012	12002.12
467.218	11889.48
467.423	11647.82
467.628	11856.72
467.833	12192.58
468.038	11768.65
468.244	11449.17
468.449	11715.41
468.654	11361.11
468.859	11451.22
469.064	11496.27
469.269	11066.2
469.474	11012.95
469.679	11277.14
469.885	11006.81
470.09	10957.66
470.295	10791.77
470.5	10750.81
470.705	10883.93
470.91	10351.46
471.115	10629.98
471.32	10558.3
471.525	10537.82
471.73	10480.48
471.935	10251.11
472.139	9835.37
472.344	9995.11
472.549	9933.67
472.754	9821.03
472.959	9732.97
473.164	9407.34
473.369	9382.77
473.574	9745.26
473.778	9622.38
473.983	9354.1
474.188	9503.6
474.393	8999.8
474.598	9046.9
474.802	9016.18
475.007	8936.31
475.212	8942.46
475.417	8586.11
475.621	8684.41
475.826	8801.15
476.031	8555.39
476.235	8446.85
476.44	8323.97
476.645	8121.22
476.849	8438.66
477.054	8244.1
477.259	8024.97
477.463	7986.05
477.668	7809.93
477.872	7771.02
478.077	7861.13
478.282	7465.87
478.486	7441.29
478.691	7383.95
478.895	7566.22
479.1	7654.28
479.304	7363.47
479.509	7267.22
479.713	7435.15
479.918	7121.81
480.122	7187.35
480.326	7254.93
480.531	7230.35
480.735	7306.13
480.94	6984.6
481.144	7386
481.348	7048.08
481.553	7027.6
481.757	6861.72
481.961	6904.73
482.166	7140.24
482.37	7084.95
482.574	6931.35
482.778	6990.74
482.983	7078.8
483.187	6908.82
483.391	6976.41
483.595	6970.26
483.8	6775.7
484.004	7021.46
484.208	6972.31
484.412	6996.89
484.616	6912.92
484.821	7037.84
485.025	6861.72
485.229	6990.74
485.433	6943.64
485.637	6931.35
485.841	6765.46
486.045	6919.06
486.249	6982.55
486.453	6812.57
486.657	7039.89
486.861	6851.48
487.065	6884.25
487.269	6978.45
487.473	6839.19
487.677	6921.11
487.881	7015.32
488.085	6968.21
488.289	6943.64
488.493	6828.95
488.697	7183.25
488.901	6874.01
489.105	6947.73
489.309	7093.14
489.512	7093.14
489.716	6914.97
489.92	6890.39
490.124	6947.73
490.328	7236.5
490.531	7087
490.735	7070.61
490.939	7187.35
491.143	7007.13
491.346	7052.18
491.55	7105.43
491.754	7361.42
491.958	7353.23
492.161	7293.84
492.365	7308.18
492.569	7240.59
492.772	7357.33
492.976	7293.84
493.18	7447.44
493.383	7545.74
493.587	7521.17
493.79	7687.05
493.994	7613.32
494.197	7672.71
494.401	7768.97
494.605	7748.49
494.808	7820.17
495.012	7941
495.215	8006.53
495.419	8022.92
495.622	7846.79
495.825	8377.22
496.029	8119.17
496.232	8268.67
496.436	7971.72
496.639	8340.35
496.843	8366.98
497.046	8555.39
497.249	8653.69
497.453	8682.36
497.656	8768.38
497.859	8835.96
498.063	8958.84
498.266	8932.22
498.469	9081.72
498.673	9018.23
498.876	9327.47
499.079	9417.58
499.282	9302.9
499.485	9489.26
499.689	9679.72
499.892	9821.03
500.095	9870.19
500.298	10011.5
500.501	9689.96
500.705	10238.82
500.908	10294.11
501.111	10390.37
501.314	10636.13
501.517	10576.73
501.72	10695.52
501.923	10648.41
502.126	11047.77
502.329	11154.26
502.532	11160.41
502.735	11164.5
502.938	11723.6
503.141	11440.98
503.344	11717.45
503.547	11668.3
503.75	11850.57
503.953	12057.42
504.156	12231.49
504.359	12288.84
504.562	12444.48
504.765	12544.83
504.968	12800.83
505.17	12933.95
505.373	12954.43
505.576	13286.2
505.779	13269.81
505.982	13230.9
506.185	13742.89
506.387	13767.47
506.59	13730.61
506.793	14144.3
506.996	13810.48
507.198	14195.5
507.401	14093.1
507.604	14609.19
507.807	14996.25
508.009	14799.65
508.212	15016.73
508.415	15317.78
508.617	15317.78
508.82	15270.68
509.022	15485.72
509.225	15971.08
509.428	15692.56
509.63	15895.31
509.833	16237.32
510.035	16888.57
510.238	16452.36
510.44	16562.95
510.643	17163
510.845	17033.98
511.048	17046.27
511.25	17427.19
511.453	17494.77
511.655	17980.14
511.858	17724.15
512.06	18031.34
512.262	18057.96
512.465	18197.23
512.667	18354.92
512.87	18801.38
513.072	18725.6
513.274	19274.46
513.477	19413.72
513.679	19493.59
513.881	19708.63
514.084	19729.11
514.286	19778.26
514.488	20284.11
514.69	20499.14
514.893	20744.9
515.095	20847.3
515.297	21007.04
515.499	21361.34
515.701	21199.55
515.904	21686.97
516.106	21625.53
516.308	21826.23
516.51	22407.85
516.712	22186.67
516.914	22483.62
517.116	23118.5
517.318	22567.59
517.52	23442.07
517.722	23243.42
517.925	23452.31
518.127	23902.87
518.329	24011.41
518.531	23710.36
518.733	24122
518.935	24783.49
519.136	24824.45
519.338	25135.74
519.54	25223.81
519.742	25451.13
519.944	25184.9
520.146	25565.82
520.348	26155.63
520.55	26266.22
520.752	26370.67
520.954	26417.77
521.155	26729.06
521.357	27146.85
521.559	27214.43
521.761	27368.03
521.963	27718.23
522.164	27478.62
522.366	27779.67
522.568	28248.66
522.77	28275.28
522.971	28738.12
523.173	28502.61
523.375	28691.02
523.576	28842.57
523.778	28545.61
523.98	29528.64
524.181	29567.55
524.383	29256.26
524.584	30046.77
524.786	29612.6
524.988	29854.26
525.189	30411.31
525.391	30399.02
525.592	30579.25
525.794	30532.14
525.995	30775.85
526.197	30855.72
526.398	30870.06
526.6	31074.85
526.801	31414.82
527.003	31230.5
527.204	31293.99
527.406	31713.82
527.607	31513.12
527.808	32057.88
528.01	31271.46
528.211	31439.39
528.412	32313.87
528.614	32166.42
528.815	32385.55
529.016	32780.81
529.218	32303.64
529.419	32299.54
529.62	32973.32
529.822	32514.58
530.023	32719.37
530.224	32827.92
530.425	33073.67
530.626	32582.16
530.828	32631.31
531.029	33204.74
531.23	33325.57
531.431	33088.01
531.632	32778.76
531.833	33325.57
532.035	33028.62
532.236	33344
532.437	33741.31
532.638	33118.73
532.839	33548.8
533.04	33497.6
533.241	33333.76
533.442	33888.76
533.643	33292.8
533.844	33726.97
534.045	33454.59
534.246	32993.8
534.447	33450.5
534.648	33513.98
534.849	33884.67
535.05	33327.62
535.251	33606.14
535.451	33753.6
535.652	33837.56
535.853	33409.54
536.054	33690.11
536.255	33749.5
536.456	33751.55
536.657	34075.13
536.857	33675.77
537.058	33636.86
537.259	33960.44
537.46	33853.95
537.66	33663.49
537.861	33933.82
538.062	33614.34
538.263	33581.57
538.463	33870.33
538.664	33393.15
538.865	33880.57
539.065	34152.95
539.266	33403.39
539.466	33997.31
539.667	33153.54
539.868	34169.33
540.068	33380.87
540.269	33694.21
540.469	33907.19
540.67	33249.8
540.87	33722.88
541.071	33899
541.271	33769.98
541.472	33561.09
541.672	33696.25
541.873	33640.96
542.073	33153.54
542.274	33862.14
542.474	33655.29
542.675	33333.76
542.875	33948.15
543.075	33518.08
543.276	33395.2
543.476	33802.75
543.676	33458.69
543.877	34011.64
544.077	33905.15
544.277	33432.07
544.478	33444.35
544.678	33348.1
544.878	33161.73
545.078	33493.5
545.279	33329.67
545.479	33503.74
545.679	33444.35
545.879	33407.49
546.079	33647.1
546.28	33108.49
546.48	33389.06
546.68	33362.43
546.88	33016.33
547.08	33163.78
547.28	33327.62
547.48	33149.45
547.68	33157.64
547.88	32922.12
548.081	33681.92
548.281	33188.36
548.481	32915.98
548.681	33470.98
548.881	33352.2
549.081	33243.65
549.28	33042.95
549.48	33419.78
549.68	33303.04
549.88	33720.83
550.08	32858.63
550.28	33270.28
550.48	33335.81
550.68	33161.73
550.88	32885.26
551.08	33321.48
551.279	33143.3
551.479	32836.11
551.679	33260.04
551.879	33171.97
552.079	33268.23
552.278	33128.97
552.478	32918.03
552.678	33196.55
552.878	33229.32
553.077	33112.58
553.277	32553.49
553.477	33382.91
553.676	32932.36
553.876	33309.19
554.076	32342.55
554.275	32768.52
554.475	32586.25
554.674	33001.99
554.874	32924.17
555.074	33004.04
555.273	33010.18
555.473	32995.85
555.672	32676.37
555.872	32746
556.071	32911.88
556.271	33083.91
556.47	32496.14
556.67	32217.62
556.869	32481.81
557.068	32674.32
557.268	32358.93
557.467	32307.73
557.667	32500.24
557.866	32512.53
558.065	31961.62
558.265	32033.3
558.464	31947.29
558.663	32524.82
558.863	32016.92
559.062	32614.93
559.261	31906.33
559.461	32227.86
559.66	31869.47
559.859	31971.86
560.058	31617.57
560.258	31676.96
560.457	31216.16
560.656	32334.35
560.855	31787.55
561.054	31781.4
561.253	31420.96
561.453	31633.95
561.652	31558.17
561.851	31496.74
562.05	31261.22
562.249	30962.22
562.448	31238.69
562.647	31312.42
562.846	31556.13
563.045	31173.16
563.244	31081
563.443	30970.41
563.642	30671.4
563.841	30835.24
564.04	30773.8
564.239	31007.27
564.438	30579.25
564.637	30976.55
564.836	30847.53
565.035	30370.35
565.234	30550.57
565.432	30149.17
565.631	30263.86
565.83	30276.15
566.029	30241.33
566.228	30331.44
566.427	30032.44
566.625	30173.75
566.824	29610.56
567.023	30102.07
567.222	29272.64
567.42	29979.19
567.619	29256.26
567.818	29549.12
568.016	29518.4
568.215	29741.63
568.414	29508.16
568.612	29698.62
568.811	29442.62
569.01	29172.29
569.208	28858.95
569.407	29139.52
569.605	29030.98
569.804	29127.24
570.002	29030.98
570.201	28924.49
570.4	28562
570.598	28533.32
570.797	28809.8
570.995	28666.44
571.193	28217.94
571.392	28402.25
571.59	28250.7
571.789	28037.72
571.987	28097.11
572.186	28328.53
572.384	27642.46
572.582	28123.73
572.781	28123.73
572.979	27562.59
573.177	27562.59
573.376	27744.86
573.574	27490.91
573.772	27654.75
573.971	27005.54
574.169	27060.84
574.367	27181.67
574.565	27408.99
574.763	27214.43
574.962	26901.09
575.16	27069.03
575.358	27066.98
575.556	26567.27
575.754	26618.47
575.952	26368.62
576.151	26808.93
576.349	26342
576.547	26554.99
576.745	26757.74
576.943	26880.61
577.141	26335.85
577.339	26217.07
577.537	26055.28
577.735	26219.12
577.933	25905.78
578.131	26047.09
578.329	26090.1
578.527	25836.15
578.725	26010.23
578.923	25830.01
579.121	25774.71
579.319	25477.76
579.516	25477.76
579.714	25780.85
579.912	25258.62
580.11	25074.31
580.308	25199.23
580.506	25148.03
580.704	25043.59
580.901	24937.09
581.099	24773.25
581.297	24765.06
581.495	25127.55
581.692	25016.96
581.89	24539.79
582.088	24873.6
582.285	24554.12
582.483	24609.42
582.681	24793.73
582.878	24539.79
583.076	24253.07
583.274	24464.01
583.471	23986.83
583.669	24316.56
583.866	23831.19
584.064	24165.01
584.262	23790.23
584.459	24001.17
584.657	23929.49
584.854	23962.26
585.052	23257.76
585.249	23970.45
585.447	23552.66
585.644	23464.6
585.841	23607.96
586.039	23784.09
586.236	23227.04
586.434	23292.57
586.631	23007.9
586.828	23126.69
587.026	23229.09
587.223	23055.01
587.42	22825.64
587.618	23116.45
587.815	22596.26
588.012	22508.2
588.21	22821.54
588.407	22600.36
588.604	22534.82
588.801	22301.36
588.999	22203.05
589.196	22325.93
589.393	22454.95
589.59	22160.05
589.787	22028.98
589.984	22033.07
590.182	22108.85
590.379	22082.22
590.576	21938.87
590.773	22012.59
590.97	21574.33
591.167	21719.73
591.364	21455.54
591.561	21705.4
591.758	21766.84
591.955	21650.1
592.152	21619.38
592.349	21289.66
592.546	21476.02
592.743	21314.23
592.94	21168.83
593.137	21103.29
593.334	21152.45
593.531	20681.41
593.727	20679.36
593.924	20986.56
594.121	20763.33
594.318	20808.39
594.515	20474.57
594.712	20566.73
594.908	20609.73
595.105	20720.32
595.302	20198.09
595.499	20452.04
595.696	20048.59
595.892	20169.42
596.089	20392.65
596.286	20480.71
596.482	20241.1
596.679	20105.93
596.876	19878.61
597.072	19925.71
597.269	19872.46
597.466	19557.08
597.662	19731.15
597.859	19772.11
598.055	19536.6
598.252	19346.14
598.448	19460.82
598.645	19569.37
598.841	19321.56
599.038	19567.32
599.234	19421.91
599.431	19208.92
599.627	19081.95
599.824	19110.62
600.02	18983.65
600.217	19034.85
600.413	18844.38
600.609	18723.55
600.806	18631.4
601.002	18850.53
601.198	18590.44
601.395	18430.69
601.591	18594.53
601.787	18823.9
601.984	18453.22
602.18	18647.78
602.376	18434.79
602.572	18264.81
602.769	18199.27
602.965	18000.62
603.161	18258.67
603.357	17935.09
603.553	18090.73
603.75	17963.76
603.946	17912.56
604.142	17881.84
604.338	17707.76
604.534	17842.93
604.73	17793.78
604.926	17650.42
605.122	17584.88
605.318	17525.49
605.514	17275.64
605.71	17498.87
605.906	17400.57
606.102	17310.46
606.298	17273.59
606.494	17316.6
606.69	17279.74
606.886	17185.53
607.082	16896.77
607.278	17183.48
607.474	16741.12
607.67	17001.21
607.866	16716.54
608.062	17193.72
608.257	16593.67
608.453	16796.42
608.649	16882.43
608.845	16814.85
609.041	16706.31
609.236	16651.01
609.432	16597.76
609.628	16931.58
609.824	16614.15
610.019	16800.51
610.215	16571.14
610.411	16728.83
610.606	16452.36
610.802	16349.96
610.998	16243.46
611.193	16427.78
611.389	16216.84
611.584	16370.44
611.78	16075.53
611.976	16194.31
612.171	16102.15
612.367	16036.62
612.562	15962.89
612.758	15760.14
612.953	15788.82
613.149	16016.14
613.344	15754
613.539	16071.43
613.735	15723.28
613.93	16061.19
614.126	15774.48
614.321	15954.7
614.517	15893.26
614.712	15794.96
614.907	15561.49
615.103	15657.75
615.298	15561.49
615.493	15999.76
615.688	15444.76
615.884	15739.66
616.079	15551.25
616.274	15667.98
616.47	15444.76
616.665	15358.74
616.86	15491.86
617.055	15346.45
617.25	15311.64
617.445	15334.17
617.641	15086.36
617.836	14986.01
618.031	15137.56
618.226	15072.03
618.421	15092.51
618.616	15147.8
618.811	14760.73
619.006	15108.89
619.201	14924.57
619.396	14590.75
619.591	14596.9
619.786	14566.18
619.981	14514.98
620.176	14560.03
620.371	14191.4
620.566	14451.49
620.761	14347.05
620.956	14334.76
621.151	14086.95
621.346	14289.7
621.541	13978.41
621.735	14187.3
621.93	13978.41
622.125	13849.39
622.32	13794.09
622.515	13746.99
622.709	13646.64
622.904	13701.93
623.099	13597.49
623.294	13554.48
623.488	13372.21
623.683	13511.47
623.878	13282.1
624.072	13159.22
624.267	13273.91
624.462	13120.31
624.656	12878.65
624.851	12905.28
625.046	13124.41
625.24	12864.32
625.435	12878.65
625.629	12712.77
625.824	12589.89
626.018	12487.49
626.213	12297.03
626.407	12593.98
626.602	12346.18
626.796	12135.24
626.991	12407.62
627.185	12178.25
627.38	11991.88
627.574	12168.01
627.768	11819.85
627.963	11817.8
628.157	11819.85
628.352	11817.8
628.546	11672.4
628.74	11692.88
628.935	11453.27
629.129	11510.61
629.323	11381.59
629.517	11379.54
629.712	11447.12
629.906	11033.43
630.1	10861.4
630.294	11176.79
630.489	11148.12
630.683	11244.37
630.877	10896.22
631.071	10742.62
631.265	10976.09
631.459	10814.3
631.653	10529.63
631.848	10638.17
632.042	10521.44
632.236	10759
632.43	10472.29
632.624	10599.26
632.818	10503.01
633.012	10388.32
633.206	10294.11
633.4	10363.75
633.594	10453.86
633.788	10105.7
633.982	10373.99
634.176	9982.82
634.369	10144.61
634.563	9841.51
634.757	9892.71
634.951	9892.71
635.145	9845.61
635.339	9825.13
635.533	9630.57
635.726	9601.9
635.92	9661.29
636.114	9698.16
636.308	9575.28
636.501	9487.22
636.695	9411.44
636.889	9329.52
637.083	9352.05
637.276	9347.95
637.47	9292.66
637.664	9120.63
637.857	9051
638.051	9032.57
638.244	9028.47
638.438	8991.61
638.632	8862.58
638.825	8926.07
639.019	8756.09
639.212	8868.73
639.406	8739.71
639.599	8545.15
639.793	8883.06
639.986	8614.78
640.18	8698.75
640.373	8459.13
640.567	8366.98
640.76	8360.83
640.954	8215.43
641.147	8323.97
641.34	8424.32
641.534	8344.45
641.727	8293.25
641.92	8104.84
642.114	8164.23
642.307	8072.07
642.5	7981.96
642.694	7850.89
642.887	7875.46
643.08	7953.29
643.273	7869.32
643.467	7699.34
643.66	7637.9
643.853	7674.76
644.046	7568.27
644.239	7596.94
644.432	7642
644.626	7437.2
644.819	7383.95
645.012	7631.76
645.205	7547.79
645.398	7478.16
645.591	7371.66
645.784	7455.63
645.977	7381.9
646.17	7130
646.363	7156.63
646.556	7117.72
646.749	6984.6
646.942	6992.79
647.135	7099.28
647.328	6937.49
647.521	6974.36
647.714	6968.21
647.907	6927.25
648.099	6894.49
648.292	6880.15
648.485	6802.33
648.678	6814.62
648.871	6583.2
649.064	6634.39
649.256	6650.78
649.449	6540.19
649.642	6466.46
649.835	6405.02
650.027	6402.97
650.22	6579.1
650.413	6321.06
650.605	6339.49
650.798	6427.55
650.991	6220.71
651.183	6388.64
651.376	6247.33
651.568	6144.93
651.761	6232.99
651.954	6118.31
652.146	6122.4
652.339	5962.66
652.531	6009.76
652.724	5956.52
652.916	5886.89
653.109	5974.95
653.301	5995.43
653.494	5974.95
653.686	5761.96
653.879	5925.8
654.071	5854.12
654.263	5843.88
654.456	5716.9
654.648	5866.41
654.84	5743.53
655.033	5671.85
655.225	5667.75
655.417	5518.25
655.61	5536.68
655.802	5665.71
655.994	5534.64
656.186	5634.99
656.379	5483.44
656.571	5450.67
656.763	5368.75
656.955	5385.13
657.148	5229.49
657.34	5321.65
657.532	5444.52
657.724	5157.81
657.916	5315.5
658.108	5157.81
658.3	5223.34
658.492	5086.13
658.684	5032.88
658.876	5168.05
659.068	5043.12
659.26	4887.48
659.452	5022.64
659.644	5004.21
659.836	5057.46
660.028	4973.49
660.22	4656.06
660.412	4813.75
660.604	4742.07
660.796	4858.81
660.988	4864.95
661.18	4799.41
661.372	4787.13
661.563	4811.7
661.755	4727.74
661.947	4631.48
662.139	4723.64
662.331	4477.88
662.522	4666.3
662.714	4647.87
662.906	4543.42
663.097	4625.34
663.289	4578.23
663.481	4494.27
663.673	4402.11
663.864	4307.9
664.056	4371.39
664.247	4518.84
664.439	4312
664.631	4244.42
664.822	4246.46
665.014	4262.85
665.205	4213.7
665.397	4178.88
665.588	4316.09
665.78	4146.11
665.971	4221.89
666.163	4207.55
666.354	4127.68
666.546	4121.54
666.737	4023.23
666.929	4053.95
667.12	3933.12
667.311	3998.66
667.503	4053.95
667.694	4074.43
667.885	3961.8
668.077	3986.37
668.268	4029.38
668.459	4029.38
668.651	3918.79
668.842	3939.27
669.033	3900.36
669.224	3834.82
669.416	3879.88
669.607	3777.48
669.798	3765.19
669.989	3802.05
670.18	3738.57
670.371	3765.19
670.563	3767.24
670.754	3779.53
670.945	3609.54
671.136	3695.56
671.327	3556.3
671.518	3646.41
671.709	3623.88
671.9	3826.63
672.091	3642.31
672.282	3656.65
672.473	3466.19
672.664	3533.77
672.855	3519.43
673.046	3492.81
673.237	3566.54
673.428	3521.48
673.619	3623.88
673.809	3447.76
674	3388.36
674.191	3527.63
674.382	3421.13
674.573	3380.17
674.764	3443.66
674.954	3423.18
675.145	3156.94
675.336	3361.74
675.527	3339.21
675.717	3263.44
675.908	3306.45
676.099	3394.51
676.289	3265.49
676.48	3392.46
676.671	3292.11
676.861	3300.3
677.052	3265.49
677.243	3251.15
677.433	3146.7
677.624	3322.83
677.814	3199.95
678.005	3197.9
678.195	3277.77
678.386	3025.87
678.576	3101.65
678.767	3060.69
678.957	3214.29
679.148	3222.48
679.338	3060.69
679.529	3169.23
679.719	3005.39
679.909	2999.25
680.1	3062.74
680.29	3023.83
680.481	3064.79
680.671	3011.54
680.861	3003.35
681.052	3083.22
681.242	3011.54
681.432	2911.19
681.622	2837.46
681.813	3023.83
682.003	2984.91
682.193	2993.11
682.383	3165.14
682.573	2921.43
682.764	2868.18
682.954	2999.25
683.144	3109.84
683.334	2853.84
683.524	2890.71
683.714	3077.07
683.904	3007.44
684.094	2943.96
684.284	2788.31
684.474	2833.36
684.664	2847.7
684.854	2841.56
685.044	2847.7
685.234	2825.17
685.424	2784.21
685.614	2829.27
685.804	2776.02
685.994	2747.35
686.184	2741.21
686.374	2755.54
686.564	2726.87
686.753	2724.82
686.943	2739.16
687.133	2741.21
687.323	2706.39
687.513	2702.29
687.702	2798.55
687.892	2747.35
688.082	2718.68
688.272	2763.73
688.461	2642.9
688.651	2677.72
688.841	2563.03
689.03	2685.91
689.22	2659.29
689.41	2657.24
689.599	2536.41
689.789	2622.42
689.979	2577.37
690.168	2534.36
690.358	2511.83
690.547	2501.59
690.737	2528.22
690.926	2462.68
691.116	2503.64
691.305	2593.75
691.495	2417.63
691.684	2378.72
691.874	2589.66
692.063	2530.27
692.252	2468.83
692.442	2370.52
692.631	2413.53
692.82	2388.96
693.01	2409.44
693.199	2360.28
693.388	2423.77
693.578	2413.53
693.767	2393.05
693.956	2397.15
694.146	2298.84
694.335	2292.7
694.524	2350.04
694.713	2309.08
694.902	2327.52
695.092	2366.43
695.281	2388.96
695.47	2290.65
695.659	2257.89
695.848	2218.97
696.037	2317.28
696.226	2276.32
696.415	2282.46
696.604	2352.09
696.793	2208.73
696.982	2214.88
697.171	2431.96
697.36	2313.18
697.549	2227.17
697.738	2221.02
697.927	2323.42
698.116	2266.08
698.305	2227.17
698.494	2171.87
698.683	2167.77
698.872	2284.51
699.061	2319.32
699.25	2143.2
699.438	2241.5
699.627	2284.51
699.816	2251.74
700.005	2296.8
700.193	2218.97
700.382	2186.21
700.571	2188.25
700.76	2235.36
700.948	2184.16
701.137	2229.21
701.326	2210.78
701.514	2059.23
701.703	2241.5
701.892	2247.65
702.08	2221.02
702.269	2067.42
702.457	2149.34
702.646	2149.34
702.834	2229.21
703.023	2184.16
703.212	2194.4
703.4	2214.88
703.589	2128.86
703.777	2169.82
703.965	2073.57
704.154	2165.73
704.342	2161.63
704.531	2214.88
704.719	2173.92
704.907	2067.42
705.096	2024.42
705.284	2175.97
705.472	2094.05
705.661	2132.96
705.849	2046.94
706.037	2100.19
706.226	2194.4
706.414	2075.62
706.602	2145.25
706.79	2108.38
706.979	2116.58
707.167	2200.54
707.355	2036.7
707.543	2198.49
707.731	2057.18
707.919	2175.97
708.107	2141.15
708.296	2149.34
708.484	2155.49
708.672	2206.69
708.86	2190.3
709.048	2186.21
709.236	2059.23
709.424	2104.29
709.612	1981.41
709.8	2124.77
709.988	2061.28
710.176	2112.48
710.364	2159.58
710.551	2108.38
710.739	2014.18
710.927	2120.67
711.115	2087.9
711.303	2104.29
711.491	2034.66
711.679	1985.51
711.866	2075.62
712.054	2165.73
712.242	2040.8
712.43	2059.23
712.617	2106.34
712.805	2071.52
712.993	2098.14
713.181	2028.51
713.368	2116.58
713.556	2057.18
713.744	2124.77
713.931	2255.84
714.119	2108.38
714.306	2149.34
714.494	1973.22
714.682	2116.58
714.869	1971.17
715.057	2126.82
715.244	2145.25
715.432	2092
715.619	2171.87
715.807	2178.01
715.994	2042.85
716.182	2053.09
716.369	2143.2
716.556	2034.66
716.744	2089.95
716.931	1987.55
717.119	2175.97
717.306	2110.43
717.493	2141.15
717.681	2079.71
717.868	2169.82
718.055	2046.94
718.242	2028.51
718.43	2030.56
718.617	2075.62
718.804	2124.77
718.991	2229.21
719.179	2077.66
719.366	2159.58
719.553	2008.03
719.74	2083.81
719.927	2100.19
720.114	2028.51
720.301	2061.28
720.488	1956.83
720.676	2108.38
720.863	2108.38
721.05	2108.38
721.237	2143.2
721.424	2092
721.611	2143.2
721.798	2003.94
721.985	2077.66
722.172	2018.27
722.358	2065.38
722.545	2161.63
722.732	1985.51
722.919	2040.8
723.106	1975.27
723.293	1985.51
723.48	2116.58
723.667	2046.94
723.853	2102.24
724.04	2083.81
724.227	2012.13
724.414	2112.48
724.6	2042.85
724.787	2155.49
724.974	2108.38
725.161	2010.08
725.347	2018.27
725.534	2010.08
725.72	2034.66
725.907	2044.9
726.094	2059.23
726.28	2126.82
726.467	1909.73
726.653	1971.17
726.84	1995.75
727.027	2005.99
727.213	1975.27
727.4	2036.7
727.586	2042.85
727.773	2102.24
727.959	2024.42
728.145	2063.33
728.332	1983.46
728.518	1903.59
728.705	2094.05
728.891	1936.35
729.077	2096.1
729.264	2020.32
729.45	2001.89
729.636	1991.65
729.823	1995.75
730.009	2132.96
730.195	1979.36
730.382	2098.14
730.568	2087.9
730.754	1944.55
730.94	2014.18
731.126	2089.95
731.313	2032.61
731.499	2026.47
731.685	2077.66
731.871	1967.07
732.057	1977.31
732.243	1962.98
732.429	2071.52
732.615	1985.51
732.801	2003.94
732.987	1985.51
733.173	2053.09
733.359	1864.68
733.545	1946.59
733.731	2038.75
733.917	1926.11
734.103	2153.44
734.289	2024.42
734.475	1936.35
734.661	2051.04
734.847	2022.37
735.033	2051.04
735.219	2016.23
735.404	2032.61
735.59	1960.93
735.776	1991.65
735.962	1903.59
736.148	2075.62
736.333	1917.92
736.519	1946.59
736.705	1987.55
736.89	1903.59
737.076	1934.31
737.262	1887.2
737.447	2061.28
737.633	2040.8
737.819	2055.14
738.004	1809.38
738.19	1962.98
738.375	1868.77
738.561	1995.75
738.747	1872.87
738.932	1930.21
739.118	1993.7
739.303	1842.15
739.489	1946.59
739.674	1907.68
739.859	1887.2
740.045	1977.31
740.23	1919.97
740.416	1885.16
740.601	1911.78
740.786	1881.06
740.972	1922.02
741.157	1897.44
741.342	1739.75
741.528	1815.52
741.713	1895.4
741.898	1842.15
742.084	1772.52
742.269	1829.86
742.454	1749.99
742.639	1821.67
742.824	1840.1
743.01	1838.05
743.195	1754.09
743.38	1766.37
743.565	1711.08
743.75	1870.82
743.935	1786.85
744.12	1838.05
744.305	1733.61
744.49	1684.45
744.675	1694.69
744.86	1797.09
745.045	1813.48
745.23	1735.65
745.415	1690.6
745.6	1706.98
745.785	1700.84
745.97	1709.03
746.155	1715.17
746.34	1745.89
746.525	1645.54
746.71	1797.09
746.895	1592.3
747.079	1663.97
747.264	1584.1
747.449	1743.85
747.634	1709.03
747.819	1549.29
748.003	1569.77
748.188	1551.34
748.373	1602.54
748.557	1526.76
748.742	1594.34
748.927	1537
749.111	1567.72
749.296	1487.85
749.481	1559.53
749.665	1489.9
749.85	1479.66
750.034	1485.8
750.219	1506.28
750.404	1489.9
750.588	1534.95
750.773	1432.55
750.957	1504.23
751.141	1444.84
751.326	1477.61
751.51	1348.59
751.695	1436.65
751.879	1364.97
752.064	1375.21
752.248	1403.88
752.432	1496.04
752.617	1375.21
752.801	1430.51
752.985	1301.48
753.17	1338.35
753.354	1311.72
753.538	1373.16
753.722	1375.21
753.907	1324.01
754.091	1248.24
754.275	1276.91
754.459	1270.76
754.643	1217.52
754.828	1274.86
755.012	1229.81
755.196	1289.2
755.38	1170.41
755.564	1209.33
755.748	1287.15
755.932	1240.05
756.116	1330.16
756.3	1158.13
756.484	1283.05
756.668	1164.27
756.852	1088.5
757.036	1123.31
757.22	1199.09
757.404	1156.08
757.588	1186.8
757.772	1168.37
757.956	1176.56
758.14	1158.13
758.323	1102.83
758.507	1164.27
758.691	1049.58
758.875	1053.68
759.059	1078.26
759.242	1113.07
759.426	1076.21
759.61	1061.87
759.794	1002.48
759.977	1053.68
760.161	1133.55
760.345	1029.1
760.528	1061.87
760.712	975.86
760.895	951.28
761.079	971.76
761.263	1029.1
761.446	1084.4
761.63	977.91
761.813	1022.96
761.997	957.43
762.18	908.27
762.364	1016.82
762.547	957.43
762.731	1010.67
762.914	910.32
763.098	965.62
763.281	902.13
763.464	924.66
763.648	949.23
763.831	912.37
764.015	1014.77
764.198	932.85
764.381	932.85
764.564	1029.1
764.748	938.99
764.931	891.89
765.114	963.57
765.297	955.38
765.481	887.79
765.664	902.13
765.847	836.6
766.03	881.65
766.213	910.32
766.397	928.75
766.58	850.93
766.763	904.18
766.946	875.51
767.129	816.12
767.312	916.47
767.495	848.88
767.678	717.81
767.861	898.03
768.044	865.27
768.227	908.27
768.41	887.79
768.593	859.12
768.776	842.74
768.959	812.02
769.142	861.17
769.324	748.53
769.507	904.18
769.69	781.3
769.873	801.78
770.056	891.89
770.239	863.22
770.421	812.02
770.604	797.68
770.787	795.64
770.97	791.54
771.152	732.15
771.335	842.74
771.518	762.87
771.7	812.02
771.883	707.57
772.066	715.77
772.248	713.72
772.431	846.84
772.613	807.92
772.796	717.81
772.978	754.68
773.161	773.11
773.343	797.68
773.526	805.88
773.708	723.96
773.891	693.24
774.073	787.44
774.256	746.48
774.438	715.77
774.621	642.04
774.803	603.13
774.985	695.29
775.168	744.44
775.35	709.62
775.532	730.1
775.715	732.15
775.897	717.81
776.079	680.95
776.261	658.42
776.444	627.7
776.626	627.7
776.808	617.46
776.99	594.93
777.173	701.43
777.355	531.45
777.537	603.13
777.719	539.64
777.901	637.94
778.083	601.08
778.265	541.69
778.447	699.38
778.629	553.98
778.811	529.4
778.993	670.71
779.175	644.09
779.357	529.4
779.539	494.58
779.721	613.37
779.903	594.93
780.085	621.56
780.267	562.17
780.449	586.74
780.631	607.22
780.812	484.34
780.994	543.74
781.176	470.01
781.358	541.69
781.54	521.21
781.721	576.5
781.903	500.73
782.085	541.69
782.267	564.22
782.448	482.3
782.63	521.21
782.812	486.39
782.993	519.16
783.175	488.44
783.357	472.06
783.538	433.15
783.72	508.92
783.901	371.71
784.083	441.34
784.264	381.95
784.446	390.14
784.627	412.67
784.809	515.06
784.99	502.78
785.172	445.43
785.353	390.14
785.535	437.24
785.716	375.8
785.897	400.38
786.079	404.47
786.26	474.1
786.441	476.15
786.623	365.56
786.804	455.67
786.985	359.42
787.167	404.47
787.348	429.05
787.529	379.9
787.71	400.38
787.891	463.86
788.073	336.89
788.254	332.79
788.435	392.19
788.616	445.43
788.797	377.85
788.978	367.61
789.159	306.17
789.34	363.51
789.522	379.9
789.703	381.95
789.884	412.67
790.065	332.79
790.246	390.14
790.427	281.6
790.607	347.13
790.788	334.84
790.969	297.98
791.15	347.13
791.331	351.23
791.512	361.47
791.693	322.56
791.874	320.51
792.054	365.56
792.235	338.94
792.416	326.65
792.597	310.27
792.778	326.65
792.958	316.41
793.139	318.46
793.32	330.75
793.5	418.81
793.681	375.8
793.862	269.31
794.042	289.79
794.223	224.25
794.404	345.08
794.584	261.12
794.765	230.4
794.945	318.46
795.126	300.03
795.306	285.69
795.487	314.36
795.667	242.68
795.848	295.93
796.028	300.03
796.209	281.6
796.389	316.41
796.57	275.45
796.75	295.93
796.93	314.36
797.111	257.02
797.291	232.44
797.471	238.59
797.652	275.45
797.832	304.12
798.012	277.5
798.192	228.35
798.373	308.22
798.553	257.02
798.733	271.36
798.913	273.4
799.093	281.6
799.274	228.35
799.454	254.97
799.634	265.21
799.814	291.84
799.994	314.36
800.174	218.11
800.354	207.87
800.534	263.16
800.714	207.87
800.894	267.26
801.074	218.11
801.254	248.83
801.434	287.74
801.614	214.01
801.794	105.47
801.974	713.72
802.154	279.55
802.334	232.44
802.514	150.53
802.693	211.96
802.873	183.29
803.053	265.21
803.233	287.74
803.413	162.81
803.592	252.92
803.772	226.3
803.952	259.07
804.131	130.05
804.311	265.21
804.491	257.02
804.67	175.1
804.85	177.15
805.03	171.01
805.209	226.3
805.389	175.1
805.568	207.87
805.748	103.42
805.928	199.68
806.107	283.64
806.287	195.58
806.466	193.53
806.646	148.48
806.825	185.34
807.004	171.01
807.184	211.96
807.363	211.96
807.543	134.14
807.722	171.01
807.901	189.44
808.081	226.3
808.26	160.77
808.439	171.01
808.619	230.4
808.798	205.82
808.977	203.77
809.156	238.59
809.336	224.25
809.515	271.36
809.694	140.29
809.873	211.96
810.052	152.57
810.231	234.49
810.411	168.96
810.59	214.01
810.769	144.38
810.948	183.29
811.127	187.39
811.306	136.19
811.485	211.96
811.664	185.34
811.843	244.73
812.022	177.15
812.201	103.42
812.38	162.81
812.559	111.61
812.737	207.87
812.916	193.53
813.095	80.89
813.274	160.77
813.453	203.77
813.632	117.76
813.811	134.14
813.989	89.09
814.168	166.91
814.347	117.76
814.526	207.87
814.704	121.85
814.883	105.47
815.062	111.61
815.24	226.3
815.419	125.95
815.598	164.86
815.776	166.91
815.955	175.1
816.133	154.62
816.312	177.15
816.49	121.85
816.669	134.14
816.847	144.38
817.026	191.49
817.204	111.61
817.383	199.68
817.561	128
817.74	203.77
817.918	148.48
818.097	140.29
818.275	119.81
818.453	166.91
818.632	207.87
818.81	105.47
818.988	72.7
819.167	95.23
819.345	132.09
819.523	119.81
819.701	97.28
819.879	168.96
820.058	128
820.236	125.95
820.414	60.42
820.592	93.18
820.77	123.9
820.948	105.47
821.127	119.81
821.305	99.33
821.483	115.71
821.661	177.15
821.839	134.14
822.017	91.13
822.195	132.09
822.373	138.24
822.551	48.13
822.729	87.04
822.907	95.23
823.085	50.18
823.262	84.99
823.44	123.9
823.618	121.85
823.796	56.32
823.974	76.8
824.152	99.33
824.329	95.23
824.507	95.23
824.685	140.29
824.863	72.7
825.04	105.47
825.218	113.66
825.396	113.66
825.574	93.18
825.751	140.29
825.929	109.57
826.107	95.23
826.284	107.52
826.462	134.14
826.639	64.51
826.817	121.85
826.994	74.75
827.172	-68.61
827.349	68.61
827.527	72.7
827.704	80.89
827.882	111.61
828.059	33.79
828.237	121.85
828.414	195.58
828.591	105.47
828.769	87.04
828.946	62.46
829.124	117.76
829.301	68.61
829.478	105.47
829.655	105.47
829.833	132.09
830.01	76.8
830.187	144.38
830.364	146.43
830.542	181.25
830.719	128
830.896	138.24
831.073	160.77
831.25	193.53
831.427	76.8
831.604	56.32
831.782	148.48
831.959	72.7
832.136	95.23
832.313	-13.31
832.49	-9.22
832.667	76.8
832.844	70.65
833.021	44.03
833.198	105.47
833.374	144.38
833.551	123.9
833.728	54.27
833.905	29.7
834.082	5.12
834.259	101.37
834.436	97.28
834.612	17.41
834.789	21.5
834.966	54.27
835.143	109.57
835.319	89.09
835.496	89.09
835.673	107.52
835.85	52.22
836.026	29.7
836.203	70.65
836.38	44.03
836.556	19.46
836.733	62.46
836.909	119.81
837.086	101.37
837.262	62.46
837.439	76.8
837.616	35.84
837.792	60.42
837.968	89.09
838.145	3.07
838.321	21.5
838.498	103.42
838.674	150.53
838.851	54.27
839.027	101.37
839.203	44.03
839.38	62.46
839.556	146.43
839.732	134.14
839.909	46.08
840.085	84.99
840.261	80.89
840.437	76.8
840.614	87.04
840.79	113.66
840.966	35.84
841.142	46.08
841.318	89.09
841.494	46.08
841.671	27.65
841.847	101.37
842.023	60.42
842.199	93.18
842.375	70.65
842.551	105.47
842.727	54.27
842.903	80.89
843.079	62.46
843.255	99.33
843.431	68.61
843.607	105.47
843.783	-27.65
843.959	33.79
844.134	101.37
844.31	60.42
844.486	29.7
844.662	27.65
844.838	5.12
845.013	46.08
845.189	84.99
845.365	27.65
845.541	39.94
845.716	54.27
845.892	17.41
846.068	27.65
846.244	5.12
846.419	105.47
846.595	46.08
846.77	48.13
846.946	119.81
847.122	60.42
847.297	23.55
847.473	121.85
847.648	17.41
847.824	-9.22
847.999	72.7
848.175	74.75
848.35	78.85
848.526	37.89
848.701	64.51
848.876	41.98
849.052	11.26
849.227	35.84
849.403	25.6
849.578	50.18
849.753	68.61
849.929	27.65
850.104	11.26
850.279	58.37
850.454	78.85
850.63	70.65
850.805	68.61
850.98	46.08
851.155	27.65
851.33	19.46
851.505	-21.5
851.681	111.61
851.856	64.51
852.031	111.61
852.206	-17.41
852.381	31.74
852.556	33.79
852.731	23.55
852.906	-13.31
853.081	25.6
853.256	84.99
853.431	84.99
853.606	39.94
853.781	9.22
853.956	7.17
854.131	117.76
854.305	13.31
854.48	72.7
854.655	3.07
854.83	3.07
855.005	-9.22
855.18	-25.6
855.354	80.89
855.529	82.94
855.704	76.8
855.879	54.27
856.053	50.18
856.228	64.51
856.403	23.55
856.577	54.27
856.752	-5.12
856.926	97.28
857.101	-1.02
857.276	-41.98
857.45	11.26
857.625	44.03
857.799	84.99
857.974	33.79
858.148	-56.32
858.323	13.31
858.497	48.13
858.672	74.75
858.846	-21.5
859.02	64.51
859.195	-3.07
859.369	44.03
859.543	-27.65
859.718	46.08
859.892	19.46
860.066	21.5
860.241	7.17
860.415	23.55
860.589	-1.02
860.763	25.6
860.938	17.41
861.112	46.08
861.286	54.27
861.46	37.89
861.634	37.89
861.808	1.02
861.982	5.12
862.157	46.08
862.331	54.27
862.505	21.5
862.679	103.42
862.853	27.65
863.027	-25.6
863.201	72.7
863.375	17.41
863.549	54.27
863.722	35.84
863.896	44.03
864.07	-25.6
864.244	39.94
864.418	117.76
864.592	-13.31
864.766	35.84
864.939	19.46
865.113	15.36
865.287	91.13
865.461	-27.65
865.634	152.57
865.808	76.8
865.982	3.07
866.156	39.94
866.329	-60.42
866.503	-19.46
866.676	35.84
866.85	68.61
867.024	-3.07
867.197	54.27
867.371	44.03
867.544	-7.17
867.718	101.37
867.891	48.13
868.065	-23.55
868.238	27.65
868.412	19.46
868.585	21.5
868.759	13.31
868.932	56.32
869.105	7.17
869.279	19.46
869.452	-37.89
869.625	-33.79
869.799	-5.12
869.972	-31.74
870.145	84.99
870.319	29.7
870.492	7.17
870.665	-21.5
870.838	46.08
871.011	9.22
871.185	50.18
871.358	29.7
871.531	-37.89
871.704	27.65
871.877	-29.7
872.05	-15.36
872.223	37.89
872.396	-35.84
872.569	21.5
872.742	9.22
872.915	9.22
873.088	-19.46
873.261	62.46
873.434	33.79
873.607	17.41
873.78	25.6
873.953	-21.5
874.126	27.65
874.299	-7.17
874.471	-19.46
874.644	66.56
874.817	37.89
874.99	13.31
875.163	-5.12
875.335	19.46
875.508	-46.08
875.681	44.03
875.853	-39.94
876.026	-17.41
876.199	-70.65
876.371	66.56
876.544	99.33
876.717	-1.02
876.889	-23.55
877.062	27.65
877.234	3.07
877.407	-33.79
877.579	-44.03
877.752	113.66
877.924	35.84
878.097	35.84
878.269	41.98
878.442	5.12
878.614	-60.42
878.786	84.99
878.959	-15.36
879.131	31.74
879.303	-107.52
879.476	25.6
879.648	54.27
879.82	41.98
879.993	23.55
880.165	23.55
880.337	-41.98
880.509	46.08
880.681	-5.12
880.854	50.18
881.026	31.74
881.198	99.33
881.37	-9.22
881.542	-7.17
881.714	52.22
881.886	13.31
882.058	13.31
882.23	-23.55
882.402	19.46
882.574	58.37
882.746	-35.84
882.918	19.46
883.09	11.26
883.262	-62.46
883.434	93.18
883.606	-13.31
883.778	29.7
883.95	54.27
884.122	-17.41
884.293	44.03
884.465	-1.02
884.637	68.61
884.809	-35.84
884.98	60.42
885.152	41.98
885.324	-9.22
885.496	-64.51
885.667	3.07
885.839	-11.26
886.011	99.33
886.182	72.7
886.354	68.61
886.525	62.46
886.697	-13.31
886.869	-21.5
887.04	-52.22
887.212	25.6
887.383	52.22
887.555	-19.46
887.726	-35.84
887.897	68.61
888.069	105.47
888.24	33.79
888.412	84.99
888.583	52.22
888.754	41.98
888.926	44.03
889.097	62.46
889.268	-62.46
889.44	56.32
889.611	39.94
889.782	-1.02
889.953	60.42
890.125	35.84
890.296	-5.12
890.467	23.55
890.638	-41.98
890.809	17.41
890.98	-23.55
891.151	41.98
891.323	13.31
891.494	21.5
891.665	23.55
891.836	-11.26
892.007	-3.07
892.178	-1.02
892.349	15.36
892.52	15.36
892.691	1.02
892.862	31.74
893.032	-5.12
893.203	78.85
893.374	33.79
893.545	37.89
893.716	1.02
893.887	64.51
894.057	-3.07
894.228	-44.03
894.399	-3.07
894.57	107.52
894.74	5.12
894.911	-50.18
895.082	76.8
895.253	-3.07
895.423	-52.22
895.594	60.42
895.764	-11.26
895.935	33.79
896.106	5.12
896.276	56.32
896.447	87.04
896.617	1.02
896.788	-93.18
896.958	11.26
897.129	-66.56
897.299	27.65
897.47	48.13
897.64	76.8
897.81	-31.74
897.981	27.65
898.151	-23.55
898.322	68.61
898.492	-17.41
898.662	-21.5
898.832	-21.5
899.003	7.17
899.173	35.84
899.343	-23.55
899.513	-60.42
