Data from USB4F104151__50__13-11-27-600.txt Node

Date: Fri Mar 14 13:11:27 EDT 2025
User: louis
Spectrometer: USB4F10415
Trigger mode: 4
Integration Time (sec): 2.000000E-2
Scans to average: 1
Electric dark correction enabled: true
Nonlinearity correction enabled: false
Boxcar width: 0
XAxis mode: Wavelengths
Number of Pixels in Spectrum: 3648
>>>>>Begin Spectral Data<<<<<
178.204	-80.72
178.424	-80.72
178.644	-80.72
178.864	-80.72
179.084	-107.35
179.304	48.3
179.524	19.63
179.744	-62.29
179.964	-29.52
180.184	-11.09
180.404	21.67
180.624	62.63
180.844	21.67
181.064	-7
181.283	19.63
181.503	-58.2
181.723	-25.43
181.943	-4.95
182.163	68.78
182.383	-19.29
182.602	-37.72
182.822	29.87
183.042	-13.14
183.262	13.48
183.482	-19.29
183.701	-13.14
183.921	-7
184.141	-11.09
184.361	-4.95
184.58	87.21
184.8	3.24
185.02	19.63
185.239	70.83
185.459	-19.29
185.679	15.53
185.898	13.48
186.118	31.91
186.338	48.3
186.557	44.2
186.777	-23.38
186.997	19.63
187.216	31.91
187.436	79.02
187.655	-0.85
187.875	31.91
188.095	-62.29
188.314	107.69
188.534	58.54
188.753	-50
188.973	-21.33
189.192	62.63
189.412	-41.81
189.631	42.15
189.851	36.01
190.07	44.2
190.29	-52.05
190.509	38.06
190.729	-45.91
190.948	31.91
191.168	79.02
191.387	109.74
191.607	56.49
191.826	44.2
192.045	46.25
192.265	-4.95
192.484	-11.09
192.704	-13.14
192.923	-41.81
193.142	158.89
193.362	79.02
193.581	36.01
193.8	29.87
194.02	81.07
194.239	-21.33
194.458	-4.95
194.678	64.68
194.897	40.11
195.116	38.06
195.335	46.25
195.555	13.48
195.774	40.11
195.993	15.53
196.212	23.72
196.432	-62.29
196.651	58.54
196.87	68.78
197.089	105.64
197.308	-56.15
197.528	-19.29
197.747	42.15
197.966	44.2
198.185	21.67
198.404	9.39
198.623	-39.76
198.842	36.01
199.062	21.67
199.281	99.5
199.5	7.34
199.719	-62.29
199.938	21.67
200.157	11.43
200.376	11.43
200.595	56.49
200.814	40.11
201.033	-23.38
201.252	19.63
201.471	11.43
201.69	17.58
201.909	3.24
202.128	-21.33
202.347	31.91
202.566	31.91
202.785	-4.95
203.004	76.97
203.223	44.2
203.442	76.97
203.661	-7
203.879	60.59
204.098	3.24
204.317	17.58
204.536	-7
204.755	62.63
204.974	-27.48
205.193	11.43
205.411	52.39
205.63	-37.72
205.849	1.19
206.068	-35.67
206.287	-13.14
206.505	33.96
206.724	50.35
206.943	-35.67
207.162	42.15
207.381	50.35
207.599	-54.1
207.818	-52.05
208.037	-29.52
208.255	-21.33
208.474	1.19
208.693	40.11
208.911	15.53
209.13	44.2
209.349	25.77
209.567	76.97
209.786	52.39
210.005	48.3
210.223	-0.85
210.442	-45.91
210.661	109.74
210.879	-21.33
211.098	29.87
211.316	-33.62
211.535	38.06
211.753	56.49
211.972	-17.24
212.191	-2.9
212.409	44.2
212.628	21.67
212.846	-27.48
213.065	25.77
213.283	87.21
213.502	19.63
213.72	15.53
213.938	3.24
214.157	60.59
214.375	9.39
214.594	40.11
214.812	-54.1
215.031	48.3
215.249	23.72
215.467	70.83
215.686	-2.9
215.904	48.3
216.122	29.87
216.341	31.91
216.559	29.87
216.778	89.26
216.996	27.82
217.214	-25.43
217.432	-43.86
217.651	-11.09
217.869	-2.9
218.087	64.68
218.306	-4.95
218.524	21.67
218.742	-11.09
218.96	50.35
219.179	-21.33
219.397	-27.48
219.615	74.92
219.833	70.83
220.051	15.53
220.27	13.48
220.488	7.34
220.706	109.74
220.924	13.48
221.142	29.87
221.36	-50
221.578	11.43
221.796	72.87
222.015	27.82
222.233	44.2
222.451	183.46
222.669	-43.86
222.887	-9.05
223.105	36.01
223.323	33.96
223.541	-11.09
223.759	62.63
223.977	-4.95
224.195	3.24
224.413	5.29
224.631	72.87
224.849	-15.19
225.067	52.39
225.285	-2.9
225.503	-13.14
225.721	-17.24
225.939	-25.43
226.157	-9.05
226.375	46.25
226.592	-31.57
226.81	46.25
227.028	-9.05
227.246	119.98
227.464	-25.43
227.682	-17.24
227.9	-17.24
228.117	31.91
228.335	27.82
228.553	60.59
228.771	44.2
228.989	-7
229.206	-33.62
229.424	17.58
229.642	7.34
229.86	5.29
230.077	-33.62
230.295	3.24
230.513	23.72
230.731	-33.62
230.948	95.4
231.166	48.3
231.384	-56.15
231.601	3.24
231.819	60.59
232.037	29.87
232.254	7.34
232.472	-41.81
232.689	-4.95
232.907	52.39
233.125	-21.33
233.342	5.29
233.56	-19.29
233.777	-19.29
233.995	1.19
234.213	66.73
234.43	21.67
234.648	-39.76
234.865	11.43
235.083	103.59
235.3	-31.57
235.518	36.01
235.735	124.07
235.953	95.4
236.17	9.39
236.388	-9.05
236.605	9.39
236.822	54.44
237.04	29.87
237.257	64.68
237.475	-60.24
237.692	79.02
237.909	-39.76
238.127	-11.09
238.344	38.06
238.562	66.73
238.779	3.24
238.996	-54.1
239.214	52.39
239.431	19.63
239.648	-39.76
239.865	-33.62
240.083	3.24
240.3	29.87
240.517	-4.95
240.735	68.78
240.952	81.07
241.169	42.15
241.386	79.02
241.603	-37.72
241.821	-47.96
242.038	64.68
242.255	62.63
242.472	79.02
242.689	44.2
242.907	52.39
243.124	-25.43
243.341	-35.67
243.558	-23.38
243.775	29.87
243.992	-29.52
244.209	36.01
244.426	42.15
244.643	33.96
244.86	-9.05
245.078	64.68
245.295	5.29
245.512	1.19
245.729	1.19
245.946	5.29
246.163	-11.09
246.38	38.06
246.597	1.19
246.814	5.29
247.031	-13.14
247.248	-66.39
247.464	27.82
247.681	-29.52
247.898	-60.24
248.115	46.25
248.332	19.63
248.549	42.15
248.766	25.77
248.983	-4.95
249.2	56.49
249.417	27.82
249.633	38.06
249.85	5.29
250.067	9.39
250.284	-29.52
250.501	79.02
250.717	60.59
250.934	-37.72
251.151	21.67
251.368	27.82
251.585	85.16
251.801	52.39
252.018	-37.72
252.235	3.24
252.451	36.01
252.668	-41.81
252.885	122.02
253.102	-29.52
253.318	81.07
253.535	38.06
253.752	21.67
253.968	52.39
254.185	-39.76
254.401	70.83
254.618	13.48
254.835	-21.33
255.051	74.92
255.268	3.24
255.484	-25.43
255.701	42.15
255.917	-15.19
256.134	46.25
256.351	76.97
256.567	-0.85
256.784	-19.29
257	21.67
257.217	21.67
257.433	72.87
257.65	-21.33
257.866	93.35
258.082	23.72
258.299	-15.19
258.515	-2.9
258.732	-2.9
258.948	5.29
259.165	-11.09
259.381	46.25
259.597	-4.95
259.814	13.48
260.03	25.77
260.246	5.29
260.463	-29.52
260.679	-13.14
260.895	56.49
261.112	21.67
261.328	44.2
261.544	1.19
261.761	87.21
261.977	40.11
262.193	38.06
262.409	13.48
262.626	46.25
262.842	19.63
263.058	36.01
263.274	-4.95
263.49	5.29
263.707	11.43
263.923	44.2
264.139	-19.29
264.355	27.82
264.571	56.49
264.787	70.83
265.004	76.97
265.22	-29.52
265.436	36.01
265.652	-17.24
265.868	3.24
266.084	-13.14
266.3	5.29
266.516	-27.48
266.732	31.91
266.948	60.59
267.164	-9.05
267.38	-60.24
267.596	3.24
267.812	36.01
268.028	54.44
268.244	-29.52
268.46	19.63
268.676	-56.15
268.892	54.44
269.108	-43.86
269.324	-29.52
269.54	-29.52
269.756	87.21
269.972	33.96
270.188	19.63
270.403	-9.05
270.619	36.01
270.835	-4.95
271.051	-0.85
271.267	-17.24
271.483	31.91
271.698	66.73
271.914	15.53
272.13	19.63
272.346	-33.62
272.562	40.11
272.777	85.16
272.993	15.53
273.209	-2.9
273.425	62.63
273.64	-33.62
273.856	33.96
274.072	-29.52
274.287	17.58
274.503	50.35
274.719	60.59
274.934	85.16
275.15	-37.72
275.366	62.63
275.581	46.25
275.797	36.01
276.012	29.87
276.228	50.35
276.444	-39.76
276.659	-37.72
276.875	5.29
277.09	21.67
277.306	5.29
277.521	21.67
277.737	70.83
277.952	50.35
278.168	68.78
278.383	40.11
278.599	-2.9
278.814	-11.09
279.03	1.19
279.245	48.3
279.461	40.11
279.676	48.3
279.892	15.53
280.107	-7
280.322	-54.1
280.538	29.87
280.753	-29.52
280.969	74.92
281.184	11.43
281.399	-7
281.615	17.58
281.83	56.49
282.045	27.82
282.26	13.48
282.476	9.39
282.691	11.43
282.906	-4.95
283.122	-2.9
283.337	44.2
283.552	-19.29
283.767	1.19
283.983	-33.62
284.198	19.63
284.413	66.73
284.628	-9.05
284.843	31.91
285.058	44.2
285.274	13.48
285.489	25.77
285.704	46.25
285.919	-76.63
286.134	-39.76
286.349	89.26
286.564	66.73
286.779	31.91
286.995	-0.85
287.21	33.96
287.425	36.01
287.64	25.77
287.855	15.53
288.07	-19.29
288.285	15.53
288.5	48.3
288.715	72.87
288.93	36.01
289.145	23.72
289.36	48.3
289.575	-27.48
289.79	3.24
290.004	-13.14
290.219	60.59
290.434	13.48
290.649	17.58
290.864	33.96
291.079	9.39
291.294	11.43
291.509	33.96
291.724	21.67
291.938	36.01
292.153	85.16
292.368	54.44
292.583	58.54
292.798	70.83
293.012	-2.9
293.227	128.17
293.442	-2.9
293.657	31.91
293.871	58.54
294.086	-27.48
294.301	11.43
294.516	13.48
294.73	-19.29
294.945	-45.91
295.16	91.31
295.374	130.22
295.589	-4.95
295.804	29.87
296.018	-9.05
296.233	44.2
296.447	-27.48
296.662	68.78
296.877	54.44
297.091	19.63
297.306	21.67
297.52	7.34
297.735	36.01
297.949	5.29
298.164	76.97
298.378	52.39
298.593	-9.05
298.807	-21.33
299.022	15.53
299.236	-4.95
299.451	38.06
299.665	-54.1
299.88	15.53
300.094	70.83
300.309	-17.24
300.523	15.53
300.737	11.43
300.952	15.53
301.166	-13.14
301.381	-7
301.595	-19.29
301.809	50.35
302.024	23.72
302.238	-41.81
302.452	76.97
302.667	40.11
302.881	36.01
303.095	105.64
303.309	-4.95
303.524	36.01
303.738	-17.24
303.952	-35.67
304.166	52.39
304.381	-58.2
304.595	93.35
304.809	-19.29
305.023	44.2
305.237	-15.19
305.452	29.87
305.666	54.44
305.88	15.53
306.094	31.91
306.308	38.06
306.522	89.26
306.736	68.78
306.95	46.25
307.164	29.87
307.379	33.96
307.593	52.39
307.807	81.07
308.021	-27.48
308.235	13.48
308.449	23.72
308.663	-4.95
308.877	62.63
309.091	-2.9
309.305	48.3
309.519	1.19
309.733	64.68
309.947	17.58
310.161	42.15
310.374	-43.86
310.588	62.63
310.802	-19.29
311.016	27.82
311.23	-27.48
311.444	21.67
311.658	42.15
311.872	21.67
312.085	36.01
312.299	38.06
312.513	66.73
312.727	62.63
312.941	3.24
313.154	79.02
313.368	17.58
313.582	5.29
313.796	52.39
314.009	-2.9
314.223	-0.85
314.437	7.34
314.651	-33.62
314.864	-2.9
315.078	-9.05
315.292	60.59
315.505	29.87
315.719	1.19
315.933	11.43
316.146	1.19
316.36	-39.76
316.573	19.63
316.787	72.87
317.001	36.01
317.214	17.58
317.428	64.68
317.641	42.15
317.855	19.63
318.068	3.24
318.282	46.25
318.495	52.39
318.709	-23.38
318.922	38.06
319.136	85.16
319.349	56.49
319.563	19.63
319.776	68.78
319.99	52.39
320.203	50.35
320.417	-27.48
320.63	44.2
320.843	85.16
321.057	-4.95
321.27	-13.14
321.483	54.44
321.697	111.78
321.91	62.63
322.124	38.06
322.337	62.63
322.55	27.82
322.763	-17.24
322.977	72.87
323.19	-17.24
323.403	58.54
323.617	11.43
323.83	1.19
324.043	-9.05
324.256	-25.43
324.469	-13.14
324.683	36.01
324.896	48.3
325.109	1.19
325.322	-11.09
325.535	93.35
325.748	11.43
325.962	31.91
326.175	64.68
326.388	36.01
326.601	-11.09
326.814	13.48
327.027	-35.67
327.24	126.12
327.453	-11.09
327.666	126.12
327.879	44.2
328.092	105.64
328.305	-54.1
328.518	46.25
328.731	50.35
328.944	36.01
329.157	-50
329.37	60.59
329.583	87.21
329.796	7.34
330.009	31.91
330.222	-4.95
330.435	91.31
330.648	52.39
330.861	44.2
331.073	23.72
331.286	27.82
331.499	1.19
331.712	-11.09
331.925	48.3
332.138	101.55
332.35	85.16
332.563	87.21
332.776	68.78
332.989	29.87
333.202	-13.14
333.414	44.2
333.627	113.83
333.84	-4.95
334.053	31.91
334.265	44.2
334.478	-17.24
334.691	103.59
334.903	17.58
335.116	-9.05
335.329	13.48
335.541	17.58
335.754	87.21
335.966	36.01
336.179	-2.9
336.392	33.96
336.604	-0.85
336.817	52.39
337.029	33.96
337.242	-13.14
337.454	36.01
337.667	9.39
337.88	93.35
338.092	-54.1
338.305	15.53
338.517	68.78
338.729	17.58
338.942	70.83
339.154	31.91
339.367	15.53
339.579	62.63
339.792	3.24
340.004	87.21
340.217	11.43
340.429	-0.85
340.641	-11.09
340.854	-43.86
341.066	93.35
341.278	87.21
341.491	60.59
341.703	21.67
341.915	-31.57
342.128	13.48
342.34	60.59
342.552	-76.63
342.764	48.3
342.977	23.72
343.189	70.83
343.401	-27.48
343.613	25.77
343.826	46.25
344.038	23.72
344.25	29.87
344.462	-23.38
344.674	27.82
344.886	74.92
345.099	42.15
345.311	72.87
345.523	117.93
345.735	-37.72
345.947	33.96
346.159	19.63
346.371	95.4
346.583	60.59
346.795	83.11
347.007	-19.29
347.219	81.07
347.431	46.25
347.643	13.48
347.855	3.24
348.067	60.59
348.279	13.48
348.491	-17.24
348.703	68.78
348.915	40.11
349.127	-35.67
349.339	23.72
349.551	31.91
349.763	-0.85
349.975	21.67
350.187	-15.19
350.399	3.24
350.61	33.96
350.822	56.49
351.034	-4.95
351.246	-0.85
351.458	21.67
351.669	56.49
351.881	-17.24
352.093	58.54
352.305	68.78
352.517	7.34
352.728	25.77
352.94	56.49
353.152	19.63
353.363	64.68
353.575	93.35
353.787	-25.43
353.999	-11.09
354.21	68.78
354.422	33.96
354.633	-25.43
354.845	29.87
355.057	-4.95
355.268	21.67
355.48	-56.15
355.692	13.48
355.903	-17.24
356.115	15.53
356.326	7.34
356.538	-15.19
356.749	42.15
356.961	72.87
357.172	-13.14
357.384	11.43
357.595	66.73
357.807	48.3
358.018	66.73
358.23	-21.33
358.441	74.92
358.653	-13.14
358.864	-37.72
359.075	62.63
359.287	-15.19
359.498	79.02
359.709	15.53
359.921	-33.62
360.132	3.24
360.344	81.07
360.555	33.96
360.766	85.16
360.977	36.01
361.189	-21.33
361.4	27.82
361.611	44.2
361.823	5.29
362.034	101.55
362.245	5.29
362.456	33.96
362.667	-9.05
362.879	60.59
363.09	50.35
363.301	44.2
363.512	-7
363.723	-35.67
363.935	33.96
364.146	46.25
364.357	31.91
364.568	-13.14
364.779	44.2
364.99	-0.85
365.201	21.67
365.412	91.31
365.623	7.34
365.834	13.48
366.045	1.19
366.256	81.07
366.467	17.58
366.678	3.24
366.889	60.59
367.1	54.44
367.311	50.35
367.522	-31.57
367.733	54.44
367.944	3.24
368.155	29.87
368.366	124.07
368.577	126.12
368.788	36.01
368.999	29.87
369.209	-70.48
369.42	76.97
369.631	109.74
369.842	-45.91
370.053	38.06
370.264	29.87
370.474	17.58
370.685	-0.85
370.896	72.87
371.107	-0.85
371.317	46.25
371.528	21.67
371.739	19.63
371.95	31.91
372.16	54.44
372.371	-27.48
372.582	-13.14
372.792	52.39
373.003	60.59
373.214	42.15
373.424	68.78
373.635	5.29
373.846	58.54
374.056	9.39
374.267	54.44
374.477	70.83
374.688	46.25
374.898	19.63
375.109	38.06
375.319	70.83
375.53	119.98
375.74	76.97
375.951	21.67
376.161	27.82
376.372	52.39
376.582	-35.67
376.793	60.59
377.003	-93.01
377.214	33.96
377.424	25.77
377.635	-7
377.845	27.82
378.055	29.87
378.266	-45.91
378.476	3.24
378.686	29.87
378.897	29.87
379.107	25.77
379.317	-11.09
379.528	38.06
379.738	62.63
379.948	62.63
380.158	21.67
380.369	50.35
380.579	-13.14
380.789	15.53
380.999	56.49
381.21	64.68
381.42	136.36
381.63	15.53
381.84	48.3
382.05	31.91
382.261	126.12
382.471	81.07
382.681	11.43
382.891	150.7
383.101	44.2
383.311	21.67
383.521	36.01
383.731	46.25
383.941	40.11
384.151	-7
384.361	46.25
384.571	13.48
384.781	13.48
384.991	54.44
385.201	27.82
385.411	52.39
385.621	38.06
385.831	36.01
386.041	11.43
386.251	62.63
386.461	-9.05
386.671	40.11
386.881	38.06
387.091	76.97
387.301	23.72
387.511	48.3
387.72	72.87
387.93	-0.85
388.14	-0.85
388.35	74.92
388.56	83.11
388.769	11.43
388.979	7.34
389.189	-43.86
389.399	54.44
389.609	-54.1
389.818	117.93
390.028	23.72
390.238	72.87
390.447	17.58
390.657	101.55
390.867	11.43
391.076	-2.9
391.286	27.82
391.496	-54.1
391.705	-25.43
391.915	-37.72
392.125	103.59
392.334	33.96
392.544	105.64
392.753	23.72
392.963	48.3
393.172	122.02
393.382	19.63
393.591	81.07
393.801	11.43
394.01	72.87
394.22	74.92
394.429	74.92
394.639	48.3
394.848	27.82
395.058	-13.14
395.267	7.34
395.477	83.11
395.686	48.3
395.895	165.03
396.105	60.59
396.314	91.31
396.524	44.2
396.733	1.19
396.942	50.35
397.152	31.91
397.361	89.26
397.57	-23.38
397.78	58.54
397.989	27.82
398.198	93.35
398.407	85.16
398.617	21.67
398.826	38.06
399.035	27.82
399.244	72.87
399.453	70.83
399.663	42.15
399.872	-2.9
400.081	-27.48
400.29	21.67
400.499	70.83
400.708	64.68
400.917	70.83
401.127	91.31
401.336	62.63
401.545	62.63
401.754	64.68
401.963	103.59
402.172	7.34
402.381	68.78
402.59	68.78
402.799	70.83
403.008	91.31
403.217	31.91
403.426	33.96
403.635	72.87
403.844	-25.43
404.053	89.26
404.262	46.25
404.471	93.35
404.68	93.35
404.888	44.2
405.097	74.92
405.306	66.73
405.515	107.69
405.724	68.78
405.933	136.36
406.142	54.44
406.35	105.64
406.559	113.83
406.768	169.13
406.977	101.55
407.185	124.07
407.394	40.11
407.603	23.72
407.812	46.25
408.02	115.88
408.229	117.93
408.438	87.21
408.646	87.21
408.855	105.64
409.064	89.26
409.272	152.74
409.481	117.93
409.69	83.11
409.898	146.6
410.107	132.26
410.315	277.67
410.524	171.18
410.733	152.74
410.941	109.74
411.15	111.78
411.358	140.46
411.567	173.22
411.775	232.62
411.984	201.9
412.192	212.14
412.401	203.94
412.609	251.05
412.818	314.53
413.026	218.28
413.234	195.75
413.443	197.8
413.651	257.19
413.86	314.53
414.068	277.67
414.276	361.64
414.485	281.77
414.693	357.54
414.901	308.39
415.11	365.73
415.318	300.2
415.526	359.59
415.734	378.02
415.943	371.88
416.151	480.42
416.359	337.06
416.567	369.83
416.776	535.71
416.984	437.41
417.192	472.23
417.4	451.75
417.608	486.56
417.817	455.84
418.025	474.28
418.233	609.44
418.441	605.35
418.649	453.8
418.857	599.2
419.065	644.26
419.273	582.82
419.481	609.44
419.689	564.39
419.897	699.55
420.105	713.89
420.313	789.66
420.521	691.36
420.729	693.41
420.937	730.27
421.145	887.97
421.353	918.68
421.561	971.93
421.769	922.78
421.977	924.83
422.185	1023.13
422.393	1000.6
422.601	1139.87
422.809	1088.67
423.017	1021.08
423.224	1168.54
423.432	1129.63
423.64	1211.54
423.848	1307.8
424.056	1141.91
424.263	1264.79
424.471	1268.89
424.679	1451.16
424.887	1373.33
425.094	1463.44
425.302	1625.23
425.51	1645.71
425.718	1596.56
425.925	1619.09
426.133	1586.32
426.341	1795.22
426.548	1723.54
426.756	1836.17
426.964	1825.93
427.171	1946.76
427.379	2135.18
427.586	2153.61
427.794	2133.13
428.001	2272.39
428.209	2331.78
428.417	2305.16
428.624	2352.26
428.832	2299.02
429.039	2520.2
429.247	2446.47
429.454	2643.07
429.662	2937.98
429.869	2585.73
430.076	2927.74
430.284	2731.14
430.491	2763.9
430.699	2911.36
430.906	3040.38
431.114	3126.39
431.321	3128.44
431.528	3300.47
431.736	3441.78
431.943	3581.04
432.15	3519.6
432.358	3562.61
432.565	3669.11
432.772	3681.39
432.979	3921.01
433.187	3943.53
433.394	3947.63
433.601	4207.72
433.808	4324.46
434.016	4324.46
434.223	4406.38
434.43	4609.12
434.637	4574.31
434.844	4910.18
435.052	5004.38
435.259	5016.67
435.466	4983.9
435.673	4985.95
435.88	5311.58
436.087	5516.37
436.294	5579.86
436.501	5477.46
436.708	5504.09
436.915	5753.94
437.122	5925.97
437.329	5962.83
437.537	6042.7
437.743	6362.19
437.95	6200.4
438.157	6571.08
438.364	6706.24
438.571	6806.59
438.778	6841.41
438.985	7359.55
439.192	7038.02
439.399	7425.08
439.606	7191.61
439.813	7687.22
440.02	8182.83
440.227	7947.31
440.433	7740.47
440.64	7973.94
440.847	7859.25
441.054	8313.9
441.261	8780.84
441.467	8694.82
441.674	9049.12
441.881	9153.57
442.088	9204.77
442.294	9159.71
442.501	9337.88
442.708	9417.75
442.914	9880.6
443.121	10550.28
443.328	9888.79
443.534	10757.13
443.741	10449.93
443.948	10327.05
444.154	10812.42
444.361	10949.64
444.568	11000.83
444.774	11045.89
444.981	11277.31
445.187	11516.92
445.394	11807.73
445.6	11854.84
445.807	13110.24
446.013	12553.2
446.22	12645.35
446.426	12964.84
446.633	13059.04
446.839	13751.26
447.046	13138.91
447.252	14042.07
447.459	13962.2
447.665	13960.15
447.871	14433.23
448.078	15190.98
448.284	14310.35
448.491	14875.59
448.697	15412.16
448.903	15864.76
449.11	15961.02
449.316	15524.8
449.522	15764.41
449.728	16352.18
449.935	16395.18
450.141	16561.07
450.347	16638.89
450.553	16270.26
450.76	16796.59
450.966	17154.98
451.172	16964.52
451.378	17165.22
451.584	16898.98
451.791	17337.25
451.997	17109.93
452.203	17646.49
452.409	17591.2
452.615	17478.56
452.821	16898.98
453.027	16552.88
453.233	17607.58
453.44	17163.17
453.646	17333.15
453.852	17275.81
454.058	17650.59
454.264	17060.77
454.47	17197.99
454.676	16952.23
454.882	17441.7
455.088	16102.32
455.294	16235.44
455.5	16438.19
455.705	16841.64
455.911	16044.98
456.117	15786.94
456.323	15403.97
456.529	14791.62
456.735	15043.53
456.941	14982.09
457.147	14801.86
457.352	14500.81
457.558	14185.43
457.764	14400.46
457.97	14064.6
458.176	13681.63
458.381	13620.19
458.587	12848.1
458.793	12977.12
458.999	12372.97
459.204	13280.22
459.41	12704.74
459.616	11817.97
459.821	12008.44
460.027	11996.15
460.233	11545.59
460.438	11373.57
460.644	11381.76
460.85	10837
461.055	10650.63
461.261	10441.74
461.466	9849.88
461.672	9315.36
461.878	10169.36
462.083	9432.09
462.289	9458.71
462.494	9018.4
462.7	8733.73
462.905	8707.11
463.111	8811.56
463.316	8971.3
463.522	8789.03
463.727	8713.25
463.932	8629.29
464.138	8643.62
464.343	8524.84
464.549	8371.24
464.754	8494.12
464.959	8746.02
465.165	8410.15
465.37	7939.12
465.575	7867.44
465.781	8395.82
465.986	8383.53
466.191	8043.57
466.397	7914.55
466.602	7367.74
466.807	7685.17
467.012	7912.5
467.218	7713.84
467.423	7679.03
467.628	7656.5
467.833	8111.15
468.038	7826.48
468.244	7683.13
468.449	7715.89
468.654	7611.45
468.859	7611.45
469.064	7498.81
469.269	7242.81
469.474	7210.04
469.679	7418.94
469.885	7177.28
470.09	7324.73
470.295	7234.62
470.5	7203.9
470.705	7255.1
470.91	6822.98
471.115	6859.84
471.32	7111.74
471.525	6870.08
471.73	6687.81
471.935	6663.24
472.139	6552.65
472.344	6501.45
472.549	6609.99
472.754	6519.88
472.959	6476.87
473.164	6102.09
473.369	6198.35
473.574	6278.22
473.778	6245.45
473.983	6190.16
474.188	6143.05
474.393	5966.93
474.598	5932.11
474.802	5876.82
475.007	5889.1
475.212	5827.67
475.417	5688.4
475.621	5448.79
475.826	5575.77
476.031	5463.13
476.235	5434.46
476.44	5444.7
476.645	5393.5
476.849	5522.52
477.054	5516.37
477.259	5348.44
477.463	5311.58
477.668	5264.47
477.872	5211.23
478.077	5176.41
478.282	4963.42
478.486	5018.72
478.691	4848.74
478.895	4912.22
479.1	4992.09
479.304	4979.81
479.509	4887.65
479.713	4803.68
479.918	4766.82
480.122	4578.4
480.326	4752.48
480.531	4750.43
480.735	4674.66
480.94	4631.65
481.144	4811.87
481.348	4529.25
481.553	4576.36
481.757	4570.21
481.961	4582.5
482.166	4623.46
482.37	4643.94
482.574	4445.29
482.778	4689
482.983	4654.18
483.187	4582.5
483.391	4484.2
483.595	4609.12
483.8	4516.97
484.004	4459.62
484.208	4568.16
484.412	4549.73
484.616	4455.53
484.821	4623.46
485.025	4383.85
485.229	4607.08
485.433	4596.84
485.637	4574.31
485.841	4514.92
486.045	4488.29
486.249	4543.59
486.453	4500.58
486.657	4637.8
486.861	4674.66
487.065	4410.47
487.269	4525.16
487.473	4576.36
487.677	4547.69
487.881	4623.46
488.085	4689
488.289	4566.12
488.493	4439.14
488.697	4551.78
488.901	4549.73
489.105	4551.78
489.309	4549.73
489.512	4652.13
489.716	4422.76
489.92	4570.21
490.124	4439.14
490.328	4783.2
490.531	4723.81
490.735	4623.46
490.939	4648.04
491.143	4650.08
491.346	4611.17
491.55	4848.74
491.754	4693.09
491.958	5047.39
492.161	4772.96
492.365	4748.39
492.569	4736.1
492.772	4854.88
492.976	4705.38
493.18	4930.66
493.383	4832.35
493.587	4961.37
493.79	4881.5
493.994	4934.75
494.197	4893.79
494.401	5059.68
494.605	5084.25
494.808	5090.4
495.012	5178.46
495.215	5084.25
495.419	5196.89
495.622	5205.08
495.825	5385.3
496.029	5301.34
496.232	5248.09
496.436	5246.04
496.639	5596.25
496.843	5479.51
497.046	5598.29
497.249	5674.07
497.453	5710.93
497.656	5729.36
497.859	5735.51
498.063	5809.23
498.266	5874.77
498.469	5975.12
498.673	5901.39
498.876	6081.61
499.079	6069.33
499.282	6157.39
499.485	6222.92
499.689	6298.7
499.892	6378.57
500.095	6530.12
500.298	6458.44
500.501	6519.88
500.705	6683.72
500.908	6693.96
501.111	6716.48
501.314	6880.32
501.517	6958.14
501.72	7019.58
501.923	7001.15
502.126	7136.32
502.329	7322.68
502.532	7353.4
502.735	7404.6
502.938	7443.51
503.141	7408.7
503.344	7638.07
503.547	7812.15
503.75	7681.08
503.953	7801.91
504.156	7834.68
504.359	8109.1
504.562	7982.13
504.765	8434.73
504.968	8244.27
505.17	8385.58
505.373	8352.81
505.576	8518.7
505.779	8643.62
505.982	8664.1
506.185	8844.32
506.387	8846.37
506.59	8748.07
506.793	9106.46
506.996	9071.65
507.198	9452.57
507.401	9268.25
507.604	9489.43
507.807	9550.87
508.009	9522.2
508.212	9661.46
508.415	9868.31
508.617	9982.99
508.82	9868.31
509.022	9985.04
509.225	10155.02
509.428	10411.02
509.63	10486.79
509.833	10425.36
510.035	10920.96
510.238	10845.19
510.44	10996.74
510.643	11123.71
510.845	11111.43
511.048	11121.66
511.25	11291.65
511.453	11170.82
511.655	11641.85
511.858	11504.64
512.06	11860.98
512.262	11719.67
512.465	11840.5
512.667	12047.35
512.87	12116.98
513.072	12174.32
513.274	12528.62
513.477	12643.31
513.679	12710.89
513.881	12721.13
514.084	12833.77
514.286	13003.75
514.488	13124.58
514.69	13620.19
514.893	13587.42
515.095	13296.61
515.297	13519.84
515.499	13788.12
515.701	13960.15
515.904	14248.91
516.106	14179.28
516.308	14218.19
516.51	14390.22
516.712	14300.11
516.914	14769.1
517.116	14894.02
517.318	14930.89
517.52	14937.03
517.722	15068.1
517.925	15451.07
518.127	15487.93
518.329	15731.64
518.531	15492.03
518.733	16063.41
518.935	16065.46
519.136	16313.27
519.338	16260.02
519.54	16196.53
519.742	16507.82
519.944	16888.74
520.146	17011.62
520.348	16835.5
520.55	17025.96
520.752	17154.98
520.954	17556.38
521.155	17249.19
521.357	17511.33
521.559	17439.65
521.761	17941.4
521.963	17943.45
522.164	18312.08
522.366	18123.67
522.568	18314.13
522.77	18656.14
522.971	18981.77
523.173	18625.42
523.375	18877.32
523.576	18654.09
523.778	18709.39
523.98	19297.16
524.181	19356.55
524.383	19188.61
524.584	19579.78
524.786	19592.06
524.988	19479.43
525.189	19915.64
525.391	20079.48
525.592	19876.73
525.794	20069.24
525.995	20312.95
526.197	20519.79
526.398	20280.18
526.6	20429.68
526.801	20964.2
527.003	20519.79
527.204	20540.27
527.406	21037.93
527.607	20880.24
527.808	21048.17
528.01	20689.77
528.211	21316.45
528.412	21500.77
528.614	21617.5
528.815	21257.06
529.016	21640.03
529.218	21564.26
529.419	21611.36
529.62	21730.14
529.822	21576.55
530.023	21703.52
530.224	21400.42
530.425	21674.85
530.626	21887.84
530.828	21613.41
531.029	21953.37
531.23	21617.5
531.431	21982.04
531.632	21941.08
531.833	21875.55
532.035	21861.21
532.236	22334.29
532.437	22070.11
532.638	22008.67
532.839	22119.26
533.04	22111.07
533.241	22125.4
533.442	22594.39
533.643	22295.38
533.844	22285.14
534.045	22539.09
534.246	21990.24
534.447	22195.03
534.648	22401.88
534.849	22117.21
535.05	22393.68
535.251	22213.46
535.451	22365.01
535.652	22272.85
535.853	22291.29
536.054	22231.9
536.255	22289.24
536.456	22180.7
536.657	22657.87
536.857	22461.27
537.058	22317.91
537.259	22412.12
537.46	22647.63
537.66	22377.3
537.861	22260.57
538.062	22375.25
538.263	22401.88
538.463	22365.01
538.664	22221.66
538.865	22522.71
539.065	22551.38
539.266	21900.12
539.466	22801.23
539.667	22205.27
539.868	22463.32
540.068	22297.43
540.269	22557.52
540.469	22387.54
540.67	22346.58
540.87	22346.58
541.071	22238.04
541.271	22387.54
541.472	22489.94
541.672	22682.45
541.873	22297.43
542.073	22047.58
542.274	22672.21
542.474	22395.73
542.675	22246.23
542.875	22379.35
543.075	22338.39
543.276	21879.64
543.476	22401.88
543.676	22528.85
543.877	22221.66
544.077	22645.59
544.277	22315.86
544.478	22125.4
544.678	22270.81
544.878	21975.9
545.078	22170.46
545.279	22420.31
545.479	22059.87
545.679	22635.35
545.879	22279
546.079	22524.75
546.28	22147.93
546.48	22111.07
546.68	22145.88
546.88	22154.07
547.08	22199.13
547.28	22508.37
547.48	22135.64
547.68	22223.7
547.88	22303.57
548.081	22170.46
548.281	22287.19
548.481	22303.57
548.681	22250.33
548.881	22268.76
549.081	22104.92
549.28	22166.36
549.48	22324.05
549.68	22387.54
549.88	22389.59
550.08	22242.14
550.28	22203.22
550.48	21994.33
550.68	22256.47
550.88	22149.98
551.08	22041.43
551.279	22166.36
551.479	21949.28
551.679	22121.31
551.879	22156.12
552.079	21992.28
552.278	21920.6
552.478	22006.62
552.678	22043.48
552.878	22166.36
553.077	22166.36
553.277	21873.5
553.477	22051.67
553.676	22012.76
553.876	22000.47
554.076	22201.18
554.275	22244.18
554.475	22025.05
554.674	22006.62
554.874	22121.31
555.074	21848.93
555.273	22035.29
555.473	21801.82
555.672	21539.68
555.872	21828.45
556.071	21670.75
556.271	21748.57
556.47	21822.3
556.67	21549.92
556.869	21308.26
557.068	21715.81
557.268	21551.97
557.467	21680.99
557.667	21531.49
557.866	21787.49
558.065	21777.25
558.265	21558.11
558.464	21379.94
558.663	21590.88
558.863	21437.28
559.062	21578.59
559.261	21373.8
559.461	21101.42
559.66	21189.48
559.859	21336.93
560.058	21068.65
560.258	21097.32
560.457	20831.08
560.656	21287.78
560.855	20988.78
561.054	21011.31
561.253	20777.84
561.453	21166.95
561.652	20949.87
561.851	21005.16
562.05	20984.68
562.249	20603.76
562.448	21056.36
562.647	20980.59
562.846	20671.34
563.045	20769.65
563.244	20364.15
563.443	20929.39
563.642	20296.56
563.841	20558.7
564.04	20427.63
564.239	20507.51
564.438	20251.51
564.637	20163.45
564.836	20480.88
565.035	20269.94
565.234	20222.84
565.432	19911.55
565.631	20132.73
565.83	20382.58
566.029	19944.31
566.228	19833.72
566.427	20099.96
566.625	19676.03
566.824	19635.07
567.023	19858.3
567.222	19532.67
567.42	19913.59
567.619	19630.98
567.818	19516.29
568.016	19536.77
568.215	19647.36
568.414	19532.67
568.612	19555.2
568.811	19319.68
569.01	19231.62
569.208	19147.65
569.407	19266.44
569.605	19168.13
569.804	19184.52
570.002	18684.81
570.201	19049.35
570.4	18611.09
570.598	18738.06
570.797	18744.2
570.995	18867.08
571.193	18588.56
571.392	18729.87
571.59	18324.37
571.789	18678.67
571.987	18387.86
572.186	18580.37
572.384	18381.71
572.582	18457.49
572.781	18283.41
572.979	18111.38
573.177	18305.94
573.376	18271.12
573.574	17992.6
573.772	18176.92
573.971	17951.64
574.169	17798.04
574.367	17931.16
574.565	17968.02
574.763	17697.69
574.962	17728.41
575.16	17562.53
575.358	17734.56
575.556	17349.54
575.754	17943.45
575.952	17464.22
576.151	17494.94
576.349	17482.66
576.547	17249.19
576.745	17185.7
576.943	17544.09
577.141	17263.52
577.339	17216.42
577.537	17382.31
577.735	17025.96
577.933	16903.08
578.131	16884.65
578.329	16911.27
578.527	16858.03
578.725	16823.21
578.923	16970.66
579.121	16708.52
579.319	16829.35
579.516	16927.66
579.714	16894.89
579.912	16780.2
580.11	16350.13
580.308	16577.45
580.506	16546.73
580.704	16221.11
580.901	16470.96
581.099	16489.39
581.297	16202.68
581.495	16268.21
581.692	16444.34
581.89	16083.89
582.088	16282.55
582.285	16163.76
582.483	16049.08
582.681	16122.8
582.878	15954.87
583.076	15924.15
583.274	15907.77
583.471	15702.97
583.669	15690.68
583.866	15553.47
584.064	15969.21
584.262	15700.92
584.459	15936.44
584.657	15612.86
584.854	15567.81
585.052	15190.98
585.249	15451.07
585.447	15432.64
585.644	15133.64
585.841	15467.45
586.039	15485.89
586.236	15240.13
586.434	15291.33
586.631	15295.43
586.828	15279.04
587.026	15027.14
587.223	14973.89
587.42	14971.85
587.618	15086.53
587.815	14736.33
588.012	14844.87
588.21	14609.36
588.407	15143.88
588.604	14756.81
588.801	14435.28
588.999	14666.7
589.196	14830.54
589.393	14801.86
589.59	14492.62
589.787	14375.89
589.984	14547.92
590.182	14298.06
590.379	14404.56
590.576	14459.85
590.773	14250.96
590.97	14285.78
591.167	14361.55
591.364	14228.43
591.561	14140.37
591.758	14035.92
591.955	14171.09
592.152	14113.75
592.349	13880.28
592.546	13951.96
592.743	13972.44
592.94	13568.99
593.137	13878.23
593.334	14060.5
593.531	13796.31
593.727	13781.98
593.924	13757.4
594.121	13622.23
594.318	13718.49
594.515	13376.48
594.712	13419.49
594.908	13542.36
595.105	13616.09
595.302	13321.18
595.499	13405.15
595.696	13233.12
595.892	12942.31
596.089	13155.3
596.286	13220.83
596.482	13356
596.679	13034.47
596.876	13038.56
597.072	13007.84
597.269	12958.69
597.466	13046.76
597.662	12792.81
597.859	12903.4
598.055	13054.95
598.252	12674.03
598.448	12827.62
598.645	12751.85
598.841	12606.44
599.038	12749.8
599.234	12676.07
599.431	12682.22
599.627	12422.13
599.824	12469.23
600.02	12372.97
600.217	12493.8
600.413	12307.44
600.609	12430.32
600.806	12424.17
601.002	12471.28
601.198	12336.11
601.395	12119.03
601.591	12174.32
601.787	12076.02
601.984	12110.83
602.18	12162.03
602.376	12088.31
602.572	12108.79
602.769	11824.12
602.965	11860.98
603.161	11901.94
603.357	11830.26
603.553	11801.59
603.75	11766.78
603.946	11627.51
604.142	12059.63
604.338	11533.31
604.534	11469.82
604.73	11529.21
604.926	11574.27
605.122	11559.93
605.318	11508.73
605.514	11475.96
605.71	11459.58
605.906	11482.11
606.102	11455.48
606.298	11217.92
606.494	11293.69
606.69	11162.62
606.886	11404.28
607.082	10988.55
607.278	11168.77
607.474	11160.58
607.67	11213.82
607.866	10945.54
608.062	11299.84
608.257	11133.95
608.453	11015.17
608.649	10906.63
608.845	10832.9
609.041	10865.67
609.236	10957.83
609.432	11019.27
609.628	11009.03
609.824	10920.96
610.019	10816.52
610.215	10748.93
610.411	10957.83
610.606	10589.19
610.802	10822.66
610.998	10769.41
611.193	10810.37
611.389	10607.62
611.584	10642.44
611.78	10587.15
611.976	10630.15
612.171	10648.58
612.367	10630.15
612.562	10673.16
612.758	10562.57
612.953	10304.53
613.149	10492.94
613.344	10249.23
613.539	10443.79
613.735	10337.29
613.93	10347.53
614.126	10314.77
614.321	10290.19
614.517	10400.78
614.712	10165.26
614.907	10155.02
615.103	10210.32
615.298	10312.72
615.493	10316.81
615.688	10189.84
615.884	10277.9
616.079	9997.33
616.274	10042.39
616.47	9939.99
616.665	10040.34
616.86	10011.67
617.055	10030.1
617.25	10075.15
617.445	9966.61
617.641	9825.3
617.836	9933.84
618.031	9866.26
618.226	9972.75
618.421	9767.96
618.616	9974.8
618.811	9554.97
619.006	9839.64
619.201	9581.59
619.396	9804.82
619.591	9618.46
619.786	9774.1
619.981	9520.15
620.176	9452.57
620.371	9497.63
620.566	9421.85
620.761	9190.43
620.956	9376.8
621.151	9303.07
621.346	9362.46
621.541	9131.04
621.735	9241.63
621.93	8959.01
622.125	9178.14
622.32	9002.02
622.515	9090.08
622.709	8983.59
622.904	8979.49
623.099	8877.09
623.294	8743.97
623.488	8723.49
623.683	8705.06
623.878	8776.74
624.072	8866.85
624.267	8739.88
624.462	8541.22
624.656	8500.26
624.851	8576.04
625.046	8408.11
625.24	8361
625.435	8356.91
625.629	8410.15
625.824	8342.57
626.018	8387.63
626.213	8127.53
626.407	8213.55
626.602	8023.09
626.796	8027.18
626.991	8053.81
627.185	8096.82
627.38	7906.35
627.574	8037.42
627.768	7697.46
627.963	7724.08
628.157	7803.96
628.352	7640.12
628.546	7562.3
628.74	7699.51
628.935	7654.45
629.129	7638.07
629.323	7470.14
629.517	7554.1
629.712	7371.83
629.906	7478.33
630.1	7425.08
630.294	7339.07
630.489	7279.68
630.683	7160.89
630.877	7236.67
631.071	7326.78
631.265	7441.47
631.459	7087.17
631.653	7074.88
631.848	6868.03
632.042	7050.3
632.236	6863.94
632.43	7005.25
632.624	6863.94
632.818	6872.13
633.012	6681.67
633.206	6730.82
633.4	6753.35
633.594	6667.33
633.788	6646.85
633.982	6792.26
634.176	6732.87
634.369	6634.57
634.563	6605.89
634.757	6581.32
634.951	6640.71
635.145	6536.26
635.339	6466.63
635.533	6411.34
635.726	6358.09
635.92	6339.66
636.114	6458.44
636.308	6394.95
636.501	6270.03
636.695	6181.96
636.889	6300.75
637.083	6161.48
637.276	6071.37
637.47	6138.96
637.664	6032.46
637.857	6054.99
638.051	5882.96
638.244	5807.19
638.438	5835.86
638.632	5936.21
638.825	5811.28
639.019	5887.06
639.212	5823.57
639.406	5813.33
639.599	5764.18
639.793	5596.25
639.986	5590.1
640.18	5586.01
640.373	5622.87
640.567	5393.5
640.76	5618.77
640.954	5477.46
641.147	5381.21
641.34	5573.72
641.534	5543
641.727	5346.39
641.92	5405.78
642.114	5338.2
642.307	5434.46
642.5	5278.81
642.694	5223.51
642.887	5258.33
643.08	5252.19
643.273	5221.47
643.467	5088.35
643.66	5190.75
643.853	5082.21
644.046	5102.68
644.239	5026.91
644.432	5002.33
644.626	4906.08
644.819	5063.77
645.012	4983.9
645.205	4947.04
645.398	4961.37
645.591	4838.5
645.784	4973.66
645.977	4781.15
646.17	4752.48
646.363	4871.26
646.556	4678.76
646.749	4648.04
646.942	4674.66
647.135	4662.37
647.328	4709.47
647.521	4705.38
647.714	4455.53
647.907	4516.97
648.099	4471.91
648.292	4510.82
648.485	4541.54
648.678	4592.74
648.871	4330.6
649.064	4500.58
649.256	4461.67
649.449	4408.42
649.642	4402.28
649.835	4226.15
650.027	4334.7
650.22	4363.37
650.413	4281.45
650.605	4410.47
650.798	4195.43
650.991	4095.08
651.183	4144.24
651.376	4197.48
651.568	4211.82
651.761	4172.91
651.954	4074.6
652.146	4101.23
652.339	4037.74
652.531	4041.84
652.724	3875.95
652.916	3808.37
653.109	3902.58
653.301	3869.81
653.494	3884.14
653.686	3947.63
653.879	3890.29
654.071	3951.73
654.263	3837.04
654.456	3802.22
654.648	3800.18
654.84	3740.79
655.033	3912.81
655.225	3728.5
655.417	3779.7
655.61	3859.57
655.802	3748.98
655.994	3714.16
656.186	3679.35
656.379	3667.06
656.571	3662.96
656.763	3746.93
656.955	3566.71
657.148	3470.45
657.34	3611.76
657.532	3591.28
657.724	3425.4
657.916	3452.02
658.108	3511.41
658.3	3439.73
658.492	3505.27
658.684	3378.3
658.876	3441.78
659.068	3312.76
659.26	3329.14
659.452	3327.1
659.644	3345.53
659.836	3271.8
660.028	3374.2
660.22	3208.31
660.412	3304.57
660.604	3314.81
660.796	3325.05
660.988	3193.98
661.18	3259.51
661.372	3267.7
661.563	3153.02
661.755	3150.97
661.947	3140.73
662.139	3228.79
662.331	3089.53
662.522	3095.68
662.714	2952.32
662.906	3198.07
663.097	3021.95
663.289	2897.02
663.481	2882.69
663.673	3128.44
663.864	2983.04
664.056	2995.32
664.247	2940.03
664.439	2894.97
664.631	2937.98
664.822	2909.31
665.014	2858.11
665.205	2929.79
665.397	2821.25
665.588	2954.37
665.78	2804.86
665.971	2897.02
666.163	2817.15
666.354	2788.48
666.546	2790.53
666.737	2901.12
666.929	2798.72
667.12	2589.83
667.311	2718.85
667.503	2659.46
667.694	2772.1
667.885	2739.33
668.077	2751.62
668.268	2667.65
668.459	2561.16
668.651	2696.32
668.842	2628.74
669.033	2471.04
669.224	2520.2
669.416	2649.22
669.607	2581.64
669.798	2634.88
669.989	2659.46
670.18	2544.77
670.371	2544.77
670.563	2352.26
670.754	2501.76
670.945	2589.83
671.136	2473.09
671.327	2473.09
671.518	2495.62
671.709	2446.47
671.9	2485.38
672.091	2497.67
672.282	2458.76
672.473	2430.09
672.664	2462.85
672.855	2372.74
673.046	2299.02
673.237	2550.92
673.428	2491.52
673.619	2391.17
673.809	2337.93
674	2313.35
674.191	2364.55
674.382	2292.87
674.573	2346.12
674.764	2274.44
674.954	2276.49
675.145	2292.87
675.336	2401.41
675.527	2264.2
675.717	2251.91
675.908	2282.63
676.099	2161.8
676.289	2446.47
676.48	2264.2
676.671	2284.68
676.861	2272.39
677.052	2223.24
677.243	2139.27
677.433	2206.86
677.624	2206.86
677.814	2145.42
678.005	2071.69
678.195	2153.61
678.386	2237.58
678.576	2077.83
678.767	2159.75
678.957	2241.67
679.148	2249.86
679.338	2139.27
679.529	2067.6
679.719	2026.64
679.909	2276.49
680.1	2243.72
680.29	2143.37
680.481	2045.07
680.671	2155.66
680.861	2151.56
681.052	2083.98
681.242	1971.34
681.432	2116.75
681.622	2129.03
681.813	2100.36
682.003	2045.07
682.193	2022.54
682.383	2053.26
682.573	1965.2
682.764	2098.31
682.954	2143.37
683.144	2141.32
683.334	2098.31
683.524	1965.2
683.714	2088.07
683.904	2055.31
684.094	2010.25
684.284	2088.07
684.474	2016.4
684.664	1985.68
684.854	2038.92
685.044	2098.31
685.234	1850.51
685.424	2034.83
685.614	2036.88
685.804	2038.92
685.994	1989.77
686.184	1950.86
686.374	1930.38
686.564	1877.13
686.753	1911.95
686.943	1858.7
687.133	1989.77
687.323	1885.33
687.513	1967.24
687.702	1864.85
687.892	1914
688.082	1850.51
688.272	1928.33
688.461	1905.81
688.651	1903.76
688.841	1815.69
689.03	1825.93
689.22	1739.92
689.41	1737.87
689.599	1901.71
689.789	1787.02
689.979	1805.46
690.168	1797.26
690.358	1817.74
690.547	1895.57
690.737	1819.79
690.926	1819.79
691.116	1801.36
691.305	1803.41
691.495	1756.3
691.684	1692.82
691.874	1823.89
692.063	1789.07
692.252	1748.11
692.442	1731.73
692.631	1580.18
692.82	1619.09
693.01	1729.68
693.199	1655.95
693.388	1729.68
693.578	1658
693.767	1784.98
693.956	1680.53
694.146	1774.74
694.335	1623.19
694.524	1598.61
694.713	1668.24
694.902	1725.58
695.092	1600.66
695.281	1784.98
695.47	1510.55
695.659	1653.91
695.848	1610.9
696.037	1606.8
696.226	1692.82
696.415	1658
696.604	1520.79
696.793	1676.43
696.982	1571.99
697.171	1574.03
697.36	1545.36
697.549	1664.15
697.738	1584.27
697.927	1625.23
698.116	1604.75
698.305	1584.27
698.494	1680.53
698.683	1555.6
698.872	1723.54
699.061	1457.3
699.25	1512.6
699.438	1569.94
699.627	1596.56
699.816	1666.19
700.005	1475.73
700.193	1518.74
700.382	1551.51
700.571	1631.38
700.76	1500.31
700.948	1594.51
701.137	1614.99
701.326	1580.18
701.514	1467.54
701.703	1625.23
701.892	1625.23
702.08	1617.04
702.269	1545.36
702.457	1586.32
702.646	1457.3
702.834	1637.52
703.023	1578.13
703.212	1553.55
703.4	1483.92
703.589	1504.4
703.777	1541.27
703.965	1496.21
704.154	1537.17
704.342	1455.25
704.531	1469.59
704.719	1516.69
704.907	1541.27
705.096	1578.13
705.284	1436.82
705.472	1580.18
705.661	1420.44
705.849	1451.16
706.037	1631.38
706.226	1606.8
706.414	1485.97
706.602	1455.25
706.79	1541.27
706.979	1551.51
707.167	1563.79
707.355	1461.4
707.543	1547.41
707.731	1520.79
707.919	1547.41
708.107	1690.77
708.296	1473.68
708.484	1578.13
708.672	1545.36
708.86	1676.43
709.048	1553.55
709.236	1602.71
709.424	1453.2
709.612	1551.51
709.8	1545.36
709.988	1567.89
710.176	1492.12
710.364	1539.22
710.551	1625.23
710.739	1518.74
710.927	1684.62
711.115	1651.86
711.303	1696.91
711.491	1506.45
711.679	1559.7
711.866	1623.19
712.054	1576.08
712.242	1655.95
712.43	1682.58
712.617	1543.32
712.805	1698.96
712.993	1512.6
713.181	1580.18
713.368	1588.37
713.556	1590.42
713.744	1653.91
713.931	1641.62
714.119	1592.47
714.306	1578.13
714.494	1789.07
714.682	1559.7
714.869	1580.18
715.057	1690.77
715.244	1571.99
715.432	1612.95
715.619	1641.62
715.807	1535.12
715.994	1627.28
716.182	1719.44
716.369	1658
716.556	1602.71
716.744	1514.64
716.931	1608.85
717.119	1707.15
717.306	1596.56
717.493	1623.19
717.681	1696.91
717.868	1684.62
718.055	1580.18
718.242	1569.94
718.43	1637.52
718.617	1610.9
718.804	1629.33
718.991	1787.02
719.179	1731.73
719.366	1658
719.553	1590.42
719.74	1651.86
719.927	1627.28
720.114	1580.18
720.301	1625.23
720.488	1698.96
720.676	1705.1
720.863	1637.52
721.05	1797.26
721.237	1574.03
721.424	1748.11
721.611	1684.62
721.798	1750.16
721.985	1600.66
722.172	1641.62
722.358	1686.67
722.545	1639.57
722.732	1674.39
722.919	1639.57
723.106	1651.86
723.293	1588.37
723.48	1707.15
723.667	1541.27
723.853	1670.29
724.04	1582.23
724.227	1772.69
724.414	1567.89
724.6	1662.1
724.787	1600.66
724.974	1621.14
725.161	1705.1
725.347	1639.57
725.534	1692.82
725.72	1645.71
725.907	1784.98
726.094	1744.02
726.28	1739.92
726.467	1733.78
726.653	1739.92
726.84	1744.02
727.027	1694.86
727.213	1651.86
727.4	1692.82
727.586	1707.15
727.773	1707.15
727.959	1610.9
728.145	1688.72
728.332	1678.48
728.518	1758.35
728.705	1789.07
728.891	1608.85
729.077	1694.86
729.264	1682.58
729.45	1703.06
729.636	1707.15
729.823	1686.67
730.009	1664.15
730.195	1735.82
730.382	1748.11
730.568	1780.88
730.754	1760.4
730.94	1782.93
731.126	1672.34
731.313	1703.06
731.499	1889.42
731.685	1719.44
731.871	1762.45
732.057	1801.36
732.243	1750.16
732.429	1772.69
732.615	1744.02
732.801	1797.26
732.987	1692.82
733.173	1682.58
733.359	1752.21
733.545	1813.65
733.731	1764.5
733.917	1758.35
734.103	1739.92
734.289	1766.54
734.475	1701.01
734.661	1715.34
734.847	1686.67
735.033	1748.11
735.219	1709.2
735.404	1666.19
735.59	1744.02
735.776	1707.15
735.962	1758.35
736.148	1635.47
736.333	1735.82
736.519	1666.19
736.705	1694.86
736.89	1686.67
737.076	1778.83
737.262	1813.65
737.447	1703.06
737.633	1807.5
737.819	1770.64
738.004	1653.91
738.19	1692.82
738.375	1602.71
738.561	1803.41
738.747	1625.23
738.932	1582.23
739.118	1686.67
739.303	1752.21
739.489	1717.39
739.674	1680.53
739.859	1690.77
740.045	1649.81
740.23	1707.15
740.416	1680.53
740.601	1715.34
740.786	1637.52
740.972	1602.71
741.157	1600.66
741.342	1641.62
741.528	1666.19
741.713	1735.82
741.898	1627.28
742.084	1662.1
742.269	1592.47
742.454	1658
742.639	1709.2
742.824	1545.36
743.01	1614.99
743.195	1567.89
743.38	1612.95
743.565	1488.02
743.75	1600.66
743.935	1619.09
744.12	1518.74
744.305	1578.13
744.49	1571.99
744.675	1516.69
744.86	1561.75
745.045	1682.58
745.23	1459.35
745.415	1569.94
745.6	1666.19
745.785	1514.64
745.97	1549.46
746.155	1561.75
746.34	1537.17
746.525	1488.02
746.71	1459.35
746.895	1422.48
747.079	1447.06
747.264	1420.44
747.449	1422.48
747.634	1404.05
747.819	1420.44
748.003	1389.72
748.188	1402.01
748.373	1348.76
748.557	1373.33
748.742	1383.57
748.927	1332.37
749.111	1363.09
749.296	1391.77
749.481	1406.1
749.665	1373.33
749.85	1322.13
750.034	1428.63
750.219	1363.09
750.404	1289.37
750.588	1346.71
750.773	1266.84
750.957	1313.94
751.141	1203.35
751.326	1277.08
751.51	1223.83
751.695	1254.55
751.879	1275.03
752.064	1258.65
752.248	1326.23
752.432	1217.69
752.617	1293.46
752.801	1223.83
752.985	1264.79
753.17	1250.46
753.354	1158.3
753.538	1170.58
753.722	1238.17
753.907	1139.87
754.091	1148.06
754.275	1195.16
754.459	1080.47
754.643	1068.19
754.828	1141.91
755.012	1223.83
755.196	1189.02
755.38	1135.77
755.564	1199.26
755.748	1103
755.932	1150.11
756.116	1072.28
756.3	1076.38
756.484	1078.43
756.668	982.17
756.852	1121.43
757.036	1047.71
757.22	1037.47
757.404	1010.84
757.588	996.51
757.772	1121.43
757.956	1019.04
758.14	1041.56
758.323	986.27
758.507	1059.99
758.691	1023.13
758.875	1053.85
759.059	973.98
759.242	957.6
759.426	904.35
759.61	996.51
759.794	963.74
759.977	976.03
760.161	986.27
760.345	949.4
760.528	894.11
760.712	912.54
760.895	924.83
761.079	922.78
761.263	955.55
761.446	879.77
761.63	867.49
761.813	871.58
761.997	887.97
762.18	859.29
762.364	818.33
762.547	847.01
762.731	898.2
762.914	935.07
763.098	906.4
763.281	814.24
763.464	818.33
763.648	842.91
763.831	765.09
764.015	867.49
764.198	838.81
764.381	789.66
764.564	859.29
764.748	746.66
764.931	832.67
765.114	793.76
765.297	793.76
765.481	758.94
765.664	769.18
765.847	789.66
766.03	816.29
766.213	783.52
766.397	822.43
766.58	693.41
766.763	791.71
766.946	842.91
767.129	783.52
767.312	801.95
767.495	773.28
767.678	730.27
767.861	756.9
768.044	650.4
768.227	801.95
768.41	744.61
768.593	808.09
768.776	806.05
768.959	797.85
769.142	779.42
769.324	742.56
769.507	746.66
769.69	742.56
769.873	744.61
770.056	754.85
770.239	699.55
770.421	763.04
770.604	699.55
770.787	664.74
770.97	760.99
771.152	677.02
771.335	771.23
771.518	674.98
771.7	711.84
771.883	746.66
772.066	648.35
772.248	642.21
772.431	705.7
772.613	728.22
772.796	711.84
772.978	693.41
773.161	693.41
773.343	584.87
773.526	627.87
773.708	656.54
773.891	621.73
774.073	697.5
774.256	621.73
774.438	666.78
774.621	570.53
774.803	658.59
774.985	615.59
775.168	576.67
775.35	625.83
775.532	638.11
775.715	660.64
775.897	529.57
776.079	562.34
776.261	478.37
776.444	564.39
776.626	564.39
776.808	578.72
776.99	599.2
777.173	556.19
777.355	552.1
777.537	535.71
777.719	545.95
777.901	509.09
778.083	537.76
778.265	521.38
778.447	568.48
778.629	468.13
778.811	566.43
778.993	502.95
779.175	568.48
779.357	550.05
779.539	543.91
779.721	492.71
779.903	498.85
780.085	529.57
780.267	560.29
780.449	554.15
780.631	535.71
780.812	539.81
780.994	429.22
781.176	523.43
781.358	500.9
781.54	402.6
781.721	464.04
781.903	380.07
782.085	404.64
782.267	504.99
782.448	461.99
782.63	402.6
782.812	402.6
782.993	431.27
783.175	447.65
783.357	378.02
783.538	451.75
783.72	355.49
783.901	392.36
784.083	408.74
784.264	431.27
784.446	369.83
784.627	380.07
784.809	375.97
784.99	453.8
785.172	300.2
785.353	441.51
785.535	498.85
785.716	406.69
785.897	341.16
786.079	386.21
786.26	451.75
786.441	363.69
786.623	433.32
786.804	408.74
786.985	369.83
787.167	300.2
787.348	339.11
787.529	277.67
787.71	441.51
787.891	367.78
788.073	283.81
788.254	285.86
788.435	369.83
788.616	349.35
788.797	283.81
788.978	355.49
789.159	283.81
789.34	298.15
789.522	298.15
789.703	273.57
789.884	285.86
790.065	388.26
790.246	314.53
790.427	316.58
790.607	347.3
790.788	341.16
790.969	249
791.15	292.01
791.331	279.72
791.512	314.53
791.693	273.57
791.874	322.73
792.054	289.96
792.235	312.49
792.416	341.16
792.597	310.44
792.778	320.68
792.958	240.81
793.139	273.57
793.32	302.25
793.5	226.47
793.681	263.33
793.862	246.95
794.042	257.19
794.223	339.11
794.404	210.09
794.584	201.9
794.765	255.14
794.945	275.62
795.126	271.53
795.306	318.63
795.487	220.33
795.667	292.01
795.848	259.24
796.028	271.53
796.209	224.42
796.389	226.47
796.57	201.9
796.75	205.99
796.93	273.57
797.111	222.38
797.291	244.9
797.471	220.33
797.652	136.36
797.832	216.23
798.012	224.42
798.192	146.6
798.373	144.55
798.553	208.04
798.733	281.77
798.913	246.95
799.093	224.42
799.274	216.23
799.454	218.28
799.634	261.29
799.814	148.65
799.994	216.23
800.174	214.18
800.354	257.19
800.534	183.46
800.714	255.14
800.894	146.6
801.074	224.42
801.254	158.89
801.434	199.85
801.614	189.61
801.794	162.98
801.974	709.79
802.154	191.66
802.334	150.7
802.514	122.02
802.693	154.79
802.873	263.33
803.053	330.92
803.233	165.03
803.413	208.04
803.592	124.07
803.772	154.79
803.952	126.12
804.131	93.35
804.311	191.66
804.491	154.79
804.67	181.42
804.85	203.94
805.03	220.33
805.209	228.52
805.389	208.04
805.568	208.04
805.748	144.55
805.928	175.27
806.107	212.14
806.287	179.37
806.466	81.07
806.646	216.23
806.825	76.97
807.004	181.42
807.184	197.8
807.363	179.37
807.543	185.51
807.722	136.36
807.901	150.7
808.081	136.36
808.26	197.8
808.439	132.26
808.619	66.73
808.798	162.98
808.977	122.02
809.156	160.94
809.336	160.94
809.515	160.94
809.694	95.4
809.873	146.6
810.052	150.7
810.231	136.36
810.411	136.36
810.59	177.32
810.769	150.7
810.948	146.6
811.127	103.59
811.306	142.5
811.485	124.07
811.664	183.46
811.843	142.5
812.022	109.74
812.201	115.88
812.38	162.98
812.559	126.12
812.737	185.51
812.916	105.64
813.095	115.88
813.274	154.79
813.453	148.65
813.632	70.83
813.811	85.16
813.989	134.31
814.168	165.03
814.347	107.69
814.526	140.46
814.704	144.55
814.883	171.18
815.062	23.72
815.24	97.45
815.419	99.5
815.598	191.66
815.776	101.55
815.955	171.18
816.133	64.68
816.312	70.83
816.49	93.35
816.669	101.55
816.847	144.55
817.026	81.07
817.204	103.59
817.383	62.63
817.561	154.79
817.74	87.21
817.918	191.66
818.097	83.11
818.275	177.32
818.453	138.41
818.632	179.37
818.81	142.5
818.988	117.93
819.167	40.11
819.345	62.63
819.523	169.13
819.701	122.02
819.879	70.83
820.058	150.7
820.236	158.89
820.414	68.78
820.592	54.44
820.77	95.4
820.948	113.83
821.127	58.54
821.305	144.55
821.483	83.11
821.661	152.74
821.839	169.13
822.017	101.55
822.195	83.11
822.373	126.12
822.551	93.35
822.729	68.78
822.907	109.74
823.085	160.94
823.262	56.49
823.44	50.35
823.618	93.35
823.796	79.02
823.974	31.91
824.152	38.06
824.329	99.5
824.507	136.36
824.685	68.78
824.863	36.01
825.04	97.45
825.218	62.63
825.396	72.87
825.574	85.16
825.751	97.45
825.929	15.53
826.107	83.11
826.284	52.39
826.462	60.59
826.639	142.5
826.817	48.3
826.994	99.5
827.172	56.49
827.349	126.12
827.527	64.68
827.704	44.2
827.882	76.97
828.059	74.92
828.237	31.91
828.414	27.82
828.591	25.77
828.769	111.78
828.946	36.01
829.124	66.73
829.301	107.69
829.478	29.87
829.655	29.87
829.833	79.02
830.01	95.4
830.187	56.49
830.364	64.68
830.542	81.07
830.719	42.15
830.896	52.39
831.073	87.21
831.25	76.97
831.427	68.78
831.604	103.59
831.782	29.87
831.959	48.3
832.136	52.39
832.313	142.5
832.49	15.53
832.667	72.87
832.844	44.2
833.021	138.41
833.198	23.72
833.374	111.78
833.551	48.3
833.728	17.58
833.905	60.59
834.082	48.3
834.259	72.87
834.436	23.72
834.612	42.15
834.789	50.35
834.966	97.45
835.143	76.97
835.319	-58.2
835.496	66.73
835.673	-11.09
835.85	74.92
836.026	85.16
836.203	54.44
836.38	97.45
836.556	36.01
836.733	48.3
836.909	101.55
837.086	79.02
837.262	19.63
837.439	5.29
837.616	7.34
837.792	93.35
837.968	81.07
838.145	44.2
838.321	52.39
838.498	89.26
838.674	89.26
838.851	23.72
839.027	31.91
839.203	19.63
839.38	58.54
839.556	25.77
839.732	11.43
839.909	-33.62
840.085	60.59
840.261	142.5
840.437	-19.29
840.614	19.63
840.79	17.58
840.966	33.96
841.142	21.67
841.318	-4.95
841.494	7.34
841.671	-72.53
841.847	27.82
842.023	64.68
842.199	1.19
842.375	-7
842.551	107.69
842.727	64.68
842.903	7.34
843.079	21.67
843.255	44.2
843.431	74.92
843.607	27.82
843.783	36.01
843.959	89.26
844.134	83.11
844.31	109.74
844.486	97.45
844.662	17.58
844.838	83.11
845.013	58.54
845.189	126.12
845.365	21.67
845.541	42.15
845.716	52.39
845.892	44.2
846.068	11.43
846.244	-11.09
846.419	42.15
846.595	-2.9
846.77	1.19
846.946	93.35
847.122	58.54
847.297	-4.95
847.473	-19.29
847.648	33.96
847.824	-9.05
847.999	-13.14
848.175	27.82
848.35	72.87
848.526	52.39
848.701	-19.29
848.876	99.5
849.052	89.26
849.227	68.78
849.403	70.83
849.578	-21.33
849.753	38.06
849.929	46.25
850.104	-27.48
850.279	-4.95
850.454	21.67
850.63	-11.09
850.805	-33.62
850.98	46.25
851.155	60.59
851.33	50.35
851.505	60.59
851.681	97.45
851.856	62.63
852.031	58.54
852.206	-9.05
852.381	95.4
852.556	31.91
852.731	46.25
852.906	115.88
853.081	11.43
853.256	50.35
853.431	48.3
853.606	48.3
853.781	54.44
853.956	-13.14
854.131	-23.38
854.305	40.11
854.48	-0.85
854.655	38.06
854.83	38.06
855.005	-29.52
855.18	38.06
855.354	3.24
855.529	52.39
855.704	17.58
855.879	46.25
856.053	-21.33
856.228	60.59
856.403	64.68
856.577	66.73
856.752	-78.68
856.926	119.98
857.101	87.21
857.276	5.29
857.45	-2.9
857.625	54.44
857.799	42.15
857.974	40.11
858.148	11.43
858.323	36.01
858.497	38.06
858.672	13.48
858.846	-31.57
859.02	21.67
859.195	5.29
859.369	-39.76
859.543	-7
859.718	-9.05
859.892	13.48
860.066	13.48
860.241	-15.19
860.415	52.39
860.589	-0.85
860.763	-2.9
860.938	-78.68
861.112	-2.9
861.286	-29.52
861.46	-4.95
861.634	-19.29
861.808	23.72
861.982	48.3
862.157	50.35
862.331	-11.09
862.505	-27.48
862.679	-60.24
862.853	27.82
863.027	-9.05
863.201	3.24
863.375	-17.24
863.549	58.54
863.722	21.67
863.896	27.82
864.07	-11.09
864.244	-47.96
864.418	44.2
864.592	25.77
864.766	13.48
864.939	31.91
865.113	-29.52
865.287	13.48
865.461	58.54
865.634	15.53
865.808	17.58
865.982	-11.09
866.156	1.19
866.329	-33.62
866.503	95.4
866.676	27.82
866.85	68.78
867.024	13.48
867.197	17.58
867.371	17.58
867.544	-15.19
867.718	-29.52
867.891	60.59
868.065	5.29
868.238	23.72
868.412	38.06
868.585	-33.62
868.759	-19.29
868.932	13.48
869.105	-47.96
869.279	38.06
869.452	11.43
869.625	52.39
869.799	-50
869.972	-54.1
870.145	36.01
870.319	52.39
870.492	3.24
870.665	15.53
870.838	-50
871.011	-35.67
871.185	76.97
871.358	-62.29
871.531	-25.43
871.704	-23.38
871.877	-31.57
872.05	-25.43
872.223	44.2
872.396	3.24
872.569	1.19
872.742	-31.57
872.915	21.67
873.088	-54.1
873.261	-15.19
873.434	29.87
873.607	60.59
873.78	-31.57
873.953	-62.29
874.126	-17.24
874.299	-4.95
874.471	95.4
874.644	3.24
874.817	103.59
874.99	58.54
875.163	27.82
875.335	17.58
875.508	3.24
875.681	48.3
875.853	31.91
876.026	38.06
876.199	11.43
876.371	46.25
876.544	-4.95
876.717	50.35
876.889	25.77
877.062	5.29
877.234	-31.57
877.407	54.44
877.579	7.34
877.752	46.25
877.924	25.77
878.097	-33.62
878.269	29.87
878.442	11.43
878.614	23.72
878.786	36.01
878.959	21.67
879.131	3.24
879.303	-45.91
879.476	-25.43
879.648	36.01
879.82	7.34
879.993	3.24
880.165	-41.81
880.337	-27.48
880.509	-13.14
880.681	5.29
880.854	68.78
881.026	27.82
881.198	11.43
881.37	27.82
881.542	-23.38
881.714	11.43
881.886	15.53
882.058	15.53
882.23	3.24
882.402	-50
882.574	33.96
882.746	-0.85
882.918	-15.19
883.09	50.35
883.262	-21.33
883.434	-13.14
883.606	-11.09
883.778	-23.38
883.95	27.82
884.122	-7
884.293	70.83
884.465	-29.52
884.637	15.53
884.809	-9.05
884.98	83.11
885.152	42.15
885.324	21.67
885.496	-11.09
885.667	-2.9
885.839	33.96
886.011	44.2
886.182	76.97
886.354	60.59
886.525	-29.52
886.697	-13.14
886.869	-2.9
887.04	31.91
887.212	-84.82
887.383	33.96
887.555	-19.29
887.726	-13.14
887.897	-54.1
888.069	-43.86
888.24	31.91
888.412	31.91
888.583	17.58
888.754	19.63
888.926	-84.82
889.097	3.24
889.268	-2.9
889.44	36.01
889.611	13.48
889.782	15.53
889.953	19.63
890.125	-4.95
890.296	21.67
890.467	29.87
890.638	-9.05
890.809	64.68
890.98	-15.19
891.151	-7
891.323	42.15
891.494	29.87
891.665	9.39
891.836	89.26
892.007	38.06
892.178	44.2
892.349	-17.24
892.52	-37.72
892.691	60.59
892.862	64.68
893.032	91.31
893.203	13.48
893.374	-9.05
893.545	3.24
893.716	-4.95
893.887	64.68
894.057	-43.86
894.228	38.06
894.399	-13.14
894.57	-4.95
894.74	36.01
894.911	-0.85
895.082	-17.24
895.253	-52.05
895.423	15.53
895.594	-13.14
895.764	-72.53
895.935	-23.38
896.106	-9.05
896.276	-21.33
896.447	15.53
896.617	68.78
896.788	79.02
896.958	11.43
897.129	62.63
897.299	7.34
897.47	23.72
897.64	23.72
897.81	29.87
897.981	-27.48
898.151	-31.57
898.322	9.39
898.492	87.21
898.662	13.48
898.832	-2.9
899.003	-9.05
899.173	-37.72
899.343	-31.57
899.513	-17.24
