Data from USB4F104151__62__13-11-59-016.txt Node

Date: Fri Mar 14 13:11:59 EDT 2025
User: louis
Spectrometer: USB4F10415
Trigger mode: 4
Integration Time (sec): 2.000000E-2
Scans to average: 1
Electric dark correction enabled: true
Nonlinearity correction enabled: false
Boxcar width: 0
XAxis mode: Wavelengths
Number of Pixels in Spectrum: 3648
>>>>>Begin Spectral Data<<<<<
178.204	-108.37
178.424	-108.37
178.644	-108.37
178.864	-137.04
179.084	-120.66
179.304	6.31
179.524	12.46
179.744	-32.6
179.964	110.76
180.184	-22.36
180.404	12.46
180.624	-51.03
180.844	8.36
181.064	-34.64
181.283	-18.26
181.503	6.31
181.723	2.22
181.943	2.22
182.163	110.76
182.383	4.27
182.602	-8.02
182.822	75.95
183.042	10.41
183.262	0.17
183.482	-16.21
183.701	28.84
183.921	-1.88
184.141	-12.12
184.361	59.56
184.58	67.75
184.8	28.84
185.02	41.13
185.239	133.29
185.459	16.55
185.679	75.95
185.898	-28.5
186.118	61.61
186.338	-46.93
186.557	63.66
186.777	41.13
186.997	4.27
187.216	2.22
187.436	53.42
187.655	88.23
187.875	20.65
188.095	16.55
188.314	12.46
188.534	53.42
188.753	12.46
188.973	34.99
189.192	123.05
189.412	43.18
189.631	-24.4
189.851	30.89
190.07	73.9
190.29	32.94
190.509	-16.21
190.729	14.51
190.948	75.95
191.168	149.67
191.387	75.95
191.607	43.18
191.826	51.37
192.045	45.23
192.265	53.42
192.484	18.6
192.704	112.81
192.923	28.84
193.142	-14.17
193.362	39.08
193.581	82.09
193.8	-8.02
194.02	-10.07
194.239	30.89
194.458	26.79
194.678	18.6
194.897	37.03
195.116	84.14
195.335	30.89
195.555	45.23
195.774	-1.88
195.993	30.89
196.212	55.47
196.432	-57.17
196.651	-8.02
196.87	14.51
197.089	34.99
197.308	41.13
197.528	34.99
197.747	30.89
197.966	4.27
198.185	143.53
198.404	51.37
198.623	73.9
198.842	10.41
199.062	57.51
199.281	129.19
199.5	86.19
199.719	34.99
199.938	20.65
200.157	34.99
200.376	2.22
200.595	166.06
200.814	2.22
201.033	14.51
201.252	34.99
201.471	22.7
201.69	53.42
201.909	30.89
202.128	-1.88
202.347	34.99
202.566	-10.07
202.785	47.27
203.004	-16.21
203.223	116.9
203.442	30.89
203.661	2.22
203.879	39.08
204.098	59.56
204.317	43.18
204.536	94.38
204.755	98.47
204.974	98.47
205.193	-36.69
205.411	51.37
205.63	37.03
205.849	77.99
206.068	34.99
206.287	80.04
206.505	20.65
206.724	28.84
206.943	45.23
207.162	37.03
207.381	86.19
207.599	32.94
207.818	24.75
208.037	69.8
208.255	41.13
208.474	32.94
208.693	-1.88
208.911	51.37
209.13	14.51
209.349	30.89
209.567	37.03
209.786	88.23
210.005	102.57
210.223	88.23
210.442	20.65
210.661	57.51
210.879	-14.17
211.098	114.86
211.316	10.41
211.535	39.08
211.753	37.03
211.972	67.75
212.191	118.95
212.409	18.6
212.628	65.71
212.846	-3.93
213.065	86.19
213.283	75.95
213.502	96.43
213.72	67.75
213.938	49.32
214.157	75.95
214.375	-3.93
214.594	32.94
214.812	84.14
215.031	4.27
215.249	49.32
215.467	84.14
215.686	26.79
215.904	149.67
216.122	-12.12
216.341	6.31
216.559	53.42
216.778	92.33
216.996	-1.88
217.214	39.08
217.432	43.18
217.651	-14.17
217.869	43.18
218.087	39.08
218.306	53.42
218.524	108.71
218.742	10.41
218.96	53.42
219.179	24.75
219.397	43.18
219.615	80.04
219.833	37.03
220.051	28.84
220.27	12.46
220.488	53.42
220.706	-40.79
220.924	18.6
221.142	43.18
221.36	22.7
221.578	49.32
221.796	34.99
222.015	26.79
222.233	110.76
222.451	61.61
222.669	-14.17
222.887	51.37
223.105	82.09
223.323	53.42
223.541	12.46
223.759	118.95
223.977	10.41
224.195	39.08
224.413	73.9
224.631	86.19
224.849	100.52
225.067	90.28
225.285	37.03
225.503	2.22
225.721	-40.79
225.939	10.41
226.157	133.29
226.375	121
226.592	2.22
226.81	75.95
227.028	18.6
227.246	92.33
227.464	45.23
227.682	55.47
227.9	28.84
228.117	51.37
228.335	41.13
228.553	-3.93
228.771	67.75
228.989	41.13
229.206	92.33
229.424	49.32
229.642	55.47
229.86	-10.07
230.077	90.28
230.295	8.36
230.513	69.8
230.731	57.51
230.948	69.8
231.166	26.79
231.384	94.38
231.601	-3.93
231.819	86.19
232.037	39.08
232.254	8.36
232.472	-14.17
232.689	57.51
232.907	41.13
233.125	-8.02
233.342	2.22
233.56	88.23
233.777	96.43
233.995	2.22
234.213	34.99
234.43	55.47
234.648	-18.26
234.865	37.03
235.083	47.27
235.3	110.76
235.518	43.18
235.735	55.47
235.953	61.61
236.17	14.51
236.388	-8.02
236.605	-1.88
236.822	75.95
237.04	53.42
237.257	14.51
237.475	57.51
237.692	6.31
237.909	22.7
238.127	61.61
238.344	43.18
238.562	100.52
238.779	88.23
238.996	57.51
239.214	24.75
239.431	20.65
239.648	34.99
239.865	69.8
240.083	108.71
240.3	59.56
240.517	32.94
240.735	22.7
240.952	96.43
241.169	73.9
241.386	34.99
241.603	28.84
241.821	18.6
242.038	43.18
242.255	94.38
242.472	6.31
242.689	-1.88
242.907	57.51
243.124	43.18
243.341	45.23
243.558	-42.84
243.775	-3.93
243.992	28.84
244.209	4.27
244.426	96.43
244.643	55.47
244.86	69.8
245.078	80.04
245.295	34.99
245.512	65.71
245.729	30.89
245.946	67.75
246.163	63.66
246.38	18.6
246.597	-12.12
246.814	18.6
247.031	37.03
247.248	55.47
247.464	133.29
247.681	69.8
247.898	57.51
248.115	2.22
248.332	47.27
248.549	43.18
248.766	98.47
248.983	10.41
249.2	90.28
249.417	18.6
249.633	-22.36
249.85	2.22
250.067	73.9
250.284	73.9
250.501	20.65
250.717	-22.36
250.934	34.99
251.151	18.6
251.368	-55.12
251.585	2.22
251.801	18.6
252.018	24.75
252.235	106.67
252.451	14.51
252.668	-42.84
252.885	137.38
253.102	45.23
253.318	37.03
253.535	12.46
253.752	37.03
253.968	67.75
254.185	-36.69
254.401	-22.36
254.618	28.84
254.835	22.7
255.051	125.1
255.268	18.6
255.484	-26.45
255.701	20.65
255.917	63.66
256.134	55.47
256.351	-1.88
256.567	137.38
256.784	59.56
257	-14.17
257.217	90.28
257.433	30.89
257.65	49.32
257.866	55.47
258.082	-36.69
258.299	37.03
258.515	67.75
258.732	59.56
258.948	51.37
259.165	75.95
259.381	53.42
259.597	-22.36
259.814	47.27
260.03	86.19
260.246	6.31
260.463	4.27
260.679	88.23
260.895	108.71
261.112	59.56
261.328	-14.17
261.544	8.36
261.761	26.79
261.977	28.84
262.193	22.7
262.409	30.89
262.626	20.65
262.842	28.84
263.058	65.71
263.274	92.33
263.49	10.41
263.707	49.32
263.923	18.6
264.139	26.79
264.355	-5.97
264.571	-18.26
264.787	45.23
265.004	45.23
265.22	77.99
265.436	49.32
265.652	37.03
265.868	-14.17
266.084	67.75
266.3	10.41
266.516	12.46
266.732	-1.88
266.948	37.03
267.164	94.38
267.38	53.42
267.596	34.99
267.812	51.37
268.028	-22.36
268.244	47.27
268.46	88.23
268.676	65.71
268.892	28.84
269.108	-28.5
269.324	47.27
269.54	-16.21
269.756	18.6
269.972	51.37
270.188	92.33
270.403	16.55
270.619	4.27
270.835	34.99
271.051	10.41
271.267	28.84
271.483	12.46
271.698	55.47
271.914	47.27
272.13	63.66
272.346	51.37
272.562	51.37
272.777	6.31
272.993	-8.02
273.209	28.84
273.425	88.23
273.64	22.7
273.856	61.61
274.072	22.7
274.287	2.22
274.503	26.79
274.719	30.89
274.934	12.46
275.15	63.66
275.366	41.13
275.581	-20.31
275.797	77.99
276.012	55.47
276.228	30.89
276.444	41.13
276.659	26.79
276.875	-26.45
277.09	26.79
277.306	-14.17
277.521	53.42
277.737	26.79
277.952	-3.93
278.168	137.38
278.383	49.32
278.599	26.79
278.814	92.33
279.03	0.17
279.245	47.27
279.461	161.96
279.676	26.79
279.892	39.08
280.107	61.61
280.322	80.04
280.538	30.89
280.753	57.51
280.969	55.47
281.184	-1.88
281.399	90.28
281.615	-28.5
281.83	147.62
282.045	18.6
282.26	26.79
282.476	32.94
282.691	121
282.906	45.23
283.122	14.51
283.337	10.41
283.552	20.65
283.767	12.46
283.983	67.75
284.198	-42.84
284.413	26.79
284.628	77.99
284.843	53.42
285.058	84.14
285.274	75.95
285.489	18.6
285.704	88.23
285.919	37.03
286.134	24.75
286.349	61.61
286.564	37.03
286.779	106.67
286.995	-16.21
287.21	-14.17
287.425	-16.21
287.64	10.41
287.855	116.9
288.07	18.6
288.285	22.7
288.5	34.99
288.715	-3.93
288.93	53.42
289.145	94.38
289.36	45.23
289.575	10.41
289.79	45.23
290.004	10.41
290.219	143.53
290.434	-5.97
290.649	45.23
290.864	-63.32
291.079	30.89
291.294	-36.69
291.509	57.51
291.724	0.17
291.938	10.41
292.153	127.14
292.368	73.9
292.583	129.19
292.798	67.75
293.012	14.51
293.227	45.23
293.442	-5.97
293.657	67.75
293.871	108.71
294.086	34.99
294.301	37.03
294.516	63.66
294.73	65.71
294.945	-28.5
295.16	59.56
295.374	114.86
295.589	110.76
295.804	63.66
296.018	75.95
296.233	67.75
296.447	45.23
296.662	-26.45
296.877	96.43
297.091	63.66
297.306	82.09
297.52	47.27
297.735	-14.17
297.949	77.99
298.164	98.47
298.378	90.28
298.593	12.46
298.807	-34.64
299.022	26.79
299.236	73.9
299.451	26.79
299.665	49.32
299.88	41.13
300.094	129.19
300.309	67.75
300.523	34.99
300.737	59.56
300.952	121
301.166	34.99
301.381	34.99
301.595	63.66
301.809	-40.79
302.024	22.7
302.238	77.99
302.452	135.34
302.667	71.85
302.881	63.66
303.095	75.95
303.309	24.75
303.524	59.56
303.738	37.03
303.952	4.27
304.166	24.75
304.381	16.55
304.595	84.14
304.809	47.27
305.023	53.42
305.237	51.37
305.452	77.99
305.666	45.23
305.88	102.57
306.094	112.81
306.308	55.47
306.522	63.66
306.736	84.14
306.95	22.7
307.164	49.32
307.379	-12.12
307.593	112.81
307.807	14.51
308.021	34.99
308.235	63.66
308.449	34.99
308.663	10.41
308.877	49.32
309.091	-40.79
309.305	43.18
309.519	0.17
309.733	32.94
309.947	18.6
310.161	125.1
310.374	118.95
310.588	10.41
310.802	57.51
311.016	59.56
311.23	121
311.444	63.66
311.658	67.75
311.872	-5.97
312.085	59.56
312.299	135.34
312.513	98.47
312.727	43.18
312.941	-5.97
313.154	22.7
313.368	53.42
313.582	-51.03
313.796	24.75
314.009	-18.26
314.223	67.75
314.437	67.75
314.651	80.04
314.864	61.61
315.078	-20.31
315.292	37.03
315.505	47.27
315.719	30.89
315.933	55.47
316.146	71.85
316.36	94.38
316.573	96.43
316.787	65.71
317.001	26.79
317.214	-20.31
317.428	106.67
317.641	125.1
317.855	-14.17
318.068	96.43
318.282	98.47
318.495	135.34
318.709	39.08
318.922	67.75
319.136	28.84
319.349	86.19
319.563	57.51
319.776	41.13
319.99	-3.93
320.203	71.85
320.417	92.33
320.63	39.08
320.843	92.33
321.057	6.31
321.27	4.27
321.483	18.6
321.697	59.56
321.91	-26.45
322.124	59.56
322.337	125.1
322.55	47.27
322.763	-5.97
322.977	39.08
323.19	57.51
323.403	53.42
323.617	47.27
323.83	166.06
324.043	37.03
324.256	8.36
324.469	51.37
324.683	116.9
324.896	-20.31
325.109	84.14
325.322	61.61
325.535	75.95
325.748	43.18
325.962	6.31
326.175	55.47
326.388	41.13
326.601	51.37
326.814	49.32
327.027	55.47
327.24	20.65
327.453	-48.98
327.666	18.6
327.879	106.67
328.092	32.94
328.305	96.43
328.518	22.7
328.731	12.46
328.944	34.99
329.157	43.18
329.37	69.8
329.583	26.79
329.796	127.14
330.009	34.99
330.222	22.7
330.435	18.6
330.648	20.65
330.861	14.51
331.073	67.75
331.286	98.47
331.499	71.85
331.712	41.13
331.925	45.23
332.138	53.42
332.35	86.19
332.563	90.28
332.776	94.38
332.989	59.56
333.202	59.56
333.414	41.13
333.627	100.52
333.84	20.65
334.053	18.6
334.265	69.8
334.478	32.94
334.691	55.47
334.903	39.08
335.116	-1.88
335.329	37.03
335.541	90.28
335.754	75.95
335.966	49.32
336.179	28.84
336.392	92.33
336.604	90.28
336.817	18.6
337.029	84.14
337.242	82.09
337.454	26.79
337.667	73.9
337.88	75.95
338.092	73.9
338.305	34.99
338.517	8.36
338.729	100.52
338.942	75.95
339.154	53.42
339.367	-12.12
339.579	123.05
339.792	4.27
340.004	47.27
340.217	90.28
340.429	28.84
340.641	-10.07
340.854	10.41
341.066	125.1
341.278	82.09
341.491	86.19
341.703	32.94
341.915	14.51
342.128	127.14
342.34	59.56
342.552	55.47
342.764	94.38
342.977	-12.12
343.189	30.89
343.401	82.09
343.613	26.79
343.826	84.14
344.038	6.31
344.25	112.81
344.462	77.99
344.674	34.99
344.886	10.41
345.099	63.66
345.311	55.47
345.523	55.47
345.735	22.7
345.947	34.99
346.159	96.43
346.371	47.27
346.583	-5.97
346.795	2.22
347.007	84.14
347.219	0.17
347.431	10.41
347.643	149.67
347.855	37.03
348.067	71.85
348.279	20.65
348.491	82.09
348.703	32.94
348.915	61.61
349.127	61.61
349.339	-3.93
349.551	20.65
349.763	84.14
349.975	-12.12
350.187	30.89
350.399	24.75
350.61	59.56
350.822	43.18
351.034	61.61
351.246	145.58
351.458	90.28
351.669	55.47
351.881	75.95
352.093	45.23
352.305	39.08
352.517	67.75
352.728	135.34
352.94	63.66
353.152	45.23
353.363	2.22
353.575	14.51
353.787	75.95
353.999	96.43
354.21	8.36
354.422	37.03
354.633	94.38
354.845	55.47
355.057	28.84
355.268	-48.98
355.48	37.03
355.692	63.66
355.903	51.37
356.115	88.23
356.326	18.6
356.538	32.94
356.749	92.33
356.961	100.52
357.172	110.76
357.384	28.84
357.595	41.13
357.807	53.42
358.018	24.75
358.23	30.89
358.441	137.38
358.653	55.47
358.864	63.66
359.075	20.65
359.287	53.42
359.498	43.18
359.709	63.66
359.921	106.67
360.132	88.23
360.344	51.37
360.555	-1.88
360.766	4.27
360.977	49.32
361.189	77.99
361.4	24.75
361.611	39.08
361.823	41.13
362.034	71.85
362.245	0.17
362.456	43.18
362.667	41.13
362.879	4.27
363.09	30.89
363.301	32.94
363.512	67.75
363.723	-10.07
363.935	86.19
364.146	123.05
364.357	49.32
364.568	75.95
364.779	-22.36
364.99	63.66
365.201	-3.93
365.412	69.8
365.623	55.47
365.834	125.1
366.045	37.03
366.256	59.56
366.467	20.65
366.678	-12.12
366.889	77.99
367.1	18.6
367.311	-1.88
367.522	-5.97
367.733	43.18
367.944	96.43
368.155	37.03
368.366	26.79
368.577	51.37
368.788	65.71
368.999	-26.45
369.209	20.65
369.42	86.19
369.631	84.14
369.842	39.08
370.053	88.23
370.264	10.41
370.474	43.18
370.685	22.7
370.896	53.42
371.107	133.29
371.317	114.86
371.528	57.51
371.739	127.14
371.95	51.37
372.16	49.32
372.371	-34.64
372.582	4.27
372.792	114.86
373.003	77.99
373.214	43.18
373.424	65.71
373.635	14.51
373.846	-61.27
374.056	59.56
374.267	-5.97
374.477	102.57
374.688	73.9
374.898	26.79
375.109	82.09
375.319	75.95
375.53	59.56
375.74	67.75
375.951	53.42
376.161	55.47
376.372	65.71
376.582	51.37
376.793	69.8
377.003	51.37
377.214	61.61
377.424	69.8
377.635	49.32
377.845	22.7
378.055	34.99
378.266	77.99
378.476	10.41
378.686	6.31
378.897	141.48
379.107	30.89
379.317	77.99
379.528	34.99
379.738	80.04
379.948	0.17
380.158	61.61
380.369	0.17
380.579	14.51
380.789	106.67
380.999	63.66
381.21	63.66
381.42	71.85
381.63	4.27
381.84	125.1
382.05	59.56
382.261	59.56
382.471	-1.88
382.681	49.32
382.891	104.62
383.101	108.71
383.311	67.75
383.521	41.13
383.731	63.66
383.941	82.09
384.151	125.1
384.361	77.99
384.571	92.33
384.781	100.52
384.991	67.75
385.201	110.76
385.411	49.32
385.621	164.01
385.831	-32.6
386.041	4.27
386.251	-36.69
386.461	94.38
386.671	-18.26
386.881	-3.93
387.091	43.18
387.301	96.43
387.511	51.37
387.72	98.47
387.93	51.37
388.14	12.46
388.35	26.79
388.56	34.99
388.769	147.62
388.979	90.28
389.189	53.42
389.399	65.71
389.609	94.38
389.818	47.27
390.028	43.18
390.238	-22.36
390.447	41.13
390.657	47.27
390.867	118.95
391.076	88.23
391.286	39.08
391.496	55.47
391.705	45.23
391.915	102.57
392.125	53.42
392.334	41.13
392.544	26.79
392.753	0.17
392.963	32.94
393.172	-8.02
393.382	6.31
393.591	118.95
393.801	53.42
394.01	51.37
394.22	96.43
394.429	102.57
394.639	94.38
394.848	108.71
395.058	45.23
395.267	59.56
395.477	47.27
395.686	157.86
395.895	106.67
396.105	135.34
396.314	43.18
396.524	108.71
396.733	80.04
396.942	137.38
397.152	77.99
397.361	110.76
397.57	118.95
397.78	84.14
397.989	88.23
398.198	184.49
398.407	77.99
398.617	143.53
398.826	47.27
399.035	133.29
399.244	24.75
399.453	90.28
399.663	84.14
399.872	51.37
400.081	75.95
400.29	131.24
400.499	45.23
400.708	110.76
400.917	84.14
401.127	77.99
401.336	47.27
401.545	108.71
401.754	108.71
401.963	92.33
402.172	75.95
402.381	24.75
402.59	96.43
402.799	59.56
403.008	125.1
403.217	88.23
403.426	63.66
403.635	161.96
403.844	92.33
404.053	137.38
404.262	137.38
404.471	178.34
404.68	75.95
404.888	137.38
405.097	166.06
405.306	104.62
405.515	45.23
405.724	174.25
405.933	198.82
406.142	149.67
406.35	157.86
406.559	141.48
406.768	129.19
406.977	161.96
407.185	159.91
407.394	166.06
407.603	106.67
407.812	96.43
408.02	116.9
408.229	186.54
408.438	143.53
408.646	141.48
408.855	141.48
409.064	200.87
409.272	225.45
409.481	243.88
409.69	141.48
409.898	250.02
410.107	295.08
410.315	258.21
410.524	256.17
410.733	235.69
410.941	297.13
411.15	250.02
411.358	301.22
411.567	338.09
411.775	309.41
411.984	338.09
412.192	264.36
412.401	311.46
412.609	420
412.818	348.33
413.026	329.89
413.234	366.76
413.443	430.24
413.651	313.51
413.86	438.44
414.068	409.76
414.276	450.72
414.485	403.62
414.693	436.39
414.901	546.98
415.11	551.07
415.318	485.54
415.526	555.17
415.734	618.66
415.943	551.07
416.151	649.38
416.359	612.51
416.567	549.03
416.776	684.19
416.984	682.14
417.192	598.18
417.4	698.53
417.608	610.47
417.817	762.02
418.025	710.82
418.233	798.88
418.441	829.6
418.649	870.56
418.857	917.66
419.065	915.61
419.273	831.65
419.481	888.99
419.689	1009.82
419.897	936.09
420.105	1044.63
420.313	1052.83
420.521	1226.9
420.729	1261.72
420.937	1192.09
421.145	1226.9
421.353	1239.19
421.561	1378.45
421.769	1388.69
421.977	1396.89
422.185	1357.97
422.393	1495.19
422.601	1628.31
422.809	1642.64
423.017	1542.29
423.224	1685.65
423.432	1775.76
423.64	1693.84
423.848	1925.26
424.056	1802.38
424.263	1998.99
424.471	2048.14
424.679	2046.09
424.887	2211.98
425.094	2365.57
425.302	2187.4
425.51	2349.19
425.718	2203.79
425.925	2429.06
426.133	2590.85
426.341	2510.98
426.548	2752.64
426.756	2777.22
426.964	2951.29
427.171	2941.05
427.379	2932.86
427.586	3070.08
427.794	3209.34
428.001	3313.78
428.209	3489.91
428.417	3264.63
428.624	3672.18
428.832	3541.11
429.039	3721.33
429.247	3661.94
429.454	3995.76
429.662	4294.76
429.869	4026.48
430.076	4196.46
430.284	4100.2
430.491	4257.9
430.699	4460.65
430.906	4507.75
431.114	4599.91
431.321	4659.3
431.528	4679.78
431.736	4980.83
431.943	5322.84
432.15	5245.02
432.358	5316.7
432.565	5566.55
432.772	5509.21
432.979	5816.4
433.187	6010.96
433.394	6064.21
433.601	6430.79
433.808	6469.7
434.016	6367.31
434.223	6819.91
434.43	7217.21
434.637	6877.25
434.844	7401.53
435.052	7493.69
435.259	7565.37
435.466	7565.37
435.673	7528.5
435.88	7901.23
436.087	8458.28
436.294	8534.06
436.501	8247.34
436.708	8325.16
436.915	8773.67
437.122	9013.28
437.329	9103.39
437.537	9267.23
437.743	9490.46
437.95	9512.99
438.157	9814.04
438.364	10139.66
438.571	10170.38
438.778	10250.25
438.985	11001.86
439.192	10709
439.399	11130.88
439.606	10928.13
439.813	11446.27
440.02	12195.82
440.227	12050.42
440.433	11862.01
440.64	12208.11
440.847	12201.97
441.054	12509.16
441.261	13463.52
441.467	13260.77
441.674	13522.91
441.881	13871.06
442.088	13942.74
442.294	13647.83
442.501	14190.55
442.708	14462.93
442.914	14849.99
443.121	15468.48
443.328	15290.31
443.534	16492.46
443.741	15941.56
443.948	15620.03
444.154	16914.34
444.361	16752.56
444.568	16824.23
444.774	16725.93
444.981	16920.49
445.187	17631.13
445.394	18286.48
445.6	18040.73
445.807	19898.24
446.013	18741.13
446.22	19416.96
446.426	20103.03
446.633	20242.29
446.839	20961.13
447.046	20338.55
447.252	21366.63
447.459	21147.5
447.665	21172.07
447.871	22040.41
448.078	23328.58
448.284	21929.82
448.491	22517.59
448.697	23562.05
448.903	23766.85
449.11	24098.62
449.316	23684.93
449.522	24196.92
449.728	24815.41
449.935	24999.73
450.141	24926
450.347	25626.4
450.553	24731.44
450.76	25016.11
450.966	25700.13
451.172	25626.4
451.378	26093.34
451.584	25988.89
451.791	26261.27
451.997	26365.72
452.203	26797.84
452.409	26662.68
452.615	26808.08
452.821	25718.56
453.027	25642.79
453.233	26773.27
453.44	25728.8
453.646	26404.63
453.852	26421.02
454.058	26650.39
454.264	25876.26
454.47	26556.18
454.676	25870.11
454.882	26615.57
455.088	24420.15
455.294	24657.71
455.5	25409.32
455.705	25474.85
455.911	24244.02
456.117	23955.26
456.323	23684.93
456.529	22474.58
456.735	23594.82
456.941	23097.16
457.147	22757.2
457.352	21808.99
457.558	21710.69
457.764	21757.79
457.97	21514.08
458.176	20782.96
458.381	20825.96
458.587	19713.92
458.793	19885.95
458.999	18610.06
459.204	20064.12
459.41	19281.8
459.616	18061.21
459.821	18182.04
460.027	18134.93
460.233	17827.74
460.438	16879.53
460.644	17211.3
460.85	16371.63
461.055	16123.83
461.261	16070.58
461.466	14876.62
461.672	14567.37
461.878	15378.37
462.083	14510.03
462.289	14008.28
462.494	14184.4
462.7	13279.2
462.905	13051.88
463.111	13629.4
463.316	13506.52
463.522	13078.5
463.727	13219.81
463.932	13232.1
464.138	13049.83
464.343	13015.01
464.549	12601.32
464.754	13137.89
464.959	13123.55
465.165	13072.36
465.37	12531.69
465.575	12060.66
465.781	12660.71
465.986	12521.45
466.191	12107.76
466.397	12079.09
466.602	11481.08
466.807	11866.1
467.012	11624.44
467.218	11857.91
467.423	11730.94
467.628	11696.12
467.833	12079.09
468.038	11814.9
468.244	11466.75
468.449	11917.3
468.654	11298.81
468.859	11374.59
469.064	11331.58
469.269	11208.7
469.474	11112.45
469.679	11177.98
469.885	10907.65
470.09	10993.67
470.295	10991.62
470.5	10582.03
470.705	10766.34
470.91	10608.65
471.115	10518.54
471.32	10840.07
471.525	10434.57
471.73	10151.95
471.935	10258.45
472.139	9922.58
472.344	10076.18
472.549	10090.51
472.754	9932.82
472.959	9633.82
473.164	9433.11
473.369	9396.25
473.574	9828.37
473.778	9580.57
473.983	9441.31
474.188	9431.07
474.393	9052.19
474.598	9113.63
474.802	8951.84
475.007	8837.16
475.212	8982.56
475.417	8790.05
475.621	8564.78
475.826	8728.61
476.031	8458.28
476.235	8312.88
476.44	8566.82
476.645	8368.17
476.849	8331.31
477.054	8054.83
477.259	8220.72
477.463	8013.87
477.668	7936.05
477.872	8146.99
478.077	7829.56
478.282	7548.98
478.486	7620.66
478.691	7702.58
478.895	7661.62
479.1	7514.17
479.304	7516.22
479.509	7469.11
479.713	7510.07
479.918	7155.77
480.122	7260.22
480.326	7243.84
480.531	7262.27
480.735	7016.51
480.94	7145.53
481.144	7333.95
481.348	6998.08
481.553	7108.67
481.757	6998.08
481.961	7090.24
482.166	7090.24
482.37	7063.61
482.574	6850.63
482.778	7002.18
482.983	7262.27
483.187	6973.5
483.391	6885.44
483.595	6803.52
483.8	6795.33
484.004	6975.55
484.208	6901.83
484.412	6864.96
484.616	7049.28
484.821	7104.57
485.025	6838.34
485.229	7145.53
485.433	6907.97
485.637	6981.7
485.841	6981.7
486.045	6985.79
486.249	7118.91
486.453	6938.69
486.657	6895.68
486.861	7123.01
487.065	6778.95
487.269	6916.16
487.473	6961.22
487.677	7073.85
487.881	7030.85
488.085	7112.77
488.289	6977.6
488.493	6975.55
488.697	7071.81
488.901	7182.4
489.105	7067.71
489.309	7143.49
489.512	7131.2
489.716	6934.59
489.92	7039.04
490.124	6965.31
490.328	7123.01
490.531	7145.53
490.735	7137.34
490.939	7135.29
491.143	7057.47
491.346	7127.1
491.55	7317.56
491.754	7286.84
491.958	7317.56
492.161	7299.13
492.365	7276.6
492.569	7370.81
492.772	7301.18
492.976	7335.99
493.18	7381.05
493.383	7579.7
493.587	7569.46
493.79	7553.08
493.994	7632.95
494.197	7667.77
494.401	7632.95
494.605	7700.53
494.808	8030.26
495.012	7854.13
495.215	7774.26
495.419	7981.1
495.622	7997.49
495.825	7966.77
496.029	8032.3
496.232	8146.99
496.436	8169.52
496.639	8321.07
496.843	8288.3
497.046	8724.52
497.249	8712.23
497.453	8556.58
497.656	8675.37
497.859	8794.15
498.063	8869.92
498.266	9166.88
498.469	8767.52
498.673	9074.72
498.876	9267.23
499.079	9437.21
499.282	9326.62
499.485	9580.57
499.689	9660.44
499.892	9734.17
500.095	9662.49
500.298	10024.98
500.501	9895.96
500.705	10205.2
500.908	10229.77
501.111	10319.89
501.314	10407.95
501.517	10579.98
501.72	10950.66
501.923	10655.75
502.126	10967.04
502.329	10995.71
502.532	11251.71
502.735	11235.33
502.938	11565.05
503.141	11499.52
503.344	11937.78
503.547	11866.1
503.75	11687.93
503.953	12077.04
504.156	12320.75
504.359	12191.73
504.562	12398.57
504.765	12490.73
504.968	12834.79
505.17	12910.57
505.373	12652.52
505.576	13088.74
505.779	13271.01
505.982	13518.81
506.185	13541.34
506.387	13731.8
506.59	13484
506.793	13901.78
506.996	14141.39
507.198	14323.66
507.401	14219.22
507.604	14542.8
507.807	14905.29
508.009	15128.52
508.212	15165.38
508.415	15224.77
508.617	15429.57
508.82	15863.74
509.022	15380.42
509.225	15640.51
509.428	15919.03
509.63	16140.21
509.833	16191.41
510.035	16586.67
510.238	16287.67
510.44	16836.52
510.643	17065.89
510.845	17196.96
511.048	17182.63
511.25	17385.38
511.453	17665.95
511.655	18053.02
511.858	17932.19
512.06	17971.1
512.262	18253.72
512.465	18223
512.667	18673.55
512.87	18587.54
513.072	18847.63
513.274	19244.93
513.477	19376
513.679	19419.01
513.881	19871.61
514.084	19883.9
514.286	20047.74
514.488	20295.54
514.69	20516.72
514.893	20785.01
515.095	20846.44
515.297	20815.73
515.499	21233.51
515.701	21290.85
515.904	21682.02
516.106	21698.4
516.308	22245.21
516.51	22132.57
516.712	22185.82
516.914	22409.04
517.116	22951.76
517.318	22859.6
517.52	23201.61
517.722	23318.34
517.925	23334.73
518.127	23549.76
518.329	23752.51
518.531	23764.8
518.733	24323.9
518.935	24743.73
519.136	24330.04
519.338	25134.89
519.54	25274.15
519.742	25231.15
519.944	25478.95
520.146	25892.64
520.348	25716.51
520.55	26068.76
520.752	26113.82
520.954	26988.3
521.155	26543.89
521.357	26642.2
521.559	27150.09
521.761	27817.73
521.963	27434.76
522.164	27834.11
522.366	27739.91
522.568	27911.94
522.77	28225.28
522.971	28442.36
523.173	28088.06
523.375	28468.98
523.576	28948.21
523.778	28868.34
523.98	29216.49
524.181	29236.97
524.383	29282.03
524.584	29626.09
524.786	29910.75
524.988	29738.72
525.189	29941.47
525.391	30514.91
525.592	30727.89
525.794	30592.73
525.995	30662.36
526.197	30815.96
526.398	31135.44
526.6	31323.85
526.801	31407.82
527.003	31092.43
527.204	31553.23
527.406	31798.98
527.607	31833.8
527.808	31778.5
528.01	31743.69
528.211	32210.62
528.412	32722.62
528.614	32026.31
528.815	32409.28
529.016	32454.33
529.218	32540.35
529.419	32487.1
529.62	32515.77
529.822	32786.1
530.023	32626.36
530.224	32487.1
530.425	32620.22
530.626	32652.98
530.828	32536.25
531.029	33457.84
531.23	32949.94
531.431	32997.04
531.632	33347.25
531.833	33420.97
532.035	33146.54
532.236	33390.25
532.437	33171.12
532.638	33156.78
532.839	33687.21
533.04	33560.23
533.241	33179.31
533.442	33582.76
533.643	33562.28
533.844	33242.8
534.045	33652.39
534.246	33304.24
534.447	33722.02
534.648	33476.27
534.849	33851.05
535.05	33357.49
535.251	33853.09
535.451	33748.65
535.652	33525.42
535.853	33506.99
536.054	33707.69
536.255	33736.36
536.456	33740.46
536.657	34127.52
536.857	33543.85
537.058	33619.63
537.259	34041.51
537.46	34051.75
537.66	33773.22
537.861	33838.76
538.062	33562.28
538.263	33535.66
538.463	33808.04
538.664	33394.35
538.865	33779.37
539.065	34098.85
539.266	33355.44
539.466	33785.51
539.667	33416.88
539.868	33998.5
540.068	33867.43
540.269	33709.74
540.469	33789.61
540.67	33912.49
540.87	33496.75
541.071	33543.85
541.271	33918.63
541.472	33472.17
541.672	33332.91
541.873	33334.96
542.073	32831.16
542.274	34027.17
542.474	33472.17
542.675	33380.01
542.875	33633.96
543.075	33773.22
543.276	33459.88
543.476	33492.65
543.676	33523.37
543.877	33582.76
544.077	33537.71
544.277	33457.84
544.478	33433.26
544.678	33832.61
544.878	33461.93
545.078	33627.82
545.279	33334.96
545.479	33121.97
545.679	33582.76
545.879	33388.21
546.079	33382.06
546.28	33099.44
546.48	33343.15
546.68	33511.08
546.88	33476.27
547.08	33203.89
547.28	33189.55
547.48	33105.59
547.68	33711.78
547.88	33183.41
548.081	33486.51
548.281	33355.44
548.481	33334.96
548.681	33511.08
548.881	33158.83
549.081	33119.92
549.28	33400.49
549.48	32913.08
549.68	33144.5
549.88	33810.09
550.08	33324.72
550.28	33423.02
550.48	33287.85
550.68	33580.71
550.88	33128.11
551.08	33169.07
551.279	32845.49
551.479	33095.35
551.679	33023.67
551.879	32968.37
552.079	33283.76
552.278	32849.59
552.478	33097.39
552.678	33044.15
552.878	33162.93
553.077	32947.89
553.277	32771.77
553.477	33263.28
553.676	32663.22
553.876	33099.44
554.076	32904.88
554.275	32624.31
554.475	32857.78
554.674	32626.36
554.874	32894.64
555.074	32949.94
555.273	32784.05
555.473	33222.32
555.672	32995
555.872	32538.3
556.071	32560.83
556.271	32886.45
556.47	32691.9
556.67	31987.39
556.869	32480.96
557.068	32376.51
557.268	32081.6
557.467	32538.3
557.667	31999.68
557.866	32302.78
558.065	32841.4
558.265	32050.88
558.464	31952.58
558.663	32624.31
558.863	31727.3
559.062	32452.28
559.261	31919.81
559.461	32212.67
559.66	31698.63
559.859	31966.91
560.058	32200.38
560.258	31766.21
560.457	31751.88
560.656	31885
560.855	31561.42
561.054	31983.3
561.253	31661.77
561.453	31516.36
561.652	31508.17
561.851	31876.8
562.05	31266.51
562.249	31233.74
562.448	31440.59
562.647	31616.71
562.846	31467.21
563.045	31024.85
563.244	30840.53
563.443	31340.24
563.642	30820.05
563.841	31020.75
564.04	30818
564.239	30836.44
564.438	30414.55
564.637	30809.81
564.836	30615.26
565.035	30363.36
565.234	30201.57
565.432	30349.02
565.631	30129.89
565.83	30144.22
566.029	30082.78
566.228	30158.56
566.427	30015.2
566.625	29492.97
566.824	29888.23
567.023	30213.85
567.222	29673.19
567.42	29849.32
567.619	29910.75
567.818	29873.89
568.016	29624.04
568.215	29644.52
568.414	29357.8
568.612	29425.39
568.811	29091.57
569.01	29243.12
569.208	28897.01
569.407	29245.16
569.605	28770.04
569.804	29101.81
570.002	29038.32
570.201	28948.21
570.4	28579.57
570.598	28557.05
570.797	28180.22
570.995	28280.57
571.193	28331.77
571.392	28792.56
571.59	28010.24
571.789	28327.67
571.987	27920.13
572.186	28122.88
572.384	27967.23
572.582	28012.29
572.781	28083.97
572.979	27709.19
573.177	27850.5
573.376	27911.94
573.574	27533.06
573.772	27410.18
573.971	27340.55
574.169	27295.5
574.367	27389.7
574.565	27406.09
574.763	27252.49
574.962	26791.7
575.16	27092.75
575.358	27023.12
575.556	26660.63
575.754	27494.15
575.952	26416.92
576.151	26789.65
576.349	26472.21
576.547	26398.49
576.745	26701.59
576.943	26605.33
577.141	26189.6
577.339	26504.98
577.537	26101.53
577.735	26173.21
577.933	25997.09
578.131	26068.76
578.329	25837.34
578.527	25724.71
578.725	25794.34
578.923	25556.77
579.121	25667.36
579.319	25632.55
579.516	25605.92
579.714	25780
579.912	25345.83
580.11	25317.16
580.308	25470.76
580.506	25265.96
580.704	24930.09
580.901	25114.41
581.099	25521.96
581.297	24725.3
581.495	24835.89
581.692	24680.24
581.89	24913.71
582.088	25044.78
582.285	24756.02
582.483	24626.99
582.681	24452.92
582.878	24540.98
583.076	24061.76
583.274	24321.85
583.471	24194.87
583.669	24344.38
583.866	23938.88
584.064	24024.89
584.262	23748.42
584.459	24168.25
584.657	23551.81
584.854	23813.95
585.052	23562.05
585.249	23713.6
585.447	23725.89
585.644	23306.06
585.841	23412.55
586.039	23631.68
586.236	23355.21
586.434	23351.11
586.631	23322.44
586.828	23009.1
587.026	23199.56
587.223	23250.76
587.42	22925.13
587.618	23072.59
587.815	22638.42
588.012	22724.43
588.21	22714.19
588.407	22847.31
588.604	22353.75
588.801	22439.76
588.999	22382.42
589.196	22423.38
589.393	22296.41
589.59	22243.16
589.787	22013.79
589.984	22361.94
590.182	22054.75
590.379	22359.89
590.576	21847.9
590.773	21737.31
590.97	21610.34
591.167	22103.9
591.364	21393.25
591.561	21550.95
591.758	21550.95
591.955	21469.03
592.152	21684.06
592.349	21272.42
592.546	21210.98
592.743	21356.39
592.94	20815.73
593.137	20801.39
593.334	21063.53
593.531	20959.08
593.727	20899.69
593.924	20989.8
594.121	20713.33
594.318	21088.1
594.515	20758.38
594.712	20729.71
594.908	20735.85
595.105	20787.05
595.302	20266.87
595.499	20488.05
595.696	20477.81
595.892	19898.24
596.089	20197.24
596.286	20338.55
596.482	19974.01
596.679	19896.19
596.876	20066.17
597.072	20019.07
597.269	20195.19
597.466	19597.18
597.662	19910.52
597.859	19816.32
598.055	19599.23
598.252	19558.27
598.448	19650.43
598.645	19429.25
598.841	18993.03
599.038	19455.87
599.234	19144.58
599.431	18909.07
599.627	19218.31
599.824	19330.95
600.02	18773.9
600.217	19109.77
600.413	18945.93
600.609	18700.17
600.806	18655.12
601.002	19001.22
601.198	18655.12
601.395	18589.58
601.591	18448.27
601.787	18679.69
601.984	18349.97
602.18	18263.96
602.376	18478.99
602.572	18098.07
602.769	18472.85
602.965	18087.83
603.161	18046.87
603.357	17926.04
603.553	17971.1
603.75	17936.28
603.946	17827.74
604.142	17999.77
604.338	17831.83
604.534	17797.02
604.73	17950.62
604.926	17442.72
605.122	17670.05
605.318	17647.52
605.514	17440.67
605.71	17577.89
605.906	17416.1
606.102	17491.87
606.298	17211.3
606.494	17522.59
606.69	17246.12
606.886	17227.68
607.082	16924.58
607.278	17133.48
607.474	16926.63
607.67	16998.31
607.866	16537.52
608.062	17162.15
608.257	16895.91
608.453	16850.86
608.649	16695.21
608.845	16762.79
609.041	16770.99
609.236	16879.53
609.432	16480.18
609.628	16418.74
609.824	16349.11
610.019	16646.06
610.215	16336.82
610.411	16494.51
610.606	16441.26
610.802	16420.78
610.998	16568.24
611.193	16326.58
611.389	16263.09
611.584	16349.11
611.78	16201.65
611.976	16332.72
612.171	16240.56
612.367	16093.11
612.562	16021.43
612.758	15976.37
612.953	16086.97
613.149	16142.26
613.344	15818.68
613.539	16273.33
613.735	15830.97
613.93	15880.12
614.126	15851.45
614.321	16005.05
614.517	15742.91
614.712	15882.17
614.907	15478.72
615.103	15771.58
615.298	15800.25
615.493	15701.95
615.688	15548.35
615.884	15781.82
616.079	15386.56
616.274	15628.22
616.47	15421.38
616.665	15423.42
616.86	15302.59
617.055	15241.15
617.25	15226.82
617.445	15552.45
617.641	15103.94
617.836	15050.69
618.031	15028.17
618.226	15237.06
618.421	15099.84
618.616	15050.69
618.811	14766.03
619.006	15228.87
619.201	14747.59
619.396	14862.28
619.591	14583.76
619.786	14512.08
619.981	14444.49
620.176	14770.12
620.371	14399.44
620.566	14598.09
620.761	14260.18
620.956	14432.21
621.151	14110.68
621.346	14174.16
621.541	14053.33
621.735	14188.5
621.93	13912.02
622.125	13866.97
622.32	13672.41
622.515	13801.43
622.709	13594.59
622.904	13643.74
623.099	13490.14
623.294	13627.35
623.488	13357.02
623.683	13527
623.878	13406.17
624.072	13320.16
624.267	13150.18
624.462	12965.86
624.656	13113.31
624.851	12969.96
625.046	12847.08
625.24	12670.95
625.435	12570.6
625.629	12748.78
625.824	12785.64
626.018	12826.6
626.213	12273.65
626.407	12390.38
626.602	12269.55
626.796	12433.39
626.991	12357.61
627.185	12036.08
627.38	12013.56
627.574	11978.74
627.768	11915.25
627.963	11862.01
628.157	11718.65
628.352	11896.82
628.546	11577.34
628.74	11644.92
628.935	11677.69
629.129	11507.71
629.323	11266.05
629.517	11368.45
629.712	11599.87
629.906	11302.91
630.1	11046.91
630.294	11298.81
630.489	10995.71
630.683	10999.81
630.877	11063.3
631.071	10942.47
631.265	10844.17
631.459	10905.6
631.653	10819.59
631.848	10807.3
632.042	10473.48
632.236	10592.27
632.43	10549.26
632.624	10569.74
632.818	10364.94
633.012	10240.01
633.206	10219.53
633.4	10432.52
633.594	10289.17
633.788	10209.29
633.982	10082.32
634.176	10006.55
634.369	10061.84
634.563	10037.27
634.757	9996.31
634.951	9900.05
635.145	9775.13
635.339	9754.65
635.533	9725.97
635.726	9662.49
635.92	9410.59
636.114	9508.89
636.308	9601.05
636.501	9187.36
636.695	9375.77
636.889	9336.86
637.083	9324.57
637.276	9267.23
637.47	9095.2
637.664	9252.89
637.857	9340.96
638.051	8976.42
638.244	9140.26
638.438	9091.1
638.632	8960.03
638.825	8880.16
639.019	8726.57
639.212	8841.25
639.406	8865.83
639.599	8632.36
639.793	8914.98
639.986	8716.33
640.18	8560.68
640.373	8556.58
640.567	8273.96
640.76	8396.84
640.954	8241.2
641.147	8286.25
641.34	8175.66
641.534	8171.57
641.727	8257.58
641.92	8165.42
642.114	8081.46
642.307	8058.93
642.5	8087.6
642.694	7917.62
642.887	7735.35
643.08	7966.77
643.273	7696.44
643.467	7721.01
643.66	7903.28
643.853	7696.44
644.046	7612.47
644.239	7694.39
644.432	7694.39
644.626	7598.13
644.819	7583.8
645.012	7622.71
645.205	7469.11
645.398	7475.26
645.591	7579.7
645.784	7381.05
645.977	7247.93
646.17	7338.04
646.363	7202.88
646.556	6981.7
646.749	7161.92
646.942	6953.02
647.135	6934.59
647.328	7114.81
647.521	6977.6
647.714	6824
647.907	7020.61
648.099	6916.16
648.292	6924.35
648.485	6901.83
648.678	6596.68
648.871	6719.56
649.064	6785.09
649.256	6662.21
649.449	6547.53
649.642	6572.1
649.835	6539.33
650.027	6506.57
650.22	6434.89
650.413	6488.14
650.605	6400.07
650.798	6416.46
650.991	6340.68
651.183	6318.15
651.376	6404.17
651.568	6203.47
651.761	6185.04
651.954	5978.19
652.146	6125.65
652.339	6137.93
652.531	6035.53
652.724	6025.29
652.916	5984.34
653.109	6092.88
653.301	6017.1
653.494	5832.79
653.686	5791.83
653.879	5900.37
654.071	5900.37
654.263	5861.46
654.456	5709.91
654.648	5838.93
654.84	5574.74
655.033	5589.08
655.225	5564.5
655.417	5574.74
655.61	5556.31
655.802	5484.63
655.994	5544.02
656.186	5681.24
656.379	5464.15
656.571	5474.39
656.763	5486.68
656.955	5304.41
657.148	5316.7
657.34	5376.09
657.532	5343.32
657.724	5314.65
657.916	5398.62
658.108	5328.99
658.3	5175.39
658.492	5113.95
658.684	5032.03
658.876	5118.04
659.068	5064.8
659.26	5023.84
659.452	4980.83
659.644	5142.62
659.836	5062.75
660.028	4913.25
660.22	4821.09
660.412	4839.52
660.604	4714.59
660.796	4814.95
660.988	4702.31
661.18	4753.51
661.372	4741.22
661.563	4864.1
661.755	4620.39
661.947	4745.31
662.139	4749.41
662.331	4608.1
662.522	4444.26
662.714	4712.55
662.906	4479.08
663.097	4626.53
663.289	4524.13
663.481	4483.17
663.673	4388.97
663.864	4446.31
664.056	4507.75
664.247	4450.41
664.439	4251.75
664.631	4495.46
664.822	4393.06
665.014	4348.01
665.205	4255.85
665.397	4208.75
665.588	4284.52
665.78	4151.4
665.971	4307.05
666.163	4270.19
666.354	4274.28
666.546	4229.23
666.737	3967.09
666.929	4026.48
667.12	4036.72
667.311	4051.05
667.503	3960.94
667.694	4012.14
667.885	3969.13
668.077	3934.32
668.268	3733.62
668.459	3934.32
668.651	3754.1
668.842	4042.86
669.033	3790.96
669.224	3768.43
669.416	3891.31
669.607	3752.05
669.798	3844.21
669.989	3903.6
670.18	3766.39
670.371	3700.85
670.563	3571.83
670.754	3684.47
670.945	3706.99
671.136	3561.59
671.327	3592.31
671.518	3438.71
671.709	3676.27
671.9	3631.22
672.091	3635.32
672.282	3590.26
672.473	3696.75
672.664	3475.57
672.855	3610.74
673.046	3463.29
673.237	3491.96
673.428	3528.82
673.619	3422.33
673.809	3428.47
674	3436.66
674.191	3541.11
674.382	3385.46
674.573	3340.41
674.764	3442.81
674.954	3498.1
675.145	3309.69
675.336	3397.75
675.527	3328.12
675.717	3242.11
675.908	3217.53
676.099	3301.5
676.289	3410.04
676.48	3168.38
676.671	3147.9
676.861	3131.51
677.052	3197.05
677.243	3125.37
677.433	3225.72
677.624	3160.19
677.814	3166.33
678.005	3147.9
678.195	3182.71
678.386	3209.34
678.576	2994.3
678.767	3000.44
678.957	3176.57
679.148	3051.64
679.338	3190.91
679.529	3135.61
679.719	3158.14
679.909	3090.56
680.1	3022.97
680.29	3053.69
680.481	2918.53
680.671	3111.04
680.861	2984.06
681.052	3033.21
681.242	2961.53
681.432	3014.78
681.622	2953.34
681.813	2883.71
682.003	2982.01
682.193	2844.8
682.383	3025.02
682.573	3000.44
682.764	2902.14
682.954	3141.75
683.144	2875.52
683.334	2920.57
683.524	2799.74
683.714	2992.25
683.904	2896
684.094	2867.33
684.284	2943.1
684.474	2912.38
684.664	2896
684.854	2781.31
685.044	2877.57
685.234	2803.84
685.424	2824.32
685.614	2896
685.804	2820.22
685.994	2869.37
686.184	2781.31
686.374	2803.84
686.564	2672.77
686.753	2775.17
686.943	2640
687.133	2646.15
687.323	2777.22
687.513	2715.78
687.702	2865.28
687.892	2674.82
688.082	2601.09
688.272	2762.88
688.461	2656.39
688.651	2660.48
688.841	2476.16
689.03	2504.84
689.22	2625.67
689.41	2683.01
689.599	2635.91
689.789	2664.58
689.979	2551.94
690.168	2504.84
690.358	2531.46
690.547	2472.07
690.737	2478.21
690.926	2633.86
691.116	2476.16
691.305	2588.8
691.495	2484.36
691.684	2478.21
691.874	2506.88
692.063	2504.84
692.252	2371.72
692.442	2488.45
692.631	2453.64
692.82	2427.01
693.01	2496.64
693.199	2486.4
693.388	2287.75
693.578	2461.83
693.767	2408.58
693.956	2308.23
694.146	2400.39
694.335	2351.24
694.524	2257.03
694.713	2334.86
694.902	2341
695.092	2472.07
695.281	2271.37
695.47	2435.21
695.659	2347.14
695.848	2191.5
696.037	2248.84
696.226	2394.25
696.415	2281.61
696.604	2291.85
696.793	2306.18
696.982	2285.7
697.171	2185.35
697.36	2281.61
697.549	2246.79
697.738	2281.61
697.927	2328.71
698.116	2267.27
698.305	2193.55
698.494	2308.23
698.683	2146.44
698.872	2199.69
699.061	2277.51
699.25	2191.5
699.438	2273.42
699.627	2179.21
699.816	2308.23
700.005	2201.74
700.193	2201.74
700.382	2277.51
700.571	2273.42
700.76	2230.41
700.948	2138.25
701.137	2259.08
701.326	2181.26
701.514	2103.43
701.703	2238.6
701.892	2181.26
702.08	2291.85
702.269	2273.42
702.457	2123.91
702.646	2074.76
702.834	2183.31
703.023	2134.15
703.212	2189.45
703.4	2207.88
703.589	2119.82
703.777	2195.59
703.965	2052.24
704.154	2277.51
704.342	2166.92
704.531	2062.48
704.719	2144.39
704.907	2218.12
705.096	2187.4
705.284	2162.83
705.472	2162.83
705.661	2226.31
705.849	2175.11
706.037	2248.84
706.226	2201.74
706.414	1994.89
706.602	2111.63
706.79	2201.74
706.979	2136.2
707.167	2107.53
707.355	2201.74
707.543	2123.91
707.731	2150.54
707.919	2072.72
708.107	2158.73
708.296	2132.11
708.484	2173.07
708.672	2181.26
708.86	2140.3
709.048	2168.97
709.236	2144.39
709.424	2107.53
709.612	2224.26
709.8	2209.93
709.988	2025.61
710.176	2216.07
710.364	2162.83
710.551	2140.3
710.739	2042
710.927	2113.67
711.115	2074.76
711.303	2140.3
711.491	2216.07
711.679	2136.2
711.866	2087.05
712.054	2117.77
712.242	2117.77
712.43	2085
712.617	2128.01
712.805	2058.38
712.993	2142.35
713.181	2062.48
713.368	2052.24
713.556	2154.63
713.744	2082.95
713.931	2093.19
714.119	2166.92
714.306	2025.61
714.494	2150.54
714.682	2148.49
714.869	2003.08
715.057	2046.09
715.244	2082.95
715.432	2066.57
715.619	2140.3
715.807	2091.15
715.994	2015.37
716.182	2078.86
716.369	2031.76
716.556	2042
716.744	2068.62
716.931	2070.67
717.119	2148.49
717.306	2099.34
717.493	2125.96
717.681	1970.32
717.868	2068.62
718.055	2183.31
718.242	2168.97
718.43	2199.69
718.617	2039.95
718.804	2107.53
718.991	2005.13
719.179	2074.76
719.366	2027.66
719.553	2179.21
719.74	2074.76
719.927	2136.2
720.114	2054.28
720.301	2072.72
720.488	2033.8
720.676	2072.72
720.863	2148.49
721.05	2066.57
721.237	2007.18
721.424	2164.87
721.611	2003.08
721.798	2113.67
721.985	2101.39
722.172	2082.95
722.358	1994.89
722.545	2044.04
722.732	2027.66
722.919	2052.24
723.106	2050.19
723.293	2044.04
723.48	2042
723.667	2048.14
723.853	2105.48
724.04	2177.16
724.227	1978.51
724.414	2123.91
724.6	1955.98
724.787	2003.08
724.974	2044.04
725.161	2056.33
725.347	2046.09
725.534	2101.39
725.72	2085
725.907	2105.48
726.094	2240.65
726.28	2078.86
726.467	2048.14
726.653	2039.95
726.84	2085
727.027	2025.61
727.213	2029.71
727.4	2048.14
727.586	2064.52
727.773	2101.39
727.959	2042
728.145	2107.53
728.332	2011.28
728.518	2056.33
728.705	2021.52
728.891	2154.63
729.077	2091.15
729.264	2123.91
729.45	2080.91
729.636	2121.87
729.823	2050.19
730.009	1990.8
730.195	1968.27
730.382	2009.23
730.568	2054.28
730.754	2168.97
730.94	1915.02
731.126	2072.72
731.313	2144.39
731.499	2060.43
731.685	2107.53
731.871	2058.38
732.057	2005.13
732.243	1929.36
732.429	2076.81
732.615	1972.36
732.801	2044.04
732.987	1972.36
733.173	2007.18
733.359	2115.72
733.545	2019.47
733.731	2003.08
733.917	1996.94
734.103	1986.7
734.289	2023.56
734.475	2009.23
734.661	2001.04
734.847	1978.51
735.033	2005.13
735.219	2021.52
735.404	2029.71
735.59	1996.94
735.776	2013.32
735.962	2001.04
736.148	1951.88
736.333	2058.38
736.519	2068.62
736.705	2058.38
736.89	2003.08
737.076	1939.6
737.262	1894.54
737.447	1927.31
737.633	2046.09
737.819	2009.23
738.004	1935.5
738.19	1960.08
738.375	2003.08
738.561	1925.26
738.747	1822.86
738.932	1886.35
739.118	2068.62
739.303	1882.25
739.489	1900.69
739.674	1890.45
739.859	1837.2
740.045	1917.07
740.23	1892.49
740.416	1878.16
740.601	1927.31
740.786	1859.73
740.972	1806.48
741.157	1878.16
741.342	1833.1
741.528	1788.05
741.713	1917.07
741.898	1882.25
742.084	1804.43
742.269	1953.93
742.454	1849.49
742.639	1951.88
742.824	1869.97
743.01	1829.01
743.195	1804.43
743.38	1857.68
743.565	1796.24
743.75	1798.29
743.935	1783.95
744.12	1804.43
744.305	1722.51
744.49	1769.62
744.675	1841.29
744.86	1783.95
745.045	1730.7
745.23	1587.35
745.415	1728.66
745.6	1738.9
745.785	1675.41
745.97	1665.17
746.155	1718.42
746.34	1730.7
746.525	1732.75
746.71	1749.14
746.895	1636.5
747.079	1636.5
747.264	1591.44
747.449	1659.03
747.634	1616.02
747.819	1525.91
748.003	1544.34
748.188	1603.73
748.373	1650.83
748.557	1603.73
748.742	1564.82
748.927	1669.27
749.111	1566.87
749.296	1605.78
749.481	1620.11
749.665	1550.48
749.85	1487
750.034	1542.29
750.219	1468.56
750.404	1564.82
750.588	1456.28
750.773	1480.85
750.957	1497.24
751.141	1532.05
751.326	1493.14
751.51	1390.74
751.695	1429.65
751.879	1460.37
752.064	1380.5
752.248	1357.97
752.432	1441.94
752.617	1425.56
752.801	1509.52
752.985	1364.12
753.17	1370.26
753.354	1374.36
753.538	1366.17
753.722	1271.96
753.907	1296.53
754.091	1312.92
754.275	1263.77
754.459	1317.01
754.643	1325.21
754.828	1276.06
755.012	1317.01
755.196	1243.29
755.38	1239.19
755.564	1265.82
755.748	1167.51
755.932	1233.05
756.116	1179.8
756.3	1169.56
756.484	1216.66
756.668	1231
756.852	1153.18
757.036	1091.74
757.22	1177.75
757.404	1157.27
757.588	1192.09
757.772	1185.94
757.956	1130.65
758.14	1118.36
758.323	1042.59
758.507	1124.51
758.691	1124.51
758.875	1175.7
759.059	1091.74
759.242	1112.22
759.426	1001.63
759.61	1081.5
759.794	1095.83
759.977	1147.03
760.161	1020.06
760.345	1106.07
760.528	1118.36
760.712	1067.16
760.895	1024.16
761.079	1032.35
761.263	1050.78
761.446	1018.01
761.63	1007.77
761.813	962.72
761.997	1046.68
762.18	970.91
762.364	1083.55
762.547	981.15
762.731	1040.54
762.914	1036.44
763.098	1065.11
763.281	962.72
763.464	882.85
763.648	938.14
763.831	891.04
764.015	938.14
764.198	954.52
764.381	899.23
764.564	1071.26
764.748	788.64
764.931	864.41
765.114	940.19
765.297	972.96
765.481	893.09
765.664	921.76
765.847	970.91
766.03	899.23
766.213	907.42
766.397	903.32
766.58	897.18
766.763	878.75
766.946	876.7
767.129	911.52
767.312	860.32
767.495	872.61
767.678	821.41
767.861	878.75
768.044	893.09
768.227	866.46
768.41	880.8
768.593	866.46
768.776	891.04
768.959	817.31
769.142	862.37
769.324	815.26
769.507	792.73
769.69	755.87
769.873	827.55
770.056	862.37
770.239	790.69
770.421	735.39
770.604	802.97
770.787	784.54
770.97	731.3
771.152	843.93
771.335	716.96
771.518	825.5
771.7	800.93
771.883	751.78
772.066	745.63
772.248	655.52
772.431	782.49
772.613	747.68
772.796	747.68
772.978	796.83
773.161	721.06
773.343	747.68
773.526	690.34
773.708	766.11
773.891	671.9
774.073	708.77
774.256	712.86
774.438	704.67
774.621	764.06
774.803	755.87
774.985	659.62
775.168	710.82
775.35	632.99
775.532	710.82
775.715	690.34
775.897	698.53
776.079	680.1
776.261	673.95
776.444	604.32
776.626	686.24
776.808	665.76
776.99	632.99
777.173	639.14
777.355	651.42
777.537	692.38
777.719	661.66
777.901	596.13
778.083	587.94
778.265	628.9
778.447	575.65
778.629	641.18
778.811	555.17
778.993	667.81
779.175	616.61
779.357	540.83
779.539	581.79
779.721	671.9
779.903	594.08
780.085	596.13
780.267	600.23
780.449	585.89
780.631	528.55
780.812	577.7
780.994	571.55
781.176	534.69
781.358	561.31
781.54	561.31
781.721	522.4
781.903	569.51
782.085	520.35
782.267	544.93
782.448	485.54
782.63	497.83
782.812	540.83
782.993	485.54
783.175	497.83
783.357	477.35
783.538	489.64
783.72	477.35
783.901	428.2
784.083	389.28
784.264	420
784.446	387.24
784.627	420
784.809	442.53
784.99	456.87
785.172	481.44
785.353	422.05
785.535	481.44
785.716	465.06
785.897	413.86
786.079	463.01
786.26	420
786.441	413.86
786.623	444.58
786.804	397.48
786.985	389.28
787.167	442.53
787.348	366.76
787.529	344.23
787.71	506.02
787.891	411.81
788.073	518.31
788.254	364.71
788.435	417.96
788.616	463.01
788.797	362.66
788.978	397.48
789.159	411.81
789.34	338.09
789.522	444.58
789.703	356.52
789.884	444.58
790.065	372.9
790.246	368.81
790.427	428.2
790.607	426.15
790.788	317.61
790.969	360.61
791.15	358.57
791.331	293.03
791.512	290.98
791.693	305.32
791.874	245.93
792.054	338.09
792.235	352.42
792.416	329.89
792.597	333.99
792.778	342.18
792.958	346.28
793.139	356.52
793.32	411.81
793.5	317.61
793.681	274.6
793.862	297.13
794.042	295.08
794.223	315.56
794.404	329.89
794.584	327.85
794.765	243.88
794.945	258.21
795.126	336.04
795.306	280.74
795.487	268.45
795.667	336.04
795.848	301.22
796.028	293.03
796.209	290.98
796.389	354.47
796.57	305.32
796.75	166.06
796.93	231.59
797.111	243.88
797.291	245.93
797.471	237.74
797.652	184.49
797.832	323.75
798.012	374.95
798.192	139.43
798.373	254.12
798.553	254.12
798.733	168.1
798.913	200.87
799.093	256.17
799.274	237.74
799.454	262.31
799.634	258.21
799.814	241.83
799.994	215.21
800.174	237.74
800.354	196.78
800.534	170.15
800.714	274.6
800.894	254.12
801.074	190.63
801.254	141.48
801.434	260.26
801.614	219.3
801.794	274.6
801.974	708.77
802.154	215.21
802.334	307.37
802.514	227.5
802.693	225.45
802.873	245.93
803.053	235.69
803.233	219.3
803.413	272.55
803.592	139.43
803.772	252.07
803.952	186.54
804.131	235.69
804.311	266.41
804.491	268.45
804.67	129.19
804.85	258.21
805.03	247.97
805.209	198.82
805.389	168.1
805.568	170.15
805.748	231.59
805.928	256.17
806.107	182.44
806.287	151.72
806.466	215.21
806.646	196.78
806.825	209.06
807.004	157.86
807.184	217.26
807.363	166.06
807.543	219.3
807.722	149.67
807.901	192.68
808.081	211.11
808.26	194.73
808.439	204.97
808.619	153.77
808.798	137.38
808.977	164.01
809.156	192.68
809.336	118.95
809.515	127.14
809.694	204.97
809.873	151.72
810.052	184.49
810.231	247.97
810.411	213.16
810.59	215.21
810.769	180.39
810.948	174.25
811.127	141.48
811.306	114.86
811.485	135.34
811.664	159.91
811.843	188.58
812.022	207.02
812.201	133.29
812.38	200.87
812.559	84.14
812.737	141.48
812.916	153.77
813.095	149.67
813.274	94.38
813.453	98.47
813.632	143.53
813.811	176.3
813.989	98.47
814.168	108.71
814.347	108.71
814.526	157.86
814.704	159.91
814.883	159.91
815.062	108.71
815.24	221.35
815.419	71.85
815.598	153.77
815.776	37.03
815.955	112.81
816.133	123.05
816.312	176.3
816.49	141.48
816.669	141.48
816.847	147.62
817.026	170.15
817.204	104.62
817.383	125.1
817.561	121
817.74	61.61
817.918	112.81
818.097	190.63
818.275	102.57
818.453	149.67
818.632	125.1
818.81	184.49
818.988	153.77
819.167	176.3
819.345	108.71
819.523	98.47
819.701	131.24
819.879	104.62
820.058	112.81
820.236	170.15
820.414	157.86
820.592	18.6
820.77	121
820.948	77.99
821.127	102.57
821.305	108.71
821.483	63.66
821.661	153.77
821.839	155.82
822.017	118.95
822.195	69.8
822.373	176.3
822.551	133.29
822.729	77.99
822.907	102.57
823.085	192.68
823.262	77.99
823.44	84.14
823.618	88.23
823.796	108.71
823.974	90.28
824.152	114.86
824.329	110.76
824.507	137.38
824.685	43.18
824.863	47.27
825.04	92.33
825.218	161.96
825.396	75.95
825.574	96.43
825.751	141.48
825.929	166.06
826.107	94.38
826.284	32.94
826.462	100.52
826.639	75.95
826.817	67.75
826.994	69.8
827.172	51.37
827.349	127.14
827.527	172.2
827.704	43.18
827.882	69.8
828.059	73.9
828.237	125.1
828.414	106.67
828.591	37.03
828.769	90.28
828.946	67.75
829.124	127.14
829.301	139.43
829.478	53.42
829.655	131.24
829.833	131.24
830.01	106.67
830.187	133.29
830.364	59.56
830.542	98.47
830.719	92.33
830.896	108.71
831.073	37.03
831.25	37.03
831.427	92.33
831.604	84.14
831.782	34.99
831.959	100.52
832.136	84.14
832.313	61.61
832.49	98.47
832.667	84.14
832.844	90.28
833.021	125.1
833.198	92.33
833.374	143.53
833.551	69.8
833.728	34.99
833.905	112.81
834.082	71.85
834.259	118.95
834.436	77.99
834.612	180.39
834.789	65.71
834.966	53.42
835.143	14.51
835.319	73.9
835.496	155.82
835.673	108.71
835.85	114.86
836.026	4.27
836.203	75.95
836.38	75.95
836.556	100.52
836.733	57.51
836.909	80.04
837.086	88.23
837.262	92.33
837.439	94.38
837.616	102.57
837.792	100.52
837.968	39.08
838.145	108.71
838.321	45.23
838.498	45.23
838.674	104.62
838.851	86.19
839.027	55.47
839.203	43.18
839.38	108.71
839.556	135.34
839.732	28.84
839.909	118.95
840.085	100.52
840.261	-5.97
840.437	41.13
840.614	10.41
840.79	53.42
840.966	116.9
841.142	96.43
841.318	67.75
841.494	10.41
841.671	133.29
841.847	100.52
842.023	118.95
842.199	59.56
842.375	90.28
842.551	63.66
842.727	90.28
842.903	59.56
843.079	94.38
843.255	34.99
843.431	123.05
843.607	65.71
843.783	-18.26
843.959	63.66
844.134	37.03
844.31	43.18
844.486	30.89
844.662	51.37
844.838	34.99
845.013	118.95
845.189	57.51
845.365	14.51
845.541	108.71
845.716	131.24
845.892	43.18
846.068	18.6
846.244	34.99
846.419	108.71
846.595	57.51
846.77	20.65
846.946	4.27
847.122	53.42
847.297	67.75
847.473	161.96
847.648	63.66
847.824	51.37
847.999	114.86
848.175	75.95
848.35	34.99
848.526	51.37
848.701	80.04
848.876	26.79
849.052	8.36
849.227	37.03
849.403	73.9
849.578	41.13
849.753	75.95
849.929	88.23
850.104	14.51
850.279	80.04
850.454	75.95
850.63	8.36
850.805	57.51
850.98	32.94
851.155	12.46
851.33	102.57
851.505	32.94
851.681	92.33
851.856	-18.26
852.031	86.19
852.206	2.22
852.381	24.75
852.556	20.65
852.731	41.13
852.906	34.99
853.081	28.84
853.256	55.47
853.431	4.27
853.606	0.17
853.781	30.89
853.956	-44.88
854.131	118.95
854.305	-34.64
854.48	71.85
854.655	-79.7
854.83	77.99
855.005	51.37
855.18	59.56
855.354	26.79
855.529	-26.45
855.704	16.55
855.879	26.79
856.053	37.03
856.228	71.85
856.403	84.14
856.577	45.23
856.752	37.03
856.926	61.61
857.101	61.61
857.276	65.71
857.45	65.71
857.625	28.84
857.799	49.32
857.974	41.13
858.148	-26.45
858.323	100.52
858.497	63.66
858.672	71.85
858.846	39.08
859.02	67.75
859.195	-32.6
859.369	47.27
859.543	12.46
859.718	2.22
859.892	-5.97
860.066	32.94
860.241	-5.97
860.415	10.41
860.589	12.46
860.763	18.6
860.938	43.18
861.112	102.57
861.286	22.7
861.46	-14.17
861.634	61.61
861.808	88.23
861.982	49.32
862.157	2.22
862.331	98.47
862.505	-46.93
862.679	-1.88
862.853	26.79
863.027	57.51
863.201	94.38
863.375	-38.74
863.549	43.18
863.722	43.18
863.896	71.85
864.07	-30.55
864.244	-3.93
864.418	133.29
864.592	112.81
864.766	28.84
864.939	92.33
865.113	0.17
865.287	61.61
865.461	39.08
865.634	-42.84
865.808	80.04
865.982	22.7
866.156	20.65
866.329	43.18
866.503	20.65
866.676	-1.88
866.85	8.36
867.024	94.38
867.197	45.23
867.371	10.41
867.544	14.51
867.718	51.37
867.891	47.27
868.065	-26.45
868.238	2.22
868.412	53.42
868.585	18.6
868.759	14.51
868.932	-26.45
869.105	34.99
869.279	26.79
869.452	34.99
869.625	26.79
869.799	51.37
869.972	18.6
870.145	67.75
870.319	22.7
870.492	-8.02
870.665	67.75
870.838	-28.5
871.011	-10.07
871.185	12.46
871.358	26.79
871.531	55.47
871.704	6.31
871.877	49.32
872.05	12.46
872.223	14.51
872.396	16.55
872.569	39.08
872.742	-24.4
872.915	34.99
873.088	67.75
873.261	12.46
873.434	14.51
873.607	20.65
873.78	80.04
873.953	-22.36
874.126	6.31
874.299	86.19
874.471	-12.12
874.644	59.56
874.817	92.33
874.99	55.47
875.163	-12.12
875.335	18.6
875.508	6.31
875.681	51.37
875.853	59.56
876.026	45.23
876.199	-10.07
876.371	26.79
876.544	16.55
876.717	51.37
876.889	-28.5
877.062	45.23
877.234	2.22
877.407	22.7
877.579	-28.5
877.752	12.46
877.924	43.18
878.097	34.99
878.269	10.41
878.442	34.99
878.614	2.22
878.786	8.36
878.959	4.27
879.131	8.36
879.303	-28.5
879.476	80.04
879.648	10.41
879.82	-1.88
879.993	12.46
880.165	-5.97
880.337	30.89
880.509	86.19
880.681	-14.17
880.854	-44.88
881.026	-16.21
881.198	2.22
881.37	49.32
881.542	51.37
881.714	2.22
881.886	53.42
882.058	10.41
882.23	34.99
882.402	51.37
882.574	8.36
882.746	26.79
882.918	16.55
883.09	63.66
883.262	118.95
883.434	-44.88
883.606	-53.08
883.778	-1.88
883.95	135.34
884.122	45.23
884.293	71.85
884.465	-1.88
884.637	51.37
884.809	18.6
884.98	84.14
885.152	-16.21
885.324	34.99
885.496	-12.12
885.667	73.9
885.839	51.37
886.011	4.27
886.182	2.22
886.354	41.13
886.525	30.89
886.697	75.95
886.869	-10.07
887.04	18.6
887.212	67.75
887.383	80.04
887.555	18.6
887.726	47.27
887.897	-8.02
888.069	39.08
888.24	51.37
888.412	16.55
888.583	-42.84
888.754	32.94
888.926	32.94
889.097	47.27
889.268	-30.55
889.44	-61.27
889.611	43.18
889.782	-61.27
889.953	37.03
890.125	24.75
890.296	18.6
890.467	14.51
890.638	61.61
890.809	63.66
890.98	-61.27
891.151	53.42
891.323	18.6
891.494	-69.46
891.665	18.6
891.836	75.95
892.007	20.65
892.178	14.51
892.349	-51.03
892.52	-67.41
892.691	51.37
892.862	53.42
893.032	37.03
893.203	69.8
893.374	-57.17
893.545	110.76
893.716	-5.97
893.887	41.13
894.057	18.6
894.228	30.89
894.399	-1.88
894.57	26.79
894.74	6.31
894.911	51.37
895.082	-38.74
895.253	12.46
895.423	-57.17
895.594	-14.17
895.764	53.42
895.935	53.42
896.106	32.94
896.276	0.17
896.447	34.99
896.617	37.03
896.788	-5.97
896.958	2.22
897.129	26.79
897.299	26.79
897.47	28.84
897.64	39.08
897.81	-14.17
897.981	73.9
898.151	10.41
898.322	39.08
898.492	45.23
898.662	-28.5
898.832	14.51
899.003	10.41
899.173	18.6
899.343	75.95
899.513	71.85
