Data from USB4F104151__7__13-10-20-627.txt Node

Date: Fri Mar 14 13:10:20 EDT 2025
User: louis
Spectrometer: USB4F10415
Trigger mode: 4
Integration Time (sec): 2.000000E-2
Scans to average: 1
Electric dark correction enabled: true
Nonlinearity correction enabled: false
Boxcar width: 0
XAxis mode: Wavelengths
Number of Pixels in Spectrum: 3648
>>>>>Begin Spectral Data<<<<<
178.204	-106.84
178.424	-106.84
178.644	-106.84
178.864	-80.21
179.084	-123.22
179.304	-31.06
179.524	16.04
179.744	16.04
179.964	28.33
180.184	-10.58
180.404	-10.58
180.624	3.75
180.844	38.57
181.064	-45.4
181.283	-51.54
181.503	24.23
181.723	22.19
181.943	-2.39
182.163	40.62
182.383	-12.63
182.602	-2.39
182.822	71.34
183.042	-16.73
183.262	-26.96
183.482	-29.01
183.701	7.85
183.921	57
184.141	-18.77
184.361	61.1
184.58	-10.58
184.8	30.38
185.02	18.09
185.239	54.95
185.459	65.19
185.679	67.24
185.898	9.9
186.118	87.72
186.338	110.25
186.557	143.02
186.777	20.14
186.997	30.38
187.216	-10.58
187.436	85.67
187.655	-24.92
187.875	71.34
188.095	-18.77
188.314	20.14
188.534	-20.82
188.753	7.85
188.973	44.71
189.192	73.39
189.412	30.38
189.631	3.75
189.851	-24.92
190.07	-2.39
190.29	-4.44
190.509	34.47
190.729	-45.4
190.948	42.67
191.168	122.54
191.387	116.39
191.607	-14.68
191.826	63.15
192.045	40.62
192.265	-4.44
192.484	13.99
192.704	-20.82
192.923	-135.51
193.142	106.15
193.362	-49.49
193.581	-14.68
193.8	93.87
194.02	116.39
194.239	9.9
194.458	75.43
194.678	-2.39
194.897	-0.34
195.116	16.04
195.335	24.23
195.555	-12.63
195.774	-0.34
195.993	16.04
196.212	46.76
196.432	9.9
196.651	38.57
196.87	5.8
197.089	69.29
197.308	-0.34
197.528	9.9
197.747	-61.78
197.966	28.33
198.185	93.87
198.404	-63.83
198.623	30.38
198.842	-26.96
199.062	57
199.281	-18.77
199.5	-61.78
199.719	48.81
199.938	-18.77
200.157	77.48
200.376	-39.25
200.595	65.19
200.814	59.05
201.033	11.95
201.252	-35.16
201.471	69.29
201.69	-12.63
201.909	104.11
202.128	48.81
202.347	28.33
202.566	3.75
202.785	59.05
203.004	-37.2
203.223	95.91
203.442	-2.39
203.661	24.23
203.879	61.1
204.098	24.23
204.317	11.95
204.536	22.19
204.755	-2.39
204.974	48.81
205.193	52.91
205.411	-2.39
205.63	44.71
205.849	7.85
206.068	13.99
206.287	77.48
206.505	30.38
206.724	91.82
206.943	-18.77
207.162	-12.63
207.381	-12.63
207.599	67.24
207.818	-33.11
208.037	52.91
208.255	95.91
208.474	-29.01
208.693	-8.53
208.911	100.01
209.13	30.38
209.349	71.34
209.567	87.72
209.786	83.63
210.005	44.71
210.223	30.38
210.442	-26.96
210.661	87.72
210.879	38.57
211.098	79.53
211.316	13.99
211.535	118.44
211.753	-49.49
211.972	18.09
212.191	-6.49
212.409	-26.96
212.628	38.57
212.846	16.04
213.065	5.8
213.283	52.91
213.502	-12.63
213.72	93.87
213.938	-26.96
214.157	-51.54
214.375	50.86
214.594	52.91
214.812	16.04
215.031	-4.44
215.249	36.52
215.467	36.52
215.686	89.77
215.904	40.62
216.122	-51.54
216.341	-33.11
216.559	110.25
216.778	-20.82
216.996	7.85
217.214	-18.77
217.432	42.67
217.651	18.09
217.869	-43.35
218.087	38.57
218.306	57
218.524	83.63
218.742	-2.39
218.96	52.91
219.179	3.75
219.397	54.95
219.615	71.34
219.833	-29.01
220.051	57
220.27	-16.73
220.488	93.87
220.706	-6.49
220.924	69.29
221.142	40.62
221.36	9.9
221.578	16.04
221.796	-16.73
222.015	85.67
222.233	63.15
222.451	44.71
222.669	-51.54
222.887	61.1
223.105	5.8
223.323	38.57
223.541	-45.4
223.759	77.48
223.977	3.75
224.195	126.63
224.413	93.87
224.631	81.58
224.849	-6.49
225.067	13.99
225.285	-24.92
225.503	7.85
225.721	-18.77
225.939	77.48
226.157	48.81
226.375	81.58
226.592	-4.44
226.81	106.15
227.028	38.57
227.246	106.15
227.464	50.86
227.682	-26.96
227.9	-10.58
228.117	48.81
228.335	71.34
228.553	77.48
228.771	65.19
228.989	54.95
229.206	54.95
229.424	-33.11
229.642	3.75
229.86	-8.53
230.077	-4.44
230.295	-14.68
230.513	-6.49
230.731	26.28
230.948	36.52
231.166	93.87
231.384	13.99
231.601	79.53
231.819	-22.87
232.037	26.28
232.254	-31.06
232.472	-10.58
232.689	34.47
232.907	-22.87
233.125	102.06
233.342	-45.4
233.56	79.53
233.777	36.52
233.995	11.95
234.213	104.11
234.43	93.87
234.648	65.19
234.865	-35.16
235.083	54.95
235.3	13.99
235.518	-45.4
235.735	79.53
235.953	85.67
236.17	28.33
236.388	69.29
236.605	42.67
236.822	120.49
237.04	108.2
237.257	1.71
237.475	-16.73
237.692	89.77
237.909	50.86
238.127	-33.11
238.344	34.47
238.562	52.91
238.779	-18.77
238.996	-33.11
239.214	81.58
239.431	57
239.648	-12.63
239.865	100.01
240.083	38.57
240.3	-55.64
240.517	52.91
240.735	87.72
240.952	71.34
241.169	-0.34
241.386	95.91
241.603	44.71
241.821	-16.73
242.038	97.96
242.255	81.58
242.472	32.43
242.689	97.96
242.907	61.1
243.124	-22.87
243.341	30.38
243.558	26.28
243.775	38.57
243.992	-18.77
244.209	11.95
244.426	65.19
244.643	30.38
244.86	22.19
245.078	106.15
245.295	83.63
245.512	-20.82
245.729	-14.68
245.946	28.33
246.163	7.85
246.38	57
246.597	65.19
246.814	63.15
247.031	-22.87
247.248	54.95
247.464	5.8
247.681	-4.44
247.898	-6.49
248.115	85.67
248.332	7.85
248.549	126.63
248.766	11.95
248.983	63.15
249.2	104.11
249.417	77.48
249.633	16.04
249.85	3.75
250.067	-29.01
250.284	3.75
250.501	77.48
250.717	71.34
250.934	93.87
251.151	71.34
251.368	-39.25
251.585	11.95
251.801	93.87
252.018	18.09
252.235	44.71
252.451	22.19
252.668	3.75
252.885	61.1
253.102	20.14
253.318	69.29
253.535	57
253.752	42.67
253.968	-33.11
254.185	-4.44
254.401	48.81
254.618	-20.82
254.835	36.52
255.051	50.86
255.268	122.54
255.484	-10.58
255.701	36.52
255.917	-14.68
256.134	-26.96
256.351	7.85
256.567	30.38
256.784	57
257	-0.34
257.217	75.43
257.433	26.28
257.65	-29.01
257.866	40.62
258.082	91.82
258.299	3.75
258.515	77.48
258.732	-4.44
258.948	44.71
259.165	63.15
259.381	32.43
259.597	-37.2
259.814	52.91
260.03	3.75
260.246	5.8
260.463	40.62
260.679	30.38
260.895	38.57
261.112	22.19
261.328	67.24
261.544	-29.01
261.761	81.58
261.977	30.38
262.193	-12.63
262.409	59.05
262.626	36.52
262.842	3.75
263.058	61.1
263.274	3.75
263.49	20.14
263.707	116.39
263.923	1.71
264.139	13.99
264.355	-16.73
264.571	30.38
264.787	52.91
265.004	16.04
265.22	-26.96
265.436	11.95
265.652	40.62
265.868	79.53
266.084	-31.06
266.3	7.85
266.516	42.67
266.732	-4.44
266.948	89.77
267.164	93.87
267.38	36.52
267.596	71.34
267.812	24.23
268.028	75.43
268.244	-18.77
268.46	42.67
268.676	42.67
268.892	97.96
269.108	42.67
269.324	67.24
269.54	-24.92
269.756	22.19
269.972	16.04
270.188	-2.39
270.403	7.85
270.619	46.76
270.835	57
271.051	57
271.267	-90.45
271.483	73.39
271.698	104.11
271.914	-16.73
272.13	-45.4
272.346	-35.16
272.562	22.19
272.777	85.67
272.993	48.81
273.209	46.76
273.425	87.72
273.64	5.8
273.856	75.43
274.072	40.62
274.287	7.85
274.503	85.67
274.719	44.71
274.934	36.52
275.15	-53.59
275.366	11.95
275.581	-31.06
275.797	46.76
276.012	42.67
276.228	61.1
276.444	16.04
276.659	42.67
276.875	-4.44
277.09	34.47
277.306	52.91
277.521	42.67
277.737	-37.2
277.952	106.15
278.168	-6.49
278.383	-10.58
278.599	9.9
278.814	5.8
279.03	93.87
279.245	13.99
279.461	46.76
279.676	159.4
279.892	3.75
280.107	-2.39
280.322	-20.82
280.538	7.85
280.753	61.1
280.969	65.19
281.184	22.19
281.399	83.63
281.615	7.85
281.83	71.34
282.045	-31.06
282.26	36.52
282.476	-47.44
282.691	-18.77
282.906	30.38
283.122	24.23
283.337	7.85
283.552	57
283.767	61.1
283.983	-65.88
284.198	24.23
284.413	50.86
284.628	3.75
284.843	11.95
285.058	61.1
285.274	-80.21
285.489	20.14
285.704	48.81
285.919	20.14
286.134	63.15
286.349	24.23
286.564	-43.35
286.779	91.82
286.995	13.99
287.21	36.52
287.425	32.43
287.64	13.99
287.855	-16.73
288.07	32.43
288.285	69.29
288.5	50.86
288.715	-6.49
288.93	102.06
289.145	11.95
289.36	20.14
289.575	22.19
289.79	71.34
290.004	26.28
290.219	28.33
290.434	9.9
290.649	3.75
290.864	32.43
291.079	46.76
291.294	42.67
291.509	36.52
291.724	63.15
291.938	11.95
292.153	-20.82
292.368	100.01
292.583	63.15
292.798	16.04
293.012	5.8
293.227	-4.44
293.442	42.67
293.657	75.43
293.871	-26.96
294.086	81.58
294.301	18.09
294.516	22.19
294.73	65.19
294.945	28.33
295.16	85.67
295.374	44.71
295.589	145.06
295.804	-29.01
296.018	-0.34
296.233	59.05
296.447	1.71
296.662	1.71
296.877	36.52
297.091	63.15
297.306	5.8
297.52	-12.63
297.735	46.76
297.949	67.24
298.164	13.99
298.378	59.05
298.593	57
298.807	24.23
299.022	42.67
299.236	102.06
299.451	40.62
299.665	-22.87
299.88	28.33
300.094	20.14
300.309	108.2
300.523	24.23
300.737	-29.01
300.952	34.47
301.166	3.75
301.381	-22.87
301.595	28.33
301.809	-4.44
302.024	32.43
302.238	-26.96
302.452	75.43
302.667	20.14
302.881	28.33
303.095	-22.87
303.309	11.95
303.524	61.1
303.738	-72.02
303.952	85.67
304.166	95.91
304.381	5.8
304.595	81.58
304.809	3.75
305.023	61.1
305.237	7.85
305.452	5.8
305.666	42.67
305.88	34.47
306.094	-0.34
306.308	-51.54
306.522	81.58
306.736	32.43
306.95	3.75
307.164	46.76
307.379	46.76
307.593	5.8
307.807	20.14
308.021	22.19
308.235	104.11
308.449	38.57
308.663	30.38
308.877	81.58
309.091	3.75
309.305	18.09
309.519	-43.35
309.733	97.96
309.947	16.04
310.161	-4.44
310.374	44.71
310.588	-12.63
310.802	9.9
311.016	48.81
311.23	52.91
311.444	102.06
311.658	44.71
311.872	95.91
312.085	-2.39
312.299	40.62
312.513	22.19
312.727	13.99
312.941	-82.26
313.154	-59.73
313.368	71.34
313.582	3.75
313.796	11.95
314.009	16.04
314.223	18.09
314.437	44.71
314.651	59.05
314.864	48.81
315.078	5.8
315.292	28.33
315.505	22.19
315.719	11.95
315.933	36.52
316.146	-10.58
316.36	30.38
316.573	87.72
316.787	69.29
317.001	44.71
317.214	26.28
317.428	114.34
317.641	44.71
317.855	118.44
318.068	46.76
318.282	54.95
318.495	63.15
318.709	-6.49
318.922	38.57
319.136	77.48
319.349	32.43
319.563	48.81
319.776	52.91
319.99	26.28
320.203	38.57
320.417	69.29
320.63	32.43
320.843	54.95
321.057	7.85
321.27	24.23
321.483	32.43
321.697	42.67
321.91	77.48
322.124	54.95
322.337	52.91
322.55	42.67
322.763	30.38
322.977	46.76
323.19	24.23
323.403	110.25
323.617	16.04
323.83	134.82
324.043	34.47
324.256	38.57
324.469	22.19
324.683	-10.58
324.896	44.71
325.109	7.85
325.322	24.23
325.535	79.53
325.748	40.62
325.962	81.58
326.175	3.75
326.388	11.95
326.601	22.19
326.814	77.48
327.027	54.95
327.24	104.11
327.453	46.76
327.666	52.91
327.879	44.71
328.092	122.54
328.305	28.33
328.518	-2.39
328.731	22.19
328.944	59.05
329.157	42.67
329.37	130.73
329.583	81.58
329.796	79.53
330.009	-18.77
330.222	79.53
330.435	-37.2
330.648	63.15
330.861	73.39
331.073	69.29
331.286	87.72
331.499	-0.34
331.712	-4.44
331.925	9.9
332.138	-57.68
332.35	38.57
332.563	24.23
332.776	38.57
332.989	11.95
333.202	-2.39
333.414	24.23
333.627	65.19
333.84	54.95
334.053	67.24
334.265	-20.82
334.478	54.95
334.691	48.81
334.903	124.58
335.116	-22.87
335.329	83.63
335.541	5.8
335.754	79.53
335.966	28.33
336.179	71.34
336.392	18.09
336.604	34.47
336.817	136.87
337.029	71.34
337.242	110.25
337.454	100.01
337.667	52.91
337.88	38.57
338.092	5.8
338.305	48.81
338.517	-4.44
338.729	61.1
338.942	9.9
339.154	61.1
339.367	-16.73
339.579	85.67
339.792	20.14
340.004	11.95
340.217	3.75
340.429	61.1
340.641	11.95
340.854	65.19
341.066	67.24
341.278	93.87
341.491	114.34
341.703	67.24
341.915	-0.34
342.128	95.91
342.34	67.24
342.552	28.33
342.764	81.58
342.977	46.76
343.189	18.09
343.401	112.3
343.613	57
343.826	54.95
344.038	-22.87
344.25	20.14
344.462	40.62
344.674	16.04
344.886	48.81
345.099	30.38
345.311	77.48
345.523	16.04
345.735	-43.35
345.947	20.14
346.159	3.75
346.371	22.19
346.583	36.52
346.795	79.53
347.007	38.57
347.219	73.39
347.431	34.47
347.643	95.91
347.855	65.19
348.067	5.8
348.279	38.57
348.491	40.62
348.703	26.28
348.915	65.19
349.127	20.14
349.339	89.77
349.551	69.29
349.763	61.1
349.975	87.72
350.187	38.57
350.399	48.81
350.61	3.75
350.822	114.34
351.034	-2.39
351.246	-2.39
351.458	44.71
351.669	-26.96
351.881	89.77
352.093	42.67
352.305	30.38
352.517	77.48
352.728	7.85
352.94	24.23
353.152	18.09
353.363	26.28
353.575	-18.77
353.787	104.11
353.999	81.58
354.21	95.91
354.422	-63.83
354.633	44.71
354.845	71.34
355.057	102.06
355.268	73.39
355.48	48.81
355.692	36.52
355.903	-31.06
356.115	-4.44
356.326	18.09
356.538	95.91
356.749	32.43
356.961	22.19
357.172	54.95
357.384	61.1
357.595	106.15
357.807	24.23
358.018	65.19
358.23	28.33
358.441	75.43
358.653	-20.82
358.864	52.91
359.075	63.15
359.287	-33.11
359.498	-2.39
359.709	67.24
359.921	77.48
360.132	16.04
360.344	42.67
360.555	114.34
360.766	46.76
360.977	13.99
361.189	71.34
361.4	28.33
361.611	79.53
361.823	83.63
362.034	57
362.245	65.19
362.456	-16.73
362.667	36.52
362.879	-20.82
363.09	52.91
363.301	71.34
363.512	18.09
363.723	5.8
363.935	48.81
364.146	7.85
364.357	85.67
364.568	145.06
364.779	-45.4
364.99	73.39
365.201	52.91
365.412	85.67
365.623	1.71
365.834	-45.4
366.045	63.15
366.256	61.1
366.467	40.62
366.678	-26.96
366.889	57
367.1	77.48
367.311	116.39
367.522	32.43
367.733	110.25
367.944	20.14
368.155	38.57
368.366	77.48
368.577	102.06
368.788	81.58
368.999	-8.53
369.209	114.34
369.42	87.72
369.631	97.96
369.842	-51.54
370.053	67.24
370.264	73.39
370.474	57
370.685	93.87
370.896	63.15
371.107	120.49
371.317	36.52
371.528	79.53
371.739	110.25
371.95	36.52
372.16	20.14
372.371	-18.77
372.582	7.85
372.792	83.63
373.003	59.05
373.214	87.72
373.424	104.11
373.635	-37.2
373.846	130.73
374.056	18.09
374.267	-4.44
374.477	42.67
374.688	69.29
374.898	30.38
375.109	143.02
375.319	100.01
375.53	7.85
375.74	30.38
375.951	-20.82
376.161	11.95
376.372	52.91
376.582	20.14
376.793	44.71
377.003	59.05
377.214	36.52
377.424	83.63
377.635	65.19
377.845	71.34
378.055	38.57
378.266	44.71
378.476	48.81
378.686	81.58
378.897	52.91
379.107	18.09
379.317	3.75
379.528	89.77
379.738	9.9
379.948	18.09
380.158	102.06
380.369	36.52
380.579	128.68
380.789	-16.73
380.999	54.95
381.21	77.48
381.42	108.2
381.63	46.76
381.84	120.49
382.05	114.34
382.261	77.48
382.471	34.47
382.681	26.28
382.891	124.58
383.101	46.76
383.311	-43.35
383.521	11.95
383.731	-2.39
383.941	57
384.151	-2.39
384.361	120.49
384.571	57
384.781	93.87
384.991	102.06
385.201	122.54
385.411	42.67
385.621	54.95
385.831	28.33
386.041	59.05
386.251	11.95
386.461	147.11
386.671	32.43
386.881	128.68
387.091	50.86
387.301	120.49
387.511	50.86
387.72	20.14
387.93	59.05
388.14	52.91
388.35	1.71
388.56	24.23
388.769	104.11
388.979	20.14
389.189	11.95
389.399	38.57
389.609	79.53
389.818	30.38
390.028	73.39
390.238	52.91
390.447	97.96
390.657	65.19
390.867	73.39
391.076	54.95
391.286	65.19
391.496	61.1
391.705	20.14
391.915	126.63
392.125	52.91
392.334	87.72
392.544	147.11
392.753	40.62
392.963	48.81
393.172	110.25
393.382	54.95
393.591	112.3
393.801	61.1
394.01	143.02
394.22	120.49
394.429	40.62
394.639	140.97
394.848	134.82
395.058	67.24
395.267	110.25
395.477	102.06
395.686	136.87
395.895	77.48
396.105	118.44
396.314	28.33
396.524	28.33
396.733	112.3
396.942	151.21
397.152	79.53
397.361	22.19
397.57	102.06
397.78	143.02
397.989	79.53
398.198	192.17
398.407	57
398.617	165.54
398.826	-16.73
399.035	89.77
399.244	114.34
399.453	85.67
399.663	65.19
399.872	126.63
400.081	188.07
400.29	138.92
400.499	38.57
400.708	112.3
400.917	65.19
401.127	126.63
401.336	83.63
401.545	120.49
401.754	79.53
401.963	181.93
402.172	153.26
402.381	128.68
402.59	153.26
402.799	173.74
403.008	95.91
403.217	151.21
403.426	73.39
403.635	34.47
403.844	112.3
404.053	108.2
404.262	138.92
404.471	226.98
404.68	145.06
404.888	153.26
405.097	130.73
405.306	132.78
405.515	104.11
405.724	175.78
405.933	204.46
406.142	204.46
406.35	163.5
406.559	265.89
406.768	249.51
406.977	220.84
407.185	169.64
407.394	241.32
407.603	216.74
407.812	212.65
408.02	249.51
408.229	224.94
408.438	229.03
408.646	183.98
408.855	251.56
409.064	241.32
409.272	204.46
409.481	308.9
409.69	272.04
409.898	243.37
410.107	364.2
410.315	343.72
410.524	358.05
410.733	347.81
410.941	339.62
411.15	331.43
411.358	474.79
411.567	388.77
411.775	431.78
411.984	384.68
412.192	487.08
412.401	431.78
412.609	511.65
412.818	568.99
413.026	536.23
413.234	507.55
413.443	568.99
413.651	560.8
413.86	566.95
414.068	626.34
414.276	671.39
414.485	642.72
414.693	691.87
414.901	730.78
415.11	798.37
415.318	741.02
415.526	810.65
415.734	775.84
415.943	878.24
416.151	841.37
416.359	796.32
416.567	904.86
416.776	906.91
416.984	1044.12
417.192	1072.79
417.4	941.72
417.608	908.96
417.817	1072.79
418.025	1136.28
418.233	1242.78
418.441	1132.19
418.649	1283.74
418.857	1322.65
419.065	1390.23
419.273	1302.17
419.481	1408.66
419.689	1486.48
419.897	1504.92
420.105	1621.65
420.313	1517.2
420.521	1683.09
420.729	1664.66
420.937	1752.72
421.145	1896.08
421.353	1883.79
421.561	2074.25
421.769	1986.19
421.977	2178.7
422.185	2039.44
422.393	2250.38
422.601	2297.48
422.809	2344.58
423.017	2412.17
423.224	2508.42
423.432	2537.09
423.64	2629.25
423.848	2811.52
424.056	2676.35
424.263	2920.06
424.471	2875.01
424.679	3034.75
424.887	3120.76
425.094	3276.41
425.302	3245.69
425.51	3391.09
425.718	3516.02
425.925	3577.46
426.133	3645.04
426.341	3733.11
426.548	4099.69
426.756	4140.65
426.964	4091.5
427.171	4472.42
427.379	4535.91
427.586	4521.57
427.794	4757.09
428.001	4890.21
428.209	5107.29
428.417	4916.83
428.624	5338.71
428.832	5459.54
429.039	5301.85
429.247	5369.43
429.454	5817.94
429.662	6250.06
429.869	5928.53
430.076	6250.06
430.284	6164.04
430.491	6385.23
430.699	6614.6
430.906	6696.52
431.114	6827.59
431.321	6991.42
431.528	7427.64
431.736	7626.29
431.943	8076.85
432.15	7804.47
432.358	7824.95
432.565	8242.73
432.772	8205.87
432.979	8758.82
433.187	8932.9
433.394	8990.24
433.601	9702.93
433.808	9541.15
434.016	9465.37
434.223	9999.89
434.43	10481.16
434.637	10286.61
434.844	10950.15
435.052	11007.49
435.259	11159.04
435.466	11197.95
435.673	11091.46
435.88	11881.97
436.087	12266.99
436.294	12418.54
436.501	12072.43
436.708	12553.71
436.915	12948.97
437.122	13268.45
437.329	13387.23
437.537	13921.75
437.743	13854.17
437.95	13923.8
438.157	14702.03
438.364	15244.74
438.571	15154.63
438.778	15195.59
438.985	16659.88
439.192	15949.24
439.399	16532.91
439.606	16162.23
439.813	17089.96
440.02	18054.55
440.227	17816.99
440.433	17601.95
440.64	18146.71
440.847	18242.96
441.054	18310.55
441.261	19658.11
441.467	19402.11
441.674	19805.56
441.881	20682.1
442.088	20753.77
442.294	20284.79
442.501	20649.33
442.708	21532
442.914	22078.81
443.121	22711.63
443.328	22478.16
443.534	23944.51
443.741	23514.44
443.948	23113.03
444.154	24896.81
444.361	24532.28
444.568	24935.73
444.774	24980.78
444.981	24986.93
445.187	25812.26
445.394	27086.09
445.6	26750.23
445.807	29336.81
446.013	28048.64
446.22	28560.63
446.426	29908.19
446.633	29865.19
446.839	30934.23
447.046	29625.57
447.252	31282.38
447.459	31661.26
447.665	31571.14
447.871	32521.4
448.078	34000.04
448.284	32464.06
448.491	33324.21
448.697	34722.97
448.903	35413.13
449.11	35566.73
449.316	34841.75
449.522	35462.29
449.728	36304
449.935	37092.47
450.141	36844.66
450.347	37454.96
450.553	36260.99
450.76	36967.54
450.966	38132.84
451.172	37694.57
451.378	38673.5
451.584	38284.39
451.791	38837.34
451.997	38661.21
452.203	39390.29
452.409	39855.18
452.615	39261.27
452.821	37756.01
453.027	37749.87
453.233	39488.59
453.44	38278.24
453.646	38624.35
453.852	38622.3
454.058	39439.44
454.264	37911.66
454.47	39173.2
454.676	37872.74
454.882	39720.01
455.088	35951.75
455.294	36834.42
455.5	37248.11
455.705	37569.65
455.911	36228.23
456.117	35630.22
456.323	35128.47
456.529	33359.02
456.735	34559.13
456.941	33854.63
457.147	33352.88
457.352	32279.74
457.558	32128.19
457.764	32025.79
457.97	31446.22
458.176	30903.51
458.381	30704.85
458.587	29304.04
458.793	29215.98
458.999	28042.49
459.204	29623.53
459.41	29404.39
459.616	27112.72
459.821	26940.69
460.027	26950.93
460.233	26301.72
460.438	25118
460.644	25275.69
460.85	24163.64
461.055	23520.58
461.261	23901.5
461.466	21839.2
461.672	21302.63
461.878	22801.74
462.083	21341.54
462.289	20757.87
462.494	20678
462.7	19830.14
462.905	19139.97
463.111	19819.9
463.316	19887.48
463.522	19527.04
463.727	19596.67
463.932	19697.02
464.138	19467.65
464.343	19600.77
464.549	18924.94
464.754	19737.98
464.959	19242.37
465.165	19269
465.37	18230.68
465.575	17929.63
465.781	18888.07
465.986	18652.56
466.191	17954.2
466.397	17712.54
466.602	16825.77
466.807	17560.99
467.012	17429.92
467.218	17325.47
467.423	17184.16
467.628	17221.03
467.833	18107.8
468.038	17481.12
468.244	16915.88
468.449	17462.69
468.654	17081.77
468.859	17020.33
469.064	16682.41
469.269	16195
469.474	16278.96
469.679	16657.84
469.885	16229.81
470.09	16590.25
470.295	15961.53
470.5	15676.86
470.705	16147.89
470.91	15769.02
471.115	15531.45
471.32	15801.79
471.525	15685.05
471.73	15187.39
471.935	14996.93
472.139	14433.74
472.344	14755.27
472.549	14806.47
472.754	14503.37
472.959	14409.17
473.164	13999.57
473.369	13923.8
473.574	14484.94
473.778	14071.25
473.983	14093.78
474.188	13938.13
474.393	13424.09
474.598	13698.52
474.802	13139.43
475.007	13086.18
475.212	13139.43
475.417	12563.95
475.621	12836.33
475.826	12762.6
476.031	12242.42
476.235	12213.74
476.44	12207.6
476.645	12373.49
476.849	12236.27
477.054	12129.78
477.259	11795.96
477.463	11931.12
477.668	11636.22
477.872	11752.95
478.077	11437.56
478.282	11263.49
478.486	11261.44
478.691	11326.97
478.895	10968.58
479.1	11085.31
479.304	11015.68
479.509	10688.01
479.713	11036.16
479.918	10681.86
480.122	10403.34
480.326	10747.4
480.531	10620.42
480.735	10630.66
480.94	10346
481.144	10831.37
481.348	10116.62
481.553	10274.32
481.757	10155.54
481.961	10366.48
482.166	10337.8
482.37	10212.88
482.574	9987.6
482.778	10323.47
482.983	10323.47
483.187	10358.28
483.391	10358.28
483.595	10108.43
483.8	10245.65
484.004	10249.74
484.208	10251.79
484.412	10284.56
484.616	10075.66
484.821	10221.07
485.025	10059.28
485.229	10194.45
485.433	10255.89
485.637	10259.98
485.841	10155.54
486.045	10042.9
486.249	10294.8
486.453	10057.23
486.657	10386.96
486.861	10257.93
487.065	10042.9
487.269	10198.54
487.473	9995.79
487.677	10180.11
487.881	10133.01
488.085	10219.02
488.289	10231.31
488.493	10124.82
488.697	10219.02
488.901	10442.25
489.105	10352.14
489.309	10311.18
489.512	10325.52
489.716	10159.63
489.92	10366.48
490.124	10294.8
490.328	10591.75
490.531	10280.46
490.735	10493.45
490.939	10509.83
491.143	10493.45
491.346	10573.32
491.55	10739.21
491.754	10735.11
491.958	10530.31
492.161	10927.62
492.365	10776.07
492.569	10640.9
492.772	10511.88
492.976	10755.59
493.18	10888.71
493.383	11064.83
493.587	10966.53
493.79	11007.49
493.994	11230.72
494.197	11167.23
494.401	11429.37
494.605	11369.98
494.808	11576.83
495.012	11505.15
495.215	11482.62
495.419	11779.57
495.622	11517.43
495.825	11810.29
496.029	11720.18
496.232	12070.39
496.436	11775.48
496.639	12561.9
496.843	12428.78
497.046	12461.55
497.249	12590.57
497.453	12781.03
497.656	12713.45
497.859	12815.85
498.063	12832.23
498.266	13139.43
498.469	13176.29
498.673	13381.09
498.876	13475.29
499.079	13626.84
499.282	13426.14
499.485	14200.27
499.689	14018
499.892	14210.51
500.095	13915.61
500.298	14591.44
500.501	14476.75
500.705	14853.58
500.908	14984.65
501.111	15099.33
501.314	15193.54
501.517	15318.46
501.72	15629.76
501.923	15693.24
502.126	15834.55
502.329	16125.36
502.532	16364.98
502.735	16385.46
502.938	16741.8
503.141	16754.09
503.344	16911.78
503.547	17112.49
503.75	17302.95
503.953	17487.26
504.156	17917.34
504.359	17798.56
504.562	17960.34
504.765	18367.89
504.968	18486.67
505.17	18619.79
505.373	18627.98
505.576	19013
505.779	19070.34
505.982	19496.32
506.185	19815.8
506.387	19860.86
506.59	19862.91
506.793	20241.78
506.996	20309.36
507.198	20860.27
507.401	21001.58
507.604	21015.91
507.807	21177.7
508.009	21159.27
508.212	21615.97
508.415	21886.3
508.617	21990.75
508.82	22181.21
509.022	22437.2
509.225	22877.52
509.428	22996.3
509.63	23041.36
509.833	23082.31
510.035	23926.08
510.238	23633.22
510.44	24200.51
510.643	24034.62
510.845	24806.7
511.048	24550.71
511.25	24878.38
511.453	24980.78
511.655	25582.88
511.858	25810.21
512.06	26047.77
512.262	26141.98
512.465	26068.25
512.667	26465.56
512.87	27043.09
513.072	26983.69
513.274	27651.33
513.477	27847.94
513.679	28028.16
513.881	28161.28
514.084	28523.77
514.286	28187.9
514.488	28644.6
514.69	29605.09
514.893	29142.25
515.095	29787.36
515.297	29981.92
515.499	30504.15
515.701	30713.05
515.904	30852.31
516.106	30854.36
516.308	30921.94
516.51	31835.33
516.712	31478.99
516.914	32040.13
517.116	32644.28
517.318	32629.94
517.52	32513.21
517.722	32806.07
517.925	33250.48
518.127	33594.54
518.329	34016.42
518.531	34030.76
518.733	34282.66
518.935	34802.84
519.136	34741.4
519.338	35191.95
519.54	35413.13
519.742	35949.7
519.944	35662.99
520.146	36387.97
520.348	36793.47
520.55	37131.38
520.752	36953.21
520.954	37428.34
521.155	37196.92
521.357	38091.88
521.559	38091.88
521.761	39103.57
521.963	38397.02
522.164	38837.34
522.366	39343.19
522.568	39361.62
522.77	39197.78
522.971	40098.89
523.173	39992.39
523.375	40197.19
523.576	40074.31
523.778	40109.13
523.98	40961.08
524.181	41135.16
524.383	41217.08
524.584	41348.15
524.786	41794.6
524.988	41710.64
525.189	42300.45
525.391	42118.18
525.592	42325.03
525.794	42617.89
525.995	42863.64
526.197	43078.68
526.398	43103.26
526.6	43342.87
526.801	43318.29
527.003	43652.11
527.204	43478.04
527.406	44106.76
527.607	43865.1
527.808	44428.29
528.01	43656.21
528.211	43977.74
528.412	44919.81
528.614	44749.82
528.815	44897.28
529.016	45556.72
529.218	44708.86
529.419	44864.51
529.62	44727.3
529.822	45145.08
530.023	44977.15
530.224	45247.48
530.425	45257.72
530.626	44944.38
530.828	45100.03
531.029	45831.15
531.23	45460.47
531.431	45241.34
531.632	45978.61
531.833	45884.4
532.035	45704.18
532.236	46101.48
532.437	46052.33
532.638	45831.15
532.839	46326.76
533.04	45988.84
533.241	45620.21
533.442	46900.19
533.643	46056.43
533.844	46240.75
534.045	46029.8
534.246	45630.45
534.447	46472.17
534.648	45956.08
534.849	46566.37
535.05	46193.64
535.251	46322.66
535.451	46119.91
535.652	46318.57
535.853	46461.93
536.054	46259.18
536.255	46410.73
536.456	45937.65
536.657	46582.76
536.857	46404.58
537.058	46339.05
537.259	46912.48
537.46	46439.4
537.66	46730.21
537.861	46103.53
538.062	46423.01
538.263	46437.35
538.463	46162.92
538.664	46156.78
538.865	46261.22
539.065	46775.26
539.266	46410.73
539.466	46375.91
539.667	46019.56
539.868	46214.12
540.068	46162.92
540.269	46171.11
540.469	46521.32
540.67	46001.13
540.87	46281.7
541.071	46107.63
541.271	46187.5
541.472	46078.96
541.672	46236.65
541.873	45593.59
542.073	45853.68
542.274	46150.63
542.474	45935.6
542.675	45745.14
542.875	46371.82
543.075	46140.39
543.276	45976.56
543.476	46662.63
543.676	46046.19
543.877	46359.53
544.077	45835.25
544.277	45919.21
544.478	46117.87
544.678	46308.33
544.878	45831.15
545.078	46115.82
545.279	46001.13
545.479	45853.68
545.679	46005.23
545.879	45609.97
546.079	46040.04
546.28	46033.9
546.48	45888.49
546.68	45689.84
546.88	45990.89
547.08	46044.14
547.28	45695.99
547.48	45857.77
547.68	46117.87
547.88	45870.06
548.081	46091.24
548.281	45868.01
548.481	45413.37
548.681	45757.42
548.881	45499.38
549.081	45921.26
549.28	45628.4
549.48	46068.72
549.68	46099.44
549.88	46236.65
550.08	45413.37
550.28	45655.03
550.48	45495.28
550.68	46044.14
550.88	45790.19
551.08	45462.52
551.279	45614.07
551.479	45915.12
551.679	45573.11
551.879	45734.9
552.079	45888.49
552.278	45767.66
552.478	45849.58
552.678	45720.56
552.878	45990.89
553.077	45439.99
553.277	45407.22
553.477	46343.14
553.676	45190.14
553.876	45265.91
554.076	44946.43
554.275	44999.68
554.475	45097.98
554.674	45464.56
554.874	45384.69
555.074	45304.82
555.273	45329.4
555.473	45652.98
555.672	44661.76
555.872	45343.73
556.071	45159.42
556.271	45220.86
556.47	44526.6
556.67	44747.78
556.869	44731.39
557.068	45263.86
557.268	44512.26
557.467	44739.58
557.667	44653.57
557.866	44528.64
558.065	44710.91
558.265	44012.56
558.464	44397.57
558.663	44653.57
558.863	44149.77
559.062	44993.53
559.261	43985.93
559.461	44563.46
559.66	43944.97
559.859	44147.72
560.058	44090.38
560.258	43861.01
560.457	43541.52
560.656	44200.97
560.855	44096.52
561.054	44018.7
561.253	43834.38
561.453	43504.66
561.652	44067.85
561.851	43998.22
562.05	43480.08
562.249	43209.75
562.448	43588.63
562.647	43256.85
562.846	43269.14
563.045	42925.08
563.244	42478.63
563.443	43494.42
563.642	42820.64
563.841	42689.57
564.04	42454.05
564.239	43041.82
564.438	42818.59
564.637	42935.32
564.836	42863.64
565.035	42056.74
565.234	42200.1
565.432	42050.6
565.631	42118.18
565.83	42296.36
566.029	42212.39
566.228	41835.56
566.427	42294.31
566.625	41759.79
566.824	41577.52
567.023	41874.48
567.222	41043
567.42	41745.45
567.619	41475.12
567.818	41651.25
568.016	41544.75
568.215	41483.31
568.414	41186.36
568.612	41100.34
568.811	40608.83
569.01	41122.87
569.208	40731.71
569.407	40971.32
569.605	40404.03
569.804	40686.65
570.002	40260.68
570.201	40488
570.4	40184.9
570.598	40084.55
570.797	39742.54
570.995	39779.4
571.193	39494.74
571.392	40180.81
571.59	39636.05
571.789	39705.68
571.987	39937.1
572.186	39472.21
572.384	39273.56
572.582	39349.33
572.781	39040.09
572.979	38761.56
573.177	39369.81
573.376	39085.14
573.574	38923.35
573.772	39091.29
573.971	38524
574.169	38341.73
574.367	38241.38
574.565	38579.29
574.763	38190.18
574.962	38343.78
575.16	37778.54
575.358	37973.1
575.556	37477.49
575.754	38122.6
575.952	37588.08
576.151	38016.1
576.349	37342.32
576.547	37477.49
576.745	37360.75
576.943	37524.59
577.141	37196.92
577.339	37323.89
577.537	37184.63
577.735	37432.43
577.933	36615.29
578.131	37221.49
578.329	36854.9
578.527	36367.49
578.725	36418.69
578.923	36844.66
579.121	36338.82
579.319	36408.45
579.516	36488.32
579.714	36002.95
579.912	36314.24
580.11	35935.37
580.308	35794.06
580.506	35605.64
580.704	35261.58
580.901	35652.75
581.099	35787.91
581.297	35214.48
581.495	35466.38
581.692	35376.27
581.89	34911.38
582.088	35329.17
582.285	35411.09
582.483	35331.22
582.681	35103.89
582.878	34747.54
583.076	34624.67
583.274	35062.93
583.471	34391.2
583.669	34667.67
583.866	34415.77
584.064	34483.36
584.262	34049.19
584.459	34532.51
584.657	33967.27
584.854	34186.4
585.052	33395.89
585.249	34084
585.447	33787.05
585.644	33500.33
585.841	33508.52
586.039	33739.94
586.236	33391.79
586.434	33289.39
586.631	32814.26
586.828	33029.3
587.026	33318.06
587.223	32984.24
587.42	32429.24
587.618	32703.67
587.815	32574.65
588.012	32312.51
588.21	31974.59
588.407	32376
588.604	32437.44
588.801	32013.51
588.999	31915.2
589.196	31984.83
589.393	31896.77
589.59	31558.86
589.787	31941.83
589.984	31831.24
590.182	31472.84
590.379	31669.45
590.576	31282.38
590.773	31390.92
590.97	31198.41
591.167	31261.9
591.364	30758.1
591.561	31177.93
591.758	30391.51
591.955	30475.48
592.152	30745.81
592.349	30391.51
592.546	30405.85
592.743	30448.86
592.94	30090.46
593.137	30221.53
593.334	30315.74
593.531	30063.84
593.727	30069.98
593.924	30041.31
594.121	29758.69
594.318	29959.39
594.515	29609.19
594.712	29986.02
594.908	29705.45
595.105	29940.96
595.302	29449.45
595.499	29297.9
595.696	29140.21
595.892	29080.81
596.089	29164.78
596.286	28935.41
596.482	29005.04
596.679	28611.83
596.876	29002.99
597.072	28712.18
597.269	28263.68
597.466	28351.74
597.662	28024.06
597.859	28302.59
598.055	28546.3
598.252	28044.54
598.448	28564.73
598.645	27827.46
598.841	27688.2
599.038	27933.95
599.234	27884.8
599.431	27548.93
599.627	27612.42
599.824	27825.41
600.02	27413.77
600.217	27421.96
600.413	27282.7
600.609	27264.27
600.806	26813.71
601.002	26991.89
601.198	26885.39
601.395	26723.6
601.591	26717.46
601.787	26780.95
601.984	26574.1
602.18	26866.96
602.376	26545.43
602.572	26367.26
602.769	26584.34
602.965	25828.64
603.161	26344.73
603.357	26041.63
603.553	25957.66
603.75	25939.23
603.946	25709.86
604.142	25959.71
604.338	25378.09
604.534	25617.7
604.73	25548.07
604.926	25349.42
605.122	25627.94
605.318	25533.73
605.514	25322.79
605.71	24829.23
605.906	25154.86
606.102	25287.98
606.298	25111.85
606.494	24943.92
606.69	24718.64
606.886	24905.01
607.082	24552.76
607.278	24610.1
607.474	24442.17
607.67	24726.83
607.866	24579.38
608.062	24583.48
608.257	24397.11
608.453	24329.53
608.649	24376.63
608.845	24325.43
609.041	24192.31
609.236	24288.57
609.432	24143.16
609.628	23917.89
609.824	24059.2
610.019	23754.05
610.215	24057.15
610.411	24003.9
610.606	23788.86
610.802	23891.26
610.998	23739.71
611.193	23604.55
611.389	23555.4
611.584	23459.14
611.78	23215.43
611.976	23493.96
612.171	23459.14
612.367	23252.3
612.562	23113.03
612.758	23106.89
612.953	22969.68
613.149	23457.09
613.344	22908.24
613.539	23391.56
613.735	22885.71
613.93	23141.71
614.126	22934.86
614.321	22863.18
614.517	22838.61
614.712	22857.04
614.907	22664.53
615.103	22941
615.298	22697.3
615.493	22801.74
615.688	22291.8
615.884	22791.5
616.079	22461.78
616.274	22295.89
616.47	22060.38
616.665	22332.76
616.86	22394.2
617.055	22711.63
617.25	22037.85
617.445	22207.83
617.641	21697.89
617.836	22216.02
618.031	21947.74
618.226	22095.19
618.421	21736.8
618.616	21974.36
618.811	21587.3
619.006	21878.11
619.201	21278.05
619.396	21548.39
619.591	21228.9
619.786	21265.77
619.981	20962.67
620.176	21003.63
620.371	20858.22
620.566	20774.25
620.761	20956.52
620.956	20995.43
621.151	20866.41
621.346	20598.13
621.541	20403.57
621.735	20518.26
621.93	20372.85
622.125	20131.19
622.32	19969.4
622.515	20161.91
622.709	19973.5
622.904	19989.88
623.099	19666.3
623.294	19848.57
623.488	19369.35
623.683	19703.17
623.878	19201.41
624.072	19223.94
624.267	19346.82
624.462	19037.58
624.656	18767.24
624.851	18935.18
625.046	18797.96
625.24	18918.79
625.435	18595.21
625.629	18341.27
625.824	18238.87
626.018	18267.54
626.213	18202
626.407	17946.01
626.602	17984.92
626.796	17964.44
626.991	17903
627.185	17780.12
627.38	17554.85
627.574	17567.13
627.768	17315.23
627.963	17182.12
628.157	17151.4
628.352	17403.3
628.546	16958.89
628.74	16991.66
628.935	16903.59
629.129	16897.45
629.323	16725.42
629.517	16604.59
629.712	16412.08
629.906	16344.5
630.1	16340.4
630.294	16342.45
630.489	16360.88
630.683	16074.17
630.877	15871.42
631.071	15904.18
631.265	15914.42
631.459	15783.35
631.653	15609.28
631.848	15556.03
632.042	15424.96
632.236	15654.33
632.43	15316.42
632.624	15283.65
632.818	15173.06
633.012	14951.88
633.206	15007.17
633.4	14982.6
633.594	14792.14
633.788	14788.04
633.982	14865.86
634.176	14718.41
634.369	14378.45
634.563	14677.45
634.757	14347.73
634.951	14460.37
635.145	14149.07
635.339	14327.25
635.533	13923.8
635.726	14003.67
635.92	13995.48
636.114	13907.41
636.308	13757.91
636.501	14095.83
636.695	13780.44
636.889	13454.81
637.083	13692.38
637.276	13594.08
637.47	13436.38
637.664	13362.65
637.857	13338.08
638.051	13258.21
638.244	13164
638.438	13127.14
638.632	13073.89
638.825	12768.74
639.019	12865
639.212	12725.74
639.406	12430.83
639.599	12664.3
639.793	12498.41
639.986	12455.4
640.18	12785.13
640.373	12611.05
640.567	12332.53
640.76	12553.71
640.954	11963.89
641.147	11988.47
641.34	11974.13
641.534	11892.21
641.727	12094.96
641.92	11902.45
642.114	11879.93
642.307	11908.6
642.5	11783.67
642.694	11519.48
642.887	11490.81
643.08	11736.57
643.273	11492.86
643.467	11550.2
643.66	11200
643.853	11449.85
644.046	11263.49
644.239	10968.58
644.432	11089.41
644.626	10923.52
644.819	11062.79
645.012	10878.47
645.205	10874.37
645.398	10751.49
645.591	10731.01
645.784	10724.87
645.977	10632.71
646.17	10690.06
646.363	10530.31
646.556	10415.63
646.749	10425.87
646.942	10382.86
647.135	10276.37
647.328	10374.67
647.521	10145.3
647.714	10079.76
647.907	10176.02
648.099	9973.27
648.292	10046.99
648.485	10178.06
648.678	10012.18
648.871	9942.55
649.064	9838.1
649.256	9618.97
649.449	9616.92
649.642	9596.44
649.835	9549.34
650.027	9338.4
650.22	9539.1
650.413	9498.14
650.605	9344.54
650.798	9330.2
650.991	9231.9
651.183	9272.86
651.376	9192.99
651.568	9043.49
651.761	9072.16
651.954	9125.41
652.146	8912.42
652.339	8871.46
652.531	8814.12
652.724	8769.06
652.916	8592.94
653.109	8814.12
653.301	8676.9
653.494	8633.89
653.686	8588.84
653.879	8476.2
654.071	8349.23
654.263	8527.4
654.456	8338.99
654.648	8586.79
654.84	8181.29
655.033	8218.16
655.225	8175.15
655.417	8044.08
655.61	8230.45
655.802	8234.54
655.994	7925.3
656.186	7984.69
656.379	8115.76
656.571	7984.69
656.763	7931.44
656.955	7794.23
657.148	7648.82
657.34	7732.79
657.532	7683.64
657.724	7652.92
657.916	7730.74
658.108	7677.49
658.3	7614.01
658.492	7312.96
658.684	7353.91
658.876	7538.23
659.068	7351.87
659.26	7331.39
659.452	7398.97
659.644	7409.21
659.836	7294.52
660.028	7155.26
660.22	7345.72
660.412	7153.21
660.604	7333.43
660.796	6831.68
660.988	7099.97
661.18	6786.63
661.372	6803.01
661.563	6942.27
661.755	6745.67
661.947	6852.16
662.139	6745.67
662.331	6760
662.522	6673.99
662.714	6571.59
662.906	6565.45
663.097	6678.08
663.289	6389.32
663.481	6499.91
663.673	6524.49
663.864	6491.72
664.056	6364.75
664.247	6385.23
664.439	6180.43
664.631	6209.1
664.822	6262.35
665.014	6139.47
665.205	6293.07
665.397	6168.14
665.588	6176.33
665.78	6190.67
665.971	6147.66
666.163	6239.82
666.354	5916.24
666.546	5867.09
666.737	6231.63
666.929	5936.72
667.12	5897.81
667.311	5860.95
667.503	5678.68
667.694	5787.22
667.885	5828.18
668.077	5793.36
668.268	5592.66
668.459	5768.79
668.651	5557.85
668.842	5611.09
669.033	5506.65
669.224	5574.23
669.416	5588.57
669.607	5250.65
669.798	5307.99
669.989	5467.74
670.18	5508.69
670.371	5365.34
670.563	5303.9
670.754	5394.01
670.945	5330.52
671.136	5211.74
671.327	5191.26
671.518	5246.55
671.709	5344.86
671.9	5236.31
672.091	5033.57
672.282	5119.58
672.473	5078.62
672.664	5133.92
672.855	5084.77
673.046	4914.78
673.237	5049.95
673.428	5035.61
673.619	4896.35
673.809	4836.96
674	4824.67
674.191	4947.55
674.382	4869.73
674.573	4869.73
674.764	4861.54
674.954	4730.47
675.145	4789.86
675.336	4646.5
675.527	4666.98
675.717	4691.56
675.908	4605.54
676.099	4572.77
676.289	4560.49
676.48	4621.92
676.671	4544.1
676.861	4576.87
677.052	4585.06
677.243	4562.53
677.433	4365.93
677.624	4486.76
677.814	4415.08
678.005	4423.27
678.195	4277.87
678.386	4484.71
678.576	4406.89
678.767	4329.06
678.957	4308.58
679.148	4189.8
679.338	4224.62
679.529	4327.02
679.719	4142.7
679.909	4277.87
680.1	4224.62
680.29	4300.39
680.481	3993.2
680.671	4263.53
680.861	4120.17
681.052	4142.7
681.242	4154.99
681.432	4077.16
681.622	4040.3
681.813	4120.17
682.003	4060.78
682.193	4001.39
682.383	4011.63
682.573	3937.9
682.764	3944.05
682.954	3927.66
683.144	3913.33
683.334	3868.27
683.524	3909.23
683.714	3876.46
683.904	3837.55
684.094	3841.65
684.284	3675.76
684.474	3780.21
684.664	3847.79
684.854	3790.45
685.044	3753.59
685.234	3624.56
685.424	3653.23
685.614	3835.5
685.804	3776.11
685.994	3743.35
686.184	3731.06
686.374	3714.67
686.564	3759.73
686.753	3548.79
686.943	3487.35
687.133	3573.36
687.323	3583.6
687.513	3473.01
687.702	3643
687.892	3591.8
688.082	3556.98
688.272	3520.12
688.461	3454.58
688.651	3464.82
688.841	3436.15
689.03	3432.05
689.22	3354.23
689.41	3384.95
689.599	3364.47
689.789	3368.57
689.979	3300.98
690.168	3210.87
690.358	3249.79
690.547	3327.61
690.737	3298.94
690.926	3206.78
691.116	3186.3
691.305	3376.76
691.495	3217.02
691.684	3128.95
691.874	3241.59
692.063	3311.22
692.252	3155.58
692.442	3044.99
692.631	3051.13
692.82	3182.2
693.01	3202.68
693.199	3145.34
693.388	2983.55
693.578	2987.65
693.767	3128.95
693.956	3024.51
694.146	3069.56
694.335	3096.19
694.524	3049.08
694.713	3096.19
694.902	2928.25
695.092	2934.4
695.281	3004.03
695.47	2901.63
695.659	2866.81
695.848	2936.45
696.037	2961.02
696.226	2922.11
696.415	2936.45
696.604	2975.36
696.793	2889.34
696.982	2948.73
697.171	2846.34
697.36	2829.95
697.549	3004.03
697.738	2895.49
697.927	2877.05
698.116	2907.77
698.305	2915.97
698.494	2842.24
698.683	2911.87
698.872	2909.82
699.061	2879.1
699.25	2844.29
699.438	2895.49
699.627	2821.76
699.816	2815.62
700.005	2725.51
700.193	2782.85
700.382	2778.75
700.571	2801.28
700.76	2832
700.948	2793.09
701.137	2805.38
701.326	2772.61
701.514	2659.97
701.703	2784.9
701.892	2793.09
702.08	2770.56
702.269	2766.46
702.457	2682.5
702.646	2725.51
702.834	2692.74
703.023	2676.35
703.212	2649.73
703.4	2659.97
703.589	2692.74
703.777	2694.79
703.965	2676.35
704.154	2739.84
704.342	2694.79
704.531	2641.54
704.719	2653.83
704.907	2666.11
705.096	2676.35
705.284	2680.45
705.472	2647.68
705.661	2662.02
705.849	2672.26
706.037	2760.32
706.226	2653.83
706.414	2782.85
706.602	2700.93
706.79	2731.65
706.979	2664.07
707.167	2616.96
707.355	2625.15
707.543	2635.39
707.731	2678.4
707.919	2633.35
708.107	2520.71
708.296	2547.33
708.484	2535.04
708.672	2662.02
708.86	2625.15
709.048	2582.15
709.236	2539.14
709.424	2567.81
709.612	2629.25
709.8	2514.56
709.988	2612.87
710.176	2526.85
710.364	2504.32
710.551	2520.71
710.739	2608.77
710.927	2629.25
711.115	2510.47
711.303	2518.66
711.491	2496.13
711.679	2535.04
711.866	2512.52
712.054	2725.51
712.242	2551.43
712.43	2678.4
712.617	2510.47
712.805	2520.71
712.993	2641.54
713.181	2473.6
713.368	2592.39
713.556	2461.32
713.744	2463.37
713.931	2459.27
714.119	2408.07
714.306	2469.51
714.494	2469.51
714.682	2444.93
714.869	2487.94
715.057	2471.56
715.244	2438.79
715.432	2492.04
715.619	2403.97
715.807	2403.97
715.994	2446.98
716.182	2408.07
716.369	2403.97
716.556	2449.03
716.744	2322.06
716.931	2438.79
717.119	2385.54
717.306	2549.38
717.493	2416.26
717.681	2309.77
717.868	2434.69
718.055	2465.41
718.242	2465.41
718.43	2420.36
718.617	2397.83
718.804	2320.01
718.991	2444.93
719.179	2432.65
719.366	2377.35
719.553	2332.3
719.74	2412.17
719.927	2444.93
720.114	2399.88
720.301	2365.06
720.488	2412.17
720.676	2363.01
720.863	2369.16
721.05	2348.68
721.237	2489.99
721.424	2309.77
721.611	2326.15
721.798	2387.59
721.985	2430.6
722.172	2315.91
722.358	2168.46
722.545	2397.83
722.732	2365.06
722.919	2381.45
723.106	2315.91
723.293	2283.14
723.48	2233.99
723.667	2326.15
723.853	2270.86
724.04	2268.81
724.227	2358.92
724.414	2338.44
724.6	2262.66
724.787	2289.29
724.974	2188.94
725.161	2332.3
725.347	2279.05
725.534	2240.14
725.72	2268.81
725.907	2342.53
726.094	2320.01
726.28	2268.81
726.467	2223.75
726.653	2246.28
726.84	2272.9
727.027	2350.73
727.213	2207.37
727.4	2313.86
727.586	2285.19
727.773	2176.65
727.959	2274.95
728.145	2293.38
728.332	2233.99
728.518	2176.65
728.705	2248.33
728.891	2223.75
729.077	2109.07
729.264	2203.27
729.45	2256.52
729.636	2162.31
729.823	2197.13
730.009	2139.79
730.195	2131.59
730.382	2266.76
730.568	2088.59
730.754	2084.49
730.94	2248.33
731.126	2188.94
731.313	2285.19
731.499	2127.5
731.685	2104.97
731.871	2057.87
732.057	2147.98
732.243	2182.79
732.429	2250.38
732.615	2188.94
732.801	2162.31
732.987	2270.86
733.173	2207.37
733.359	2016.91
733.545	2043.53
733.731	2213.51
733.917	2123.4
734.103	2129.55
734.289	2111.11
734.475	2016.91
734.661	2262.66
734.847	1998.48
735.033	2096.78
735.219	2158.22
735.404	2045.58
735.59	2047.63
735.776	2076.3
735.962	2137.74
736.148	2043.53
736.333	2039.44
736.519	1939.09
736.705	2029.2
736.89	1937.04
737.076	2043.53
737.262	1945.23
737.447	1930.89
737.633	2051.72
737.819	2018.96
738.004	1934.99
738.19	1994.38
738.375	2088.59
738.561	1840.78
738.747	2041.48
738.932	2092.68
739.118	1941.13
739.303	2004.62
739.489	1949.32
739.674	2072.2
739.859	1978
740.045	1908.37
740.23	1945.23
740.416	1867.41
740.601	1996.43
740.786	1902.22
740.972	1928.85
741.157	1867.41
741.342	1803.92
741.528	1955.47
741.713	1820.3
741.898	1918.61
742.084	1863.31
742.269	1875.6
742.454	1926.8
742.639	1877.65
742.824	1873.55
743.01	1820.3
743.195	1934.99
743.38	1808.02
743.565	1912.46
743.75	1873.55
743.935	1816.21
744.12	1934.99
744.305	1769.1
744.49	1705.62
744.675	1740.43
744.86	1756.82
745.045	1767.06
745.23	1734.29
745.415	1732.24
745.6	1678.99
745.785	1658.51
745.97	1752.72
746.155	1746.58
746.34	1724.05
746.525	1652.37
746.71	1635.99
746.895	1660.56
747.079	1724.05
747.264	1640.08
747.449	1568.4
747.634	1586.83
747.819	1711.76
748.003	1638.03
748.188	1572.5
748.373	1687.18
748.557	1562.26
748.742	1537.68
748.927	1672.85
749.111	1644.18
749.296	1531.54
749.481	1554.07
749.665	1537.68
749.85	1531.54
750.034	1494.68
750.219	1500.82
750.404	1449.62
750.588	1523.35
750.773	1552.02
750.957	1486.48
751.141	1474.2
751.326	1341.08
751.51	1418.9
751.695	1494.68
751.879	1322.65
752.064	1445.52
752.248	1373.85
752.432	1420.95
752.617	1439.38
752.801	1396.37
752.985	1382.04
753.17	1265.3
753.354	1427.09
753.538	1402.52
753.722	1330.84
753.907	1285.78
754.091	1433.24
754.275	1300.12
754.459	1298.07
754.643	1255.06
754.828	1267.35
755.012	1293.97
755.196	1302.17
755.38	1273.5
755.564	1265.3
755.748	1226.39
755.932	1236.63
756.116	1324.69
756.3	1207.96
756.484	1179.29
756.668	1210.01
756.852	1187.48
757.036	1236.63
757.22	1224.34
757.404	1275.54
757.588	1158.81
757.772	1191.58
757.956	1167
758.14	1148.57
758.323	1210.01
758.507	1132.19
758.691	1240.73
758.875	1185.43
759.059	1154.71
759.242	1066.65
759.426	1058.46
759.61	1013.4
759.794	1062.55
759.977	1142.43
760.161	1070.75
760.345	1080.99
760.528	1134.23
760.712	1001.12
760.895	1103.51
761.079	1091.23
761.263	1119.9
761.446	1027.74
761.63	1015.45
761.813	1064.6
761.997	968.35
762.18	1021.6
762.364	988.83
762.547	962.2
762.731	997.02
762.914	1044.12
763.098	988.83
763.281	886.43
763.464	980.64
763.648	1031.83
763.831	964.25
764.015	1007.26
764.198	888.48
764.381	968.35
764.564	988.83
764.748	939.68
764.931	1027.74
765.114	874.14
765.297	913.05
765.481	941.72
765.664	980.64
765.847	947.87
766.03	972.44
766.213	870.05
766.397	982.68
766.58	949.92
766.763	876.19
766.946	876.19
767.129	839.33
767.312	941.72
767.495	978.59
767.678	833.18
767.861	949.92
768.044	880.29
768.227	915.1
768.41	849.57
768.593	900.76
768.776	788.13
768.959	886.43
769.142	937.63
769.324	865.95
769.507	845.47
769.69	839.33
769.873	829.09
770.056	972.44
770.239	896.67
770.421	908.96
770.604	859.81
770.787	865.95
770.97	876.19
771.152	831.13
771.335	724.64
771.518	847.52
771.7	806.56
771.883	888.48
772.066	863.9
772.248	777.89
772.431	816.8
772.613	788.13
772.796	798.37
772.978	822.94
773.161	781.98
773.343	786.08
773.526	738.98
773.708	753.31
773.891	814.75
774.073	802.46
774.256	714.4
774.438	831.13
774.621	759.46
774.803	781.98
774.985	759.46
775.168	714.4
775.35	655.01
775.532	743.07
775.715	677.54
775.897	706.21
776.079	659.1
776.261	722.59
776.444	708.26
776.626	761.5
776.808	802.46
776.99	642.72
777.173	661.15
777.355	667.3
777.537	689.82
777.719	759.46
777.901	722.59
778.083	716.45
778.265	628.39
778.447	554.66
778.629	579.23
778.811	675.49
778.993	607.91
779.175	655.01
779.357	648.86
779.539	612
779.721	644.77
779.903	732.83
780.085	634.53
780.267	593.57
780.449	605.86
780.631	587.43
780.812	605.86
780.994	618.15
781.176	644.77
781.358	525.99
781.54	507.55
781.721	595.62
781.903	562.85
782.085	556.71
782.267	579.23
782.448	495.27
782.63	513.7
782.812	552.61
782.993	505.51
783.175	560.8
783.357	538.27
783.538	470.69
783.72	577.19
783.901	509.6
784.083	444.07
784.264	577.19
784.446	448.16
784.627	495.27
784.809	499.36
784.99	579.23
785.172	536.23
785.353	458.4
785.535	462.5
785.716	462.5
785.897	503.46
786.079	450.21
786.26	425.64
786.441	448.16
786.623	437.92
786.804	454.31
786.985	528.03
787.167	442.02
787.348	454.31
787.529	460.45
787.71	495.27
787.891	376.48
788.073	413.35
788.254	474.79
788.435	437.92
788.616	290.47
788.797	323.24
788.978	470.69
789.159	376.48
789.34	315.05
789.522	347.81
789.703	421.54
789.884	345.77
790.065	454.31
790.246	396.96
790.427	390.82
790.607	401.06
790.788	347.81
790.969	325.29
791.15	366.25
791.331	396.96
791.512	310.95
791.693	358.05
791.874	298.66
792.054	433.83
792.235	409.25
792.416	292.52
792.597	356.01
792.778	341.67
792.958	333.48
793.139	276.13
793.32	351.91
793.5	259.75
793.681	366.25
793.862	272.04
794.042	366.25
794.223	308.9
794.404	267.94
794.584	235.18
794.765	343.72
794.945	333.48
795.126	249.51
795.306	374.44
795.487	286.37
795.667	249.51
795.848	341.67
796.028	265.89
796.209	370.34
796.389	313
796.57	272.04
796.75	267.94
796.93	343.72
797.111	235.18
797.291	261.8
797.471	388.77
797.652	333.48
797.832	257.7
798.012	249.51
798.192	333.48
798.373	290.47
798.553	267.94
798.733	298.66
798.913	288.42
799.093	274.09
799.274	308.9
799.454	253.61
799.634	349.86
799.814	245.41
799.994	323.24
800.174	335.53
800.354	235.18
800.534	151.21
800.714	272.04
800.894	274.09
801.074	243.37
801.254	278.18
801.434	261.8
801.614	188.07
801.794	179.88
801.974	673.44
802.154	226.98
802.334	220.84
802.514	286.37
802.693	261.8
802.873	190.12
803.053	237.22
803.233	284.33
803.413	208.55
803.592	192.17
803.772	229.03
803.952	249.51
804.131	93.87
804.311	214.7
804.491	231.08
804.67	147.11
804.85	175.78
805.03	171.69
805.209	161.45
805.389	208.55
805.568	143.02
805.748	212.65
805.928	153.26
806.107	226.98
806.287	251.56
806.466	288.42
806.646	179.88
806.825	239.27
807.004	186.02
807.184	206.5
807.363	186.02
807.543	202.41
807.722	235.18
807.901	315.05
808.081	204.46
808.26	143.02
808.439	202.41
808.619	179.88
808.798	138.92
808.977	169.64
809.156	202.41
809.336	198.31
809.515	167.59
809.694	186.02
809.873	235.18
810.052	181.93
810.231	159.4
810.411	220.84
810.59	194.22
810.769	190.12
810.948	257.7
811.127	175.78
811.306	214.7
811.485	124.58
811.664	220.84
811.843	122.54
812.022	112.3
812.201	151.21
812.38	233.13
812.559	186.02
812.737	224.94
812.916	183.98
813.095	126.63
813.274	206.5
813.453	181.93
813.632	159.4
813.811	138.92
813.989	120.49
814.168	167.59
814.347	122.54
814.526	153.26
814.704	192.17
814.883	163.5
815.062	122.54
815.24	110.25
815.419	44.71
815.598	194.22
815.776	177.83
815.955	190.12
816.133	130.73
816.312	85.67
816.49	71.34
816.669	136.87
816.847	173.74
817.026	157.35
817.204	57
817.383	118.44
817.561	145.06
817.74	167.59
817.918	93.87
818.097	120.49
818.275	83.63
818.453	147.11
818.632	163.5
818.81	126.63
818.988	77.48
819.167	124.58
819.345	118.44
819.523	112.3
819.701	147.11
819.879	186.02
820.058	95.91
820.236	134.82
820.414	87.72
820.592	65.19
820.77	143.02
820.948	61.1
821.127	87.72
821.305	93.87
821.483	175.78
821.661	73.39
821.839	30.38
822.017	147.11
822.195	118.44
822.373	120.49
822.551	118.44
822.729	112.3
822.907	153.26
823.085	87.72
823.262	102.06
823.44	89.77
823.618	165.54
823.796	145.06
823.974	75.43
824.152	186.02
824.329	52.91
824.507	143.02
824.685	157.35
824.863	153.26
825.04	134.82
825.218	97.96
825.396	28.33
825.574	63.15
825.751	67.24
825.929	65.19
826.107	44.71
826.284	85.67
826.462	93.87
826.639	87.72
826.817	73.39
826.994	89.77
827.172	42.67
827.349	132.78
827.527	67.24
827.704	112.3
827.882	89.77
828.059	138.92
828.237	118.44
828.414	110.25
828.591	5.8
828.769	126.63
828.946	77.48
829.124	179.88
829.301	114.34
829.478	36.52
829.655	87.72
829.833	69.29
830.01	67.24
830.187	87.72
830.364	57
830.542	34.47
830.719	143.02
830.896	118.44
831.073	136.87
831.25	122.54
831.427	63.15
831.604	116.39
831.782	50.86
831.959	3.75
832.136	44.71
832.313	163.5
832.49	63.15
832.667	93.87
832.844	-16.73
833.021	44.71
833.198	16.04
833.374	81.58
833.551	61.1
833.728	104.11
833.905	48.81
834.082	65.19
834.259	85.67
834.436	104.11
834.612	71.34
834.789	52.91
834.966	126.63
835.143	196.26
835.319	3.75
835.496	38.57
835.673	69.29
835.85	93.87
836.026	57
836.203	69.29
836.38	71.34
836.556	11.95
836.733	87.72
836.909	89.77
837.086	-0.34
837.262	-2.39
837.439	48.81
837.616	69.29
837.792	26.28
837.968	28.33
838.145	9.9
838.321	85.67
838.498	30.38
838.674	69.29
838.851	67.24
839.027	69.29
839.203	71.34
839.38	40.62
839.556	7.85
839.732	122.54
839.909	46.76
840.085	36.52
840.261	108.2
840.437	59.05
840.614	30.38
840.79	114.34
840.966	57
841.142	106.15
841.318	75.43
841.494	67.24
841.671	116.39
841.847	67.24
842.023	85.67
842.199	57
842.375	100.01
842.551	114.34
842.727	-0.34
842.903	28.33
843.079	16.04
843.255	128.68
843.431	36.52
843.607	34.47
843.783	48.81
843.959	112.3
844.134	32.43
844.31	69.29
844.486	97.96
844.662	85.67
844.838	36.52
845.013	28.33
845.189	16.04
845.365	61.1
845.541	13.99
845.716	63.15
845.892	71.34
846.068	-14.68
846.244	5.8
846.419	97.96
846.595	44.71
846.77	26.28
846.946	13.99
847.122	52.91
847.297	5.8
847.473	65.19
847.648	20.14
847.824	57
847.999	89.77
848.175	61.1
848.35	30.38
848.526	102.06
848.701	153.26
848.876	42.67
849.052	65.19
849.227	52.91
849.403	11.95
849.578	26.28
849.753	-6.49
849.929	32.43
850.104	36.52
850.279	-0.34
850.454	13.99
850.63	13.99
850.805	11.95
850.98	54.95
851.155	-41.3
851.33	61.1
851.505	30.38
851.681	87.72
851.856	-14.68
852.031	28.33
852.206	42.67
852.381	69.29
852.556	69.29
852.731	67.24
852.906	114.34
853.081	128.68
853.256	46.76
853.431	67.24
853.606	-2.39
853.781	18.09
853.956	18.09
854.131	71.34
854.305	28.33
854.48	5.8
854.655	63.15
854.83	-12.63
855.005	40.62
855.18	81.58
855.354	-0.34
855.529	-4.44
855.704	26.28
855.879	52.91
856.053	61.1
856.228	42.67
856.403	-8.53
856.577	69.29
856.752	20.14
856.926	89.77
857.101	77.48
857.276	24.23
857.45	65.19
857.625	95.91
857.799	48.81
857.974	77.48
858.148	30.38
858.323	65.19
858.497	20.14
858.672	28.33
858.846	-33.11
859.02	61.1
859.195	-12.63
859.369	54.95
859.543	-33.11
859.718	79.53
859.892	9.9
860.066	34.47
860.241	-41.3
860.415	32.43
860.589	20.14
860.763	-47.44
860.938	-2.39
861.112	59.05
861.286	13.99
861.46	40.62
861.634	20.14
861.808	30.38
861.982	93.87
862.157	54.95
862.331	38.57
862.505	63.15
862.679	-67.92
862.853	-39.25
863.027	48.81
863.201	13.99
863.375	1.71
863.549	-14.68
863.722	30.38
863.896	85.67
864.07	-10.58
864.244	44.71
864.418	32.43
864.592	61.1
864.766	-39.25
864.939	95.91
865.113	48.81
865.287	85.67
865.461	3.75
865.634	16.04
865.808	24.23
865.982	-0.34
866.156	-26.96
866.329	40.62
866.503	44.71
866.676	22.19
866.85	67.24
867.024	-26.96
867.197	-8.53
867.371	1.71
867.544	-8.53
867.718	-0.34
867.891	32.43
868.065	-12.63
868.238	18.09
868.412	57
868.585	61.1
868.759	65.19
868.932	-12.63
869.105	28.33
869.279	-0.34
869.452	38.57
869.625	-26.96
869.799	65.19
869.972	-18.77
870.145	7.85
870.319	3.75
870.492	20.14
870.665	-55.64
870.838	-37.2
871.011	-4.44
871.185	32.43
871.358	75.43
871.531	83.63
871.704	36.52
871.877	85.67
872.05	50.86
872.223	18.09
872.396	-43.35
872.569	-14.68
872.742	-12.63
872.915	-4.44
873.088	18.09
873.261	-2.39
873.434	28.33
873.607	50.86
873.78	40.62
873.953	-18.77
874.126	81.58
874.299	-24.92
874.471	-61.78
874.644	52.91
874.817	-55.64
874.99	83.63
875.163	-29.01
875.335	-10.58
875.508	1.71
875.681	9.9
875.853	32.43
876.026	7.85
876.199	63.15
876.371	36.52
876.544	50.86
876.717	46.76
876.889	-12.63
877.062	61.1
877.234	16.04
877.407	18.09
877.579	16.04
877.752	104.11
877.924	28.33
878.097	-26.96
878.269	3.75
878.442	32.43
878.614	34.47
878.786	32.43
878.959	-10.58
879.131	-61.78
879.303	-20.82
879.476	20.14
879.648	69.29
879.82	77.48
879.993	20.14
880.165	28.33
880.337	-33.11
880.509	61.1
880.681	-37.2
880.854	-6.49
881.026	11.95
881.198	16.04
881.37	1.71
881.542	28.33
881.714	-39.25
881.886	26.28
882.058	26.28
882.23	11.95
882.402	75.43
882.574	-26.96
882.746	16.04
882.918	3.75
883.09	24.23
883.262	-8.53
883.434	-61.78
883.606	1.71
883.778	73.39
883.95	85.67
884.122	-2.39
884.293	75.43
884.465	54.95
884.637	-29.01
884.809	18.09
884.98	-45.4
885.152	-33.11
885.324	-12.63
885.496	11.95
885.667	40.62
885.839	28.33
886.011	46.76
886.182	-0.34
886.354	-26.96
886.525	13.99
886.697	-6.49
886.869	-61.78
887.04	-18.77
887.212	3.75
887.383	61.1
887.555	-10.58
887.726	13.99
887.897	-0.34
888.069	18.09
888.24	7.85
888.412	-12.63
888.583	1.71
888.754	-20.82
888.926	-33.11
889.097	-51.54
889.268	-0.34
889.44	28.33
889.611	-20.82
889.782	20.14
889.953	-61.78
890.125	38.57
890.296	-102.74
890.467	-39.25
890.638	-2.39
890.809	-53.59
890.98	-6.49
891.151	-0.34
891.323	-4.44
891.494	54.95
891.665	11.95
891.836	-12.63
892.007	20.14
892.178	50.86
892.349	-2.39
892.52	22.19
892.691	-10.58
892.862	-16.73
893.032	-49.49
893.203	-26.96
893.374	50.86
893.545	-12.63
893.716	16.04
893.887	75.43
894.057	42.67
894.228	61.1
894.399	-8.53
894.57	-18.77
894.74	-16.73
894.911	30.38
895.082	-8.53
895.253	-29.01
895.423	-10.58
895.594	22.19
895.764	11.95
895.935	34.47
896.106	54.95
896.276	9.9
896.447	26.28
896.617	34.47
896.788	-14.68
896.958	-6.49
897.129	-94.55
897.299	-53.59
897.47	13.99
897.64	22.19
897.81	5.8
897.981	36.52
898.151	-14.68
898.322	16.04
898.492	-14.68
898.662	20.14
898.832	-24.92
899.003	5.8
899.173	59.05
899.343	-26.96
899.513	-10.58
