Data from USB4F104151__36__13-11-00-342.txt Node

Date: Fri Mar 14 13:11:00 EDT 2025
User: louis
Spectrometer: USB4F10415
Trigger mode: 4
Integration Time (sec): 2.000000E-2
Scans to average: 1
Electric dark correction enabled: true
Nonlinearity correction enabled: false
Boxcar width: 0
XAxis mode: Wavelengths
Number of Pixels in Spectrum: 3648
>>>>>Begin Spectral Data<<<<<
178.204	-119.12
178.424	-119.12
178.644	-119.12
178.864	-131.41
179.084	-112.98
179.304	11.95
179.524	-31.06
179.744	11.95
179.964	61.1
180.184	-14.68
180.404	38.57
180.624	1.71
180.844	1.71
181.064	-57.68
181.283	26.28
181.503	-2.39
181.723	-47.44
181.943	-59.73
182.163	67.24
182.383	-2.39
182.602	71.34
182.822	28.33
183.042	26.28
183.262	36.52
183.482	-69.97
183.701	104.11
183.921	26.28
184.141	-12.63
184.361	36.52
184.58	3.75
184.8	-6.49
185.02	16.04
185.239	34.47
185.459	46.76
185.679	-6.49
185.898	22.19
186.118	-49.49
186.338	-16.73
186.557	3.75
186.777	-86.36
186.997	9.9
187.216	-14.68
187.436	16.04
187.655	44.71
187.875	9.9
188.095	59.05
188.314	40.62
188.534	-14.68
188.753	24.23
188.973	57
189.192	-18.77
189.412	13.99
189.631	83.63
189.851	91.82
190.07	28.33
190.29	-55.64
190.509	-43.35
190.729	38.57
190.948	5.8
191.168	83.63
191.387	7.85
191.607	7.85
191.826	42.67
192.045	5.8
192.265	32.43
192.484	11.95
192.704	42.67
192.923	1.71
193.142	46.76
193.362	50.86
193.581	26.28
193.8	42.67
194.02	54.95
194.239	5.8
194.458	32.43
194.678	-45.4
194.897	-29.01
195.116	44.71
195.335	30.38
195.555	30.38
195.774	52.91
195.993	-65.88
196.212	-12.63
196.432	-41.3
196.651	-37.2
196.87	-55.64
197.089	67.24
197.308	73.39
197.528	-0.34
197.747	-55.64
197.966	-35.16
198.185	79.53
198.404	-24.92
198.623	18.09
198.842	-14.68
199.062	65.19
199.281	97.96
199.5	-24.92
199.719	46.76
199.938	-18.77
200.157	28.33
200.376	54.95
200.595	38.57
200.814	-35.16
201.033	52.91
201.252	91.82
201.471	-49.49
201.69	44.71
201.909	9.9
202.128	32.43
202.347	-47.44
202.566	67.24
202.785	28.33
203.004	-24.92
203.223	71.34
203.442	59.05
203.661	-39.25
203.879	-61.78
204.098	75.43
204.317	-35.16
204.536	40.62
204.755	13.99
204.974	85.67
205.193	9.9
205.411	118.44
205.63	-41.3
205.849	-53.59
206.068	18.09
206.287	36.52
206.505	1.71
206.724	-43.35
206.943	34.47
207.162	50.86
207.381	67.24
207.599	-2.39
207.818	-24.92
208.037	9.9
208.255	46.76
208.474	46.76
208.693	-2.39
208.911	-6.49
209.13	9.9
209.349	50.86
209.567	36.52
209.786	16.04
210.005	26.28
210.223	18.09
210.442	-65.88
210.661	30.38
210.879	48.81
211.098	50.86
211.316	-10.58
211.535	26.28
211.753	18.09
211.972	-4.44
212.191	-20.82
212.409	-2.39
212.628	65.19
212.846	26.28
213.065	26.28
213.283	42.67
213.502	38.57
213.72	7.85
213.938	32.43
214.157	-8.53
214.375	11.95
214.594	-41.3
214.812	1.71
215.031	79.53
215.249	28.33
215.467	-8.53
215.686	28.33
215.904	-16.73
216.122	-57.68
216.341	79.53
216.559	11.95
216.778	38.57
216.996	42.67
217.214	75.43
217.432	26.28
217.651	52.91
217.869	-4.44
218.087	46.76
218.306	38.57
218.524	67.24
218.742	-49.49
218.96	26.28
219.179	36.52
219.397	40.62
219.615	50.86
219.833	50.86
220.051	-2.39
220.27	7.85
220.488	30.38
220.706	-12.63
220.924	16.04
221.142	30.38
221.36	22.19
221.578	3.75
221.796	-16.73
222.015	46.76
222.233	-49.49
222.451	-14.68
222.669	-37.2
222.887	-12.63
223.105	50.86
223.323	7.85
223.541	-2.39
223.759	22.19
223.977	67.24
224.195	157.35
224.413	16.04
224.631	63.15
224.849	3.75
225.067	59.05
225.285	-0.34
225.503	44.71
225.721	-35.16
225.939	-14.68
226.157	-2.39
226.375	147.11
226.592	-14.68
226.81	85.67
227.028	-12.63
227.246	77.48
227.464	28.33
227.682	7.85
227.9	-74.07
228.117	46.76
228.335	-6.49
228.553	5.8
228.771	20.14
228.989	-14.68
229.206	-14.68
229.424	50.86
229.642	18.09
229.86	-4.44
230.077	59.05
230.295	-26.96
230.513	-10.58
230.731	-0.34
230.948	85.67
231.166	63.15
231.384	44.71
231.601	18.09
231.819	-53.59
232.037	30.38
232.254	-22.87
232.472	-16.73
232.689	11.95
232.907	59.05
233.125	-43.35
233.342	34.47
233.56	50.86
233.777	1.71
233.995	100.01
234.213	-10.58
234.43	-12.63
234.648	38.57
234.865	46.76
235.083	75.43
235.3	38.57
235.518	81.58
235.735	77.48
235.953	102.06
236.17	63.15
236.388	-20.82
236.605	18.09
236.822	50.86
237.04	32.43
237.257	-8.53
237.475	-47.44
237.692	18.09
237.909	-0.34
238.127	18.09
238.344	16.04
238.562	100.01
238.779	52.91
238.996	1.71
239.214	20.14
239.431	91.82
239.648	-2.39
239.865	3.75
240.083	71.34
240.3	-53.59
240.517	-115.03
240.735	7.85
240.952	52.91
241.169	54.95
241.386	34.47
241.603	54.95
241.821	-53.59
242.038	30.38
242.255	106.15
242.472	24.23
242.689	20.14
242.907	71.34
243.124	16.04
243.341	38.57
243.558	26.28
243.775	13.99
243.992	-12.63
244.209	-35.16
244.426	11.95
244.643	3.75
244.86	28.33
245.078	34.47
245.295	-0.34
245.512	-45.4
245.729	18.09
245.946	-43.35
246.163	16.04
246.38	-47.44
246.597	-6.49
246.814	46.76
247.031	69.29
247.248	24.23
247.464	13.99
247.681	16.04
247.898	3.75
248.115	61.1
248.332	-12.63
248.549	-45.4
248.766	112.3
248.983	9.9
249.2	-29.01
249.417	85.67
249.633	-41.3
249.85	-4.44
250.067	63.15
250.284	-4.44
250.501	52.91
250.717	36.52
250.934	54.95
251.151	-22.87
251.368	46.76
251.585	24.23
251.801	32.43
252.018	65.19
252.235	-2.39
252.451	26.28
252.668	-24.92
252.885	85.67
253.102	-18.77
253.318	48.81
253.535	-29.01
253.752	42.67
253.968	-4.44
254.185	63.15
254.401	36.52
254.618	50.86
254.835	61.1
255.051	85.67
255.268	46.76
255.484	61.1
255.701	40.62
255.917	36.52
256.134	-2.39
256.351	-4.44
256.567	-20.82
256.784	-43.35
257	28.33
257.217	38.57
257.433	59.05
257.65	20.14
257.866	63.15
258.082	-26.96
258.299	26.28
258.515	-10.58
258.732	44.71
258.948	-53.59
259.165	-18.77
259.381	36.52
259.597	24.23
259.814	26.28
260.03	30.38
260.246	-39.25
260.463	54.95
260.679	73.39
260.895	28.33
261.112	87.72
261.328	-4.44
261.544	-6.49
261.761	75.43
261.977	-10.58
262.193	-22.87
262.409	20.14
262.626	36.52
262.842	63.15
263.058	-20.82
263.274	145.06
263.49	75.43
263.707	128.68
263.923	-12.63
264.139	-20.82
264.355	54.95
264.571	118.44
264.787	36.52
265.004	18.09
265.22	63.15
265.436	20.14
265.652	63.15
265.868	85.67
266.084	-55.64
266.3	32.43
266.516	-53.59
266.732	18.09
266.948	65.19
267.164	18.09
267.38	-8.53
267.596	26.28
267.812	22.19
268.028	22.19
268.244	1.71
268.46	67.24
268.676	32.43
268.892	-16.73
269.108	-0.34
269.324	-4.44
269.54	-12.63
269.756	44.71
269.972	-0.34
270.188	-4.44
270.403	-33.11
270.619	7.85
270.835	-24.92
271.051	-59.73
271.267	30.38
271.483	1.71
271.698	42.67
271.914	161.45
272.13	-18.77
272.346	7.85
272.562	-55.64
272.777	22.19
272.993	24.23
273.209	-2.39
273.425	36.52
273.64	-10.58
273.856	44.71
274.072	59.05
274.287	-61.78
274.503	-22.87
274.719	24.23
274.934	40.62
275.15	83.63
275.366	1.71
275.581	-4.44
275.797	3.75
276.012	9.9
276.228	38.57
276.444	-31.06
276.659	13.99
276.875	-29.01
277.09	9.9
277.306	13.99
277.521	36.52
277.737	-14.68
277.952	32.43
278.168	54.95
278.383	-2.39
278.599	24.23
278.814	-80.21
279.03	-35.16
279.245	63.15
279.461	-14.68
279.676	-0.34
279.892	28.33
280.107	87.72
280.322	65.19
280.538	-35.16
280.753	-90.45
280.969	13.99
281.184	-16.73
281.399	81.58
281.615	-53.59
281.83	13.99
282.045	13.99
282.26	48.81
282.476	-43.35
282.691	120.49
282.906	-12.63
283.122	3.75
283.337	13.99
283.552	-33.11
283.767	-2.39
283.983	30.38
284.198	9.9
284.413	75.43
284.628	-35.16
284.843	11.95
285.058	-14.68
285.274	9.9
285.489	-16.73
285.704	18.09
285.919	-26.96
286.134	13.99
286.349	-12.63
286.564	-43.35
286.779	18.09
286.995	1.71
287.21	-14.68
287.425	5.8
287.64	-14.68
287.855	50.86
288.07	-26.96
288.285	61.1
288.5	-14.68
288.715	3.75
288.93	-57.68
289.145	38.57
289.36	32.43
289.575	42.67
289.79	3.75
290.004	-53.59
290.219	75.43
290.434	34.47
290.649	104.11
290.864	28.33
291.079	5.8
291.294	-10.58
291.509	-39.25
291.724	87.72
291.938	-6.49
292.153	34.47
292.368	-20.82
292.583	50.86
292.798	-26.96
293.012	100.01
293.227	26.28
293.442	-72.02
293.657	24.23
293.871	132.78
294.086	52.91
294.301	77.48
294.516	20.14
294.73	-2.39
294.945	95.91
295.16	42.67
295.374	-10.58
295.589	61.1
295.804	16.04
296.018	67.24
296.233	73.39
296.447	44.71
296.662	34.47
296.877	61.1
297.091	54.95
297.306	42.67
297.52	18.09
297.735	30.38
297.949	54.95
298.164	26.28
298.378	1.71
298.593	13.99
298.807	44.71
299.022	61.1
299.236	73.39
299.451	1.71
299.665	59.05
299.88	-51.54
300.094	26.28
300.309	28.33
300.523	28.33
300.737	-14.68
300.952	44.71
301.166	118.44
301.381	-10.58
301.595	26.28
301.809	5.8
302.024	52.91
302.238	-22.87
302.452	18.09
302.667	-12.63
302.881	-12.63
303.095	50.86
303.309	57
303.524	24.23
303.738	18.09
303.952	44.71
304.166	50.86
304.381	-51.54
304.595	91.82
304.809	-20.82
305.023	9.9
305.237	13.99
305.452	91.82
305.666	63.15
305.88	20.14
306.094	46.76
306.308	38.57
306.522	50.86
306.736	-59.73
306.95	18.09
307.164	28.33
307.379	30.38
307.593	63.15
307.807	87.72
308.021	5.8
308.235	28.33
308.449	7.85
308.663	-10.58
308.877	116.39
309.091	100.01
309.305	-20.82
309.519	30.38
309.733	57
309.947	-16.73
310.161	-2.39
310.374	5.8
310.588	59.05
310.802	36.52
311.016	13.99
311.23	50.86
311.444	-4.44
311.658	1.71
311.872	34.47
312.085	26.28
312.299	108.2
312.513	59.05
312.727	50.86
312.941	79.53
313.154	52.91
313.368	30.38
313.582	54.95
313.796	40.62
314.009	38.57
314.223	100.01
314.437	22.19
314.651	7.85
314.864	13.99
315.078	11.95
315.292	-18.77
315.505	102.06
315.719	40.62
315.933	83.63
316.146	85.67
316.36	18.09
316.573	79.53
316.787	54.95
317.001	52.91
317.214	-47.44
317.428	13.99
317.641	71.34
317.855	7.85
318.068	38.57
318.282	9.9
318.495	16.04
318.709	-29.01
318.922	132.78
319.136	-45.4
319.349	46.76
319.563	46.76
319.776	-2.39
319.99	9.9
320.203	67.24
320.417	32.43
320.63	50.86
320.843	16.04
321.057	42.67
321.27	-2.39
321.483	13.99
321.697	50.86
321.91	26.28
322.124	18.09
322.337	77.48
322.55	-12.63
322.763	-33.11
322.977	30.38
323.19	11.95
323.403	20.14
323.617	-14.68
323.83	67.24
324.043	11.95
324.256	30.38
324.469	-33.11
324.683	67.24
324.896	-76.12
325.109	102.06
325.322	79.53
325.535	57
325.748	5.8
325.962	-8.53
326.175	11.95
326.388	42.67
326.601	38.57
326.814	26.28
327.027	87.72
327.24	9.9
327.453	5.8
327.666	73.39
327.879	38.57
328.092	-0.34
328.305	48.81
328.518	1.71
328.731	40.62
328.944	3.75
329.157	67.24
329.37	26.28
329.583	-8.53
329.796	116.39
330.009	38.57
330.222	54.95
330.435	-6.49
330.648	-18.77
330.861	5.8
331.073	-6.49
331.286	143.02
331.499	9.9
331.712	-18.77
331.925	44.71
332.138	-6.49
332.35	52.91
332.563	32.43
332.776	28.33
332.989	3.75
333.202	28.33
333.414	46.76
333.627	38.57
333.84	13.99
334.053	57
334.265	3.75
334.478	26.28
334.691	87.72
334.903	50.86
335.116	38.57
335.329	65.19
335.541	38.57
335.754	97.96
335.966	32.43
336.179	67.24
336.392	69.29
336.604	-22.87
336.817	20.14
337.029	57
337.242	-4.44
337.454	1.71
337.667	75.43
337.88	3.75
338.092	20.14
338.305	32.43
338.517	3.75
338.729	100.01
338.942	63.15
339.154	28.33
339.367	13.99
339.579	-45.4
339.792	-47.44
340.004	93.87
340.217	28.33
340.429	67.24
340.641	-12.63
340.854	16.04
341.066	28.33
341.278	126.63
341.491	26.28
341.703	-6.49
341.915	38.57
342.128	34.47
342.34	34.47
342.552	106.15
342.764	-41.3
342.977	79.53
343.189	5.8
343.401	50.86
343.613	-18.77
343.826	116.39
344.038	34.47
344.25	16.04
344.462	-6.49
344.674	79.53
344.886	71.34
345.099	42.67
345.311	11.95
345.523	83.63
345.735	-4.44
345.947	67.24
346.159	-12.63
346.371	26.28
346.583	-45.4
346.795	67.24
347.007	-22.87
347.219	75.43
347.431	-45.4
347.643	110.25
347.855	9.9
348.067	9.9
348.279	28.33
348.491	24.23
348.703	30.38
348.915	50.86
349.127	-61.78
349.339	-47.44
349.551	18.09
349.763	73.39
349.975	38.57
350.187	20.14
350.399	83.63
350.61	44.71
350.822	52.91
351.034	120.49
351.246	67.24
351.458	34.47
351.669	32.43
351.881	22.19
352.093	77.48
352.305	3.75
352.517	65.19
352.728	42.67
352.94	13.99
353.152	9.9
353.363	-47.44
353.575	26.28
353.787	-12.63
353.999	85.67
354.21	124.58
354.422	54.95
354.633	-31.06
354.845	38.57
355.057	71.34
355.268	52.91
355.48	42.67
355.692	-74.07
355.903	5.8
356.115	32.43
356.326	48.81
356.538	3.75
356.749	-2.39
356.961	120.49
357.172	50.86
357.384	-18.77
357.595	71.34
357.807	28.33
358.018	1.71
358.23	106.15
358.441	65.19
358.653	102.06
358.864	13.99
359.075	50.86
359.287	52.91
359.498	9.9
359.709	5.8
359.921	36.52
360.132	-57.68
360.344	42.67
360.555	30.38
360.766	-6.49
360.977	38.57
361.189	59.05
361.4	-2.39
361.611	28.33
361.823	9.9
362.034	73.39
362.245	-31.06
362.456	38.57
362.667	-31.06
362.879	50.86
363.09	9.9
363.301	132.78
363.512	48.81
363.723	67.24
363.935	-39.25
364.146	30.38
364.357	1.71
364.568	46.76
364.779	22.19
364.99	71.34
365.201	69.29
365.412	13.99
365.623	-24.92
365.834	59.05
366.045	57
366.256	112.3
366.467	34.47
366.678	18.09
366.889	85.67
367.1	38.57
367.311	44.71
367.522	-82.26
367.733	32.43
367.944	83.63
368.155	42.67
368.366	-55.64
368.577	-4.44
368.788	77.48
368.999	-2.39
369.209	-8.53
369.42	77.48
369.631	-4.44
369.842	87.72
370.053	20.14
370.264	69.29
370.474	26.28
370.685	30.38
370.896	42.67
371.107	30.38
371.317	57
371.528	54.95
371.739	71.34
371.95	87.72
372.16	30.38
372.371	85.67
372.582	26.28
372.792	59.05
373.003	-8.53
373.214	65.19
373.424	-16.73
373.635	-82.26
373.846	73.39
374.056	24.23
374.267	11.95
374.477	59.05
374.688	52.91
374.898	36.52
375.109	-4.44
375.319	26.28
375.53	59.05
375.74	42.67
375.951	11.95
376.161	9.9
376.372	61.1
376.582	3.75
376.793	1.71
377.003	102.06
377.214	16.04
377.424	-16.73
377.635	42.67
377.845	34.47
378.055	18.09
378.266	18.09
378.476	75.43
378.686	3.75
378.897	-4.44
379.107	-14.68
379.317	-10.58
379.528	-20.82
379.738	26.28
379.948	34.47
380.158	-26.96
380.369	11.95
380.579	26.28
380.789	69.29
380.999	73.39
381.21	36.52
381.42	124.58
381.63	46.76
381.84	59.05
382.05	30.38
382.261	36.52
382.471	61.1
382.681	28.33
382.891	46.76
383.101	36.52
383.311	30.38
383.521	42.67
383.731	63.15
383.941	50.86
384.151	136.87
384.361	42.67
384.571	157.35
384.781	42.67
384.991	36.52
385.201	95.91
385.411	97.96
385.621	61.1
385.831	179.88
386.041	57
386.251	26.28
386.461	61.1
386.671	-43.35
386.881	9.9
387.091	77.48
387.301	50.86
387.511	52.91
387.72	3.75
387.93	52.91
388.14	-53.59
388.35	11.95
388.56	18.09
388.769	38.57
388.979	59.05
389.189	1.71
389.399	42.67
389.609	-10.58
389.818	81.58
390.028	69.29
390.238	140.97
390.447	-0.34
390.657	61.1
390.867	3.75
391.076	40.62
391.286	26.28
391.496	48.81
391.705	22.19
391.915	85.67
392.125	28.33
392.334	67.24
392.544	38.57
392.753	71.34
392.963	1.71
393.172	38.57
393.382	75.43
393.591	-22.87
393.801	-18.77
394.01	161.45
394.22	1.71
394.429	85.67
394.639	67.24
394.848	26.28
395.058	48.81
395.267	36.52
395.477	24.23
395.686	38.57
395.895	-6.49
396.105	114.34
396.314	18.09
396.524	83.63
396.733	71.34
396.942	-35.16
397.152	83.63
397.361	26.28
397.57	30.38
397.78	3.75
397.989	22.19
398.198	118.44
398.407	18.09
398.617	59.05
398.826	132.78
399.035	89.77
399.244	18.09
399.453	95.91
399.663	102.06
399.872	67.24
400.081	34.47
400.29	77.48
400.499	97.96
400.708	95.91
400.917	110.25
401.127	48.81
401.336	42.67
401.545	116.39
401.754	159.4
401.963	149.16
402.172	116.39
402.381	28.33
402.59	32.43
402.799	132.78
403.008	89.77
403.217	175.78
403.426	136.87
403.635	124.58
403.844	147.11
404.053	110.25
404.262	91.82
404.471	89.77
404.68	46.76
404.888	93.87
405.097	110.25
405.306	151.21
405.515	75.43
405.724	128.68
405.933	140.97
406.142	173.74
406.35	177.83
406.559	112.3
406.768	171.69
406.977	124.58
407.185	87.72
407.394	140.97
407.603	106.15
407.812	194.22
408.02	222.89
408.229	143.02
408.438	128.68
408.646	183.98
408.855	157.35
409.064	145.06
409.272	140.97
409.481	229.03
409.69	186.02
409.898	247.46
410.107	202.41
410.315	198.31
410.524	231.08
410.733	208.55
410.941	310.95
411.15	364.2
411.358	288.42
411.567	396.96
411.775	302.76
411.984	339.62
412.192	380.58
412.401	333.48
412.609	345.77
412.818	349.86
413.026	351.91
413.234	345.77
413.443	427.68
413.651	343.72
413.86	376.48
414.068	413.35
414.276	419.49
414.485	456.36
414.693	403.11
414.901	573.09
415.11	429.73
415.318	525.99
415.526	536.23
415.734	501.41
415.943	532.13
416.151	571.04
416.359	626.34
416.567	573.09
416.776	612
416.984	722.59
417.192	755.36
417.4	730.78
417.608	689.82
417.817	788.13
418.025	734.88
418.233	831.13
418.441	804.51
418.649	810.65
418.857	880.29
419.065	984.73
419.273	939.68
419.481	980.64
419.689	954.01
419.897	1109.66
420.105	1052.31
420.313	1117.85
420.521	1140.38
420.729	1181.34
420.937	1150.62
421.145	1345.17
421.353	1242.78
421.561	1443.48
421.769	1306.26
421.977	1558.16
422.185	1468.05
422.393	1482.39
422.601	1652.37
422.809	1623.7
423.017	1633.94
423.224	1758.86
423.432	1773.2
423.64	1748.62
423.848	2002.57
424.056	1848.97
424.263	2037.39
424.471	2150.03
424.679	2233.99
424.887	2113.16
425.094	2207.37
425.302	2305.67
425.51	2246.28
425.718	2578.05
425.925	2438.79
426.133	2412.17
426.341	2678.4
426.548	2788.99
426.756	2684.55
426.964	2809.47
427.171	3026.56
427.379	3110.52
427.586	3044.99
427.794	3229.31
428.001	3434.1
428.209	3614.32
428.417	3458.68
428.624	3724.91
428.832	3712.63
429.039	3671.67
429.247	3720.82
429.454	4083.31
429.662	4263.53
429.869	4163.18
430.076	4288.11
430.284	4236.91
430.491	4533.86
430.699	4484.71
430.906	4580.96
431.114	4683.36
431.321	5023.33
431.528	5097.05
431.736	5232.22
431.943	5568.09
432.15	5422.68
432.358	5465.69
432.565	5678.68
432.772	5822.03
432.979	6049.36
433.187	6022.73
433.394	6045.26
433.601	6622.79
433.808	6628.93
434.016	6508.1
434.223	6547.01
434.43	7327.29
434.637	7046.72
434.844	7648.82
435.052	7732.79
435.259	7720.5
435.466	7890.48
435.673	7765.56
435.88	8044.08
436.087	8578.6
436.294	8674.85
436.501	8349.23
436.708	8441.39
436.915	8775.2
437.122	9315.87
437.329	9397.79
437.537	9590.3
437.743	9741.85
437.95	9635.35
438.157	10173.97
438.364	10425.87
438.571	10495.5
438.778	10565.13
438.985	11470.33
439.192	11003.39
439.399	11593.21
439.606	11079.17
439.813	11798.01
440.02	12565.99
440.227	12281.33
440.433	12180.98
440.64	12629.48
440.847	12283.38
441.054	12627.43
441.261	13579.74
441.467	13442.53
441.674	13778.39
441.881	14149.07
442.088	14214.61
442.294	13972.95
442.501	14398.93
442.708	14650.83
442.914	15293.89
443.121	15953.34
443.328	15644.09
443.534	16655.79
443.741	16192.95
443.948	15994.29
444.154	16919.98
444.361	16956.84
444.568	17143.21
444.774	17204.64
444.981	17397.15
445.187	17929.63
445.394	18630.03
445.6	18455.95
445.807	20168.05
446.013	19119.49
446.22	19750.27
446.426	20446.58
446.633	20827.5
446.839	21488.99
447.046	20475.25
447.252	21634.4
447.459	21585.25
447.665	21585.25
447.871	22420.82
448.078	23233.86
448.284	22467.92
448.491	23133.51
448.697	23899.45
448.903	24479.03
449.11	24286.52
449.316	24257.85
449.522	24347.96
449.728	25355.56
449.935	25378.09
450.141	25550.12
450.347	26121.5
450.553	25204.01
450.76	25699.62
450.966	26232.09
451.172	26019.1
451.378	26905.87
451.584	26539.29
451.791	27315.47
451.997	27082
452.203	27522.31
452.409	27577.61
452.615	27245.83
452.821	26447.13
453.027	25922.85
453.233	27434.25
453.44	26543.38
453.646	26735.89
453.852	27018.51
454.058	27092.24
454.264	26586.39
454.47	27026.7
454.676	25967.9
454.882	27653.38
455.088	24970.54
455.294	25664.8
455.5	25486.63
455.705	26262.81
455.911	25277.74
456.117	24563
456.323	24483.13
456.529	22906.19
456.735	23993.66
456.941	23594.31
457.147	23221.58
457.352	22687.06
457.558	22177.11
457.764	22220.12
457.97	21941.6
458.176	21538.15
458.381	21572.96
458.587	20389.24
458.793	20313.46
458.999	19176.84
459.204	20591.98
459.41	20174.2
459.616	18945.42
459.821	18986.38
460.027	18781.58
460.233	18310.55
460.438	17452.45
460.644	17792.41
460.85	16833.96
461.055	16526.77
461.261	16541.1
461.466	15222.21
461.672	14915.02
461.878	15945.14
462.083	15019.46
462.289	14697.93
462.494	14570.96
462.7	13710.81
462.905	13352.41
463.111	13985.24
463.316	14063.06
463.522	13712.86
463.727	13735.39
463.932	13538.78
464.138	13532.64
464.343	13731.29
464.549	13071.84
464.754	13340.13
464.959	13495.77
465.165	13372.89
465.37	12813.8
465.575	12518.89
465.781	12967.4
465.986	13090.27
466.191	12670.44
466.397	12269.04
466.602	11671.03
466.807	12314.09
467.012	12158.45
467.218	11970.04
467.423	12170.74
467.628	12125.68
467.833	12363.25
468.038	12029.43
468.244	11822.58
468.449	12152.31
468.654	11677.18
468.859	11716.09
469.064	11660.79
469.269	11136.51
469.474	11294.21
469.679	11603.45
469.885	11298.3
470.09	11433.47
470.295	11345.41
470.5	11025.92
470.705	11007.49
470.91	11118.08
471.115	10860.04
471.32	10821.13
471.525	10857.99
471.73	10489.35
471.935	10630.66
472.139	10309.13
472.344	10423.82
472.549	10268.17
472.754	10042.9
472.959	9891.35
473.164	9747.99
473.369	9807.38
473.574	9831.96
473.778	9834
473.983	9518.62
474.188	9825.81
474.393	9365.02
474.598	9422.36
474.802	9072.16
475.007	9125.41
475.212	9246.24
475.417	8801.83
475.621	8877.6
475.826	9033.25
476.031	8760.87
476.235	8527.4
476.44	8820.26
476.645	8580.65
476.849	8472.11
477.054	8334.89
477.259	8314.41
477.463	8291.88
477.668	8001.07
477.872	8070.7
478.077	8031.79
478.282	7818.8
478.486	7921.2
478.691	7872.05
478.895	7628.34
479.1	7775.8
479.304	7704.12
479.509	7566.9
479.713	7558.71
479.918	7411.26
480.122	7278.14
480.326	7337.53
480.531	7343.67
480.735	7302.72
480.94	7165.5
481.144	7360.06
481.348	7081.53
481.553	7327.29
481.757	6954.56
481.961	7276.09
482.166	7255.61
482.37	7298.62
482.574	6970.94
482.778	7124.54
482.983	7337.53
483.187	7339.58
483.391	7079.49
483.595	7095.87
483.8	6956.61
484.004	7089.73
484.208	7196.22
484.412	7177.79
484.616	7147.07
484.821	7059.01
485.025	6909.51
485.229	7130.69
485.433	7079.49
485.637	7093.82
485.841	7026.24
486.045	7110.21
486.249	7140.93
486.453	7016
486.657	7155.26
486.861	7061.05
487.065	7034.43
487.269	7206.46
487.473	7034.43
487.677	7147.07
487.881	7122.49
488.085	7040.58
488.289	7167.55
488.493	7118.4
488.697	7056.96
488.901	7308.86
489.105	7179.84
489.309	7290.43
489.512	7362.11
489.716	7167.55
489.92	7059.01
490.124	7165.5
490.328	7351.87
490.531	7269.95
490.735	7218.75
490.939	7259.71
491.143	7194.17
491.346	7124.54
491.55	7390.78
491.754	7462.46
491.958	7360.06
492.161	7317.05
492.365	7470.65
492.569	7503.42
492.772	7437.88
492.976	7489.08
493.18	7775.8
493.383	7677.49
493.587	7718.45
493.79	7802.42
493.994	7726.64
494.197	7800.37
494.401	8107.57
494.605	7908.91
494.808	8214.06
495.012	7974.45
495.215	8025.65
495.419	8162.86
495.622	8185.39
495.825	8158.77
496.029	8220.21
496.232	8568.36
496.436	8492.59
496.639	8566.31
496.843	8388.14
497.046	8807.97
497.249	8609.32
497.453	8965.67
497.656	8820.26
497.859	8918.56
498.063	8896.03
498.266	9317.92
498.469	9369.12
498.673	9291.29
498.876	9516.57
499.079	9700.89
499.282	9553.43
499.485	9852.44
499.689	9754.13
499.892	9999.89
500.095	9823.76
500.298	10255.89
500.501	10071.57
500.705	10339.85
500.908	10663.43
501.111	10673.67
501.314	10755.59
501.517	10771.97
501.72	10823.17
501.923	11038.21
502.126	11200
502.329	11390.46
502.532	11298.3
502.735	11464.19
502.938	11611.64
503.141	11855.35
503.344	11845.11
503.547	12025.33
503.75	12144.11
503.953	12373.49
504.156	12275.18
504.359	12461.55
504.562	12613.1
504.765	12713.45
504.968	12985.83
505.17	13002.21
505.373	13190.63
505.576	13307.36
505.779	13520.35
505.982	13360.61
506.185	13856.22
506.387	13952.47
506.59	14056.92
506.793	14466.51
506.996	14403.02
507.198	14554.57
507.401	14568.91
507.604	14857.67
507.807	15101.38
508.009	15070.66
508.212	15054.28
508.415	15799.74
508.617	15807.93
508.82	15508.93
509.022	15746.49
509.225	16248.24
509.428	16053.69
509.63	16307.63
509.833	16510.38
510.035	16913.83
510.238	16725.42
510.44	16752.04
510.643	16887.21
510.845	17055.14
511.048	17278.37
511.25	17675.68
511.453	17704.35
511.655	18339.22
511.858	18085.27
512.06	18245.01
512.262	18752.91
512.465	18443.67
512.667	18746.76
512.87	18904.46
513.072	18865.55
513.274	19314.05
513.477	19471.75
513.679	19758.46
513.881	19924.35
514.084	19918.2
514.286	20020.6
514.488	20200.82
514.69	20788.59
514.893	20901.23
515.095	20968.81
515.297	21007.72
515.499	21316.97
515.701	21720.42
515.904	21783.9
516.106	21804.38
516.308	22093.15
516.51	22197.59
516.712	22328.66
516.914	22836.56
517.116	23194.95
517.318	22918.48
517.52	23162.19
517.722	23424.33
517.925	23706.94
518.127	23856.45
518.329	23874.88
518.531	23885.12
518.733	24345.91
518.935	24663.35
519.136	24616.24
519.338	24698.16
519.54	25136.43
519.742	25023.79
519.944	25521.45
520.146	25732.39
520.348	25865.5
520.55	25904.42
520.752	26176.8
520.954	26883.34
521.155	26613.01
521.357	26891.54
521.559	27147.53
521.761	27573.51
521.963	27469.06
522.164	27297.03
522.366	27661.57
522.568	28192
522.77	28081.41
522.971	28595.45
523.173	28435.7
523.375	28718.32
523.576	28577.01
523.778	28781.81
523.98	29228.27
524.181	29418.73
524.383	29471.98
524.584	29889.76
524.786	29709.54
524.988	29730.02
525.189	30051.55
525.391	30487.77
525.592	30414.04
525.794	30315.74
525.995	30586.07
526.197	30860.5
526.398	30739.67
526.6	30866.64
526.801	31276.24
527.003	31544.52
527.204	31354.06
527.406	31671.5
527.607	31565
527.808	31769.8
528.01	30995.67
528.211	31884.48
528.412	32369.85
528.614	32089.28
528.815	32081.09
529.016	32292.03
529.218	31995.07
529.419	32072.9
529.62	32292.03
529.822	32500.92
530.023	32388.28
530.224	32419
530.425	32216.26
530.626	32173.25
530.828	32292.03
531.029	32937.14
531.23	32638.14
531.431	33002.68
531.632	32570.55
531.833	33017.01
532.035	32500.92
532.236	33174.7
532.437	33012.91
532.638	32890.04
532.839	33367.21
533.04	33430.7
533.241	32990.39
533.442	33674.41
533.643	33197.23
533.844	33268.91
534.045	33479.85
534.246	33017.01
534.447	33320.11
534.648	33090.74
534.849	33328.3
535.05	33109.17
535.251	33344.69
535.451	33348.78
535.652	33432.75
535.853	33273.01
536.054	33391.79
536.255	33627.31
536.456	33381.55
536.657	33778.86
536.857	33285.29
537.058	33211.57
537.259	33615.02
537.46	33797.29
537.66	33445.04
537.861	33447.08
538.062	33393.84
538.263	33598.63
538.463	33432.75
538.664	33338.54
538.865	33537.19
539.065	33545.39
539.266	33371.31
539.466	33379.5
539.667	33125.55
539.868	33604.78
540.068	33559.72
540.269	33428.65
540.469	33686.7
540.67	33152.18
540.87	33320.11
541.071	33299.63
541.271	33557.67
541.472	33397.93
541.672	33064.11
541.873	33420.46
542.073	32951.48
542.274	33572.01
542.474	33152.18
542.675	32965.81
542.875	33617.07
543.075	33522.86
543.276	32939.19
543.476	33709.22
543.676	33432.75
543.877	33737.9
544.077	33295.53
544.277	33180.85
544.478	33068.21
544.678	33475.76
544.878	33137.84
545.078	33316.01
545.279	33029.3
545.479	32943.28
545.679	33447.08
545.879	33330.35
546.079	33465.52
546.28	33035.44
546.48	32797.88
546.68	33440.94
546.88	33334.45
547.08	33125.55
547.28	32836.79
547.48	33227.95
547.68	32920.76
547.88	32996.53
548.081	33322.16
548.281	33268.91
548.481	32908.47
548.681	33264.82
548.881	32922.8
549.081	33199.28
549.28	32750.77
549.48	33242.29
549.68	32892.08
549.88	33270.96
550.08	33010.87
550.28	33111.22
550.48	33031.35
550.68	32963.76
550.88	32568.51
551.08	33033.39
551.279	32851.13
551.479	32961.72
551.679	32998.58
551.879	33072.31
552.079	32982.2
552.278	33023.15
552.478	33100.98
552.678	32820.41
552.878	33404.08
553.077	32660.66
553.277	32355.52
553.477	33158.32
553.676	32644.28
553.876	32996.53
554.076	32337.09
554.275	32865.46
554.475	32595.13
554.674	32795.83
554.874	32611.51
555.074	32830.65
555.273	32644.28
555.473	32896.18
555.672	32294.08
555.872	32527.55
556.071	33006.77
556.271	32672.95
556.47	32279.74
556.67	32152.77
556.869	32257.21
557.068	32605.37
557.268	32265.41
557.467	32535.74
557.667	32271.55
557.866	32306.37
558.065	32341.18
558.265	32117.95
558.464	31603.91
558.663	32351.42
558.863	32085.19
559.062	32371.9
559.261	32220.35
559.461	32015.55
559.66	31605.96
559.859	31993.03
560.058	31835.33
560.258	31947.97
560.457	31218.89
560.656	31933.64
560.855	31808.71
561.054	31739.08
561.253	31200.46
561.453	31485.13
561.652	31317.2
561.851	31491.27
562.05	31341.77
562.249	30966.99
562.448	31651.02
562.647	31272.14
562.846	31366.35
563.045	31026.39
563.244	30721.24
563.443	31057.1
563.642	30686.42
563.841	30731.48
564.04	30932.18
564.239	31272.14
564.438	30803.16
564.637	30952.66
564.836	30635.22
565.035	30475.48
565.234	30766.29
565.432	30690.52
565.631	30411.99
565.83	30401.75
566.029	30665.94
566.228	30295.26
566.427	30162.14
566.625	29951.2
566.824	29801.7
567.023	30162.14
567.222	29594.86
567.42	29924.58
567.619	29848.8
567.818	29512.94
568.016	29594.86
568.215	29820.13
568.414	29113.58
568.612	29830.37
568.811	29426.92
569.01	29504.74
569.208	29101.29
569.407	29273.32
569.605	28787.96
569.804	29336.81
570.002	28695.8
570.201	29195.5
570.4	28888.31
570.598	28536.06
570.797	28644.6
570.995	28812.53
571.193	28484.86
571.392	28636.41
571.59	28605.69
571.789	28189.95
571.987	28454.14
572.186	28417.27
572.384	27979.01
572.582	28192
572.781	28425.46
572.979	27569.41
573.177	27690.24
573.376	28095.74
573.574	27493.64
573.772	27892.99
573.971	27884.8
574.169	27794.69
574.367	27550.98
574.565	27917.57
574.763	27507.97
574.962	27651.33
575.16	27032.85
575.358	27559.17
575.556	26852.62
575.754	27278.6
575.952	27127.05
576.151	27206.92
576.349	26772.75
576.547	26567.96
576.745	26918.16
576.943	27065.61
577.141	26674.45
577.339	26621.2
577.537	26633.49
577.735	26725.65
577.933	26291.48
578.131	26293.53
578.329	26049.82
578.527	26238.23
578.725	26012.96
578.923	26242.33
579.121	26053.92
579.319	25926.94
579.516	26170.65
579.714	25752.87
579.912	25748.77
580.11	25656.61
580.308	25873.7
580.506	25423.14
580.704	25240.87
580.901	25648.42
581.099	25726.24
581.297	25300.26
581.495	25238.83
581.692	25314.6
581.89	25085.23
582.088	25367.85
582.285	24794.42
582.483	25412.9
582.681	25013.55
582.878	24917.29
583.076	25015.6
583.274	24954.16
583.471	24257.85
583.669	24552.76
583.866	24497.46
584.064	24644.91
584.262	24003.9
584.459	24483.13
584.657	24466.74
584.854	24552.76
585.052	24008
585.249	24229.18
585.447	24354.1
585.644	23885.12
585.841	23921.98
586.039	24327.48
586.236	23776.58
586.434	23532.87
586.631	23522.63
586.828	23799.1
587.026	23582.02
587.223	23475.52
587.42	23446.85
587.618	23409.99
587.815	23094.6
588.012	23106.89
588.21	23129.42
588.407	23375.17
588.604	23168.33
588.801	22867.28
588.999	23178.57
589.196	22861.13
589.393	22814.03
589.59	22736.21
589.787	22631.76
589.984	22558.03
590.182	22490.45
590.379	22429.01
590.576	22275.41
590.773	22502.74
590.97	22297.94
591.167	22349.14
591.364	22095.19
591.561	22187.35
591.758	22209.88
591.955	22078.81
592.152	22371.67
592.349	21587.3
592.546	21996.89
592.743	21902.68
592.94	21493.09
593.137	21857.63
593.334	21820.77
593.531	21265.77
593.727	21558.63
593.924	21587.3
594.121	21372.26
594.318	21337.45
594.515	21175.66
594.712	21392.74
594.908	21093.74
595.105	21163.37
595.302	21124.46
595.499	21036.39
595.696	21132.65
595.892	20712.81
596.089	20876.65
596.286	21038.44
596.482	20817.26
596.679	20524.4
596.876	20505.97
597.072	20475.25
597.269	20528.5
597.466	20274.55
597.662	20415.86
597.859	20176.25
598.055	20274.55
598.252	20024.7
598.448	20133.24
598.645	20075.9
598.841	19934.59
599.038	20053.37
599.234	20073.85
599.431	19850.62
599.627	19834.24
599.824	19998.07
600.02	19561.86
600.217	19703.17
600.413	19631.49
600.609	19559.81
600.806	19549.57
601.002	19391.87
601.198	19443.07
601.395	19379.59
601.591	19191.17
601.787	19164.55
601.984	18910.6
602.18	19422.59
602.376	19115.4
602.572	18914.7
602.769	18992.52
602.965	18572.69
603.161	18754.96
603.357	18613.65
603.553	18627.98
603.75	18802.06
603.946	18390.42
604.142	18582.93
604.338	18249.11
604.534	18556.3
604.73	18212.24
604.926	18015.64
605.122	18236.82
605.318	18120.09
605.514	17915.29
605.71	18009.5
605.906	18138.52
606.102	18206.1
606.298	18027.93
606.494	17859.99
606.69	17659.29
606.886	17722.78
607.082	17710.49
607.278	17593.76
607.474	17540.51
607.67	17925.53
607.866	17452.45
608.062	17534.37
608.257	17597.85
608.453	17337.76
608.649	17638.81
608.845	17548.7
609.041	17444.26
609.236	17098.15
609.432	17348
609.628	17065.38
609.824	17143.21
610.019	17163.68
610.215	17173.92
610.411	17206.69
610.606	16907.69
610.802	16917.93
610.998	16989.61
611.193	16971.18
611.389	16741.8
611.584	16618.93
611.78	16946.6
611.976	16754.09
612.171	17069.48
612.367	16733.61
612.562	16600.49
612.758	16342.45
612.953	16817.58
613.149	16780.71
613.344	16485.81
613.539	16657.84
613.735	16453.04
613.93	16520.62
614.126	16238
614.321	16496.05
614.517	16483.76
614.712	16377.26
614.907	16270.77
615.103	16276.91
615.298	16055.73
615.493	16295.35
615.688	15939
615.884	16487.86
616.079	16170.42
616.274	16102.84
616.47	15887.8
616.665	16018.87
616.86	15959.48
617.055	15730.11
617.25	15889.85
617.445	16061.88
617.641	15459.77
617.836	15893.94
618.031	15662.52
618.226	15846.84
618.421	15459.77
618.616	15902.14
618.811	15289.79
619.006	15828.41
619.201	15201.73
619.396	15412.67
619.591	15060.42
619.786	15572.41
619.981	14986.69
620.176	15359.42
620.371	15005.13
620.566	15205.83
620.761	14904.78
620.956	15109.57
621.151	14851.53
621.346	14874.06
621.541	14624.2
621.735	14953.93
621.93	14423.5
622.125	14443.98
622.32	14061.01
622.515	14527.95
622.709	14312.91
622.904	14405.07
623.099	14063.06
623.294	14190.03
623.488	14050.77
623.683	14142.93
623.878	14063.06
624.072	13829.59
624.267	13835.74
624.462	13962.71
624.656	13346.27
624.851	13585.88
625.046	13508.06
625.24	13592.03
625.435	13118.95
625.629	13213.15
625.824	13231.58
626.018	13135.33
626.213	13057.51
626.407	12963.3
626.602	12840.42
626.796	12963.3
626.991	12717.54
627.185	12869.09
627.38	12791.27
627.574	12654.06
627.768	12422.64
627.963	12330.48
628.157	12424.69
628.352	12322.29
628.546	12133.87
628.74	12279.28
628.935	12242.42
629.129	11982.32
629.323	12148.21
629.517	12041.71
629.712	11994.61
629.906	11804.15
630.1	11748.86
630.294	11740.66
630.489	11519.48
630.683	11755
630.877	11603.45
631.071	11376.13
631.265	11496.96
631.459	11386.36
631.653	11331.07
631.848	11392.51
632.042	11384.32
632.236	11142.66
632.43	11056.64
632.624	11113.99
632.818	11138.56
633.012	10991.11
633.206	10743.3
633.4	11009.54
633.594	10733.06
633.788	10690.06
633.982	10538.51
634.176	10569.23
634.369	10712.58
634.563	10577.42
634.757	10262.03
634.951	10479.11
635.145	10343.95
635.339	10098.19
635.533	9932.31
635.726	10126.86
635.92	9954.83
636.114	10081.81
636.308	9922.07
636.501	9948.69
636.695	9909.78
636.889	9829.91
637.083	9848.34
637.276	9944.59
637.47	9580.06
637.664	9819.67
637.857	9612.82
638.051	9881.11
638.244	9541.15
638.438	9592.34
638.632	9438.75
638.825	9336.35
639.019	9283.1
639.212	9250.33
639.406	9168.41
639.599	9014.82
639.793	9152.03
639.986	8922.66
640.18	9113.12
640.373	9047.58
640.567	8842.79
640.76	9090.59
640.954	8949.28
641.147	8787.49
641.34	8664.61
641.534	8629.8
641.727	8662.57
641.92	8566.31
642.114	8594.98
642.307	8576.55
642.5	8418.86
642.694	8357.42
642.887	8244.78
643.08	8390.19
643.273	8312.36
643.467	8214.06
643.66	8216.11
643.853	8226.35
644.046	8144.43
644.239	8103.47
644.432	8181.29
644.626	7953.97
644.819	8050.22
645.012	7925.3
645.205	7910.96
645.398	7968.31
645.591	7757.36
645.784	7736.88
645.977	7693.88
646.17	7747.12
646.363	7616.05
646.556	7491.13
646.749	7513.66
646.942	7771.7
647.135	7552.57
647.328	7474.74
647.521	7419.45
647.714	7173.69
647.907	7427.64
648.099	7112.25
648.292	7372.35
648.485	7165.5
648.678	7177.79
648.871	7155.26
649.064	6907.46
649.256	7179.84
649.449	7093.82
649.642	7106.11
649.835	7024.19
650.027	6901.31
650.22	6975.04
650.413	6764.1
650.605	6776.39
650.798	6784.58
650.991	6743.62
651.183	6798.91
651.376	6639.17
651.568	6717
651.761	6782.53
651.954	6596.17
652.146	6547.01
652.339	6497.86
652.531	6612.55
652.724	6475.34
652.916	6293.07
653.109	6299.21
653.301	6399.56
653.494	6344.27
653.686	6211.15
653.879	6385.23
654.071	6155.85
654.263	6264.4
654.456	6219.34
654.648	6188.62
654.84	6094.41
655.033	6002.26
655.225	5992.02
655.417	5940.82
655.61	6125.13
655.802	6096.46
655.994	6063.69
656.186	5834.32
656.379	5946.96
656.571	5807.7
656.763	5688.92
656.955	5617.24
657.148	5961.3
657.34	5760.59
657.532	5670.48
657.724	5815.89
657.916	5690.96
658.108	5557.85
658.3	5555.8
658.492	5502.55
658.684	5523.03
658.876	5490.26
659.068	5342.81
659.26	5262.94
659.452	5465.69
659.644	5299.8
659.836	5162.59
660.028	5224.03
660.22	5144.16
660.412	5312.09
660.604	5138.01
660.796	5301.85
660.988	5316.19
661.18	5054.05
661.372	5146.2
661.563	5148.25
661.755	5084.77
661.947	4939.36
662.139	4951.65
662.331	4845.15
662.522	4945.5
662.714	4877.92
662.906	4769.38
663.097	4871.78
663.289	4800.1
663.481	4785.76
663.673	4824.67
663.864	4814.43
664.056	4689.51
664.247	4726.37
664.439	4548.2
664.631	4621.92
664.822	4644.45
665.014	4697.7
665.205	4642.4
665.397	4656.74
665.588	4597.35
665.78	4503.14
665.971	4517.48
666.163	4413.03
666.354	4474.47
666.546	4378.22
666.737	4421.22
666.929	4378.22
667.12	4417.13
667.311	4263.53
667.503	4191.85
667.694	4286.06
667.885	4370.02
668.077	4367.98
668.268	4109.93
668.459	4163.18
668.651	4238.95
668.842	4167.28
669.033	4017.77
669.224	4003.44
669.416	4109.93
669.607	4093.55
669.798	4034.16
669.989	4032.11
670.18	3894.9
670.371	4140.65
670.563	3919.47
670.754	3952.24
670.945	3942
671.136	3917.42
671.327	3874.42
671.518	3935.85
671.709	3751.54
671.9	3812.98
672.091	3763.83
672.282	3862.13
672.473	3784.3
672.664	3796.59
672.855	3729.01
673.046	3829.36
673.237	3790.45
673.428	3782.26
673.619	3792.5
673.809	3679.86
674	3794.54
674.191	3882.61
674.382	3706.48
674.573	3550.84
674.764	3544.69
674.954	3634.8
675.145	3516.02
675.336	3614.32
675.527	3552.88
675.717	3354.23
675.908	3520.12
676.099	3450.49
676.289	3499.64
676.48	3327.61
676.671	3470.97
676.861	3454.58
677.052	3333.75
677.243	3335.8
677.433	3538.55
677.624	3362.42
677.814	3446.39
678.005	3286.65
678.195	3378.81
678.386	3294.84
678.576	3268.22
678.767	3171.96
678.957	3319.42
679.148	3430.01
679.338	3264.12
679.529	3200.63
679.719	3214.97
679.909	3124.86
680.1	3169.91
680.29	3122.81
680.481	3251.83
680.671	3143.29
680.861	3133.05
681.052	3065.47
681.242	3034.75
681.432	3206.78
681.622	3190.39
681.813	3055.23
682.003	3032.7
682.193	3034.75
682.383	3135.1
682.573	2930.3
682.764	3032.7
682.954	2934.4
683.144	3032.7
683.334	3079.8
683.524	2995.84
683.714	3012.22
683.904	2838.14
684.094	2942.59
684.284	2995.84
684.474	3034.75
684.664	2956.93
684.854	2913.92
685.044	2938.49
685.234	2930.3
685.424	2915.97
685.614	2788.99
685.804	2889.34
685.994	2981.5
686.184	2846.34
686.374	2885.25
686.564	2803.33
686.753	2877.05
686.943	2684.55
687.133	2784.9
687.323	2754.18
687.513	2784.9
687.702	2719.36
687.892	2756.22
688.082	2725.51
688.272	2690.69
688.461	2643.59
688.651	2639.49
688.841	2657.92
689.03	2553.48
689.22	2639.49
689.41	2680.45
689.599	2625.15
689.789	2727.55
689.979	2582.15
690.168	2551.43
690.358	2639.49
690.547	2395.78
690.737	2537.09
690.926	2580.1
691.116	2483.84
691.305	2512.52
691.495	2520.71
691.684	2657.92
691.874	2557.57
692.063	2449.03
692.252	2428.55
692.442	2535.04
692.631	2455.17
692.82	2524.8
693.01	2514.56
693.199	2485.89
693.388	2545.28
693.578	2352.77
693.767	2303.62
693.956	2360.97
694.146	2363.01
694.335	2365.06
694.524	2442.89
694.713	2373.25
694.902	2305.67
695.092	2379.4
695.281	2330.25
695.47	2344.58
695.659	2227.85
695.848	2184.84
696.037	2283.14
696.226	2301.58
696.415	2233.99
696.604	2311.82
696.793	2262.66
696.982	2272.9
697.171	2289.29
697.36	2336.39
697.549	2264.71
697.738	2184.84
697.927	2152.07
698.116	2277
698.305	2254.47
698.494	2164.36
698.683	2233.99
698.872	2328.2
699.061	2217.61
699.25	2215.56
699.438	2199.18
699.627	2246.28
699.816	2305.67
700.005	2201.23
700.193	2152.07
700.382	2141.83
700.571	2262.66
700.76	2219.66
700.948	2250.38
701.137	2209.42
701.326	2295.43
701.514	2182.79
701.703	2107.02
701.892	2098.83
702.08	2246.28
702.269	2164.36
702.457	2182.79
702.646	2186.89
702.834	2078.35
703.023	2057.87
703.212	2215.56
703.4	2203.27
703.589	2156.17
703.777	2178.7
703.965	1975.95
704.154	2168.46
704.342	2098.83
704.531	2258.57
704.719	2092.68
704.907	2233.99
705.096	2170.51
705.284	2059.92
705.472	2129.55
705.661	2037.39
705.849	2174.6
706.037	2100.87
706.226	2107.02
706.414	2023.05
706.602	2139.79
706.79	2203.27
706.979	2131.59
707.167	2098.83
707.355	1973.9
707.543	2145.93
707.731	2211.46
707.919	2150.03
708.107	2080.39
708.296	2041.48
708.484	2041.48
708.672	2041.48
708.86	2123.4
709.048	2016.91
709.236	2111.11
709.424	2074.25
709.612	2182.79
709.8	2066.06
709.988	2078.35
710.176	1980.04
710.364	2008.72
710.551	2025.1
710.739	2082.44
710.927	2043.53
711.115	2086.54
711.303	2045.58
711.491	2072.2
711.679	2047.63
711.866	2117.26
712.054	2025.1
712.242	1971.85
712.43	2172.55
712.617	2049.68
712.805	1992.33
712.993	2086.54
713.181	1861.26
713.368	2119.31
713.556	2033.29
713.744	2053.77
713.931	2051.72
714.119	2086.54
714.306	1969.8
714.494	2037.39
714.682	1965.71
714.869	2172.55
715.057	2064.01
715.244	2027.15
715.432	2180.75
715.619	2074.25
715.807	1973.9
715.994	2074.25
716.182	2008.72
716.369	2045.58
716.556	2027.15
716.744	2066.06
716.931	2023.05
717.119	2047.63
717.306	2029.2
717.493	2059.92
717.681	2064.01
717.868	2012.81
718.055	2041.48
718.242	1951.37
718.43	2025.1
718.617	2033.29
718.804	2035.34
718.991	1930.89
719.179	2090.63
719.366	2000.52
719.553	2070.16
719.74	2033.29
719.927	2068.11
720.114	2066.06
720.301	1902.22
720.488	2012.81
720.676	2016.91
720.863	2006.67
721.05	2082.44
721.237	1926.8
721.424	2021
721.611	2014.86
721.798	1975.95
721.985	2064.01
722.172	2027.15
722.358	2045.58
722.545	1945.23
722.732	2031.24
722.919	1992.33
723.106	2002.57
723.293	2027.15
723.48	2070.16
723.667	2031.24
723.853	1959.56
724.04	2006.67
724.227	2008.72
724.414	1957.52
724.6	2047.63
724.787	2178.7
724.974	2033.29
725.161	2012.81
725.347	1969.8
725.534	2025.1
725.72	2033.29
725.907	2047.63
726.094	1990.28
726.28	2066.06
726.467	1978
726.653	2076.3
726.84	2084.49
727.027	2080.39
727.213	1922.7
727.4	2035.34
727.586	1986.19
727.773	1998.48
727.959	1975.95
728.145	2029.2
728.332	1863.31
728.518	2064.01
728.705	2025.1
728.891	1947.28
729.077	2039.44
729.264	2012.81
729.45	2037.39
729.636	2115.21
729.823	1898.13
730.009	1949.32
730.195	2006.67
730.382	1986.19
730.568	1955.47
730.754	2000.52
730.94	1965.71
731.126	1992.33
731.313	2016.91
731.499	1947.28
731.685	2045.58
731.871	1998.48
732.057	2000.52
732.243	1971.85
732.429	2104.97
732.615	2057.87
732.801	2102.92
732.987	1951.37
733.173	2035.34
733.359	1855.12
733.545	1992.33
733.731	2043.53
733.917	2068.11
734.103	1971.85
734.289	2027.15
734.475	1928.85
734.661	2039.44
734.847	2100.87
735.033	1957.52
735.219	1941.13
735.404	1930.89
735.59	1863.31
735.776	2053.77
735.962	2008.72
736.148	1922.7
736.333	1928.85
736.519	1969.8
736.705	1883.79
736.89	1967.76
737.076	1969.8
737.262	1851.02
737.447	1881.74
737.633	1885.84
737.819	1998.48
738.004	1834.64
738.19	1959.56
738.375	1969.8
738.561	2014.86
738.747	1898.13
738.932	1875.6
739.118	1975.95
739.303	1853.07
739.489	1902.22
739.674	1861.26
739.859	1879.69
740.045	1887.89
740.23	1851.02
740.416	1775.25
740.601	1789.58
740.786	1799.82
740.972	1822.35
741.157	1812.11
741.342	1777.3
741.528	1918.61
741.713	1838.73
741.898	1767.06
742.084	1836.69
742.269	1740.43
742.454	1851.02
742.639	1781.39
742.824	1771.15
743.01	1838.73
743.195	1896.08
743.38	1726.1
743.565	1756.82
743.75	1771.15
743.935	1678.99
744.12	1722
744.305	1756.82
744.49	1758.86
744.675	1640.08
744.86	1666.71
745.045	1664.66
745.23	1683.09
745.415	1666.71
745.6	1590.93
745.785	1664.66
745.97	1734.29
746.155	1734.29
746.34	1707.66
746.525	1633.94
746.71	1558.16
746.895	1625.75
747.079	1715.86
747.264	1513.11
747.449	1640.08
747.634	1654.42
747.819	1527.44
748.003	1607.31
748.188	1468.05
748.373	1513.11
748.557	1619.6
748.742	1590.93
748.927	1443.48
749.111	1572.5
749.296	1586.83
749.481	1582.74
749.665	1517.2
749.85	1470.1
750.034	1441.43
750.219	1461.91
750.404	1398.42
750.588	1455.76
750.773	1384.09
750.957	1451.67
751.141	1418.9
751.326	1398.42
751.51	1322.65
751.695	1447.57
751.879	1533.59
752.064	1373.85
752.248	1408.66
752.432	1472.15
752.617	1365.65
752.801	1349.27
752.985	1396.37
753.17	1418.9
753.354	1345.17
753.538	1322.65
753.722	1302.17
753.907	1296.02
754.091	1314.45
754.275	1232.54
754.459	1330.84
754.643	1164.95
754.828	1242.78
755.012	1234.58
755.196	1134.23
755.38	1191.58
755.564	1195.67
755.748	1332.89
755.932	1226.39
756.116	1273.5
756.3	1263.26
756.484	1210.01
756.668	1121.95
756.852	1130.14
757.036	1185.43
757.22	1142.43
757.404	1128.09
757.588	1080.99
757.772	1117.85
757.956	1140.38
758.14	1107.61
758.323	1009.31
758.507	1183.38
758.691	1164.95
758.875	970.4
759.059	1113.75
759.242	1052.31
759.426	1132.19
759.61	1078.94
759.794	1050.27
759.977	1087.13
760.161	1083.03
760.345	1050.27
760.528	1087.13
760.712	1025.69
760.895	1060.51
761.079	984.73
761.263	954.01
761.446	958.11
761.63	1050.27
761.813	1050.27
761.997	888.48
762.18	972.44
762.364	980.64
762.547	904.86
762.731	943.77
762.914	984.73
763.098	1025.69
763.281	1009.31
763.464	1001.12
763.648	902.81
763.831	1035.93
764.015	810.65
764.198	943.77
764.381	829.09
764.564	945.82
764.748	941.72
764.931	898.72
765.114	906.91
765.297	919.2
765.481	931.48
765.664	865.95
765.847	931.48
766.03	923.29
766.213	919.2
766.397	829.09
766.58	902.81
766.763	933.53
766.946	900.76
767.129	835.23
767.312	810.65
767.495	874.14
767.678	806.56
767.861	853.66
768.044	816.8
768.227	861.85
768.41	837.28
768.593	763.55
768.776	886.43
768.959	798.37
769.142	784.03
769.324	755.36
769.507	888.48
769.69	773.79
769.873	859.81
770.056	870.05
770.239	781.98
770.421	872.09
770.604	831.13
770.787	800.41
770.97	781.98
771.152	784.03
771.335	786.08
771.518	847.52
771.7	853.66
771.883	775.84
772.066	755.36
772.248	804.51
772.431	767.65
772.613	904.86
772.796	714.4
772.978	781.98
773.161	865.95
773.343	736.93
773.526	673.44
773.708	745.12
773.891	769.69
774.073	775.84
774.256	689.82
774.438	814.75
774.621	728.74
774.803	724.64
774.985	761.5
775.168	726.69
775.35	716.45
775.532	665.25
775.715	708.26
775.897	679.58
776.079	691.87
776.261	749.22
776.444	607.91
776.626	683.68
776.808	655.01
776.99	601.76
777.173	689.82
777.355	560.8
777.537	681.63
777.719	638.62
777.901	642.72
778.083	657.06
778.265	620.19
778.447	599.71
778.629	644.77
778.811	642.72
778.993	648.86
779.175	661.15
779.357	616.1
779.539	554.66
779.721	624.29
779.903	609.95
780.085	614.05
780.267	630.43
780.449	581.28
780.631	568.99
780.812	587.43
780.994	542.37
781.176	536.23
781.358	542.37
781.54	566.95
781.721	587.43
781.903	517.79
782.085	575.14
782.267	501.41
782.448	470.69
782.63	495.27
782.812	538.27
782.993	485.03
783.175	581.28
783.357	530.08
783.538	525.99
783.72	476.84
783.901	493.22
784.083	530.08
784.264	405.16
784.446	452.26
784.627	437.92
784.809	472.74
784.99	425.64
785.172	442.02
785.353	452.26
785.535	525.99
785.716	444.07
785.897	396.96
786.079	437.92
786.26	405.16
786.441	513.7
786.623	356.01
786.804	366.25
786.985	341.67
787.167	405.16
787.348	374.44
787.529	446.12
787.71	462.5
787.891	417.44
788.073	378.53
788.254	296.61
788.435	413.35
788.616	378.53
788.797	362.15
788.978	356.01
789.159	370.34
789.34	384.68
789.522	380.58
789.703	386.72
789.884	411.3
790.065	407.2
790.246	401.06
790.427	370.34
790.607	409.25
790.788	380.58
790.969	315.05
791.15	376.48
791.331	345.77
791.512	364.2
791.693	331.43
791.874	284.33
792.054	386.72
792.235	310.95
792.416	356.01
792.597	317.09
792.778	362.15
792.958	327.33
793.139	308.9
793.32	374.44
793.5	345.77
793.681	253.61
793.862	288.42
794.042	278.18
794.223	298.66
794.404	308.9
794.584	263.85
794.765	360.1
794.945	315.05
795.126	298.66
795.306	407.2
795.487	321.19
795.667	296.61
795.848	239.27
796.028	272.04
796.209	323.24
796.389	288.42
796.57	241.32
796.75	263.85
796.93	290.47
797.111	296.61
797.291	263.85
797.471	226.98
797.652	294.57
797.832	259.75
798.012	280.23
798.192	276.13
798.373	181.93
798.553	245.41
798.733	204.46
798.913	296.61
799.093	196.26
799.274	276.13
799.454	257.7
799.634	263.85
799.814	206.5
799.994	286.37
800.174	263.85
800.354	206.5
800.534	177.83
800.714	190.12
800.894	241.32
801.074	206.5
801.254	265.89
801.434	206.5
801.614	313
801.794	231.08
801.974	755.36
802.154	216.74
802.334	169.64
802.514	200.36
802.693	255.65
802.873	200.36
803.053	202.41
803.233	206.5
803.413	235.18
803.592	167.59
803.772	200.36
803.952	169.64
804.131	198.31
804.311	239.27
804.491	253.61
804.67	251.56
804.85	149.16
805.03	237.22
805.209	255.65
805.389	212.65
805.568	263.85
805.748	186.02
805.928	175.78
806.107	106.15
806.287	241.32
806.466	239.27
806.646	112.3
806.825	194.22
807.004	140.97
807.184	181.93
807.363	229.03
807.543	143.02
807.722	132.78
807.901	247.46
808.081	157.35
808.26	75.43
808.439	167.59
808.619	165.54
808.798	73.39
808.977	214.7
809.156	177.83
809.336	206.5
809.515	239.27
809.694	181.93
809.873	177.83
810.052	196.26
810.231	167.59
810.411	118.44
810.59	214.7
810.769	157.35
810.948	100.01
811.127	89.77
811.306	134.82
811.485	112.3
811.664	247.46
811.843	134.82
812.022	151.21
812.201	124.58
812.38	104.11
812.559	136.87
812.737	188.07
812.916	104.11
813.095	147.11
813.274	243.37
813.453	198.31
813.632	151.21
813.811	165.54
813.989	71.34
814.168	181.93
814.347	124.58
814.526	202.41
814.704	126.63
814.883	194.22
815.062	153.26
815.24	202.41
815.419	54.95
815.598	122.54
815.776	167.59
815.955	124.58
816.133	93.87
816.312	175.78
816.49	226.98
816.669	198.31
816.847	226.98
817.026	186.02
817.204	155.3
817.383	132.78
817.561	81.58
817.74	110.25
817.918	140.97
818.097	143.02
818.275	114.34
818.453	132.78
818.632	192.17
818.81	122.54
818.988	73.39
819.167	124.58
819.345	147.11
819.523	91.82
819.701	85.67
819.879	63.15
820.058	118.44
820.236	128.68
820.414	165.54
820.592	102.06
820.77	124.58
820.948	24.23
821.127	75.43
821.305	75.43
821.483	95.91
821.661	159.4
821.839	59.05
822.017	67.24
822.195	97.96
822.373	220.84
822.551	165.54
822.729	108.2
822.907	46.76
823.085	167.59
823.262	138.92
823.44	159.4
823.618	59.05
823.796	110.25
823.974	44.71
824.152	69.29
824.329	32.43
824.507	63.15
824.685	122.54
824.863	73.39
825.04	65.19
825.218	87.72
825.396	130.73
825.574	151.21
825.751	71.34
825.929	48.81
826.107	85.67
826.284	91.82
826.462	136.87
826.639	44.71
826.817	85.67
826.994	116.39
827.172	95.91
827.349	42.67
827.527	85.67
827.704	61.1
827.882	13.99
828.059	65.19
828.237	77.48
828.414	75.43
828.591	-6.49
828.769	79.53
828.946	67.24
829.124	110.25
829.301	120.49
829.478	75.43
829.655	67.24
829.833	22.19
830.01	112.3
830.187	155.3
830.364	167.59
830.542	57
830.719	63.15
830.896	44.71
831.073	46.76
831.25	61.1
831.427	95.91
831.604	124.58
831.782	50.86
831.959	63.15
832.136	112.3
832.313	85.67
832.49	24.23
832.667	42.67
832.844	16.04
833.021	48.81
833.198	81.58
833.374	65.19
833.551	112.3
833.728	165.54
833.905	75.43
834.082	20.14
834.259	40.62
834.436	67.24
834.612	54.95
834.789	-6.49
834.966	130.73
835.143	5.8
835.319	108.2
835.496	91.82
835.673	63.15
835.85	36.52
836.026	50.86
836.203	151.21
836.38	65.19
836.556	110.25
836.733	42.67
836.909	69.29
837.086	69.29
837.262	79.53
837.439	71.34
837.616	20.14
837.792	36.52
837.968	54.95
838.145	40.62
838.321	97.96
838.498	46.76
838.674	100.01
838.851	46.76
839.027	-18.77
839.203	69.29
839.38	112.3
839.556	61.1
839.732	42.67
839.909	30.38
840.085	100.01
840.261	38.57
840.437	81.58
840.614	63.15
840.79	22.19
840.966	28.33
841.142	73.39
841.318	69.29
841.494	100.01
841.671	44.71
841.847	11.95
842.023	18.09
842.199	85.67
842.375	42.67
842.551	-37.2
842.727	26.28
842.903	38.57
843.079	1.71
843.255	75.43
843.431	67.24
843.607	26.28
843.783	-8.53
843.959	-6.49
844.134	-6.49
844.31	61.1
844.486	46.76
844.662	116.39
844.838	65.19
845.013	28.33
845.189	63.15
845.365	97.96
845.541	42.67
845.716	-2.39
845.892	-2.39
846.068	67.24
846.244	-110.93
846.419	100.01
846.595	52.91
846.77	79.53
846.946	-14.68
847.122	48.81
847.297	18.09
847.473	28.33
847.648	87.72
847.824	44.71
847.999	52.91
848.175	16.04
848.35	136.87
848.526	28.33
848.701	26.28
848.876	38.57
849.052	24.23
849.227	16.04
849.403	-29.01
849.578	-18.77
849.753	83.63
849.929	75.43
850.104	54.95
850.279	-10.58
850.454	28.33
850.63	34.47
850.805	9.9
850.98	34.47
851.155	34.47
851.33	18.09
851.505	3.75
851.681	87.72
851.856	-16.73
852.031	69.29
852.206	24.23
852.381	77.48
852.556	-16.73
852.731	-2.39
852.906	-24.92
853.081	24.23
853.256	30.38
853.431	57
853.606	13.99
853.781	-33.11
853.956	9.9
854.131	36.52
854.305	20.14
854.48	36.52
854.655	-18.77
854.83	42.67
855.005	54.95
855.18	69.29
855.354	-51.54
855.529	34.47
855.704	5.8
855.879	-8.53
856.053	44.71
856.228	85.67
856.403	16.04
856.577	38.57
856.752	-14.68
856.926	87.72
857.101	-0.34
857.276	54.95
857.45	26.28
857.625	28.33
857.799	89.77
857.974	63.15
858.148	1.71
858.323	30.38
858.497	28.33
858.672	18.09
858.846	40.62
859.02	65.19
859.195	50.86
859.369	-6.49
859.543	-39.25
859.718	-8.53
859.892	-4.44
860.066	46.76
860.241	-76.12
860.415	34.47
860.589	-33.11
860.763	26.28
860.938	30.38
861.112	50.86
861.286	-63.83
861.46	50.86
861.634	36.52
861.808	1.71
861.982	85.67
862.157	36.52
862.331	-2.39
862.505	-16.73
862.679	30.38
862.853	-53.59
863.027	26.28
863.201	3.75
863.375	-0.34
863.549	11.95
863.722	38.57
863.896	50.86
864.07	-8.53
864.244	-20.82
864.418	34.47
864.592	26.28
864.766	-14.68
864.939	3.75
865.113	-2.39
865.287	18.09
865.461	-2.39
865.634	-22.87
865.808	-100.69
865.982	71.34
866.156	1.71
866.329	-41.3
866.503	16.04
866.676	95.91
866.85	13.99
867.024	11.95
867.197	151.21
867.371	34.47
867.544	-0.34
867.718	-6.49
867.891	-0.34
868.065	-12.63
868.238	28.33
868.412	77.48
868.585	-24.92
868.759	34.47
868.932	-74.07
869.105	-29.01
869.279	-6.49
869.452	93.87
869.625	7.85
869.799	-20.82
869.972	-4.44
870.145	-2.39
870.319	5.8
870.492	36.52
870.665	-39.25
870.838	71.34
871.011	-63.83
871.185	-14.68
871.358	40.62
871.531	-4.44
871.704	22.19
871.877	-4.44
872.05	52.91
872.223	3.75
872.396	1.71
872.569	38.57
872.742	-10.58
872.915	73.39
873.088	77.48
873.261	50.86
873.434	-22.87
873.607	-12.63
873.78	-2.39
873.953	-18.77
874.126	-18.77
874.299	50.86
874.471	-2.39
874.644	57
874.817	-39.25
874.99	9.9
875.163	50.86
875.335	-4.44
875.508	1.71
875.681	22.19
875.853	-22.87
876.026	1.71
876.199	11.95
876.371	-51.54
876.544	-39.25
876.717	-39.25
876.889	-39.25
877.062	11.95
877.234	46.76
877.407	-37.2
877.579	18.09
877.752	-22.87
877.924	-2.39
878.097	-55.64
878.269	-4.44
878.442	36.52
878.614	20.14
878.786	42.67
878.959	-20.82
879.131	-14.68
879.303	-6.49
879.476	-16.73
879.648	28.33
879.82	5.8
879.993	-12.63
880.165	-18.77
880.337	-65.88
880.509	42.67
880.681	-20.82
880.854	7.85
881.026	18.09
881.198	116.39
881.37	24.23
881.542	34.47
881.714	-18.77
881.886	36.52
882.058	30.38
882.23	20.14
882.402	50.86
882.574	44.71
882.746	20.14
882.918	-2.39
883.09	7.85
883.262	18.09
883.434	18.09
883.606	5.8
883.778	-18.77
883.95	59.05
884.122	-82.26
884.293	61.1
884.465	65.19
884.637	57
884.809	-16.73
884.98	-37.2
885.152	40.62
885.324	-2.39
885.496	-67.92
885.667	-33.11
885.839	11.95
886.011	18.09
886.182	42.67
886.354	93.87
886.525	-4.44
886.697	-6.49
886.869	-39.25
887.04	44.71
887.212	-16.73
887.383	1.71
887.555	-74.07
887.726	48.81
887.897	26.28
888.069	61.1
888.24	1.71
888.412	9.9
888.583	26.28
888.754	11.95
888.926	9.9
889.097	46.76
889.268	-43.35
889.44	61.1
889.611	-16.73
889.782	-37.2
889.953	9.9
890.125	3.75
890.296	-12.63
890.467	-10.58
890.638	-20.82
890.809	20.14
890.98	-41.3
891.151	40.62
891.323	26.28
891.494	-127.32
891.665	-51.54
891.836	42.67
892.007	26.28
892.178	-4.44
892.349	28.33
892.52	36.52
892.691	9.9
892.862	-55.64
893.032	-22.87
893.203	-51.54
893.374	46.76
893.545	54.95
893.716	71.34
893.887	22.19
894.057	-80.21
894.228	-33.11
894.399	-53.59
894.57	18.09
894.74	-67.92
894.911	-18.77
895.082	11.95
895.253	91.82
895.423	44.71
895.594	34.47
895.764	22.19
895.935	-47.44
896.106	-26.96
896.276	-6.49
896.447	9.9
896.617	-14.68
896.788	7.85
896.958	11.95
897.129	13.99
897.299	-14.68
897.47	32.43
897.64	16.04
897.81	-6.49
897.981	3.75
898.151	-35.16
898.322	24.23
898.492	-51.54
898.662	1.71
898.832	-26.96
899.003	54.95
899.173	-26.96
899.343	-39.25
899.513	26.28
