Data from USB4F104151__68__13-12-04-935.txt Node

Date: Fri Mar 14 13:12:04 EDT 2025
User: louis
Spectrometer: USB4F10415
Trigger mode: 4
Integration Time (sec): 2.000000E-2
Scans to average: 1
Electric dark correction enabled: true
Nonlinearity correction enabled: false
Boxcar width: 0
XAxis mode: Wavelengths
Number of Pixels in Spectrum: 3648
>>>>>Begin Spectral Data<<<<<
178.204	-61.95
178.424	-61.95
178.644	-61.95
178.864	-64
179.084	-111.1
179.304	5.63
179.524	-29.18
179.744	46.59
179.964	-8.7
180.184	-43.52
180.404	-35.33
180.624	-10.75
180.844	30.21
181.064	-10.75
181.283	-6.66
181.503	3.58
181.723	58.88
181.943	13.82
182.163	56.83
182.383	32.26
182.602	5.63
182.822	-2.56
183.042	54.78
183.262	15.87
183.482	19.97
183.701	58.88
183.921	42.5
184.141	54.78
184.361	1.54
184.58	5.63
184.8	24.06
185.02	11.78
185.239	22.02
185.459	26.11
185.679	153.09
185.898	-16.9
186.118	15.87
186.338	-10.75
186.557	-8.7
186.777	54.78
186.997	26.11
187.216	-18.94
187.436	46.59
187.655	56.83
187.875	26.11
188.095	-20.99
188.314	91.65
188.534	-35.33
188.753	1.54
188.973	30.21
189.192	87.55
189.412	85.5
189.631	17.92
189.851	38.4
190.07	75.26
190.29	65.02
190.509	34.3
190.729	24.06
190.948	30.21
191.168	163.33
191.387	85.5
191.607	65.02
191.826	30.21
192.045	46.59
192.265	62.98
192.484	38.4
192.704	56.83
192.923	32.26
193.142	91.65
193.362	75.26
193.581	116.22
193.8	122.37
194.02	65.02
194.239	62.98
194.458	87.55
194.678	40.45
194.897	81.41
195.116	28.16
195.335	58.88
195.555	36.35
195.774	56.83
195.993	24.06
196.212	32.26
196.432	30.21
196.651	65.02
196.87	73.21
197.089	56.83
197.308	19.97
197.528	38.4
197.747	-0.51
197.966	58.88
198.185	73.21
198.404	34.3
198.623	22.02
198.842	99.84
199.062	26.11
199.281	32.26
199.5	15.87
199.719	73.21
199.938	62.98
200.157	79.36
200.376	83.45
200.595	79.36
200.814	69.12
201.033	71.17
201.252	91.65
201.471	58.88
201.69	67.07
201.909	13.82
202.128	71.17
202.347	56.83
202.566	38.4
202.785	128.51
203.004	13.82
203.223	22.02
203.442	-10.75
203.661	95.74
203.879	-12.8
204.098	56.83
204.317	44.54
204.536	81.41
204.755	13.82
204.974	67.07
205.193	50.69
205.411	71.17
205.63	110.08
205.849	95.74
206.068	19.97
206.287	56.83
206.505	36.35
206.724	69.12
206.943	24.06
207.162	52.74
207.381	40.45
207.599	79.36
207.818	67.07
208.037	-31.23
208.255	40.45
208.474	93.69
208.693	71.17
208.911	71.17
209.13	54.78
209.349	67.07
209.567	17.92
209.786	87.55
210.005	62.98
210.223	105.98
210.442	5.63
210.661	36.35
210.879	22.02
211.098	103.93
211.316	1.54
211.535	81.41
211.753	34.3
211.972	40.45
212.191	73.21
212.409	56.83
212.628	81.41
212.846	22.02
213.065	89.6
213.283	46.59
213.502	87.55
213.72	19.97
213.938	77.31
214.157	40.45
214.375	54.78
214.594	30.21
214.812	103.93
215.031	28.16
215.249	42.5
215.467	15.87
215.686	-18.94
215.904	-61.95
216.122	73.21
216.341	87.55
216.559	-29.18
216.778	103.93
216.996	58.88
217.214	95.74
217.432	-8.7
217.651	91.65
217.869	-10.75
218.087	11.78
218.306	75.26
218.524	52.74
218.742	17.92
218.96	77.31
219.179	26.11
219.397	30.21
219.615	81.41
219.833	28.16
220.051	15.87
220.27	73.21
220.488	65.02
220.706	69.12
220.924	-14.85
221.142	11.78
221.36	79.36
221.578	118.27
221.796	46.59
222.015	48.64
222.233	54.78
222.451	30.21
222.669	24.06
222.887	-27.14
223.105	24.06
223.323	13.82
223.541	-27.14
223.759	97.79
223.977	52.74
224.195	60.93
224.413	34.3
224.631	54.78
224.849	89.6
225.067	54.78
225.285	91.65
225.503	101.89
225.721	-12.8
225.939	103.93
226.157	15.87
226.375	52.74
226.592	5.63
226.81	69.12
227.028	95.74
227.246	28.16
227.464	79.36
227.682	15.87
227.9	36.35
228.117	38.4
228.335	46.59
228.553	56.83
228.771	28.16
228.989	46.59
229.206	7.68
229.424	71.17
229.642	91.65
229.86	42.5
230.077	36.35
230.295	116.22
230.513	118.27
230.731	85.5
230.948	58.88
231.166	17.92
231.384	89.6
231.601	22.02
231.819	132.61
232.037	38.4
232.254	3.58
232.472	11.78
232.689	9.73
232.907	28.16
233.125	-18.94
233.342	56.83
233.56	-12.8
233.777	54.78
233.995	26.11
234.213	95.74
234.43	112.13
234.648	91.65
234.865	22.02
235.083	77.31
235.3	-2.56
235.518	28.16
235.735	54.78
235.953	67.07
236.17	38.4
236.388	56.83
236.605	38.4
236.822	114.17
237.04	87.55
237.257	32.26
237.475	77.31
237.692	46.59
237.909	71.17
238.127	103.93
238.344	13.82
238.562	65.02
238.779	-18.94
238.996	54.78
239.214	5.63
239.431	46.59
239.648	-49.66
239.865	128.51
240.083	56.83
240.3	52.74
240.517	-2.56
240.735	26.11
240.952	42.5
241.169	3.58
241.386	81.41
241.603	54.78
241.821	52.74
242.038	87.55
242.255	83.45
242.472	19.97
242.689	32.26
242.907	65.02
243.124	1.54
243.341	87.55
243.558	79.36
243.775	44.54
243.992	24.06
244.209	75.26
244.426	122.37
244.643	11.78
244.86	67.07
245.078	13.82
245.295	71.17
245.512	-10.75
245.729	42.5
245.946	75.26
246.163	9.73
246.38	50.69
246.597	-8.7
246.814	28.16
247.031	17.92
247.248	65.02
247.464	46.59
247.681	87.55
247.898	30.21
248.115	56.83
248.332	34.3
248.549	62.98
248.766	54.78
248.983	87.55
249.2	56.83
249.417	140.8
249.633	62.98
249.85	134.65
250.067	24.06
250.284	54.78
250.501	118.27
250.717	101.89
250.934	5.63
251.151	13.82
251.368	22.02
251.585	81.41
251.801	-16.9
252.018	54.78
252.235	19.97
252.451	-68.09
252.668	44.54
252.885	-6.66
253.102	146.94
253.318	-76.29
253.535	60.93
253.752	48.64
253.968	67.07
254.185	-10.75
254.401	95.74
254.618	17.92
254.835	-10.75
255.051	124.41
255.268	73.21
255.484	77.31
255.701	71.17
255.917	83.45
256.134	81.41
256.351	91.65
256.567	24.06
256.784	24.06
257	36.35
257.217	124.41
257.433	-4.61
257.65	62.98
257.866	38.4
258.082	-51.71
258.299	46.59
258.515	79.36
258.732	89.6
258.948	50.69
259.165	110.08
259.381	-2.56
259.597	15.87
259.814	62.98
260.03	71.17
260.246	69.12
260.463	73.21
260.679	97.79
260.895	67.07
261.112	-4.61
261.328	15.87
261.544	1.54
261.761	83.45
261.977	42.5
262.193	17.92
262.409	-25.09
262.626	-12.8
262.842	13.82
263.058	40.45
263.274	48.64
263.49	42.5
263.707	187.9
263.923	60.93
264.139	38.4
264.355	52.74
264.571	114.17
264.787	-39.42
265.004	46.59
265.22	50.69
265.436	7.68
265.652	36.35
265.868	77.31
266.084	73.21
266.3	-2.56
266.516	50.69
266.732	87.55
266.948	62.98
267.164	42.5
267.38	22.02
267.596	52.74
267.812	71.17
268.028	34.3
268.244	24.06
268.46	67.07
268.676	62.98
268.892	19.97
269.108	56.83
269.324	3.58
269.54	28.16
269.756	30.21
269.972	36.35
270.188	52.74
270.403	87.55
270.619	-25.09
270.835	17.92
271.051	44.54
271.267	26.11
271.483	30.21
271.698	101.89
271.914	140.8
272.13	116.22
272.346	103.93
272.562	56.83
272.777	42.5
272.993	3.58
273.209	9.73
273.425	24.06
273.64	103.93
273.856	79.36
274.072	38.4
274.287	30.21
274.503	151.04
274.719	79.36
274.934	15.87
275.15	75.26
275.366	13.82
275.581	34.3
275.797	34.3
276.012	32.26
276.228	54.78
276.444	7.68
276.659	-4.61
276.875	83.45
277.09	83.45
277.306	58.88
277.521	120.32
277.737	30.21
277.952	54.78
278.168	58.88
278.383	120.32
278.599	34.3
278.814	36.35
279.03	58.88
279.245	148.99
279.461	95.74
279.676	7.68
279.892	5.63
280.107	1.54
280.322	62.98
280.538	69.12
280.753	28.16
280.969	19.97
281.184	58.88
281.399	60.93
281.615	52.74
281.83	87.55
282.045	-2.56
282.26	32.26
282.476	-18.94
282.691	38.4
282.906	26.11
283.122	91.65
283.337	75.26
283.552	52.74
283.767	58.88
283.983	26.11
284.198	-25.09
284.413	95.74
284.628	-4.61
284.843	48.64
285.058	-29.18
285.274	62.98
285.489	-49.66
285.704	95.74
285.919	77.31
286.134	103.93
286.349	40.45
286.564	65.02
286.779	93.69
286.995	54.78
287.21	50.69
287.425	62.98
287.64	89.6
287.855	112.13
288.07	3.58
288.285	52.74
288.5	73.21
288.715	83.45
288.93	-49.66
289.145	114.17
289.36	34.3
289.575	71.17
289.79	48.64
290.004	5.63
290.219	97.79
290.434	7.68
290.649	-14.85
290.864	24.06
291.079	22.02
291.294	50.69
291.509	44.54
291.724	30.21
291.938	48.64
292.153	69.12
292.368	62.98
292.583	97.79
292.798	30.21
293.012	17.92
293.227	38.4
293.442	38.4
293.657	54.78
293.871	144.89
294.086	52.74
294.301	30.21
294.516	75.26
294.73	30.21
294.945	42.5
295.16	28.16
295.374	65.02
295.589	-4.61
295.804	34.3
296.018	77.31
296.233	83.45
296.447	36.35
296.662	50.69
296.877	89.6
297.091	22.02
297.306	54.78
297.52	22.02
297.735	58.88
297.949	34.3
298.164	91.65
298.378	65.02
298.593	-2.56
298.807	-16.9
299.022	44.54
299.236	95.74
299.451	62.98
299.665	77.31
299.88	34.3
300.094	65.02
300.309	15.87
300.523	54.78
300.737	9.73
300.952	36.35
301.166	138.75
301.381	58.88
301.595	81.41
301.809	95.74
302.024	-10.75
302.238	13.82
302.452	73.21
302.667	79.36
302.881	28.16
303.095	38.4
303.309	65.02
303.524	34.3
303.738	46.59
303.952	42.5
304.166	65.02
304.381	-4.61
304.595	132.61
304.809	46.59
305.023	-8.7
305.237	56.83
305.452	120.32
305.666	-4.61
305.88	40.45
306.094	81.41
306.308	40.45
306.522	71.17
306.736	-25.09
306.95	38.4
307.164	36.35
307.379	42.5
307.593	171.52
307.807	93.69
308.021	118.27
308.235	-41.47
308.449	81.41
308.663	60.93
308.877	105.98
309.091	79.36
309.305	60.93
309.519	34.3
309.733	65.02
309.947	26.11
310.161	50.69
310.374	58.88
310.588	1.54
310.802	44.54
311.016	-10.75
311.23	40.45
311.444	30.21
311.658	54.78
311.872	89.6
312.085	136.7
312.299	71.17
312.513	65.02
312.727	-0.51
312.941	30.21
313.154	7.68
313.368	48.64
313.582	128.51
313.796	15.87
314.009	5.63
314.223	114.17
314.437	65.02
314.651	11.78
314.864	1.54
315.078	58.88
315.292	26.11
315.505	9.73
315.719	71.17
315.933	34.3
316.146	91.65
316.36	50.69
316.573	73.21
316.787	30.21
317.001	19.97
317.214	9.73
317.428	-23.04
317.641	122.37
317.855	81.41
318.068	97.79
318.282	50.69
318.495	85.5
318.709	95.74
318.922	28.16
319.136	144.89
319.349	138.75
319.563	15.87
319.776	32.26
319.99	26.11
320.203	22.02
320.417	42.5
320.63	19.97
320.843	81.41
321.057	46.59
321.27	77.31
321.483	13.82
321.697	87.55
321.91	67.07
322.124	24.06
322.337	83.45
322.55	71.17
322.763	79.36
322.977	99.84
323.19	114.17
323.403	40.45
323.617	40.45
323.83	91.65
324.043	42.5
324.256	89.6
324.469	71.17
324.683	71.17
324.896	48.64
325.109	60.93
325.322	52.74
325.535	120.32
325.748	30.21
325.962	38.4
326.175	54.78
326.388	60.93
326.601	103.93
326.814	138.75
327.027	-25.09
327.24	38.4
327.453	-14.85
327.666	128.51
327.879	40.45
328.092	79.36
328.305	60.93
328.518	-8.7
328.731	77.31
328.944	62.98
329.157	36.35
329.37	108.03
329.583	44.54
329.796	56.83
330.009	28.16
330.222	79.36
330.435	19.97
330.648	120.32
330.861	89.6
331.073	44.54
331.286	48.64
331.499	58.88
331.712	9.73
331.925	79.36
332.138	130.56
332.35	22.02
332.563	15.87
332.776	38.4
332.989	17.92
333.202	89.6
333.414	30.21
333.627	60.93
333.84	24.06
334.053	91.65
334.265	-0.51
334.478	19.97
334.691	30.21
334.903	-6.66
335.116	-20.99
335.329	99.84
335.541	91.65
335.754	34.3
335.966	108.03
336.179	79.36
336.392	71.17
336.604	67.07
336.817	36.35
337.029	56.83
337.242	30.21
337.454	99.84
337.667	81.41
337.88	118.27
338.092	79.36
338.305	112.13
338.517	9.73
338.729	13.82
338.942	73.21
339.154	73.21
339.367	73.21
339.579	65.02
339.792	44.54
340.004	62.98
340.217	-92.67
340.429	19.97
340.641	5.63
340.854	87.55
341.066	52.74
341.278	75.26
341.491	97.79
341.703	75.26
341.915	40.45
342.128	89.6
342.34	38.4
342.552	-8.7
342.764	77.31
342.977	40.45
343.189	24.06
343.401	165.37
343.613	75.26
343.826	97.79
344.038	151.04
344.25	108.03
344.462	-12.8
344.674	79.36
344.886	54.78
345.099	40.45
345.311	38.4
345.523	19.97
345.735	54.78
345.947	60.93
346.159	58.88
346.371	7.68
346.583	-31.23
346.795	124.41
347.007	34.3
347.219	38.4
347.431	30.21
347.643	19.97
347.855	-23.04
348.067	40.45
348.279	65.02
348.491	48.64
348.703	93.69
348.915	79.36
349.127	5.63
349.339	-2.56
349.551	44.54
349.763	32.26
349.975	26.11
350.187	95.74
350.399	65.02
350.61	65.02
350.822	36.35
351.034	99.84
351.246	75.26
351.458	79.36
351.669	19.97
351.881	130.56
352.093	28.16
352.305	114.17
352.517	87.55
352.728	148.99
352.94	65.02
353.152	87.55
353.363	28.16
353.575	83.45
353.787	62.98
353.999	11.78
354.21	58.88
354.422	148.99
354.633	56.83
354.845	81.41
355.057	58.88
355.268	38.4
355.48	99.84
355.692	-2.56
355.903	36.35
356.115	81.41
356.326	11.78
356.538	148.99
356.749	56.83
356.961	38.4
357.172	110.08
357.384	97.79
357.595	77.31
357.807	93.69
358.018	42.5
358.23	58.88
358.441	81.41
358.653	97.79
358.864	58.88
359.075	58.88
359.287	99.84
359.498	95.74
359.709	48.64
359.921	54.78
360.132	58.88
360.344	40.45
360.555	58.88
360.766	71.17
360.977	26.11
361.189	75.26
361.4	50.69
361.611	32.26
361.823	87.55
362.034	79.36
362.245	-16.9
362.456	67.07
362.667	58.88
362.879	48.64
363.09	32.26
363.301	42.5
363.512	83.45
363.723	19.97
363.935	11.78
364.146	5.63
364.357	46.59
364.568	65.02
364.779	60.93
364.99	24.06
365.201	110.08
365.412	124.41
365.623	3.58
365.834	101.89
366.045	15.87
366.256	54.78
366.467	38.4
366.678	157.18
366.889	46.59
367.1	103.93
367.311	73.21
367.522	99.84
367.733	40.45
367.944	83.45
368.155	30.21
368.366	95.74
368.577	91.65
368.788	50.69
368.999	40.45
369.209	79.36
369.42	130.56
369.631	85.5
369.842	73.21
370.053	105.98
370.264	89.6
370.474	-37.38
370.685	122.37
370.896	89.6
371.107	71.17
371.317	73.21
371.528	69.12
371.739	38.4
371.95	42.5
372.16	15.87
372.371	62.98
372.582	124.41
372.792	83.45
373.003	124.41
373.214	71.17
373.424	71.17
373.635	-4.61
373.846	126.46
374.056	67.07
374.267	48.64
374.477	114.17
374.688	103.93
374.898	97.79
375.109	58.88
375.319	44.54
375.53	81.41
375.74	101.89
375.951	79.36
376.161	60.93
376.372	99.84
376.582	42.5
376.793	19.97
377.003	44.54
377.214	24.06
377.424	54.78
377.635	87.55
377.845	17.92
378.055	95.74
378.266	67.07
378.476	62.98
378.686	83.45
378.897	58.88
379.107	58.88
379.317	116.22
379.528	110.08
379.738	110.08
379.948	62.98
380.158	54.78
380.369	89.6
380.579	93.69
380.789	15.87
380.999	58.88
381.21	58.88
381.42	77.31
381.63	60.93
381.84	83.45
382.05	93.69
382.261	30.21
382.471	69.12
382.681	26.11
382.891	99.84
383.101	110.08
383.311	48.64
383.521	22.02
383.731	87.55
383.941	97.79
384.151	75.26
384.361	95.74
384.571	114.17
384.781	138.75
384.991	138.75
385.201	48.64
385.411	124.41
385.621	108.03
385.831	71.17
386.041	46.59
386.251	62.98
386.461	128.51
386.671	136.7
386.881	159.23
387.091	105.98
387.301	87.55
387.511	28.16
387.72	42.5
387.93	128.51
388.14	81.41
388.35	153.09
388.56	99.84
388.769	95.74
388.979	36.35
389.189	30.21
389.399	56.83
389.609	34.3
389.818	81.41
390.028	50.69
390.238	97.79
390.447	24.06
390.657	177.66
390.867	67.07
391.076	7.68
391.286	54.78
391.496	103.93
391.705	126.46
391.915	42.5
392.125	95.74
392.334	101.89
392.544	89.6
392.753	116.22
392.963	22.02
393.172	118.27
393.382	118.27
393.591	122.37
393.801	99.84
394.01	91.65
394.22	81.41
394.429	101.89
394.639	116.22
394.848	108.03
395.058	58.88
395.267	65.02
395.477	118.27
395.686	144.89
395.895	95.74
396.105	83.45
396.314	116.22
396.524	128.51
396.733	87.55
396.942	122.37
397.152	126.46
397.361	126.46
397.57	50.69
397.78	101.89
397.989	108.03
398.198	112.13
398.407	67.07
398.617	175.61
398.826	85.5
399.035	95.74
399.244	118.27
399.453	71.17
399.663	173.57
399.872	91.65
400.081	73.21
400.29	112.13
400.499	103.93
400.708	239.1
400.917	95.74
401.127	136.7
401.336	105.98
401.545	157.18
401.754	101.89
401.963	73.21
402.172	136.7
402.381	93.69
402.59	34.3
402.799	81.41
403.008	97.79
403.217	173.57
403.426	189.95
403.635	38.4
403.844	177.66
404.053	118.27
404.262	208.38
404.471	173.57
404.68	185.85
404.888	177.66
405.097	95.74
405.306	67.07
405.515	112.13
405.724	144.89
405.933	196.09
406.142	198.14
406.35	189.95
406.559	163.33
406.768	165.37
406.977	259.58
407.185	175.61
407.394	216.57
407.603	171.52
407.812	214.52
408.02	255.48
408.229	214.52
408.438	198.14
408.646	185.85
408.855	220.67
409.064	237.05
409.272	177.66
409.481	228.86
409.69	286.2
409.898	181.76
410.107	316.92
410.315	290.3
410.524	318.97
410.733	218.62
410.941	318.97
411.15	413.18
411.358	335.35
411.567	345.59
411.775	318.97
411.984	378.36
412.192	345.59
412.401	415.23
412.609	437.75
412.818	486.9
413.026	468.47
413.234	394.75
413.443	488.95
413.651	431.61
413.86	480.76
414.068	595.45
414.276	562.68
414.485	550.39
414.693	632.31
414.901	628.21
415.11	597.49
415.318	669.17
415.526	751.09
415.734	574.97
415.943	622.07
416.151	744.95
416.359	665.08
416.567	722.42
416.776	710.13
416.984	820.72
417.192	855.54
417.4	865.78
417.608	861.68
417.817	818.68
418.025	1000.94
418.233	1066.48
418.441	953.84
418.649	1007.09
418.857	1146.35
419.065	1086.96
419.273	1052.14
419.481	1222.13
419.689	1172.97
419.897	1310.19
420.105	1254.89
420.313	1334.76
420.521	1322.48
420.729	1377.77
420.937	1474.03
421.145	1539.56
421.353	1564.14
421.561	1689.06
421.769	1687.01
421.977	1834.47
422.185	1775.08
422.393	1818.08
422.601	1934.82
422.809	1848.8
423.017	2037.22
423.224	2024.93
423.432	2106.85
423.64	2072.03
423.848	2235.87
424.056	2276.83
424.263	2424.28
424.471	2577.88
424.679	2502.11
424.887	2547.16
425.094	2725.33
425.302	2645.46
425.51	2784.73
425.718	2883.03
425.925	2891.22
426.133	3063.25
426.341	3112.4
426.548	3306.96
426.756	3415.5
426.964	3343.82
427.171	3528.14
427.379	3708.36
427.586	3571.15
427.794	3800.52
428.001	4044.23
428.209	4148.67
428.417	4150.72
428.624	4451.77
428.832	4419
429.039	4474.3
429.247	4437.44
429.454	4707.77
429.662	5055.92
429.869	4748.73
430.076	5125.55
430.284	5068.21
430.491	5238.19
430.699	5592.49
430.906	5453.23
431.114	5703.08
431.321	5977.51
431.528	5860.77
431.736	6018.47
431.943	6372.77
432.15	6276.51
432.358	6493.6
432.565	6741.4
432.772	6743.45
432.979	7003.54
433.187	7275.92
433.394	7134.61
433.601	7615.88
433.808	7828.87
434.016	7611.79
434.223	7964.04
434.43	8684.92
434.637	8312.19
434.844	8682.88
435.052	9151.86
435.259	9061.75
435.466	8930.68
435.673	8961.4
435.88	9608.56
436.087	10020.2
436.294	10042.73
436.501	9938.28
436.708	9973.1
436.915	10302.82
437.122	10900.83
437.329	10722.65
437.537	11218.26
437.743	11375.95
437.95	11361.62
438.157	11892.04
438.364	12430.66
438.571	12223.81
438.778	12229.96
438.985	13282.61
439.192	13149.5
439.399	13276.47
439.606	13059.38
439.813	13743.41
440.02	14697.76
440.227	14425.38
440.433	14183.72
440.64	14718.24
440.847	14751.01
441.054	14898.46
441.261	15820.05
441.467	15582.48
441.674	15957.26
441.881	16792.83
442.088	16647.43
442.294	16334.09
442.501	16905.47
442.708	17173.75
442.914	17902.83
443.121	18719.97
443.328	18197.74
443.534	19547.35
443.741	18685.15
443.948	18842.85
444.154	19899.6
444.361	19860.69
444.568	19961.04
444.774	20391.11
444.981	20280.52
445.187	20987.07
445.394	21642.42
445.6	21423.29
445.807	23778.45
446.013	22590.63
446.22	22779.04
446.426	23983.25
446.633	24069.26
446.839	24859.78
447.046	23747.73
447.252	25267.33
447.459	25162.88
447.665	25265.28
447.871	26244.21
448.078	27419.74
448.284	26422.38
448.491	26913.89
448.697	27944.02
448.903	28263.5
449.11	28353.62
449.316	27925.59
449.522	28742.73
449.728	29365.31
449.935	29881.4
450.141	29621.31
450.347	30110.77
450.553	29269.06
450.76	29912.12
450.966	30745.64
451.172	30456.88
451.378	31058.98
451.584	30661.68
451.791	31210.53
451.997	31089.7
452.203	31978.52
452.409	31923.22
452.615	31872.03
452.821	30483.5
453.027	30348.34
453.233	31808.54
453.44	30510.13
453.646	31108.13
453.852	31048.74
454.058	31849.5
454.264	30501.93
454.47	31454.24
454.676	30755.88
454.882	31482.91
455.088	29109.32
455.294	29484.09
455.5	29725.75
455.705	30176.31
455.911	28877.9
456.117	28552.27
456.323	28523.6
456.529	26399.85
456.735	27868.25
456.941	27444.32
457.147	26705
457.352	25834.61
457.558	25660.54
457.764	25769.08
457.97	25259.13
458.176	24743.05
458.381	24689.8
458.587	23370.91
458.793	23256.22
458.999	22111.41
459.204	23798.93
459.41	23110.82
459.616	21402.81
459.821	21855.41
460.027	21714.1
460.233	20915.39
460.438	20118.73
460.644	20296.91
460.85	19793.11
461.055	19160.28
461.261	19037.41
461.466	17464.57
461.672	16971.01
461.878	18361.58
462.083	16895.23
462.289	16645.38
462.494	16522.5
462.7	15908.11
462.905	15340.82
463.111	16117
463.316	16067.85
463.522	15836.43
463.727	15848.72
463.932	15652.11
464.138	15586.58
464.343	15541.52
464.549	15234.33
464.754	15668.5
464.959	15398.17
465.165	15242.52
465.37	14808.35
465.575	14431.52
465.781	14796.06
465.986	14755.1
466.191	14462.24
466.397	14169.38
466.602	13587.76
466.807	13954.35
467.012	13751.6
467.218	14118.18
467.423	13587.76
467.628	13894.96
467.833	14349.61
468.038	13919.53
468.244	13432.12
468.449	14146.86
468.654	13651.25
468.859	13366.58
469.064	13636.91
469.269	12815.68
469.474	13112.63
469.679	13167.93
469.885	13028.67
470.09	13051.19
470.295	12737.85
470.5	12467.52
470.705	12832.06
470.91	12358.98
471.115	12207.43
471.32	12645.7
471.525	12516.67
471.73	12195.14
471.935	12117.32
472.139	11605.33
472.344	11892.04
472.549	11740.49
472.754	11578.7
472.959	11545.94
473.164	11093.33
473.369	10941.79
473.574	11396.43
473.778	11406.67
473.983	11205.97
474.188	11119.96
474.393	10704.22
474.598	10673.5
474.802	10528.1
475.007	10251.62
475.212	10575.2
475.417	10194.28
475.621	10149.22
475.826	10190.18
476.031	10081.64
476.235	9860.46
476.44	9909.61
476.645	9555.31
476.849	9803.11
477.054	9735.53
477.259	9626.99
477.463	9547.12
477.668	9196.92
477.872	9379.18
478.077	9098.61
478.282	8918.39
478.486	8856.95
478.691	8899.96
478.895	8879.48
479.1	8815.99
479.304	8791.42
479.509	8381.82
479.713	8756.6
479.918	8412.54
480.122	8177.03
480.326	8572.29
480.531	8609.15
480.735	8560
480.94	8324.48
481.144	8490.37
481.348	8172.93
481.553	8412.54
481.757	7980.42
481.961	8451.46
482.166	8287.62
482.37	8107.4
482.574	7910.79
482.778	8168.84
482.983	8250.75
483.187	8033.67
483.391	8232.32
483.595	8082.82
483.8	7953.8
484.004	8093.06
484.208	8144.26
484.412	8107.4
484.616	8181.12
484.821	8119.68
485.025	7992.71
485.229	8207.75
485.433	8134.02
485.637	8213.89
485.841	8074.63
486.045	8039.81
486.249	7976.33
486.453	8021.38
486.657	8279.43
486.861	8215.94
487.065	7933.32
487.269	8185.22
487.473	7994.76
487.677	8031.62
487.881	8181.12
488.085	7982.47
488.289	8168.84
488.493	7976.33
488.697	8025.48
488.901	8041.86
489.105	8105.35
489.309	8211.84
489.512	8213.89
489.716	8246.66
489.92	8320.39
490.124	8058.25
490.328	8361.34
490.531	8187.27
490.735	8306.05
490.939	8265.09
491.143	8353.15
491.346	8340.86
491.55	8371.58
491.754	8572.29
491.958	8502.65
492.161	8306.05
492.365	8545.66
492.569	8537.47
492.772	8441.22
492.976	8611.2
493.18	8590.72
493.383	8549.76
493.587	8869.24
493.79	8844.67
493.994	8887.67
494.197	9069.94
494.401	9008.5
494.605	8912.25
494.808	9041.27
495.012	8979.83
495.215	9313.65
495.419	9201.01
495.622	9278.83
495.825	9241.97
496.029	9356.66
496.232	9497.97
496.436	9610.61
496.639	9778.54
496.843	9497.97
497.046	9813.35
497.249	9885.03
497.453	9934.18
497.656	10012.01
497.859	9891.18
498.063	10114.41
498.266	10478.94
498.469	10403.17
498.673	10521.95
498.876	10732.89
499.079	10794.33
499.282	10614.11
499.485	10999.13
499.689	11093.33
499.892	11148.63
500.095	11220.31
500.298	11478.35
500.501	11343.19
500.705	11537.74
500.908	11795.79
501.111	12068.17
501.314	12176.71
501.517	12260.68
501.72	12328.26
501.923	12195.14
502.126	12537.15
502.329	12991.8
502.532	12621.12
502.735	12883.26
502.938	13014.33
503.141	13217.08
503.344	13554.99
503.547	13411.64
503.75	13604.14
503.953	13770.03
504.156	14036.27
504.359	14062.89
504.562	14241.06
504.765	14400.8
504.968	14548.26
505.17	14611.75
505.373	14621.98
505.576	15111.45
505.779	14996.76
505.982	15207.7
506.185	15648.02
506.387	15504.66
506.59	15674.64
506.793	15768.85
506.996	15703.31
507.198	16579.84
507.401	16207.11
507.604	16389.38
507.807	16786.69
508.009	16690.43
508.212	17157.37
508.415	17183.99
508.617	17530.1
508.82	17628.4
509.022	17403.13
509.225	17966.32
509.428	18060.52
509.63	18033.9
509.833	18126.06
510.035	18539.75
510.238	18552.04
510.44	18470.12
510.643	18879.71
510.845	19274.97
511.048	18959.58
511.25	19375.32
511.453	19621.08
511.655	20063.44
511.858	19813.59
512.06	19907.79
512.262	20245.71
512.465	20266.19
512.667	20694.21
512.87	21077.18
513.072	20790.47
513.274	21404.86
513.477	21591.22
513.679	21890.23
513.881	21836.98
514.084	22160.56
514.286	22049.97
514.488	22234.28
514.69	23200.93
514.893	22676.65
515.095	22815.91
515.297	23155.87
515.499	23551.13
515.701	23571.61
515.904	23717.01
516.106	23960.72
516.308	23993.49
516.51	24343.69
516.712	24175.76
516.914	24845.44
517.116	25435.26
517.318	25293.95
517.52	25238.65
517.722	25457.79
517.925	25771.13
518.127	26070.13
518.329	26242.16
518.531	26076.27
518.733	26698.86
518.935	26438.76
519.136	26762.34
519.338	27292.77
519.54	27331.68
519.742	27554.91
519.944	27546.72
520.146	27769.94
520.348	28181.59
520.55	28367.95
520.752	28595.28
520.954	29072.45
521.155	29035.59
521.357	29080.64
521.559	29428.8
521.761	29828.15
521.963	29604.92
522.164	29942.84
522.366	30096.44
522.568	30094.39
522.77	30473.26
522.971	30614.57
523.173	30559.28
523.375	30698.54
523.576	30678.06
523.778	30972.97
523.98	31439.9
524.181	31341.6
524.383	31233.06
524.584	31927.32
524.786	32080.92
524.988	32263.19
525.189	31890.46
525.391	32437.27
525.592	32723.98
525.794	32701.45
525.995	33199.11
526.197	32805.9
526.398	33063.94
526.6	33162.25
526.801	33270.79
527.003	33393.67
527.204	33184.77
527.406	33668.09
527.607	33846.27
527.808	33897.47
528.01	33510.4
528.211	33543.17
528.412	34124.79
528.614	34474.99
528.815	34139.13
529.016	34436.08
529.218	33907.71
529.419	34130.94
529.62	34472.95
529.822	34364.4
530.023	34522.1
530.224	34720.75
530.425	34458.61
530.626	34763.76
530.828	34055.16
531.029	35259.37
531.23	34255.86
531.431	34667.5
531.632	34868.2
531.833	35259.37
532.035	35042.28
532.236	35056.62
532.437	35433.44
532.638	35251.17
532.839	35234.79
533.04	35357.67
533.241	34935.79
533.442	35406.82
533.643	35185.64
533.844	35126.25
534.045	35064.81
534.246	34700.27
534.447	35267.56
534.648	35277.8
534.849	35189.74
535.05	35202.02
535.251	35400.68
535.451	35134.44
535.652	35177.45
535.853	35529.7
536.054	35222.5
536.255	35345.38
536.456	35058.67
536.657	35562.47
536.857	35171.3
537.058	35306.47
537.259	35597.28
537.46	35351.52
537.66	35130.34
537.861	35206.12
538.062	35142.63
538.263	35548.13
538.463	35384.29
538.664	35263.46
538.865	35576.8
539.065	35574.75
539.266	35023.85
539.466	35714.02
539.667	34487.28
539.868	35541.99
540.068	35331.04
540.269	35417.06
540.469	35355.62
540.67	34546.67
540.87	35478.5
541.071	35337.19
541.271	35195.88
541.472	35343.33
541.672	34839.53
541.873	35199.97
542.073	34894.83
542.274	35302.37
542.474	35267.56
542.675	35017.71
542.875	35535.84
543.075	35167.21
543.276	34444.27
543.476	35167.21
543.676	34870.25
543.877	35249.13
544.077	35220.45
544.277	34882.54
544.478	34909.16
544.678	34907.12
544.878	34917.36
545.078	35167.21
545.279	34761.71
545.479	35023.85
545.679	34792.43
545.879	35036.14
546.079	34919.4
546.28	34905.07
546.48	34640.88
546.68	35054.57
546.88	35150.82
547.08	35179.5
547.28	34833.39
547.48	34520.05
547.68	34970.6
547.88	34556.91
548.081	34929.64
548.281	34780.14
548.481	34814.96
548.681	35003.37
548.881	35050.47
549.081	34401.27
549.28	34548.72
549.48	34728.94
549.68	34890.73
549.88	35310.57
550.08	34118.65
550.28	34913.26
550.48	34509.81
550.68	35089.38
550.88	34628.59
551.08	34733.04
551.279	34636.78
551.479	34677.74
551.679	34710.51
551.879	34444.27
552.079	35146.73
552.278	34618.35
552.478	34520.05
552.678	34399.22
552.878	34878.44
553.077	34309.11
553.277	33960.95
553.477	34728.94
553.676	34364.4
553.876	34300.92
554.076	34348.02
554.275	34364.4
554.475	34022.39
554.674	34227.19
554.874	34210.81
555.074	34083.83
555.273	34149.37
555.473	34538.48
555.672	33850.36
555.872	34051.06
556.071	33893.37
556.271	34216.95
556.47	34206.71
556.67	33793.02
556.869	33780.73
557.068	33678.33
557.268	33547.26
557.467	34006.01
557.667	33690.62
557.866	33872.89
558.065	33700.86
558.265	33596.42
558.464	33551.36
558.663	34061.3
558.863	33039.37
559.062	34165.75
559.261	33467.39
559.461	33885.18
559.66	33166.34
559.859	33270.79
560.058	33528.83
560.258	33330.18
560.457	33074.18
560.656	33557.5
560.855	33358.85
561.054	33442.82
561.253	32723.98
561.453	33301.51
561.652	33285.12
561.851	33250.31
562.05	32795.66
562.249	32707.6
562.448	33278.98
562.647	32865.29
562.846	32648.21
563.045	32746.51
563.244	32314.39
563.443	32742.41
563.642	32461.84
563.841	32564.24
564.04	32631.82
564.239	32756.75
564.438	32302.1
564.637	32476.18
564.836	32623.63
565.035	31855.64
565.234	32173.08
565.432	32113.69
565.631	32119.83
565.83	32158.74
566.029	32087.06
566.228	31802.39
566.427	31888.41
566.625	31671.32
566.824	31243.3
567.023	31994.9
567.222	31405.09
567.42	31792.15
567.619	31407.14
567.818	31329.31
568.016	31169.57
568.215	31417.38
568.414	31220.77
568.612	31063.08
568.811	30704.68
569.01	31247.4
569.208	30882.86
569.407	31024.17
569.605	30686.25
569.804	30979.11
570.002	30751.79
570.201	30577.71
570.4	30329.91
570.598	30497.84
570.797	30155.83
570.995	30567.47
571.193	29961.27
571.392	30465.07
571.59	30143.54
571.789	30069.81
571.987	30245.94
572.186	30286.9
572.384	29819.96
572.582	29877.3
572.781	29918.26
572.979	29350.98
573.177	29758.52
573.376	29918.26
573.574	29451.33
573.772	29830.2
573.971	29137.99
574.169	29191.23
574.367	29133.89
574.565	29195.33
574.763	29224
574.962	29080.64
575.16	28933.19
575.358	28863.56
575.556	28800.07
575.754	29101.12
575.952	28564.56
576.151	28474.45
576.349	28488.78
576.547	28793.93
576.745	28535.88
576.943	28578.89
577.141	28521.55
577.339	28527.69
577.537	28347.47
577.735	28335.18
577.933	27948.12
578.131	28183.63
578.329	28122.19
578.527	27810.9
578.725	27731.03
578.923	27987.03
579.121	27591.77
579.319	27653.21
579.516	27731.03
579.714	27528.28
579.912	27540.57
580.11	27337.82
580.308	27479.13
580.506	27444.32
580.704	27057.25
580.901	27350.11
581.099	27466.84
581.297	27133.03
581.495	26969.19
581.692	27020.39
581.89	26909.8
582.088	26961
582.285	26764.39
582.483	26666.09
582.681	26469.48
582.878	26498.16
583.076	26258.54
583.274	26451.05
583.471	26205.3
583.669	26406
583.866	26137.71
584.064	26164.34
584.262	25824.37
584.459	26076.27
584.657	26072.18
584.854	26166.38
585.052	25529.47
585.249	26053.75
585.447	25820.28
585.644	25336.96
585.841	25681.02
586.039	25771.13
586.236	25271.42
586.434	25363.58
586.631	25248.89
586.828	25336.96
587.026	25283.71
587.223	25162.88
587.42	25019.52
587.618	25255.04
587.815	24679.56
588.012	24962.18
588.21	24853.64
588.407	24640.65
588.604	24259.73
588.801	24566.92
588.999	24593.54
589.196	24632.46
589.393	24642.7
589.59	24439.95
589.787	24237.2
589.984	24245.39
590.182	23843.99
590.379	24056.98
590.576	23995.54
590.773	24042.64
590.97	23741.59
591.167	23788.69
591.364	23669.91
591.561	23635.1
591.758	23657.62
591.955	23520.41
592.152	23778.45
592.349	23100.58
592.546	23606.42
592.743	23266.46
592.94	23272.6
593.137	23397.53
593.334	23352.48
593.531	22834.34
593.727	23110.82
593.924	22693.03
594.121	22613.16
594.318	22965.41
594.515	22394.03
594.712	22930.59
594.908	22645.93
595.105	22334.64
595.302	22502.57
595.499	22449.32
595.696	22054.06
595.892	22023.34
596.089	22465.71
596.286	22095.02
596.482	22148.27
596.679	22101.17
596.876	22129.84
597.072	21775.54
597.269	21851.31
597.466	21648.57
597.662	21738.68
597.859	21730.48
598.055	21658.81
598.252	21523.64
598.448	21329.08
598.645	21103.81
598.841	21195.96
599.038	21294.27
599.234	21339.32
599.431	20964.54
599.627	20962.5
599.824	21316.79
600.02	20964.54
600.217	20927.68
600.413	20913.34
600.609	20659.4
600.806	20415.69
601.002	20735.17
601.198	20681.92
601.395	20522.18
601.591	20452.55
601.787	20499.66
601.984	20395.21
602.18	20350.15
602.376	20294.86
602.572	19924.18
602.769	20100.3
602.965	20047.05
603.161	20032.72
603.357	19897.55
603.553	19872.98
603.75	20114.64
603.946	19414.23
604.142	19784.91
604.338	19424.47
604.534	19739.86
604.73	19641.56
604.926	19307.74
605.122	19553.49
605.318	19322.07
605.514	19256.54
605.71	19090.65
605.906	19197.15
606.102	19272.92
606.298	19025.12
606.494	19035.36
606.69	19156.19
606.886	19135.71
607.082	18785.51
607.278	19049.69
607.474	18285.8
607.67	18812.13
607.866	18408.68
608.062	18674.92
608.257	18586.85
608.453	18660.58
608.649	18650.34
608.845	18646.24
609.041	18474.21
609.236	18279.66
609.432	18652.39
609.628	18285.8
609.824	18242.79
610.019	18347.24
610.215	18259.18
610.411	18455.78
610.606	18003.18
610.802	18261.23
610.998	18087.15
611.193	18205.93
611.389	18240.75
611.584	17868.02
611.78	17868.02
611.976	17968.37
612.171	17931.5
612.367	18207.98
612.562	17743.09
612.758	17589.49
612.953	17603.83
613.149	17806.58
613.344	17265.91
613.539	18081
613.735	17634.55
613.93	17575.16
614.126	17501.43
614.321	17669.36
614.517	17663.22
614.712	17442.04
614.907	17388.79
615.103	17589.49
615.298	17214.71
615.493	17413.37
615.688	17071.36
615.884	17480.95
616.079	17145.08
616.274	17491.19
616.47	17145.08
616.665	16964.86
616.86	17001.72
617.055	17251.58
617.25	17016.06
617.445	17155.32
617.641	16614.66
617.836	17022.2
618.031	16813.31
618.226	17007.87
618.421	16497.92
618.616	16956.67
618.811	16653.57
619.006	16878.85
619.201	16493.83
619.396	16659.71
619.591	16522.5
619.786	16276.74
619.981	16002.32
620.176	16295.18
620.371	15977.74
620.566	15891.73
620.761	16076.04
620.956	16018.7
621.151	15641.87
621.346	16108.81
621.541	15525.14
621.735	15670.54
621.93	15516.95
622.125	15693.07
622.32	15426.84
622.515	15342.87
622.709	15148.31
622.904	15316.25
623.099	15041.82
623.294	15258.9
623.488	15009.05
623.683	15056.15
623.878	14972.19
624.072	15039.77
624.267	14865.69
624.462	14619.94
624.656	14662.94
624.851	14654.75
625.046	14513.44
625.24	14259.49
625.435	14212.39
625.629	14071.08
625.824	14279.97
626.018	13987.11
626.213	13907.24
626.407	13909.29
626.602	13655.34
626.796	13880.62
626.991	13757.74
627.185	13761.84
627.38	13342
627.574	13581.62
627.768	13378.87
627.963	13282.61
628.157	13196.6
628.352	13206.84
628.546	12805.44
628.74	12881.21
628.935	12721.47
629.129	12748.09
629.323	12637.5
629.517	12653.89
629.712	12684.61
629.906	12838.2
630.1	12352.84
630.294	12381.51
630.489	12258.63
630.683	12481.86
630.877	12385.6
631.071	12043.59
631.265	12221.77
631.459	12041.54
631.653	11842.89
631.848	12070.22
632.042	11889.99
632.236	11924.81
632.43	11873.61
632.624	11652.43
632.818	11629.9
633.012	11357.52
633.206	11636.05
633.4	11640.14
633.594	11285.84
633.788	11259.22
633.982	11554.13
634.176	11306.32
634.369	11308.37
634.563	11171.16
634.757	11208.02
634.951	11068.76
635.145	11060.57
635.339	11046.23
635.533	10882.39
635.726	10872.15
635.92	10716.51
636.114	10794.33
636.308	10696.03
636.501	10425.7
636.695	10585.44
636.889	10540.38
637.083	10362.21
637.276	10145.13
637.47	10188.13
637.664	10313.06
637.857	10253.67
638.051	10132.84
638.244	10091.88
638.438	10089.83
638.632	9805.16
638.825	10007.91
639.019	9942.38
639.212	9815.4
639.406	10079.59
639.599	9932.14
639.793	9856.36
639.986	9647.47
640.18	9788.78
640.373	9631.09
640.567	9469.3
640.76	9381.23
640.954	9428.34
641.147	9268.59
641.34	9229.68
641.534	9215.35
641.727	9207.16
641.92	9207.16
642.114	9352.56
642.307	9166.2
642.5	8918.39
642.694	8879.48
642.887	8906.1
643.08	9043.32
643.273	8805.75
643.467	8914.3
643.66	8795.51
643.853	8797.56
644.046	8639.87
644.239	8623.48
644.432	8666.49
644.626	8502.65
644.819	8441.22
645.012	8516.99
645.205	8404.35
645.398	8410.5
645.591	8228.23
645.784	8336.77
645.977	8283.52
646.17	8082.82
646.363	8017.29
646.556	8103.3
646.749	8125.83
646.942	8027.53
647.135	7996.81
647.328	7994.76
647.521	7775.63
647.714	7910.79
647.907	7992.71
648.099	7765.39
648.292	7828.87
648.485	7710.09
648.678	7562.64
648.871	7425.42
649.064	7533.97
649.256	7484.81
649.449	7613.84
649.642	7413.13
649.835	7310.74
650.027	7378.32
650.22	7308.69
650.413	7284.11
650.605	7341.46
650.798	7316.88
650.991	7294.35
651.183	7265.68
651.376	7064.98
651.568	7189.91
651.761	6929.81
651.954	7058.84
652.146	6895
652.339	6925.72
652.531	6946.2
652.724	6888.85
652.916	6739.35
653.109	6702.49
653.301	6763.93
653.494	6813.08
653.686	6692.25
653.879	6790.55
654.071	6702.49
654.263	6485.41
654.456	6505.88
654.648	6639
654.84	6256.03
655.033	6391.2
655.225	6403.49
655.417	6415.77
655.61	6305.18
655.802	6268.32
655.994	6440.35
656.186	6084
656.379	6198.69
656.571	6092.2
656.763	5944.74
656.955	6063.52
657.148	6079.91
657.34	6008.23
657.532	5981.6
657.724	6038.95
657.916	6110.63
658.108	6012.32
658.3	5993.89
658.492	5774.76
658.684	5709.22
658.876	5832.1
659.068	5903.78
659.26	5776.81
659.452	5836.2
659.644	5678.51
659.836	5643.69
660.028	5711.27
660.22	5617.07
660.412	5744.04
660.604	5658.03
660.796	5359.02
660.988	5531.05
661.18	5520.81
661.372	5500.33
661.563	5549.48
661.755	5473.71
661.947	5449.13
662.139	5461.42
662.331	5174.71
662.522	5270.96
662.714	5217.71
662.906	5162.42
663.097	5125.55
663.289	5021.11
663.481	5043.64
663.673	5103.03
663.864	5053.87
664.056	5019.06
664.247	5060.02
664.439	4859.32
664.631	5047.73
664.822	4939.19
665.014	4933.04
665.205	4920.76
665.397	4842.93
665.588	4890.04
665.78	4740.54
665.971	4793.78
666.163	4627.9
666.354	4775.35
666.546	4736.44
666.737	4789.69
666.929	4670.9
667.12	4615.61
667.311	4740.54
667.503	4593.08
667.694	4662.71
667.885	4646.33
668.077	4437.44
668.268	4488.64
668.459	4488.64
668.651	4474.3
668.842	4376
669.033	4445.63
669.224	4380.09
669.416	4347.33
669.607	4361.66
669.798	4404.67
669.989	4349.37
670.18	4216.26
670.371	4253.12
670.563	4322.75
670.754	4232.64
670.945	4175.3
671.136	4289.98
671.327	4210.11
671.518	4183.49
671.709	4150.72
671.9	4281.79
672.091	4154.82
672.282	4203.97
672.473	4044.23
672.664	4044.23
672.855	4003.27
673.046	3880.39
673.237	4036.03
673.428	4165.06
673.619	3923.4
673.809	3954.12
674	3907.01
674.191	3872.2
674.382	3921.35
674.573	3945.92
674.764	3821
674.954	3921.35
675.145	3851.72
675.336	3921.35
675.527	3841.48
675.717	3792.33
675.908	3804.61
676.099	3790.28
676.289	3782.09
676.48	3755.46
676.671	3759.56
676.861	3689.93
677.052	3595.72
677.243	3691.98
677.433	3638.73
677.624	3624.39
677.814	3671.5
678.005	3573.19
678.195	3538.38
678.386	3642.82
678.576	3554.76
678.767	3546.57
678.957	3540.43
679.148	3681.74
679.338	3544.52
679.529	3491.27
679.719	3499.47
679.909	3481.03
680.1	3395.02
680.29	3478.99
680.481	3448.27
680.671	3380.68
680.861	3450.32
681.052	3403.21
681.242	3382.73
681.432	3354.06
681.622	3356.11
681.813	3325.39
682.003	3218.89
682.193	3251.66
682.383	3349.96
682.573	3304.91
682.764	3368.4
682.954	3329.49
683.144	3249.61
683.334	3214.8
683.524	3290.57
683.714	3218.89
683.904	3259.85
684.094	3155.41
684.284	3329.49
684.474	3311.05
684.664	3134.93
684.854	3126.74
685.044	3200.46
685.234	2923.99
685.424	2977.23
685.614	2989.52
685.804	3102.16
685.994	3071.44
686.184	3081.68
686.374	3143.12
686.564	2983.38
686.753	3116.5
686.943	2975.19
687.133	2954.71
687.323	3089.87
687.513	3167.7
687.702	2932.18
687.892	2948.56
688.082	2940.37
688.272	2934.23
688.461	2942.42
688.651	2923.99
688.841	2981.33
689.03	3016.15
689.22	2893.27
689.41	2684.38
689.599	2782.68
689.789	2850.26
689.979	2754.01
690.168	2840.02
690.358	2762.2
690.547	2835.92
690.737	2852.31
690.926	2823.64
691.116	2717.14
691.305	2733.53
691.495	2667.99
691.684	2698.71
691.874	2768.34
692.063	2733.53
692.252	2684.38
692.442	2702.81
692.631	2659.8
692.82	2602.46
693.01	2586.07
693.199	2631.13
693.388	2620.89
693.578	2551.26
693.767	2700.76
693.956	2622.94
694.146	2622.94
694.335	2563.54
694.524	2467.29
694.713	2684.38
694.902	2579.93
695.092	2504.15
695.281	2526.68
695.47	2594.26
695.659	2502.11
695.848	2442.71
696.037	2448.86
696.226	2524.63
696.415	2383.32
696.604	2393.56
696.793	2471.39
696.982	2303.45
697.171	2416.09
697.36	2506.2
697.549	2385.37
697.738	2459.1
697.927	2379.23
698.116	2467.29
698.305	2428.38
698.494	2481.63
698.683	2356.7
698.872	2307.55
699.061	2248.16
699.25	2319.84
699.438	2272.73
699.627	2242.01
699.816	2381.28
700.005	2391.52
700.193	2317.79
700.382	2242.01
700.571	2303.45
700.76	2448.86
700.948	2321.88
701.137	2461.15
701.326	2295.26
701.514	2268.64
701.703	2252.25
701.892	2211.29
702.08	2305.5
702.269	2119.14
702.457	2227.68
702.646	2235.87
702.834	2199.01
703.023	2293.21
703.212	2252.25
703.4	2219.49
703.589	2268.64
703.777	2299.36
703.965	2139.62
704.154	2244.06
704.342	2151.9
704.531	2117.09
704.719	2215.39
704.907	2244.06
705.096	2139.62
705.284	2270.69
705.472	2248.16
705.661	2147.81
705.849	2180.57
706.037	2217.44
706.226	2117.09
706.414	2160.1
706.602	2205.15
706.79	2147.81
706.979	2096.61
707.167	2158.05
707.355	2209.25
707.543	2182.62
707.731	2244.06
707.919	2098.66
708.107	2156
708.296	2090.46
708.484	2061.79
708.672	2182.62
708.86	2194.91
709.048	2104.8
709.236	2192.86
709.424	2119.14
709.612	2086.37
709.8	2057.7
709.988	2102.75
710.176	2227.68
710.364	2100.7
710.551	2127.33
710.739	2112.99
710.927	2168.29
711.115	2127.33
711.303	2192.86
711.491	2065.89
711.679	2037.22
711.866	2258.4
712.054	2131.42
712.242	2029.03
712.43	2242.01
712.617	2135.52
712.805	2088.42
712.993	2182.62
713.181	2004.45
713.368	2131.42
713.556	2061.79
713.744	2037.22
713.931	2145.76
714.119	2082.27
714.306	2158.05
714.494	2037.22
714.682	2012.64
714.869	2182.62
715.057	2133.47
715.244	2160.1
715.432	2141.66
715.619	2145.76
715.807	2131.42
715.994	2135.52
716.182	2088.42
716.369	2123.23
716.556	2151.9
716.744	2102.75
716.931	2096.61
717.119	2041.31
717.306	2090.46
717.493	2156
717.681	2020.83
717.868	2057.7
718.055	2139.62
718.242	2049.5
718.43	2029.03
718.617	2121.18
718.804	2227.68
718.991	2080.22
719.179	2082.27
719.366	2129.38
719.553	2108.9
719.74	2072.03
719.927	2205.15
720.114	2174.43
720.301	2133.47
720.488	2063.84
720.676	2131.42
720.863	2141.66
721.05	2162.14
721.237	2192.86
721.424	2194.91
721.611	2104.8
721.798	2131.42
721.985	2090.46
722.172	2067.94
722.358	2047.46
722.545	2121.18
722.732	2047.46
722.919	2145.76
723.106	2117.09
723.293	2184.67
723.48	2002.4
723.667	2065.89
723.853	2213.34
724.04	1990.11
724.227	2098.66
724.414	1953.25
724.6	2145.76
724.787	2096.61
724.974	2172.38
725.161	2151.9
725.347	2069.98
725.534	2135.52
725.72	2074.08
725.907	2180.57
726.094	2090.46
726.28	2008.55
726.467	2151.9
726.653	2092.51
726.84	2039.26
727.027	2192.86
727.213	2078.18
727.4	2131.42
727.586	2094.56
727.773	2176.48
727.959	2162.14
728.145	2094.56
728.332	2160.1
728.518	2121.18
728.705	2178.53
728.891	2164.19
729.077	2072.03
729.264	2123.23
729.45	2080.22
729.636	2190.81
729.823	2037.22
730.009	2145.76
730.195	2160.1
730.382	2131.42
730.568	2133.47
730.754	2127.33
730.94	2121.18
731.126	2051.55
731.313	2086.37
731.499	2016.74
731.685	2176.48
731.871	2143.71
732.057	2061.79
732.243	1977.83
732.429	2143.71
732.615	2221.53
732.801	2156
732.987	2190.81
733.173	2076.13
733.359	2094.56
733.545	2194.91
733.731	2158.05
733.917	2162.14
734.103	2211.29
734.289	2151.9
734.475	2135.52
734.661	2182.62
734.847	2184.67
735.033	2104.8
735.219	2147.81
735.404	2092.51
735.59	2137.57
735.776	2115.04
735.962	2160.1
736.148	2133.47
736.333	2145.76
736.519	2180.57
736.705	2135.52
736.89	2061.79
737.076	2139.62
737.262	2063.84
737.447	2112.99
737.633	2043.36
737.819	2207.2
738.004	2102.75
738.19	2112.99
738.375	2149.86
738.561	2139.62
738.747	2106.85
738.932	2084.32
739.118	1988.07
739.303	2076.13
739.489	2102.75
739.674	1967.59
739.859	2092.51
740.045	2012.64
740.23	1959.39
740.416	1979.87
740.601	2000.35
740.786	2082.27
740.972	2004.45
741.157	1963.49
741.342	1920.48
741.528	1947.11
741.713	2078.18
741.898	1932.77
742.084	1981.92
742.269	2059.74
742.454	1955.3
742.639	1940.96
742.824	1981.92
743.01	1852.9
743.195	2012.64
743.38	1895.91
743.565	1875.43
743.75	1977.83
743.935	1879.52
744.12	1967.59
744.305	1869.28
744.49	1875.43
744.675	1879.52
744.86	1824.23
745.045	1801.7
745.23	1805.8
745.415	1738.21
745.6	1777.12
745.785	1742.31
745.97	1881.57
746.155	1777.12
746.34	1834.47
746.525	1768.93
746.71	1773.03
746.895	1813.99
747.079	1891.81
747.264	1764.84
747.449	1783.27
747.634	1727.97
747.819	1803.75
748.003	1754.6
748.188	1730.02
748.373	1822.18
748.557	1727.97
748.742	1795.56
748.927	1746.41
749.111	1670.63
749.296	1631.72
749.481	1742.31
749.665	1668.58
749.85	1639.91
750.034	1719.78
750.219	1566.18
750.404	1590.76
750.588	1617.38
750.773	1537.51
750.957	1594.86
751.141	1631.72
751.326	1504.75
751.51	1496.55
751.695	1533.42
751.879	1584.62
752.064	1469.93
752.248	1453.55
752.432	1508.84
752.617	1502.7
752.801	1547.75
752.985	1504.75
753.17	1433.07
753.354	1488.36
753.538	1463.79
753.722	1435.11
753.907	1543.66
754.091	1361.39
754.275	1482.22
754.459	1410.54
754.643	1400.3
754.828	1373.68
755.012	1396.2
755.196	1394.15
755.38	1351.15
755.564	1332.72
755.748	1449.45
755.932	1328.62
756.116	1320.43
756.3	1367.53
756.484	1289.71
756.668	1314.28
756.852	1185.26
757.036	1164.78
757.22	1226.22
757.404	1281.52
757.588	1258.99
757.772	1224.17
757.956	1211.89
758.14	1187.31
758.323	1236.46
758.507	1252.84
758.691	1195.5
758.875	1275.37
759.059	1263.08
759.242	1156.59
759.426	1158.64
759.61	1172.97
759.794	1158.64
759.977	1234.41
760.161	1330.67
760.345	1170.93
760.528	1158.64
760.712	1091.06
760.895	1033.71
761.079	1134.06
761.263	1181.17
761.446	1127.92
761.63	1013.23
761.813	1005.04
761.997	1103.34
762.18	1084.91
762.364	1107.44
762.547	1101.3
762.731	1029.62
762.914	1039.86
763.098	1052.14
763.281	1099.25
763.464	1064.43
763.648	1019.38
763.831	1062.38
764.015	1050.1
764.198	1048.05
764.381	1039.86
764.564	1062.38
764.748	1041.9
764.931	1005.04
765.114	959.99
765.297	1013.23
765.481	923.12
765.664	998.9
765.847	941.55
766.03	1013.23
766.213	919.03
766.397	1035.76
766.58	947.7
766.763	988.66
766.946	968.18
767.129	964.08
767.312	923.12
767.495	992.75
767.678	1000.94
767.861	964.08
768.044	933.36
768.227	974.32
768.41	906.74
768.593	919.03
768.776	884.21
768.959	1025.52
769.142	976.37
769.324	900.59
769.507	968.18
769.69	1011.18
769.873	876.02
770.056	978.42
770.239	900.59
770.421	933.36
770.604	906.74
770.787	937.46
770.97	957.94
771.152	900.59
771.335	939.51
771.518	873.97
771.7	869.87
771.883	865.78
772.066	810.48
772.248	970.23
772.431	841.2
772.613	892.4
772.796	749.04
772.978	865.78
773.161	968.18
773.343	738.8
773.526	873.97
773.708	865.78
773.891	775.67
774.073	841.2
774.256	837.11
774.438	878.07
774.621	744.95
774.803	794.1
774.985	697.85
775.168	822.77
775.35	742.9
775.532	800.24
775.715	763.38
775.897	695.8
776.079	763.38
776.261	738.8
776.444	630.26
776.626	706.04
776.808	738.8
776.99	724.47
777.173	796.15
777.355	607.73
777.537	654.84
777.719	761.33
777.901	794.1
778.083	697.85
778.265	710.13
778.447	620.02
778.629	675.32
778.811	677.37
778.993	595.45
779.175	695.8
779.357	632.31
779.539	593.4
779.721	681.46
779.903	675.32
780.085	673.27
780.267	634.36
780.449	613.88
780.631	536.06
780.812	574.97
780.994	695.8
781.176	507.38
781.358	603.64
781.54	529.91
781.721	620.02
781.903	536.06
782.085	603.64
782.267	515.58
782.448	538.1
782.63	554.49
782.812	654.84
782.993	577.02
783.175	531.96
783.357	501.24
783.538	603.64
783.72	548.34
783.901	603.64
784.083	587.26
784.264	552.44
784.446	564.73
784.627	540.15
784.809	378.36
784.99	531.96
785.172	466.42
785.353	554.49
785.535	570.87
785.716	523.77
785.897	505.34
786.079	417.27
786.26	484.86
786.441	466.42
786.623	491
786.804	556.54
786.985	501.24
787.167	351.74
787.348	513.53
787.529	456.19
787.71	464.38
787.891	458.23
788.073	472.57
788.254	521.72
788.435	482.81
788.616	409.08
788.797	429.56
788.978	464.38
789.159	353.79
789.34	409.08
789.522	439.8
789.703	407.03
789.884	474.62
790.065	482.81
790.246	431.61
790.427	415.23
790.607	376.31
790.788	409.08
790.969	441.85
791.15	433.66
791.331	353.79
791.512	415.23
791.693	368.12
791.874	454.14
792.054	409.08
792.235	368.12
792.416	345.59
792.597	366.07
792.778	335.35
792.958	345.59
793.139	402.94
793.32	351.74
793.5	304.64
793.681	316.92
793.862	368.12
794.042	343.55
794.223	302.59
794.404	345.59
794.584	269.82
794.765	335.35
794.945	392.7
795.126	417.27
795.306	382.46
795.487	349.69
795.667	273.92
795.848	335.35
796.028	194.05
796.209	355.83
796.389	374.27
796.57	335.35
796.75	261.63
796.93	298.49
797.111	302.59
797.291	333.31
797.471	325.12
797.652	310.78
797.832	316.92
798.012	284.16
798.192	308.73
798.373	237.05
798.553	284.16
798.733	335.35
798.913	278.01
799.093	331.26
799.274	310.78
799.454	368.12
799.634	357.88
799.814	226.81
799.994	286.2
800.174	241.15
800.354	259.58
800.534	269.82
800.714	339.45
800.894	255.48
801.074	237.05
801.254	267.77
801.434	427.51
801.614	259.58
801.794	200.19
801.974	759.28
802.154	216.57
802.334	253.44
802.514	218.62
802.693	216.57
802.873	232.96
803.053	263.68
803.233	245.24
803.413	275.96
803.592	259.58
803.772	325.12
803.952	247.29
804.131	218.62
804.311	263.68
804.491	280.06
804.67	206.33
804.85	232.96
805.03	232.96
805.209	284.16
805.389	243.2
805.568	265.72
805.748	130.56
805.928	278.01
806.107	189.95
806.287	232.96
806.466	206.33
806.646	112.13
806.825	243.2
807.004	204.28
807.184	235
807.363	232.96
807.543	206.33
807.722	220.67
807.901	300.54
808.081	255.48
808.26	175.61
808.439	187.9
808.619	245.24
808.798	228.86
808.977	249.34
809.156	161.28
809.336	138.75
809.515	200.19
809.694	181.76
809.873	237.05
810.052	187.9
810.231	257.53
810.411	169.47
810.59	175.61
810.769	114.17
810.948	146.94
811.127	146.94
811.306	159.23
811.485	200.19
811.664	161.28
811.843	148.99
812.022	171.52
812.201	237.05
812.38	167.42
812.559	153.09
812.737	181.76
812.916	112.13
813.095	194.05
813.274	202.24
813.453	169.47
813.632	257.53
813.811	187.9
813.989	175.61
814.168	208.38
814.347	179.71
814.526	239.1
814.704	212.48
814.883	230.91
815.062	75.26
815.24	130.56
815.419	124.41
815.598	148.99
815.776	44.54
815.955	245.24
816.133	95.74
816.312	177.66
816.49	128.51
816.669	169.47
816.847	179.71
817.026	232.96
817.204	165.37
817.383	253.44
817.561	148.99
817.74	177.66
817.918	155.13
818.097	118.27
818.275	120.32
818.453	177.66
818.632	108.03
818.81	155.13
818.988	189.95
819.167	159.23
819.345	212.48
819.523	165.37
819.701	71.17
819.879	167.42
820.058	181.76
820.236	161.28
820.414	122.37
820.592	200.19
820.77	235
820.948	155.13
821.127	108.03
821.305	122.37
821.483	124.41
821.661	103.93
821.839	122.37
822.017	110.08
822.195	103.93
822.373	177.66
822.551	187.9
822.729	187.9
822.907	159.23
823.085	169.47
823.262	91.65
823.44	196.09
823.618	124.41
823.796	81.41
823.974	140.8
824.152	103.93
824.329	120.32
824.507	169.47
824.685	65.02
824.863	79.36
825.04	130.56
825.218	144.89
825.396	128.51
825.574	83.45
825.751	101.89
825.929	87.55
826.107	136.7
826.284	146.94
826.462	130.56
826.639	83.45
826.817	95.74
826.994	218.62
827.172	146.94
827.349	124.41
827.527	181.76
827.704	62.98
827.882	161.28
828.059	130.56
828.237	15.87
828.414	138.75
828.591	60.93
828.769	95.74
828.946	24.06
829.124	112.13
829.301	89.6
829.478	181.76
829.655	144.89
829.833	46.59
830.01	91.65
830.187	79.36
830.364	124.41
830.542	163.33
830.719	130.56
830.896	136.7
831.073	116.22
831.25	105.98
831.427	134.65
831.604	95.74
831.782	153.09
831.959	112.13
832.136	87.55
832.313	65.02
832.49	58.88
832.667	148.99
832.844	79.36
833.021	144.89
833.198	140.8
833.374	83.45
833.551	95.74
833.728	46.59
833.905	56.83
834.082	181.76
834.259	85.5
834.436	128.51
834.612	128.51
834.789	50.69
834.966	189.95
835.143	142.85
835.319	13.82
835.496	26.11
835.673	89.6
835.85	112.13
836.026	54.78
836.203	93.69
836.38	91.65
836.556	116.22
836.733	112.13
836.909	22.02
837.086	87.55
837.262	103.93
837.439	7.68
837.616	22.02
837.792	56.83
837.968	97.79
838.145	62.98
838.321	128.51
838.498	120.32
838.674	179.71
838.851	99.84
839.027	38.4
839.203	50.69
839.38	85.5
839.556	54.78
839.732	136.7
839.909	81.41
840.085	77.31
840.261	83.45
840.437	128.51
840.614	52.74
840.79	103.93
840.966	65.02
841.142	118.27
841.318	54.78
841.494	155.13
841.671	97.79
841.847	77.31
842.023	56.83
842.199	69.12
842.375	32.26
842.551	48.64
842.727	97.79
842.903	116.22
843.079	-33.28
843.255	89.6
843.431	46.59
843.607	73.21
843.783	60.93
843.959	105.98
844.134	79.36
844.31	79.36
844.486	101.89
844.662	65.02
844.838	101.89
845.013	144.89
845.189	69.12
845.365	40.45
845.541	11.78
845.716	26.11
845.892	73.21
846.068	67.07
846.244	5.63
846.419	148.99
846.595	-16.9
846.77	128.51
846.946	7.68
847.122	38.4
847.297	69.12
847.473	110.08
847.648	-10.75
847.824	71.17
847.999	87.55
848.175	67.07
848.35	99.84
848.526	134.65
848.701	71.17
848.876	38.4
849.052	73.21
849.227	-27.14
849.403	77.31
849.578	28.16
849.753	93.69
849.929	136.7
850.104	17.92
850.279	32.26
850.454	50.69
850.63	73.21
850.805	122.37
850.98	30.21
851.155	50.69
851.33	54.78
851.505	48.64
851.681	116.22
851.856	101.89
852.031	87.55
852.206	-4.61
852.381	44.54
852.556	54.78
852.731	46.59
852.906	75.26
853.081	44.54
853.256	103.93
853.431	26.11
853.606	62.98
853.781	69.12
853.956	54.78
854.131	22.02
854.305	34.3
854.48	15.87
854.655	48.64
854.83	17.92
855.005	13.82
855.18	50.69
855.354	-6.66
855.529	124.41
855.704	67.07
855.879	40.45
856.053	-14.85
856.228	-39.42
856.403	44.54
856.577	122.37
856.752	-25.09
856.926	9.73
857.101	48.64
857.276	50.69
857.45	48.64
857.625	56.83
857.799	56.83
857.974	87.55
858.148	1.54
858.323	97.79
858.497	73.21
858.672	50.69
858.846	30.21
859.02	71.17
859.195	9.73
859.369	-33.28
859.543	32.26
859.718	22.02
859.892	36.35
860.066	62.98
860.241	81.41
860.415	95.74
860.589	58.88
860.763	-18.94
860.938	17.92
861.112	44.54
861.286	38.4
861.46	124.41
861.634	30.21
861.808	73.21
861.982	19.97
862.157	44.54
862.331	40.45
862.505	11.78
862.679	-18.94
862.853	46.59
863.027	19.97
863.201	17.92
863.375	3.58
863.549	-6.66
863.722	81.41
863.896	71.17
864.07	26.11
864.244	36.35
864.418	75.26
864.592	62.98
864.766	42.5
864.939	79.36
865.113	30.21
865.287	58.88
865.461	32.26
865.634	34.3
865.808	34.3
865.982	65.02
866.156	93.69
866.329	36.35
866.503	46.59
866.676	93.69
866.85	46.59
867.024	48.64
867.197	13.82
867.371	52.74
867.544	32.26
867.718	24.06
867.891	44.54
868.065	46.59
868.238	99.84
868.412	22.02
868.585	79.36
868.759	7.68
868.932	52.74
869.105	28.16
869.279	26.11
869.452	9.73
869.625	56.83
869.799	48.64
869.972	28.16
870.145	69.12
870.319	87.55
870.492	50.69
870.665	13.82
870.838	13.82
871.011	-16.9
871.185	24.06
871.358	1.54
871.531	38.4
871.704	28.16
871.877	114.17
872.05	28.16
872.223	-14.85
872.396	56.83
872.569	48.64
872.742	-39.42
872.915	13.82
873.088	17.92
873.261	17.92
873.434	32.26
873.607	60.93
873.78	-23.04
873.953	67.07
874.126	-12.8
874.299	83.45
874.471	40.45
874.644	13.82
874.817	65.02
874.99	9.73
875.163	9.73
875.335	50.69
875.508	36.35
875.681	3.58
875.853	42.5
876.026	19.97
876.199	71.17
876.371	67.07
876.544	93.69
876.717	50.69
876.889	69.12
877.062	48.64
877.234	30.21
877.407	-6.66
877.579	-57.86
877.752	-2.56
877.924	36.35
878.097	62.98
878.269	81.41
878.442	32.26
878.614	-53.76
878.786	40.45
878.959	52.74
879.131	30.21
879.303	30.21
879.476	79.36
879.648	-4.61
879.82	40.45
879.993	71.17
880.165	81.41
880.337	48.64
880.509	-4.61
880.681	-41.47
880.854	67.07
881.026	-10.75
881.198	50.69
881.37	17.92
881.542	13.82
881.714	-37.38
881.886	30.21
882.058	52.74
882.23	-14.85
882.402	-37.38
882.574	22.02
882.746	89.6
882.918	58.88
883.09	46.59
883.262	58.88
883.434	-20.99
883.606	3.58
883.778	-6.66
883.95	81.41
884.122	56.83
884.293	44.54
884.465	99.84
884.637	46.59
884.809	-8.7
884.98	62.98
885.152	46.59
885.324	79.36
885.496	60.93
885.667	93.69
885.839	40.45
886.011	60.93
886.182	136.7
886.354	11.78
886.525	26.11
886.697	-2.56
886.869	48.64
887.04	19.97
887.212	85.5
887.383	-51.71
887.555	15.87
887.726	-27.14
887.897	17.92
888.069	79.36
888.24	65.02
888.412	7.68
888.583	3.58
888.754	48.64
888.926	46.59
889.097	9.73
889.268	-35.33
889.44	77.31
889.611	-68.09
889.782	58.88
889.953	1.54
890.125	-37.38
890.296	-37.38
890.467	-25.09
890.638	32.26
890.809	22.02
890.98	15.87
891.151	101.89
891.323	3.58
891.494	48.64
891.665	-2.56
891.836	22.02
892.007	44.54
892.178	22.02
892.349	110.08
892.52	13.82
892.691	52.74
892.862	58.88
893.032	32.26
893.203	71.17
893.374	77.31
893.545	56.83
893.716	-14.85
893.887	30.21
894.057	40.45
894.228	-10.75
894.399	67.07
894.57	79.36
894.74	-8.7
894.911	50.69
895.082	54.78
895.253	67.07
895.423	60.93
895.594	89.6
895.764	73.21
895.935	-14.85
896.106	28.16
896.276	-43.52
896.447	-8.7
896.617	40.45
896.788	40.45
896.958	99.84
897.129	5.63
897.299	-49.66
897.47	40.45
897.64	42.5
897.81	85.5
897.981	56.83
898.151	38.4
898.322	83.45
898.492	46.59
898.662	5.63
898.832	-27.14
899.003	32.26
899.173	46.59
899.343	-20.99
899.513	-47.62
