Data from USB4F104151__31__13-10-49-064.txt Node

Date: Fri Mar 14 13:10:49 EDT 2025
User: louis
Spectrometer: USB4F10415
Trigger mode: 4
Integration Time (sec): 2.000000E-2
Scans to average: 1
Electric dark correction enabled: true
Nonlinearity correction enabled: false
Boxcar width: 0
XAxis mode: Wavelengths
Number of Pixels in Spectrum: 3648
>>>>>Begin Spectral Data<<<<<
178.204	-48.47
178.424	-48.47
178.644	-48.47
178.864	-101.72
179.084	-97.62
179.304	-56.66
179.524	21.16
179.744	-42.32
179.964	-9.56
180.184	-9.56
180.404	27.31
180.624	0.68
180.844	41.64
181.064	-5.46
181.283	78.51
181.503	-13.65
181.723	-32.08
181.943	-25.94
182.163	31.4
182.383	-9.56
182.602	58.03
182.822	92.84
183.042	47.79
183.262	21.16
183.482	-73.04
183.701	55.98
183.921	96.94
184.141	45.74
184.361	64.17
184.58	8.87
184.8	45.74
185.02	84.65
185.239	129.7
185.459	8.87
185.679	107.18
185.898	37.55
186.118	49.83
186.338	39.59
186.557	6.83
186.777	15.02
186.997	64.17
187.216	82.6
187.436	-3.41
187.655	64.17
187.875	25.26
188.095	31.4
188.314	49.83
188.534	92.84
188.753	-15.7
188.973	70.31
189.192	72.36
189.412	-5.46
189.631	25.26
189.851	-25.94
190.07	17.07
190.29	-9.56
190.509	19.11
190.729	62.12
190.948	31.4
191.168	131.75
191.387	2.73
191.607	74.41
191.826	64.17
192.045	45.74
192.265	-17.75
192.484	2.73
192.704	88.75
192.923	19.11
193.142	98.99
193.362	47.79
193.581	105.13
193.8	78.51
194.02	115.37
194.239	-34.13
194.458	66.22
194.678	82.6
194.897	15.02
195.116	101.03
195.335	29.35
195.555	49.83
195.774	-5.46
195.993	51.88
196.212	23.21
196.432	58.03
196.651	60.07
196.87	37.55
197.089	49.83
197.308	-19.8
197.528	37.55
197.747	27.31
197.966	21.16
198.185	80.55
198.404	0.68
198.623	43.69
198.842	33.45
199.062	39.59
199.281	-32.08
199.5	29.35
199.719	45.74
199.938	6.83
200.157	101.03
200.376	-9.56
200.595	43.69
200.814	19.11
201.033	41.64
201.252	25.26
201.471	55.98
201.69	92.84
201.909	115.37
202.128	33.45
202.347	41.64
202.566	47.79
202.785	15.02
203.004	27.31
203.223	80.55
203.442	135.85
203.661	15.02
203.879	37.55
204.098	55.98
204.317	68.27
204.536	-1.37
204.755	6.83
204.974	49.83
205.193	15.02
205.411	47.79
205.63	64.17
205.849	55.98
206.068	15.02
206.287	-1.37
206.505	-7.51
206.724	31.4
206.943	78.51
207.162	29.35
207.381	84.65
207.599	31.4
207.818	-7.51
208.037	41.64
208.255	-17.75
208.474	55.98
208.693	2.73
208.911	60.07
209.13	72.36
209.349	-42.32
209.567	62.12
209.786	31.4
210.005	25.26
210.223	72.36
210.442	82.6
210.661	47.79
210.879	-1.37
211.098	51.88
211.316	35.5
211.535	64.17
211.753	101.03
211.972	31.4
212.191	33.45
212.409	68.27
212.628	55.98
212.846	23.21
213.065	66.22
213.283	62.12
213.502	103.08
213.72	17.07
213.938	76.46
214.157	47.79
214.375	31.4
214.594	39.59
214.812	41.64
215.031	37.55
215.249	47.79
215.467	-23.89
215.686	39.59
215.904	70.31
216.122	-9.56
216.341	39.59
216.559	62.12
216.778	121.51
216.996	55.98
217.214	23.21
217.432	31.4
217.651	80.55
217.869	58.03
218.087	84.65
218.306	27.31
218.524	94.89
218.742	2.73
218.96	55.98
219.179	68.27
219.397	121.51
219.615	53.93
219.833	-30.04
220.051	8.87
220.27	74.41
220.488	2.73
220.706	2.73
220.924	-50.52
221.142	-3.41
221.36	2.73
221.578	66.22
221.796	-34.13
222.015	82.6
222.233	55.98
222.451	90.79
222.669	68.27
222.887	8.87
223.105	37.55
223.323	-1.37
223.541	35.5
223.759	55.98
223.977	2.73
224.195	51.88
224.413	8.87
224.631	23.21
224.849	47.79
225.067	148.14
225.285	-17.75
225.503	47.79
225.721	55.98
225.939	0.68
226.157	17.07
226.375	82.6
226.592	45.74
226.81	51.88
227.028	78.51
227.246	25.26
227.464	47.79
227.682	68.27
227.9	49.83
228.117	76.46
228.335	25.26
228.553	64.17
228.771	19.11
228.989	31.4
229.206	-1.37
229.424	25.26
229.642	58.03
229.86	-5.46
230.077	84.65
230.295	66.22
230.513	-3.41
230.731	37.55
230.948	68.27
231.166	98.99
231.384	78.51
231.601	8.87
231.819	37.55
232.037	21.16
232.254	35.5
232.472	74.41
232.689	-15.7
232.907	66.22
233.125	-5.46
233.342	25.26
233.56	8.87
233.777	53.93
233.995	66.22
234.213	31.4
234.43	47.79
234.648	62.12
234.865	19.11
235.083	0.68
235.3	6.83
235.518	-60.76
235.735	90.79
235.953	10.92
236.17	25.26
236.388	96.94
236.605	39.59
236.822	-5.46
237.04	29.35
237.257	101.03
237.475	21.16
237.692	-13.65
237.909	17.07
238.127	25.26
238.344	2.73
238.562	45.74
238.779	58.03
238.996	49.83
239.214	74.41
239.431	27.31
239.648	-21.85
239.865	47.79
240.083	164.52
240.3	29.35
240.517	68.27
240.735	45.74
240.952	96.94
241.169	98.99
241.386	49.83
241.603	76.46
241.821	-68.95
242.038	113.32
242.255	58.03
242.472	76.46
242.689	0.68
242.907	80.55
243.124	37.55
243.341	0.68
243.558	29.35
243.775	76.46
243.992	-56.66
244.209	51.88
244.426	60.07
244.643	105.13
244.86	53.93
245.078	64.17
245.295	94.89
245.512	47.79
245.729	-38.23
245.946	47.79
246.163	39.59
246.38	-7.51
246.597	55.98
246.814	68.27
247.031	76.46
247.248	43.69
247.464	29.35
247.681	105.13
247.898	35.5
248.115	-13.65
248.332	-1.37
248.549	39.59
248.766	29.35
248.983	-17.75
249.2	0.68
249.417	35.5
249.633	68.27
249.85	47.79
250.067	17.07
250.284	84.65
250.501	10.92
250.717	-1.37
250.934	62.12
251.151	115.37
251.368	96.94
251.585	39.59
251.801	29.35
252.018	6.83
252.235	-21.85
252.451	72.36
252.668	10.92
252.885	35.5
253.102	86.7
253.318	37.55
253.535	-34.13
253.752	35.5
253.968	51.88
254.185	31.4
254.401	6.83
254.618	94.89
254.835	-19.8
255.051	70.31
255.268	-9.56
255.484	90.79
255.701	72.36
255.917	-34.13
256.134	21.16
256.351	19.11
256.567	35.5
256.784	51.88
257	60.07
257.217	74.41
257.433	6.83
257.65	70.31
257.866	39.59
258.082	39.59
258.299	10.92
258.515	-3.41
258.732	35.5
258.948	31.4
259.165	25.26
259.381	43.69
259.597	-9.56
259.814	51.88
260.03	68.27
260.246	39.59
260.463	109.22
260.679	98.99
260.895	-17.75
261.112	58.03
261.328	47.79
261.544	29.35
261.761	72.36
261.977	17.07
262.193	2.73
262.409	53.93
262.626	60.07
262.842	98.99
263.058	23.21
263.274	115.37
263.49	-17.75
263.707	80.55
263.923	19.11
264.139	2.73
264.355	-1.37
264.571	31.4
264.787	98.99
265.004	131.75
265.22	17.07
265.436	-7.51
265.652	17.07
265.868	-15.7
266.084	-7.51
266.3	70.31
266.516	35.5
266.732	80.55
266.948	-9.56
267.164	31.4
267.38	96.94
267.596	101.03
267.812	101.03
268.028	49.83
268.244	72.36
268.46	-19.8
268.676	68.27
268.892	80.55
269.108	23.21
269.324	15.02
269.54	23.21
269.756	70.31
269.972	23.21
270.188	78.51
270.403	27.31
270.619	33.45
270.835	17.07
271.051	21.16
271.267	60.07
271.483	39.59
271.698	41.64
271.914	64.17
272.13	19.11
272.346	39.59
272.562	8.87
272.777	68.27
272.993	74.41
273.209	33.45
273.425	55.98
273.64	39.59
273.856	8.87
274.072	45.74
274.287	-99.67
274.503	41.64
274.719	25.26
274.934	60.07
275.15	10.92
275.366	49.83
275.581	74.41
275.797	58.03
276.012	0.68
276.228	-1.37
276.444	84.65
276.659	72.36
276.875	64.17
277.09	27.31
277.306	72.36
277.521	66.22
277.737	19.11
277.952	41.64
278.168	25.26
278.383	74.41
278.599	113.32
278.814	49.83
279.03	27.31
279.245	33.45
279.461	39.59
279.676	113.32
279.892	-25.94
280.107	-38.23
280.322	-11.61
280.538	58.03
280.753	-1.37
280.969	15.02
281.184	74.41
281.399	29.35
281.615	41.64
281.83	72.36
282.045	-34.13
282.26	58.03
282.476	37.55
282.691	58.03
282.906	37.55
283.122	-1.37
283.337	35.5
283.552	82.6
283.767	53.93
283.983	76.46
284.198	45.74
284.413	68.27
284.628	41.64
284.843	21.16
285.058	58.03
285.274	43.69
285.489	64.17
285.704	111.27
285.919	72.36
286.134	41.64
286.349	47.79
286.564	88.75
286.779	72.36
286.995	-5.46
287.21	12.97
287.425	-21.85
287.64	-15.7
287.855	43.69
288.07	72.36
288.285	8.87
288.5	90.79
288.715	82.6
288.93	49.83
289.145	19.11
289.36	21.16
289.575	92.84
289.79	80.55
290.004	27.31
290.219	96.94
290.434	-3.41
290.649	27.31
290.864	144.04
291.079	15.02
291.294	10.92
291.509	64.17
291.724	70.31
291.938	82.6
292.153	31.4
292.368	23.21
292.583	45.74
292.798	19.11
293.012	10.92
293.227	62.12
293.442	55.98
293.657	58.03
293.871	86.7
294.086	49.83
294.301	80.55
294.516	107.18
294.73	37.55
294.945	39.59
295.16	84.65
295.374	80.55
295.589	58.03
295.804	23.21
296.018	-1.37
296.233	35.5
296.447	90.79
296.662	58.03
296.877	31.4
297.091	8.87
297.306	53.93
297.52	8.87
297.735	33.45
297.949	62.12
298.164	90.79
298.378	-19.8
298.593	51.88
298.807	-9.56
299.022	64.17
299.236	23.21
299.451	6.83
299.665	2.73
299.88	25.26
300.094	64.17
300.309	15.02
300.523	27.31
300.737	64.17
300.952	82.6
301.166	90.79
301.381	-32.08
301.595	39.59
301.809	-36.18
302.024	31.4
302.238	0.68
302.452	94.89
302.667	49.83
302.881	-21.85
303.095	17.07
303.309	41.64
303.524	53.93
303.738	121.51
303.952	39.59
304.166	101.03
304.381	-15.7
304.595	55.98
304.809	15.02
305.023	12.97
305.237	12.97
305.452	47.79
305.666	62.12
305.88	31.4
306.094	23.21
306.308	55.98
306.522	101.03
306.736	170.66
306.95	31.4
307.164	41.64
307.379	17.07
307.593	55.98
307.807	-34.13
308.021	101.03
308.235	47.79
308.449	-5.46
308.663	80.55
308.877	170.66
309.091	105.13
309.305	-9.56
309.519	-3.41
309.733	58.03
309.947	12.97
310.161	23.21
310.374	12.97
310.588	45.74
310.802	25.26
311.016	15.02
311.23	-1.37
311.444	43.69
311.658	-25.94
311.872	60.07
312.085	43.69
312.299	115.37
312.513	15.02
312.727	101.03
312.941	0.68
313.154	129.7
313.368	53.93
313.582	45.74
313.796	86.7
314.009	35.5
314.223	121.51
314.437	27.31
314.651	96.94
314.864	-50.52
315.078	72.36
315.292	2.73
315.505	35.5
315.719	29.35
315.933	94.89
316.146	49.83
316.36	39.59
316.573	-11.61
316.787	-3.41
317.001	2.73
317.214	0.68
317.428	64.17
317.641	10.92
317.855	17.07
318.068	17.07
318.282	62.12
318.495	133.8
318.709	74.41
318.922	0.68
319.136	98.99
319.349	86.7
319.563	-9.56
319.776	49.83
319.99	-34.13
320.203	90.79
320.417	12.97
320.63	-44.37
320.843	88.75
321.057	15.02
321.27	0.68
321.483	-1.37
321.697	76.46
321.91	33.45
322.124	-7.51
322.337	37.55
322.55	27.31
322.763	-34.13
322.977	78.51
323.19	23.21
323.403	17.07
323.617	76.46
323.83	127.66
324.043	-32.08
324.256	68.27
324.469	17.07
324.683	19.11
324.896	-25.94
325.109	45.74
325.322	58.03
325.535	84.65
325.748	64.17
325.962	72.36
326.175	43.69
326.388	51.88
326.601	80.55
326.814	21.16
327.027	19.11
327.24	55.98
327.453	21.16
327.666	76.46
327.879	76.46
328.092	74.41
328.305	58.03
328.518	23.21
328.731	-15.7
328.944	72.36
329.157	74.41
329.37	90.79
329.583	6.83
329.796	133.8
330.009	74.41
330.222	123.56
330.435	76.46
330.648	33.45
330.861	86.7
331.073	88.75
331.286	51.88
331.499	66.22
331.712	23.21
331.925	66.22
332.138	72.36
332.35	96.94
332.563	8.87
332.776	72.36
332.989	33.45
333.202	64.17
333.414	27.31
333.627	39.59
333.84	23.21
334.053	47.79
334.265	-32.08
334.478	10.92
334.691	51.88
334.903	49.83
335.116	64.17
335.329	-34.13
335.541	144.04
335.754	58.03
335.966	2.73
336.179	111.27
336.392	55.98
336.604	49.83
336.817	49.83
337.029	60.07
337.242	33.45
337.454	53.93
337.667	105.13
337.88	107.18
338.092	74.41
338.305	58.03
338.517	37.55
338.729	23.21
338.942	12.97
339.154	76.46
339.367	4.78
339.579	47.79
339.792	37.55
340.004	88.75
340.217	0.68
340.429	68.27
340.641	78.51
340.854	-62.8
341.066	80.55
341.278	37.55
341.491	111.27
341.703	-25.94
341.915	43.69
342.128	74.41
342.34	129.7
342.552	41.64
342.764	10.92
342.977	15.02
343.189	70.31
343.401	25.26
343.613	15.02
343.826	47.79
344.038	-1.37
344.25	107.18
344.462	-19.8
344.674	80.55
344.886	66.22
345.099	55.98
345.311	154.28
345.523	15.02
345.735	49.83
345.947	49.83
346.159	2.73
346.371	37.55
346.583	6.83
346.795	76.46
347.007	64.17
347.219	111.27
347.431	31.4
347.643	127.66
347.855	90.79
348.067	-11.61
348.279	-1.37
348.491	55.98
348.703	60.07
348.915	49.83
349.127	66.22
349.339	53.93
349.551	98.99
349.763	88.75
349.975	-5.46
350.187	94.89
350.399	90.79
350.61	39.59
350.822	12.97
351.034	17.07
351.246	43.69
351.458	74.41
351.669	76.46
351.881	51.88
352.093	27.31
352.305	43.69
352.517	107.18
352.728	154.28
352.94	98.99
353.152	64.17
353.363	66.22
353.575	115.37
353.787	58.03
353.999	31.4
354.21	96.94
354.422	51.88
354.633	33.45
354.845	76.46
355.057	33.45
355.268	33.45
355.48	10.92
355.692	-17.75
355.903	-1.37
356.115	31.4
356.326	37.55
356.538	35.5
356.749	31.4
356.961	86.7
357.172	66.22
357.384	29.35
357.595	90.79
357.807	37.55
358.018	19.11
358.23	29.35
358.441	68.27
358.653	-7.51
358.864	82.6
359.075	101.03
359.287	64.17
359.498	105.13
359.709	154.28
359.921	64.17
360.132	-5.46
360.344	70.31
360.555	39.59
360.766	82.6
360.977	72.36
361.189	123.56
361.4	49.83
361.611	105.13
361.823	121.51
362.034	68.27
362.245	37.55
362.456	84.65
362.667	29.35
362.879	84.65
363.09	49.83
363.301	64.17
363.512	72.36
363.723	0.68
363.935	53.93
364.146	82.6
364.357	31.4
364.568	23.21
364.779	43.69
364.99	12.97
365.201	45.74
365.412	103.08
365.623	6.83
365.834	4.78
366.045	98.99
366.256	117.42
366.467	113.32
366.678	105.13
366.889	64.17
367.1	55.98
367.311	47.79
367.522	78.51
367.733	107.18
367.944	98.99
368.155	6.83
368.366	29.35
368.577	162.47
368.788	96.94
368.999	15.02
369.209	49.83
369.42	58.03
369.631	66.22
369.842	82.6
370.053	25.26
370.264	76.46
370.474	64.17
370.685	86.7
370.896	47.79
371.107	58.03
371.317	76.46
371.528	-1.37
371.739	80.55
371.95	27.31
372.16	135.85
372.371	15.02
372.582	72.36
372.792	6.83
373.003	88.75
373.214	76.46
373.424	119.46
373.635	39.59
373.846	117.42
374.056	58.03
374.267	86.7
374.477	72.36
374.688	37.55
374.898	88.75
375.109	41.64
375.319	88.75
375.53	86.7
375.74	55.98
375.951	47.79
376.161	-1.37
376.372	111.27
376.582	25.26
376.793	66.22
377.003	27.31
377.214	60.07
377.424	98.99
377.635	72.36
377.845	-23.89
378.055	103.08
378.266	90.79
378.476	17.07
378.686	84.65
378.897	51.88
379.107	76.46
379.317	27.31
379.528	49.83
379.738	98.99
379.948	23.21
380.158	195.24
380.369	96.94
380.579	15.02
380.789	98.99
380.999	121.51
381.21	74.41
381.42	109.22
381.63	-40.28
381.84	72.36
382.05	-13.65
382.261	51.88
382.471	84.65
382.681	58.03
382.891	21.16
383.101	117.42
383.311	88.75
383.521	58.03
383.731	82.6
383.941	0.68
384.151	41.64
384.361	119.46
384.571	60.07
384.781	66.22
384.991	72.36
385.201	156.33
385.411	86.7
385.621	47.79
385.831	45.74
386.041	12.97
386.251	60.07
386.461	80.55
386.671	146.09
386.881	72.36
387.091	19.11
387.301	68.27
387.511	68.27
387.72	76.46
387.93	90.79
388.14	-7.51
388.35	64.17
388.56	82.6
388.769	96.94
388.979	66.22
389.189	88.75
389.399	72.36
389.609	105.13
389.818	119.46
390.028	80.55
390.238	47.79
390.447	103.08
390.657	146.09
390.867	107.18
391.076	72.36
391.286	76.46
391.496	82.6
391.705	21.16
391.915	94.89
392.125	115.37
392.334	53.93
392.544	119.46
392.753	107.18
392.963	68.27
393.172	72.36
393.382	101.03
393.591	68.27
393.801	72.36
394.01	107.18
394.22	80.55
394.429	96.94
394.639	66.22
394.848	105.13
395.058	31.4
395.267	123.56
395.477	68.27
395.686	144.04
395.895	53.93
396.105	111.27
396.314	76.46
396.524	180.9
396.733	144.04
396.942	160.42
397.152	94.89
397.361	105.13
397.57	109.22
397.78	137.9
397.989	146.09
398.198	139.94
398.407	137.9
398.617	76.46
398.826	154.28
399.035	88.75
399.244	131.75
399.453	96.94
399.663	135.85
399.872	176.81
400.081	139.94
400.29	117.42
400.499	211.62
400.708	172.71
400.917	174.76
401.127	158.38
401.336	139.94
401.545	189.1
401.754	141.99
401.963	92.84
402.172	113.32
402.381	107.18
402.59	98.99
402.799	178.86
403.008	92.84
403.217	129.7
403.426	105.13
403.635	121.51
403.844	135.85
404.053	152.23
404.262	137.9
404.471	191.14
404.68	189.1
404.888	158.38
405.097	166.57
405.306	197.29
405.515	170.66
405.724	191.14
405.933	148.14
406.142	221.86
406.35	137.9
406.559	262.82
406.768	225.96
406.977	287.4
407.185	221.86
407.394	205.48
407.603	250.53
407.812	203.43
408.02	258.73
408.229	203.43
408.438	283.3
408.646	271.01
408.855	268.97
409.064	285.35
409.272	246.44
409.481	404.13
409.69	307.88
409.898	271.01
410.107	336.55
410.315	275.11
410.524	361.13
410.733	340.65
410.941	344.74
411.15	354.98
411.358	522.91
411.567	408.23
411.775	492.2
411.984	434.85
412.192	393.89
412.401	402.08
412.609	400.04
412.818	522.91
413.026	543.39
413.234	572.07
413.443	518.82
413.651	653.98
413.86	535.2
414.068	625.31
414.276	635.55
414.485	635.55
414.693	686.75
414.901	713.38
415.11	721.57
415.318	737.95
415.526	694.94
415.734	768.67
415.943	793.25
416.151	881.31
416.359	844.45
416.567	877.21
416.776	912.03
416.984	1016.48
417.192	1008.28
417.4	1016.48
417.608	1030.81
417.817	1022.62
418.025	1100.44
418.233	1190.55
418.441	1120.92
418.649	1172.12
418.857	1303.19
419.065	1407.64
419.273	1360.53
419.481	1397.4
419.689	1516.18
419.897	1536.66
420.105	1415.83
420.313	1692.3
420.521	1657.49
420.729	1618.58
420.937	1680.02
421.145	1890.96
421.353	2005.64
421.561	1921.68
421.769	2032.27
421.977	2179.72
422.185	2093.71
422.393	2222.73
422.601	2273.93
422.809	2275.98
423.017	2325.13
423.224	2484.87
423.432	2491.01
423.64	2531.97
423.848	2634.37
424.056	2845.31
424.263	2871.93
424.471	3007.1
424.679	2996.86
424.887	3162.75
425.094	3193.47
425.302	3414.65
425.51	3431.03
425.718	3508.85
425.925	3467.89
426.133	3668.59
426.341	3951.21
426.548	4004.46
426.756	4082.28
426.964	4022.89
427.171	4323.94
427.379	4366.95
427.586	4420.2
427.794	4538.98
428.001	4954.72
428.209	5110.36
428.417	4944.48
428.624	5270.11
428.832	5325.4
429.039	5247.58
429.247	5331.55
429.454	5806.67
429.662	6097.49
429.869	5767.76
430.076	6173.26
430.284	6115.92
430.491	6365.77
430.699	6617.67
430.906	6603.33
431.114	6756.93
431.321	6998.59
431.528	7258.68
431.736	7502.39
431.943	7995.95
432.15	7709.24
432.358	7934.51
432.565	8303.15
432.772	8221.23
432.979	8761.89
433.187	8630.82
433.394	8933.92
433.601	9423.39
433.808	9470.49
434.016	9450.01
434.223	9781.78
434.43	10361.36
434.637	10289.68
434.844	10930.69
435.052	11063.81
435.259	10947.08
435.466	11074.05
435.673	11035.14
435.88	11598.33
436.087	12366.32
436.294	12358.13
436.501	11975.16
436.708	12425.71
436.915	12659.18
437.122	13423.07
437.329	13314.53
437.537	13810.14
437.743	13707.74
437.95	13623.77
438.157	14277.07
438.364	15053.25
438.571	14922.18
438.778	14711.24
438.985	16327.09
439.192	15765.95
439.399	16247.22
439.606	15952.31
439.813	16859.56
440.02	17695.13
440.227	17420.7
440.433	17404.32
440.64	18033.05
440.847	17811.87
441.054	18407.83
441.261	19659.13
441.467	19208.58
441.674	19743.1
441.881	20365.68
442.088	20269.43
442.294	20193.65
442.501	20619.63
442.708	21082.47
442.914	21842.27
443.121	22643.03
443.328	22292.82
443.534	23998.78
443.741	22995.28
443.948	22921.55
444.154	24592.69
444.361	24279.35
444.568	24514.87
444.774	24785.2
444.981	25008.43
445.187	25618.72
445.394	26568.98
445.6	26306.84
445.807	28909.81
446.013	27656.45
446.22	28221.69
446.426	29419.75
446.633	29901.03
446.839	30507.23
447.046	29405.42
447.252	30996.69
447.459	31115.47
447.665	31049.94
447.871	32303.29
448.078	33446.06
448.284	31916.23
448.491	32948.4
448.697	34320.54
448.903	34883.73
449.11	35223.7
449.316	34308.26
449.522	35520.65
449.728	35997.83
449.935	36436.09
450.141	36417.66
450.347	37404.78
450.553	36204.67
450.76	36432
450.966	37636.2
451.172	37257.33
451.378	38508.64
451.584	37650.54
451.791	38426.72
451.997	38832.22
452.203	39288.92
452.409	39256.15
452.615	38844.51
452.821	38021.22
453.027	37374.06
453.233	39030.87
453.44	37945.45
453.646	38250.6
453.852	38541.41
454.058	39045.21
454.264	37785.71
454.47	38551.65
454.676	37777.51
454.882	38953.05
455.088	35848.33
455.294	36272.26
455.5	37474.41
455.705	37345.39
455.911	35506.32
456.117	35203.22
456.323	34961.56
456.529	33097.91
456.735	34517.15
456.941	33308.85
457.147	32889.01
457.352	31897.8
457.558	31903.94
457.764	31770.82
457.97	31416.52
458.176	30660.82
458.381	30712.02
458.587	29325.55
458.793	29028.59
458.999	27881.73
459.204	29468.9
459.41	28719.35
459.616	26958.1
459.821	27250.95
460.027	26700.05
460.233	26464.53
460.438	25166.12
460.644	25319.72
460.85	23937.34
461.055	23746.88
461.261	23845.18
461.466	22081.88
461.672	21616.99
461.878	22692.18
462.083	21373.28
462.289	20797.81
462.494	20713.84
462.7	19724.67
462.905	19141
463.111	19757.44
463.316	19984.76
463.522	19485.06
463.727	19745.15
463.932	19753.34
464.138	19298.69
464.343	19616.13
464.549	18868.62
464.754	19270.02
464.959	19126.66
465.165	19079.56
465.37	18381.2
465.575	17533.34
465.781	18717.07
465.986	18667.92
466.191	18059.67
466.397	17605.02
466.602	16757.16
466.807	17400.23
467.012	17574.3
467.218	17346.98
467.423	17185.19
467.628	17441.18
467.833	17904.03
468.038	17416.61
468.244	16826.79
468.449	17445.28
468.654	17156.52
468.859	16726.44
469.064	16744.88
469.269	15964.6
469.474	16302.51
469.679	16724.4
469.885	15995.32
470.09	16480.69
470.295	16157.11
470.5	15819.19
470.705	15892.92
470.91	15802.81
471.115	15335.87
471.32	15714.75
471.525	15589.82
471.73	15180.23
471.935	15098.31
472.139	14430.67
472.344	14805.45
472.549	14531.02
472.754	14571.98
472.959	14250.45
473.164	14035.41
473.369	13734.36
473.574	14234.07
473.778	14037.46
473.983	13881.81
474.188	13916.63
474.393	13519.32
474.598	13728.22
474.802	13281.76
475.007	13224.42
475.212	13119.97
475.417	12614.12
475.621	12818.92
475.826	12796.39
476.031	12329.45
476.235	12384.75
476.44	12493.29
476.645	12351.98
476.849	12425.71
477.054	11952.63
477.259	11821.56
477.463	11989.49
477.668	11512.31
477.872	11860.47
478.077	11534.84
478.282	11323.9
478.486	11338.24
478.691	11039.23
478.895	11260.41
479.1	10983.94
479.304	11141.63
479.509	10686.98
479.713	10844.68
479.918	10625.54
480.122	10574.35
480.326	10658.31
480.531	10803.72
480.735	10494.47
480.94	10390.03
481.144	10764.81
481.348	10304.01
481.553	10541.58
481.757	10115.6
481.961	10420.75
482.166	10344.97
482.37	10371.6
482.574	10048.02
482.778	10177.04
482.983	10322.45
483.187	10086.93
483.391	10222.09
483.595	10111.5
483.8	10033.68
484.004	9919
484.208	10414.6
484.412	10218
484.616	10203.66
484.821	10312.21
485.025	10070.54
485.229	10168.85
485.433	10060.31
485.637	10013.2
485.841	10279.44
486.045	9974.29
486.249	10019.35
486.453	10140.18
486.657	10162.7
486.861	10203.66
487.065	9968.15
487.269	10156.56
487.473	9986.58
487.677	10005.01
487.881	10357.26
488.085	9986.58
488.289	9966.1
488.493	10123.79
488.697	10164.75
488.901	10441.23
489.105	10291.73
489.309	10365.45
489.512	10297.87
489.716	10480.14
489.92	10377.74
490.124	10244.62
490.328	10379.79
490.531	10406.41
490.735	10355.21
490.939	10596.87
491.143	10412.56
491.346	10365.45
491.55	10713.61
491.754	10578.44
491.958	10594.83
492.161	10662.41
492.365	10723.85
492.569	10801.67
492.772	10590.73
492.976	10816.01
493.18	10920.45
493.383	11084.29
493.587	10961.41
493.79	11065.86
493.994	11043.33
494.197	11274.75
494.401	11293.18
494.605	11438.59
494.808	11358.72
495.012	11516.41
495.215	11598.33
495.419	11614.71
495.622	11627
495.825	11739.64
496.029	11622.91
496.232	12014.07
496.436	12007.92
496.639	12337.65
496.843	12227.06
497.046	12620.27
497.249	12571.11
497.453	12683.75
497.656	12874.21
497.859	12687.85
498.063	12923.37
498.266	13281.76
498.469	13187.55
498.673	13400.54
498.876	13332.96
499.079	13595.1
499.282	13523.42
499.485	14035.41
499.689	13822.42
499.892	14189.01
500.095	14281.17
500.298	14569.93
500.501	14635.47
500.705	14977.48
500.908	15182.28
501.111	15221.19
501.314	15309.25
501.517	15524.29
501.72	15565.25
501.923	15618.49
502.126	15983.03
502.329	16320.95
502.532	16341.43
502.735	16239.03
502.938	16748.97
503.141	16648.62
503.344	16980.39
503.547	17099.17
503.75	17476
503.953	17727.9
504.156	17672.6
504.359	17949.08
504.562	18182.55
504.765	18145.69
504.968	18684.3
505.17	18688.4
505.373	18637.2
505.576	19255.68
505.779	19011.98
505.982	19599.74
506.185	19927.42
506.387	19779.96
506.59	19859.84
506.793	20328.82
506.996	20308.34
507.198	20922.73
507.401	20881.77
507.604	21297.51
507.807	21193.06
508.009	21401.96
508.212	21721.44
508.415	22126.94
508.617	22278.49
508.82	22448.47
509.022	22260.06
509.225	22595.92
509.428	23036.24
509.63	23007.56
509.833	23304.52
510.035	23630.15
510.238	23669.06
510.44	24090.94
510.643	24297.78
510.845	24484.15
511.048	24641.84
511.25	24992.05
511.453	24877.36
511.655	25866.53
511.858	25827.62
512.06	25942.3
512.262	26280.22
512.465	26312.99
512.667	26648.85
512.87	27025.68
513.072	27132.17
513.274	27509
513.477	27844.87
513.679	27863.3
513.881	28213.5
514.084	28684.53
514.286	28442.87
514.488	28979.44
514.69	29657.32
514.893	29585.64
515.095	29796.58
515.297	30140.64
515.499	29780.2
515.701	30521.56
515.904	30750.93
516.106	31013.07
516.308	31123.66
516.51	31408.33
516.712	31678.66
516.914	31992
517.116	32790.71
517.318	32721.08
517.52	33020.08
517.722	33058.99
517.925	33556.65
518.127	33757.35
518.329	33962.15
518.531	33874.09
518.733	34670.75
518.935	35059.86
519.136	34537.63
519.338	35491.98
519.54	35360.91
519.742	35688.59
519.944	35940.49
520.146	36257.92
520.348	36614.27
520.55	36876.41
520.752	36962.42
520.954	37517.42
521.155	37580.91
521.357	38140
521.559	38414.43
521.761	38830.17
521.963	39010.39
522.164	38842.46
522.366	39145.56
522.568	39694.41
522.77	39661.65
522.971	40345.67
523.173	39909.45
523.375	40540.22
523.576	40302.66
523.778	40396.87
523.98	41070.65
524.181	41461.81
524.383	41297.97
524.584	41807.92
524.786	41603.12
524.988	41349.17
525.189	42528.8
525.391	42491.94
525.592	42575.9
525.794	42971.16
525.995	42833.95
526.197	42938.4
526.398	43020.31
526.6	43567.12
526.801	43790.35
527.003	43902.99
527.204	43714.58
527.406	43900.94
527.607	44064.78
527.808	44679.17
528.01	43753.49
528.211	44234.76
528.412	44779.52
528.614	44802.05
528.815	44750.85
529.016	45238.26
529.218	44939.26
529.419	45238.26
529.62	45262.84
529.822	44996.6
530.023	45045.76
530.224	45174.78
530.425	45158.39
530.626	45025.28
530.828	45471.73
531.029	46127.08
531.23	45355
531.431	45795.31
531.632	45746.16
531.833	46034.92
532.035	45918.19
532.236	45971.44
532.437	46325.74
532.638	45393.91
532.839	46200.81
533.04	46424.04
533.241	45393.91
533.442	46555.11
533.643	46448.61
533.844	46221.29
534.045	46522.34
534.246	45963.25
534.447	46489.57
534.648	46348.26
534.849	46788.58
535.05	46209
535.251	46538.72
535.451	45983.72
535.652	46942.17
535.853	46299.11
536.054	46442.47
536.255	46604.26
536.456	45860.85
536.657	46852.06
536.857	46010.35
537.058	46274.54
537.259	46798.82
537.46	46338.02
537.66	46319.59
537.861	46538.72
538.062	46417.89
538.263	46319.59
538.463	46383.08
538.664	46704.61
538.865	46485.48
539.065	46884.83
539.266	46094.32
539.466	46524.39
539.667	45996.01
539.868	46651.36
540.068	46155.75
540.269	46258.15
540.469	46856.16
540.67	46006.25
540.87	45881.33
541.071	45928.43
541.271	46467.05
541.472	46286.82
541.672	45987.82
541.873	45969.39
542.073	45516.79
542.274	46501.86
542.474	45664.24
542.675	45983.72
542.875	46645.22
543.075	46192.62
543.276	45826.03
543.476	46346.22
543.676	46088.17
543.877	46411.75
544.077	45805.55
544.277	46321.64
544.478	45887.47
544.678	46323.69
544.878	46188.52
545.078	46217.19
545.279	45889.52
545.479	45942.77
545.679	46127.08
545.879	45957.1
546.079	46297.06
546.28	46065.64
546.48	45410.29
546.68	46039.02
546.88	46039.02
547.08	45703.15
547.28	46079.98
547.48	45387.77
547.68	45789.17
547.88	45535.22
548.081	46088.17
548.281	45787.12
548.481	45748.21
548.681	45987.82
548.881	45606.9
549.081	45582.32
549.28	45357.05
549.48	45623.28
549.68	45492.21
549.88	46573.54
550.08	45807.6
550.28	45674.48
550.48	45527.03
550.68	45946.86
550.88	45428.73
551.08	45567.99
551.279	45408.25
551.479	45893.61
551.679	45879.28
551.879	45336.57
552.079	45598.71
552.278	45492.21
552.478	45379.57
552.678	45737.97
552.878	45361.14
553.077	45467.64
553.277	45289.46
553.477	45772.78
553.676	45445.11
553.876	45266.94
554.076	45510.64
554.275	45012.99
554.475	44994.56
554.674	45377.53
554.874	45361.14
555.074	44625.92
555.273	45180.92
555.473	45125.63
555.672	45135.87
555.872	45012.99
556.071	45064.19
556.271	45606.9
556.47	45383.67
556.67	44662.79
556.869	45099
557.068	45168.63
557.268	44875.77
557.467	45123.58
557.667	44603.39
557.866	44951.55
558.065	44804.1
558.265	44044.3
558.464	44005.39
558.663	44931.07
558.863	44357.64
559.062	45158.39
559.261	43948.04
559.461	44609.54
559.66	43866.13
559.859	44281.86
560.058	43745.3
560.258	44378.12
560.457	43941.9
560.656	44109.83
560.855	43646.99
561.054	43749.39
561.253	43612.18
561.453	43646.99
561.652	43841.55
561.851	44060.68
562.05	43593.75
562.249	43251.73
562.448	43546.64
562.647	43565.07
562.846	43343.89
563.045	43569.17
563.244	42813.47
563.443	44009.48
563.642	42815.52
563.841	43026.46
564.04	42848.28
564.239	43071.51
564.438	42917.92
564.637	42917.92
564.836	42680.35
565.035	42524.71
565.234	42649.63
565.432	42295.33
565.631	42215.46
565.83	42663.97
566.029	42426.4
566.228	41908.27
566.427	41916.46
566.625	42041.39
566.824	41173.05
567.023	41967.66
567.222	41375.8
567.42	41961.51
567.619	41639.98
567.818	41519.15
568.016	41486.39
568.215	41539.63
568.414	41455.67
568.612	41502.77
568.811	41029.69
569.01	41388.08
569.208	40386.63
569.407	41175.09
569.605	40611.9
569.804	40976.44
570.002	40202.31
570.201	40757.31
570.4	40360
570.598	40534.08
570.797	40194.12
570.995	40415.3
571.193	40409.15
571.392	40499.26
571.59	40017.99
571.789	40237.12
571.987	39870.54
572.186	39657.55
572.384	39503.95
572.582	39465.04
572.781	39583.82
572.979	39092.31
573.177	39522.38
573.376	39270.48
573.574	38619.23
573.772	39190.61
573.971	39049.3
574.169	38695
574.367	38623.33
574.565	39374.93
574.763	38961.24
574.962	38654.04
575.16	38375.52
575.358	38559.84
575.556	37970.02
575.754	38799.45
575.952	38369.38
576.151	38484.06
576.349	37562.48
576.547	37886.06
576.745	37703.79
576.943	37922.92
577.141	37826.67
577.339	37640.3
577.537	37367.92
577.735	37394.54
577.933	36946.04
578.131	37230.71
578.329	37271.67
578.527	36733.05
578.725	37185.65
578.923	37062.77
579.121	36980.85
579.319	36808.82
579.516	36978.81
579.714	36448.38
579.912	36104.32
580.11	36225.15
580.308	36530.3
580.506	36214.91
580.704	35711.11
580.901	36327.55
581.099	36487.29
581.297	35727.5
581.495	35737.74
581.692	35870.86
581.89	35807.37
582.088	35858.57
582.285	35209.36
582.483	35903.62
582.681	35451.02
582.878	35504.27
583.076	34861.21
583.274	35115.15
583.471	34680.99
583.669	34904.21
583.866	34554.01
584.064	35434.64
584.262	34463.9
584.459	34814.1
584.657	34259.1
584.854	34635.93
585.052	33931.43
585.249	34101.41
585.447	34230.43
585.644	33730.73
585.841	33966.24
586.039	34203.81
586.236	33484.97
586.434	33917.09
586.631	33620.14
586.828	33470.64
587.026	33624.23
587.223	33556.65
587.42	33433.77
587.618	33261.74
587.815	33204.4
588.012	32704.7
588.21	32970.93
588.407	33099.95
588.604	33028.27
588.801	32422.08
588.999	32823.48
589.196	32796.85
589.393	32280.77
589.59	32424.12
589.787	32463.04
589.984	32211.14
590.182	31701.19
590.379	31916.23
590.576	32080.07
590.773	31934.66
590.97	31742.15
591.167	31664.33
591.364	31570.12
591.561	31551.69
591.758	31058.13
591.955	31084.75
592.152	31334.6
592.349	30939.35
592.546	31119.57
592.743	30828.76
592.94	30353.63
593.137	30873.81
593.334	30906.58
593.531	30503.13
593.727	30767.32
593.924	30681.3
594.121	30214.37
594.318	30650.58
594.515	29925.6
594.712	30243.04
594.908	29966.56
595.105	29941.99
595.302	29569.26
595.499	29778.15
595.696	29784.29
595.892	29491.43
596.089	29647.08
596.286	29819.11
596.482	29382.89
596.679	29126.89
596.876	29698.28
597.072	29260.01
597.269	29442.28
597.466	28944.62
597.662	28840.18
597.859	28496.12
598.055	28991.73
598.252	28516.6
598.448	28770.55
598.645	28330.23
598.841	28125.44
599.038	28424.44
599.234	28082.43
599.431	27808
599.627	28219.64
599.824	28330.23
600.02	27695.36
600.217	28109.05
600.413	27730.18
600.609	27265.29
600.806	27547.91
601.002	27345.16
601.198	27277.58
601.395	27377.93
601.591	27343.11
601.787	27009.29
601.984	27040.01
602.18	27130.12
602.376	26827.03
602.572	26945.81
602.769	26984.72
602.965	26485.01
603.161	26767.63
603.357	26417.43
603.553	26421.53
603.75	26173.72
603.946	26341.66
604.142	26321.18
604.338	26013.98
604.534	26167.58
604.73	25864.48
604.926	26132.76
605.122	25852.19
605.318	25792.8
605.514	25743.65
605.71	25352.49
605.906	25342.25
606.102	25583.91
606.298	25764.13
606.494	25415.97
606.69	25325.86
606.886	25157.93
607.082	24994.09
607.278	25395.5
607.474	24758.58
607.67	25065.77
607.866	24811.82
608.062	25301.29
608.257	24615.22
608.453	24772.91
608.649	24795.44
608.845	24420.66
609.041	24535.35
609.236	24734
609.432	24707.38
609.628	24447.29
609.824	24176.95
610.019	23966.01
610.215	24469.81
610.411	24375.61
610.606	24320.31
610.802	24295.74
610.998	24107.32
611.193	24344.89
611.389	23832.9
611.584	23841.09
611.78	23886.14
611.976	23761.22
612.171	23636.29
612.367	23806.27
612.562	23554.37
612.758	23275.85
612.953	23310.66
613.149	23834.94
613.344	23335.24
613.539	23642.43
613.735	23812.42
613.93	23681.35
614.126	23325
614.321	23632.19
614.517	23411.01
614.712	23089.48
614.907	23337.29
615.103	22890.83
615.298	22700.37
615.493	23400.77
615.688	22600.02
615.884	23351.62
616.079	22800.72
616.274	23034.19
616.47	22782.29
616.665	22726.99
616.86	22538.58
617.055	22708.56
617.25	22575.44
617.445	22862.16
617.641	22409.56
617.836	22638.93
618.031	22036.83
618.226	22692.18
618.421	22323.54
618.616	22294.87
618.811	22141.27
619.006	22194.52
619.201	21766.49
619.396	21961.05
619.591	21277.03
619.786	21918.04
619.981	21371.24
620.176	21490.02
620.371	21375.33
620.566	21834.08
620.761	21236.07
620.956	21416.29
621.151	20879.72
621.346	20957.55
621.541	20681.07
621.735	21041.51
621.93	20533.62
622.125	20758.89
622.32	20488.56
622.515	20287.86
622.709	20355.44
622.904	20306.29
623.099	20107.64
623.294	19935.61
623.488	19822.97
623.683	19855.74
623.878	19724.67
624.072	19650.94
624.267	19489.15
624.462	19317.12
624.656	19349.89
624.851	19184.01
625.046	19159.43
625.24	19216.77
625.435	18821.52
625.629	18887.05
625.824	18794.89
626.018	18635.15
626.213	18352.53
626.407	18571.66
626.602	18108.82
626.796	18391.44
626.991	18344.34
627.185	18252.18
627.38	18133.4
627.574	17832.35
627.768	17721.76
627.963	17879.45
628.157	17600.93
628.352	17299.87
628.546	17256.87
628.74	17586.59
628.935	17064.36
629.129	17191.33
629.323	16740.78
629.517	16998.82
629.712	16959.91
629.906	16783.79
630.1	16701.87
630.294	16839.08
630.489	16482.74
630.683	16701.87
630.877	16322.99
631.071	16138.68
631.265	16234.93
631.459	16110
631.653	16015.8
631.848	16067
632.042	15878.58
632.236	15858.1
632.43	15688.12
632.624	15937.98
632.818	15591.87
633.012	15391.17
633.206	15438.27
633.4	15395.26
633.594	15092.16
633.788	15370.69
633.982	15079.88
634.176	15268.29
634.369	14801.35
634.563	14815.69
634.757	14938.57
634.951	14801.35
635.145	14760.39
635.339	14694.86
635.533	14643.66
635.726	14516.69
635.92	14453.2
636.114	14277.07
636.308	14109.14
636.501	14340.56
636.695	14072.28
636.889	14092.76
637.083	13949.4
637.276	13765.08
637.47	13758.94
637.664	13681.11
637.857	13670.87
638.051	13679.07
638.244	13296.1
638.438	13597.15
638.632	13302.24
638.825	13226.46
639.019	13001.19
639.212	13050.34
639.406	13103.59
639.599	13150.69
639.793	13154.79
639.986	12771.82
640.18	12890.6
640.373	12855.78
640.567	12569.07
640.76	12509.68
640.954	12599.79
641.147	12446.19
641.34	12601.83
641.534	12329.45
641.727	12452.33
641.92	12388.85
642.114	12149.23
642.307	12192.24
642.5	12155.38
642.694	11926
642.887	11790.84
643.08	11934.2
643.273	11903.48
643.467	11835.89
643.66	11811.32
643.853	11616.76
644.046	11430.4
644.239	11459.07
644.432	11188.74
644.626	11559.42
644.819	11123.2
645.012	11454.97
645.205	11180.54
645.398	11215.36
645.591	11094.53
645.784	11065.86
645.977	11039.23
646.17	10983.94
646.363	10945.03
646.556	10656.26
646.749	10588.68
646.942	10623.5
647.135	10643.98
647.328	10682.89
647.521	10527.24
647.714	10312.21
647.907	10469.9
648.099	10461.71
648.292	10379.79
648.485	10482.19
648.678	10109.46
648.871	10263.05
649.064	9939.47
649.256	10134.03
649.449	9933.33
649.642	9996.82
649.835	9839.12
650.027	9871.89
650.22	9714.2
650.413	9781.78
650.605	9673.24
650.798	9452.06
650.991	9660.95
651.183	9466.39
651.376	9454.11
651.568	9423.39
651.761	9357.85
651.954	9484.83
652.146	9259.55
652.339	9224.73
652.531	9206.3
652.724	9157.15
652.916	8886.82
653.109	8993.31
653.301	8997.41
653.494	8968.74
653.686	8712.74
653.879	8966.69
654.071	8874.53
654.263	8950.31
654.456	8712.74
654.648	8641.06
654.84	8575.53
655.033	8583.72
655.225	8589.86
655.417	8397.35
655.61	8454.7
655.802	8444.46
655.994	8280.62
656.186	8458.79
656.379	8110.64
656.571	8352.3
656.763	8190.51
656.955	8297
657.148	8051.25
657.34	8264.24
657.532	7959.09
657.724	7979.57
657.916	7971.38
658.108	7975.47
658.3	7848.5
658.492	7897.65
658.684	7631.41
658.876	7739.96
659.068	7662.13
659.26	7582.26
659.452	7752.24
659.644	7608.89
659.836	7586.36
660.028	7330.36
660.22	7293.5
660.412	7543.35
660.604	7281.21
660.796	7412.28
660.988	7234.11
661.18	7166.53
661.372	7234.11
661.563	7148.09
661.755	7207.48
661.947	7125.57
662.139	7064.13
662.331	6984.26
662.522	6902.34
662.714	6912.58
662.906	7125.57
663.097	6908.48
663.289	6791.75
663.481	6881.86
663.673	6888
663.864	6720.07
664.056	6623.81
664.247	6857.28
664.439	6574.66
664.631	6496.84
664.822	6656.58
665.014	6482.5
665.205	6486.6
665.397	6376.01
665.588	6515.27
665.78	6533.7
665.971	6394.44
666.163	6425.16
666.354	6244.94
666.546	6244.94
666.737	6097.49
666.929	6236.75
667.12	6183.5
667.311	6181.45
667.503	6163.02
667.694	6109.77
667.885	6036.05
668.077	6132.3
668.268	5900.88
668.459	6009.42
668.651	5956.18
668.842	5993.04
669.033	5874.26
669.224	5691.99
669.416	5864.02
669.607	5784.15
669.798	5732.95
669.989	5694.04
670.18	5767.76
670.371	5655.12
670.563	5474.9
670.754	5794.39
670.945	5300.83
671.136	5675.6
671.327	5450.33
671.518	5479
671.709	5558.87
671.9	5612.12
672.091	5462.62
672.282	5534.29
672.473	5354.07
672.664	5327.45
672.855	5380.7
673.046	5261.91
673.237	5233.24
673.428	5366.36
673.619	5280.35
673.809	5290.59
674	5024.35
674.191	5071.45
674.382	4993.63
674.573	5075.55
674.764	5028.45
674.954	5059.17
675.145	5057.12
675.336	5024.35
675.527	4979.29
675.717	4854.37
675.908	4964.96
676.099	4840.03
676.289	5014.11
676.48	4831.84
676.671	4870.75
676.861	4807.27
677.052	4813.41
677.243	4622.95
677.433	4684.39
677.624	4739.68
677.814	4723.3
678.005	4760.16
678.195	4674.15
678.386	4790.88
678.576	4647.52
678.767	4618.85
678.957	4592.23
679.148	4811.36
679.338	4487.78
679.529	4538.98
679.719	4504.17
679.909	4446.82
680.1	4579.94
680.29	4573.8
680.481	4504.17
680.671	4489.83
680.861	4272.75
681.052	4500.07
681.242	4444.77
681.432	4385.38
681.622	4266.6
681.813	4242.03
682.003	4354.66
682.193	4311.66
682.383	4332.14
682.573	4190.83
682.764	4223.59
682.954	4203.11
683.144	4186.73
683.334	4070
683.524	4274.79
683.714	4360.81
683.904	4090.48
684.094	4262.51
684.284	4053.61
684.474	4180.59
684.664	4192.87
684.854	4082.28
685.044	3916.4
685.234	4067.95
685.424	4051.56
685.614	4063.85
685.804	4004.46
685.994	4026.99
686.184	3951.21
686.374	3938.93
686.564	3965.55
686.753	4012.65
686.943	3801.71
687.133	3871.34
687.323	3746.42
687.513	3908.21
687.702	3834.48
687.892	3785.33
688.082	3869.3
688.272	3758.71
688.461	3846.77
688.651	3701.36
688.841	3811.95
689.03	3773.04
689.22	3613.3
689.41	3660.4
689.599	3777.14
689.789	3711.6
689.979	3684.98
690.168	3783.28
690.358	3596.92
690.547	3521.14
690.737	3676.79
690.926	3545.72
691.116	3564.15
691.305	3498.61
691.495	3508.85
691.684	3603.06
691.874	3433.08
692.063	3404.41
692.252	3515
692.442	3379.83
692.631	3500.66
692.82	3359.35
693.01	3545.72
693.199	3367.54
693.388	3312.25
693.578	3402.36
693.767	3283.58
693.956	3275.38
694.146	3345.02
694.335	3326.58
694.524	3299.96
694.713	3416.69
694.902	3281.53
695.092	3328.63
695.281	3185.27
695.47	3365.5
695.659	3240.57
695.848	3177.08
696.037	3168.89
696.226	3197.56
696.415	3162.75
696.604	3201.66
696.793	3224.19
696.982	3179.13
697.171	3158.65
697.36	3138.17
697.549	3121.79
697.738	3023.48
697.927	3107.45
698.116	3084.92
698.305	3084.92
698.494	3195.51
698.683	3068.54
698.872	3175.03
699.061	3062.4
699.25	3064.44
699.438	3058.3
699.627	3074.68
699.816	3005.05
700.005	2976.38
700.193	3070.59
700.382	3107.45
700.571	3039.87
700.76	2955.9
700.948	2984.57
701.137	2882.17
701.326	2937.47
701.514	2941.57
701.703	2884.22
701.892	2927.23
702.08	3097.21
702.269	2910.85
702.457	2910.85
702.646	2931.33
702.834	2939.52
703.023	2898.56
703.212	2960
703.4	2808.45
703.589	2931.33
703.777	2988.67
703.965	2867.84
704.154	2802.3
704.342	2978.43
704.531	2865.79
704.719	2835.07
704.907	2779.78
705.096	2921.09
705.284	2826.88
705.472	2873.98
705.661	2730.62
705.849	2951.81
706.037	2894.46
706.226	2857.6
706.414	2878.08
706.602	2810.5
706.79	2867.84
706.979	2835.07
707.167	2820.74
707.355	2689.67
707.543	2857.6
707.731	2757.25
707.919	2857.6
708.107	2814.59
708.296	2708.1
708.484	2753.15
708.672	2665.09
708.86	2757.25
709.048	2763.39
709.236	2722.43
709.424	2730.62
709.612	2642.56
709.8	2804.35
709.988	2777.73
710.176	2810.5
710.364	2665.09
710.551	2671.23
710.739	2742.91
710.927	2640.51
711.115	2755.2
711.303	2648.71
711.491	2747.01
711.679	2650.75
711.866	2574.98
712.054	2757.25
712.242	2646.66
712.43	2779.78
712.617	2572.93
712.805	2742.91
712.993	2650.75
713.181	2595.46
713.368	2765.44
713.556	2579.08
713.744	2599.55
713.931	2605.7
714.119	2628.23
714.306	2742.91
714.494	2669.19
714.682	2687.62
714.869	2660.99
715.057	2611.84
715.244	2523.78
715.432	2554.5
715.619	2620.03
715.807	2591.36
715.994	2607.75
716.182	2531.97
716.369	2544.26
716.556	2663.04
716.744	2556.55
716.931	2521.73
717.119	2599.55
717.306	2603.65
717.493	2663.04
717.681	2597.51
717.868	2542.21
718.055	2564.74
718.242	2521.73
718.43	2574.98
718.617	2597.51
718.804	2589.32
718.991	2601.6
719.179	2542.21
719.366	2431.62
719.553	2587.27
719.74	2497.16
719.927	2488.96
720.114	2523.78
720.301	2464.39
720.488	2546.31
720.676	2544.26
720.863	2654.85
721.05	2454.15
721.237	2587.27
721.424	2609.79
721.611	2507.4
721.798	2450.05
721.985	2521.73
722.172	2521.73
722.358	2450.05
722.545	2558.6
722.732	2439.81
722.919	2568.84
723.106	2448.01
723.293	2394.76
723.48	2466.44
723.667	2415.24
723.853	2534.02
724.04	2542.21
724.227	2495.11
724.414	2536.07
724.6	2411.14
724.787	2378.37
724.974	2509.44
725.161	2468.48
725.347	2357.89
725.534	2441.86
725.72	2464.39
725.907	2458.25
726.094	2454.15
726.28	2509.44
726.467	2368.13
726.653	2427.53
726.84	2505.35
727.027	2398.85
727.213	2433.67
727.4	2398.85
727.586	2394.76
727.773	2431.62
727.959	2431.62
728.145	2435.72
728.332	2357.89
728.518	2333.32
728.705	2441.86
728.891	2470.53
729.077	2390.66
729.264	2312.84
729.45	2394.76
729.636	2388.61
729.823	2398.85
730.009	2327.18
730.195	2398.85
730.382	2357.89
730.568	2312.84
730.754	2441.86
730.94	2380.42
731.126	2321.03
731.313	2280.07
731.499	2392.71
731.685	2376.33
731.871	2292.36
732.057	2259.59
732.243	2329.22
732.429	2339.46
732.615	2282.12
732.801	2366.09
732.987	2302.6
733.173	2253.45
733.359	2294.41
733.545	2390.66
733.731	2343.56
733.917	2409.09
734.103	2327.18
734.289	2323.08
734.475	2187.91
734.661	2386.57
734.847	2351.75
735.033	2300.55
735.219	2294.41
735.404	2228.87
735.59	2361.99
735.776	2126.47
735.962	2314.89
736.148	2284.17
736.333	2374.28
736.519	2288.26
736.705	2171.53
736.89	2237.06
737.076	2198.15
737.262	2327.18
737.447	2163.34
737.633	2185.87
737.819	2202.25
738.004	2210.44
738.19	2222.73
738.375	2265.74
738.561	2187.91
738.747	2263.69
738.932	2079.37
739.118	2149
739.303	2173.58
739.489	2159.24
739.674	2177.67
739.859	2146.95
740.045	2239.11
740.23	2161.29
740.416	2042.51
740.601	2204.3
740.786	2116.23
740.972	2073.23
741.157	2177.67
741.342	2038.41
741.528	2091.66
741.713	2052.75
741.898	2097.8
742.084	2105.99
742.269	2132.62
742.454	2079.37
742.639	2087.56
742.824	2116.23
743.01	2120.33
743.195	2101.9
743.38	1966.73
743.565	2056.84
743.75	1876.62
743.935	1925.77
744.12	2110.09
744.305	1946.25
744.49	1919.63
744.675	1948.3
744.86	2038.41
745.045	1964.68
745.23	1909.39
745.415	2005.64
745.6	2028.17
745.785	1952.4
745.97	1917.58
746.155	1837.71
746.34	1893.01
746.525	1866.38
746.71	1874.57
746.895	1901.2
747.079	1864.33
747.264	1860.24
747.449	1786.51
747.634	1770.13
747.819	1915.53
748.003	1786.51
748.188	1792.66
748.373	1747.6
748.557	1751.7
748.742	1710.74
748.927	1766.03
749.111	1759.89
749.296	1806.99
749.481	1737.36
749.665	1755.79
749.85	1669.78
750.034	1739.41
750.219	1718.93
750.404	1671.83
750.588	1620.63
750.773	1591.95
750.957	1663.63
751.141	1645.2
751.326	1520.28
751.51	1573.52
751.695	1540.76
751.879	1581.71
752.064	1624.72
752.248	1516.18
752.432	1548.95
752.617	1561.23
752.801	1612.43
752.985	1473.17
753.17	1585.81
753.354	1585.81
753.538	1555.09
753.722	1473.17
753.907	1469.08
754.091	1393.3
754.275	1430.16
754.459	1356.44
754.643	1370.77
754.828	1532.56
755.012	1491.6
755.196	1442.45
755.38	1366.68
755.564	1321.62
755.748	1401.49
755.932	1413.78
756.116	1374.87
756.3	1370.77
756.484	1393.3
756.668	1383.06
756.852	1241.75
757.036	1331.86
757.22	1204.89
757.404	1290.9
757.588	1290.9
757.772	1325.72
757.956	1251.99
758.14	1411.73
758.323	1284.76
758.507	1206.94
758.691	1208.98
758.875	1258.14
759.059	1237.66
759.242	1168.02
759.426	1243.8
759.61	1133.21
759.794	1163.93
759.977	1223.32
760.161	1342.1
760.345	1260.18
760.528	1145.5
760.712	1174.17
760.895	1213.08
761.079	1172.12
761.263	1096.35
761.446	1125.02
761.63	1176.22
761.813	1137.31
761.997	1110.68
762.18	1094.3
762.364	1235.61
762.547	998.04
762.731	1088.15
762.914	1133.21
763.098	1098.39
763.281	1014.43
763.464	1116.83
763.648	1147.55
763.831	1047.19
764.015	1032.86
764.198	1131.16
764.381	1065.63
764.564	965.28
764.748	1073.82
764.931	1069.72
765.114	1073.82
765.297	1079.96
765.481	965.28
765.664	1047.19
765.847	1049.24
766.03	961.18
766.213	1061.53
766.397	1039
766.58	1059.48
766.763	973.47
766.946	1024.67
767.129	938.65
767.312	977.56
767.495	979.61
767.678	1004.19
767.861	1024.67
768.044	1030.81
768.227	975.52
768.41	952.99
768.593	1049.24
768.776	866.97
768.959	998.04
769.142	1004.19
769.324	973.47
769.507	950.94
769.69	952.99
769.873	934.56
770.056	887.45
770.239	934.56
770.421	955.04
770.604	830.11
770.787	940.7
770.97	877.21
771.152	987.8
771.335	891.55
771.518	926.36
771.7	901.79
771.883	869.02
772.066	873.12
772.248	803.49
772.431	948.89
772.613	834.21
772.796	850.59
772.978	844.45
773.161	799.39
773.343	869.02
773.526	899.74
773.708	785.05
773.891	826.01
774.073	838.3
774.256	793.25
774.438	774.81
774.621	805.53
774.803	836.25
774.985	760.48
775.168	907.93
775.35	844.45
775.532	801.44
775.715	748.19
775.897	797.34
776.079	746.14
776.261	762.53
776.444	750.24
776.626	801.44
776.808	672.42
776.99	715.42
777.173	752.29
777.355	680.61
777.537	733.86
777.719	678.56
777.901	682.66
778.083	711.33
778.265	717.47
778.447	735.9
778.629	719.52
778.811	729.76
778.993	662.18
779.175	815.77
779.357	729.76
779.539	580.26
779.721	672.42
779.903	711.33
780.085	699.04
780.267	703.14
780.449	713.38
780.631	688.8
780.812	561.83
780.994	649.89
781.176	613.03
781.358	608.93
781.54	598.69
781.721	637.6
781.903	637.6
782.085	647.84
782.267	662.18
782.448	549.54
782.63	647.84
782.812	610.98
782.993	529.06
783.175	641.7
783.357	549.54
783.538	514.72
783.72	516.77
783.901	631.46
784.083	543.39
784.264	555.68
784.446	539.3
784.627	508.58
784.809	586.4
784.99	539.3
785.172	441
785.353	481.96
785.535	541.35
785.716	457.38
785.897	455.33
786.079	543.39
786.26	512.67
786.441	563.87
786.623	436.9
786.804	459.43
786.985	479.91
787.167	479.91
787.348	406.18
787.529	387.75
787.71	418.47
787.891	395.94
788.073	350.89
788.254	375.46
788.435	551.59
788.616	410.28
788.797	434.85
788.978	416.42
789.159	393.89
789.34	477.86
789.522	385.7
789.703	475.81
789.884	393.89
790.065	443.04
790.246	361.13
790.427	436.9
790.607	459.43
790.788	389.8
790.969	332.45
791.15	395.94
791.331	295.59
791.512	344.74
791.693	350.89
791.874	332.45
792.054	420.52
792.235	389.8
792.416	371.36
792.597	404.13
792.778	453.28
792.958	412.32
793.139	338.6
793.32	334.5
793.5	420.52
793.681	393.89
793.862	354.98
794.042	385.7
794.223	320.17
794.404	305.83
794.584	262.82
794.765	404.13
794.945	416.42
795.126	328.36
795.306	293.54
795.487	363.17
795.667	283.3
795.848	271.01
796.028	322.21
796.209	326.31
796.389	350.89
796.57	293.54
796.75	357.03
796.93	371.36
797.111	309.93
797.291	346.79
797.471	326.31
797.652	305.83
797.832	311.97
798.012	330.41
798.192	311.97
798.373	281.25
798.553	305.83
798.733	309.93
798.913	264.87
799.093	326.31
799.274	268.97
799.454	309.93
799.634	285.35
799.814	240.29
799.994	281.25
800.174	287.4
800.354	322.21
800.534	240.29
800.714	268.97
800.894	230.06
801.074	287.4
801.254	324.26
801.434	328.36
801.614	213.67
801.794	268.97
801.974	776.86
802.154	246.44
802.334	244.39
802.514	160.42
802.693	234.15
802.873	219.82
803.053	262.82
803.233	283.3
803.413	281.25
803.592	248.49
803.772	215.72
803.952	232.1
804.131	228.01
804.311	225.96
804.491	262.82
804.67	185
804.85	246.44
805.03	211.62
805.209	240.29
805.389	203.43
805.568	193.19
805.748	238.25
805.928	260.77
806.107	232.1
806.287	264.87
806.466	201.38
806.646	236.2
806.825	219.82
807.004	238.25
807.184	174.76
807.363	236.2
807.543	236.2
807.722	199.34
807.901	221.86
808.081	221.86
808.26	131.75
808.439	209.58
808.619	223.91
808.798	201.38
808.977	195.24
809.156	203.43
809.336	197.29
809.515	252.58
809.694	207.53
809.873	193.19
810.052	191.14
810.231	230.06
810.411	234.15
810.59	187.05
810.769	170.66
810.948	150.18
811.127	137.9
811.306	156.33
811.485	170.66
811.664	221.86
811.843	205.48
812.022	141.99
812.201	121.51
812.38	201.38
812.559	203.43
812.737	187.05
812.916	182.95
813.095	146.09
813.274	78.51
813.453	195.24
813.632	187.05
813.811	168.62
813.989	156.33
814.168	137.9
814.347	187.05
814.526	160.42
814.704	170.66
814.883	213.67
815.062	244.39
815.24	121.51
815.419	197.29
815.598	123.56
815.776	82.6
815.955	156.33
816.133	101.03
816.312	191.14
816.49	166.57
816.669	209.58
816.847	158.38
817.026	215.72
817.204	45.74
817.383	228.01
817.561	131.75
817.74	191.14
817.918	166.57
818.097	107.18
818.275	117.42
818.453	141.99
818.632	191.14
818.81	121.51
818.988	154.28
819.167	90.79
819.345	137.9
819.523	98.99
819.701	117.42
819.879	111.27
820.058	166.57
820.236	133.8
820.414	101.03
820.592	152.23
820.77	156.33
820.948	109.22
821.127	144.04
821.305	156.33
821.483	156.33
821.661	43.69
821.839	150.18
822.017	103.08
822.195	148.14
822.373	144.04
822.551	88.75
822.729	146.09
822.907	113.32
823.085	90.79
823.262	146.09
823.44	76.46
823.618	172.71
823.796	178.86
823.974	64.17
824.152	60.07
824.329	115.37
824.507	158.38
824.685	117.42
824.863	74.41
825.04	135.85
825.218	105.13
825.396	156.33
825.574	76.46
825.751	82.6
825.929	160.42
826.107	96.94
826.284	139.94
826.462	98.99
826.639	107.18
826.817	66.22
826.994	86.7
827.172	70.31
827.349	96.94
827.527	60.07
827.704	74.41
827.882	76.46
828.059	105.13
828.237	-25.94
828.414	121.51
828.591	137.9
828.769	96.94
828.946	92.84
829.124	105.13
829.301	80.55
829.478	80.55
829.655	66.22
829.833	113.32
830.01	33.45
830.187	55.98
830.364	92.84
830.542	43.69
830.719	76.46
830.896	21.16
831.073	80.55
831.25	115.37
831.427	133.8
831.604	101.03
831.782	111.27
831.959	72.36
832.136	129.7
832.313	176.81
832.49	164.52
832.667	103.08
832.844	94.89
833.021	135.85
833.198	96.94
833.374	144.04
833.551	107.18
833.728	160.42
833.905	135.85
834.082	51.88
834.259	113.32
834.436	94.89
834.612	119.46
834.789	80.55
834.966	76.46
835.143	115.37
835.319	4.78
835.496	82.6
835.673	49.83
835.85	139.94
836.026	31.4
836.203	88.75
836.38	66.22
836.556	146.09
836.733	88.75
836.909	141.99
837.086	84.65
837.262	66.22
837.439	35.5
837.616	68.27
837.792	33.45
837.968	31.4
838.145	72.36
838.321	84.65
838.498	115.37
838.674	131.75
838.851	101.03
839.027	37.55
839.203	76.46
839.38	113.32
839.556	133.8
839.732	113.32
839.909	107.18
840.085	25.26
840.261	125.61
840.437	55.98
840.614	103.08
840.79	80.55
840.966	88.75
841.142	49.83
841.318	25.26
841.494	103.08
841.671	146.09
841.847	47.79
842.023	31.4
842.199	162.47
842.375	49.83
842.551	74.41
842.727	8.87
842.903	60.07
843.079	-15.7
843.255	129.7
843.431	53.93
843.607	29.35
843.783	-64.85
843.959	64.17
844.134	131.75
844.31	137.9
844.486	-9.56
844.662	2.73
844.838	137.9
845.013	68.27
845.189	84.65
845.365	60.07
845.541	51.88
845.716	80.55
845.892	23.21
846.068	43.69
846.244	66.22
846.419	64.17
846.595	2.73
846.77	74.41
846.946	45.74
847.122	23.21
847.297	111.27
847.473	94.89
847.648	55.98
847.824	103.08
847.999	66.22
848.175	58.03
848.35	35.5
848.526	72.36
848.701	125.61
848.876	45.74
849.052	72.36
849.227	41.64
849.403	82.6
849.578	41.64
849.753	21.16
849.929	78.51
850.104	-32.08
850.279	-3.41
850.454	137.9
850.63	115.37
850.805	64.17
850.98	43.69
851.155	64.17
851.33	53.93
851.505	-9.56
851.681	72.36
851.856	72.36
852.031	66.22
852.206	19.11
852.381	29.35
852.556	115.37
852.731	84.65
852.906	33.45
853.081	64.17
853.256	113.32
853.431	35.5
853.606	127.66
853.781	37.55
853.956	47.79
854.131	39.59
854.305	49.83
854.48	55.98
854.655	47.79
854.83	78.51
855.005	-38.23
855.18	10.92
855.354	55.98
855.529	66.22
855.704	45.74
855.879	70.31
856.053	-11.61
856.228	39.59
856.403	12.97
856.577	86.7
856.752	-1.37
856.926	72.36
857.101	80.55
857.276	105.13
857.45	-3.41
857.625	31.4
857.799	74.41
857.974	84.65
858.148	60.07
858.323	17.07
858.497	19.11
858.672	55.98
858.846	15.02
859.02	39.59
859.195	-7.51
859.369	-17.75
859.543	70.31
859.718	-32.08
859.892	-9.56
860.066	86.7
860.241	-44.37
860.415	29.35
860.589	8.87
860.763	49.83
860.938	17.07
861.112	8.87
861.286	31.4
861.46	113.32
861.634	33.45
861.808	90.79
861.982	45.74
862.157	53.93
862.331	76.46
862.505	43.69
862.679	-13.65
862.853	2.73
863.027	35.5
863.201	146.09
863.375	-15.7
863.549	21.16
863.722	-7.51
863.896	72.36
864.07	58.03
864.244	-5.46
864.418	72.36
864.592	68.27
864.766	74.41
864.939	68.27
865.113	-36.18
865.287	80.55
865.461	12.97
865.634	21.16
865.808	47.79
865.982	45.74
866.156	-25.94
866.329	41.64
866.503	31.4
866.676	41.64
866.85	82.6
867.024	10.92
867.197	-68.95
867.371	-9.56
867.544	31.4
867.718	10.92
867.891	-58.71
868.065	37.55
868.238	43.69
868.412	31.4
868.585	31.4
868.759	84.65
868.932	37.55
869.105	-9.56
869.279	-50.52
869.452	-7.51
869.625	45.74
869.799	66.22
869.972	12.97
870.145	53.93
870.319	101.03
870.492	55.98
870.665	-36.18
870.838	37.55
871.011	2.73
871.185	-9.56
871.358	-7.51
871.531	92.84
871.704	-17.75
871.877	-48.47
872.05	-46.42
872.223	25.26
872.396	-15.7
872.569	8.87
872.742	2.73
872.915	66.22
873.088	68.27
873.261	31.4
873.434	10.92
873.607	23.21
873.78	2.73
873.953	107.18
874.126	29.35
874.299	-1.37
874.471	8.87
874.644	-36.18
874.817	86.7
874.99	45.74
875.163	-21.85
875.335	58.03
875.508	-3.41
875.681	39.59
875.853	39.59
876.026	19.11
876.199	15.02
876.371	76.46
876.544	76.46
876.717	-1.37
876.889	-11.61
877.062	33.45
877.234	43.69
877.407	-46.42
877.579	27.31
877.752	66.22
877.924	-52.56
878.097	15.02
878.269	-25.94
878.442	-23.89
878.614	-21.85
878.786	33.45
878.959	-5.46
879.131	70.31
879.303	82.6
879.476	-60.76
879.648	96.94
879.82	31.4
879.993	-25.94
880.165	19.11
880.337	-75.09
880.509	45.74
880.681	4.78
880.854	-1.37
881.026	60.07
881.198	70.31
881.37	-5.46
881.542	-30.04
881.714	21.16
881.886	-50.52
882.058	41.64
882.23	-48.47
882.402	19.11
882.574	25.26
882.746	23.21
882.918	33.45
883.09	-1.37
883.262	84.65
883.434	0.68
883.606	-21.85
883.778	17.07
883.95	33.45
884.122	19.11
884.293	15.02
884.465	62.12
884.637	29.35
884.809	41.64
884.98	15.02
885.152	29.35
885.324	23.21
885.496	6.83
885.667	21.16
885.839	0.68
886.011	68.27
886.182	115.37
886.354	41.64
886.525	35.5
886.697	19.11
886.869	-19.8
887.04	19.11
887.212	37.55
887.383	6.83
887.555	-15.7
887.726	-3.41
887.897	-11.61
888.069	2.73
888.24	0.68
888.412	60.07
888.583	-21.85
888.754	-1.37
888.926	-36.18
889.097	49.83
889.268	29.35
889.44	2.73
889.611	21.16
889.782	-58.71
889.953	-27.99
890.125	17.07
890.296	37.55
890.467	-19.8
890.638	-38.23
890.809	-11.61
890.98	-25.94
891.151	47.79
891.323	4.78
891.494	39.59
891.665	23.21
891.836	2.73
892.007	43.69
892.178	68.27
892.349	39.59
892.52	-25.94
892.691	88.75
892.862	-25.94
893.032	-13.65
893.203	-30.04
893.374	55.98
893.545	17.07
893.716	-5.46
893.887	43.69
894.057	105.13
894.228	-1.37
894.399	-32.08
894.57	15.02
894.74	88.75
894.911	35.5
895.082	15.02
895.253	19.11
895.423	49.83
895.594	47.79
895.764	72.36
895.935	-13.65
896.106	8.87
896.276	-5.46
896.447	21.16
896.617	68.27
896.788	-3.41
896.958	51.88
897.129	33.45
897.299	-48.47
897.47	31.4
897.64	6.83
897.81	60.07
897.981	88.75
898.151	2.73
898.322	6.83
898.492	-40.28
898.662	47.79
898.832	10.92
899.003	27.31
899.173	45.74
899.343	-42.32
899.513	-73.04
