Data from USB4F104151__33__13-10-56-383.txt Node

Date: Fri Mar 14 13:10:56 EDT 2025
User: louis
Spectrometer: USB4F10415
Trigger mode: 4
Integration Time (sec): 2.000000E-2
Scans to average: 1
Electric dark correction enabled: true
Nonlinearity correction enabled: false
Boxcar width: 0
XAxis mode: Wavelengths
Number of Pixels in Spectrum: 3648
>>>>>Begin Spectral Data<<<<<
178.204	-38.4
178.424	-38.4
178.644	-38.4
178.864	-91.65
179.084	-91.65
179.304	45.57
179.524	8.7
179.744	0.51
179.964	4.61
180.184	16.9
180.404	43.52
180.624	-3.58
180.844	25.09
181.064	0.51
181.283	-34.3
181.503	-30.21
181.723	-77.31
181.943	-5.63
182.163	51.71
182.383	59.9
182.602	25.09
182.822	-1.54
183.042	90.62
183.262	74.24
183.482	14.85
183.701	57.86
183.921	43.52
184.141	-19.97
184.361	47.62
184.58	-30.21
184.8	80.38
185.02	4.61
185.239	4.61
185.459	41.47
185.679	29.18
185.898	-65.02
186.118	64
186.338	-3.58
186.557	102.91
186.777	80.38
186.997	39.42
187.216	14.85
187.436	2.56
187.655	43.52
187.875	141.82
188.095	-24.06
188.314	45.57
188.534	68.09
188.753	10.75
188.973	51.71
189.192	70.14
189.412	23.04
189.631	76.29
189.851	4.61
190.07	43.52
190.29	-17.92
190.509	61.95
190.729	55.81
190.948	88.57
191.168	127.49
191.387	41.47
191.607	-9.73
191.826	66.05
192.045	25.09
192.265	25.09
192.484	64
192.704	-60.93
192.923	80.38
193.142	109.05
193.362	33.28
193.581	39.42
193.8	4.61
194.02	66.05
194.239	102.91
194.458	-5.63
194.678	0.51
194.897	31.23
195.116	74.24
195.335	68.09
195.555	64
195.774	74.24
195.993	66.05
196.212	129.53
196.432	35.33
196.651	64
196.87	37.38
197.089	66.05
197.308	27.14
197.528	16.9
197.747	31.23
197.966	-3.58
198.185	113.15
198.404	37.38
198.623	47.62
198.842	78.33
199.062	20.99
199.281	-9.73
199.5	37.38
199.719	53.76
199.938	78.33
200.157	12.8
200.376	0.51
200.595	-15.87
200.814	72.19
201.033	6.66
201.252	64
201.471	8.7
201.69	61.95
201.909	14.85
202.128	43.52
202.347	39.42
202.566	68.09
202.785	61.95
203.004	6.66
203.223	88.57
203.442	96.77
203.661	23.04
203.879	-50.69
204.098	8.7
204.317	29.18
204.536	23.04
204.755	23.04
204.974	57.86
205.193	47.62
205.411	88.57
205.63	115.2
205.849	-3.58
206.068	6.66
206.287	6.66
206.505	29.18
206.724	29.18
206.943	-3.58
207.162	27.14
207.381	45.57
207.599	6.66
207.818	18.94
208.037	29.18
208.255	86.53
208.474	66.05
208.693	31.23
208.911	25.09
209.13	12.8
209.349	76.29
209.567	-34.3
209.786	14.85
210.005	51.71
210.223	55.81
210.442	20.99
210.661	90.62
210.879	86.53
211.098	16.9
211.316	-9.73
211.535	84.48
211.753	14.85
211.972	78.33
212.191	0.51
212.409	27.14
212.628	59.9
212.846	-26.11
213.065	64
213.283	57.86
213.502	143.87
213.72	14.85
213.938	14.85
214.157	-17.92
214.375	51.71
214.594	29.18
214.812	6.66
215.031	25.09
215.249	-24.06
215.467	31.23
215.686	-34.3
215.904	94.72
216.122	25.09
216.341	39.42
216.559	37.38
216.778	90.62
216.996	29.18
217.214	0.51
217.432	-42.5
217.651	43.52
217.869	51.71
218.087	0.51
218.306	111.1
218.524	39.42
218.742	14.85
218.96	25.09
219.179	6.66
219.397	-17.92
219.615	86.53
219.833	59.9
220.051	39.42
220.27	72.19
220.488	23.04
220.706	12.8
220.924	78.33
221.142	-3.58
221.36	115.2
221.578	104.96
221.796	35.33
222.015	20.99
222.233	33.28
222.451	70.14
222.669	-32.26
222.887	70.14
223.105	25.09
223.323	-40.45
223.541	31.23
223.759	39.42
223.977	-36.35
224.195	41.47
224.413	51.71
224.631	66.05
224.849	-7.68
225.067	37.38
225.285	20.99
225.503	33.28
225.721	-22.02
225.939	-17.92
226.157	53.76
226.375	107.01
226.592	-60.93
226.81	-15.87
227.028	6.66
227.246	51.71
227.464	82.43
227.682	4.61
227.9	-36.35
228.117	37.38
228.335	-26.11
228.553	64
228.771	102.91
228.989	35.33
229.206	31.23
229.424	49.66
229.642	0.51
229.86	94.72
230.077	57.86
230.295	72.19
230.513	-17.92
230.731	64
230.948	43.52
231.166	29.18
231.384	29.18
231.601	41.47
231.819	70.14
232.037	-11.78
232.254	0.51
232.472	47.62
232.689	-15.87
232.907	12.8
233.125	41.47
233.342	23.04
233.56	-1.54
233.777	-11.78
233.995	0.51
234.213	61.95
234.43	104.96
234.648	-5.63
234.865	-19.97
235.083	98.81
235.3	25.09
235.518	98.81
235.735	57.86
235.953	78.33
236.17	43.52
236.388	23.04
236.605	12.8
236.822	55.81
237.04	-11.78
237.257	78.33
237.475	29.18
237.692	74.24
237.909	39.42
238.127	72.19
238.344	43.52
238.562	59.9
238.779	12.8
238.996	29.18
239.214	-32.26
239.431	57.86
239.648	-67.07
239.865	94.72
240.083	39.42
240.3	-15.87
240.517	123.39
240.735	80.38
240.952	12.8
241.169	55.81
241.386	33.28
241.603	57.86
241.821	80.38
242.038	-1.54
242.255	29.18
242.472	31.23
242.689	-11.78
242.907	88.57
243.124	70.14
243.341	88.57
243.558	23.04
243.775	-15.87
243.992	20.99
244.209	41.47
244.426	-1.54
244.643	68.09
244.86	31.23
245.078	53.76
245.295	14.85
245.512	78.33
245.729	-13.82
245.946	86.53
246.163	115.2
246.38	47.62
246.597	-1.54
246.814	31.23
247.031	39.42
247.248	111.1
247.464	20.99
247.681	53.76
247.898	-34.3
248.115	57.86
248.332	57.86
248.549	66.05
248.766	-1.54
248.983	53.76
249.2	68.09
249.417	31.23
249.633	14.85
249.85	29.18
250.067	0.51
250.284	-9.73
250.501	55.81
250.717	0.51
250.934	-9.73
251.151	29.18
251.368	35.33
251.585	23.04
251.801	53.76
252.018	6.66
252.235	35.33
252.451	10.75
252.668	35.33
252.885	88.57
253.102	-1.54
253.318	25.09
253.535	6.66
253.752	35.33
253.968	41.47
254.185	18.94
254.401	25.09
254.618	49.66
254.835	64
255.051	68.09
255.268	-42.5
255.484	20.99
255.701	20.99
255.917	20.99
256.134	51.71
256.351	59.9
256.567	16.9
256.784	88.57
257	-50.69
257.217	102.91
257.433	47.62
257.65	-44.54
257.866	55.81
258.082	-13.82
258.299	6.66
258.515	78.33
258.732	90.62
258.948	76.29
259.165	6.66
259.381	23.04
259.597	64
259.814	27.14
260.03	27.14
260.246	74.24
260.463	23.04
260.679	12.8
260.895	-5.63
261.112	51.71
261.328	-3.58
261.544	-22.02
261.761	96.77
261.977	45.57
262.193	6.66
262.409	84.48
262.626	39.42
262.842	68.09
263.058	41.47
263.274	29.18
263.49	-9.73
263.707	39.42
263.923	94.72
264.139	-40.45
264.355	2.56
264.571	78.33
264.787	107.01
265.004	90.62
265.22	55.81
265.436	12.8
265.652	-36.35
265.868	-28.16
266.084	2.56
266.3	80.38
266.516	-24.06
266.732	37.38
266.948	57.86
267.164	25.09
267.38	70.14
267.596	113.15
267.812	8.7
268.028	23.04
268.244	47.62
268.46	72.19
268.676	12.8
268.892	29.18
269.108	94.72
269.324	139.77
269.54	-5.63
269.756	16.9
269.972	29.18
270.188	12.8
270.403	61.95
270.619	14.85
270.835	12.8
271.051	33.28
271.267	20.99
271.483	61.95
271.698	20.99
271.914	25.09
272.13	33.28
272.346	-19.97
272.562	33.28
272.777	90.62
272.993	10.75
273.209	86.53
273.425	59.9
273.64	-3.58
273.856	64
274.072	61.95
274.287	-28.16
274.503	61.95
274.719	41.47
274.934	47.62
275.15	14.85
275.366	-17.92
275.581	-58.88
275.797	29.18
276.012	14.85
276.228	-15.87
276.444	90.62
276.659	-7.68
276.875	-112.13
277.09	53.76
277.306	37.38
277.521	94.72
277.737	51.71
277.952	100.86
278.168	49.66
278.383	-5.63
278.599	-9.73
278.814	41.47
279.03	-13.82
279.245	111.1
279.461	25.09
279.676	55.81
279.892	20.99
280.107	12.8
280.322	49.66
280.538	-15.87
280.753	0.51
280.969	59.9
281.184	25.09
281.399	96.77
281.615	-22.02
281.83	53.76
282.045	12.8
282.26	0.51
282.476	14.85
282.691	59.9
282.906	113.15
283.122	-34.3
283.337	-58.88
283.552	53.76
283.767	51.71
283.983	20.99
284.198	-1.54
284.413	119.29
284.628	53.76
284.843	33.28
285.058	41.47
285.274	25.09
285.489	-28.16
285.704	16.9
285.919	72.19
286.134	14.85
286.349	-22.02
286.564	45.57
286.779	41.47
286.995	102.91
287.21	-28.16
287.425	6.66
287.64	47.62
287.855	8.7
288.07	-73.21
288.285	107.01
288.5	-3.58
288.715	74.24
288.93	-3.58
289.145	64
289.36	39.42
289.575	45.57
289.79	61.95
290.004	8.7
290.219	31.23
290.434	59.9
290.649	-1.54
290.864	123.39
291.079	20.99
291.294	74.24
291.509	18.94
291.724	-26.11
291.938	88.57
292.153	-3.58
292.368	25.09
292.583	74.24
292.798	64
293.012	-50.69
293.227	16.9
293.442	0.51
293.657	-11.78
293.871	61.95
294.086	45.57
294.301	6.66
294.516	94.72
294.73	86.53
294.945	-26.11
295.16	47.62
295.374	68.09
295.589	23.04
295.804	27.14
296.018	68.09
296.233	12.8
296.447	16.9
296.662	70.14
296.877	121.34
297.091	80.38
297.306	94.72
297.52	-40.45
297.735	20.99
297.949	72.19
298.164	31.23
298.378	23.04
298.593	-19.97
298.807	-26.11
299.022	43.52
299.236	4.61
299.451	-26.11
299.665	4.61
299.88	66.05
300.094	47.62
300.309	41.47
300.523	27.14
300.737	41.47
300.952	43.52
301.166	135.68
301.381	53.76
301.595	-11.78
301.809	-36.35
302.024	33.28
302.238	-1.54
302.452	47.62
302.667	14.85
302.881	-3.58
303.095	45.57
303.309	23.04
303.524	-1.54
303.738	0.51
303.952	-15.87
304.166	68.09
304.381	16.9
304.595	8.7
304.809	10.75
305.023	55.81
305.237	12.8
305.452	39.42
305.666	29.18
305.88	111.1
306.094	53.76
306.308	-40.45
306.522	98.81
306.736	45.57
306.95	74.24
307.164	33.28
307.379	47.62
307.593	86.53
307.807	23.04
308.021	47.62
308.235	29.18
308.449	25.09
308.663	-32.26
308.877	55.81
309.091	-15.87
309.305	104.96
309.519	-17.92
309.733	70.14
309.947	-48.64
310.161	76.29
310.374	94.72
310.588	78.33
310.802	8.7
311.016	80.38
311.23	90.62
311.444	20.99
311.658	-3.58
311.872	45.57
312.085	-36.35
312.299	-11.78
312.513	88.57
312.727	18.94
312.941	59.9
313.154	119.29
313.368	-50.69
313.582	29.18
313.796	57.86
314.009	39.42
314.223	35.33
314.437	39.42
314.651	43.52
314.864	27.14
315.078	23.04
315.292	55.81
315.505	111.1
315.719	47.62
315.933	88.57
316.146	-50.69
316.36	-13.82
316.573	12.8
316.787	-11.78
317.001	20.99
317.214	6.66
317.428	72.19
317.641	-5.63
317.855	20.99
318.068	-13.82
318.282	82.43
318.495	39.42
318.709	111.1
318.922	39.42
319.136	55.81
319.349	68.09
319.563	66.05
319.776	-42.5
319.99	70.14
320.203	72.19
320.417	45.57
320.63	31.23
320.843	37.38
321.057	-42.5
321.27	25.09
321.483	23.04
321.697	55.81
321.91	27.14
322.124	66.05
322.337	78.33
322.55	33.28
322.763	88.57
322.977	55.81
323.19	-17.92
323.403	-19.97
323.617	29.18
323.83	8.7
324.043	29.18
324.256	10.75
324.469	-9.73
324.683	72.19
324.896	64
325.109	102.91
325.322	6.66
325.535	55.81
325.748	41.47
325.962	-11.78
326.175	76.29
326.388	37.38
326.601	43.52
326.814	90.62
327.027	-3.58
327.24	78.33
327.453	6.66
327.666	57.86
327.879	47.62
328.092	-3.58
328.305	27.14
328.518	29.18
328.731	70.14
328.944	-11.78
329.157	66.05
329.37	20.99
329.583	41.47
329.796	70.14
330.009	-9.73
330.222	31.23
330.435	49.66
330.648	47.62
330.861	-11.78
331.073	-32.26
331.286	-9.73
331.499	74.24
331.712	72.19
331.925	20.99
332.138	31.23
332.35	-1.54
332.563	12.8
332.776	41.47
332.989	55.81
333.202	6.66
333.414	-30.21
333.627	53.76
333.84	94.72
334.053	-32.26
334.265	86.53
334.478	74.24
334.691	53.76
334.903	12.8
335.116	12.8
335.329	2.56
335.541	80.38
335.754	96.77
335.966	66.05
336.179	70.14
336.392	-36.35
336.604	70.14
336.817	78.33
337.029	37.38
337.242	-5.63
337.454	111.1
337.667	70.14
337.88	92.67
338.092	43.52
338.305	70.14
338.517	72.19
338.729	86.53
338.942	109.05
339.154	47.62
339.367	4.61
339.579	113.15
339.792	33.28
340.004	82.43
340.217	6.66
340.429	37.38
340.641	41.47
340.854	76.29
341.066	-5.63
341.278	96.77
341.491	74.24
341.703	45.57
341.915	31.23
342.128	49.66
342.34	100.86
342.552	10.75
342.764	12.8
342.977	47.62
343.189	18.94
343.401	57.86
343.613	35.33
343.826	33.28
344.038	-32.26
344.25	39.42
344.462	-3.58
344.674	47.62
344.886	18.94
345.099	86.53
345.311	61.95
345.523	55.81
345.735	45.57
345.947	47.62
346.159	64
346.371	-3.58
346.583	-17.92
346.795	64
347.007	-50.69
347.219	20.99
347.431	49.66
347.643	33.28
347.855	51.71
348.067	55.81
348.279	31.23
348.491	25.09
348.703	53.76
348.915	-15.87
349.127	16.9
349.339	25.09
349.551	66.05
349.763	-3.58
349.975	39.42
350.187	98.81
350.399	104.96
350.61	76.29
350.822	111.1
351.034	70.14
351.246	68.09
351.458	72.19
351.669	-34.3
351.881	20.99
352.093	27.14
352.305	64
352.517	-1.54
352.728	37.38
352.94	4.61
353.152	16.9
353.363	-9.73
353.575	86.53
353.787	88.57
353.999	80.38
354.21	66.05
354.422	-69.12
354.633	31.23
354.845	33.28
355.057	70.14
355.268	41.47
355.48	29.18
355.692	-34.3
355.903	59.9
356.115	39.42
356.326	53.76
356.538	76.29
356.749	47.62
356.961	8.7
357.172	-7.68
357.384	86.53
357.595	162.3
357.807	59.9
358.018	-56.83
358.23	113.15
358.441	39.42
358.653	-3.58
358.864	39.42
359.075	39.42
359.287	98.81
359.498	104.96
359.709	45.57
359.921	-13.82
360.132	84.48
360.344	64
360.555	35.33
360.766	49.66
360.977	2.56
361.189	96.77
361.4	35.33
361.611	104.96
361.823	86.53
362.034	23.04
362.245	-38.4
362.456	59.9
362.667	23.04
362.879	76.29
363.09	31.23
363.301	76.29
363.512	41.47
363.723	47.62
363.935	12.8
364.146	66.05
364.357	113.15
364.568	84.48
364.779	12.8
364.99	123.39
365.201	20.99
365.412	72.19
365.623	55.81
365.834	4.61
366.045	55.81
366.256	72.19
366.467	55.81
366.678	14.85
366.889	88.57
367.1	-28.16
367.311	102.91
367.522	90.62
367.733	47.62
367.944	35.33
368.155	39.42
368.366	57.86
368.577	53.76
368.788	72.19
368.999	111.1
369.209	-7.68
369.42	82.43
369.631	74.24
369.842	29.18
370.053	37.38
370.264	59.9
370.474	20.99
370.685	16.9
370.896	53.76
371.107	35.33
371.317	66.05
371.528	61.95
371.739	111.1
371.95	92.67
372.16	74.24
372.371	14.85
372.582	64
372.792	80.38
373.003	115.2
373.214	-30.21
373.424	61.95
373.635	-42.5
373.846	37.38
374.056	35.33
374.267	92.67
374.477	37.38
374.688	-15.87
374.898	64
375.109	76.29
375.319	66.05
375.53	82.43
375.74	43.52
375.951	29.18
376.161	27.14
376.372	64
376.582	-44.54
376.793	20.99
377.003	49.66
377.214	49.66
377.424	113.15
377.635	74.24
377.845	45.57
378.055	47.62
378.266	-3.58
378.476	45.57
378.686	92.67
378.897	31.23
379.107	47.62
379.317	66.05
379.528	33.28
379.738	104.96
379.948	12.8
380.158	-7.68
380.369	39.42
380.579	37.38
380.789	64
380.999	55.81
381.21	88.57
381.42	66.05
381.63	-5.63
381.84	64
382.05	74.24
382.261	123.39
382.471	-60.93
382.681	23.04
382.891	115.2
383.101	31.23
383.311	74.24
383.521	55.81
383.731	37.38
383.941	88.57
384.151	51.71
384.361	20.99
384.571	10.75
384.781	68.09
384.991	82.43
385.201	53.76
385.411	94.72
385.621	8.7
385.831	78.33
386.041	72.19
386.251	-7.68
386.461	53.76
386.671	12.8
386.881	64
387.091	33.28
387.301	35.33
387.511	23.04
387.72	47.62
387.93	70.14
388.14	-73.21
388.35	98.81
388.56	80.38
388.769	74.24
388.979	12.8
389.189	25.09
389.399	61.95
389.609	145.92
389.818	55.81
390.028	4.61
390.238	-3.58
390.447	-19.97
390.657	84.48
390.867	72.19
391.076	-19.97
391.286	61.95
391.496	31.23
391.705	23.04
391.915	104.96
392.125	0.51
392.334	72.19
392.544	104.96
392.753	74.24
392.963	29.18
393.172	70.14
393.382	61.95
393.591	80.38
393.801	72.19
394.01	111.1
394.22	55.81
394.429	20.99
394.639	72.19
394.848	45.57
395.058	47.62
395.267	53.76
395.477	47.62
395.686	-17.92
395.895	133.63
396.105	117.25
396.314	51.71
396.524	104.96
396.733	84.48
396.942	135.68
397.152	45.57
397.361	61.95
397.57	139.77
397.78	94.72
397.989	82.43
398.198	184.83
398.407	102.91
398.617	80.38
398.826	111.1
399.035	94.72
399.244	76.29
399.453	82.43
399.663	152.06
399.872	109.05
400.081	64
400.29	156.16
400.499	86.53
400.708	135.68
400.917	102.91
401.127	107.01
401.336	109.05
401.545	160.25
401.754	135.68
401.963	154.11
402.172	90.62
402.381	109.05
402.59	125.44
402.799	143.87
403.008	154.11
403.217	121.34
403.426	6.66
403.635	111.1
403.844	125.44
404.053	86.53
404.262	113.15
404.471	111.1
404.68	88.57
404.888	129.53
405.097	111.1
405.306	145.92
405.515	127.49
405.724	152.06
405.933	184.83
406.142	166.4
406.35	137.73
406.559	94.72
406.768	213.5
406.977	231.93
407.185	137.73
407.394	135.68
407.603	88.57
407.812	203.26
408.02	197.12
408.229	184.83
408.438	145.92
408.646	195.07
408.855	193.02
409.064	285.18
409.272	190.97
409.481	219.64
409.69	170.49
409.898	217.6
410.107	203.26
410.315	193.02
410.524	262.65
410.733	254.46
410.941	231.93
411.15	223.74
411.358	195.07
411.567	317.95
411.775	307.71
411.984	332.28
412.192	301.56
412.401	303.61
412.609	350.71
412.818	315.9
413.026	367.1
413.234	358.91
413.443	389.63
413.651	332.28
413.86	494.07
414.068	426.49
414.276	451.07
414.485	410.11
414.693	473.59
414.901	434.68
415.11	469.5
415.318	602.61
415.526	508.41
415.734	569.85
415.943	637.43
416.151	594.42
416.359	631.29
416.567	600.57
416.776	594.42
416.984	674.29
417.192	702.97
417.4	692.73
417.608	616.95
417.817	784.88
418.025	774.64
418.233	811.51
418.441	793.08
418.649	825.84
418.857	874.99
419.065	993.78
419.273	1016.3
419.481	987.63
419.689	1022.45
419.897	1122.8
420.105	1135.09
420.313	1176.05
420.521	1200.62
420.729	1188.33
420.937	1266.16
421.145	1266.16
421.353	1325.55
421.561	1395.18
421.769	1329.64
421.977	1374.7
422.185	1425.9
422.393	1610.22
422.601	1794.53
422.809	1690.09
423.017	1655.27
423.224	1782.24
423.432	1792.48
423.64	1843.68
423.848	1970.66
424.056	1901.03
424.263	2038.24
424.471	2062.82
424.679	2025.95
424.887	2197.98
425.094	2222.56
425.302	2347.48
425.51	2376.16
425.718	2515.42
425.925	2423.26
426.133	2619.86
426.341	2730.45
426.548	2869.72
426.756	2851.28
426.964	2906.58
427.171	3027.41
427.379	3039.7
427.586	3183.06
427.794	3383.76
428.001	3324.37
428.209	3553.74
428.417	3475.91
428.624	3856.84
428.832	3822.02
429.039	3744.2
429.247	3717.58
429.454	4008.39
429.662	4436.41
429.869	4141.5
430.076	4291.01
430.284	4202.94
430.491	4444.6
430.699	4630.97
430.906	4630.97
431.114	4749.75
431.321	4858.29
431.528	5069.23
431.736	5263.79
431.943	5634.47
432.15	5296.56
432.358	5476.78
432.565	5706.15
432.772	5687.72
432.979	6132.13
433.187	6289.82
433.394	5927.33
433.601	6685.08
433.808	6584.73
434.016	6527.39
434.223	6939.03
434.43	7233.94
434.637	7188.88
434.844	7678.35
435.052	7614.86
435.259	7647.63
435.466	7694.73
435.673	7696.78
435.88	8311.17
436.087	8698.24
436.294	8675.71
436.501	8475.01
436.708	8597.88
436.915	9003.38
437.122	9277.81
437.329	9175.41
437.537	9427.31
437.743	9703.79
437.95	9632.11
438.157	10254.69
438.364	10484.06
438.571	10439.01
438.778	10330.47
438.985	11522.38
439.192	11000.15
439.399	11415.89
439.606	11102.55
439.813	11667.79
440.02	12587.33
440.227	12183.88
440.433	12249.41
440.64	12710.21
440.847	12468.55
441.054	12654.91
441.261	13687.09
441.467	13566.26
441.674	13605.17
441.881	14246.18
442.088	14078.25
442.294	14225.7
442.501	14276.9
442.708	14776.61
442.914	15366.42
443.121	15960.33
443.328	15677.71
443.534	16638.21
443.741	16310.54
443.948	15714.58
444.154	17117.43
444.361	17215.74
444.568	17201.4
444.774	17256.7
444.981	17266.94
445.187	17928.43
445.394	18512.1
445.6	18491.62
445.807	20050.13
446.013	19359.96
446.22	19564.76
446.426	20347.08
446.633	20666.56
446.839	21315.77
447.046	20779.2
447.252	21715.12
447.459	21641.4
447.665	21663.93
447.871	22628.52
448.078	23689.37
448.284	22730.92
448.491	23357.6
448.697	24101.01
448.903	24535.18
449.11	24713.35
449.316	24410.25
449.522	24731.78
449.728	25489.53
449.935	25460.86
450.141	25620.6
450.347	26194.03
450.553	25186.43
450.76	25944.18
450.966	26454.12
451.172	26241.14
451.378	27175.01
451.584	26493.04
451.791	27306.08
451.997	27172.96
452.203	27582.56
452.409	27643.99
452.615	27568.22
452.821	26294.38
453.027	26257.52
453.233	27662.43
453.44	26490.99
453.646	27226.21
453.852	26994.79
454.058	27377.76
454.264	26847.33
454.47	27234.4
454.676	26847.33
454.882	27629.66
455.088	25190.53
455.294	25331.84
455.5	25983.09
455.705	26429.55
455.911	25202.82
456.117	24893.57
456.323	24248.46
456.529	23040.16
456.735	24207.5
456.941	23707.8
457.147	22872.23
457.352	22757.54
457.558	22431.91
457.764	22413.48
457.97	21926.07
458.176	21713.08
458.381	21518.52
458.587	20394.18
458.793	20422.86
458.999	19480.79
459.204	20635.85
459.41	20297.93
459.616	18829.54
459.821	18999.52
460.027	18675.94
460.233	18387.18
460.438	17518.84
460.644	17707.25
460.85	17010.94
461.055	16570.63
461.261	16744.7
461.466	15094.04
461.672	14928.16
461.878	16048.4
462.083	14893.34
462.289	14522.66
462.494	14371.11
462.7	13938.99
462.905	13375.8
463.111	13867.31
463.316	13830.44
463.522	13726
463.727	13668.66
463.932	13656.37
464.138	13513.01
464.343	13545.78
464.549	13244.73
464.754	13599.02
464.959	13285.69
465.165	13769.01
465.37	12837.18
465.575	12722.49
465.781	12841.28
465.986	13236.53
466.191	12513.6
466.397	12265.8
466.602	11854.16
466.807	12144.97
467.012	12357.96
467.218	12050.76
467.423	11837.77
467.628	12147.01
467.833	12570.94
468.038	12069.19
468.244	11800.91
468.449	12349.76
468.654	11888.97
468.859	11743.56
469.064	11766.09
469.269	11120.98
469.474	11352.4
469.679	11528.53
469.885	11315.54
470.09	11544.91
470.295	11434.32
470.5	11133.27
470.705	11139.41
470.91	11039.06
471.115	10860.89
471.32	10828.12
471.525	10836.31
471.73	10778.97
471.935	10697.05
472.139	10295.65
472.344	10328.42
472.549	10324.32
472.754	9920.87
472.959	9867.63
473.164	9867.63
473.369	9703.79
473.574	9869.67
473.778	9851.24
473.983	9838.95
474.188	9759.08
474.393	9398.64
474.598	9568.62
474.802	9224.56
475.007	9335.15
475.212	9163.12
475.417	8950.14
475.621	8817.02
475.826	8843.64
476.031	8731
476.235	8622.46
476.44	8855.93
476.645	8624.51
476.849	8554.88
477.054	8493.44
477.259	8159.62
477.463	8311.17
477.668	8237.44
477.872	8378.75
478.077	8112.52
478.282	7909.77
478.486	7860.62
478.691	7766.41
478.895	7922.06
479.1	7664.01
479.304	7733.64
479.509	7563.66
479.713	7655.82
479.918	7420.3
480.122	7375.25
480.326	7504.27
480.531	7483.79
480.735	7344.53
480.94	7387.54
481.144	7532.94
481.348	7223.7
481.553	7154.07
481.757	7127.44
481.961	7135.64
482.166	7362.96
482.37	7117.2
482.574	7080.34
482.778	7018.9
482.983	7307.66
483.187	7072.15
483.391	7174.55
483.595	7008.66
483.8	6922.65
484.004	7082.39
484.208	7119.25
484.412	7117.2
484.616	6984.09
484.821	7162.26
485.025	6961.56
485.229	7172.5
485.433	7229.84
485.637	7074.2
485.841	7305.62
486.045	7205.27
486.249	7268.75
486.453	7096.72
486.657	7164.31
486.861	7145.87
487.065	6863.26
487.269	7295.38
487.473	7111.06
487.677	7233.94
487.881	7137.68
488.085	7143.83
488.289	7291.28
488.493	7072.15
488.697	7231.89
488.901	7188.88
489.105	7125.4
489.309	7076.24
489.512	7256.47
489.716	7270.8
489.92	7287.18
490.124	7352.72
490.328	7340.43
490.531	7256.47
490.735	7418.25
490.939	7293.33
491.143	7422.35
491.346	7436.69
491.55	7408.01
491.754	7528.85
491.958	7506.32
492.161	7336.34
492.365	7768.46
492.569	7377.3
492.772	7621
492.976	7588.24
493.18	7745.93
493.383	7780.75
493.587	7813.51
493.79	7827.85
493.994	7836.04
494.197	7956.87
494.401	7762.31
494.605	7819.66
494.808	7844.23
495.012	8016.26
495.215	8188.29
495.419	8173.96
495.622	8153.48
495.825	8436.1
496.029	8296.83
496.232	8610.17
496.436	8294.79
496.639	8857.98
496.843	8565.12
497.046	8868.22
497.249	8903.03
497.453	8655.23
497.656	9099.64
497.859	8943.99
498.063	9138.55
498.266	9331.06
498.469	9154.93
498.673	9435.5
498.876	9376.11
499.079	9466.22
499.282	9560.43
499.485	9967.98
499.689	9683.31
499.892	10053.99
500.095	9886.06
500.298	10256.74
500.501	10152.29
500.705	10617.18
500.908	10608.99
501.111	10393.95
501.314	10592.61
501.517	10852.7
501.72	11030.87
501.923	10926.43
502.126	11245.91
502.329	11170.13
502.532	11530.58
502.735	11448.66
502.938	11614.54
503.141	11895.11
503.344	11989.32
503.547	11917.64
503.75	12050.76
503.953	12347.72
504.156	12523.84
504.359	12611.9
504.562	12609.86
504.765	12706.11
504.968	13068.6
505.17	12886.33
505.373	13199.67
505.576	13558.07
505.779	13443.38
505.982	13457.71
506.185	13865.26
506.387	13838.64
506.59	14131.5
506.793	14266.66
506.996	14258.47
507.198	14766.37
507.401	14479.65
507.604	14895.39
507.807	15077.66
508.009	15214.87
508.212	15231.26
508.415	15587.6
508.617	15522.07
508.82	15882.51
509.022	15751.44
509.225	16056.59
509.428	16091.4
509.63	16238.86
509.833	16498.95
510.035	16877.82
510.238	16892.16
510.44	16888.06
510.643	16978.17
510.845	17244.41
511.048	17314.04
511.25	17518.84
511.453	17768.69
511.655	18098.41
511.858	17928.43
512.06	18104.56
512.262	18428.13
512.465	18571.49
512.667	18733.28
512.87	19042.53
513.072	18759.91
513.274	19390.68
513.477	19577.05
513.679	19695.83
513.881	20009.17
514.084	20316.36
514.286	20074.7
514.488	20173
514.69	20947.14
514.893	20871.36
515.095	21143.74
515.297	21139.65
515.499	21207.23
515.701	21690.55
515.904	21772.47
516.106	21958.83
516.308	22177.97
516.51	22575.27
516.712	22479.02
516.914	22315.18
517.116	23210.14
517.318	23222.43
517.52	23339.16
517.722	23226.53
517.925	23584.92
518.127	24125.58
518.329	23912.6
518.531	23814.29
518.733	24635.53
518.935	24492.17
519.136	24709.25
519.338	25190.53
519.54	25411.71
519.742	25575.55
519.944	25493.63
520.146	26024.05
520.348	26048.63
520.55	25954.42
520.752	26613.87
520.954	26824.81
521.155	26728.55
521.357	26964.07
521.559	27457.63
521.761	27660.38
521.963	27363.42
522.164	27850.84
522.366	27951.19
522.568	28375.12
522.77	27965.53
522.971	28885.06
523.173	28319.82
523.375	28694.6
523.576	28686.41
523.778	29118.53
523.98	29595.71
524.181	29323.33
524.383	29225.03
524.584	29966.39
524.786	30169.14
524.988	29843.51
525.189	30308.4
525.391	30359.6
525.592	30574.64
525.794	30390.32
525.995	30652.46
526.197	30748.71
526.398	31100.97
526.6	31072.29
526.801	30969.9
527.003	31225.89
527.204	31397.92
527.406	31692.83
527.607	31615.01
527.808	31778.84
528.01	31244.32
528.211	31916.06
528.412	32491.54
528.614	32172.05
528.815	31899.67
529.016	32616.46
529.218	32430.1
529.419	32389.14
529.62	32436.24
529.822	32368.66
530.023	32610.32
530.224	32608.27
530.425	32868.36
530.626	32786.44
530.828	32421.91
531.029	33302.53
531.23	32602.13
531.431	33011.72
531.632	33396.74
531.833	33265.67
532.035	33132.55
532.236	33161.22
532.437	33435.65
532.638	33155.08
532.839	33148.93
533.04	33384.45
533.241	33040.39
533.442	33841.15
533.643	33525.76
533.844	33482.75
534.045	33501.18
534.246	33445.89
534.447	33437.7
534.648	33546.24
534.849	33339.4
535.05	33267.72
535.251	33423.36
535.451	33286.15
535.652	33685.5
535.853	33388.55
536.054	33689.6
536.255	33818.62
536.456	33384.45
536.657	33667.07
536.857	33538.05
537.058	33271.81
537.259	33800.19
537.46	33566.72
537.66	33640.45
537.861	33705.98
538.062	33435.65
538.263	33540.1
538.463	33761.28
538.664	33540.1
538.865	33601.54
539.065	33910.78
539.266	33421.31
539.466	33646.59
539.667	33437.7
539.868	33499.14
540.068	33781.76
540.269	33439.75
540.469	33794.04
540.67	33648.64
540.87	33671.17
541.071	33533.95
541.271	33464.32
541.472	33538.05
541.672	33087.5
541.873	33320.96
542.073	32901.13
542.274	33679.36
542.474	33431.55
542.675	33247.24
542.875	33665.02
543.075	33718.27
543.276	33234.95
543.476	33587.2
543.676	33316.87
543.877	33181.7
544.077	33546.24
544.277	33394.69
544.478	33105.93
544.678	33564.67
544.878	33484.8
545.078	33423.36
545.279	33202.18
545.479	32917.51
545.679	33683.45
545.879	33325.06
546.079	33630.21
546.28	33069.06
546.48	33120.26
546.68	33427.46
546.88	33523.71
547.08	33480.71
547.28	33630.21
547.48	33210.37
547.68	33363.97
547.88	33372.16
548.081	33398.79
548.281	33099.78
548.481	33081.35
548.681	33701.89
548.881	33282.05
549.081	33167.37
549.28	33298.44
549.48	33060.87
549.68	33343.49
549.88	33525.76
550.08	32897.03
550.28	33433.6
550.48	32772.11
550.68	33720.32
550.88	32985.1
551.08	33325.06
551.279	33372.16
551.479	32944.14
551.679	33253.38
551.879	33052.68
552.079	33132.55
552.278	32849.93
552.478	33370.11
552.678	32995.34
552.878	33370.11
553.077	33052.68
553.277	32630.8
553.477	33122.31
553.676	33077.26
553.876	32620.56
554.076	32849.93
554.275	32589.84
554.475	32837.64
554.674	32915.47
554.874	32718.86
555.074	32897.03
555.273	32788.49
555.473	32823.31
555.672	32804.88
555.872	32739.34
556.071	32616.46
556.271	32628.75
556.47	32741.39
556.67	31961.11
556.869	32546.83
557.068	32677.9
557.268	32380.95
557.467	32215.06
557.667	32198.68
557.866	32702.48
558.065	32188.44
558.265	32088.09
558.464	32241.68
558.663	32528.4
558.863	31889.43
559.062	32149.53
559.261	31848.47
559.461	32221.2
559.66	31817.75
559.859	31895.58
560.058	31778.84
560.258	31977.5
560.457	31842.33
560.656	31744.03
560.855	31930.39
561.054	32106.52
561.253	31162.4
561.453	31813.66
561.652	31334.43
561.851	31725.6
562.05	31557.66
562.249	31285.28
562.448	31309.86
562.647	31502.37
562.846	31125.54
563.045	31189.03
563.244	31225.89
563.443	31504.42
563.642	30898.22
563.841	30937.13
564.04	30711.85
564.239	31123.49
564.438	30711.85
564.637	30666.8
564.836	30818.35
565.035	30388.27
565.234	30799.91
565.432	30404.66
565.631	30498.86
565.83	30867.5
566.029	30302.26
566.228	30312.5
566.427	29900.86
566.625	29976.63
566.824	29794.36
567.023	30230.58
567.222	29677.63
567.42	30208.05
567.619	30009.4
567.818	29845.56
568.016	29792.31
568.215	29876.28
568.414	29462.59
568.612	29403.2
568.811	29501.5
569.01	29622.33
569.208	29569.08
569.407	29399.1
569.605	28901.45
569.804	29405.25
570.002	29065.28
570.201	29343.81
570.4	28901.45
570.598	28985.41
570.797	28577.87
570.995	28792.9
571.193	28549.2
571.392	28919.88
571.59	28622.92
571.789	28559.44
571.987	28565.58
572.186	28418.13
572.384	28289.1
572.582	28543.05
572.781	28512.33
572.979	27760.73
573.177	28190.8
573.376	28262.48
573.574	27938.9
573.772	28069.97
573.971	27723.86
574.169	27482.2
574.367	27553.88
574.565	27752.54
574.763	27404.38
574.962	27373.66
575.16	27074.66
575.358	27498.59
575.556	27064.42
575.754	27068.51
575.952	26968.16
576.151	27199.58
576.349	26703.98
576.547	27070.56
576.745	26853.48
576.943	26878.05
577.141	26769.51
577.339	26968.16
577.537	26669.16
577.735	26364.01
577.933	26501.23
578.131	26443.88
578.329	26206.32
578.527	25985.14
578.725	26183.79
578.923	26183.79
579.121	25979
579.319	26245.23
579.516	26065.01
579.714	25993.33
579.912	25694.33
580.11	25872.5
580.308	25786.49
580.506	25665.66
580.704	25426.04
580.901	25989.24
581.099	25419.9
581.297	25534.59
581.495	25550.97
581.692	25438.33
581.89	25022.59
582.088	25331.84
582.285	25223.3
582.483	25272.45
582.681	25006.21
582.878	24785.03
583.076	24588.42
583.274	25329.79
583.471	24496.27
583.669	24656.01
583.866	24623.24
584.064	24541.32
584.262	24256.65
584.459	24475.79
584.657	24289.42
584.854	24690.82
585.052	24023.19
585.249	24316.04
585.447	24002.71
585.644	23666.84
585.841	24082.58
586.039	24051.86
586.236	23855.25
586.434	23554.2
586.631	23988.37
586.828	23789.72
587.026	23584.92
587.223	23566.49
587.42	23629.98
587.618	23738.52
587.815	23466.14
588.012	23330.97
588.21	23226.53
588.407	23515.29
588.604	23378.08
588.801	22907.04
588.999	23054.5
589.196	22972.58
589.393	22761.64
589.59	22769.83
589.787	22952.1
589.984	22644.9
590.182	22249.64
590.379	22483.11
590.576	22380.71
590.773	22403.24
590.97	22393
591.167	22374.57
591.364	22034.61
591.561	22366.38
591.758	21764.28
591.955	22188.21
592.152	22206.64
592.349	21678.26
592.546	22137.01
592.743	22028.46
592.94	21655.73
593.137	21704.88
593.334	21690.55
593.531	21661.88
593.727	21864.63
593.924	21606.58
594.121	21360.83
594.318	21528.76
594.515	21039.29
594.712	21625.01
594.908	21096.64
595.105	21131.45
595.302	21297.34
595.499	21129.41
595.696	21246.14
595.892	20807.87
596.089	21033.15
596.286	20824.26
596.482	20781.25
596.679	20580.55
596.876	20588.74
597.072	20517.06
597.269	20449.48
597.466	20373.71
597.662	20209.87
597.859	20281.55
598.055	20437.19
598.252	20113.61
598.448	20193.48
598.645	20058.32
598.841	19947.73
599.038	20127.95
599.234	20076.75
599.431	19824.85
599.627	19945.68
599.824	20035.79
600.02	19564.76
600.217	19742.93
600.413	19591.38
600.609	19599.57
600.806	19599.57
601.002	19486.93
601.198	19368.15
601.395	19362.01
601.591	19067.1
601.787	19394.78
601.984	19298.52
602.18	19146.97
602.376	18933.98
602.572	18944.22
602.769	18755.81
602.965	18632.93
603.161	19017.95
603.357	18768.1
603.553	18610.4
603.75	18589.92
603.946	18618.6
604.142	18725.09
604.338	18370.79
604.534	18360.55
604.73	18161.9
604.926	18299.11
605.122	18325.74
605.318	18200.81
605.514	17969.39
605.71	18104.56
605.906	18014.45
606.102	18100.46
606.298	17905.9
606.494	17903.85
606.69	17885.42
606.886	17848.56
607.082	17613.04
607.278	17973.49
607.474	17510.64
607.67	17662.19
607.866	17281.27
608.062	17539.32
608.257	17662.19
608.453	17719.54
608.649	17256.7
608.845	17424.63
609.041	17322.23
609.236	17453.3
609.432	17336.57
609.628	17236.22
609.824	17338.62
610.019	17322.23
610.215	17240.31
610.411	17139.96
610.606	17025.28
610.802	17162.49
610.998	17045.76
611.193	17021.18
611.389	16879.87
611.584	16943.36
611.78	16836.86
611.976	16941.31
612.171	17029.37
612.367	17029.37
612.562	16679.17
612.758	16517.38
612.953	16359.69
613.149	16830.72
613.344	16455.94
613.539	16730.37
613.735	16720.13
613.93	16535.81
614.126	16544
614.321	16738.56
614.517	16505.09
614.712	16298.25
614.907	16294.15
615.103	16447.75
615.298	16216.33
615.493	16396.55
615.688	16103.69
615.884	16113.93
616.079	16036.11
616.274	16269.58
616.47	16103.69
616.665	16247.05
616.86	15859.98
617.055	16029.96
617.25	16054.54
617.445	16183.56
617.641	15419.67
617.836	16128.27
618.031	15720.72
618.226	15917.33
618.421	15745.3
618.616	15823.12
618.811	15452.44
619.006	15806.73
619.201	15415.57
619.396	15700.24
619.591	15247.64
619.786	15612.18
619.981	15163.67
620.176	15202.58
620.371	15206.68
620.566	15241.5
620.761	14985.5
620.956	15124.76
621.151	14985.5
621.346	14768.41
621.541	14868.77
621.735	14876.96
621.93	14618.91
622.125	14651.68
622.32	14274.85
622.515	14414.12
622.709	14434.6
622.904	14035.24
623.099	14057.77
623.294	14168.36
623.488	14025
623.683	13981.99
623.878	13726
624.072	13941.04
624.267	13750.57
624.462	13781.29
624.656	13570.35
624.851	13621.55
625.046	13494.58
625.24	13453.62
625.435	13406.52
625.629	13332.79
625.824	13273.4
626.018	13062.46
626.213	12855.61
626.407	13193.53
626.602	12769.6
626.796	12878.14
626.991	12835.13
627.185	12796.22
627.38	12824.89
627.574	12800.32
627.768	12646.72
627.963	12233.03
628.157	12329.28
628.352	12437.83
628.546	12341.57
628.74	12347.72
628.935	12202.31
629.129	12562.75
629.323	11997.51
629.517	12061
629.712	11977.03
629.906	12046.66
630.1	11790.67
630.294	11831.63
630.489	11579.73
630.683	11850.06
630.877	11489.62
631.071	11444.56
631.265	11506
631.459	11286.87
631.653	11387.22
631.848	11342.16
632.042	11204.95
632.236	11362.64
632.43	11075.93
632.624	11102.55
632.818	10854.75
633.012	10754.4
633.206	10750.3
633.4	11012.44
633.594	10598.75
633.788	10711.39
633.982	10637.66
634.176	10697.05
634.369	10811.74
634.563	10518.88
634.757	10486.11
634.951	10357.09
635.145	10494.3
635.339	10467.68
635.533	10170.72
635.726	10398.05
635.92	10041.7
636.114	10305.89
636.308	10221.92
636.501	9959.78
636.695	10097
636.889	9730.41
637.083	9714.03
637.276	9834.86
637.47	9812.33
637.664	9677.16
637.857	9711.98
638.051	9761.13
638.244	9537.9
638.438	9585.01
638.632	9505.13
638.825	9333.11
639.019	9337.2
639.212	9204.08
639.406	9208.18
639.599	9202.04
639.793	9376.11
639.986	9066.87
640.18	9185.65
640.373	9050.49
640.567	9122.16
640.76	8925.56
640.954	9181.56
641.147	8757.63
641.34	8857.98
641.534	8710.52
641.727	8692.09
641.92	8757.63
642.114	8628.6
642.307	8692.09
642.5	8673.66
642.694	8401.28
642.887	8280.45
643.08	8444.29
643.273	8296.83
643.467	8176
643.66	8345.98
643.853	8288.64
644.046	8126.85
644.239	8216.96
644.432	8114.56
644.626	7942.53
644.819	8229.25
645.012	7905.67
645.205	7917.96
645.398	8073.6
645.591	7780.75
645.784	7946.63
645.977	7612.81
646.17	7805.32
646.363	7688.59
646.556	7545.23
646.749	7692.68
646.942	7649.68
647.135	7676.3
647.328	7623.05
647.521	7451.02
647.714	7332.24
647.907	7338.38
648.099	7371.15
648.292	7248.27
648.485	7254.42
648.678	7192.98
648.871	7250.32
649.064	7113.11
649.256	7174.55
649.449	7147.92
649.642	7113.11
649.835	7066
650.027	7109.01
650.22	7111.06
650.413	6941.08
650.605	6932.89
650.798	6822.3
650.991	6676.89
651.183	6709.66
651.376	6654.36
651.568	6637.98
651.761	6535.58
651.954	6537.63
652.146	6623.64
652.339	6496.67
652.531	6539.68
652.724	6472.09
652.916	6472.09
653.109	6490.52
653.301	6437.28
653.494	6310.3
653.686	6181.28
653.879	6371.74
654.071	6328.74
654.263	6050.21
654.456	6267.3
654.648	6287.78
654.84	6091.17
655.033	6230.43
655.225	5917.09
655.417	6113.7
655.61	6052.26
655.802	5896.61
655.994	5880.23
656.186	5972.39
656.379	6019.49
656.571	5882.28
656.763	5747.11
656.955	5765.54
657.148	5779.88
657.34	5777.83
657.532	5648.81
657.724	5728.68
657.916	5548.46
658.108	5654.95
658.3	5642.67
658.492	5638.57
658.684	5370.29
658.876	5423.53
659.068	5384.62
659.26	5431.73
659.452	5454.25
659.644	5452.2
659.836	5319.09
660.028	5380.53
660.22	5249.46
660.412	5171.63
660.604	5226.93
660.796	5386.67
660.988	5188.02
661.18	5128.63
661.372	4940.21
661.563	5132.72
661.755	5085.62
661.947	5130.67
662.139	4960.69
662.331	4942.26
662.522	4952.5
662.714	4979.12
662.906	4823.48
663.097	5003.7
663.289	4960.69
663.481	4839.86
663.673	4821.43
663.864	4792.76
664.056	4807.09
664.247	4803
664.439	4723.13
664.631	4626.87
664.822	4762.04
665.014	4624.83
665.205	4610.49
665.397	4536.76
665.588	4618.68
665.78	4612.54
665.971	4657.59
666.163	4649.4
666.354	4536.76
666.546	4440.51
666.737	4411.84
666.929	4436.41
667.12	4364.73
667.311	4426.17
667.503	4229.57
667.694	4243.9
667.885	4344.25
668.077	4497.85
668.268	4323.77
668.459	4200.9
668.651	4299.2
668.842	4151.74
669.033	4274.62
669.224	4198.85
669.416	4166.08
669.607	4215.23
669.798	4147.65
669.989	4227.52
670.18	4141.5
670.371	4219.33
670.563	3936.71
670.754	4184.51
670.945	4047.3
671.136	4065.73
671.327	3899.84
671.518	3989.96
671.709	3979.72
671.9	3803.59
672.091	3856.84
672.282	3895.75
672.473	3797.45
672.664	3867.08
672.855	3744.2
673.046	3748.29
673.237	3922.37
673.428	3873.22
673.619	3731.91
673.809	3809.73
674	3809.73
674.191	3781.06
674.382	3693
674.573	3828.17
674.764	3830.21
674.954	3717.58
675.145	3684.81
675.336	3588.55
675.527	3674.57
675.717	3588.55
675.908	3518.92
676.099	3707.34
676.289	3625.42
676.48	3531.21
676.671	3586.51
676.861	3465.68
677.052	3518.92
677.243	3443.15
677.433	3584.46
677.624	3445.2
677.814	3451.34
678.005	3477.96
678.195	3379.66
678.386	3453.39
678.576	3547.59
678.767	3346.89
678.957	3414.48
679.148	3277.26
679.338	3273.17
679.529	3494.35
679.719	3371.47
679.909	3316.17
680.1	3240.4
680.29	3295.69
680.481	3336.65
680.671	3248.59
680.861	3217.87
681.052	3299.79
681.242	3133.9
681.432	3346.89
681.622	3045.84
681.813	3156.43
682.003	3236.3
682.193	2957.78
682.383	3277.26
682.573	3219.92
682.764	3174.86
682.954	3234.25
683.144	3254.73
683.334	3129.81
683.524	3033.55
683.714	3109.33
683.904	3125.71
684.094	3230.16
684.284	3142.1
684.474	2965.97
684.664	3170.77
684.854	2961.87
685.044	3013.07
685.234	3017.17
685.424	3166.67
685.614	2947.54
685.804	2951.63
685.994	2970.07
686.184	2994.64
686.374	2982.35
686.564	2998.74
686.753	2830.8
686.943	2943.44
687.133	2908.63
687.323	2855.38
687.513	2992.59
687.702	2963.92
687.892	2884.05
688.082	2875.86
688.272	2902.48
688.461	2802.13
688.651	2925.01
688.841	2744.79
689.03	2820.56
689.22	2744.79
689.41	2804.18
689.599	2779.61
689.789	2847.19
689.979	2888.15
690.168	2732.5
690.358	2699.73
690.547	2732.5
690.737	2707.93
690.926	2662.87
691.116	2634.2
691.305	2839
691.495	2677.21
691.684	2619.86
691.874	2621.91
692.063	2632.15
692.252	2757.08
692.442	2617.82
692.631	2550.23
692.82	2603.48
693.01	2539.99
693.199	2597.34
693.388	2456.03
693.578	2580.95
693.767	2523.61
693.956	2486.75
694.146	2564.57
694.335	2511.32
694.524	2611.67
694.713	2628.06
694.902	2546.14
695.092	2525.66
695.281	2568.66
695.47	2509.27
695.659	2300.38
695.848	2408.92
696.037	2488.79
696.226	2347.48
696.415	2388.44
696.604	2415.07
696.793	2322.91
696.982	2451.93
697.171	2429.4
697.36	2327
697.549	2294.24
697.738	2390.49
697.927	2347.48
698.116	2281.95
698.305	2398.68
698.494	2318.81
698.683	2413.02
698.872	2458.07
699.061	2400.73
699.25	2417.12
699.438	2296.28
699.627	2312.67
699.816	2466.27
700.005	2255.33
700.193	2351.58
700.382	2347.48
700.571	2345.44
700.76	2476.51
700.948	2390.49
701.137	2226.65
701.326	2267.61
701.514	2212.32
701.703	2243.04
701.892	2130.4
702.08	2341.34
702.269	2228.7
702.457	2298.33
702.646	2386.4
702.834	2269.66
703.023	2204.13
703.212	2357.72
703.4	2322.91
703.589	2314.72
703.777	2322.91
703.965	2210.27
704.154	2292.19
704.342	2206.17
704.531	2327
704.719	2212.32
704.907	2171.36
705.096	2134.5
705.284	2187.74
705.472	2284
705.661	2214.37
705.849	2216.41
706.037	2124.26
706.226	2173.41
706.414	2191.84
706.602	2273.76
706.79	2163.17
706.979	2161.12
707.167	2179.55
707.355	2218.46
707.543	2294.24
707.731	2136.54
707.919	2181.6
708.107	2193.89
708.296	2265.57
708.484	2128.35
708.672	2247.13
708.86	2212.32
709.048	2279.9
709.236	2140.64
709.424	2240.99
709.612	2134.5
709.8	2161.12
709.988	2173.41
710.176	2238.94
710.364	2142.69
710.551	2220.51
710.739	2134.5
710.927	2177.5
711.115	2150.88
711.303	2157.02
711.491	2208.22
711.679	2200.03
711.866	2023.91
712.054	2197.98
712.242	2232.8
712.43	2169.31
712.617	2257.37
712.805	2028
712.993	2087.39
713.181	2103.78
713.368	2159.07
713.556	2159.07
713.744	2167.26
713.931	2253.28
714.119	2122.21
714.306	2134.5
714.494	2140.64
714.682	2161.12
714.869	2150.88
715.057	2152.93
715.244	2154.98
715.432	2187.74
715.619	2238.94
715.807	2224.61
715.994	2163.17
716.182	2224.61
716.369	2189.79
716.556	2240.99
716.744	2218.46
716.931	2126.3
717.119	2243.04
717.306	2281.95
717.493	2079.2
717.681	2138.59
717.868	2331.1
718.055	2265.57
718.242	2173.41
718.43	2161.12
718.617	2171.36
718.804	2245.09
718.991	2273.76
719.179	2324.96
719.366	2240.99
719.553	2265.57
719.74	2126.3
719.927	2154.98
720.114	2081.25
720.301	2210.27
720.488	2175.45
720.676	2157.02
720.863	2185.69
721.05	2136.54
721.237	2173.41
721.424	2120.16
721.611	2144.74
721.798	2220.51
721.985	2150.88
722.172	2181.6
722.358	2189.79
722.545	2130.4
722.732	1997.28
722.919	2257.37
723.106	2144.74
723.293	2171.36
723.48	2157.02
723.667	2093.54
723.853	2214.37
724.04	2183.65
724.227	2173.41
724.414	2048.48
724.6	2169.31
724.787	2138.59
724.974	2265.57
725.161	2128.35
725.347	2193.89
725.534	2171.36
725.72	2167.26
725.907	2216.41
726.094	2171.36
726.28	2204.13
726.467	2181.6
726.653	2218.46
726.84	2204.13
727.027	2159.07
727.213	2109.92
727.4	2269.66
727.586	2054.62
727.773	2085.34
727.959	2255.33
728.145	2279.9
728.332	2185.69
728.518	2148.83
728.705	2191.84
728.891	2044.38
729.077	2103.78
729.264	2204.13
729.45	2202.08
729.636	2224.61
729.823	2204.13
730.009	2142.69
730.195	2167.26
730.382	2234.85
730.568	2197.98
730.754	2247.13
730.94	2144.74
731.126	2240.99
731.313	2210.27
731.499	2204.13
731.685	2138.59
731.871	2187.74
732.057	2191.84
732.243	2183.65
732.429	2191.84
732.615	2208.22
732.801	2150.88
732.987	2228.7
733.173	2177.5
733.359	2220.51
733.545	2240.99
733.731	2109.92
733.917	2169.31
734.103	2171.36
734.289	2195.93
734.475	2247.13
734.661	2253.28
734.847	2195.93
735.033	2249.18
735.219	2202.08
735.404	2265.57
735.59	2327
735.776	2075.1
735.962	2169.31
736.148	2068.96
736.333	2075.1
736.519	2200.03
736.705	2173.41
736.89	2185.69
737.076	1972.71
737.262	2107.87
737.447	2124.26
737.633	2114.02
737.819	2085.34
738.004	2175.45
738.19	2005.47
738.375	2064.86
738.561	2126.3
738.747	2064.86
738.932	2103.78
739.118	2167.26
739.303	2093.54
739.489	2138.59
739.674	1929.7
739.859	2015.71
740.045	2079.2
740.23	2073.06
740.416	2034.14
740.601	2179.55
740.786	2101.73
740.972	2130.4
741.157	2003.43
741.342	2030.05
741.528	1921.51
741.713	2097.63
741.898	2036.19
742.084	2087.39
742.269	2105.82
742.454	1972.71
742.639	2021.86
742.824	1956.32
743.01	2005.47
743.195	1964.51
743.38	2030.05
743.565	1917.41
743.75	1939.94
743.935	1933.79
744.12	2007.52
744.305	1948.13
744.49	1796.58
744.675	1929.7
744.86	1853.92
745.045	1819.11
745.23	1792.48
745.415	1845.73
745.6	1907.17
745.785	1841.64
745.97	1884.64
746.155	1868.26
746.34	1806.82
746.525	1761.77
746.71	1855.97
746.895	1718.76
747.079	1710.57
747.264	1739.24
747.449	1835.49
747.634	1808.87
747.819	1827.3
748.003	1792.48
748.188	1692.13
748.373	1759.72
748.557	1800.68
748.742	1741.29
748.927	1649.13
749.111	1669.61
749.296	1784.29
749.481	1753.57
749.665	1679.85
749.85	1606.12
750.034	1671.65
750.219	1677.8
750.404	1702.37
750.588	1642.98
750.773	1602.02
750.957	1599.98
751.141	1511.91
751.326	1505.77
751.51	1634.79
751.695	1569.26
751.879	1556.97
752.064	1589.74
752.248	1638.89
752.432	1614.31
752.617	1485.29
752.801	1632.74
752.985	1526.25
753.17	1407.47
753.354	1544.68
753.538	1509.86
753.722	1440.23
753.907	1440.23
754.091	1384.94
754.275	1376.75
754.459	1350.12
754.643	1440.23
754.828	1438.19
755.012	1415.66
755.196	1372.65
755.38	1452.52
755.564	1352.17
755.748	1276.4
755.932	1403.37
756.116	1364.46
756.3	1307.12
756.484	1288.68
756.668	1409.51
756.852	1300.97
757.036	1315.31
757.22	1323.5
757.404	1305.07
757.588	1270.25
757.772	1352.17
757.956	1180.14
758.14	1317.36
758.323	1257.96
758.507	1210.86
758.691	1163.76
758.875	1192.43
759.059	1247.72
759.242	1241.58
759.426	1235.44
759.61	1243.63
759.794	1096.18
759.977	1184.24
760.161	1198.57
760.345	1241.58
760.528	1270.25
760.712	1182.19
760.895	1235.44
761.079	1176.05
761.263	1176.05
761.446	1022.45
761.63	1096.18
761.813	1051.12
761.997	1036.78
762.18	1087.98
762.364	1038.83
762.547	1010.16
762.731	1079.79
762.914	1104.37
763.098	1073.65
763.281	1008.11
763.464	999.92
763.648	977.39
763.831	1016.3
764.015	995.82
764.198	1061.36
764.381	1092.08
764.564	967.15
764.748	1030.64
764.931	920.05
765.114	1040.88
765.297	1024.5
765.481	936.43
765.664	1032.69
765.847	1032.69
766.03	1079.79
766.213	989.68
766.397	963.06
766.58	922.1
766.763	1014.26
766.946	954.87
767.129	948.72
767.312	1010.16
767.495	975.35
767.678	1010.16
767.861	979.44
768.044	891.38
768.227	938.48
768.41	991.73
768.593	909.81
768.776	987.63
768.959	1004.02
769.142	940.53
769.324	930.29
769.507	825.84
769.69	905.71
769.873	907.76
770.056	934.39
770.239	934.39
770.421	891.38
770.604	891.38
770.787	909.81
770.97	961.01
771.152	889.33
771.335	838.13
771.518	907.76
771.7	934.39
771.883	899.57
772.066	915.95
772.248	844.28
772.431	829.94
772.613	897.52
772.796	866.8
772.978	831.99
773.161	807.41
773.343	760.31
773.526	852.47
773.708	770.55
773.891	784.88
774.073	719.35
774.256	840.18
774.438	891.38
774.621	741.88
774.803	684.53
774.985	758.26
775.168	795.12
775.35	750.07
775.532	768.5
775.715	745.97
775.897	809.46
776.079	692.73
776.261	739.83
776.444	766.45
776.626	807.41
776.808	666.1
776.99	680.44
777.173	713.21
777.355	770.55
777.537	649.72
777.719	717.3
777.901	612.85
778.083	727.54
778.265	668.15
778.447	750.07
778.629	700.92
778.811	711.16
778.993	748.02
779.175	608.76
779.357	659.96
779.539	657.91
779.721	582.14
779.903	647.67
780.085	664.05
780.267	631.29
780.449	676.34
780.631	659.96
780.812	641.53
780.994	715.25
781.176	657.91
781.358	569.85
781.54	565.75
781.721	610.81
781.903	598.52
782.085	580.09
782.267	612.85
782.448	586.23
782.63	479.74
782.812	621.05
782.993	604.66
783.175	610.81
783.357	532.98
783.538	569.85
783.72	475.64
783.901	573.94
784.083	553.46
784.264	580.09
784.446	537.08
784.627	522.74
784.809	520.7
784.99	561.66
785.172	508.41
785.353	455.16
785.535	483.83
785.716	483.83
785.897	485.88
786.079	541.18
786.26	412.15
786.441	512.5
786.623	391.67
786.804	420.35
786.985	393.72
787.167	465.4
787.348	410.11
787.529	479.74
787.71	457.21
787.891	451.07
788.073	332.28
788.254	358.91
788.435	440.83
788.616	428.54
788.797	279.04
788.978	451.07
789.159	383.48
789.34	393.72
789.522	365.05
789.703	446.97
789.884	414.2
790.065	356.86
790.246	336.38
790.427	422.39
790.607	352.76
790.788	401.91
790.969	360.95
791.15	401.91
791.331	397.82
791.512	309.76
791.693	324.09
791.874	276.99
792.054	438.78
792.235	320
792.416	326.14
792.597	315.9
792.778	393.72
792.958	340.47
793.139	391.67
793.32	324.09
793.5	358.91
793.681	389.63
793.862	395.77
794.042	276.99
794.223	332.28
794.404	369.15
794.584	410.11
794.765	305.66
794.945	313.85
795.126	311.8
795.306	332.28
795.487	322.04
795.667	211.45
795.848	324.09
796.028	352.76
796.209	326.14
796.389	375.29
796.57	291.32
796.75	326.14
796.93	233.98
797.111	324.09
797.291	276.99
797.471	221.69
797.652	287.23
797.832	324.09
798.012	334.33
798.192	250.36
798.373	223.74
798.553	233.98
798.733	340.47
798.913	238.08
799.093	328.19
799.274	242.17
799.454	223.74
799.634	209.4
799.814	293.37
799.994	219.64
800.174	332.28
800.354	279.04
800.534	287.23
800.714	301.56
800.894	287.23
801.074	246.27
801.254	244.22
801.434	262.65
801.614	315.9
801.794	270.84
801.974	748.02
802.154	168.45
802.334	221.69
802.514	193.02
802.693	270.84
802.873	205.31
803.053	203.26
803.233	309.76
803.413	168.45
803.592	174.59
803.772	197.12
803.952	227.84
804.131	195.07
804.311	100.86
804.491	254.46
804.67	174.59
804.85	154.11
805.03	270.84
805.209	176.64
805.389	242.17
805.568	139.77
805.748	223.74
805.928	166.4
806.107	225.79
806.287	260.6
806.466	217.6
806.646	201.21
806.825	195.07
807.004	252.41
807.184	283.13
807.363	276.99
807.543	276.99
807.722	139.77
807.901	262.65
808.081	248.32
808.26	64
808.439	260.6
808.619	195.07
808.798	236.03
808.977	193.02
809.156	127.49
809.336	162.3
809.515	190.97
809.694	160.25
809.873	164.35
810.052	201.21
810.231	233.98
810.411	170.49
810.59	246.27
810.769	270.84
810.948	135.68
811.127	143.87
811.306	227.84
811.485	172.54
811.664	227.84
811.843	233.98
812.022	180.73
812.201	184.83
812.38	225.79
812.559	131.58
812.737	176.64
812.916	127.49
813.095	221.69
813.274	190.97
813.453	209.4
813.632	266.75
813.811	207.36
813.989	125.44
814.168	150.01
814.347	174.59
814.526	137.73
814.704	186.88
814.883	156.16
815.062	209.4
815.24	180.73
815.419	94.72
815.598	111.1
815.776	152.06
815.955	168.45
816.133	94.72
816.312	129.53
816.49	107.01
816.669	164.35
816.847	147.97
817.026	88.57
817.204	162.3
817.383	102.91
817.561	133.63
817.74	197.12
817.918	123.39
818.097	107.01
818.275	129.53
818.453	186.88
818.632	152.06
818.81	115.2
818.988	139.77
819.167	74.24
819.345	164.35
819.523	127.49
819.701	203.26
819.879	137.73
820.058	137.73
820.236	147.97
820.414	166.4
820.592	88.57
820.77	115.2
820.948	76.29
821.127	57.86
821.305	123.39
821.483	109.05
821.661	168.45
821.839	162.3
822.017	127.49
822.195	123.39
822.373	176.64
822.551	107.01
822.729	115.2
822.907	135.68
823.085	131.58
823.262	131.58
823.44	184.83
823.618	74.24
823.796	170.49
823.974	53.76
824.152	90.62
824.329	143.87
824.507	59.9
824.685	104.96
824.863	94.72
825.04	113.15
825.218	107.01
825.396	158.21
825.574	109.05
825.751	96.77
825.929	107.01
826.107	57.86
826.284	143.87
826.462	104.96
826.639	86.53
826.817	29.18
826.994	115.2
827.172	84.48
827.349	135.68
827.527	176.64
827.704	57.86
827.882	162.3
828.059	94.72
828.237	152.06
828.414	158.21
828.591	43.52
828.769	115.2
828.946	45.57
829.124	111.1
829.301	178.69
829.478	88.57
829.655	111.1
829.833	78.33
830.01	90.62
830.187	61.95
830.364	94.72
830.542	61.95
830.719	119.29
830.896	119.29
831.073	115.2
831.25	131.58
831.427	61.95
831.604	39.42
831.782	107.01
831.959	88.57
832.136	94.72
832.313	92.67
832.49	16.9
832.667	57.86
832.844	55.81
833.021	113.15
833.198	14.85
833.374	70.14
833.551	125.44
833.728	102.91
833.905	80.38
834.082	-17.92
834.259	80.38
834.436	82.43
834.612	41.47
834.789	70.14
834.966	147.97
835.143	53.76
835.319	33.28
835.496	20.99
835.673	33.28
835.85	43.52
836.026	96.77
836.203	80.38
836.38	61.95
836.556	102.91
836.733	84.48
836.909	94.72
837.086	39.42
837.262	98.81
837.439	-11.78
837.616	-9.73
837.792	70.14
837.968	86.53
838.145	53.76
838.321	123.39
838.498	119.29
838.674	225.79
838.851	47.62
839.027	104.96
839.203	33.28
839.38	94.72
839.556	55.81
839.732	6.66
839.909	92.67
840.085	141.82
840.261	25.09
840.437	18.94
840.614	55.81
840.79	104.96
840.966	47.62
841.142	72.19
841.318	53.76
841.494	123.39
841.671	111.1
841.847	27.14
842.023	55.81
842.199	143.87
842.375	152.06
842.551	18.94
842.727	2.56
842.903	45.57
843.079	53.76
843.255	104.96
843.431	66.05
843.607	51.71
843.783	88.57
843.959	-19.97
844.134	31.23
844.31	33.28
844.486	92.67
844.662	25.09
844.838	72.19
845.013	14.85
845.189	115.2
845.365	129.53
845.541	94.72
845.716	23.04
845.892	104.96
846.068	33.28
846.244	39.42
846.419	121.34
846.595	-7.68
846.77	70.14
846.946	68.09
847.122	72.19
847.297	98.81
847.473	78.33
847.648	14.85
847.824	70.14
847.999	37.38
848.175	18.94
848.35	53.76
848.526	127.49
848.701	80.38
848.876	53.76
849.052	90.62
849.227	27.14
849.403	86.53
849.578	74.24
849.753	88.57
849.929	12.8
850.104	86.53
850.279	20.99
850.454	31.23
850.63	55.81
850.805	78.33
850.98	143.87
851.155	4.61
851.33	64
851.505	53.76
851.681	23.04
851.856	10.75
852.031	4.61
852.206	8.7
852.381	41.47
852.556	59.9
852.731	49.66
852.906	37.38
853.081	61.95
853.256	35.33
853.431	-11.78
853.606	45.57
853.781	88.57
853.956	29.18
854.131	49.66
854.305	0.51
854.48	47.62
854.655	104.96
854.83	55.81
855.005	43.52
855.18	66.05
855.354	25.09
855.529	74.24
855.704	66.05
855.879	18.94
856.053	70.14
856.228	45.57
856.403	-28.16
856.577	20.99
856.752	18.94
856.926	57.86
857.101	-9.73
857.276	-40.45
857.45	25.09
857.625	55.81
857.799	-7.68
857.974	88.57
858.148	-5.63
858.323	33.28
858.497	117.25
858.672	88.57
858.846	57.86
859.02	51.71
859.195	2.56
859.369	64
859.543	12.8
859.718	39.42
859.892	39.42
860.066	82.43
860.241	-56.83
860.415	35.33
860.589	4.61
860.763	23.04
860.938	-34.3
861.112	35.33
861.286	-9.73
861.46	55.81
861.634	8.7
861.808	78.33
861.982	0.51
862.157	55.81
862.331	57.86
862.505	23.04
862.679	20.99
862.853	8.7
863.027	33.28
863.201	27.14
863.375	74.24
863.549	39.42
863.722	2.56
863.896	-1.54
864.07	-36.35
864.244	-17.92
864.418	55.81
864.592	86.53
864.766	72.19
864.939	8.7
865.113	-7.68
865.287	41.47
865.461	25.09
865.634	37.38
865.808	57.86
865.982	39.42
866.156	0.51
866.329	25.09
866.503	-22.02
866.676	31.23
866.85	43.52
867.024	4.61
867.197	47.62
867.371	35.33
867.544	37.38
867.718	45.57
867.891	-40.45
868.065	-62.98
868.238	18.94
868.412	10.75
868.585	94.72
868.759	-5.63
868.932	61.95
869.105	-3.58
869.279	0.51
869.452	61.95
869.625	39.42
869.799	-19.97
869.972	-11.78
870.145	20.99
870.319	-40.45
870.492	33.28
870.665	12.8
870.838	29.18
871.011	70.14
871.185	23.04
871.358	-22.02
871.531	53.76
871.704	18.94
871.877	74.24
872.05	-48.64
872.223	37.38
872.396	2.56
872.569	41.47
872.742	-30.21
872.915	53.76
873.088	-60.93
873.261	37.38
873.434	-3.58
873.607	49.66
873.78	102.91
873.953	-3.58
874.126	4.61
874.299	139.77
874.471	16.9
874.644	31.23
874.817	84.48
874.99	37.38
875.163	12.8
875.335	16.9
875.508	-26.11
875.681	-19.97
875.853	47.62
876.026	53.76
876.199	29.18
876.371	-22.02
876.544	37.38
876.717	-28.16
876.889	-1.54
877.062	-1.54
877.234	61.95
877.407	33.28
877.579	57.86
877.752	80.38
877.924	0.51
878.097	53.76
878.269	33.28
878.442	29.18
878.614	12.8
878.786	12.8
878.959	47.62
879.131	35.33
879.303	-15.87
879.476	-32.26
879.648	12.8
879.82	6.66
879.993	-19.97
880.165	-9.73
880.337	4.61
880.509	72.19
880.681	25.09
880.854	-3.58
881.026	72.19
881.198	84.48
881.37	2.56
881.542	10.75
881.714	47.62
881.886	4.61
882.058	-5.63
882.23	2.56
882.402	66.05
882.574	20.99
882.746	6.66
882.918	-13.82
883.09	33.28
883.262	55.81
883.434	6.66
883.606	10.75
883.778	49.66
883.95	-11.78
884.122	0.51
884.293	45.57
884.465	14.85
884.637	49.66
884.809	45.57
884.98	20.99
885.152	43.52
885.324	18.94
885.496	-36.35
885.667	-75.26
885.839	20.99
886.011	45.57
886.182	66.05
886.354	2.56
886.525	37.38
886.697	74.24
886.869	57.86
887.04	-7.68
887.212	2.56
887.383	14.85
887.555	51.71
887.726	-40.45
887.897	-3.58
888.069	-19.97
888.24	8.7
888.412	-36.35
888.583	72.19
888.754	80.38
888.926	-93.69
889.097	12.8
889.268	20.99
889.44	23.04
889.611	-11.78
889.782	-3.58
889.953	-5.63
890.125	-56.83
890.296	-34.3
890.467	-3.58
890.638	-3.58
890.809	119.29
890.98	14.85
891.151	74.24
891.323	27.14
891.494	59.9
891.665	20.99
891.836	76.29
892.007	0.51
892.178	-32.26
892.349	-67.07
892.52	-3.58
892.691	-3.58
892.862	74.24
893.032	-32.26
893.203	23.04
893.374	-48.64
893.545	88.57
893.716	2.56
893.887	27.14
894.057	-11.78
894.228	82.43
894.399	-7.68
894.57	29.18
894.74	39.42
894.911	-11.78
895.082	-1.54
895.253	10.75
895.423	12.8
895.594	23.04
895.764	33.28
895.935	-15.87
896.106	29.18
896.276	-28.16
896.447	88.57
896.617	6.66
896.788	-44.54
896.958	-5.63
897.129	-36.35
897.299	53.76
897.47	53.76
897.64	115.2
897.81	23.04
897.981	41.47
898.151	45.57
898.322	6.66
898.492	37.38
898.662	-48.64
898.832	-52.74
899.003	14.85
899.173	29.18
899.343	0.51
899.513	55.81
