Data from USB4F104151__66__13-12-04-296.txt Node

Date: Fri Mar 14 13:12:04 EDT 2025
User: louis
Spectrometer: USB4F10415
Trigger mode: 4
Integration Time (sec): 2.000000E-2
Scans to average: 1
Electric dark correction enabled: true
Nonlinearity correction enabled: false
Boxcar width: 0
XAxis mode: Wavelengths
Number of Pixels in Spectrum: 3648
>>>>>Begin Spectral Data<<<<<
178.204	-92.16
178.424	-92.16
178.644	-92.16
178.864	-126.97
179.084	-184.32
179.304	81.92
179.524	-49.15
179.744	-24.58
179.964	4.1
180.184	61.44
180.404	12.29
180.624	-16.38
180.844	22.53
181.064	-36.86
181.283	-12.29
181.503	-45.06
181.723	2.05
181.943	2.05
182.163	0
182.383	-4.1
182.602	53.25
182.822	102.4
183.042	40.96
183.262	16.38
183.482	30.72
183.701	6.14
183.921	81.92
184.141	-32.77
184.361	-2.05
184.58	-22.53
184.8	-32.77
185.02	-32.77
185.239	34.82
185.459	-73.73
185.679	55.3
185.898	-67.58
186.118	51.2
186.338	-20.48
186.557	32.77
186.777	61.44
186.997	-10.24
187.216	-34.82
187.436	55.3
187.655	2.05
187.875	106.49
188.095	-2.05
188.314	51.2
188.534	94.21
188.753	6.14
188.973	34.82
189.192	4.1
189.412	10.24
189.631	34.82
189.851	36.86
190.07	112.64
190.29	40.96
190.509	-18.43
190.729	36.86
190.948	6.14
191.168	176.13
191.387	45.06
191.607	77.82
191.826	36.86
192.045	30.72
192.265	69.63
192.484	51.2
192.704	20.48
192.923	53.25
193.142	102.4
193.362	-18.43
193.581	90.11
193.8	53.25
194.02	28.67
194.239	-75.77
194.458	38.91
194.678	10.24
194.897	4.1
195.116	-6.14
195.335	32.77
195.555	69.63
195.774	73.73
195.993	36.86
196.212	-2.05
196.432	-32.77
196.651	30.72
196.87	14.34
197.089	47.1
197.308	53.25
197.528	-8.19
197.747	-53.25
197.966	73.73
198.185	28.67
198.404	-73.73
198.623	57.34
198.842	32.77
199.062	-55.3
199.281	55.3
199.5	12.29
199.719	6.14
199.938	6.14
200.157	4.1
200.376	55.3
200.595	71.68
200.814	-12.29
201.033	14.34
201.252	26.62
201.471	-6.14
201.69	-14.34
201.909	47.1
202.128	8.19
202.347	-2.05
202.566	32.77
202.785	45.06
203.004	-12.29
203.223	47.1
203.442	-22.53
203.661	2.05
203.879	-26.62
204.098	12.29
204.317	32.77
204.536	40.96
204.755	63.49
204.974	90.11
205.193	24.58
205.411	-6.14
205.63	94.21
205.849	90.11
206.068	45.06
206.287	36.86
206.505	-4.1
206.724	45.06
206.943	65.54
207.162	-2.05
207.381	122.88
207.599	43.01
207.818	20.48
208.037	8.19
208.255	79.87
208.474	4.1
208.693	67.58
208.911	-22.53
209.13	45.06
209.349	61.44
209.567	24.58
209.786	8.19
210.005	32.77
210.223	34.82
210.442	-73.73
210.661	75.77
210.879	65.54
211.098	-6.14
211.316	-8.19
211.535	40.96
211.753	-67.58
211.972	0
212.191	-53.25
212.409	2.05
212.628	45.06
212.846	14.34
213.065	47.1
213.283	6.14
213.502	28.67
213.72	-28.67
213.938	-67.58
214.157	20.48
214.375	22.53
214.594	0
214.812	14.34
215.031	45.06
215.249	61.44
215.467	-12.29
215.686	-16.38
215.904	51.2
216.122	2.05
216.341	71.68
216.559	-2.05
216.778	-36.86
216.996	-18.43
217.214	-49.15
217.432	-40.96
217.651	83.97
217.869	-6.14
218.087	57.34
218.306	20.48
218.524	57.34
218.742	-73.73
218.96	30.72
219.179	4.1
219.397	6.14
219.615	49.15
219.833	77.82
220.051	8.19
220.27	38.91
220.488	-10.24
220.706	8.19
220.924	53.25
221.142	40.96
221.36	-32.77
221.578	53.25
221.796	-26.62
222.015	59.39
222.233	-18.43
222.451	110.59
222.669	-51.2
222.887	69.63
223.105	40.96
223.323	100.35
223.541	-18.43
223.759	79.87
223.977	-4.1
224.195	20.48
224.413	98.3
224.631	-20.48
224.849	34.82
225.067	73.73
225.285	-28.67
225.503	30.72
225.721	-43.01
225.939	104.45
226.157	-20.48
226.375	135.17
226.592	2.05
226.81	-28.67
227.028	30.72
227.246	81.92
227.464	-26.62
227.682	63.49
227.9	-67.58
228.117	73.73
228.335	14.34
228.553	4.1
228.771	24.58
228.989	45.06
229.206	8.19
229.424	36.86
229.642	-16.38
229.86	38.91
230.077	47.1
230.295	63.49
230.513	53.25
230.731	120.83
230.948	8.19
231.166	43.01
231.384	51.2
231.601	0
231.819	40.96
232.037	32.77
232.254	-47.1
232.472	55.3
232.689	40.96
232.907	77.82
233.125	49.15
233.342	6.14
233.56	32.77
233.777	73.73
233.995	71.68
234.213	81.92
234.43	-26.62
234.648	-79.87
234.865	30.72
235.083	22.53
235.3	-16.38
235.518	98.3
235.735	4.1
235.953	47.1
236.17	45.06
236.388	-18.43
236.605	20.48
236.822	49.15
237.04	63.49
237.257	20.48
237.475	-75.77
237.692	40.96
237.909	112.64
238.127	8.19
238.344	30.72
238.562	28.67
238.779	45.06
238.996	-8.19
239.214	49.15
239.431	8.19
239.648	47.1
239.865	-36.86
240.083	77.82
240.3	28.67
240.517	43.01
240.735	30.72
240.952	-51.2
241.169	28.67
241.386	-8.19
241.603	16.38
241.821	12.29
242.038	69.63
242.255	30.72
242.472	75.77
242.689	81.92
242.907	71.68
243.124	65.54
243.341	-2.05
243.558	-8.19
243.775	16.38
243.992	-10.24
244.209	81.92
244.426	30.72
244.643	-14.34
244.86	38.91
245.078	81.92
245.295	45.06
245.512	86.01
245.729	-18.43
245.946	14.34
246.163	-12.29
246.38	65.54
246.597	-4.1
246.814	36.86
247.031	12.29
247.248	8.19
247.464	2.05
247.681	-8.19
247.898	77.82
248.115	-16.38
248.332	20.48
248.549	45.06
248.766	65.54
248.983	8.19
249.2	22.53
249.417	71.68
249.633	20.48
249.85	63.49
250.067	86.01
250.284	38.91
250.501	36.86
250.717	26.62
250.934	59.39
251.151	32.77
251.368	-53.25
251.585	61.44
251.801	34.82
252.018	40.96
252.235	94.21
252.451	-20.48
252.668	-6.14
252.885	79.87
253.102	14.34
253.318	63.49
253.535	0
253.752	38.91
253.968	20.48
254.185	75.77
254.401	10.24
254.618	36.86
254.835	45.06
255.051	45.06
255.268	8.19
255.484	4.1
255.701	32.77
255.917	28.67
256.134	38.91
256.351	0
256.567	51.2
256.784	61.44
257	43.01
257.217	-4.1
257.433	6.14
257.65	67.58
257.866	49.15
258.082	-10.24
258.299	-4.1
258.515	34.82
258.732	0
258.948	49.15
259.165	55.3
259.381	-28.67
259.597	77.82
259.814	77.82
260.03	-10.24
260.246	77.82
260.463	24.58
260.679	51.2
260.895	88.06
261.112	110.59
261.328	36.86
261.544	81.92
261.761	118.78
261.977	57.34
262.193	38.91
262.409	40.96
262.626	26.62
262.842	53.25
263.058	8.19
263.274	8.19
263.49	30.72
263.707	36.86
263.923	38.91
264.139	-30.72
264.355	32.77
264.571	24.58
264.787	18.43
265.004	38.91
265.22	2.05
265.436	18.43
265.652	12.29
265.868	-24.58
266.084	12.29
266.3	26.62
266.516	18.43
266.732	2.05
266.948	12.29
267.164	20.48
267.38	104.45
267.596	118.78
267.812	14.34
268.028	-20.48
268.244	28.67
268.46	2.05
268.676	73.73
268.892	24.58
269.108	24.58
269.324	-8.19
269.54	-59.39
269.756	57.34
269.972	26.62
270.188	-2.05
270.403	34.82
270.619	-32.77
270.835	20.48
271.051	28.67
271.267	-14.34
271.483	0
271.698	20.48
271.914	81.92
272.13	43.01
272.346	45.06
272.562	73.73
272.777	6.14
272.993	16.38
273.209	20.48
273.425	32.77
273.64	38.91
273.856	102.4
274.072	-32.77
274.287	-10.24
274.503	16.38
274.719	36.86
274.934	79.87
275.15	16.38
275.366	-77.82
275.581	-2.05
275.797	-28.67
276.012	-18.43
276.228	73.73
276.444	51.2
276.659	30.72
276.875	20.48
277.09	34.82
277.306	77.82
277.521	22.53
277.737	-26.62
277.952	51.2
278.168	77.82
278.383	112.64
278.599	20.48
278.814	-49.15
279.03	22.53
279.245	-22.53
279.461	-4.1
279.676	-20.48
279.892	-18.43
280.107	-51.2
280.322	12.29
280.538	49.15
280.753	30.72
280.969	30.72
281.184	57.34
281.399	133.12
281.615	71.68
281.83	6.14
282.045	-38.91
282.26	24.58
282.476	14.34
282.691	67.58
282.906	-2.05
283.122	-16.38
283.337	0
283.552	49.15
283.767	-4.1
283.983	40.96
284.198	61.44
284.413	86.01
284.628	40.96
284.843	38.91
285.058	24.58
285.274	38.91
285.489	65.54
285.704	30.72
285.919	40.96
286.134	-24.58
286.349	22.53
286.564	57.34
286.779	6.14
286.995	22.53
287.21	-49.15
287.425	28.67
287.64	28.67
287.855	63.49
288.07	0
288.285	45.06
288.5	20.48
288.715	61.44
288.93	65.54
289.145	36.86
289.36	-4.1
289.575	20.48
289.79	43.01
290.004	61.44
290.219	51.2
290.434	53.25
290.649	8.19
290.864	36.86
291.079	69.63
291.294	63.49
291.509	36.86
291.724	6.14
291.938	-43.01
292.153	77.82
292.368	16.38
292.583	96.25
292.798	73.73
293.012	20.48
293.227	8.19
293.442	69.63
293.657	61.44
293.871	47.1
294.086	-6.14
294.301	65.54
294.516	36.86
294.73	45.06
294.945	45.06
295.16	-53.25
295.374	79.87
295.589	133.12
295.804	28.67
296.018	-30.72
296.233	77.82
296.447	63.49
296.662	-12.29
296.877	22.53
297.091	10.24
297.306	-10.24
297.52	63.49
297.735	-71.68
297.949	2.05
298.164	14.34
298.378	0
298.593	90.11
298.807	12.29
299.022	43.01
299.236	20.48
299.451	53.25
299.665	28.67
299.88	61.44
300.094	86.01
300.309	20.48
300.523	69.63
300.737	2.05
300.952	61.44
301.166	-49.15
301.381	51.2
301.595	6.14
301.809	8.19
302.024	47.1
302.238	18.43
302.452	28.67
302.667	45.06
302.881	149.5
303.095	12.29
303.309	36.86
303.524	-8.19
303.738	16.38
303.952	38.91
304.166	38.91
304.381	-22.53
304.595	12.29
304.809	61.44
305.023	61.44
305.237	34.82
305.452	-24.58
305.666	49.15
305.88	53.25
306.094	110.59
306.308	20.48
306.522	77.82
306.736	22.53
306.95	114.69
307.164	32.77
307.379	36.86
307.593	45.06
307.807	90.11
308.021	53.25
308.235	-77.82
308.449	18.43
308.663	-34.82
308.877	135.17
309.091	-4.1
309.305	12.29
309.519	49.15
309.733	81.92
309.947	32.77
310.161	-16.38
310.374	-2.05
310.588	55.3
310.802	18.43
311.016	43.01
311.23	30.72
311.444	61.44
311.658	110.59
311.872	12.29
312.085	22.53
312.299	63.49
312.513	63.49
312.727	-12.29
312.941	45.06
313.154	122.88
313.368	-2.05
313.582	73.73
313.796	26.62
314.009	16.38
314.223	-40.96
314.437	79.87
314.651	65.54
314.864	59.39
315.078	30.72
315.292	18.43
315.505	38.91
315.719	45.06
315.933	2.05
316.146	6.14
316.36	45.06
316.573	77.82
316.787	71.68
317.001	-10.24
317.214	30.72
317.428	22.53
317.641	-12.29
317.855	53.25
318.068	16.38
318.282	51.2
318.495	92.16
318.709	94.21
318.922	10.24
319.136	57.34
319.349	100.35
319.563	-30.72
319.776	40.96
319.99	4.1
320.203	-22.53
320.417	-20.48
320.63	20.48
320.843	122.88
321.057	49.15
321.27	34.82
321.483	-14.34
321.697	100.35
321.91	12.29
322.124	57.34
322.337	12.29
322.55	30.72
322.763	36.86
322.977	-45.06
323.19	61.44
323.403	16.38
323.617	77.82
323.83	88.06
324.043	83.97
324.256	14.34
324.469	16.38
324.683	77.82
324.896	24.58
325.109	47.1
325.322	26.62
325.535	114.69
325.748	61.44
325.962	61.44
326.175	18.43
326.388	6.14
326.601	116.73
326.814	32.77
327.027	69.63
327.24	69.63
327.453	14.34
327.666	2.05
327.879	47.1
328.092	102.4
328.305	38.91
328.518	38.91
328.731	16.38
328.944	30.72
329.157	32.77
329.37	8.19
329.583	69.63
329.796	30.72
330.009	53.25
330.222	4.1
330.435	40.96
330.648	65.54
330.861	57.34
331.073	32.77
331.286	63.49
331.499	40.96
331.712	63.49
331.925	45.06
332.138	2.05
332.35	110.59
332.563	77.82
332.776	8.19
332.989	28.67
333.202	10.24
333.414	49.15
333.627	69.63
333.84	45.06
334.053	24.58
334.265	67.58
334.478	16.38
334.691	51.2
334.903	55.3
335.116	18.43
335.329	47.1
335.541	36.86
335.754	57.34
335.966	4.1
336.179	55.3
336.392	-38.91
336.604	14.34
336.817	110.59
337.029	100.35
337.242	4.1
337.454	14.34
337.667	-14.34
337.88	94.21
338.092	-38.91
338.305	102.4
338.517	61.44
338.729	55.3
338.942	61.44
339.154	47.1
339.367	88.06
339.579	86.01
339.792	43.01
340.004	12.29
340.217	55.3
340.429	104.45
340.641	-2.05
340.854	14.34
341.066	38.91
341.278	55.3
341.491	71.68
341.703	30.72
341.915	75.77
342.128	112.64
342.34	32.77
342.552	61.44
342.764	51.2
342.977	34.82
343.189	47.1
343.401	-61.44
343.613	49.15
343.826	63.49
344.038	14.34
344.25	38.91
344.462	36.86
344.674	69.63
344.886	2.05
345.099	45.06
345.311	51.2
345.523	53.25
345.735	38.91
345.947	28.67
346.159	26.62
346.371	36.86
346.583	26.62
346.795	16.38
347.007	69.63
347.219	28.67
347.431	-10.24
347.643	79.87
347.855	77.82
348.067	65.54
348.279	-4.1
348.491	20.48
348.703	-8.19
348.915	0
349.127	30.72
349.339	-16.38
349.551	30.72
349.763	28.67
349.975	75.77
350.187	126.97
350.399	14.34
350.61	10.24
350.822	-28.67
351.034	102.4
351.246	12.29
351.458	12.29
351.669	-8.19
351.881	12.29
352.093	-8.19
352.305	126.97
352.517	71.68
352.728	61.44
352.94	77.82
353.152	114.69
353.363	24.58
353.575	71.68
353.787	8.19
353.999	71.68
354.21	16.38
354.422	-10.24
354.633	6.14
354.845	-2.05
355.057	-10.24
355.268	59.39
355.48	-14.34
355.692	47.1
355.903	-18.43
356.115	36.86
356.326	-30.72
356.538	86.01
356.749	49.15
356.961	96.25
357.172	67.58
357.384	53.25
357.595	135.17
357.807	6.14
358.018	65.54
358.23	94.21
358.441	32.77
358.653	-2.05
358.864	12.29
359.075	83.97
359.287	4.1
359.498	73.73
359.709	40.96
359.921	14.34
360.132	67.58
360.344	6.14
360.555	36.86
360.766	88.06
360.977	53.25
361.189	34.82
361.4	4.1
361.611	34.82
361.823	86.01
362.034	63.49
362.245	-53.25
362.456	59.39
362.667	131.07
362.879	69.63
363.09	49.15
363.301	151.55
363.512	114.69
363.723	65.54
363.935	45.06
364.146	59.39
364.357	26.62
364.568	65.54
364.779	45.06
364.99	92.16
365.201	10.24
365.412	16.38
365.623	8.19
365.834	141.31
366.045	63.49
366.256	-18.43
366.467	26.62
366.678	57.34
366.889	-32.77
367.1	135.17
367.311	86.01
367.522	79.87
367.733	-14.34
367.944	88.06
368.155	36.86
368.366	49.15
368.577	40.96
368.788	96.25
368.999	24.58
369.209	6.14
369.42	96.25
369.631	47.1
369.842	12.29
370.053	26.62
370.264	75.77
370.474	49.15
370.685	0
370.896	34.82
371.107	69.63
371.317	55.3
371.528	98.3
371.739	129.02
371.95	86.01
372.16	32.77
372.371	40.96
372.582	26.62
372.792	-14.34
373.003	88.06
373.214	53.25
373.424	88.06
373.635	18.43
373.846	28.67
374.056	38.91
374.267	-4.1
374.477	43.01
374.688	14.34
374.898	112.64
375.109	12.29
375.319	51.2
375.53	49.15
375.74	71.68
375.951	28.67
376.161	71.68
376.372	59.39
376.582	65.54
376.793	75.77
377.003	57.34
377.214	90.11
377.424	88.06
377.635	14.34
377.845	77.82
378.055	98.3
378.266	45.06
378.476	-12.29
378.686	40.96
378.897	104.45
379.107	40.96
379.317	63.49
379.528	20.48
379.738	92.16
379.948	4.1
380.158	12.29
380.369	16.38
380.579	28.67
380.789	92.16
380.999	53.25
381.21	49.15
381.42	65.54
381.63	53.25
381.84	88.06
382.05	77.82
382.261	51.2
382.471	61.44
382.681	96.25
382.891	143.36
383.101	22.53
383.311	26.62
383.521	-6.14
383.731	45.06
383.941	30.72
384.151	10.24
384.361	-10.24
384.571	81.92
384.781	-51.2
384.991	118.78
385.201	73.73
385.411	118.78
385.621	55.3
385.831	-4.1
386.041	28.67
386.251	49.15
386.461	-2.05
386.671	55.3
386.881	-6.14
387.091	40.96
387.301	167.93
387.511	98.3
387.72	26.62
387.93	32.77
388.14	53.25
388.35	63.49
388.56	69.63
388.769	79.87
388.979	88.06
389.189	77.82
389.399	114.69
389.609	61.44
389.818	92.16
390.028	43.01
390.238	77.82
390.447	16.38
390.657	67.58
390.867	45.06
391.076	-18.43
391.286	55.3
391.496	36.86
391.705	77.82
391.915	73.73
392.125	81.92
392.334	49.15
392.544	63.49
392.753	61.44
392.963	14.34
393.172	57.34
393.382	43.01
393.591	131.07
393.801	12.29
394.01	77.82
394.22	57.34
394.429	110.59
394.639	20.48
394.848	81.92
395.058	40.96
395.267	47.1
395.477	40.96
395.686	28.67
395.895	167.93
396.105	69.63
396.314	79.87
396.524	90.11
396.733	139.26
396.942	36.86
397.152	75.77
397.361	112.64
397.57	155.65
397.78	98.3
397.989	71.68
398.198	167.93
398.407	77.82
398.617	106.49
398.826	110.59
399.035	83.97
399.244	98.3
399.453	65.54
399.663	131.07
399.872	63.49
400.081	188.41
400.29	71.68
400.499	100.35
400.708	163.84
400.917	75.77
401.127	40.96
401.336	59.39
401.545	120.83
401.754	122.88
401.963	55.3
402.172	163.84
402.381	100.35
402.59	43.01
402.799	106.49
403.008	153.6
403.217	53.25
403.426	94.21
403.635	18.43
403.844	139.26
404.053	167.93
404.262	83.97
404.471	133.12
404.68	143.36
404.888	145.41
405.097	30.72
405.306	61.44
405.515	114.69
405.724	96.25
405.933	188.41
406.142	77.82
406.35	194.56
406.559	147.45
406.768	215.04
406.977	239.61
407.185	200.7
407.394	147.45
407.603	131.07
407.812	210.94
408.02	174.08
408.229	223.23
408.438	172.03
408.646	223.23
408.855	223.23
409.064	276.48
409.272	206.84
409.481	245.76
409.69	221.18
409.898	233.47
410.107	282.62
410.315	286.72
410.524	180.22
410.733	256
410.941	264.19
411.15	368.63
411.358	323.58
411.567	325.63
411.775	274.43
411.984	313.34
412.192	387.07
412.401	395.26
412.609	466.94
412.818	397.31
413.026	425.98
413.234	378.87
413.443	503.8
413.651	454.65
413.86	468.98
414.068	497.66
414.276	542.71
414.485	446.46
414.693	569.34
414.901	579.58
415.11	520.18
415.318	577.53
415.526	616.44
415.734	577.53
415.943	727.03
416.151	659.45
416.359	698.36
416.567	811
416.776	724.98
416.984	884.72
417.192	784.37
417.4	823.28
417.608	858.1
417.817	815.09
418.025	909.3
418.233	1042.42
418.441	937.97
418.649	1132.53
418.857	987.12
419.065	1150.96
419.273	987.12
419.481	1173.49
419.689	1144.81
419.897	1175.53
420.105	1261.55
420.313	1284.08
420.521	1382.38
420.729	1431.53
420.937	1501.16
421.145	1499.11
421.353	1495.02
421.561	1728.49
421.769	1673.19
421.977	1710.05
422.185	1826.79
422.393	1789.92
422.601	1986.53
422.809	1947.62
423.017	1914.85
423.224	2101.22
423.432	2070.5
423.64	2123.74
423.848	2213.85
424.056	2185.18
424.263	2373.6
424.471	2373.6
424.679	2353.12
424.887	2627.54
425.094	2707.41
425.302	2605.02
425.51	2822.1
425.718	2772.95
425.925	2938.84
426.133	2985.94
426.341	3041.23
426.548	3366.86
426.756	3295.18
426.964	3373
427.171	3606.47
427.379	3710.92
427.586	3696.58
427.794	3878.85
428.001	3995.59
428.209	4153.28
428.417	4130.75
428.624	4349.89
428.832	4349.89
429.039	4470.72
429.247	4440
429.454	4800.44
429.662	5015.48
429.869	4765.62
430.076	4966.32
430.284	5081.01
430.491	5214.13
430.699	5521.32
430.906	5498.8
431.114	5531.56
431.321	5762.98
431.528	5849
431.736	6268.83
431.943	6506.4
432.15	6266.78
432.358	6389.66
432.565	6737.82
432.772	6696.86
432.979	7221.14
433.187	7159.7
433.394	7278.48
433.601	7675.79
433.808	7942.02
434.016	7853.96
434.223	8040.33
434.43	8488.83
434.637	8202.11
434.844	8769.4
435.052	9006.97
435.259	8925.05
435.466	9189.24
435.673	9105.27
435.88	9549.68
436.087	9951.08
436.294	10006.38
436.501	9701.23
436.708	10137.45
436.915	10407.78
437.122	10870.62
437.329	10930.01
437.537	11132.76
437.743	11480.91
437.95	11349.84
438.157	11757.39
438.364	12144.45
438.571	12285.76
438.778	12240.71
438.985	13471.54
439.192	12980.03
439.399	13410.1
439.606	13057.85
439.813	13639.47
440.02	14720.8
440.227	14233.38
440.433	14128.94
440.64	14479.14
440.847	14225.19
441.054	15003.42
441.261	15785.74
441.467	15716.11
441.674	16006.92
441.881	16652.03
442.088	16619.27
442.294	16299.78
442.501	16873.21
442.708	17411.83
442.914	18013.93
443.121	18761.44
443.328	17889.01
443.534	19451.61
443.741	18937.57
443.948	18855.65
444.154	20025.04
444.361	20078.29
444.568	20074.19
444.774	19824.34
444.981	20037.33
445.187	20807.36
445.394	21745.33
445.6	21608.12
445.807	23727.77
446.013	22886.05
446.22	22722.21
446.426	23770.77
446.633	24204.94
446.839	25011.84
447.046	23924.37
447.252	25218.69
447.459	25208.45
447.665	24948.36
447.871	26508.91
448.078	27346.53
448.284	26076.79
448.491	26709.61
448.697	28126.8
448.903	28503.63
449.11	28429.9
449.316	28102.23
449.522	28614.22
449.728	28980.81
449.935	29615.68
450.141	29634.11
450.347	30246.45
450.553	29603.39
450.76	29863.48
450.966	30395.95
451.172	30330.42
451.378	30852.65
451.584	30203.44
451.791	30961.19
451.997	31182.37
452.203	31358.5
452.409	31780.38
452.615	31645.21
452.821	30680.62
453.027	30084.66
453.233	31819.29
453.44	30717.48
453.646	30643.76
453.852	31243.81
454.058	31551.01
454.264	30451.25
454.47	31651.36
454.676	30428.72
454.882	31743.52
455.088	28712.52
455.294	29560.38
455.5	29933.11
455.705	29994.55
455.911	28796.49
456.117	28573.26
456.323	28063.32
456.529	26396.27
456.735	27790.94
456.941	27041.38
457.147	26752.62
457.352	25611.9
457.558	25695.86
457.764	25527.93
457.97	25372.28
458.176	24811.14
458.381	24954.5
458.587	23549.59
458.793	23316.12
458.999	22144.69
459.204	23817.88
459.41	23303.84
459.616	21556.92
459.821	21720.76
460.027	21388.99
460.233	21081.79
460.438	20190.92
460.644	20432.58
460.85	19394.26
461.055	19349.21
461.261	19070.68
461.466	17743.6
461.672	17043.2
461.878	18265.83
462.083	17321.72
462.289	16983.8
462.494	16713.47
462.7	15855.37
462.905	15312.66
463.111	16008.97
463.316	16041.74
463.522	15931.15
463.727	15712.02
463.932	15689.49
464.138	15691.54
464.343	15613.71
464.549	15206.17
464.754	15460.12
464.959	15374.1
465.165	15376.15
465.37	14708.51
465.575	14165.8
465.781	14837.53
465.986	14972.7
466.191	14251.81
466.397	14184.23
466.602	13547.31
466.807	13981.48
467.012	13864.75
467.218	13827.89
467.423	13649.71
467.628	13633.33
467.833	14331.69
468.038	14047.02
468.244	13471.54
468.449	14026.54
468.654	13557.55
468.859	13520.69
469.064	13213.49
469.269	12662.59
469.474	13096.76
469.679	13123.38
469.885	12713.79
470.09	13221.69
470.295	12885.82
470.5	12523.33
470.705	12808
470.91	12537.66
471.115	12267.33
471.32	12400.45
471.525	12443.46
471.73	12107.59
471.935	12216.13
472.139	11816.78
472.344	11935.56
472.549	11790.16
472.754	11781.96
472.959	11417.43
473.164	11059.03
473.369	10993.5
473.574	11114.33
473.778	11251.54
473.983	10970.97
474.188	11132.76
474.393	10717.02
474.598	10788.7
474.802	10626.91
475.007	10624.86
475.212	10598.24
475.417	10293.09
475.621	10200.93
475.826	10352.48
476.031	9717.61
476.235	9734
476.44	9940.84
476.645	9795.43
476.849	9635.69
477.054	9758.57
477.259	9457.52
477.463	9449.33
477.668	9277.3
477.872	9289.59
478.077	9119.6
478.282	9260.91
478.486	8789.88
478.691	8818.55
478.895	8716.16
479.1	8703.87
479.304	8767.35
479.509	8468.35
479.713	8796.03
479.918	8558.46
480.122	8351.62
480.326	8474.49
480.531	8429.44
480.735	8372.1
480.94	8294.27
481.144	8562.56
481.348	8046.47
481.553	8183.68
481.757	8152.96
481.961	8294.27
482.166	8353.66
482.37	8238.98
482.574	7968.65
482.778	8169.35
482.983	8167.3
483.187	8048.52
483.391	8157.06
483.595	8216.45
483.8	7929.74
484.004	8224.64
484.208	8226.69
484.412	8263.55
484.616	8161.16
484.821	8267.65
485.025	8155.01
485.229	8152.96
485.433	8179.59
485.637	8107.91
485.841	8017.8
486.045	7964.55
486.249	8171.4
486.453	7993.22
486.657	8107.91
486.861	8093.57
487.065	7980.93
487.269	8036.23
487.473	7798.66
487.677	7978.89
487.881	8220.55
488.085	7991.17
488.289	8175.49
488.493	7974.79
488.697	8095.62
488.901	8142.72
489.105	8114.05
489.309	8230.79
489.512	8167.3
489.716	7995.27
489.92	8261.51
490.124	8144.77
490.328	8380.29
490.531	8148.87
490.735	8038.28
490.939	8314.75
491.143	8333.18
491.346	8208.26
491.55	8400.77
491.754	8331.14
491.958	8474.49
492.161	8574.85
492.365	8562.56
492.569	8419.2
492.772	8578.94
492.976	8587.13
493.18	8644.48
493.383	8550.27
493.587	8769.4
493.79	8652.67
493.994	8834.94
494.197	8832.89
494.401	9084.79
494.605	8855.42
494.808	9082.74
495.012	8916.86
495.215	9121.65
495.419	9242.48
495.622	9297.78
495.825	9387.89
496.029	9334.64
496.232	9482.1
496.436	9615.21
496.639	9699.18
496.843	9641.84
497.046	9895.78
497.249	9871.21
497.453	10131.3
497.656	9994.09
497.859	10090.34
498.063	10235.75
498.266	10569.57
498.469	10401.63
498.673	10579.81
498.876	10827.61
499.079	10626.91
499.282	10841.95
499.485	11079.51
499.689	10999.64
499.892	11306.84
500.095	11075.41
500.298	11464.53
500.501	11294.55
500.705	11728.72
500.908	11892.55
501.111	11900.75
501.314	11939.66
501.517	12164.93
501.72	12185.41
501.923	12267.33
502.126	12529.47
502.329	12668.73
502.532	12769.09
502.735	12851
502.938	12934.97
503.141	12902.2
503.344	13319.99
503.547	13498.16
503.75	13455.15
503.953	13973.29
504.156	13971.24
504.359	13981.48
504.562	14044.97
504.765	14458.66
504.968	14542.63
505.17	14538.53
505.373	14864.16
505.576	14882.59
505.779	14968.6
505.982	14995.23
506.185	15685.39
506.387	15396.63
506.59	15552.27
506.793	16017.16
506.996	16047.88
507.198	16574.21
507.401	16174.86
507.604	16156.43
507.807	16574.21
508.009	16740.1
508.212	16580.35
508.415	17207.03
508.617	17430.26
508.82	17557.24
509.022	17555.19
509.225	17862.38
509.428	17729.27
509.63	18249.45
509.833	17962.73
510.035	18763.49
510.238	18527.97
510.44	18792.16
510.643	19115.74
510.845	19218.14
511.048	18902.75
511.25	19599.06
511.453	19912.4
511.655	20137.68
511.858	19746.51
512.06	20147.92
512.262	20201.16
512.465	20344.52
512.667	20707.01
512.87	20661.96
513.072	20815.55
513.274	21335.74
513.477	21630.65
513.679	21665.46
513.881	21984.94
514.084	22011.57
514.286	21968.56
514.488	22163.12
514.69	22871.72
514.893	22890.15
515.095	23076.51
515.297	22974.11
515.499	23226.01
515.701	23570.07
515.904	23946.9
516.106	24188.56
516.308	23944.85
516.51	24409.74
516.712	24579.72
516.914	24579.72
517.116	24915.59
517.318	25171.58
517.52	25276.03
517.722	25230.97
517.925	25491.07
518.127	25871.99
518.329	25976.44
518.531	25853.56
518.733	26637.93
518.935	26621.55
519.136	26787.43
519.338	27348.57
519.54	27442.78
519.742	27788.89
519.944	27651.67
520.146	28134.99
520.348	28274.26
520.55	28493.39
520.752	28567.12
520.954	28853.83
521.155	28845.64
521.357	29124.16
521.559	29623.87
521.761	29894.2
521.963	29568.57
522.164	29881.91
522.366	29826.62
522.568	30023.22
522.77	30299.7
522.971	30834.22
523.173	30561.84
523.375	30830.12
523.576	30881.32
523.778	30893.61
523.98	31440.42
524.181	31546.91
524.383	31364.64
524.584	31786.52
524.786	31766.04
524.988	31766.04
525.189	32445.97
525.391	32364.05
525.592	32804.36
525.794	32706.06
525.995	32552.46
526.197	32640.53
526.398	32734.73
526.6	33236.48
526.801	33693.18
527.003	33089.03
527.204	33089.03
527.406	33732.09
527.607	33467.91
527.808	33740.29
528.01	32964.1
528.211	33762.81
528.412	34401.78
528.614	34244.09
528.815	34500.08
529.016	34590.19
529.218	34450.93
529.419	34366.96
529.62	34686.45
529.822	34627.06
530.023	34471.41
530.224	34633.2
530.425	34625.01
530.626	34448.88
530.828	34133.5
531.029	35296.74
531.23	34622.96
531.431	34739.69
531.632	35108.33
531.833	34833.9
532.035	35270.12
532.236	34788.85
532.437	35003.88
532.638	34872.81
532.839	35282.41
533.04	35192.29
533.241	34835.95
533.442	35577.31
533.643	35476.96
533.844	35212.77
534.045	35337.7
534.246	35210.73
534.447	35454.43
534.648	35218.92
534.849	35587.55
535.05	34708.97
535.251	35573.22
535.451	34942.44
535.652	35431.91
535.853	35442.15
536.054	35517.92
536.255	35337.7
536.456	34924.01
536.657	35632.61
536.857	35438.05
537.058	35046.89
537.259	35343.84
537.46	35243.49
537.66	35235.3
537.861	35745.25
538.062	35499.49
538.263	35427.81
538.463	34969.07
538.664	35169.77
538.865	35409.38
539.065	35413.48
539.266	35053.03
539.466	35012.07
539.667	34758.13
539.868	35519.97
540.068	35491.3
540.269	35413.48
540.469	35603.94
540.67	34979.31
540.87	35282.41
541.071	35067.37
541.271	35569.12
541.472	35098.09
541.672	35030.51
541.873	35233.25
542.073	34741.74
542.274	35067.37
542.474	34827.76
542.675	35038.7
542.875	35507.68
543.075	35012.07
543.276	35036.65
543.476	35268.07
543.676	35364.32
543.877	35259.88
544.077	34964.97
544.277	35130.86
544.478	35120.62
544.678	35003.88
544.878	35147.24
545.078	35093.99
545.279	34692.59
545.479	35046.89
545.679	35374.56
545.879	34694.64
546.079	34917.87
546.28	34801.13
546.48	34754.03
546.68	34772.46
546.88	35118.57
547.08	35083.75
547.28	34967.02
547.48	34377.2
547.68	34866.67
547.88	34110.97
548.081	34999.79
548.281	34825.71
548.481	34569.71
548.681	34911.72
548.881	34807.28
549.081	34700.78
549.28	34711.02
549.48	34878.96
549.68	34917.87
549.88	35204.58
550.08	35001.83
550.28	34491.89
550.48	34758.13
550.68	34817.52
550.88	34690.54
551.08	34991.59
551.279	34383.35
551.479	34326
551.679	34762.22
551.879	34543.09
552.079	34944.49
552.278	34536.94
552.478	34680.3
552.678	34481.65
552.878	34672.11
553.077	34272.76
553.277	34237.94
553.477	34735.6
553.676	34508.27
553.876	34545.14
554.076	34346.48
554.275	34090.49
554.475	34237.94
554.674	34266.61
554.874	34229.75
555.074	34373.11
555.273	34326
555.473	34209.27
555.672	34217.46
555.872	34235.89
556.071	33977.85
556.271	34276.85
556.47	33852.92
556.67	33633.79
556.869	34096.63
557.068	33883.64
557.268	34086.39
557.467	33465.86
557.667	33728
557.866	33977.85
558.065	34057.72
558.265	33730.05
558.464	33592.83
558.663	33854.97
558.863	33238.53
559.062	33783.29
559.261	33639.93
559.461	33619.46
559.66	33287.68
559.859	33469.95
560.058	33357.31
560.258	33359.36
560.457	33263.11
560.656	33408.51
560.855	32970.25
561.054	33048.07
561.253	33017.35
561.453	33152.52
561.652	33187.33
561.851	33439.23
562.05	32706.06
562.249	32935.43
562.448	33179.14
562.647	33000.97
562.846	32792.08
563.045	32744.97
563.244	32433.68
563.443	32816.65
563.642	32177.68
563.841	32536.08
564.04	32540.18
564.239	32693.77
564.438	32335.38
564.637	32343.57
564.836	32566.8
565.035	32009.75
565.234	32398.87
565.432	32101.91
565.631	31948.31
565.83	31987.22
566.029	31940.12
566.228	31585.82
566.427	31936.02
566.625	31483.42
566.824	31600.16
567.023	31688.22
567.222	31421.98
567.42	31630.88
567.619	31434.27
567.818	31231.52
568.016	31460.9
568.215	30965.29
568.414	30789.16
568.612	31260.19
568.811	31118.89
569.01	30897.7
569.208	30541.36
569.407	31180.32
569.605	30457.39
569.804	31092.26
570.002	30582.32
570.201	30539.31
570.4	30400.05
570.598	30172.72
570.797	30068.28
570.995	30402.1
571.193	29869.62
571.392	30518.83
571.59	30178.87
571.789	30146.1
571.987	29933.11
572.186	30123.57
572.384	29855.29
572.582	29883.96
572.781	30029.37
572.979	29435.45
573.177	29591.1
573.376	29943.35
573.574	29302.34
573.772	29605.44
573.971	29627.96
574.169	29486.65
574.367	29009.48
574.565	29435.45
574.763	28999.24
574.962	29146.69
575.16	28935.75
575.358	28847.69
575.556	28581.45
575.754	29093.44
575.952	28649.03
576.151	28759.63
576.349	28456.53
576.547	28382.8
576.745	28851.78
576.943	28450.38
577.141	28614.22
577.339	28376.65
577.537	28218.96
577.735	28120.66
577.933	27897.43
578.131	28147.28
578.329	28098.13
578.527	27428.45
578.725	27905.62
578.923	28073.56
579.121	27629.15
579.319	27627.1
579.516	27809.37
579.714	27516.51
579.912	27530.84
580.11	27596.38
580.308	27274.85
580.506	27344.48
580.704	27031.14
580.901	27270.75
581.099	27369.05
581.297	26941.03
581.495	26842.73
581.692	27061.86
581.89	26928.74
582.088	26848.87
582.285	26836.58
582.483	26814.05
582.681	26721.9
582.878	26889.83
583.076	26304.11
583.274	26478.19
583.471	26170.99
583.669	26175.09
583.866	25839.22
584.064	26318.45
584.262	25761.4
584.459	26035.83
584.657	25740.92
584.854	26044.02
585.052	25386.62
585.249	25921.14
585.447	26113.65
585.644	25499.26
585.841	25407.1
586.039	25618.04
586.236	25226.88
586.434	25497.21
586.631	25218.69
586.828	25321.09
587.026	25298.56
587.223	25284.22
587.42	24874.63
587.618	24968.83
587.815	24657.54
588.012	24731.27
588.21	24739.46
588.407	24968.83
588.604	24573.58
588.801	24817.29
588.999	24542.86
589.196	24411.79
589.393	24698.5
589.59	24198.8
589.787	24299.15
589.984	24288.91
590.182	23858.84
590.379	24102.54
590.576	23963.28
590.773	24012.43
590.97	23946.9
591.167	23922.32
591.364	23711.38
591.561	23510.68
591.758	23496.35
591.955	23555.74
592.152	23416.47
592.349	23449.24
592.546	23459.48
592.743	23447.19
592.94	23051.94
593.137	23076.51
593.334	23129.76
593.531	22746.79
593.727	23047.84
593.924	23152.29
594.121	22830.76
594.318	22998.69
594.515	22326.96
594.712	22546.09
594.908	22560.42
595.105	22632.1
595.302	22675.11
595.499	22394.54
595.696	22220.46
595.892	22126.25
596.089	22390.44
596.286	22042.29
596.482	21989.04
596.679	22148.78
596.876	21999.28
597.072	22255.28
597.269	21591.73
597.466	21679.8
597.662	21681.85
597.859	21804.72
598.055	21571.25
598.252	21503.67
598.448	21501.62
598.645	21520.06
598.841	21327.55
599.038	21325.5
599.234	21282.49
599.431	20598.47
599.627	21069.5
599.824	21247.68
600.02	20692.68
600.217	21116.61
600.413	20643.52
600.609	20680.39
600.806	20616.9
601.002	20829.89
601.198	20438.73
601.395	20532.93
601.591	20387.53
601.787	20278.99
601.984	20330.19
602.18	20299.47
602.376	20201.16
602.572	20090.57
602.769	20074.19
602.965	20053.71
603.161	19799.76
603.357	19736.27
603.553	19957.46
603.75	19863.25
603.946	19787.47
604.142	19726.03
604.338	19537.62
604.534	19513.05
604.73	19672.79
604.926	19511
605.122	19316.44
605.318	19345.11
605.514	19146.46
605.71	19386.07
605.906	19164.89
606.102	19216.09
606.298	19101.4
606.494	18861.79
606.69	19134.17
606.886	19111.64
607.082	18826.98
607.278	19023.58
607.474	18507.49
607.67	18855.65
607.866	18505.45
608.062	18577.12
608.257	18818.78
608.453	18568.93
608.649	18388.71
608.845	18669.28
609.041	18429.67
609.236	18626.28
609.432	18493.16
609.628	18435.81
609.824	18405.1
610.019	18323.18
610.215	18419.43
610.411	18374.38
610.606	18319.08
610.802	18552.55
610.998	18151.15
611.193	18392.81
611.389	17889.01
611.584	17850.1
611.78	17903.34
611.976	17782.51
612.171	18038.51
612.367	17792.75
612.562	17602.29
612.758	17514.23
612.953	17690.35
613.149	17909.49
613.344	17639.15
613.539	18063.08
613.735	17723.12
613.93	17708.79
614.126	17514.23
614.321	17649.39
614.517	17438.45
614.712	17495.8
614.907	17424.12
615.103	17489.65
615.298	17291
615.493	17348.34
615.688	17071.87
615.884	17477.37
616.079	17118.97
616.274	17374.97
616.47	17018.62
616.665	16981.76
616.86	16963.33
617.055	16852.73
617.25	16871.17
617.445	17098.49
617.641	16971.52
617.836	16940.8
618.031	16752.38
618.226	16811.78
618.421	16789.25
618.616	16678.66
618.811	16455.43
619.006	16840.45
619.201	16154.38
619.396	16371.46
619.591	16217.86
619.786	16674.56
619.981	16293.64
620.176	16146.19
620.371	16146.19
620.566	16310.02
620.761	15957.77
620.956	16121.61
621.151	15767.31
621.346	16060.17
621.541	15488.79
621.735	15863.57
621.93	15566.61
622.125	15533.84
622.32	15224.6
622.515	15257.37
622.709	15400.72
622.904	15251.22
623.099	15052.57
623.294	15341.33
623.488	15144.73
623.683	14966.56
623.878	14671.65
624.072	14765.85
624.267	14653.22
624.462	14653.22
624.656	14358.31
624.851	14499.62
625.046	14405.41
625.24	14370.6
625.435	14116.65
625.629	14415.65
625.824	14036.78
626.018	14012.2
626.213	13938.48
626.407	13797.17
626.602	13694.77
626.796	13889.32
626.991	13766.45
627.185	13586.22
627.38	13354.8
627.574	13684.53
627.768	13578.03
627.963	13360.95
628.157	13248.31
628.352	13281.08
628.546	13029.18
628.74	13082.42
628.935	12885.82
629.129	12861.24
629.323	12560.19
629.517	12767.04
629.712	12660.54
629.906	12646.21
630.1	12312.39
630.294	12494.66
630.489	12302.15
630.683	12255.05
630.877	12144.45
631.071	12265.28
631.265	12357.44
631.459	12011.34
631.653	11956.04
631.848	11820.88
632.042	11898.7
632.236	11788.11
632.43	11757.39
632.624	11853.64
632.818	11603.79
633.012	11364.18
633.206	11472.72
633.4	11622.22
633.594	11364.18
633.788	11474.77
633.982	11358.03
634.176	11124.57
634.369	11202.39
634.563	11104.09
634.757	10989.4
634.951	10901.34
635.145	11116.37
635.339	10919.77
635.533	10987.35
635.726	10993.5
635.92	10704.73
636.114	10710.88
636.308	10735.45
636.501	10678.11
636.695	10639.2
636.889	10510.18
637.083	10557.28
637.276	10340.19
637.47	10307.43
637.664	10278.76
637.857	10352.48
638.051	10233.7
638.244	10162.02
638.438	10063.72
638.632	10141.54
638.825	9975.66
639.019	9932.65
639.212	9703.28
639.406	9891.69
639.599	9744.24
639.793	9697.13
639.986	9604.97
640.18	9703.28
640.373	9766.76
640.567	9543.53
640.76	9561.97
640.954	9645.93
641.147	9355.12
641.34	9342.83
641.534	9342.83
641.727	9312.11
641.92	9131.89
642.114	9045.88
642.307	9140.08
642.5	9107.32
642.694	8888.18
642.887	8701.82
643.08	8968.06
643.273	8939.38
643.467	8630.14
643.66	8783.74
643.853	8648.57
644.046	8681.34
644.239	8441.73
644.432	8742.78
644.626	8347.52
644.819	8333.18
645.012	8335.23
645.205	8355.71
645.398	8349.57
645.591	8335.23
645.784	8337.28
645.977	8411.01
646.17	8306.56
646.363	8087.43
646.556	8032.13
646.749	8013.7
646.942	8120.2
647.135	7956.36
647.328	8030.09
647.521	7853.96
647.714	7669.64
647.907	7821.19
648.099	7786.38
648.292	7679.88
648.485	7747.47
648.678	7665.55
648.871	7600.01
649.064	7493.52
649.256	7677.83
649.449	7688.07
649.642	7403.41
649.835	7368.59
650.027	7434.13
650.22	7303.06
650.413	7102.36
650.605	7337.87
650.798	7278.48
650.991	7128.98
651.183	7167.89
651.376	6985.62
651.568	7147.41
651.761	6842.26
651.954	6987.67
652.146	6938.52
652.339	6854.55
652.531	6782.87
652.724	6889.37
652.916	6680.47
653.109	6703
653.301	6821.78
653.494	6588.32
653.686	6447.01
653.879	6762.39
654.071	6565.79
654.263	6440.86
654.456	6608.8
654.648	6520.73
654.84	6471.58
655.033	6389.66
655.225	6391.71
655.417	6397.85
655.61	6434.72
655.802	6375.33
655.994	6277.02
656.186	6064.04
656.379	6170.53
656.571	6164.39
656.763	6084.52
656.955	6150.05
657.148	6059.94
657.34	6010.79
657.532	5816.23
657.724	5980.07
657.916	5973.92
658.108	6027.17
658.3	5904.29
658.492	5861.29
658.684	5719.98
658.876	5808.04
659.068	5973.92
659.26	5844.9
659.452	5812.14
659.644	5515.18
659.836	5597.1
660.028	5586.86
660.22	5437.36
660.412	5562.28
660.604	5474.22
660.796	5644.2
660.988	5513.13
661.18	5375.92
661.372	5357.49
661.563	5279.66
661.755	5515.18
661.947	5564.33
662.139	5332.91
662.331	5257.14
662.522	5089.2
662.714	5351.34
662.906	5207.98
663.097	5255.09
663.289	5244.85
663.481	5255.09
663.673	5081.01
663.864	5033.91
664.056	5083.06
664.247	4927.41
664.439	5023.67
664.631	4976.56
664.822	4878.26
665.014	4986.8
665.205	5009.33
665.397	4790.2
665.588	4749.24
665.78	4851.64
665.971	4839.35
666.163	4884.41
666.354	4902.84
666.546	4804.53
666.737	4609.98
666.929	4626.36
667.12	4628.41
667.311	4718.52
667.503	4675.51
667.694	4673.46
667.885	4607.93
668.077	4677.56
668.268	4487.1
668.459	4478.91
668.651	4476.86
668.842	4429.76
669.033	4679.61
669.224	4358.08
669.416	4409.28
669.607	4382.65
669.798	4345.79
669.989	4184
670.18	4253.63
670.371	4384.7
670.563	4321.21
670.754	4181.95
670.945	4241.34
671.136	4120.51
671.327	4249.54
671.518	4212.67
671.709	4009.92
671.9	4073.41
672.091	4087.75
672.282	4161.47
672.473	4020.16
672.664	4069.31
672.855	4077.51
673.046	4005.83
673.237	4143.04
673.428	3899.33
673.619	4102.08
673.809	3903.43
674	3878.85
674.191	3938.24
674.382	3952.58
674.573	3958.72
674.764	3946.44
674.954	3938.24
675.145	3854.28
675.336	3811.27
675.527	3827.65
675.717	3893.19
675.908	3518.41
676.099	3717.06
676.289	3798.98
676.48	3682.25
676.671	3690.44
676.861	3669.96
677.052	3735.49
677.243	3616.71
677.433	3663.82
677.624	3596.23
677.814	3682.25
678.005	3567.56
678.195	3618.76
678.386	3624.9
678.576	3497.93
678.767	3448.78
678.957	3594.19
679.148	3643.34
679.338	3436.49
679.529	3594.19
679.719	3557.32
679.909	3596.23
680.1	3467.21
680.29	3321.81
680.481	3301.33
680.671	3395.53
680.861	3485.64
681.052	3530.7
681.242	3452.88
681.432	3370.96
681.622	3321.81
681.813	3258.32
682.003	3366.86
682.193	3313.61
682.383	3434.44
682.573	3260.37
682.764	3254.22
682.954	3291.09
683.144	3248.08
683.334	3227.6
683.524	3211.22
683.714	3135.44
683.904	3153.87
684.094	3229.65
684.284	3080.15
684.474	3248.08
684.664	3203.02
684.854	3250.13
685.044	3272.65
685.234	3030.99
685.424	3188.69
685.614	3092.43
685.804	3135.44
685.994	3080.15
686.184	3190.74
686.374	3049.43
686.564	3059.67
686.753	3127.25
686.943	2957.27
687.133	3000.27
687.323	3026.9
687.513	3018.71
687.702	3086.29
687.892	2955.22
688.082	2953.17
688.272	2897.88
688.461	2957.27
688.651	2938.84
688.841	2983.89
689.03	2932.69
689.22	2756.57
689.41	2957.27
689.599	2824.15
689.789	2777.05
689.979	2908.12
690.168	2873.3
690.358	2822.1
690.547	2799.57
690.737	2809.81
690.926	2852.82
691.116	2713.56
691.305	2858.96
691.495	2813.91
691.684	2676.7
691.874	2650.07
692.063	2666.46
692.252	2764.76
692.442	2629.59
692.631	2613.21
692.82	2727.89
693.01	2699.22
693.199	2688.98
693.388	2551.77
693.578	2686.94
693.767	2586.58
693.956	2453.47
694.146	2631.64
694.335	2506.71
694.524	2615.26
694.713	2572.25
694.902	2588.63
695.092	2551.77
695.281	2551.77
695.47	2506.71
695.659	2523.1
695.848	2418.65
696.037	2439.13
696.226	2523.1
696.415	2430.94
696.604	2602.97
696.793	2496.47
696.982	2303.96
697.171	2340.83
697.36	2367.45
697.549	2445.27
697.738	2527.19
697.927	2363.36
698.116	2310.11
698.305	2342.88
698.494	2318.3
698.683	2226.14
698.872	2514.91
699.061	2263.01
699.25	2441.18
699.438	2336.73
699.627	2363.36
699.816	2367.45
700.005	2224.09
700.193	2263.01
700.382	2396.12
700.571	2283.49
700.76	2291.68
700.948	2254.81
701.137	2189.28
701.326	2344.92
701.514	2310.11
701.703	2265.05
701.892	2260.96
702.08	2324.44
702.269	2365.4
702.457	2244.57
702.646	2285.53
702.834	2299.87
703.023	2187.23
703.212	2281.44
703.4	2256.86
703.589	2215.9
703.777	2246.62
703.965	2164.7
704.154	2199.52
704.342	2168.8
704.531	2228.19
704.719	2146.27
704.907	2242.53
705.096	2199.52
705.284	2166.75
705.472	2258.91
705.661	2205.66
705.849	2158.56
706.037	2285.53
706.226	2252.77
706.414	2160.61
706.602	2183.13
706.79	2160.61
706.979	2136.03
707.167	2172.89
707.355	2154.46
707.543	2166.75
707.731	2275.29
707.919	2207.71
708.107	2236.38
708.296	2168.8
708.484	2064.35
708.672	2201.57
708.86	2138.08
709.048	2136.03
709.236	2113.5
709.424	2154.46
709.612	2248.67
709.8	2189.28
709.988	2109.41
710.176	2146.27
710.364	2156.51
710.551	2156.51
710.739	2150.37
710.927	1957.86
711.115	2027.49
711.303	2123.74
711.491	2158.56
711.679	2129.89
711.866	2123.74
712.054	2060.26
712.242	2127.84
712.43	2179.04
712.617	2203.61
712.805	2172.89
712.993	2152.42
713.181	2066.4
713.368	2084.83
713.556	2045.92
713.744	2076.64
713.931	2193.37
714.119	2193.37
714.306	2146.27
714.494	2029.54
714.682	2166.75
714.869	2142.18
715.057	2226.14
715.244	2097.12
715.432	2101.22
715.619	2070.5
715.807	2136.03
715.994	2062.3
716.182	2068.45
716.369	2232.29
716.556	2111.46
716.744	2129.89
716.931	2111.46
717.119	2140.13
717.306	2111.46
717.493	2281.44
717.681	2088.93
717.868	2174.94
718.055	2093.02
718.242	2146.27
718.43	2129.89
718.617	2103.26
718.804	2115.55
718.991	2117.6
719.179	2191.33
719.366	2064.35
719.553	2174.94
719.74	2207.71
719.927	2088.93
720.114	2183.13
720.301	2041.82
720.488	2062.3
720.676	2052.06
720.863	2215.9
721.05	2199.52
721.237	2217.95
721.424	2041.82
721.611	2256.86
721.798	2035.68
721.985	2150.37
722.172	2088.93
722.358	2090.98
722.545	2035.68
722.732	2158.56
722.919	2115.55
723.106	2105.31
723.293	2078.69
723.48	2086.88
723.667	2099.17
723.853	2131.94
724.04	2127.84
724.227	2183.13
724.414	2164.7
724.6	2189.28
724.787	2056.16
724.974	2127.84
725.161	2146.27
725.347	2146.27
725.534	2111.46
725.72	2168.8
725.907	2097.12
726.094	2107.36
726.28	2050.02
726.467	2179.04
726.653	2193.37
726.84	2086.88
727.027	2156.51
727.213	2234.33
727.4	2232.29
727.586	2217.95
727.773	2093.02
727.959	2068.45
728.145	2131.94
728.332	2109.41
728.518	2080.74
728.705	2076.64
728.891	2146.27
729.077	2109.41
729.264	2138.08
729.45	2095.07
729.636	2277.34
729.823	2222.05
730.009	2230.24
730.195	2123.74
730.382	2226.14
730.568	2084.83
730.754	2113.5
730.94	2050.02
731.126	2166.75
731.313	2125.79
731.499	2043.87
731.685	2138.08
731.871	2176.99
732.057	2148.32
732.243	2156.51
732.429	2164.7
732.615	2195.42
732.801	2285.53
732.987	2142.18
733.173	2217.95
733.359	2007.01
733.545	2113.5
733.731	2088.93
733.917	2133.98
734.103	2215.9
734.289	2183.13
734.475	2103.26
734.661	2127.84
734.847	2109.41
735.033	2136.03
735.219	2043.87
735.404	2093.02
735.59	2179.04
735.776	2185.18
735.962	2133.98
736.148	2252.77
736.333	2217.95
736.519	2166.75
736.705	2222.05
736.89	2187.23
737.076	2037.73
737.262	2064.35
737.447	2047.97
737.633	2058.21
737.819	2199.52
738.004	2117.6
738.19	2086.88
738.375	2084.83
738.561	2052.06
738.747	1986.53
738.932	2031.58
739.118	2084.83
739.303	2068.45
739.489	2093.02
739.674	2002.91
739.859	1986.53
740.045	2131.94
740.23	1998.82
740.416	2029.54
740.601	2045.92
740.786	1953.76
740.972	1931.23
741.157	2068.45
741.342	1947.62
741.528	1978.34
741.713	2054.11
741.898	1988.58
742.084	2011.11
742.269	2019.3
742.454	2029.54
742.639	1980.39
742.824	2019.3
743.01	1986.53
743.195	1890.28
743.38	2002.91
743.565	1947.62
743.75	1949.67
743.935	1857.51
744.12	1892.32
744.305	1937.38
744.49	1923.04
744.675	1820.64
744.86	1822.69
745.045	1943.52
745.23	1884.13
745.415	1923.04
745.6	1898.47
745.785	1742.82
745.97	1945.57
746.155	1775.59
746.34	1824.74
746.525	1892.32
746.71	1765.35
746.895	1890.28
747.079	1595.37
747.264	1689.57
747.449	1875.94
747.634	1808.36
747.819	1751.01
748.003	1708.01
748.188	1685.48
748.373	1791.97
748.557	1710.05
748.742	1734.63
748.927	1703.91
749.111	1689.57
749.296	1734.63
749.481	1648.61
749.665	1685.48
749.85	1630.18
750.034	1605.61
750.219	1626.09
750.404	1560.55
750.588	1646.57
750.773	1691.62
750.957	1546.22
751.141	1578.98
751.326	1521.64
751.51	1597.42
751.695	1650.66
751.879	1642.47
752.064	1527.78
752.248	1581.03
752.432	1476.59
752.617	1560.55
752.801	1392.62
752.985	1386.47
753.17	1505.26
753.354	1462.25
753.538	1380.33
753.722	1267.69
753.907	1464.3
754.091	1386.47
754.275	1300.46
754.459	1464.3
754.643	1374.19
754.828	1421.29
755.012	1421.29
755.196	1380.33
755.38	1417.19
755.564	1396.71
755.748	1269.74
755.932	1333.23
756.116	1372.14
756.3	1294.32
756.484	1284.08
756.668	1302.51
756.852	1249.26
757.036	1259.5
757.22	1251.31
757.404	1259.5
757.588	1292.27
757.772	1304.56
757.956	1245.16
758.14	1277.93
758.323	1277.93
758.507	1196.01
758.691	1171.44
758.875	1259.5
759.059	1210.35
759.242	1163.25
759.426	1175.53
759.61	1134.57
759.794	1232.88
759.977	1196.01
760.161	1193.97
760.345	1232.88
760.528	1208.3
760.712	1030.13
760.895	1101.81
761.079	1144.81
761.263	1089.52
761.446	1026.03
761.63	1224.69
761.813	1110
761.997	1048.56
762.18	1030.13
762.364	1048.56
762.547	958.45
762.731	1126.38
762.914	1054.7
763.098	1036.27
763.281	1081.33
763.464	1093.62
763.648	1105.9
763.831	974.83
764.015	1005.55
764.198	1050.61
764.381	1095.66
764.564	1003.5
764.748	1030.13
764.931	1077.23
765.114	985.07
765.297	1011.7
765.481	913.39
765.664	1077.23
765.847	1052.66
766.03	1032.18
766.213	964.59
766.397	1003.5
766.58	858.1
766.763	1019.89
766.946	935.92
767.129	987.12
767.312	946.16
767.495	882.67
767.678	935.92
767.861	1073.14
768.044	958.45
768.227	962.55
768.41	1001.46
768.593	923.63
768.776	913.39
768.959	860.15
769.142	997.36
769.324	962.55
769.507	849.91
769.69	892.91
769.873	911.35
770.056	989.17
770.239	788.47
770.421	851.96
770.604	888.82
770.787	913.39
770.97	888.82
771.152	772.08
771.335	845.81
771.518	823.28
771.7	849.91
771.883	927.73
772.066	872.43
772.248	864.24
772.431	864.24
772.613	806.9
772.796	833.52
772.978	712.69
773.161	876.53
773.343	847.86
773.526	843.76
773.708	767.99
773.891	796.66
774.073	765.94
774.256	817.14
774.438	778.23
774.621	835.57
774.803	804.85
774.985	796.66
775.168	765.94
775.35	870.39
775.532	753.65
775.715	757.75
775.897	765.94
776.079	749.56
776.261	753.65
776.444	727.03
776.626	804.85
776.808	708.6
776.99	716.79
777.173	798.71
777.355	741.36
777.537	694.26
777.719	659.45
777.901	698.36
778.083	718.84
778.265	700.41
778.447	653.3
778.629	681.97
778.811	661.49
778.993	638.97
779.175	753.65
779.357	700.41
779.539	759.8
779.721	677.88
779.903	604.15
780.085	630.77
780.267	632.82
780.449	669.69
780.631	602.1
780.812	667.64
780.994	647.16
781.176	651.25
781.358	561.14
781.54	546.81
781.721	561.14
781.903	573.43
782.085	577.53
782.267	569.34
782.448	538.62
782.63	538.62
782.812	501.75
782.993	561.14
783.175	509.94
783.357	503.8
783.538	552.95
783.72	487.42
783.901	495.61
784.083	520.18
784.264	514.04
784.446	555
784.627	462.84
784.809	534.52
784.99	591.86
785.172	505.85
785.353	434.17
785.535	528.38
785.716	485.37
785.897	487.42
786.079	481.27
786.26	442.36
786.441	489.46
786.623	380.92
786.804	411.64
786.985	423.93
787.167	423.93
787.348	370.68
787.529	423.93
787.71	475.13
787.891	536.57
788.073	385.02
788.254	405.5
788.435	446.46
788.616	440.31
788.797	354.3
788.978	507.9
789.159	372.73
789.34	374.78
789.522	403.45
789.703	407.55
789.884	423.93
790.065	425.98
790.246	450.55
790.427	405.5
790.607	448.51
790.788	409.59
790.969	356.35
791.15	387.07
791.331	454.65
791.512	317.44
791.693	327.67
791.874	327.67
792.054	450.55
792.235	339.96
792.416	335.87
792.597	311.29
792.778	296.96
792.958	329.72
793.139	315.39
793.32	364.54
793.5	301.05
793.681	464.89
793.862	286.72
794.042	389.11
794.223	229.37
794.404	249.85
794.584	299
794.765	251.9
794.945	266.24
795.126	274.43
795.306	301.05
795.487	331.77
795.667	307.2
795.848	356.35
796.028	253.95
796.209	303.1
796.389	327.67
796.57	245.76
796.75	258.04
796.93	376.83
797.111	315.39
797.291	317.44
797.471	237.56
797.652	262.14
797.832	266.24
798.012	299
798.192	212.99
798.373	331.77
798.553	178.17
798.733	288.76
798.913	235.52
799.093	245.76
799.274	323.58
799.454	247.8
799.634	268.28
799.814	256
799.994	221.18
800.174	229.37
800.354	225.28
800.534	286.72
800.714	208.89
800.894	169.98
801.074	229.37
801.254	243.71
801.434	231.42
801.614	270.33
801.794	169.98
801.974	864.24
802.154	176.13
802.334	260.09
802.514	221.18
802.693	243.71
802.873	184.32
803.053	301.05
803.233	200.7
803.413	241.66
803.592	225.28
803.772	202.75
803.952	217.08
804.131	182.27
804.311	305.15
804.491	296.96
804.67	102.4
804.85	200.7
805.03	208.89
805.209	212.99
805.389	204.8
805.568	219.13
805.748	165.89
805.928	233.47
806.107	256
806.287	219.13
806.466	180.22
806.646	241.66
806.825	210.94
807.004	249.85
807.184	219.13
807.363	194.56
807.543	194.56
807.722	159.74
807.901	272.38
808.081	217.08
808.26	153.6
808.439	167.93
808.619	139.26
808.798	221.18
808.977	282.62
809.156	153.6
809.336	212.99
809.515	145.41
809.694	169.98
809.873	178.17
810.052	221.18
810.231	180.22
810.411	253.95
810.59	208.89
810.769	149.5
810.948	202.75
811.127	110.59
811.306	186.37
811.485	188.41
811.664	169.98
811.843	249.85
812.022	149.5
812.201	167.93
812.38	174.08
812.559	110.59
812.737	137.21
812.916	135.17
813.095	202.75
813.274	182.27
813.453	176.13
813.632	180.22
813.811	163.84
813.989	108.54
814.168	231.42
814.347	161.79
814.526	129.02
814.704	172.03
814.883	157.69
815.062	151.55
815.24	137.21
815.419	135.17
815.598	151.55
815.776	108.54
815.955	131.07
816.133	81.92
816.312	149.5
816.49	90.11
816.669	188.41
816.847	192.51
817.026	188.41
817.204	86.01
817.383	120.83
817.561	102.4
817.74	96.25
817.918	153.6
818.097	124.93
818.275	81.92
818.453	176.13
818.632	129.02
818.81	141.31
818.988	20.48
819.167	122.88
819.345	102.4
819.523	102.4
819.701	108.54
819.879	59.39
820.058	96.25
820.236	126.97
820.414	176.13
820.592	163.84
820.77	112.64
820.948	108.54
821.127	163.84
821.305	102.4
821.483	147.45
821.661	161.79
821.839	116.73
822.017	94.21
822.195	165.89
822.373	155.65
822.551	157.69
822.729	102.4
822.907	75.77
823.085	192.51
823.262	120.83
823.44	67.58
823.618	63.49
823.796	65.54
823.974	104.45
824.152	83.97
824.329	135.17
824.507	81.92
824.685	155.65
824.863	118.78
825.04	137.21
825.218	169.98
825.396	114.69
825.574	59.39
825.751	30.72
825.929	176.13
826.107	110.59
826.284	110.59
826.462	151.55
826.639	73.73
826.817	77.82
826.994	57.34
827.172	86.01
827.349	210.94
827.527	69.63
827.704	184.32
827.882	88.06
828.059	188.41
828.237	118.78
828.414	83.97
828.591	34.82
828.769	145.41
828.946	81.92
829.124	182.27
829.301	145.41
829.478	104.45
829.655	77.82
829.833	122.88
830.01	61.44
830.187	172.03
830.364	6.14
830.542	94.21
830.719	0
830.896	53.25
831.073	6.14
831.25	22.53
831.427	71.68
831.604	114.69
831.782	102.4
831.959	65.54
832.136	94.21
832.313	92.16
832.49	65.54
832.667	110.59
832.844	96.25
833.021	159.74
833.198	63.49
833.374	118.78
833.551	122.88
833.728	120.83
833.905	57.34
834.082	49.15
834.259	122.88
834.436	151.55
834.612	90.11
834.789	81.92
834.966	71.68
835.143	77.82
835.319	12.29
835.496	63.49
835.673	98.3
835.85	151.55
836.026	65.54
836.203	61.44
836.38	8.19
836.556	92.16
836.733	45.06
836.909	190.46
837.086	88.06
837.262	18.43
837.439	34.82
837.616	81.92
837.792	81.92
837.968	86.01
838.145	-51.2
838.321	135.17
838.498	40.96
838.674	53.25
838.851	94.21
839.027	20.48
839.203	16.38
839.38	20.48
839.556	36.86
839.732	202.75
839.909	6.14
840.085	61.44
840.261	51.2
840.437	57.34
840.614	26.62
840.79	12.29
840.966	73.73
841.142	32.77
841.318	51.2
841.494	63.49
841.671	-20.48
841.847	-8.19
842.023	14.34
842.199	47.1
842.375	59.39
842.551	-22.53
842.727	59.39
842.903	63.49
843.079	65.54
843.255	65.54
843.431	83.97
843.607	79.87
843.783	53.25
843.959	14.34
844.134	55.3
844.31	55.3
844.486	-45.06
844.662	32.77
844.838	65.54
845.013	90.11
845.189	67.58
845.365	53.25
845.541	102.4
845.716	43.01
845.892	49.15
846.068	26.62
846.244	120.83
846.419	45.06
846.595	20.48
846.77	16.38
846.946	-22.53
847.122	4.1
847.297	2.05
847.473	104.45
847.648	96.25
847.824	69.63
847.999	34.82
848.175	24.58
848.35	-18.43
848.526	81.92
848.701	43.01
848.876	36.86
849.052	55.3
849.227	28.67
849.403	40.96
849.578	14.34
849.753	61.44
849.929	94.21
850.104	45.06
850.279	28.67
850.454	-24.58
850.63	63.49
850.805	40.96
850.98	6.14
851.155	69.63
851.33	79.87
851.505	61.44
851.681	88.06
851.856	63.49
852.031	145.41
852.206	6.14
852.381	18.43
852.556	-34.82
852.731	96.25
852.906	104.45
853.081	6.14
853.256	106.49
853.431	-30.72
853.606	10.24
853.781	36.86
853.956	-24.58
854.131	24.58
854.305	-12.29
854.48	49.15
854.655	81.92
854.83	61.44
855.005	8.19
855.18	106.49
855.354	61.44
855.529	38.91
855.704	53.25
855.879	12.29
856.053	-6.14
856.228	83.97
856.403	-18.43
856.577	53.25
856.752	-51.2
856.926	24.58
857.101	96.25
857.276	26.62
857.45	12.29
857.625	22.53
857.799	-26.62
857.974	10.24
858.148	-75.77
858.323	12.29
858.497	36.86
858.672	28.67
858.846	-65.54
859.02	45.06
859.195	-4.1
859.369	26.62
859.543	-36.86
859.718	-51.2
859.892	20.48
860.066	-12.29
860.241	2.05
860.415	6.14
860.589	65.54
860.763	-8.19
860.938	47.1
861.112	-2.05
861.286	45.06
861.46	-4.1
861.634	30.72
861.808	28.67
861.982	-43.01
862.157	8.19
862.331	16.38
862.505	-4.1
862.679	122.88
862.853	0
863.027	-20.48
863.201	96.25
863.375	16.38
863.549	47.1
863.722	106.49
863.896	59.39
864.07	100.35
864.244	32.77
864.418	49.15
864.592	30.72
864.766	73.73
864.939	63.49
865.113	16.38
865.287	55.3
865.461	79.87
865.634	-20.48
865.808	-79.87
865.982	-2.05
866.156	30.72
866.329	47.1
866.503	61.44
866.676	40.96
866.85	6.14
867.024	-4.1
867.197	69.63
867.371	-12.29
867.544	8.19
867.718	71.68
867.891	14.34
868.065	-26.62
868.238	12.29
868.412	20.48
868.585	-14.34
868.759	8.19
868.932	-38.91
869.105	55.3
869.279	24.58
869.452	4.1
869.625	65.54
869.799	45.06
869.972	6.14
870.145	-24.58
870.319	53.25
870.492	-38.91
870.665	-49.15
870.838	10.24
871.011	-10.24
871.185	36.86
871.358	49.15
871.531	94.21
871.704	45.06
871.877	86.01
872.05	51.2
872.223	-63.49
872.396	0
872.569	-38.91
872.742	0
872.915	20.48
873.088	-55.3
873.261	32.77
873.434	40.96
873.607	22.53
873.78	69.63
873.953	75.77
874.126	32.77
874.299	-40.96
874.471	45.06
874.644	28.67
874.817	22.53
874.99	28.67
875.163	-8.19
875.335	32.77
875.508	0
875.681	20.48
875.853	114.69
876.026	0
876.199	77.82
876.371	0
876.544	47.1
876.717	-8.19
876.889	-8.19
877.062	10.24
877.234	-4.1
877.407	26.62
877.579	4.1
877.752	69.63
877.924	26.62
878.097	-30.72
878.269	30.72
878.442	22.53
878.614	8.19
878.786	26.62
878.959	32.77
879.131	0
879.303	-28.67
879.476	-36.86
879.648	57.34
879.82	-69.63
879.993	4.1
880.165	-106.49
880.337	12.29
880.509	45.06
880.681	-40.96
880.854	16.38
881.026	36.86
881.198	18.43
881.37	12.29
881.542	32.77
881.714	38.91
881.886	-36.86
882.058	-4.1
882.23	-51.2
882.402	-2.05
882.574	98.3
882.746	53.25
882.918	61.44
883.09	30.72
883.262	73.73
883.434	-20.48
883.606	-12.29
883.778	36.86
883.95	79.87
884.122	-12.29
884.293	32.77
884.465	-53.25
884.637	55.3
884.809	-8.19
884.98	-10.24
885.152	16.38
885.324	-8.19
885.496	-26.62
885.667	0
885.839	34.82
886.011	-10.24
886.182	12.29
886.354	40.96
886.525	6.14
886.697	53.25
886.869	-75.77
887.04	-28.67
887.212	94.21
887.383	20.48
887.555	-38.91
887.726	14.34
887.897	-28.67
888.069	-26.62
888.24	102.4
888.412	75.77
888.583	38.91
888.754	28.67
888.926	-77.82
889.097	55.3
889.268	4.1
889.44	-61.44
889.611	24.58
889.782	-49.15
889.953	-12.29
890.125	47.1
890.296	8.19
890.467	10.24
890.638	-53.25
890.809	12.29
890.98	88.06
891.151	114.69
891.323	14.34
891.494	-4.1
891.665	-45.06
891.836	10.24
892.007	0
892.178	24.58
892.349	16.38
892.52	-10.24
892.691	4.1
892.862	57.34
893.032	12.29
893.203	-45.06
893.374	43.01
893.545	20.48
893.716	-28.67
893.887	16.38
894.057	22.53
894.228	22.53
894.399	-20.48
894.57	28.67
894.74	-6.14
894.911	26.62
895.082	8.19
895.253	34.82
895.423	-59.39
895.594	-28.67
895.764	8.19
895.935	51.2
896.106	32.77
896.276	-8.19
896.447	16.38
896.617	-63.49
896.788	45.06
896.958	36.86
897.129	-43.01
897.299	30.72
897.47	69.63
897.64	0
897.81	-14.34
897.981	61.44
898.151	-77.82
898.322	-36.86
898.492	36.86
898.662	-57.34
898.832	0
899.003	-53.25
899.173	-28.67
899.343	-4.1
899.513	12.29
