Data from USB4F104151__69__13-12-12-834.txt Node

Date: Fri Mar 14 13:12:12 EDT 2025
User: louis
Spectrometer: USB4F10415
Trigger mode: 4
Integration Time (sec): 2.000000E-2
Scans to average: 1
Electric dark correction enabled: true
Nonlinearity correction enabled: false
Boxcar width: 0
XAxis mode: Wavelengths
Number of Pixels in Spectrum: 3648
>>>>>Begin Spectral Data<<<<<
178.204	-72.36
178.424	-72.36
178.644	-72.36
178.864	-62.12
179.084	-96.94
179.304	-10.92
179.524	-41.64
179.744	25.94
179.964	-8.87
180.184	9.56
180.404	17.75
180.624	32.08
180.844	-4.78
181.064	3.41
181.283	-10.92
181.503	21.84
181.723	-33.45
181.943	-4.78
182.163	48.47
182.383	7.51
182.602	-29.35
182.822	32.08
183.042	-45.74
183.262	-17.07
183.482	11.61
183.701	-72.36
183.921	-8.87
184.141	-10.92
184.361	5.46
184.58	-23.21
184.8	-8.87
185.02	-15.02
185.239	30.04
185.459	42.32
185.679	25.94
185.898	-82.6
186.118	30.04
186.338	34.13
186.557	-49.83
186.777	-37.55
186.997	40.28
187.216	54.61
187.436	34.13
187.655	-51.88
187.875	32.08
188.095	-33.45
188.314	109.91
188.534	23.89
188.753	-17.07
188.973	13.65
189.192	19.8
189.412	68.95
189.631	46.42
189.851	3.41
190.07	46.42
190.29	-4.78
190.509	9.56
190.729	27.99
190.948	32.08
191.168	56.66
191.387	34.13
191.607	-8.87
191.826	93.52
192.045	-0.68
192.265	9.56
192.484	19.8
192.704	34.13
192.923	-17.07
193.142	71
193.362	25.94
193.581	75.09
193.8	52.56
194.02	25.94
194.239	-25.26
194.458	48.47
194.678	-29.35
194.897	1.37
195.116	-15.02
195.335	3.41
195.555	34.13
195.774	17.75
195.993	48.47
196.212	64.85
196.432	-41.64
196.651	85.33
196.87	-33.45
197.089	48.47
197.308	34.13
197.528	66.9
197.747	-82.6
197.966	52.56
198.185	77.14
198.404	-2.73
198.623	23.89
198.842	97.62
199.062	27.99
199.281	81.24
199.5	-76.46
199.719	83.28
199.938	-17.07
200.157	48.47
200.376	21.84
200.595	-41.64
200.814	-10.92
201.033	-6.83
201.252	23.89
201.471	1.37
201.69	81.24
201.909	54.61
202.128	21.84
202.347	36.18
202.566	-47.79
202.785	5.46
203.004	-109.23
203.223	34.13
203.442	-17.07
203.661	-0.68
203.879	17.75
204.098	7.51
204.317	15.7
204.536	13.65
204.755	-21.16
204.974	-31.4
205.193	-33.45
205.411	89.43
205.63	-17.07
205.849	44.37
206.068	11.61
206.287	3.41
206.505	32.08
206.724	-19.11
206.943	11.61
207.162	36.18
207.381	-25.26
207.599	-29.35
207.818	54.61
208.037	34.13
208.255	19.8
208.474	36.18
208.693	7.51
208.911	32.08
209.13	-133.8
209.349	-2.73
209.567	68.95
209.786	7.51
210.005	17.75
210.223	25.94
210.442	-35.5
210.661	107.86
210.879	9.56
211.098	36.18
211.316	34.13
211.535	85.33
211.753	-39.59
211.972	75.09
212.191	-27.31
212.409	21.84
212.628	60.76
212.846	7.51
213.065	91.48
213.283	1.37
213.502	-39.59
213.72	7.51
213.938	21.84
214.157	44.37
214.375	30.04
214.594	7.51
214.812	-0.68
215.031	17.75
215.249	-21.16
215.467	3.41
215.686	44.37
215.904	-17.07
216.122	-19.11
216.341	-8.87
216.559	-49.83
216.778	-19.11
216.996	-19.11
217.214	-47.79
217.432	32.08
217.651	-45.74
217.869	-53.93
218.087	42.32
218.306	-0.68
218.524	25.94
218.742	42.32
218.96	-64.17
219.179	71
219.397	-17.07
219.615	38.23
219.833	19.8
220.051	-0.68
220.27	-17.07
220.488	66.9
220.706	3.41
220.924	73.04
221.142	-47.79
221.36	-64.17
221.578	-35.5
221.796	1.37
222.015	23.89
222.233	23.89
222.451	66.9
222.669	38.23
222.887	46.42
223.105	-31.4
223.323	-31.4
223.541	-23.21
223.759	56.66
223.977	38.23
224.195	58.71
224.413	68.95
224.631	46.42
224.849	-12.97
225.067	68.95
225.285	-15.02
225.503	30.04
225.721	-12.97
225.939	54.61
226.157	3.41
226.375	40.28
226.592	1.37
226.81	66.9
227.028	7.51
227.246	48.47
227.464	89.43
227.682	56.66
227.9	38.23
228.117	11.61
228.335	-2.73
228.553	5.46
228.771	1.37
228.989	-17.07
229.206	21.84
229.424	-55.98
229.642	27.99
229.86	-17.07
230.077	40.28
230.295	1.37
230.513	13.65
230.731	60.76
230.948	126.29
231.166	-51.88
231.384	-8.87
231.601	77.14
231.819	48.47
232.037	58.71
232.254	-21.16
232.472	25.94
232.689	58.71
232.907	42.32
233.125	-12.97
233.342	-15.02
233.56	-21.16
233.777	66.9
233.995	-31.4
234.213	11.61
234.43	-47.79
234.648	50.52
234.865	17.75
235.083	7.51
235.3	-33.45
235.518	79.19
235.735	21.84
235.953	17.75
236.17	-51.88
236.388	34.13
236.605	-15.02
236.822	30.04
237.04	-47.79
237.257	48.47
237.475	-53.93
237.692	11.61
237.909	-41.64
238.127	50.52
238.344	30.04
238.562	11.61
238.779	-12.97
238.996	21.84
239.214	-8.87
239.431	-15.02
239.648	-15.02
239.865	58.71
240.083	19.8
240.3	-0.68
240.517	5.46
240.735	-84.65
240.952	58.71
241.169	-33.45
241.386	15.7
241.603	-0.68
241.821	23.89
242.038	87.38
242.255	23.89
242.472	56.66
242.689	3.41
242.907	-2.73
243.124	-8.87
243.341	-45.74
243.558	-12.97
243.775	7.51
243.992	-68.27
244.209	50.52
244.426	1.37
244.643	19.8
244.86	-25.26
245.078	44.37
245.295	54.61
245.512	-58.03
245.729	-6.83
245.946	3.41
246.163	-25.26
246.38	11.61
246.597	9.56
246.814	48.47
247.031	-27.31
247.248	1.37
247.464	50.52
247.681	7.51
247.898	-41.64
248.115	1.37
248.332	9.56
248.549	30.04
248.766	1.37
248.983	19.8
249.2	-25.26
249.417	1.37
249.633	38.23
249.85	64.85
250.067	17.75
250.284	97.62
250.501	81.24
250.717	-2.73
250.934	-53.93
251.151	-23.21
251.368	-27.31
251.585	-29.35
251.801	-6.83
252.018	60.76
252.235	23.89
252.451	-29.35
252.668	-15.02
252.885	42.32
253.102	7.51
253.318	81.24
253.535	-15.02
253.752	68.95
253.968	17.75
254.185	3.41
254.401	15.7
254.618	-21.16
254.835	101.72
255.051	42.32
255.268	-4.78
255.484	7.51
255.701	27.99
255.917	-12.97
256.134	7.51
256.351	-35.5
256.567	-78.51
256.784	-12.97
257	48.47
257.217	81.24
257.433	9.56
257.65	1.37
257.866	89.43
258.082	3.41
258.299	3.41
258.515	-8.87
258.732	36.18
258.948	-72.36
259.165	9.56
259.381	3.41
259.597	-25.26
259.814	75.09
260.03	36.18
260.246	7.51
260.463	52.56
260.679	5.46
260.895	56.66
261.112	-8.87
261.328	15.7
261.544	38.23
261.761	83.28
261.977	11.61
262.193	-66.22
262.409	60.76
262.626	-0.68
262.842	-37.55
263.058	44.37
263.274	91.48
263.49	17.75
263.707	77.14
263.923	64.85
264.139	-19.11
264.355	13.65
264.571	-8.87
264.787	-29.35
265.004	48.47
265.22	7.51
265.436	52.56
265.652	9.56
265.868	30.04
266.084	-25.26
266.3	-31.4
266.516	-17.07
266.732	-15.02
266.948	25.94
267.164	-6.83
267.38	-25.26
267.596	89.43
267.812	71
268.028	-0.68
268.244	-29.35
268.46	56.66
268.676	-21.16
268.892	19.8
269.108	25.94
269.324	-27.31
269.54	21.84
269.756	44.37
269.972	7.51
270.188	73.04
270.403	-6.83
270.619	48.47
270.835	9.56
271.051	13.65
271.267	-8.87
271.483	7.51
271.698	19.8
271.914	75.09
272.13	-17.07
272.346	38.23
272.562	-21.16
272.777	73.04
272.993	-58.03
273.209	19.8
273.425	-21.16
273.64	15.7
273.856	-25.26
274.072	-98.99
274.287	13.65
274.503	64.85
274.719	15.7
274.934	1.37
275.15	1.37
275.366	52.56
275.581	-8.87
275.797	32.08
276.012	-33.45
276.228	9.56
276.444	-23.21
276.659	34.13
276.875	21.84
277.09	23.89
277.306	79.19
277.521	-2.73
277.737	32.08
277.952	3.41
278.168	40.28
278.383	73.04
278.599	15.7
278.814	9.56
279.03	-39.59
279.245	36.18
279.461	73.04
279.676	83.28
279.892	-55.98
280.107	7.51
280.322	-43.69
280.538	11.61
280.753	15.7
280.969	-10.92
281.184	17.75
281.399	56.66
281.615	-12.97
281.83	7.51
282.045	11.61
282.26	3.41
282.476	5.46
282.691	25.94
282.906	40.28
283.122	38.23
283.337	-25.26
283.552	23.89
283.767	-45.74
283.983	44.37
284.198	-4.78
284.413	-31.4
284.628	19.8
284.843	3.41
285.058	48.47
285.274	23.89
285.489	-45.74
285.704	3.41
285.919	-19.11
286.134	32.08
286.349	17.75
286.564	48.47
286.779	87.38
286.995	7.51
287.21	-23.21
287.425	1.37
287.64	19.8
287.855	-23.21
288.07	11.61
288.285	120.15
288.5	23.89
288.715	54.61
288.93	-25.26
289.145	23.89
289.36	44.37
289.575	-12.97
289.79	-0.68
290.004	-0.68
290.219	17.75
290.434	38.23
290.649	9.56
290.864	5.46
291.079	25.94
291.294	-39.59
291.509	15.7
291.724	50.52
291.938	-29.35
292.153	25.94
292.368	15.7
292.583	-4.78
292.798	7.51
293.012	40.28
293.227	42.32
293.442	32.08
293.657	17.75
293.871	-19.11
294.086	-2.73
294.301	64.85
294.516	1.37
294.73	46.42
294.945	-8.87
295.16	1.37
295.374	-21.16
295.589	-8.87
295.804	7.51
296.018	83.28
296.233	87.38
296.447	32.08
296.662	-47.79
296.877	73.04
297.091	-6.83
297.306	87.38
297.52	-8.87
297.735	19.8
297.949	-4.78
298.164	34.13
298.378	11.61
298.593	5.46
298.807	38.23
299.022	52.56
299.236	60.76
299.451	3.41
299.665	-58.03
299.88	23.89
300.094	-10.92
300.309	-23.21
300.523	32.08
300.737	1.37
300.952	38.23
301.166	73.04
301.381	83.28
301.595	-41.64
301.809	-12.97
302.024	89.43
302.238	-10.92
302.452	-12.97
302.667	64.85
302.881	118.1
303.095	36.18
303.309	-12.97
303.524	-45.74
303.738	3.41
303.952	-10.92
304.166	32.08
304.381	1.37
304.595	62.8
304.809	56.66
305.023	-2.73
305.237	-8.87
305.452	-27.31
305.666	-6.83
305.88	34.13
306.094	87.38
306.308	-49.83
306.522	9.56
306.736	-17.07
306.95	1.37
307.164	9.56
307.379	-31.4
307.593	50.52
307.807	-35.5
308.021	23.89
308.235	-25.26
308.449	-25.26
308.663	-17.07
308.877	66.9
309.091	50.52
309.305	42.32
309.519	75.09
309.733	73.04
309.947	48.47
310.161	46.42
310.374	-64.17
310.588	-10.92
310.802	56.66
311.016	-15.02
311.23	93.52
311.444	3.41
311.658	1.37
311.872	60.76
312.085	54.61
312.299	-17.07
312.513	15.7
312.727	-15.02
312.941	-8.87
313.154	-23.21
313.368	19.8
313.582	23.89
313.796	-80.55
314.009	56.66
314.223	54.61
314.437	17.75
314.651	56.66
314.864	-12.97
315.078	25.94
315.292	-0.68
315.505	3.41
315.719	-4.78
315.933	9.56
316.146	-8.87
316.36	-17.07
316.573	58.71
316.787	-23.21
317.001	40.28
317.214	-4.78
317.428	1.37
317.641	-10.92
317.855	-0.68
318.068	7.51
318.282	-17.07
318.495	38.23
318.709	44.37
318.922	7.51
319.136	25.94
319.349	58.71
319.563	7.51
319.776	42.32
319.99	27.99
320.203	40.28
320.417	21.84
320.63	3.41
320.843	87.38
321.057	42.32
321.27	46.42
321.483	44.37
321.697	36.18
321.91	19.8
322.124	-29.35
322.337	-39.59
322.55	50.52
322.763	62.8
322.977	-2.73
323.19	-41.64
323.403	5.46
323.617	25.94
323.83	99.67
324.043	-17.07
324.256	-10.92
324.469	66.9
324.683	11.61
324.896	38.23
325.109	34.13
325.322	-8.87
325.535	25.94
325.748	42.32
325.962	-12.97
326.175	7.51
326.388	15.7
326.601	46.42
326.814	42.32
327.027	30.04
327.24	87.38
327.453	19.8
327.666	85.33
327.879	13.65
328.092	-23.21
328.305	42.32
328.518	-29.35
328.731	-6.83
328.944	73.04
329.157	7.51
329.37	3.41
329.583	116.05
329.796	124.24
330.009	23.89
330.222	56.66
330.435	42.32
330.648	7.51
330.861	17.75
331.073	3.41
331.286	40.28
331.499	-82.6
331.712	32.08
331.925	48.47
332.138	36.18
332.35	73.04
332.563	-66.22
332.776	-4.78
332.989	9.56
333.202	7.51
333.414	64.85
333.627	-6.83
333.84	-33.45
334.053	32.08
334.265	-51.88
334.478	-25.26
334.691	38.23
334.903	25.94
335.116	-6.83
335.329	17.75
335.541	46.42
335.754	1.37
335.966	21.84
336.179	-35.5
336.392	-21.16
336.604	17.75
336.817	32.08
337.029	93.52
337.242	42.32
337.454	25.94
337.667	-45.74
337.88	-47.79
338.092	11.61
338.305	5.46
338.517	40.28
338.729	23.89
338.942	3.41
339.154	44.37
339.367	-33.45
339.579	21.84
339.792	-25.26
340.004	-25.26
340.217	-23.21
340.429	32.08
340.641	-12.97
340.854	-55.98
341.066	56.66
341.278	48.47
341.491	-19.11
341.703	19.8
341.915	-10.92
342.128	93.52
342.34	25.94
342.552	-17.07
342.764	5.46
342.977	58.71
343.189	75.09
343.401	36.18
343.613	-55.98
343.826	58.71
344.038	-53.93
344.25	9.56
344.462	-8.87
344.674	36.18
344.886	52.56
345.099	77.14
345.311	13.65
345.523	36.18
345.735	-15.02
345.947	-0.68
346.159	5.46
346.371	25.94
346.583	52.56
346.795	27.99
347.007	42.32
347.219	32.08
347.431	-17.07
347.643	25.94
347.855	32.08
348.067	48.47
348.279	-49.83
348.491	19.8
348.703	58.71
348.915	9.56
349.127	-25.26
349.339	-6.83
349.551	17.75
349.763	23.89
349.975	-8.87
350.187	40.28
350.399	32.08
350.61	-45.74
350.822	91.48
351.034	-0.68
351.246	62.8
351.458	15.7
351.669	11.61
351.881	-55.98
352.093	40.28
352.305	48.47
352.517	52.56
352.728	32.08
352.94	-8.87
353.152	42.32
353.363	-72.36
353.575	-0.68
353.787	62.8
353.999	-12.97
354.21	48.47
354.422	-15.02
354.633	60.76
354.845	23.89
355.057	1.37
355.268	36.18
355.48	60.76
355.692	42.32
355.903	7.51
356.115	62.8
356.326	-12.97
356.538	17.75
356.749	66.9
356.961	60.76
357.172	17.75
357.384	-78.51
357.595	83.28
357.807	-25.26
358.018	36.18
358.23	-31.4
358.441	52.56
358.653	68.95
358.864	36.18
359.075	23.89
359.287	30.04
359.498	34.13
359.709	-21.16
359.921	50.52
360.132	32.08
360.344	89.43
360.555	21.84
360.766	66.9
360.977	27.99
361.189	9.56
361.4	-2.73
361.611	87.38
361.823	91.48
362.034	75.09
362.245	21.84
362.456	56.66
362.667	13.65
362.879	1.37
363.09	36.18
363.301	54.61
363.512	89.43
363.723	81.24
363.935	3.41
364.146	27.99
364.357	30.04
364.568	48.47
364.779	1.37
364.99	9.56
365.201	17.75
365.412	-6.83
365.623	13.65
365.834	50.52
366.045	32.08
366.256	50.52
366.467	15.7
366.678	-6.83
366.889	30.04
367.1	15.7
367.311	50.52
367.522	21.84
367.733	19.8
367.944	44.37
368.155	44.37
368.366	58.71
368.577	101.72
368.788	34.13
368.999	50.52
369.209	15.7
369.42	101.72
369.631	122.2
369.842	50.52
370.053	23.89
370.264	52.56
370.474	3.41
370.685	25.94
370.896	46.42
371.107	83.28
371.317	56.66
371.528	-8.87
371.739	81.24
371.95	-29.35
372.16	13.65
372.371	-8.87
372.582	27.99
372.792	23.89
373.003	46.42
373.214	36.18
373.424	40.28
373.635	-58.03
373.846	40.28
374.056	73.04
374.267	-4.78
374.477	9.56
374.688	-12.97
374.898	25.94
375.109	15.7
375.319	58.71
375.53	64.85
375.74	-4.78
375.951	-8.87
376.161	46.42
376.372	7.51
376.582	40.28
376.793	7.51
377.003	19.8
377.214	-76.46
377.424	81.24
377.635	-25.26
377.845	64.85
378.055	17.75
378.266	-68.27
378.476	23.89
378.686	-17.07
378.897	44.37
379.107	13.65
379.317	46.42
379.528	-29.35
379.738	62.8
379.948	-0.68
380.158	34.13
380.369	44.37
380.579	79.19
380.789	46.42
380.999	1.37
381.21	32.08
381.42	60.76
381.63	-21.16
381.84	-29.35
382.05	-29.35
382.261	11.61
382.471	42.32
382.681	9.56
382.891	77.14
383.101	97.62
383.311	19.8
383.521	17.75
383.731	97.62
383.941	-4.78
384.151	36.18
384.361	48.47
384.571	105.81
384.781	40.28
384.991	118.1
385.201	68.95
385.411	91.48
385.621	62.8
385.831	-6.83
386.041	73.04
386.251	21.84
386.461	17.75
386.671	-31.4
386.881	60.76
387.091	-0.68
387.301	-6.83
387.511	-31.4
387.72	7.51
387.93	-8.87
388.14	19.8
388.35	-19.11
388.56	30.04
388.769	21.84
388.979	50.52
389.189	50.52
389.399	64.85
389.609	-10.92
389.818	130.39
390.028	40.28
390.238	32.08
390.447	68.95
390.657	9.56
390.867	21.84
391.076	-10.92
391.286	-60.07
391.496	44.37
391.705	-15.02
391.915	85.33
392.125	-31.4
392.334	66.9
392.544	89.43
392.753	27.99
392.963	-25.26
393.172	23.89
393.382	13.65
393.591	97.62
393.801	-15.02
394.01	1.37
394.22	64.85
394.429	25.94
394.639	9.56
394.848	3.41
395.058	44.37
395.267	75.09
395.477	52.56
395.686	-10.92
395.895	73.04
396.105	91.48
396.314	-66.22
396.524	85.33
396.733	99.67
396.942	60.76
397.152	66.9
397.361	73.04
397.57	48.47
397.78	75.09
397.989	42.32
398.198	71
398.407	48.47
398.617	-74.41
398.826	68.95
399.035	66.9
399.244	30.04
399.453	66.9
399.663	64.85
399.872	38.23
400.081	111.96
400.29	91.48
400.499	87.38
400.708	93.52
400.917	97.62
401.127	56.66
401.336	50.52
401.545	101.72
401.754	44.37
401.963	56.66
402.172	34.13
402.381	32.08
402.59	62.8
402.799	-6.83
403.008	85.33
403.217	118.1
403.426	44.37
403.635	25.94
403.844	36.18
404.053	58.71
404.262	60.76
404.471	95.57
404.68	34.13
404.888	105.81
405.097	48.47
405.306	132.44
405.515	126.29
405.724	25.94
405.933	68.95
406.142	191.83
406.35	101.72
406.559	38.23
406.768	95.57
406.977	36.18
407.185	85.33
407.394	89.43
407.603	97.62
407.812	122.2
408.02	146.77
408.229	34.13
408.438	56.66
408.646	99.67
408.855	204.11
409.064	79.19
409.272	177.49
409.481	157.01
409.69	210.26
409.898	152.91
410.107	187.73
410.315	148.82
410.524	163.15
410.733	214.35
410.941	195.92
411.15	189.78
411.358	202.07
411.567	175.44
411.775	265.55
411.984	175.44
412.192	257.36
412.401	212.31
412.609	255.31
412.818	271.7
413.026	234.83
413.234	228.69
413.443	316.75
413.651	296.27
413.86	326.99
414.068	324.94
414.276	380.24
414.485	384.34
414.693	345.42
414.901	501.07
415.11	380.24
415.318	410.96
415.526	370
415.734	396.62
415.943	476.49
416.151	453.97
416.359	421.2
416.567	529.74
416.776	494.93
416.984	568.65
417.192	529.74
417.4	550.22
417.608	535.89
417.817	601.42
418.025	621.9
418.233	591.18
418.441	556.36
418.649	687.43
418.857	703.82
419.065	779.59
419.273	695.63
419.481	814.41
419.689	793.93
419.897	884.04
420.105	904.52
420.313	845.13
420.521	994.63
420.729	933.19
420.937	972.1
421.145	1070.4
421.353	988.49
421.561	1150.28
421.769	1244.48
421.977	1189.19
422.185	1193.28
422.393	1246.53
422.601	1344.83
422.809	1285.44
423.017	1310.02
423.224	1387.84
423.432	1496.38
423.64	1441.09
423.848	1537.34
424.056	1578.3
424.263	1711.42
424.471	1719.61
424.679	1688.89
424.887	1867.06
425.094	1787.19
425.302	1852.73
425.51	1922.36
425.718	2108.73
425.925	2078.01
426.133	2178.36
426.341	2231.6
426.548	2391.34
426.756	2207.03
426.964	2422.06
427.171	2325.81
427.379	2682.16
427.586	2637.1
427.794	2663.72
428.001	2823.47
428.209	2919.72
428.417	2907.43
428.624	2944.3
428.832	3091.75
429.039	2923.82
429.247	3073.32
429.454	3253.54
429.662	3556.64
429.869	3339.55
430.076	3560.73
430.284	3474.72
430.491	3654.94
430.699	3869.98
430.906	3800.35
431.114	3882.27
431.321	4066.58
431.528	4080.92
431.736	4289.81
431.943	4648.21
432.15	4472.08
432.358	4566.29
432.565	4773.13
432.772	4691.21
432.979	4893.96
433.187	4924.68
433.394	5086.47
433.601	5348.61
433.808	5420.29
434.016	5442.82
434.223	5577.98
434.43	5922.04
434.637	5897.47
434.844	6210.81
435.052	6386.93
435.259	6157.56
435.466	6388.98
435.673	6460.66
435.88	6673.65
436.087	7128.3
436.294	7081.19
436.501	7079.15
436.708	7054.57
436.915	7308.52
437.122	7718.11
437.329	7709.92
437.537	8010.97
437.743	8129.75
437.95	7931.1
438.157	8381.65
438.364	8658.13
438.571	8529.11
438.778	8647.89
438.985	9397.45
439.192	9168.07
439.399	9311.43
439.606	9166.03
439.813	9542.85
440.02	10435.77
440.227	10220.73
440.433	9882.81
440.64	10349.75
440.847	10323.13
441.054	10609.84
441.261	11424.93
441.467	11265.19
441.674	11402.41
441.881	11906.21
442.088	11986.08
442.294	11556
442.501	12002.46
442.708	12360.86
442.914	12711.06
443.121	13196.43
443.328	12874.9
443.534	13669.51
443.741	13470.86
443.948	13294.73
444.154	14326.91
444.361	14199.93
444.568	14279.8
444.774	14361.72
444.981	14503.03
445.187	15055.98
445.394	15391.85
445.6	15422.57
445.807	16706.65
446.013	15932.51
446.22	16403.55
446.426	17208.4
446.633	17169.49
446.839	17910.85
447.046	16954.45
447.252	17966.15
447.459	17710.15
447.665	17892.42
447.871	18576.44
448.078	19682.34
448.284	18869.3
448.491	19307.57
448.697	19790.89
448.903	20411.42
449.11	20245.54
449.316	20212.77
449.522	20429.85
449.728	21527.56
449.935	21351.44
450.141	21167.12
450.347	21881.86
450.553	21169.17
450.76	21345.3
450.966	21732.36
451.172	21873.67
451.378	22281.22
451.584	22195.2
451.791	22795.26
451.997	22328.32
452.203	22991.86
452.409	22881.27
452.615	22756.35
452.821	21931.01
453.027	21742.6
453.233	23016.44
453.44	22281.22
453.646	22121.48
453.852	22455.29
454.058	22572.03
454.264	22123.52
454.47	22676.48
454.676	21851.14
454.882	22903.8
455.088	20718.62
455.294	21404.69
455.5	21724.17
455.705	21873.67
455.911	20945.94
456.117	20522.01
456.323	20458.53
456.529	19385.39
456.735	20280.35
456.941	19674.15
457.147	19168.3
457.352	18668.6
457.558	18480.19
457.764	18435.13
457.97	18058.31
458.176	17701.96
458.381	17900.61
458.587	16880.72
458.793	16716.89
458.999	15866.98
459.204	17069.14
459.41	16434.27
459.616	15543.4
459.821	15635.56
460.027	15666.28
460.233	15367.27
460.438	14556.28
460.644	14613.62
460.85	14109.82
461.055	13874.31
461.261	13675.65
461.466	12913.81
461.672	12424.34
461.878	13212.81
462.083	12207.26
462.289	12020.89
462.494	11830.43
462.7	11578.53
462.905	11121.84
463.111	11519.14
463.316	11687.08
463.522	11396.26
463.727	11340.97
463.932	11418.79
464.138	11132.08
464.343	11203.75
464.549	10822.83
464.754	11318.44
464.959	11056.3
465.165	11031.73
465.37	10665.14
465.575	10384.57
465.781	10902.7
465.986	10843.31
466.191	10542.26
466.397	10177.72
466.602	9733.31
466.807	10063.04
467.012	10468.53
467.218	10003.64
467.423	10026.17
467.628	9995.45
467.833	10507.44
468.038	10165.43
468.244	9768.13
468.449	10140.86
468.654	9903.29
468.859	9745.6
469.064	9850.05
469.269	9401.54
469.474	9477.32
469.679	9678.02
469.885	9288.9
470.09	9473.22
470.295	9489.6
470.5	9297.1
470.705	9204.94
470.91	8875.21
471.115	8916.17
471.32	9172.17
471.525	8881.36
471.73	8955.08
471.935	8795.34
472.139	8627.41
472.344	8406.23
472.549	8361.17
472.754	8666.32
472.959	8252.63
473.164	8191.19
473.369	7937.24
473.574	8234.2
473.778	8125.66
473.983	8107.23
474.188	8090.84
474.393	7720.16
474.598	7679.2
474.802	7711.97
475.007	7648.48
475.212	7695.58
475.417	7298.28
475.621	7447.78
475.826	7355.62
476.031	7271.65
476.235	7068.91
476.44	7343.33
476.645	7003.37
476.849	7118.06
477.054	7101.67
477.259	6978.79
477.463	6849.77
477.668	6888.68
477.872	6776.05
478.077	6671.6
478.282	6487.28
478.486	6507.76
478.691	6460.66
478.895	6458.61
479.1	6663.41
479.304	6495.47
479.509	6321.4
479.713	6350.07
479.918	6216.95
480.122	6100.22
480.326	6159.61
480.531	6298.87
480.735	6208.76
480.94	6114.55
481.144	6311.16
481.348	6083.83
481.553	6122.74
481.757	5946.62
481.961	6126.84
482.166	6110.46
482.37	6184.18
482.574	5836.03
482.778	5817.6
482.983	6106.36
483.187	5842.17
483.391	5838.08
483.595	5952.76
483.8	5764.35
484.004	5924.09
484.208	6075.64
484.412	5922.04
484.616	6114.55
484.821	6173.94
485.025	5913.85
485.229	6085.88
485.433	5946.62
485.637	5868.8
485.841	5881.08
486.045	5975.29
486.249	6198.52
486.453	5989.63
486.657	5930.23
486.861	6046.97
487.065	5696.77
487.269	5997.82
487.473	5854.46
487.677	5969.15
487.881	6038.78
488.085	5860.6
488.289	6071.54
488.493	5899.52
488.697	6051.06
488.901	6204.66
489.105	6079.74
489.309	6079.74
489.512	6114.55
489.716	6008.06
489.92	6081.78
490.124	5973.24
490.328	6153.46
490.531	6130.94
490.735	6296.82
490.939	5944.57
491.143	5977.34
491.346	6163.7
491.55	6317.3
491.754	6329.59
491.958	6325.49
492.161	6132.98
492.365	6405.36
492.569	6241.53
492.772	6276.34
492.976	6286.58
493.18	6399.22
493.383	6415.6
493.587	6352.12
493.79	6479.09
493.994	6520.05
494.197	6540.53
494.401	6659.31
494.605	6823.15
494.808	6833.39
495.012	6630.64
495.215	6866.16
495.419	6757.61
495.622	6866.16
495.825	7048.43
496.029	6939.88
496.232	7150.82
496.436	7132.39
496.639	7380.2
496.843	7159.02
497.046	7189.74
497.249	7507.17
497.453	7386.34
497.656	7468.26
497.859	7572.71
498.063	7736.54
498.266	7867.61
498.469	7904.48
498.673	7754.97
498.876	7912.67
499.079	8135.9
499.282	8174.81
499.485	8105.18
499.689	8514.77
499.892	8209.62
500.095	8529.11
500.298	8625.36
500.501	8631.51
500.705	8699.09
500.908	8950.99
501.111	8879.31
501.314	9106.63
501.517	9026.76
501.72	9268.42
501.923	9489.6
502.126	9491.65
502.329	9749.7
502.532	9919.68
502.735	9766.08
502.938	9909.44
503.141	9854.14
503.344	10149.05
503.547	10216.63
503.75	10099.9
503.953	10466.49
504.156	10587.32
504.359	10855.6
504.562	10589.36
504.765	10775.73
504.968	11103.4
505.17	11283.63
505.373	11123.88
505.576	11527.33
505.779	11527.33
505.982	11566.24
506.185	11517.09
506.387	11828.38
506.59	12070.05
506.793	12397.72
506.996	12141.72
507.198	12612.76
507.401	12412.06
507.604	12625.04
507.807	12922
508.009	12905.62
508.212	13059.21
508.415	13057.17
508.617	13489.29
508.82	13560.97
509.022	13470.86
509.225	13737.09
509.428	13884.55
509.63	13923.46
509.833	14048.38
510.035	14675.06
510.238	14288
510.44	14572.66
510.643	14916.72
510.845	15115.37
511.048	14812.28
511.25	14990.45
511.453	15273.07
511.655	15852.64
511.858	15682.66
512.06	15606.89
512.262	15854.69
512.465	15946.85
512.667	16145.5
512.87	16514.14
513.072	16342.11
513.274	16774.23
513.477	16927.83
513.679	17040.47
513.881	17159.25
514.084	17275.98
514.286	17253.45
514.488	17638.47
514.69	17724.49
514.893	17734.73
515.095	18265.15
515.297	18172.99
515.499	18291.77
515.701	18611.26
515.904	18807.86
516.106	18746.42
516.308	19440.68
516.51	19315.76
516.712	19590.19
516.914	19469.36
517.116	19743.78
517.318	20032.55
517.52	20077.6
517.722	20331.55
517.925	20515.87
518.127	20802.58
518.329	20913.17
518.531	21230.61
518.733	21253.14
518.935	21492.75
519.136	21388.3
519.338	21773.32
519.54	21879.82
519.742	22023.17
519.944	22330.37
520.146	22762.49
520.348	22668.28
520.55	22678.52
520.752	23012.34
520.954	23456.75
521.155	23211
521.357	23473.14
521.559	23694.32
521.761	24239.08
521.963	24136.68
522.164	24132.58
522.366	24724.44
522.568	24517.6
522.77	24579.04
522.971	24576.99
523.173	24955.86
523.375	25119.7
523.576	25129.94
523.778	25404.37
523.98	25889.74
524.181	25773
524.383	25895.88
524.584	26092.49
524.786	26280.9
524.988	26459.07
525.189	26409.92
525.391	26584
525.592	26934.2
525.794	27009.98
525.995	26893.24
526.197	27227.06
526.398	26987.45
526.6	27284.4
526.801	27483.06
527.003	27818.92
527.204	27743.15
527.406	27825.07
527.607	27653.04
527.808	28136.36
528.01	27517.87
528.211	28015.53
528.412	28666.78
528.614	28449.7
528.815	28531.62
529.016	28670.88
529.218	28228.52
529.419	28720.03
529.62	28650.4
529.822	28498.85
530.023	28717.98
530.224	29000.6
530.425	28980.12
530.626	28855.2
530.828	28666.78
531.029	29125.53
531.23	29189.02
531.431	28973.98
531.632	29336.47
531.833	28959.64
532.035	29408.15
532.236	29432.72
532.437	29584.27
532.638	29303.7
532.839	29531.03
533.04	29533.07
533.241	29010.84
533.442	29975.44
533.643	29696.91
533.844	29731.73
534.045	29741.97
534.246	29567.89
534.447	29782.93
534.648	29600.66
534.849	29854.61
535.05	29614.99
535.251	29840.27
535.451	29526.93
535.652	29662.1
535.853	29776.78
536.054	29784.97
536.255	30055.31
536.456	29473.68
536.657	29922.19
536.857	29197.21
537.058	29631.38
537.259	30012.3
537.46	30069.64
537.66	29658
537.861	29752.21
538.062	29889.42
538.263	29844.37
538.463	29608.85
538.664	29852.56
538.865	29866.89
539.065	30043.02
539.266	29490.07
539.466	29973.39
539.667	29655.95
539.868	30088.07
540.068	29889.42
540.269	29602.71
540.469	30043.02
540.67	29721.49
540.87	29664.14
541.071	29625.23
541.271	29670.29
541.472	29856.65
541.672	29840.27
541.873	29520.79
542.073	29289.37
542.274	30190.47
542.474	29899.66
542.675	29551.51
542.875	29762.45
543.075	29801.36
543.276	29553.55
543.476	29983.63
543.676	29428.63
543.877	29825.93
544.077	29627.28
544.277	29750.16
544.478	29647.76
544.678	29834.13
544.878	29768.59
545.078	29660.05
545.279	29528.98
545.479	29584.27
545.679	29932.43
545.879	29305.75
546.079	29428.63
546.28	29838.22
546.48	29399.96
546.68	29787.02
546.88	29684.62
547.08	29449.11
547.28	29502.36
547.48	29303.7
547.68	29614.99
547.88	29643.66
548.081	29424.53
548.281	29313.94
548.481	29404.05
548.681	29752.21
548.881	29322.13
549.081	29418.39
549.28	29596.56
549.48	29668.24
549.68	29438.87
549.88	29582.23
550.08	29125.53
550.28	29561.75
550.48	29170.58
550.68	29471.64
550.88	29113.24
551.08	29059.99
551.279	29666.19
551.479	29381.52
551.679	29754.26
551.879	29361.05
552.079	29617.04
552.278	29162.39
552.478	28980.12
552.678	29436.82
552.878	29731.73
553.077	29324.18
553.277	28826.53
553.477	29387.67
553.676	28990.36
553.876	29240.22
554.076	29109.15
554.275	29168.54
554.475	28996.51
554.674	28722.08
554.874	29354.9
555.074	29158.3
555.273	29229.98
555.473	29234.07
555.672	28896.16
555.872	28871.58
556.071	28939.16
556.271	29262.74
556.47	28890.01
556.67	28580.77
556.869	28588.96
557.068	29246.36
557.268	28875.68
557.467	28871.58
557.667	28773.28
557.866	28570.53
558.065	28988.31
558.265	28758.94
558.464	28185.51
558.663	28883.87
558.863	28265.38
559.062	28883.87
559.261	27939.75
559.461	28773.28
559.66	28310.44
559.859	28828.57
560.058	28144.55
560.258	28050.35
560.457	28144.55
560.656	28122.02
560.855	27823.02
561.054	28025.77
561.253	27696.05
561.453	28294.05
561.652	27937.71
561.851	28162.98
562.05	27775.92
562.249	27863.98
562.448	27775.92
562.647	27687.85
562.846	27941.8
563.045	27673.52
563.244	27616.18
563.443	27726.77
563.642	27139
563.841	27196.34
564.04	27427.76
564.239	27460.53
564.438	27282.36
564.637	27071.42
564.836	27167.67
565.035	26956.73
565.234	26964.92
565.432	26768.32
565.631	26952.63
565.83	27048.89
566.029	26790.84
566.228	26788.8
566.427	26680.25
566.625	26545.09
566.824	26016.71
567.023	26534.85
567.222	26147.78
567.42	26348.48
567.619	26319.81
567.818	26352.58
568.016	26233.8
568.215	26244.04
568.414	25787.34
568.612	26219.46
568.811	25775.05
569.01	25979.85
569.208	25766.86
569.407	25867.21
569.605	25572.3
569.804	25777.1
570.002	25258.96
570.201	25580.49
570.4	25258.96
570.598	25504.72
570.797	24832.99
570.995	25474
571.193	25091.03
571.392	25299.92
571.59	25148.37
571.789	24904.67
571.987	24951.77
572.186	25111.51
572.384	24630.24
572.582	25068.5
572.781	24419.3
572.979	24019.94
573.177	24636.38
573.376	24306.66
573.574	23909.35
573.772	24673.24
573.971	24067.05
574.169	23911.4
574.367	23997.42
574.565	24021.99
574.763	23895.02
574.962	23942.12
575.16	23372.78
575.358	23716.84
575.556	23311.35
575.754	23727.08
575.952	23716.84
576.151	23477.23
576.349	23333.87
576.547	23434.22
576.745	23323.63
576.943	23489.52
577.141	23374.83
577.339	23190.52
577.537	23092.21
577.735	22948.86
577.933	22940.66
578.131	22998.01
578.329	23049.21
578.527	22914.04
578.725	22705.15
578.923	22682.62
579.121	22367.23
579.319	22559.74
579.516	22768.63
579.714	22496.25
579.912	22434.81
580.11	21924.87
580.308	22256.64
580.506	22101
580.704	21863.43
580.901	21873.67
581.099	21949.45
581.297	22035.46
581.495	21847.05
581.692	22072.32
581.89	21814.28
582.088	21881.86
582.285	21570.57
582.483	21779.46
582.681	21629.96
582.878	21392.4
583.076	21156.88
583.274	21400.59
583.471	21203.99
583.669	21066.77
583.866	20921.37
584.064	21042.2
584.262	20915.22
584.459	21124.11
584.657	20966.42
584.854	20837.4
585.052	20429.85
585.249	20778.01
585.447	20825.11
585.644	20585.5
585.841	20460.57
586.039	20763.67
586.236	20390.94
586.434	20309.02
586.631	20005.92
586.828	20124.71
587.026	20120.61
587.223	20212.77
587.42	19823.65
587.618	20143.14
587.815	19993.64
588.012	20042.79
588.21	19618.86
588.407	20065.32
588.604	19688.49
588.801	19684.39
588.999	19557.42
589.196	19633.19
589.393	19590.19
589.59	19340.33
589.787	19311.66
589.984	19336.24
590.182	19256.37
590.379	19285.04
590.576	18998.32
590.773	19229.74
590.97	18859.06
591.167	19196.98
591.364	18926.64
591.561	18787.38
591.758	18627.64
591.955	18684.98
592.152	18691.13
592.349	18764.85
592.546	18660.41
592.743	18693.18
592.94	18410.56
593.137	18654.26
593.334	18523.19
593.531	18211.9
593.727	18715.7
593.924	18385.98
594.121	18109.5
594.318	18312.25
594.515	17919.04
594.712	18295.87
594.908	17970.24
595.105	18125.89
595.302	17802.31
595.499	17706.06
595.696	17751.11
595.892	17593.42
596.089	17767.49
596.286	17630.28
596.482	17751.11
596.679	17556.55
596.876	17734.73
597.072	17429.58
597.269	17216.59
597.466	17106
597.662	17251.41
597.859	17366.09
598.055	17249.36
598.252	16796.76
598.448	17362
598.645	16833.62
598.841	16784.47
599.038	16825.43
599.234	16972.88
599.431	16901.2
599.627	16784.47
599.824	16761.94
600.02	16682.07
600.217	16426.07
600.413	16313.44
600.609	16440.41
600.806	16405.59
601.002	16520.28
601.198	16430.17
601.395	16190.56
601.591	16221.28
601.787	15983.71
601.984	15996
602.18	16329.82
602.376	16157.79
602.572	15905.89
602.769	15952.99
602.965	15918.18
603.161	15524.97
603.357	15551.59
603.553	15848.55
603.75	15899.75
603.946	15658.09
604.142	15850.6
604.338	15352.94
604.534	15598.7
604.73	15256.68
604.926	15510.63
605.122	15500.39
605.318	15522.92
605.514	15088.75
605.71	14959.73
605.906	15039.6
606.102	15154.29
606.298	15262.83
606.494	14986.35
606.69	15090.8
606.886	15133.81
607.082	14982.26
607.278	14767.22
607.474	14646.39
607.67	14765.17
607.866	14638.2
608.062	15047.79
608.257	14767.22
608.453	14644.34
608.649	14754.93
608.845	14216.32
609.041	14591.09
609.236	14500.98
609.432	14580.85
609.628	14492.79
609.824	14361.72
610.019	14201.98
610.215	14269.56
610.411	14251.13
610.606	14128.25
610.802	14179.45
610.998	14193.79
611.193	14386.3
611.389	14077.05
611.584	14185.6
611.78	13943.94
611.976	14150.78
612.171	13939.84
612.367	14085.25
612.562	13980.8
612.758	13495.43
612.953	13606.02
613.149	14173.31
613.344	13851.78
613.539	13993.09
613.735	13853.83
613.93	13890.69
614.126	13728.9
614.321	13749.38
614.517	13673.6
614.712	13655.17
614.907	13489.29
615.103	13749.38
615.298	13556.87
615.493	13765.76
615.688	13417.61
615.884	13667.46
616.079	13505.67
616.274	13409.42
616.47	13433.99
616.665	13550.73
616.86	13241.48
617.055	13221
617.25	13171.85
617.445	13284.49
617.641	13221
617.836	13196.43
618.031	13057.17
618.226	12919.95
618.421	13083.79
618.616	13030.54
618.811	12739.73
619.006	13108.37
619.201	12672.15
619.396	13042.83
619.591	12668.05
619.786	12946.58
619.981	12577.94
620.176	12700.82
620.371	12502.17
620.566	12502.17
620.761	12369.05
620.956	12496.02
621.151	12207.26
621.346	12420.25
621.541	11957.41
621.735	12307.61
621.93	12002.46
622.125	11941.02
622.32	11943.07
622.515	12106.91
622.709	11863.2
622.904	11654.31
623.099	11777.19
623.294	11515.05
623.488	11637.92
623.683	11584.68
623.878	11496.61
624.072	11498.66
624.267	11523.24
624.462	11211.95
624.656	11254.95
624.851	11322.54
625.046	11091.12
625.24	11134.12
625.435	11056.3
625.629	10927.28
625.824	10894.51
626.018	10923.18
626.213	10693.81
626.407	11011.25
626.602	10355.9
626.796	10390.71
626.991	10628.28
627.185	10593.46
627.38	10513.59
627.574	10380.47
627.768	10345.66
627.963	10312.89
628.157	10104
628.352	10249.4
628.546	9991.36
628.74	10149.05
628.935	10063.04
629.129	10099.9
629.323	10028.22
629.517	9819.33
629.712	9809.09
629.906	9991.36
630.1	9512.13
630.294	9753.79
630.489	9725.12
630.683	9585.86
630.877	9387.21
631.071	9530.56
631.265	9573.57
631.459	9333.96
631.653	9166.03
631.848	9321.67
632.042	9192.65
632.236	9354.44
632.43	9075.91
632.624	8977.61
632.818	8975.56
633.012	8985.8
633.206	8985.8
633.4	8938.7
633.594	8850.64
633.788	8887.5
633.982	9010.38
634.176	8961.23
634.369	8611.03
634.563	8778.96
634.757	8633.55
634.951	8531.16
635.145	8500.44
635.339	8529.11
635.533	8496.34
635.726	8453.33
635.92	8309.97
636.114	8226.01
636.308	8322.26
636.501	8240.34
636.695	8056.03
636.889	8146.14
637.083	7902.43
637.276	8174.81
637.47	7988.44
637.664	7750.88
637.857	7955.68
638.051	7892.19
638.244	7757.02
638.438	7714.02
638.632	7802.08
638.825	7644.38
639.019	7576.8
639.212	7701.73
639.406	7701.73
639.599	7480.55
639.793	7349.48
639.986	7388.39
640.18	7470.31
640.373	7388.39
640.567	7386.34
640.76	7273.7
640.954	7304.42
641.147	7349.48
641.34	7183.59
641.534	7079.15
641.727	7095.53
641.92	7070.95
642.114	7150.82
642.307	6989.03
642.5	7097.58
642.694	6786.29
642.887	6741.23
643.08	6679.79
643.273	6679.79
643.467	6823.15
643.66	6778.09
643.853	6577.39
644.046	6561.01
644.239	6726.89
644.432	6561.01
644.626	6456.56
644.819	6438.13
645.012	6415.6
645.205	6540.53
645.398	6481.14
645.591	6276.34
645.784	6315.25
645.977	6251.77
646.17	6132.98
646.363	6063.35
646.556	6186.23
646.749	6137.08
646.942	6006.01
647.135	6149.37
647.328	6098.17
647.521	6012.15
647.714	5985.53
647.907	5922.04
648.099	5897.47
648.292	5846.27
648.485	5915.9
648.678	5893.37
648.871	5745.92
649.064	5717.25
649.256	5668.09
649.449	5573.89
649.642	5612.8
649.835	5629.18
650.027	5555.46
650.22	5350.66
650.413	5494.02
650.605	5483.78
650.798	5326.08
650.991	5504.26
651.183	5514.5
651.376	5379.33
651.568	5330.18
651.761	5430.53
651.954	5344.52
652.146	5225.73
652.339	5358.85
652.531	5346.56
652.724	5276.93
652.916	5088.52
653.109	5055.75
653.301	5082.38
653.494	5094.66
653.686	5002.5
653.879	4922.63
654.071	5020.94
654.263	5047.56
654.456	4998.41
654.648	4922.63
654.84	4740.36
655.033	4906.25
655.225	4898.06
655.417	4949.26
655.61	4783.37
655.802	4721.93
655.994	4691.21
656.186	4652.3
656.379	4672.78
656.571	4590.86
656.763	4695.31
656.955	4619.53
657.148	4680.97
657.34	4463.89
657.532	4545.81
657.724	4570.38
657.916	4476.18
658.108	4494.61
658.3	4431.12
658.492	4437.27
658.684	4361.49
658.876	4467.99
659.068	4250.9
659.26	4326.68
659.452	4246.8
659.644	4267.28
659.836	4216.08
660.028	4109.59
660.22	4066.58
660.412	4205.85
660.604	4109.59
660.796	4062.49
660.988	4136.21
661.18	4013.34
661.372	3947.8
661.563	4261.14
661.755	3937.56
661.947	3972.38
662.139	3972.38
662.331	3912.99
662.522	3906.84
662.714	3935.51
662.906	3841.31
663.097	3910.94
663.289	3779.87
663.481	3816.73
663.673	3884.31
663.864	3712.28
664.056	3740.96
664.247	3671.33
664.439	3579.17
664.631	3611.93
664.822	3788.06
665.014	3597.6
665.205	3597.6
665.397	3634.46
665.588	3591.45
665.78	3652.89
665.971	3532.06
666.163	3527.97
666.354	3495.2
666.546	3517.73
666.737	3499.3
666.929	3497.25
667.12	3493.15
667.311	3419.43
667.503	3400.99
667.694	3337.51
667.885	3392.8
668.077	3343.65
668.268	3222.82
668.459	3286.31
668.651	3368.23
668.842	3259.68
669.033	3300.64
669.224	3296.55
669.416	3271.97
669.607	3155.24
669.798	3218.72
669.989	3208.48
670.18	3204.39
670.371	3296.55
670.563	3097.89
670.754	3112.23
670.945	3065.13
671.136	3235.11
671.327	2950.44
671.518	3050.79
671.709	2968.87
671.9	3169.57
672.091	3046.69
672.282	3202.34
672.473	2942.25
672.664	2880.81
672.855	2919.72
673.046	2923.82
673.237	2956.58
673.428	2784.55
673.619	2909.48
673.809	2884.91
674	2901.29
674.191	2905.38
674.382	2835.75
674.573	2866.47
674.764	2868.52
674.954	2860.33
675.145	2790.7
675.336	2757.93
675.527	2831.66
675.717	2739.5
675.908	2645.29
676.099	2706.73
676.289	2907.43
676.48	2757.93
676.671	2635.05
676.861	2831.66
677.052	2690.35
677.243	2608.43
677.433	2645.29
677.624	2610.48
677.814	2606.38
678.005	2702.64
678.195	2536.75
678.386	2571.57
678.576	2630.96
678.767	2587.95
678.957	2620.72
679.148	2610.48
679.338	2399.54
679.529	2473.26
679.719	2481.46
679.909	2438.45
680.1	2587.95
680.29	2467.12
680.481	2417.97
680.671	2456.88
680.861	2448.69
681.052	2301.23
681.242	2401.58
681.432	2391.34
681.622	2448.69
681.813	2362.67
682.003	2321.71
682.193	2374.96
682.383	2458.93
682.573	2362.67
682.764	2366.77
682.954	2340.15
683.144	2403.63
683.334	2364.72
683.524	2319.67
683.714	2329.91
683.904	2233.65
684.094	2317.62
684.284	2385.2
684.474	2323.76
684.664	2235.7
684.854	2174.26
685.044	2207.03
685.234	2227.51
685.424	2235.7
685.614	2192.69
685.804	2161.97
685.994	2170.16
686.184	2211.12
686.374	2272.56
686.564	2170.16
686.753	2180.4
686.943	2100.53
687.133	2178.36
687.323	2100.53
687.513	2057.53
687.702	2094.39
687.892	2032.95
688.082	2133.3
688.272	2057.53
688.461	2088.25
688.651	2047.29
688.841	2110.77
689.03	2096.44
689.22	1961.27
689.41	2108.73
689.599	2069.81
689.789	2065.72
689.979	1971.51
690.168	2006.33
690.358	2063.67
690.547	1996.09
690.737	1973.56
690.926	1936.7
691.116	1987.89
691.305	2084.15
691.495	1928.5
691.684	2014.52
691.874	2096.44
692.063	1987.89
692.252	1889.59
692.442	1842.49
692.631	1942.84
692.82	2000.18
693.01	1869.11
693.199	1887.54
693.388	1971.51
693.578	1926.46
693.767	1903.93
693.956	1869.11
694.146	1838.39
694.335	1819.96
694.524	1893.69
694.713	1967.42
694.902	1951.03
695.092	1916.22
695.281	1768.76
695.47	1862.97
695.659	1869.11
695.848	1817.91
696.037	1989.94
696.226	1858.87
696.415	1858.87
696.604	1811.77
696.793	1815.87
696.982	1852.73
697.171	1850.68
697.36	1905.98
697.549	1858.87
697.738	1758.52
697.927	1768.76
698.116	1846.59
698.305	1903.93
698.494	1850.68
698.683	1776.95
698.872	1813.82
699.061	1785.15
699.25	1838.39
699.438	1844.54
699.627	1852.73
699.816	1770.81
700.005	1807.67
700.193	1803.58
700.382	1871.16
700.571	1828.15
700.76	1805.63
700.948	1910.07
701.137	1867.06
701.326	1760.57
701.514	1844.54
701.703	1789.24
701.892	1838.39
702.08	1854.78
702.269	1758.52
702.457	1801.53
702.646	1768.76
702.834	1883.45
703.023	1789.24
703.212	1779
703.4	1793.34
703.589	1629.5
703.777	1797.43
703.965	1760.57
704.154	1801.53
704.342	1844.54
704.531	1756.47
704.719	1768.76
704.907	1764.67
705.096	1781.05
705.284	1848.63
705.472	1901.88
705.661	1787.19
705.849	1856.82
706.037	1848.63
706.226	1690.94
706.414	1819.96
706.602	1789.24
706.79	1856.82
706.979	1819.96
707.167	1875.26
707.355	1731.9
707.543	1781.05
707.731	1891.64
707.919	1733.95
708.107	1795.39
708.296	1758.52
708.484	1803.58
708.672	1703.23
708.86	1846.59
709.048	1764.67
709.236	1733.95
709.424	1822.01
709.612	1680.7
709.8	1793.34
709.988	1819.96
710.176	1885.5
710.364	1912.12
710.551	1850.68
710.739	1824.06
710.927	1764.67
711.115	1738.04
711.303	1688.89
711.491	1797.43
711.679	1793.34
711.866	1719.61
712.054	1731.9
712.242	1674.56
712.43	1811.77
712.617	1797.43
712.805	1797.43
712.993	1858.87
713.181	1768.76
713.368	1783.1
713.556	1725.75
713.744	1807.67
713.931	1899.83
714.119	1838.39
714.306	1682.75
714.494	1672.51
714.682	1740.09
714.869	1793.34
715.057	1748.28
715.244	1731.9
715.432	1901.88
715.619	1772.86
715.807	1754.43
715.994	1770.81
716.182	1746.23
716.369	1813.82
716.556	1772.86
716.744	1746.23
716.931	1652.03
717.119	1842.49
717.306	1697.08
717.493	1801.53
717.681	1783.1
717.868	1819.96
718.055	1895.74
718.242	1795.39
718.43	1754.43
718.617	1758.52
718.804	1656.12
718.991	1860.92
719.179	1836.35
719.366	1912.12
719.553	1781.05
719.74	1781.05
719.927	1789.24
720.114	1860.92
720.301	1764.67
720.488	1754.43
720.676	1615.16
720.863	1744.19
721.05	1735.99
721.237	1731.9
721.424	1842.49
721.611	1752.38
721.798	1713.47
721.985	1760.57
722.172	1690.94
722.358	1809.72
722.545	1768.76
722.732	1752.38
722.919	1848.63
723.106	1801.53
723.293	1742.14
723.48	1754.43
723.667	1817.91
723.853	1811.77
724.04	1891.64
724.227	1764.67
724.414	1848.63
724.6	1674.56
724.787	1783.1
724.974	1781.05
725.161	1713.47
725.347	1758.52
725.534	1783.1
725.72	1783.1
725.907	1637.69
726.094	1727.8
726.28	1695.04
726.467	1660.22
726.653	1795.39
726.84	1725.75
727.027	1756.47
727.213	1795.39
727.4	1793.34
727.586	1789.24
727.773	1764.67
727.959	1838.39
728.145	1717.56
728.332	1762.62
728.518	1721.66
728.705	1762.62
728.891	1766.71
729.077	1776.95
729.264	1776.95
729.45	1721.66
729.636	1770.81
729.823	1807.67
730.009	1764.67
730.195	1742.14
730.382	1748.28
730.568	1727.8
730.754	1797.43
730.94	1680.7
731.126	1842.49
731.313	1848.63
731.499	1715.52
731.685	1828.15
731.871	1721.66
732.057	1781.05
732.243	1862.97
732.429	1719.61
732.615	1735.99
732.801	1803.58
732.987	1703.23
733.173	1705.28
733.359	1670.46
733.545	1719.61
733.731	1740.09
733.917	1828.15
734.103	1682.75
734.289	1764.67
734.475	1717.56
734.661	1744.19
734.847	1727.8
735.033	1676.6
735.219	1735.99
735.404	1680.7
735.59	1791.29
735.776	1713.47
735.962	1781.05
736.148	1606.97
736.333	1695.04
736.519	1727.8
736.705	1678.65
736.89	1664.32
737.076	1580.35
737.262	1604.92
737.447	1619.26
737.633	1606.97
737.819	1725.75
738.004	1656.12
738.19	1701.18
738.375	1727.8
738.561	1715.52
738.747	1592.64
738.932	1629.5
739.118	1733.95
739.303	1604.92
739.489	1600.83
739.674	1602.88
739.859	1645.88
740.045	1617.21
740.23	1598.78
740.416	1490.24
740.601	1551.68
740.786	1590.59
740.972	1430.85
741.157	1398.08
741.342	1580.35
741.528	1596.73
741.713	1572.16
741.898	1619.26
742.084	1459.52
742.269	1498.43
742.454	1535.29
742.639	1512.77
742.824	1482.05
743.01	1563.97
743.195	1566.01
743.38	1568.06
743.565	1516.86
743.75	1414.46
743.935	1559.87
744.12	1559.87
744.305	1459.52
744.49	1473.85
744.675	1488.19
744.86	1506.62
745.045	1432.9
745.23	1367.36
745.415	1436.99
745.6	1506.62
745.785	1500.48
745.97	1422.66
746.155	1486.14
746.34	1445.18
746.525	1387.84
746.71	1482.05
746.895	1353.02
747.079	1445.18
747.264	1369.41
747.449	1342.78
747.634	1449.28
747.819	1303.87
748.003	1375.55
748.188	1310.02
748.373	1369.41
748.557	1379.65
748.742	1334.59
748.927	1350.98
749.111	1305.92
749.296	1271.11
749.481	1312.07
749.665	1262.91
749.85	1156.42
750.034	1246.53
750.219	1328.45
750.404	1215.81
750.588	1271.11
750.773	1275.2
750.957	1230.15
751.141	1197.38
751.326	1252.67
751.51	1195.33
751.695	1246.53
751.879	1129.8
752.064	1105.22
752.248	1158.47
752.432	1195.33
752.617	1154.37
752.801	1119.56
752.985	1207.62
753.17	1154.37
753.354	1166.66
753.538	1168.71
753.722	1230.15
753.907	1064.26
754.091	1072.45
754.275	1090.88
754.459	1019.21
754.643	1039.69
754.828	982.34
755.012	1043.78
755.196	1047.88
755.38	1064.26
755.564	976.2
755.748	1017.16
755.932	1088.84
756.116	1068.36
756.3	998.73
756.484	957.77
756.668	972.1
756.852	1041.73
757.036	965.96
757.22	892.23
757.404	1011.01
757.588	947.53
757.772	1021.25
757.956	965.96
758.14	978.25
758.323	976.2
758.507	896.33
758.691	933.19
758.875	984.39
759.059	927.05
759.242	886.09
759.426	998.73
759.61	910.66
759.794	853.32
759.977	888.14
760.161	884.04
760.345	992.58
760.528	935.24
760.712	867.66
760.895	888.14
761.079	845.13
761.263	920.9
761.446	867.66
761.63	804.17
761.813	777.55
761.997	853.32
762.18	816.46
762.364	832.84
762.547	755.02
762.731	851.27
762.914	818.5
763.098	843.08
763.281	828.74
763.464	847.18
763.648	836.94
763.831	802.12
764.015	750.92
764.198	783.69
764.381	718.15
764.564	793.93
764.748	771.4
764.931	781.64
765.114	740.68
765.297	775.5
765.481	761.16
765.664	712.01
765.847	687.43
766.03	795.98
766.213	785.74
766.397	818.5
766.58	699.72
766.763	712.01
766.946	728.39
767.129	804.17
767.312	697.67
767.495	740.68
767.678	679.24
767.861	746.83
768.044	748.87
768.227	654.67
768.41	752.97
768.593	703.82
768.776	644.43
768.959	808.26
769.142	709.96
769.324	689.48
769.507	728.39
769.69	679.24
769.873	609.61
770.056	750.92
770.239	859.46
770.421	716.11
770.604	752.97
770.787	675.15
770.97	607.56
771.152	703.82
771.335	697.67
771.518	685.39
771.7	779.59
771.883	679.24
772.066	640.33
772.248	720.2
772.431	671.05
772.613	644.43
772.796	675.15
772.978	642.38
773.161	738.63
773.343	681.29
773.526	697.67
773.708	638.28
773.891	664.91
774.073	658.76
774.256	531.79
774.438	597.32
774.621	640.33
774.803	609.61
774.985	619.85
775.168	599.37
775.35	585.04
775.532	566.6
775.715	531.79
775.897	576.84
776.079	539.98
776.261	580.94
776.444	613.71
776.626	603.47
776.808	548.17
776.99	589.13
777.173	634.19
777.355	544.08
777.537	582.99
777.719	644.43
777.901	527.69
778.083	474.45
778.265	550.22
778.447	535.89
778.629	484.69
778.811	544.08
778.993	539.98
779.175	445.77
779.357	433.49
779.539	564.56
779.721	548.17
779.903	419.15
780.085	490.83
780.267	474.45
780.449	527.69
780.631	427.34
780.812	466.25
780.994	486.73
781.176	398.67
781.358	451.92
781.54	470.35
781.721	396.62
781.903	478.54
782.085	458.06
782.267	468.3
782.448	486.73
782.63	353.62
782.812	474.45
782.993	449.87
783.175	380.24
783.357	425.29
783.538	408.91
783.72	386.38
783.901	394.58
784.083	404.82
784.264	384.34
784.446	355.66
784.627	337.23
784.809	318.8
784.99	339.28
785.172	425.29
785.353	398.67
785.535	359.76
785.716	351.57
785.897	367.95
786.079	320.85
786.26	353.62
786.441	396.62
786.623	355.66
786.804	351.57
786.985	355.66
787.167	367.95
787.348	322.9
787.529	419.15
787.71	382.29
787.891	376.14
788.073	298.32
788.254	329.04
788.435	359.76
788.616	376.14
788.797	310.61
788.978	329.04
789.159	318.8
789.34	294.22
789.522	277.84
789.703	357.71
789.884	277.84
790.065	312.66
790.246	367.95
790.427	277.84
790.607	343.38
790.788	294.22
790.969	294.22
791.15	249.17
791.331	281.94
791.512	214.35
791.693	312.66
791.874	283.98
792.054	341.33
792.235	247.12
792.416	195.92
792.597	245.07
792.778	312.66
792.958	277.84
793.139	376.14
793.32	288.08
793.5	302.42
793.681	320.85
793.862	249.17
794.042	337.23
794.223	255.31
794.404	240.98
794.584	204.11
794.765	220.5
794.945	292.18
795.126	288.08
795.306	247.12
795.487	253.27
795.667	230.74
795.848	281.94
796.028	247.12
796.209	140.63
796.389	187.73
796.57	234.83
796.75	218.45
796.93	232.79
797.111	230.74
797.291	212.31
797.471	253.27
797.652	175.44
797.832	236.88
798.012	202.07
798.192	189.78
798.373	245.07
798.553	202.07
798.733	318.8
798.913	177.49
799.093	259.41
799.274	200.02
799.454	232.79
799.634	286.03
799.814	261.46
799.994	171.35
800.174	253.27
800.354	173.39
800.534	146.77
800.714	200.02
800.894	195.92
801.074	103.76
801.254	179.54
801.434	99.67
801.614	140.63
801.794	269.65
801.974	703.82
802.154	140.63
802.334	216.4
802.514	105.81
802.693	204.11
802.873	157.01
803.053	236.88
803.233	152.91
803.413	120.15
803.592	183.63
803.772	140.63
803.952	212.31
804.131	146.77
804.311	181.59
804.491	161.11
804.67	150.87
804.85	183.63
805.03	68.95
805.209	214.35
805.389	154.96
805.568	89.43
805.748	122.2
805.928	200.02
806.107	154.96
806.287	140.63
806.466	206.16
806.646	122.2
806.825	165.2
807.004	212.31
807.184	83.28
807.363	128.34
807.543	99.67
807.722	138.58
807.901	152.91
808.081	191.83
808.26	161.11
808.439	124.24
808.619	154.96
808.798	107.86
808.977	171.35
809.156	132.44
809.336	136.53
809.515	175.44
809.694	56.66
809.873	146.77
810.052	118.1
810.231	114
810.411	107.86
810.59	169.3
810.769	52.56
810.948	161.11
811.127	73.04
811.306	114
811.485	150.87
811.664	105.81
811.843	75.09
812.022	130.39
812.201	114
812.38	148.82
812.559	105.81
812.737	105.81
812.916	97.62
813.095	85.33
813.274	146.77
813.453	179.54
813.632	187.73
813.811	118.1
813.989	109.91
814.168	87.38
814.347	150.87
814.526	146.77
814.704	95.57
814.883	126.29
815.062	81.24
815.24	109.91
815.419	56.66
815.598	77.14
815.776	48.47
815.955	140.63
816.133	27.99
816.312	132.44
816.49	116.05
816.669	159.06
816.847	134.48
817.026	71
817.204	128.34
817.383	148.82
817.561	111.96
817.74	83.28
817.918	152.91
818.097	71
818.275	71
818.453	138.58
818.632	85.33
818.81	128.34
818.988	116.05
819.167	114
819.345	93.52
819.523	99.67
819.701	132.44
819.879	77.14
820.058	56.66
820.236	64.85
820.414	99.67
820.592	42.32
820.77	77.14
820.948	83.28
821.127	66.9
821.305	103.76
821.483	34.13
821.661	163.15
821.839	73.04
822.017	68.95
822.195	42.32
822.373	140.63
822.551	107.86
822.729	93.52
822.907	17.75
823.085	52.56
823.262	71
823.44	58.71
823.618	93.52
823.796	48.47
823.974	89.43
824.152	105.81
824.329	81.24
824.507	107.86
824.685	124.24
824.863	116.05
825.04	105.81
825.218	109.91
825.396	136.53
825.574	105.81
825.751	30.04
825.929	105.81
826.107	56.66
826.284	83.28
826.462	161.11
826.639	32.08
826.817	17.75
826.994	134.48
827.172	11.61
827.349	105.81
827.527	58.71
827.704	89.43
827.882	-8.87
828.059	167.25
828.237	46.42
828.414	103.76
828.591	-6.83
828.769	46.42
828.946	54.61
829.124	62.8
829.301	75.09
829.478	38.23
829.655	91.48
829.833	77.14
830.01	56.66
830.187	81.24
830.364	99.67
830.542	11.61
830.719	122.2
830.896	87.38
831.073	150.87
831.25	21.84
831.427	101.72
831.604	38.23
831.782	48.47
831.959	71
832.136	136.53
832.313	52.56
832.49	7.51
832.667	124.24
832.844	17.75
833.021	81.24
833.198	101.72
833.374	-4.78
833.551	23.89
833.728	91.48
833.905	83.28
834.082	-2.73
834.259	114
834.436	91.48
834.612	99.67
834.789	91.48
834.966	89.43
835.143	52.56
835.319	3.41
835.496	68.95
835.673	54.61
835.85	44.37
836.026	71
836.203	54.61
836.38	19.8
836.556	93.52
836.733	30.04
836.909	122.2
837.086	-19.11
837.262	58.71
837.439	17.75
837.616	3.41
837.792	-29.35
837.968	40.28
838.145	68.95
838.321	44.37
838.498	5.46
838.674	99.67
838.851	11.61
839.027	25.94
839.203	54.61
839.38	56.66
839.556	83.28
839.732	32.08
839.909	-17.07
840.085	36.18
840.261	19.8
840.437	40.28
840.614	50.52
840.79	3.41
840.966	5.46
841.142	-35.5
841.318	32.08
841.494	-2.73
841.671	-29.35
841.847	48.47
842.023	17.75
842.199	85.33
842.375	40.28
842.551	-4.78
842.727	7.51
842.903	79.19
843.079	52.56
843.255	30.04
843.431	19.8
843.607	40.28
843.783	34.13
843.959	27.99
844.134	-27.31
844.31	25.94
844.486	17.75
844.662	50.52
844.838	27.99
845.013	42.32
845.189	40.28
845.365	-8.87
845.541	-55.98
845.716	54.61
845.892	40.28
846.068	30.04
846.244	93.52
846.419	83.28
846.595	-10.92
846.77	40.28
846.946	52.56
847.122	19.8
847.297	-8.87
847.473	66.9
847.648	-37.55
847.824	13.65
847.999	-49.83
848.175	56.66
848.35	50.52
848.526	73.04
848.701	97.62
848.876	91.48
849.052	32.08
849.227	64.85
849.403	-0.68
849.578	36.18
849.753	85.33
849.929	-17.07
850.104	-80.55
850.279	25.94
850.454	48.47
850.63	23.89
850.805	19.8
850.98	66.9
851.155	-15.02
851.33	66.9
851.505	46.42
851.681	107.86
851.856	3.41
852.031	73.04
852.206	23.89
852.381	81.24
852.556	-21.16
852.731	118.1
852.906	-51.88
853.081	5.46
853.256	17.75
853.431	58.71
853.606	25.94
853.781	50.52
853.956	-62.12
854.131	48.47
854.305	-35.5
854.48	36.18
854.655	7.51
854.83	-8.87
855.005	66.9
855.18	19.8
855.354	38.23
855.529	13.65
855.704	7.51
855.879	-10.92
856.053	-25.26
856.228	42.32
856.403	-15.02
856.577	38.23
856.752	15.7
856.926	-4.78
857.101	73.04
857.276	23.89
857.45	3.41
857.625	52.56
857.799	83.28
857.974	66.9
858.148	56.66
858.323	118.1
858.497	-12.97
858.672	30.04
858.846	-19.11
859.02	15.7
859.195	5.46
859.369	-33.45
859.543	34.13
859.718	73.04
859.892	-55.98
860.066	17.75
860.241	-17.07
860.415	64.85
860.589	44.37
860.763	3.41
860.938	-29.35
861.112	9.56
861.286	-0.68
861.46	56.66
861.634	1.37
861.808	30.04
861.982	58.71
862.157	40.28
862.331	44.37
862.505	-39.59
862.679	17.75
862.853	-29.35
863.027	-45.74
863.201	60.76
863.375	21.84
863.549	32.08
863.722	19.8
863.896	25.94
864.07	-35.5
864.244	44.37
864.418	-6.83
864.592	-53.93
864.766	-45.74
864.939	-25.26
865.113	-58.03
865.287	73.04
865.461	32.08
865.634	23.89
865.808	17.75
865.982	3.41
866.156	15.7
866.329	-72.36
866.503	40.28
866.676	15.7
866.85	-23.21
867.024	9.56
867.197	17.75
867.371	-17.07
867.544	-19.11
867.718	-29.35
867.891	44.37
868.065	-51.88
868.238	17.75
868.412	46.42
868.585	-29.35
868.759	56.66
868.932	36.18
869.105	-45.74
869.279	34.13
869.452	-33.45
869.625	-39.59
869.799	81.24
869.972	25.94
870.145	52.56
870.319	-8.87
870.492	-21.16
870.665	-4.78
870.838	-23.21
871.011	-66.22
871.185	-0.68
871.358	-33.45
871.531	3.41
871.704	30.04
871.877	-0.68
872.05	-53.93
872.223	36.18
872.396	-6.83
872.569	-17.07
872.742	-45.74
872.915	19.8
873.088	-2.73
873.261	105.81
873.434	17.75
873.607	-31.4
873.78	-12.97
873.953	44.37
874.126	46.42
874.299	-8.87
874.471	11.61
874.644	-21.16
874.817	-25.26
874.99	40.28
875.163	-55.98
875.335	38.23
875.508	11.61
875.681	9.56
875.853	-2.73
876.026	1.37
876.199	-58.03
876.371	15.7
876.544	48.47
876.717	54.61
876.889	11.61
877.062	25.94
877.234	-55.98
877.407	-12.97
877.579	7.51
877.752	19.8
877.924	27.99
878.097	11.61
878.269	27.99
878.442	-27.31
878.614	7.51
878.786	-4.78
878.959	48.47
879.131	1.37
879.303	-19.11
879.476	25.94
879.648	-41.64
879.82	81.24
879.993	36.18
880.165	-88.75
880.337	-74.41
880.509	-12.97
880.681	-12.97
880.854	32.08
881.026	-35.5
881.198	9.56
881.37	-51.88
881.542	-15.02
881.714	25.94
881.886	48.47
882.058	-15.02
882.23	7.51
882.402	17.75
882.574	64.85
882.746	27.99
882.918	-66.22
883.09	15.7
883.262	-0.68
883.434	21.84
883.606	-49.83
883.778	-23.21
883.95	27.99
884.122	-39.59
884.293	5.46
884.465	-51.88
884.637	50.52
884.809	-53.93
884.98	-12.97
885.152	50.52
885.324	-12.97
885.496	-39.59
885.667	-51.88
885.839	-43.69
886.011	-25.26
886.182	34.13
886.354	97.62
886.525	34.13
886.697	-43.69
886.869	23.89
887.04	-25.26
887.212	17.75
887.383	1.37
887.555	13.65
887.726	-33.45
887.897	-27.31
888.069	-8.87
888.24	-45.74
888.412	19.8
888.583	15.7
888.754	30.04
888.926	-4.78
889.097	52.56
889.268	48.47
889.44	64.85
889.611	-66.22
889.782	7.51
889.953	-17.07
890.125	5.46
890.296	17.75
890.467	-2.73
890.638	-27.31
890.809	-47.79
890.98	-21.16
891.151	7.51
891.323	-37.55
891.494	-15.02
891.665	54.61
891.836	-25.26
892.007	7.51
892.178	-0.68
892.349	-0.68
892.52	-39.59
892.691	11.61
892.862	-37.55
893.032	-41.64
893.203	-8.87
893.374	-35.5
893.545	-35.5
893.716	46.42
893.887	25.94
894.057	-55.98
894.228	-0.68
894.399	-0.68
894.57	85.33
894.74	-23.21
894.911	36.18
895.082	-23.21
895.253	-66.22
895.423	-55.98
895.594	-39.59
895.764	-0.68
895.935	-76.46
896.106	34.13
896.276	-64.17
896.447	56.66
896.617	48.47
896.788	-33.45
896.958	15.7
897.129	9.56
897.299	68.95
897.47	-10.92
897.64	48.47
897.81	-21.16
897.981	3.41
898.151	-88.75
898.322	66.9
898.492	-33.45
898.662	-45.74
898.832	-0.68
899.003	-45.74
899.173	17.75
899.343	-17.07
899.513	-86.7
