Data from USB4F104151__104__13-22-08-240.txt Node

Date: Fri Mar 14 13:22:08 EDT 2025
User: louis
Spectrometer: USB4F10415
Trigger mode: 4
Integration Time (sec): 3.000000E-2
Scans to average: 1
Electric dark correction enabled: true
Nonlinearity correction enabled: false
Boxcar width: 0
XAxis mode: Wavelengths
Number of Pixels in Spectrum: 3648
>>>>>Begin Spectral Data<<<<<
178.204	-134.14
178.424	-134.14
178.644	-134.14
178.864	-195.58
179.084	-156.67
179.304	58.37
179.524	25.6
179.744	-7.17
179.964	15.36
180.184	-5.12
180.404	-48.13
180.624	-37.89
180.844	56.32
181.064	-121.85
181.283	37.89
181.503	25.6
181.723	1.02
181.943	-97.28
182.163	9.22
182.383	-74.75
182.602	-11.26
182.822	-1.02
183.042	-13.31
183.262	-21.5
183.482	-50.18
183.701	-31.74
183.921	-25.6
184.141	-3.07
184.361	7.17
184.58	-5.12
184.8	-62.46
185.02	-25.6
185.239	-15.36
185.459	-33.79
185.679	13.31
185.898	-119.81
186.118	-1.02
186.338	-17.41
186.557	-5.12
186.777	-44.03
186.997	-58.37
187.216	-13.31
187.436	74.75
187.655	31.74
187.875	-11.26
188.095	-52.22
188.314	-3.07
188.534	60.42
188.753	-70.65
188.973	33.79
189.192	54.27
189.412	1.02
189.631	-9.22
189.851	-50.18
190.07	-15.36
190.29	-1.02
190.509	11.26
190.729	37.89
190.948	60.42
191.168	160.77
191.387	-46.08
191.607	-44.03
191.826	13.31
192.045	-3.07
192.265	-11.26
192.484	-35.84
192.704	-33.79
192.923	-109.57
193.142	56.32
193.362	-13.31
193.581	54.27
193.8	7.17
194.02	33.79
194.239	19.46
194.458	-39.94
194.678	-17.41
194.897	-41.98
195.116	15.36
195.335	-66.56
195.555	-5.12
195.774	-3.07
195.993	7.17
196.212	-46.08
196.432	-48.13
196.651	-64.51
196.87	-39.94
197.089	19.46
197.308	-1.02
197.528	9.22
197.747	-31.74
197.966	3.07
198.185	39.94
198.404	25.6
198.623	-46.08
198.842	117.76
199.062	44.03
199.281	25.6
199.5	-58.37
199.719	-31.74
199.938	17.41
200.157	21.5
200.376	60.42
200.595	-5.12
200.814	-23.55
201.033	-13.31
201.252	54.27
201.471	-1.02
201.69	23.55
201.909	1.02
202.128	-109.57
202.347	78.85
202.566	23.55
202.785	-27.65
203.004	-23.55
203.223	115.71
203.442	-50.18
203.661	-33.79
203.879	3.07
204.098	39.94
204.317	-70.65
204.536	78.85
204.755	-3.07
204.974	-21.5
205.193	-37.89
205.411	-25.6
205.63	-21.5
205.849	-31.74
206.068	-19.46
206.287	7.17
206.505	15.36
206.724	-56.32
206.943	-13.31
207.162	-33.79
207.381	15.36
207.599	15.36
207.818	-27.65
208.037	50.18
208.255	15.36
208.474	7.17
208.693	-23.55
208.911	60.42
209.13	66.56
209.349	27.65
209.567	33.79
209.786	97.28
210.005	35.84
210.223	-48.13
210.442	-9.22
210.661	48.13
210.879	-1.02
211.098	-15.36
211.316	7.17
211.535	48.13
211.753	-35.84
211.972	-44.03
212.191	-54.27
212.409	-64.51
212.628	-21.5
212.846	21.5
213.065	-15.36
213.283	25.6
213.502	-70.65
213.72	-17.41
213.938	78.85
214.157	-33.79
214.375	1.02
214.594	7.17
214.812	11.26
215.031	-33.79
215.249	-19.46
215.467	9.22
215.686	-54.27
215.904	58.37
216.122	-76.8
216.341	72.7
216.559	29.7
216.778	87.04
216.996	39.94
217.214	41.98
217.432	-35.84
217.651	-1.02
217.869	-48.13
218.087	-46.08
218.306	-89.09
218.524	64.51
218.742	-23.55
218.96	1.02
219.179	23.55
219.397	25.6
219.615	25.6
219.833	-7.17
220.051	-33.79
220.27	44.03
220.488	-44.03
220.706	78.85
220.924	-39.94
221.142	-37.89
221.36	-13.31
221.578	-1.02
221.796	5.12
222.015	35.84
222.233	7.17
222.451	60.42
222.669	-70.65
222.887	166.91
223.105	-58.37
223.323	-7.17
223.541	128
223.759	17.41
223.977	-3.07
224.195	44.03
224.413	7.17
224.631	7.17
224.849	-31.74
225.067	39.94
225.285	-21.5
225.503	-56.32
225.721	-13.31
225.939	-17.41
226.157	-1.02
226.375	60.42
226.592	-27.65
226.81	23.55
227.028	21.5
227.246	15.36
227.464	31.74
227.682	5.12
227.9	33.79
228.117	-41.98
228.335	7.17
228.553	72.7
228.771	37.89
228.989	17.41
229.206	21.5
229.424	7.17
229.642	-13.31
229.86	23.55
230.077	33.79
230.295	27.65
230.513	15.36
230.731	-5.12
230.948	60.42
231.166	27.65
231.384	13.31
231.601	-41.98
231.819	50.18
232.037	11.26
232.254	41.98
232.472	-87.04
232.689	9.22
232.907	11.26
233.125	-13.31
233.342	-54.27
233.56	-15.36
233.777	15.36
233.995	15.36
234.213	50.18
234.43	1.02
234.648	15.36
234.865	-17.41
235.083	-7.17
235.3	44.03
235.518	-19.46
235.735	142.33
235.953	23.55
236.17	7.17
236.388	7.17
236.605	17.41
236.822	25.6
237.04	9.22
237.257	15.36
237.475	-64.51
237.692	33.79
237.909	-56.32
238.127	5.12
238.344	82.94
238.562	-17.41
238.779	3.07
238.996	-31.74
239.214	27.65
239.431	-7.17
239.648	-33.79
239.865	23.55
240.083	70.65
240.3	-15.36
240.517	-76.8
240.735	-25.6
240.952	109.57
241.169	27.65
241.386	29.7
241.603	29.7
241.821	-87.04
242.038	3.07
242.255	60.42
242.472	31.74
242.689	-11.26
242.907	5.12
243.124	-72.7
243.341	15.36
243.558	11.26
243.775	-54.27
243.992	-89.09
244.209	62.46
244.426	97.28
244.643	-41.98
244.86	-5.12
245.078	-21.5
245.295	70.65
245.512	-25.6
245.729	-9.22
245.946	7.17
246.163	41.98
246.38	-17.41
246.597	7.17
246.814	-5.12
247.031	11.26
247.248	58.37
247.464	3.07
247.681	-29.7
247.898	3.07
248.115	-1.02
248.332	9.22
248.549	25.6
248.766	105.47
248.983	84.99
249.2	27.65
249.417	41.98
249.633	23.55
249.85	37.89
250.067	-1.02
250.284	-93.18
250.501	-11.26
250.717	33.79
250.934	23.55
251.151	39.94
251.368	19.46
251.585	15.36
251.801	-15.36
252.018	-7.17
252.235	-25.6
252.451	-99.33
252.668	-3.07
252.885	-23.55
253.102	68.61
253.318	33.79
253.535	-27.65
253.752	33.79
253.968	-29.7
254.185	25.6
254.401	13.31
254.618	48.13
254.835	31.74
255.051	-5.12
255.268	5.12
255.484	-17.41
255.701	27.65
255.917	-7.17
256.134	-19.46
256.351	11.26
256.567	-80.89
256.784	-23.55
257	-27.65
257.217	19.46
257.433	3.07
257.65	-9.22
257.866	31.74
258.082	-46.08
258.299	-17.41
258.515	5.12
258.732	-23.55
258.948	-15.36
259.165	29.7
259.381	-17.41
259.597	-3.07
259.814	41.98
260.03	-5.12
260.246	-23.55
260.463	23.55
260.679	58.37
260.895	31.74
261.112	-39.94
261.328	-19.46
261.544	31.74
261.761	97.28
261.977	-72.7
262.193	-1.02
262.409	-21.5
262.626	19.46
262.842	-29.7
263.058	-7.17
263.274	-1.02
263.49	9.22
263.707	-25.6
263.923	-29.7
264.139	-97.28
264.355	9.22
264.571	-7.17
264.787	23.55
265.004	-21.5
265.22	52.22
265.436	-5.12
265.652	-46.08
265.868	46.08
266.084	-1.02
266.3	27.65
266.516	-54.27
266.732	7.17
266.948	-23.55
267.164	21.5
267.38	35.84
267.596	21.5
267.812	23.55
268.028	-31.74
268.244	-7.17
268.46	-25.6
268.676	-66.56
268.892	46.08
269.108	-27.65
269.324	33.79
269.54	-33.79
269.756	41.98
269.972	-64.51
270.188	-66.56
270.403	-39.94
270.619	-17.41
270.835	-13.31
271.051	-19.46
271.267	-50.18
271.483	-29.7
271.698	-64.51
271.914	31.74
272.13	-17.41
272.346	-5.12
272.562	64.51
272.777	-7.17
272.993	93.18
273.209	39.94
273.425	50.18
273.64	-23.55
273.856	-17.41
274.072	-31.74
274.287	15.36
274.503	44.03
274.719	23.55
274.934	7.17
275.15	-41.98
275.366	46.08
275.581	-13.31
275.797	-25.6
276.012	41.98
276.228	-74.75
276.444	-3.07
276.659	-13.31
276.875	-93.18
277.09	31.74
277.306	7.17
277.521	23.55
277.737	93.18
277.952	9.22
278.168	29.7
278.383	-7.17
278.599	31.74
278.814	97.28
279.03	-46.08
279.245	35.84
279.461	-27.65
279.676	76.8
279.892	-5.12
280.107	-46.08
280.322	-9.22
280.538	31.74
280.753	39.94
280.969	29.7
281.184	-46.08
281.399	72.7
281.615	21.5
281.83	-1.02
282.045	7.17
282.26	-58.37
282.476	-11.26
282.691	39.94
282.906	-5.12
283.122	17.41
283.337	5.12
283.552	19.46
283.767	-52.22
283.983	-5.12
284.198	23.55
284.413	13.31
284.628	-9.22
284.843	19.46
285.058	-23.55
285.274	19.46
285.489	-62.46
285.704	89.09
285.919	-39.94
286.134	-9.22
286.349	-56.32
286.564	56.32
286.779	123.9
286.995	-31.74
287.21	-35.84
287.425	17.41
287.64	-44.03
287.855	41.98
288.07	-48.13
288.285	23.55
288.5	48.13
288.715	84.99
288.93	15.36
289.145	-17.41
289.36	-39.94
289.575	-76.8
289.79	72.7
290.004	-58.37
290.219	48.13
290.434	48.13
290.649	5.12
290.864	-19.46
291.079	-1.02
291.294	-1.02
291.509	-68.61
291.724	-27.65
291.938	-15.36
292.153	11.26
292.368	11.26
292.583	33.79
292.798	-21.5
293.012	-54.27
293.227	76.8
293.442	13.31
293.657	64.51
293.871	-68.61
294.086	-37.89
294.301	93.18
294.516	72.7
294.73	60.42
294.945	-62.46
295.16	7.17
295.374	58.37
295.589	23.55
295.804	9.22
296.018	23.55
296.233	39.94
296.447	-1.02
296.662	-76.8
296.877	-19.46
297.091	11.26
297.306	11.26
297.52	5.12
297.735	87.04
297.949	-80.89
298.164	-35.84
298.378	35.84
298.593	-50.18
298.807	-19.46
299.022	-17.41
299.236	35.84
299.451	13.31
299.665	-17.41
299.88	-58.37
300.094	-29.7
300.309	-97.28
300.523	60.42
300.737	-9.22
300.952	-87.04
301.166	-9.22
301.381	5.12
301.595	-37.89
301.809	35.84
302.024	33.79
302.238	-41.98
302.452	27.65
302.667	-11.26
302.881	29.7
303.095	56.32
303.309	-15.36
303.524	-72.7
303.738	-5.12
303.952	29.7
304.166	7.17
304.381	5.12
304.595	3.07
304.809	3.07
305.023	52.22
305.237	3.07
305.452	41.98
305.666	15.36
305.88	80.89
306.094	41.98
306.308	39.94
306.522	80.89
306.736	-35.84
306.95	5.12
307.164	17.41
307.379	-60.42
307.593	46.08
307.807	17.41
308.021	68.61
308.235	62.46
308.449	39.94
308.663	-29.7
308.877	-11.26
309.091	23.55
309.305	21.5
309.519	-39.94
309.733	56.32
309.947	-56.32
310.161	-9.22
310.374	46.08
310.588	101.37
310.802	-99.33
311.016	101.37
311.23	13.31
311.444	48.13
311.658	-27.65
311.872	-3.07
312.085	39.94
312.299	-15.36
312.513	5.12
312.727	3.07
312.941	29.7
313.154	89.09
313.368	15.36
313.582	-1.02
313.796	-1.02
314.009	-13.31
314.223	52.22
314.437	31.74
314.651	72.7
314.864	-33.79
315.078	11.26
315.292	-68.61
315.505	29.7
315.719	-23.55
315.933	-1.02
316.146	-9.22
316.36	-9.22
316.573	109.57
316.787	64.51
317.001	21.5
317.214	-11.26
317.428	-66.56
317.641	-15.36
317.855	-9.22
318.068	-56.32
318.282	-17.41
318.495	76.8
318.709	29.7
318.922	-58.37
319.136	76.8
319.349	58.37
319.563	-48.13
319.776	-44.03
319.99	-74.75
320.203	62.46
320.417	-13.31
320.63	46.08
320.843	58.37
321.057	3.07
321.27	-17.41
321.483	89.09
321.697	76.8
321.91	7.17
322.124	-19.46
322.337	93.18
322.55	-9.22
322.763	66.56
322.977	-19.46
323.19	-66.56
323.403	9.22
323.617	5.12
323.83	-15.36
324.043	31.74
324.256	-23.55
324.469	-19.46
324.683	78.85
324.896	29.7
325.109	-95.23
325.322	-25.6
325.535	39.94
325.748	74.75
325.962	-15.36
326.175	-13.31
326.388	31.74
326.601	50.18
326.814	-3.07
327.027	-1.02
327.24	58.37
327.453	-50.18
327.666	-39.94
327.879	62.46
328.092	-15.36
328.305	52.22
328.518	-23.55
328.731	-56.32
328.944	-15.36
329.157	-29.7
329.37	-80.89
329.583	-19.46
329.796	23.55
330.009	-29.7
330.222	-15.36
330.435	-31.74
330.648	-33.79
330.861	29.7
331.073	15.36
331.286	-9.22
331.499	19.46
331.712	25.6
331.925	29.7
332.138	17.41
332.35	58.37
332.563	-54.27
332.776	29.7
332.989	-5.12
333.202	15.36
333.414	-5.12
333.627	1.02
333.84	33.79
334.053	9.22
334.265	-1.02
334.478	-17.41
334.691	-27.65
334.903	17.41
335.116	-25.6
335.329	-48.13
335.541	-48.13
335.754	46.08
335.966	-50.18
336.179	25.6
336.392	48.13
336.604	-35.84
336.817	-27.65
337.029	33.79
337.242	-35.84
337.454	17.41
337.667	7.17
337.88	105.47
338.092	68.61
338.305	52.22
338.517	19.46
338.729	19.46
338.942	97.28
339.154	-87.04
339.367	-35.84
339.579	31.74
339.792	-66.56
340.004	-1.02
340.217	-123.9
340.429	7.17
340.641	-76.8
340.854	-9.22
341.066	-48.13
341.278	125.95
341.491	39.94
341.703	3.07
341.915	-48.13
342.128	33.79
342.34	82.94
342.552	9.22
342.764	11.26
342.977	56.32
343.189	33.79
343.401	13.31
343.613	-13.31
343.826	-17.41
344.038	-111.61
344.25	-1.02
344.462	-70.65
344.674	23.55
344.886	1.02
345.099	-21.5
345.311	-46.08
345.523	27.65
345.735	-103.42
345.947	1.02
346.159	-35.84
346.371	19.46
346.583	-3.07
346.795	68.61
347.007	-33.79
347.219	23.55
347.431	-25.6
347.643	25.6
347.855	-27.65
348.067	31.74
348.279	-50.18
348.491	37.89
348.703	7.17
348.915	27.65
349.127	-33.79
349.339	23.55
349.551	-107.52
349.763	17.41
349.975	-74.75
350.187	-60.42
350.399	15.36
350.61	-35.84
350.822	-25.6
351.034	44.03
351.246	-31.74
351.458	-9.22
351.669	-64.51
351.881	64.51
352.093	56.32
352.305	-15.36
352.517	7.17
352.728	23.55
352.94	-21.5
353.152	56.32
353.363	-29.7
353.575	-25.6
353.787	39.94
353.999	-15.36
354.21	113.66
354.422	-37.89
354.633	-11.26
354.845	-7.17
355.057	-7.17
355.268	-58.37
355.48	13.31
355.692	-74.75
355.903	60.42
356.115	-25.6
356.326	-56.32
356.538	-29.7
356.749	-37.89
356.961	54.27
357.172	-5.12
357.384	31.74
357.595	93.18
357.807	56.32
358.018	-41.98
358.23	-1.02
358.441	33.79
358.653	9.22
358.864	35.84
359.075	-37.89
359.287	21.5
359.498	-13.31
359.709	21.5
359.921	-15.36
360.132	35.84
360.344	-1.02
360.555	1.02
360.766	-27.65
360.977	-17.41
361.189	11.26
361.4	72.7
361.611	11.26
361.823	21.5
362.034	17.41
362.245	-70.65
362.456	35.84
362.667	107.52
362.879	19.46
363.09	50.18
363.301	9.22
363.512	23.55
363.723	56.32
363.935	-50.18
364.146	21.5
364.357	-50.18
364.568	11.26
364.779	-46.08
364.99	44.03
365.201	52.22
365.412	138.24
365.623	-103.42
365.834	91.13
366.045	-62.46
366.256	-54.27
366.467	58.37
366.678	15.36
366.889	-33.79
367.1	23.55
367.311	-25.6
367.522	-54.27
367.733	97.28
367.944	-70.65
368.155	-17.41
368.366	23.55
368.577	15.36
368.788	54.27
368.999	-74.75
369.209	15.36
369.42	74.75
369.631	80.89
369.842	48.13
370.053	11.26
370.264	-48.13
370.474	-7.17
370.685	3.07
370.896	39.94
371.107	107.52
371.317	23.55
371.528	-17.41
371.739	37.89
371.95	-5.12
372.16	7.17
372.371	-31.74
372.582	-60.42
372.792	41.98
373.003	31.74
373.214	29.7
373.424	7.17
373.635	17.41
373.846	37.89
374.056	25.6
374.267	-13.31
374.477	17.41
374.688	27.65
374.898	50.18
375.109	27.65
375.319	50.18
375.53	-5.12
375.74	113.66
375.951	23.55
376.161	21.5
376.372	19.46
376.582	-23.55
376.793	52.22
377.003	23.55
377.214	21.5
377.424	50.18
377.635	56.32
377.845	9.22
378.055	33.79
378.266	-33.79
378.476	64.51
378.686	-7.17
378.897	39.94
379.107	29.7
379.317	-7.17
379.528	-13.31
379.738	54.27
379.948	-44.03
380.158	19.46
380.369	-33.79
380.579	-3.07
380.789	-1.02
380.999	7.17
381.21	58.37
381.42	7.17
381.63	50.18
381.84	70.65
382.05	11.26
382.261	-19.46
382.471	3.07
382.681	-7.17
382.891	7.17
383.101	7.17
383.311	3.07
383.521	-17.41
383.731	60.42
383.941	68.61
384.151	-41.98
384.361	-5.12
384.571	-3.07
384.781	17.41
384.991	-17.41
385.201	41.98
385.411	25.6
385.621	25.6
385.831	87.04
386.041	21.5
386.251	1.02
386.461	64.51
386.671	-37.89
386.881	33.79
387.091	39.94
387.301	17.41
387.511	-56.32
387.72	7.17
387.93	25.6
388.14	23.55
388.35	15.36
388.56	50.18
388.769	1.02
388.979	-50.18
389.189	7.17
389.399	13.31
389.609	-17.41
389.818	50.18
390.028	-7.17
390.238	21.5
390.447	-29.7
390.657	-82.94
390.867	-39.94
391.076	1.02
391.286	-37.89
391.496	3.07
391.705	-11.26
391.915	-52.22
392.125	99.33
392.334	11.26
392.544	54.27
392.753	25.6
392.963	-82.94
393.172	44.03
393.382	-56.32
393.591	117.76
393.801	-70.65
394.01	89.09
394.22	37.89
394.429	29.7
394.639	33.79
394.848	52.22
395.058	7.17
395.267	-17.41
395.477	1.02
395.686	156.67
395.895	93.18
396.105	23.55
396.314	66.56
396.524	80.89
396.733	-41.98
396.942	93.18
397.152	35.84
397.361	44.03
397.57	23.55
397.78	5.12
397.989	19.46
398.198	48.13
398.407	48.13
398.617	-9.22
398.826	41.98
399.035	-3.07
399.244	58.37
399.453	72.7
399.663	84.99
399.872	7.17
400.081	7.17
400.29	78.85
400.499	17.41
400.708	50.18
400.917	19.46
401.127	46.08
401.336	46.08
401.545	134.14
401.754	121.85
401.963	31.74
402.172	48.13
402.381	-1.02
402.59	-9.22
402.799	21.5
403.008	39.94
403.217	-25.6
403.426	35.84
403.635	-5.12
403.844	15.36
404.053	46.08
404.262	76.8
404.471	93.18
404.68	93.18
404.888	7.17
405.097	48.13
405.306	37.89
405.515	74.75
405.724	39.94
405.933	-13.31
406.142	76.8
406.35	105.47
406.559	66.56
406.768	56.32
406.977	64.51
407.185	56.32
407.394	103.42
407.603	27.65
407.812	35.84
408.02	93.18
408.229	125.95
408.438	103.42
408.646	113.66
408.855	107.52
409.064	111.61
409.272	82.94
409.481	119.81
409.69	46.08
409.898	91.13
410.107	99.33
410.315	156.67
410.524	99.33
410.733	109.57
410.941	150.53
411.15	191.49
411.358	132.09
411.567	173.05
411.775	193.53
411.984	220.16
412.192	259.07
412.401	224.25
412.609	207.87
412.818	199.68
413.026	179.2
413.234	263.16
413.443	154.62
413.651	181.25
413.86	228.35
414.068	273.4
414.276	263.16
414.485	275.45
414.693	254.97
414.901	365.56
415.11	322.56
415.318	322.56
415.526	324.6
415.734	394.23
415.943	336.89
416.151	443.39
416.359	365.56
416.567	357.37
416.776	427
416.984	340.99
417.192	435.19
417.4	340.99
417.608	482.3
417.817	457.72
418.025	539.64
418.233	523.26
418.441	486.39
418.649	478.2
418.857	537.59
419.065	590.84
419.273	601.08
419.481	639.99
419.689	623.61
419.897	633.85
420.105	631.8
420.313	623.61
420.521	697.33
420.729	703.48
420.937	795.64
421.145	771.06
421.353	769.01
421.561	891.89
421.769	869.36
421.977	930.8
422.185	965.62
422.393	1025.01
422.601	1025.01
422.809	1080.3
423.017	996.34
423.224	1049.58
423.432	1178.61
423.64	1106.93
423.848	1164.27
424.056	1104.88
424.263	1311.72
424.471	1367.02
424.679	1442.79
424.887	1305.58
425.094	1457.13
425.302	1407.98
425.51	1401.83
425.718	1514.47
425.925	1582.06
426.133	1620.97
426.341	1842.15
426.548	1747.94
426.756	1717.22
426.964	1805.28
427.171	1973.22
427.379	1881.06
427.586	1928.16
427.794	2073.57
428.001	2163.68
428.209	2247.65
428.417	2040.8
428.624	2323.42
428.832	2360.28
429.039	2329.56
429.247	2376.67
429.454	2374.62
429.662	2835.41
429.869	2530.27
430.076	2642.9
430.284	2681.82
430.491	2737.11
430.699	2919.38
430.906	2962.39
431.114	3050.45
431.321	3107.79
431.528	3091.41
431.736	3257.29
431.943	3460.04
432.15	3230.67
432.358	3449.8
432.565	3808.2
432.772	3576.78
432.979	3840.97
433.187	3931.08
433.394	3980.23
433.601	4176.83
433.808	4123.59
434.016	4092.87
434.223	4324.29
434.43	4422.59
434.637	4389.82
434.844	4758.46
435.052	4807.61
435.259	4940.72
435.466	4942.77
435.673	4885.43
435.88	5278.64
436.087	5366.7
436.294	5321.65
436.501	5356.46
436.708	5354.41
436.915	5596.07
437.122	5813.16
437.329	5807.02
437.537	6093.73
437.743	5979.04
437.95	6044.58
438.157	6245.28
438.364	6615.96
438.571	6507.42
438.778	6603.68
438.985	7164.82
439.192	6978.45
439.399	7306.13
439.606	7035.8
439.813	7453.58
440.02	7783.31
440.227	7854.98
440.433	7642
440.64	8002.44
440.847	7764.87
441.054	7975.81
441.261	8532.86
441.467	8457.09
441.674	8668.03
441.881	9098.1
442.088	8823.67
442.294	9010.04
442.501	9313.14
442.708	9192.31
442.914	9651.05
443.121	10111.85
443.328	9739.12
443.534	10541.92
443.741	10038.12
443.948	9978.73
444.154	10759
444.361	10744.67
444.568	10691.42
444.774	10722.14
444.981	10879.83
445.187	11184.98
445.394	11711.31
445.6	11606.86
445.807	12682.05
446.013	12014.41
446.22	12102.47
446.426	12725.05
446.633	13124.41
446.839	13151.03
447.046	12796.73
447.252	13527.86
447.459	13527.86
447.665	13468.47
447.871	14093.1
448.078	14961.44
448.284	14070.57
448.491	14498.59
448.697	14889.76
448.903	15137.56
449.11	15285.01
449.316	15035.16
449.522	15436.56
449.728	15536.91
449.935	15725.33
450.141	15915.79
450.347	16384.77
450.553	15823.63
450.76	16055.05
450.966	16458.5
451.172	16298.76
451.378	16839.42
451.584	16456.45
451.791	17003.26
451.997	16939.77
452.203	16804.61
452.409	17203.96
452.615	17169.15
452.821	16304.9
453.027	16161.55
453.233	17009.4
453.44	16423.69
453.646	16710.4
453.852	16657.15
454.058	16747.26
454.264	16503.56
454.47	16728.83
454.676	16182.03
454.882	16990.97
455.088	15403.8
455.294	15624.98
455.5	16055.05
455.705	16108.3
455.911	15502.1
456.117	14943
456.323	15063.83
456.529	14394.15
456.735	14635.81
456.941	14379.81
457.147	14215.98
457.352	13871.92
457.558	13400.88
457.764	13529.91
457.97	13368.12
458.176	13009.72
458.381	12802.88
458.587	12514.11
458.793	12444.48
458.999	11739.98
459.204	12559.17
459.41	12534.59
459.616	11492.18
459.821	11723.6
460.027	11457.36
460.233	11258.71
460.438	10869.59
460.644	10797.92
460.85	10410.85
461.055	10126.18
461.261	10134.37
461.466	9354.1
461.672	8905.59
461.878	9737.07
462.083	9016.18
462.289	8805.24
462.494	8751.99
462.7	8315.78
462.905	8285.06
463.111	8586.11
463.316	8518.53
463.522	8203.14
463.727	8184.71
463.932	8225.67
464.138	8313.73
464.343	8149.89
464.549	7818.12
464.754	8313.73
464.959	8334.21
465.165	7934.85
465.37	7943.05
465.575	7531.41
465.781	8047.49
465.986	7994.25
466.191	7789.45
466.397	7455.63
466.602	7134.1
466.807	7373.71
467.012	7459.73
467.218	7424.91
467.423	7342.99
467.628	7388.05
467.833	7685
468.038	7437.2
468.244	7209.87
468.449	7498.64
468.654	7068.56
468.859	7087
469.064	7142.29
469.269	6794.14
469.474	6896.53
469.679	7138.2
469.885	6861.72
470.09	7134.1
470.295	6796.18
470.5	6677.4
470.705	6804.38
470.91	6605.72
471.115	6587.29
471.32	6699.93
471.525	6562.72
471.73	6482.85
471.935	6466.46
472.139	6323.1
472.344	6325.15
472.549	6171.55
472.754	6251.42
472.959	6257.57
473.164	5770.15
473.369	5854.12
473.574	6032.29
473.778	5966.76
473.983	6007.72
474.188	5882.79
474.393	5665.71
474.598	5634.99
474.802	5702.57
475.007	5522.35
475.212	5675.95
475.417	5395.37
475.621	5448.62
475.826	5536.68
476.031	5381.04
476.235	5079.99
476.44	5350.32
476.645	5315.5
476.849	5415.85
477.054	5116.85
477.259	5020.6
477.463	5106.61
477.668	5069.75
477.872	4969.4
478.077	5075.89
478.282	4856.76
478.486	4815.8
478.691	4838.33
478.895	4694.97
479.1	4748.22
479.304	4793.27
479.509	4682.68
479.713	4699.06
479.918	4565.95
480.122	4469.69
480.326	4697.02
480.531	4580.28
480.735	4580.28
480.94	4461.5
481.144	4664.25
481.348	4412.35
481.553	4518.84
481.757	4514.75
481.961	4457.4
482.166	4557.75
482.37	4520.89
482.574	4381.63
482.778	4391.87
482.983	4406.2
483.187	4441.02
483.391	4424.64
483.595	4410.3
483.8	4309.95
484.004	4479.93
484.208	4572.09
484.412	4498.36
484.616	4502.46
484.821	4324.29
485.025	4371.39
485.229	4408.25
485.433	4410.3
485.637	4297.66
485.841	4455.36
486.045	4461.5
486.249	4428.73
486.453	4381.63
486.657	4533.18
486.861	4455.36
487.065	4279.23
487.269	4420.54
487.473	4281.28
487.677	4307.9
487.881	4465.6
488.085	4445.12
488.289	4426.68
488.493	4338.62
488.697	4375.49
488.901	4533.18
489.105	4570.04
489.309	4377.53
489.512	4463.55
489.716	4490.17
489.92	4447.16
490.124	4350.91
490.328	4555.71
490.531	4506.56
490.735	4658.1
490.939	4584.38
491.143	4680.63
491.346	4486.08
491.55	4678.58
491.754	4561.85
491.958	4537.27
492.161	4613.05
492.365	4668.34
492.569	4709.3
492.772	4768.7
492.976	4660.15
493.18	4639.67
493.383	4768.7
493.587	4787.13
493.79	4903.86
493.994	4721.59
494.197	4848.57
494.401	5000.12
494.605	4897.72
494.808	4856.76
495.012	4961.2
495.215	5030.84
495.419	5049.27
495.622	4934.58
495.825	4981.68
496.029	5102.51
496.232	5366.7
496.436	5233.58
496.639	5417.9
496.843	5288.88
497.046	5381.04
497.249	5422
497.453	5405.61
497.656	5454.76
497.859	5594.03
498.063	5637.03
498.266	5655.47
498.469	5669.8
498.673	5755.82
498.876	5954.47
499.079	6089.64
499.282	5845.93
499.485	6116.26
499.689	5979.04
499.892	6116.26
500.095	6261.66
500.298	6294.43
500.501	6110.11
500.705	6370.21
500.908	6634.39
501.111	6474.65
501.314	6742.94
501.517	6880.15
501.72	6792.09
501.923	6726.55
502.126	6865.82
502.329	7084.95
502.532	7095.19
502.735	7158.67
502.938	7256.98
503.141	7127.96
503.344	7201.68
503.547	7474.06
503.75	7365.52
503.953	7707.53
504.156	7650.19
504.359	7895.94
504.562	7828.36
504.765	8031.11
504.968	7992.2
505.17	8135.56
505.373	8176.52
505.576	8287.11
505.779	8428.42
505.982	8289.15
506.185	8592.25
506.387	8481.66
506.59	8682.36
506.793	8823.67
506.996	8881.02
507.198	9018.23
507.401	9005.94
507.604	9184.12
507.807	9284.47
508.009	9284.47
508.212	9491.31
508.415	9431.92
508.617	9618.29
508.82	9597.81
509.022	9696.11
509.225	9907.05
509.428	10126.18
509.63	10093.41
509.833	10189.67
510.035	10453.86
510.238	10437.47
510.44	10570.59
510.643	10734.43
510.845	10697.56
511.048	10599.26
511.25	10806.11
511.453	10935.13
511.655	11176.79
511.858	10941.27
512.06	11334.48
512.262	11479.89
512.465	11393.87
512.667	11354.96
512.87	11946.83
513.072	11944.78
513.274	12032.84
513.477	12182.34
513.679	12305.22
513.881	12284.74
514.084	12331.84
514.286	12532.54
514.488	12462.91
514.69	12919.61
514.893	13216.57
515.095	12794.68
515.297	13128.5
515.499	13228.85
515.701	13232.95
515.904	13392.69
516.106	13849.39
516.308	14011.18
516.51	14064.43
516.712	13884.2
516.914	14287.65
517.116	14418.72
517.318	14312.23
517.52	14531.36
517.722	14576.42
517.925	14748.45
518.127	15063.83
518.329	15055.64
518.531	15029.02
518.733	15262.49
518.935	15256.34
519.136	15549.2
519.338	15874.83
519.54	15612.69
519.742	16067.34
519.944	16030.48
520.146	16104.2
520.348	16366.34
520.55	16599.81
520.752	16388.87
520.954	16874.24
521.155	16825.09
521.357	17230.59
521.559	17144.57
521.761	17603.32
521.963	17375.99
522.164	17681.14
522.366	17507.06
522.568	17898.22
522.77	17914.61
522.971	18049.77
523.173	17926.89
523.375	18082.54
523.576	18240.23
523.778	18154.22
523.98	18582.24
524.181	18780.9
524.383	18764.51
524.584	19071.71
524.786	18991.84
524.988	18940.64
525.189	19376.86
525.391	19360.47
525.592	19237.59
525.794	19589.85
525.995	19466.97
526.197	19708.63
526.398	19747.54
526.6	19911.38
526.801	19743.44
527.003	20105.93
527.204	20153.04
527.406	20323.02
527.607	20243.15
527.808	20484.81
528.01	20310.73
528.211	20382.41
528.412	20912.83
528.614	20794.05
528.815	20443.85
529.016	20957.89
529.218	20513.48
529.419	21080.77
529.62	21177.02
529.822	21007.04
530.023	20953.79
530.224	21187.26
530.425	21314.23
530.626	21002.94
530.828	21078.72
531.029	21564.09
531.23	21285.56
531.431	21291.71
531.632	21248.7
531.833	21441.21
532.035	21152.45
532.236	21338.81
532.437	21506.74
532.638	21607.09
532.839	21424.83
533.04	21818.04
533.241	21547.7
533.442	21908.15
533.643	21590.71
533.844	21758.64
534.045	21787.32
534.246	21275.32
534.447	21875.38
534.648	21738.16
534.849	21883.57
535.05	21562.04
535.251	21480.12
535.451	21746.36
535.652	21736.12
535.853	21781.17
536.054	22037.17
536.255	21764.79
536.456	21781.17
536.657	22100.65
536.857	21613.24
537.058	21580.47
537.259	22065.84
537.46	21883.57
537.66	21654.2
537.861	21953.2
538.062	21627.57
538.263	22074.03
538.463	21637.81
538.664	21748.4
538.865	21955.25
539.065	22090.41
539.266	21574.33
539.466	21846.71
539.667	21729.97
539.868	22137.52
540.068	21998.26
540.269	21564.09
540.469	21852.85
540.67	21912.24
540.87	21582.52
541.071	21924.53
541.271	21777.08
541.472	21865.14
541.672	21746.36
541.873	21740.21
542.073	21643.96
542.274	21748.4
542.474	21809.84
542.675	21549.75
542.875	22086.32
543.075	22008.5
543.276	21568.18
543.476	22092.46
543.676	21873.33
543.877	21949.11
544.077	21910.19
544.277	21928.63
544.478	21902
544.678	21787.32
544.878	21674.68
545.078	21582.52
545.279	21652.15
545.479	21453.5
545.679	21695.16
545.879	21756.6
546.079	22071.98
546.28	21781.17
546.48	21461.69
546.68	21682.87
546.88	21781.17
547.08	21580.47
547.28	21713.59
547.48	21435.06
547.68	21705.4
547.88	21772.98
548.081	21684.92
548.281	21705.4
548.481	21590.71
548.681	21818.04
548.881	21758.64
549.081	21723.83
549.28	21473.98
549.48	21838.51
549.68	21734.07
549.88	21781.17
550.08	21635.77
550.28	21623.48
550.48	21764.79
550.68	21709.49
550.88	21568.18
551.08	21715.64
551.279	21543.61
551.479	21842.61
551.679	21789.36
551.879	21621.43
552.079	21727.92
552.278	21523.13
552.478	21559.99
552.678	21447.35
552.878	21582.52
553.077	21641.91
553.277	21420.73
553.477	21580.47
553.676	21402.3
553.876	21430.97
554.076	21365.43
554.275	21488.31
554.475	21129.92
554.674	21502.65
554.874	21482.17
555.074	21269.18
555.273	21463.74
555.473	21605.05
555.672	21031.62
555.872	21191.36
556.071	21314.23
556.271	21463.74
556.47	21160.64
556.67	21179.07
556.869	21111.49
557.068	21158.59
557.268	21070.53
557.467	21179.07
557.667	21019.33
557.866	21306.04
558.065	21160.64
558.265	20855.49
558.464	20929.22
558.663	21127.87
558.863	20925.12
559.062	20929.22
559.261	20808.39
559.461	20978.37
559.66	20552.39
559.859	20583.11
560.058	20619.97
560.258	20617.93
560.457	20527.81
560.656	20605.64
560.855	20642.5
561.054	20441.8
561.253	20249.29
561.453	20523.72
561.652	20445.9
561.851	20751.04
562.05	20382.41
562.249	20388.55
562.448	20538.05
562.647	20046.54
562.846	20181.71
563.045	20234.96
563.244	20187.85
563.443	20312.78
563.642	19944.14
563.841	20177.61
564.04	19804.88
564.239	20271.82
564.438	19739.35
564.637	19544.79
564.836	20099.79
565.035	19872.46
565.234	19669.72
565.432	19792.59
565.631	19571.41
565.83	19901.14
566.029	19718.87
566.228	19440.34
566.427	19495.64
566.625	19221.21
566.824	18979.55
567.023	19188.44
567.222	19032.8
567.42	19546.84
567.619	19288.79
567.818	19163.87
568.016	19086.04
568.215	18979.55
568.414	19088.09
568.612	19088.09
568.811	19079.9
569.01	18987.74
569.208	18590.44
569.407	18684.64
569.605	18885.34
569.804	18944.73
570.002	18500.33
570.201	18701.03
570.4	18455.27
570.598	18305.77
570.797	18422.5
570.995	18483.94
571.193	18381.54
571.392	18428.65
571.59	18109.16
571.789	18072.3
571.987	18006.77
572.186	17926.89
572.384	17795.82
572.582	17824.5
572.781	17953.52
572.979	17580.79
573.177	17863.41
573.376	17902.32
573.574	17701.62
573.772	17865.46
573.971	17613.56
574.169	17285.88
574.367	17734.39
574.565	17789.68
574.763	17558.26
574.962	17320.7
575.16	17079.04
575.358	17042.17
575.556	17062.65
575.754	17169.15
575.952	17105.66
576.151	17163
576.349	17036.03
576.547	17040.12
576.745	16990.97
576.943	16995.07
577.141	16808.7
577.339	16909.05
577.537	16816.9
577.735	16847.61
577.933	16411.4
578.131	16685.83
578.329	16618.24
578.527	16503.56
578.725	16470.79
578.923	16651.01
579.121	16605.95
579.319	16309
579.516	16491.27
579.714	16415.49
579.912	16130.83
580.11	16431.88
580.308	16104.2
580.506	15956.75
580.704	15844.11
580.901	15932.17
581.099	16087.82
581.297	15799.05
581.495	15799.05
581.692	15969.04
581.89	15495.96
582.088	15813.39
582.285	15659.79
582.483	15694.61
582.681	15471.38
582.878	15571.73
583.076	15543.06
583.274	15336.21
583.471	15457.04
583.669	15553.3
583.866	15063.83
584.064	15477.52
584.262	15051.55
584.459	15225.62
584.657	15133.47
584.854	15170.33
585.052	15096.6
585.249	15074.07
585.447	15090.46
585.644	14963.48
585.841	15010.59
586.039	14988.06
586.236	14547.75
586.434	14910.24
586.631	14629.66
586.828	14742.3
587.026	14555.94
587.223	14711.58
587.42	14701.34
587.618	14805.79
587.815	14514.98
588.012	14320.42
588.21	14414.63
588.407	14222.12
588.604	14476.07
588.801	14226.21
588.999	14342.95
589.196	14246.69
589.393	14433.06
589.59	14211.88
589.787	14074.67
589.984	13820.72
590.182	14043.95
590.379	14037.8
590.576	13779.76
590.773	13923.12
590.97	13898.54
591.167	13835.05
591.364	13667.12
591.561	13927.21
591.758	13493.04
591.955	13628.21
592.152	13761.33
592.349	13728.56
592.546	13658.93
592.743	13640.5
592.94	13050.68
593.137	13361.97
593.334	13466.42
593.531	13212.47
593.727	13378.36
593.924	13271.86
594.121	13118.26
594.318	13058.87
594.515	13230.9
594.712	13304.63
594.908	13017.91
595.105	13071.16
595.302	12903.23
595.499	13146.94
595.696	12876.6
595.892	12723.01
596.089	12882.75
596.286	12874.56
596.482	12673.85
596.679	12856.12
596.876	12720.96
597.072	12600.13
597.269	12718.91
597.466	12487.49
597.662	12481.35
597.859	12305.22
598.055	12403.52
598.252	12272.45
598.448	12241.73
598.645	12165.96
598.841	12315.46
599.038	12292.93
599.234	12327.75
599.431	12002.12
599.627	12026.7
599.824	12223.3
600.02	11844.43
600.217	12202.82
600.413	11957.07
600.609	12018.5
600.806	11850.57
601.002	11920.2
601.198	11875.15
601.395	11610.96
601.591	11932.49
601.787	11856.72
601.984	11596.62
602.18	11762.51
602.376	11709.26
602.572	11756.36
602.769	11744.08
602.965	11631.44
603.161	11602.77
603.357	11285.33
603.553	11524.94
603.75	11238.23
603.946	11266.9
604.142	11285.33
604.338	11285.33
604.534	11223.89
604.73	11105.11
604.926	11215.7
605.122	11080.53
605.318	11031.38
605.514	10838.87
605.71	11012.95
605.906	11221.84
606.102	11094.87
606.298	11215.7
606.494	10871.64
606.69	10861.4
606.886	11000.66
607.082	11035.48
607.278	10920.79
607.474	10634.08
607.67	10959.7
607.866	10754.91
608.062	11039.58
608.257	10687.32
608.453	10451.81
608.649	10689.37
608.845	10367.84
609.041	10314.59
609.236	10636.13
609.432	10656.61
609.628	10349.41
609.824	10505.06
610.019	10388.32
610.215	10527.58
610.411	10437.47
610.606	10503.01
610.802	10445.66
610.998	10480.48
611.193	10404.71
611.389	10371.94
611.584	10365.79
611.78	10173.28
611.976	10339.17
612.171	10380.13
612.367	9980.78
612.562	10040.17
612.758	10031.97
612.953	10007.4
613.149	10054.5
613.344	10036.07
613.539	10187.62
613.735	9960.3
613.93	9976.68
614.126	10019.69
614.321	10173.28
614.517	10091.37
614.712	9976.68
614.907	9755.5
615.103	9755.5
615.298	9896.81
615.493	10134.37
615.688	9829.23
615.884	9839.47
616.079	9577.33
616.274	9970.54
616.47	9716.59
616.665	9773.93
616.86	9706.35
617.055	9689.96
617.25	9499.5
617.445	9767.79
617.641	9376.62
617.836	9587.57
618.031	9524.08
618.226	9479.02
618.421	9456.5
618.616	9653.1
618.811	9429.87
619.006	9433.97
619.201	9233.27
619.396	9292.66
619.591	9102.2
619.786	9487.22
619.981	9069.43
620.176	9261.94
620.371	9040.76
620.566	9081.72
620.761	8913.78
620.956	9249.65
621.151	9030.52
621.346	9118.58
621.541	9059.19
621.735	9137.01
621.93	8713.08
622.125	8633.21
622.32	8600.44
622.515	8711.04
622.709	8618.88
622.904	8547.2
623.099	8543.1
623.294	8530.81
623.488	8422.27
623.683	8506.24
623.878	8461.18
624.072	8436.61
624.267	8217.47
624.462	8381.31
624.656	8117.12
624.851	8139.65
625.046	8174.47
625.24	8067.97
625.435	8100.74
625.629	8055.69
625.824	8125.32
626.018	7877.51
626.213	7938.95
626.407	7818.12
626.602	7795.59
626.796	7785.35
626.991	7674.76
627.185	7590.8
627.38	7621.52
627.574	7609.23
627.768	7566.22
627.963	7416.72
628.157	7285.65
628.352	7539.6
628.546	7156.63
628.74	7486.35
628.935	7439.25
629.129	7248.79
629.323	7064.47
629.517	7158.67
629.712	7134.1
629.906	7142.29
630.1	7103.38
630.294	6951.83
630.489	6923.16
630.683	7025.56
630.877	6863.77
631.071	6814.62
631.265	6917.01
631.459	6726.55
631.653	6781.85
631.848	6634.39
632.042	6759.32
632.236	6845.34
632.43	6732.7
632.624	6704.03
632.818	6683.55
633.012	6396.83
633.206	6519.71
633.4	6658.97
633.594	6450.08
633.788	6525.85
633.982	6292.38
634.176	6433.69
634.369	6140.83
634.563	6144.93
634.757	6187.94
634.951	6181.79
635.145	6196.13
635.339	6251.42
635.533	6118.31
635.726	5923.75
635.92	6013.86
636.114	6136.74
636.308	5913.51
636.501	6122.4
636.695	6003.62
636.889	5927.85
637.083	5735.34
637.276	5708.71
637.47	5809.06
637.664	5729.19
637.857	5850.02
638.051	5725.1
638.244	5725.1
638.438	5677.99
638.632	5692.33
638.825	5565.36
639.019	5661.61
639.212	5538.73
639.406	5497.77
639.599	5548.97
639.793	5540.78
639.986	5395.37
640.18	5409.71
640.373	5299.12
640.567	5258.16
640.76	5303.22
640.954	5297.07
641.147	5358.51
641.34	5163.95
641.534	5149.62
641.727	5096.37
641.92	5163.95
642.114	5118.9
642.307	5182.38
642.5	4832.18
642.694	4975.54
642.887	5061.55
643.08	4905.91
643.273	4975.54
643.467	4918.2
643.66	4985.78
643.853	4893.62
644.046	4686.78
644.239	4799.41
644.432	4809.65
644.626	4823.99
644.819	4668.34
645.012	4598.71
645.205	4699.06
645.398	4561.85
645.591	4557.75
645.784	4604.86
645.977	4553.66
646.17	4629.43
646.363	4422.59
646.556	4436.92
646.749	4398.01
646.942	4463.55
647.135	4428.73
647.328	4350.91
647.521	4338.62
647.714	4189.12
647.907	4385.73
648.099	4258.75
648.292	4291.52
648.485	4326.33
648.678	4137.92
648.871	4029.38
649.064	4111.3
649.256	4119.49
649.449	4133.82
649.642	4096.96
649.835	4045.76
650.027	3922.88
650.22	4123.59
650.413	3978.18
650.605	4070.34
650.798	4010.95
650.991	3949.51
651.183	3935.17
651.376	3867.59
651.568	3978.18
651.761	3943.36
651.954	3857.35
652.146	3898.31
652.339	3988.42
652.531	3818.44
652.724	3818.44
652.916	3763.14
653.109	3754.95
653.301	3824.58
653.494	3906.5
653.686	3720.14
653.879	3619.78
654.071	3652.55
654.263	3466.19
654.456	3666.89
654.648	3601.35
654.84	3582.92
655.033	3587.02
655.225	3564.49
655.417	3464.14
655.61	3486.67
655.802	3556.3
655.994	3564.49
656.186	3570.63
656.379	3480.52
656.571	3406.8
656.763	3464.14
656.955	3308.49
657.148	3376.08
657.34	3267.53
657.532	3314.64
657.724	3320.78
657.916	3283.92
658.108	3355.6
658.3	3351.5
658.492	3296.21
658.684	3181.52
658.876	3294.16
659.068	3150.8
659.26	3075.03
659.452	3144.66
659.644	3034.07
659.836	3081.17
660.028	3197.9
660.22	3070.93
660.412	3040.21
660.604	2984.91
660.796	3058.64
660.988	3072.98
661.18	3034.07
661.372	2911.19
661.563	3107.79
661.755	3007.44
661.947	2921.43
662.139	2919.38
662.331	2972.63
662.522	2898.9
662.714	2874.32
662.906	2923.48
663.097	2812.89
663.289	2792.41
663.481	2749.4
663.673	2882.52
663.864	2728.92
664.056	2751.45
664.247	2892.76
664.439	2714.58
664.631	2677.72
664.822	2761.69
665.014	2751.45
665.205	2636.76
665.397	2812.89
665.588	2632.66
665.78	2591.7
665.971	2677.72
666.163	2573.27
666.354	2698.2
666.546	2624.47
666.737	2546.65
666.929	2571.22
667.12	2593.75
667.311	2487.26
667.503	2497.5
667.694	2509.79
667.885	2507.74
668.077	2608.09
668.268	2339.8
668.459	2419.68
668.651	2481.11
668.842	2485.21
669.033	2440.15
669.224	2491.35
669.416	2423.77
669.607	2417.63
669.798	2274.27
669.989	2423.77
670.18	2245.6
670.371	2438.11
670.563	2251.74
670.754	2309.08
670.945	2333.66
671.136	2393.05
671.327	2343.9
671.518	2249.69
671.709	2239.45
671.9	2251.74
672.091	2327.52
672.282	2337.76
672.473	2102.24
672.664	2245.6
672.855	2196.45
673.046	2165.73
673.237	2251.74
673.428	2348
673.619	2227.17
673.809	2171.87
674	2284.51
674.191	2141.15
674.382	2186.21
674.573	2126.82
674.764	2145.25
674.954	2178.01
675.145	2087.9
675.336	2087.9
675.527	2096.1
675.717	2081.76
675.908	2137.06
676.099	2020.32
676.289	2065.38
676.48	2040.8
676.671	2085.86
676.861	1999.84
677.052	2024.42
677.243	1989.6
677.433	1954.79
677.624	2008.03
677.814	2044.9
678.005	2018.27
678.195	2051.04
678.386	2038.75
678.576	1981.41
678.767	1958.88
678.957	1858.53
679.148	2083.81
679.338	1868.77
679.529	1917.92
679.719	1879.01
679.909	1950.69
680.1	1881.06
680.29	1907.68
680.481	1971.17
680.671	1975.27
680.861	1889.25
681.052	1977.31
681.242	1938.4
681.432	1946.59
681.622	1842.15
681.813	1868.77
682.003	1891.3
682.193	1711.08
682.383	1901.54
682.573	1901.54
682.764	1842.15
682.954	1852.39
683.144	1866.72
683.334	1801.19
683.524	1768.42
683.714	1860.58
683.904	1852.39
684.094	1897.44
684.284	1813.48
684.474	1881.06
684.664	1833.96
684.854	1690.6
685.044	1811.43
685.234	1776.61
685.424	1797.09
685.614	1772.52
685.804	1760.23
685.994	1752.04
686.184	1782.76
686.374	1766.37
686.564	1735.65
686.753	1663.97
686.943	1735.65
687.133	1758.18
687.323	1739.75
687.513	1760.23
687.702	1698.79
687.892	1620.97
688.082	1653.73
688.272	1715.17
688.461	1643.49
688.651	1588.2
688.841	1657.83
689.03	1706.98
689.22	1678.31
689.41	1682.41
689.599	1618.92
689.789	1620.97
689.979	1584.1
690.168	1575.91
690.358	1528.81
690.547	1543.14
690.737	1526.76
690.926	1614.82
691.116	1600.49
691.305	1637.35
691.495	1444.84
691.684	1549.29
691.874	1506.28
692.063	1586.15
692.252	1567.72
692.442	1522.66
692.631	1631.21
692.82	1557.48
693.01	1532.9
693.199	1489.9
693.388	1541.1
693.578	1477.61
693.767	1565.67
693.956	1557.48
694.146	1473.51
694.335	1469.42
694.524	1469.42
694.713	1467.37
694.902	1545.19
695.092	1385.45
695.281	1465.32
695.47	1453.03
695.659	1393.64
695.848	1358.83
696.037	1391.59
696.226	1567.72
696.415	1424.36
696.604	1350.64
696.793	1424.36
696.982	1457.13
697.171	1481.71
697.36	1520.62
697.549	1457.13
697.738	1362.92
697.927	1450.99
698.116	1477.61
698.305	1438.7
698.494	1352.68
698.683	1311.72
698.872	1410.03
699.061	1317.87
699.25	1401.83
699.438	1502.19
699.627	1346.54
699.816	1520.62
700.005	1440.75
700.193	1338.35
700.382	1463.27
700.571	1360.88
700.76	1369.07
700.948	1371.12
701.137	1455.08
701.326	1346.54
701.514	1502.19
701.703	1377.26
701.892	1410.03
702.08	1485.8
702.269	1430.51
702.457	1305.58
702.646	1319.92
702.834	1344.49
703.023	1444.84
703.212	1434.6
703.4	1338.35
703.589	1369.07
703.777	1369.07
703.965	1414.12
704.154	1330.16
704.342	1459.18
704.531	1336.3
704.719	1362.92
704.907	1342.44
705.096	1405.93
705.284	1342.44
705.472	1491.95
705.661	1319.92
705.849	1455.08
706.037	1418.22
706.226	1410.03
706.414	1358.83
706.602	1303.53
706.79	1321.96
706.979	1422.31
707.167	1395.69
707.355	1405.93
707.543	1373.16
707.731	1416.17
707.919	1416.17
708.107	1407.98
708.296	1377.26
708.484	1440.75
708.672	1342.44
708.86	1360.88
709.048	1471.47
709.236	1358.83
709.424	1332.2
709.612	1313.77
709.8	1332.2
709.988	1446.89
710.176	1399.79
710.364	1436.65
710.551	1315.82
710.739	1391.59
710.927	1407.98
711.115	1367.02
711.303	1387.5
711.491	1342.44
711.679	1289.2
711.866	1362.92
712.054	1303.53
712.242	1336.3
712.43	1405.93
712.617	1457.13
712.805	1432.55
712.993	1453.03
713.181	1301.48
713.368	1463.27
713.556	1524.71
713.744	1344.49
713.931	1405.93
714.119	1358.83
714.306	1328.11
714.494	1346.54
714.682	1317.87
714.869	1375.21
715.057	1479.66
715.244	1403.88
715.432	1350.64
715.619	1358.83
715.807	1311.72
715.994	1356.78
716.182	1391.59
716.369	1358.83
716.556	1371.12
716.744	1278.96
716.931	1438.7
717.119	1410.03
717.306	1295.34
717.493	1270.76
717.681	1350.64
717.868	1362.92
718.055	1385.45
718.242	1313.77
718.43	1319.92
718.617	1420.27
718.804	1338.35
718.991	1465.32
719.179	1270.76
719.366	1352.68
719.553	1465.32
719.74	1395.69
719.927	1364.97
720.114	1326.06
720.301	1399.79
720.488	1360.88
720.676	1377.26
720.863	1399.79
721.05	1315.82
721.237	1307.63
721.424	1393.64
721.611	1387.5
721.798	1377.26
721.985	1367.02
722.172	1274.86
722.358	1281
722.545	1385.45
722.732	1307.63
722.919	1207.28
723.106	1336.3
723.293	1371.12
723.48	1391.59
723.667	1319.92
723.853	1340.4
724.04	1332.2
724.227	1369.07
724.414	1348.59
724.6	1393.64
724.787	1473.51
724.974	1403.88
725.161	1332.2
725.347	1178.61
725.534	1340.4
725.72	1315.82
725.907	1385.45
726.094	1281
726.28	1317.87
726.467	1315.82
726.653	1252.33
726.84	1324.01
727.027	1346.54
727.213	1299.44
727.4	1297.39
727.586	1352.68
727.773	1340.4
727.959	1240.05
728.145	1289.2
728.332	1330.16
728.518	1238
728.705	1350.64
728.891	1311.72
729.077	1321.96
729.264	1287.15
729.45	1336.3
729.636	1342.44
729.823	1244.14
730.009	1291.24
730.195	1256.43
730.382	1453.03
730.568	1262.57
730.754	1369.07
730.94	1299.44
731.126	1276.91
731.313	1319.92
731.499	1309.68
731.685	1399.79
731.871	1186.8
732.057	1395.69
732.243	1393.64
732.429	1207.28
732.615	1260.52
732.801	1289.2
732.987	1252.33
733.173	1240.05
733.359	1260.52
733.545	1342.44
733.731	1268.72
733.917	1336.3
734.103	1260.52
734.289	1285.1
734.475	1211.37
734.661	1219.57
734.847	1197.04
735.033	1190.89
735.219	1235.95
735.404	1174.51
735.59	1164.27
735.776	1096.69
735.962	1225.71
736.148	1225.71
736.333	1287.15
736.519	1199.09
736.705	1246.19
736.89	1219.57
737.076	1162.22
737.262	1170.41
737.447	1248.24
737.633	1248.24
737.819	1244.14
738.004	1211.37
738.19	1184.75
738.375	1221.61
738.561	1129.45
738.747	1180.65
738.932	1162.22
739.118	1174.51
739.303	1248.24
739.489	1186.8
739.674	1084.4
739.859	1092.59
740.045	1111.02
740.23	1117.17
740.416	1057.78
740.601	1203.18
740.786	1162.22
740.972	1149.93
741.157	1078.26
741.342	1137.65
741.528	1088.5
741.713	1141.74
741.898	1002.48
742.084	1137.65
742.269	1072.11
742.454	1129.45
742.639	1053.68
742.824	1051.63
743.01	1045.49
743.195	1078.26
743.38	1043.44
743.565	1027.06
743.75	1156.08
743.935	1045.49
744.12	1145.84
744.305	1061.87
744.49	1098.74
744.675	990.19
744.86	1051.63
745.045	1047.54
745.23	1022.96
745.415	949.23
745.6	1080.3
745.785	895.99
745.97	1059.82
746.155	1008.62
746.34	1016.82
746.525	1086.45
746.71	969.71
746.895	936.95
747.079	900.08
747.264	943.09
747.449	902.13
747.634	934.9
747.819	982
748.003	893.94
748.188	863.22
748.373	967.67
748.557	959.47
748.742	834.55
748.927	850.93
749.111	885.75
749.296	887.79
749.481	865.27
749.665	836.6
749.85	820.21
750.034	859.12
750.219	861.17
750.404	754.68
750.588	848.88
750.773	787.44
750.957	889.84
751.141	861.17
751.326	822.26
751.51	746.48
751.695	781.3
751.879	814.07
752.064	775.16
752.248	850.93
752.432	855.03
752.617	809.97
752.801	809.97
752.985	756.72
753.17	793.59
753.354	840.69
753.538	812.02
753.722	752.63
753.907	740.34
754.091	740.34
754.275	779.25
754.459	666.61
754.643	666.61
754.828	697.33
755.012	771.06
755.196	664.57
755.38	752.63
755.564	791.54
755.748	728.05
755.932	738.29
756.116	762.87
756.3	695.29
756.484	646.13
756.668	639.99
756.852	584.7
757.036	680.95
757.22	615.41
757.404	613.37
757.588	607.22
757.772	680.95
757.956	594.93
758.14	660.47
758.323	580.6
758.507	629.75
758.691	629.75
758.875	556.02
759.059	594.93
759.242	531.45
759.426	621.56
759.61	644.09
759.794	556.02
759.977	664.57
760.161	572.41
760.345	736.24
760.528	670.71
760.712	594.93
760.895	584.7
761.079	545.78
761.263	461.82
761.446	500.73
761.63	513.02
761.813	662.52
761.997	527.35
762.18	558.07
762.364	580.6
762.547	523.26
762.731	525.3
762.914	517.11
763.098	525.3
763.281	502.78
763.464	533.5
763.648	416.76
763.831	588.79
764.015	498.68
764.198	506.87
764.381	451.58
764.564	541.69
764.748	433.15
764.931	605.17
765.114	568.31
765.297	529.4
765.481	490.49
765.664	465.91
765.847	488.44
766.03	551.93
766.213	424.95
766.397	500.73
766.58	500.73
766.763	494.58
766.946	445.43
767.129	527.35
767.312	470.01
767.495	551.93
767.678	441.34
767.861	465.91
768.044	459.77
768.227	445.43
768.41	441.34
768.593	545.78
768.776	461.82
768.959	369.66
769.142	506.87
769.324	427
769.507	451.58
769.69	543.74
769.873	416.76
770.056	490.49
770.239	449.53
770.421	490.49
770.604	508.92
770.787	398.33
770.97	406.52
771.152	470.01
771.335	490.49
771.518	535.54
771.7	488.44
771.883	490.49
772.066	461.82
772.248	336.89
772.431	494.58
772.613	412.67
772.796	441.34
772.978	396.28
773.161	451.58
773.343	353.27
773.526	429.05
773.708	404.47
773.891	408.57
774.073	343.03
774.256	404.47
774.438	437.24
774.621	400.38
774.803	379.9
774.985	400.38
775.168	383.99
775.35	433.15
775.532	455.67
775.715	359.42
775.897	347.13
776.079	343.03
776.261	357.37
776.444	334.84
776.626	406.52
776.808	338.94
776.99	291.84
777.173	324.6
777.355	377.85
777.537	314.36
777.719	338.94
777.901	322.56
778.083	328.7
778.265	328.7
778.447	424.95
778.629	246.78
778.811	345.08
778.993	259.07
779.175	271.36
779.357	244.73
779.539	279.55
779.721	347.13
779.903	287.74
780.085	330.75
780.267	386.04
780.449	287.74
780.631	285.69
780.812	246.78
780.994	289.79
781.176	230.4
781.358	306.17
781.54	236.54
781.721	316.41
781.903	332.79
782.085	336.89
782.267	224.25
782.448	218.11
782.63	357.37
782.812	318.46
782.993	291.84
783.175	312.32
783.357	279.55
783.538	275.45
783.72	259.07
783.901	285.69
784.083	222.2
784.264	265.21
784.446	228.35
784.627	162.81
784.809	252.92
784.99	220.16
785.172	179.2
785.353	277.5
785.535	285.69
785.716	214.01
785.897	181.25
786.079	195.58
786.26	171.01
786.441	269.31
786.623	142.33
786.804	132.09
786.985	195.58
787.167	283.64
787.348	244.73
787.529	289.79
787.71	162.81
787.891	195.58
788.073	216.06
788.254	121.85
788.435	158.72
788.616	214.01
788.797	236.54
788.978	187.39
789.159	228.35
789.34	195.58
789.522	175.1
789.703	156.67
789.884	211.96
790.065	275.45
790.246	236.54
790.427	250.88
790.607	222.2
790.788	234.49
790.969	177.15
791.15	209.92
791.331	146.43
791.512	263.16
791.693	193.53
791.874	48.13
792.054	166.91
792.235	146.43
792.416	173.05
792.597	140.29
792.778	146.43
792.958	138.24
793.139	162.81
793.32	171.01
793.5	162.81
793.681	287.74
793.862	207.87
794.042	111.61
794.223	39.94
794.404	138.24
794.584	130.05
794.765	123.9
794.945	203.77
795.126	177.15
795.306	158.72
795.487	252.92
795.667	113.66
795.848	220.16
796.028	84.99
796.209	134.14
796.389	111.61
796.57	162.81
796.75	103.42
796.93	179.2
797.111	101.37
797.291	164.86
797.471	117.76
797.652	154.62
797.832	35.84
798.012	164.86
798.192	99.33
798.373	148.48
798.553	115.71
798.733	125.95
798.913	101.37
799.093	91.13
799.274	154.62
799.454	168.96
799.634	138.24
799.814	130.05
799.994	173.05
800.174	46.08
800.354	199.68
800.534	15.36
800.714	115.71
800.894	82.94
801.074	93.18
801.254	60.42
801.434	195.58
801.614	78.85
801.794	103.42
801.974	713.72
802.154	142.33
802.334	50.18
802.514	179.2
802.693	117.76
802.873	78.85
803.053	216.06
803.233	97.28
803.413	168.96
803.592	105.47
803.772	50.18
803.952	115.71
804.131	19.46
804.311	74.75
804.491	95.23
804.67	142.33
804.85	74.75
805.03	72.7
805.209	175.1
805.389	146.43
805.568	99.33
805.748	76.8
805.928	62.46
806.107	109.57
806.287	93.18
806.466	1.02
806.646	82.94
806.825	95.23
807.004	46.08
807.184	35.84
807.363	109.57
807.543	177.15
807.722	56.32
807.901	29.7
808.081	115.71
808.26	21.5
808.439	66.56
808.619	97.28
808.798	82.94
808.977	21.5
809.156	117.76
809.336	60.42
809.515	125.95
809.694	93.18
809.873	-1.02
810.052	48.13
810.231	101.37
810.411	76.8
810.59	123.9
810.769	7.17
810.948	111.61
811.127	-3.07
811.306	27.65
811.485	107.52
811.664	64.51
811.843	60.42
812.022	89.09
812.201	1.02
812.38	113.66
812.559	56.32
812.737	101.37
812.916	-11.26
813.095	76.8
813.274	91.13
813.453	123.9
813.632	56.32
813.811	37.89
813.989	66.56
814.168	119.81
814.347	58.37
814.526	105.47
814.704	48.13
814.883	107.52
815.062	76.8
815.24	82.94
815.419	44.03
815.598	74.75
815.776	17.41
815.955	84.99
816.133	-23.55
816.312	76.8
816.49	15.36
816.669	78.85
816.847	-23.55
817.026	107.52
817.204	74.75
817.383	84.99
817.561	15.36
817.74	39.94
817.918	99.33
818.097	52.22
818.275	29.7
818.453	3.07
818.632	74.75
818.81	84.99
818.988	89.09
819.167	27.65
819.345	37.89
819.523	-9.22
819.701	56.32
819.879	23.55
820.058	21.5
820.236	50.18
820.414	-3.07
820.592	70.65
820.77	52.22
820.948	48.13
821.127	39.94
821.305	31.74
821.483	27.65
821.661	82.94
821.839	1.02
822.017	3.07
822.195	-13.31
822.373	39.94
822.551	7.17
822.729	39.94
822.907	76.8
823.085	140.29
823.262	101.37
823.44	70.65
823.618	-9.22
823.796	-1.02
823.974	50.18
824.152	64.51
824.329	-58.37
824.507	64.51
824.685	29.7
824.863	11.26
825.04	31.74
825.218	-35.84
825.396	70.65
825.574	56.32
825.751	72.7
825.929	128
826.107	-37.89
826.284	80.89
826.462	19.46
826.639	-54.27
826.817	37.89
826.994	-17.41
827.172	3.07
827.349	138.24
827.527	48.13
827.704	31.74
827.882	37.89
828.059	15.36
828.237	15.36
828.414	21.5
828.591	21.5
828.769	9.22
828.946	-13.31
829.124	35.84
829.301	-1.02
829.478	-5.12
829.655	101.37
829.833	23.55
830.01	46.08
830.187	25.6
830.364	-50.18
830.542	-58.37
830.719	109.57
830.896	29.7
831.073	31.74
831.25	66.56
831.427	-11.26
831.604	-29.7
831.782	-25.6
831.959	66.56
832.136	29.7
832.313	39.94
832.49	-68.61
832.667	33.79
832.844	17.41
833.021	33.79
833.198	-29.7
833.374	37.89
833.551	-21.5
833.728	-58.37
833.905	35.84
834.082	-80.89
834.259	7.17
834.436	66.56
834.612	46.08
834.789	48.13
834.966	29.7
835.143	31.74
835.319	-37.89
835.496	60.42
835.673	-46.08
835.85	35.84
836.026	11.26
836.203	29.7
836.38	9.22
836.556	-54.27
836.733	-33.79
836.909	130.05
837.086	3.07
837.262	-58.37
837.439	25.6
837.616	-17.41
837.792	17.41
837.968	107.52
838.145	-23.55
838.321	72.7
838.498	89.09
838.674	35.84
838.851	76.8
839.027	17.41
839.203	-13.31
839.38	46.08
839.556	29.7
839.732	3.07
839.909	19.46
840.085	-35.84
840.261	54.27
840.437	31.74
840.614	15.36
840.79	37.89
840.966	11.26
841.142	82.94
841.318	-56.32
841.494	95.23
841.671	13.31
841.847	7.17
842.023	19.46
842.199	-62.46
842.375	-15.36
842.551	-48.13
842.727	-15.36
842.903	11.26
843.079	-56.32
843.255	66.56
843.431	-78.85
843.607	56.32
843.783	-7.17
843.959	17.41
844.134	15.36
844.31	91.13
844.486	-41.98
844.662	5.12
844.838	23.55
845.013	-87.04
845.189	-58.37
845.365	66.56
845.541	-15.36
845.716	-15.36
845.892	-11.26
846.068	-37.89
846.244	-31.74
846.419	15.36
846.595	-74.75
846.77	-25.6
846.946	15.36
847.122	-70.65
847.297	-39.94
847.473	76.8
847.648	-54.27
847.824	44.03
847.999	-3.07
848.175	-3.07
848.35	35.84
848.526	74.75
848.701	-1.02
848.876	23.55
849.052	25.6
849.227	17.41
849.403	-5.12
849.578	-11.26
849.753	19.46
849.929	58.37
850.104	-9.22
850.279	3.07
850.454	3.07
850.63	-13.31
850.805	-21.5
850.98	-46.08
851.155	27.65
851.33	54.27
851.505	-9.22
851.681	44.03
851.856	-113.66
852.031	-21.5
852.206	19.46
852.381	-25.6
852.556	-54.27
852.731	19.46
852.906	-11.26
853.081	-15.36
853.256	-13.31
853.431	11.26
853.606	-74.75
853.781	48.13
853.956	-41.98
854.131	15.36
854.305	-33.79
854.48	-23.55
854.655	-37.89
854.83	-56.32
855.005	-46.08
855.18	128
855.354	-15.36
855.529	31.74
855.704	-17.41
855.879	-54.27
856.053	-37.89
856.228	-7.17
856.403	-48.13
856.577	1.02
856.752	-19.46
856.926	44.03
857.101	-60.42
857.276	-21.5
857.45	19.46
857.625	-25.6
857.799	23.55
857.974	-74.75
858.148	-82.94
858.323	-5.12
858.497	-17.41
858.672	19.46
858.846	-19.46
859.02	-25.6
859.195	-15.36
859.369	-31.74
859.543	3.07
859.718	-31.74
859.892	-37.89
860.066	23.55
860.241	-99.33
860.415	23.55
860.589	-1.02
860.763	-7.17
860.938	-33.79
861.112	-17.41
861.286	-7.17
861.46	-19.46
861.634	-21.5
861.808	-17.41
861.982	-11.26
862.157	37.89
862.331	23.55
862.505	-17.41
862.679	-105.47
862.853	-15.36
863.027	-46.08
863.201	-37.89
863.375	-27.65
863.549	-23.55
863.722	-31.74
863.896	37.89
864.07	19.46
864.244	-5.12
864.418	31.74
864.592	17.41
864.766	-46.08
864.939	25.6
865.113	-76.8
865.287	130.05
865.461	-23.55
865.634	-68.61
865.808	-15.36
865.982	-21.5
866.156	-9.22
866.329	-64.51
866.503	-33.79
866.676	-29.7
866.85	-64.51
867.024	-37.89
867.197	-46.08
867.371	7.17
867.544	-17.41
867.718	-39.94
867.891	-11.26
868.065	-52.22
868.238	-13.31
868.412	1.02
868.585	-72.7
868.759	39.94
868.932	25.6
869.105	-123.9
869.279	-37.89
869.452	33.79
869.625	27.65
869.799	48.13
869.972	-87.04
870.145	-23.55
870.319	31.74
870.492	-37.89
870.665	-11.26
870.838	25.6
871.011	-72.7
871.185	-9.22
871.358	-56.32
871.531	13.31
871.704	9.22
871.877	-48.13
872.05	1.02
872.223	23.55
872.396	-7.17
872.569	-17.41
872.742	-54.27
872.915	87.04
873.088	-41.98
873.261	-23.55
873.434	13.31
873.607	44.03
873.78	-25.6
873.953	-74.75
874.126	-101.37
874.299	-21.5
874.471	-82.94
874.644	-41.98
874.817	23.55
874.99	-46.08
875.163	-5.12
875.335	13.31
875.508	29.7
875.681	66.56
875.853	-54.27
876.026	-31.74
876.199	-13.31
876.371	-27.65
876.544	-5.12
876.717	-56.32
876.889	-70.65
877.062	-9.22
877.234	-68.61
877.407	-87.04
877.579	-5.12
877.752	15.36
877.924	-13.31
878.097	72.7
878.269	-9.22
878.442	-3.07
878.614	-21.5
878.786	-50.18
878.959	-60.42
879.131	-35.84
879.303	-52.22
879.476	-56.32
879.648	33.79
879.82	-9.22
879.993	-9.22
880.165	-58.37
880.337	-99.33
880.509	-7.17
880.681	-46.08
880.854	52.22
881.026	41.98
881.198	25.6
881.37	-76.8
881.542	7.17
881.714	-25.6
881.886	-41.98
882.058	-72.7
882.23	13.31
882.402	-50.18
882.574	-39.94
882.746	25.6
882.918	-50.18
883.09	-87.04
883.262	52.22
883.434	-41.98
883.606	-48.13
883.778	-3.07
883.95	15.36
884.122	-37.89
884.293	-29.7
884.465	-31.74
884.637	-39.94
884.809	-33.79
884.98	109.57
885.152	46.08
885.324	-11.26
885.496	-33.79
885.667	-52.22
885.839	-99.33
886.011	39.94
886.182	60.42
886.354	54.27
886.525	3.07
886.697	-9.22
886.869	-48.13
887.04	-9.22
887.212	9.22
887.383	-48.13
887.555	-25.6
887.726	-1.02
887.897	-62.46
888.069	3.07
888.24	7.17
888.412	-1.02
888.583	-7.17
888.754	7.17
888.926	-64.51
889.097	1.02
889.268	-58.37
889.44	44.03
889.611	-15.36
889.782	-105.47
889.953	-58.37
890.125	-46.08
890.296	-39.94
890.467	-58.37
890.638	9.22
890.809	-33.79
890.98	-64.51
891.151	-56.32
891.323	72.7
891.494	-50.18
891.665	-44.03
891.836	-15.36
892.007	-39.94
892.178	-50.18
892.349	19.46
892.52	-58.37
892.691	-35.84
892.862	3.07
893.032	33.79
893.203	-5.12
893.374	35.84
893.545	-1.02
893.716	-33.79
893.887	15.36
894.057	-9.22
894.228	-13.31
894.399	-23.55
894.57	-35.84
894.74	-33.79
894.911	19.46
895.082	-25.6
895.253	-27.65
895.423	-5.12
895.594	-5.12
895.764	27.65
895.935	-123.9
896.106	-33.79
896.276	-41.98
896.447	7.17
896.617	-82.94
896.788	-21.5
896.958	-80.89
897.129	-1.02
897.299	-74.75
897.47	37.89
897.64	-1.02
897.81	-82.94
897.981	46.08
898.151	-48.13
898.322	-46.08
898.492	5.12
898.662	-117.76
898.832	-23.55
899.003	74.75
899.173	-13.31
899.343	-62.46
899.513	-25.6
