Data from USB4F104151__99__13-14-06-823.txt Node

Date: Fri Mar 14 13:14:06 EDT 2025
User: louis
Spectrometer: USB4F10415
Trigger mode: 4
Integration Time (sec): 2.000000E-2
Scans to average: 1
Electric dark correction enabled: true
Nonlinearity correction enabled: false
Boxcar width: 0
XAxis mode: Wavelengths
Number of Pixels in Spectrum: 3648
>>>>>Begin Spectral Data<<<<<
178.204	-100.52
178.424	-100.52
178.644	-100.52
178.864	-135.34
179.084	-77.99
179.304	38.74
179.524	-30.89
179.744	18.26
179.964	20.31
180.184	-6.31
180.404	30.55
180.624	-30.89
180.844	22.36
181.064	-6.31
181.283	30.55
181.503	-61.61
181.723	-24.75
181.943	1.88
182.163	36.69
182.383	-14.51
182.602	94.04
182.822	36.69
183.042	40.79
183.262	-24.75
183.482	34.64
183.701	57.17
183.921	-20.65
184.141	-55.47
184.361	73.56
184.58	-55.47
184.8	-34.99
185.02	-0.17
185.239	85.84
185.459	40.79
185.679	22.36
185.898	20.31
186.118	48.98
186.338	-20.65
186.557	59.22
186.777	40.79
186.997	-0.17
187.216	-8.36
187.436	42.84
187.655	63.32
187.875	46.93
188.095	-28.84
188.314	-12.46
188.534	81.75
188.753	-67.75
188.973	114.52
189.192	69.46
189.412	-12.46
189.631	14.17
189.851	-20.65
190.07	51.03
190.29	-43.18
190.509	-4.27
190.729	48.98
190.948	96.08
191.168	130.9
191.387	130.9
191.607	-32.94
191.826	63.32
192.045	-2.22
192.265	12.12
192.484	38.74
192.704	67.41
192.923	22.36
193.142	-12.46
193.362	28.5
193.581	61.27
193.8	30.55
194.02	12.12
194.239	22.36
194.458	-26.79
194.678	61.27
194.897	30.55
195.116	73.56
195.335	36.69
195.555	-47.27
195.774	-8.36
195.993	20.31
196.212	-49.32
196.432	-77.99
196.651	-12.46
196.87	-22.7
197.089	44.88
197.308	34.64
197.528	32.6
197.747	-45.23
197.966	46.93
198.185	46.93
198.404	-0.17
198.623	-4.27
198.842	65.36
199.062	53.08
199.281	77.65
199.5	-2.22
199.719	94.04
199.938	65.36
200.157	24.4
200.376	102.23
200.595	98.13
200.814	14.17
201.033	-14.51
201.252	10.07
201.471	8.02
201.69	46.93
201.909	48.98
202.128	16.21
202.347	57.17
202.566	24.4
202.785	75.6
203.004	3.93
203.223	53.08
203.442	32.6
203.661	-37.03
203.879	51.03
204.098	100.18
204.317	-18.6
204.536	89.94
204.755	16.21
204.974	-10.41
205.193	-8.36
205.411	10.07
205.63	40.79
205.849	55.12
206.068	-49.32
206.287	10.07
206.505	106.32
206.724	26.45
206.943	-30.89
207.162	46.93
207.381	79.7
207.599	63.32
207.818	-22.7
208.037	-0.17
208.255	-18.6
208.474	-32.94
208.693	26.45
208.911	98.13
209.13	-2.22
209.349	85.84
209.567	63.32
209.786	106.32
210.005	14.17
210.223	-0.17
210.442	-24.75
210.661	24.4
210.879	55.12
211.098	16.21
211.316	40.79
211.535	59.22
211.753	-24.75
211.972	8.02
212.191	-0.17
212.409	1.88
212.628	55.12
212.846	14.17
213.065	57.17
213.283	91.99
213.502	-14.51
213.72	26.45
213.938	44.88
214.157	51.03
214.375	24.4
214.594	20.31
214.812	-32.94
215.031	-14.51
215.249	-22.7
215.467	65.36
215.686	18.26
215.904	75.6
216.122	44.88
216.341	85.84
216.559	-63.66
216.778	-32.94
216.996	44.88
217.214	-14.51
217.432	-6.31
217.651	-41.13
217.869	53.08
218.087	16.21
218.306	10.07
218.524	32.6
218.742	28.5
218.96	16.21
219.179	48.98
219.397	46.93
219.615	55.12
219.833	63.32
220.051	-14.51
220.27	67.41
220.488	28.5
220.706	32.6
220.924	-55.47
221.142	3.93
221.36	22.36
221.578	65.36
221.796	28.5
222.015	30.55
222.233	14.17
222.451	36.69
222.669	-34.99
222.887	40.79
223.105	-49.32
223.323	48.98
223.541	34.64
223.759	83.8
223.977	81.75
224.195	59.22
224.413	18.26
224.631	22.36
224.849	22.36
225.067	32.6
225.285	36.69
225.503	36.69
225.721	-45.23
225.939	8.02
226.157	-41.13
226.375	53.08
226.592	57.17
226.81	46.93
227.028	51.03
227.246	32.6
227.464	34.64
227.682	83.8
227.9	3.93
228.117	10.07
228.335	28.5
228.553	-16.55
228.771	14.17
228.989	-0.17
229.206	89.94
229.424	40.79
229.642	34.64
229.86	-24.75
230.077	-51.37
230.295	48.98
230.513	36.69
230.731	8.02
230.948	16.21
231.166	71.51
231.384	38.74
231.601	42.84
231.819	24.4
232.037	-41.13
232.254	40.79
232.472	1.88
232.689	55.12
232.907	57.17
233.125	-8.36
233.342	-51.37
233.56	-30.89
233.777	8.02
233.995	24.4
234.213	20.31
234.43	5.97
234.648	10.07
234.865	75.6
235.083	46.93
235.3	26.45
235.518	67.41
235.735	53.08
235.953	20.31
236.17	24.4
236.388	-12.46
236.605	-12.46
236.822	51.03
237.04	14.17
237.257	1.88
237.475	-6.31
237.692	65.36
237.909	8.02
238.127	48.98
238.344	48.98
238.562	-2.22
238.779	38.74
238.996	-2.22
239.214	20.31
239.431	65.36
239.648	-18.6
239.865	61.27
240.083	12.12
240.3	38.74
240.517	34.64
240.735	-4.27
240.952	30.55
241.169	36.69
241.386	42.84
241.603	-0.17
241.821	-80.04
242.038	40.79
242.255	3.93
242.472	24.4
242.689	69.46
242.907	8.02
243.124	59.22
243.341	48.98
243.558	3.93
243.775	46.93
243.992	57.17
244.209	1.88
244.426	53.08
244.643	40.79
244.86	-6.31
245.078	48.98
245.295	61.27
245.512	53.08
245.729	1.88
245.946	-20.65
246.163	-18.6
246.38	-32.94
246.597	36.69
246.814	44.88
247.031	-22.7
247.248	8.02
247.464	73.56
247.681	26.45
247.898	77.65
248.115	75.6
248.332	67.41
248.549	24.4
248.766	18.26
248.983	-51.37
249.2	-12.46
249.417	36.69
249.633	-6.31
249.85	34.64
250.067	30.55
250.284	-18.6
250.501	98.13
250.717	75.6
250.934	-28.84
251.151	14.17
251.368	-18.6
251.585	57.17
251.801	-22.7
252.018	48.98
252.235	32.6
252.451	-24.75
252.668	40.79
252.885	42.84
253.102	-10.41
253.318	73.56
253.535	1.88
253.752	81.75
253.968	26.45
254.185	67.41
254.401	-14.51
254.618	26.45
254.835	38.74
255.051	75.6
255.268	-28.84
255.484	12.12
255.701	77.65
255.917	61.27
256.134	-18.6
256.351	-32.94
256.567	14.17
256.784	89.94
257	-12.46
257.217	18.26
257.433	40.79
257.65	16.21
257.866	48.98
258.082	-6.31
258.299	-30.89
258.515	-10.41
258.732	14.17
258.948	5.97
259.165	-8.36
259.381	73.56
259.597	67.41
259.814	73.56
260.03	55.12
260.246	61.27
260.463	81.75
260.679	22.36
260.895	34.64
261.112	10.07
261.328	-39.08
261.544	-32.94
261.761	91.99
261.977	-2.22
262.193	40.79
262.409	79.7
262.626	-8.36
262.842	34.64
263.058	-6.31
263.274	114.52
263.49	-39.08
263.707	149.33
263.923	-14.51
264.139	53.08
264.355	-8.36
264.571	16.21
264.787	42.84
265.004	34.64
265.22	-41.13
265.436	-32.94
265.652	-6.31
265.868	-4.27
266.084	-0.17
266.3	-0.17
266.516	8.02
266.732	48.98
266.948	-65.71
267.164	79.7
267.38	55.12
267.596	16.21
267.812	-26.79
268.028	38.74
268.244	28.5
268.46	55.12
268.676	-32.94
268.892	20.31
269.108	26.45
269.324	16.21
269.54	-55.47
269.756	51.03
269.972	30.55
270.188	26.45
270.403	-41.13
270.619	89.94
270.835	22.36
271.051	48.98
271.267	26.45
271.483	20.31
271.698	-6.31
271.914	28.5
272.13	38.74
272.346	-16.55
272.562	-32.94
272.777	38.74
272.993	16.21
273.209	-47.27
273.425	79.7
273.64	53.08
273.856	-10.41
274.072	91.99
274.287	51.03
274.503	65.36
274.719	91.99
274.934	79.7
275.15	-16.55
275.366	48.98
275.581	-4.27
275.797	36.69
276.012	14.17
276.228	-73.9
276.444	-53.42
276.659	67.41
276.875	-41.13
277.09	75.6
277.306	38.74
277.521	38.74
277.737	3.93
277.952	44.88
278.168	65.36
278.383	-12.46
278.599	-22.7
278.814	104.28
279.03	20.31
279.245	61.27
279.461	34.64
279.676	77.65
279.892	-37.03
280.107	14.17
280.322	-26.79
280.538	-47.27
280.753	-18.6
280.969	91.99
281.184	42.84
281.399	55.12
281.615	-67.75
281.83	-8.36
282.045	-20.65
282.26	-63.66
282.476	40.79
282.691	34.64
282.906	40.79
283.122	40.79
283.337	22.36
283.552	51.03
283.767	18.26
283.983	-41.13
284.198	42.84
284.413	40.79
284.628	-26.79
284.843	-2.22
285.058	48.98
285.274	110.42
285.489	8.02
285.704	5.97
285.919	61.27
286.134	65.36
286.349	-24.75
286.564	1.88
286.779	34.64
286.995	8.02
287.21	-57.51
287.425	5.97
287.64	24.4
287.855	71.51
288.07	-8.36
288.285	65.36
288.5	24.4
288.715	36.69
288.93	44.88
289.145	59.22
289.36	44.88
289.575	-2.22
289.79	-8.36
290.004	24.4
290.219	104.28
290.434	-57.51
290.649	65.36
290.864	34.64
291.079	-22.7
291.294	53.08
291.509	8.02
291.724	-0.17
291.938	-37.03
292.153	5.97
292.368	48.98
292.583	24.4
292.798	114.52
293.012	-2.22
293.227	67.41
293.442	36.69
293.657	8.02
293.871	44.88
294.086	67.41
294.301	69.46
294.516	-24.75
294.73	63.32
294.945	3.93
295.16	24.4
295.374	24.4
295.589	51.03
295.804	48.98
296.018	63.32
296.233	48.98
296.447	18.26
296.662	-39.08
296.877	36.69
297.091	57.17
297.306	-0.17
297.52	18.26
297.735	-24.75
297.949	77.65
298.164	59.22
298.378	-14.51
298.593	10.07
298.807	40.79
299.022	-8.36
299.236	36.69
299.451	-14.51
299.665	38.74
299.88	-8.36
300.094	57.17
300.309	71.51
300.523	30.55
300.737	10.07
300.952	22.36
301.166	40.79
301.381	-49.32
301.595	12.12
301.809	-12.46
302.024	55.12
302.238	-49.32
302.452	169.81
302.667	-4.27
302.881	24.4
303.095	34.64
303.309	42.84
303.524	36.69
303.738	65.36
303.952	120.66
304.166	-8.36
304.381	10.07
304.595	18.26
304.809	-34.99
305.023	94.04
305.237	42.84
305.452	59.22
305.666	30.55
305.88	12.12
306.094	81.75
306.308	73.56
306.522	53.08
306.736	67.41
306.95	-8.36
307.164	46.93
307.379	-30.89
307.593	79.7
307.807	24.4
308.021	14.17
308.235	36.69
308.449	-41.13
308.663	8.02
308.877	96.08
309.091	91.99
309.305	57.17
309.519	-20.65
309.733	34.64
309.947	-67.75
310.161	48.98
310.374	30.55
310.588	24.4
310.802	22.36
311.016	-12.46
311.23	42.84
311.444	-2.22
311.658	-28.84
311.872	40.79
312.085	26.45
312.299	108.37
312.513	-0.17
312.727	63.32
312.941	57.17
313.154	73.56
313.368	46.93
313.582	-0.17
313.796	26.45
314.009	32.6
314.223	28.5
314.437	114.52
314.651	32.6
314.864	46.93
315.078	59.22
315.292	8.02
315.505	14.17
315.719	46.93
315.933	14.17
316.146	40.79
316.36	-8.36
316.573	16.21
316.787	48.98
317.001	-20.65
317.214	51.03
317.428	22.36
317.641	-39.08
317.855	-47.27
318.068	18.26
318.282	51.03
318.495	71.51
318.709	83.8
318.922	-8.36
319.136	65.36
319.349	34.64
319.563	-0.17
319.776	40.79
319.99	10.07
320.203	40.79
320.417	-26.79
320.63	67.41
320.843	61.27
321.057	8.02
321.27	10.07
321.483	-32.94
321.697	77.65
321.91	-49.32
322.124	32.6
322.337	40.79
322.55	16.21
322.763	-10.41
322.977	61.27
323.19	-4.27
323.403	20.31
323.617	94.04
323.83	77.65
324.043	24.4
324.256	83.8
324.469	-10.41
324.683	-34.99
324.896	67.41
325.109	-14.51
325.322	-118.95
325.535	8.02
325.748	-10.41
325.962	124.76
326.175	-28.84
326.388	32.6
326.601	24.4
326.814	-26.79
327.027	73.56
327.24	57.17
327.453	-73.9
327.666	-6.31
327.879	32.6
328.092	14.17
328.305	16.21
328.518	44.88
328.731	44.88
328.944	20.31
329.157	-53.42
329.37	46.93
329.583	77.65
329.796	34.64
330.009	20.31
330.222	32.6
330.435	5.97
330.648	-6.31
330.861	59.22
331.073	-28.84
331.286	104.28
331.499	-12.46
331.712	46.93
331.925	24.4
332.138	34.64
332.35	98.13
332.563	30.55
332.776	34.64
332.989	-34.99
333.202	-22.7
333.414	-2.22
333.627	16.21
333.84	10.07
334.053	85.84
334.265	-24.75
334.478	10.07
334.691	8.02
334.903	85.84
335.116	3.93
335.329	61.27
335.541	106.32
335.754	10.07
335.966	20.31
336.179	8.02
336.392	79.7
336.604	-8.36
336.817	42.84
337.029	32.6
337.242	40.79
337.454	61.27
337.667	30.55
337.88	48.98
338.092	36.69
338.305	65.36
338.517	24.4
338.729	18.26
338.942	108.37
339.154	1.88
339.367	32.6
339.579	18.26
339.792	1.88
340.004	-90.28
340.217	-0.17
340.429	24.4
340.641	14.17
340.854	-6.31
341.066	65.36
341.278	32.6
341.491	48.98
341.703	20.31
341.915	-57.51
342.128	106.32
342.34	28.5
342.552	73.56
342.764	55.12
342.977	75.6
343.189	51.03
343.401	32.6
343.613	-6.31
343.826	12.12
344.038	1.88
344.25	36.69
344.462	73.56
344.674	102.23
344.886	83.8
345.099	71.51
345.311	-43.18
345.523	65.36
345.735	34.64
345.947	-0.17
346.159	20.31
346.371	18.26
346.583	-2.22
346.795	94.04
347.007	-51.37
347.219	73.56
347.431	-55.47
347.643	71.51
347.855	40.79
348.067	-24.75
348.279	-14.51
348.491	71.51
348.703	26.45
348.915	75.6
349.127	63.32
349.339	42.84
349.551	-4.27
349.763	59.22
349.975	-8.36
350.187	53.08
350.399	8.02
350.61	14.17
350.822	3.93
351.034	73.56
351.246	32.6
351.458	-10.41
351.669	12.12
351.881	89.94
352.093	96.08
352.305	38.74
352.517	44.88
352.728	98.13
352.94	61.27
353.152	-4.27
353.363	8.02
353.575	34.64
353.787	36.69
353.999	14.17
354.21	100.18
354.422	18.26
354.633	-65.71
354.845	51.03
355.057	110.42
355.268	24.4
355.48	8.02
355.692	-22.7
355.903	-63.66
356.115	5.97
356.326	-73.9
356.538	85.84
356.749	12.12
356.961	77.65
357.172	12.12
357.384	67.41
357.595	36.69
357.807	3.93
358.018	-8.36
358.23	44.88
358.441	12.12
358.653	-12.46
358.864	22.36
359.075	-0.17
359.287	61.27
359.498	67.41
359.709	24.4
359.921	24.4
360.132	65.36
360.344	53.08
360.555	55.12
360.766	104.28
360.977	51.03
361.189	36.69
361.4	67.41
361.611	89.94
361.823	81.75
362.034	-22.7
362.245	-104.62
362.456	-20.65
362.667	1.88
362.879	-28.84
363.09	63.32
363.301	34.64
363.512	22.36
363.723	5.97
363.935	51.03
364.146	94.04
364.357	34.64
364.568	-20.65
364.779	-12.46
364.99	59.22
365.201	1.88
365.412	28.5
365.623	32.6
365.834	51.03
366.045	30.55
366.256	98.13
366.467	48.98
366.678	-14.51
366.889	16.21
367.1	-20.65
367.311	8.02
367.522	83.8
367.733	1.88
367.944	59.22
368.155	65.36
368.366	32.6
368.577	-26.79
368.788	57.17
368.999	18.26
369.209	-53.42
369.42	96.08
369.631	53.08
369.842	57.17
370.053	59.22
370.264	75.6
370.474	18.26
370.685	-22.7
370.896	87.89
371.107	89.94
371.317	-14.51
371.528	16.21
371.739	130.9
371.95	18.26
372.16	-4.27
372.371	5.97
372.582	114.52
372.792	40.79
373.003	12.12
373.214	16.21
373.424	91.99
373.635	-16.55
373.846	24.4
374.056	36.69
374.267	44.88
374.477	28.5
374.688	8.02
374.898	69.46
375.109	16.21
375.319	-0.17
375.53	32.6
375.74	-6.31
375.951	30.55
376.161	28.5
376.372	48.98
376.582	14.17
376.793	108.37
377.003	-16.55
377.214	-43.18
377.424	42.84
377.635	79.7
377.845	-16.55
378.055	63.32
378.266	24.4
378.476	89.94
378.686	57.17
378.897	-2.22
379.107	-8.36
379.317	34.64
379.528	8.02
379.738	24.4
379.948	48.98
380.158	59.22
380.369	18.26
380.579	73.56
380.789	65.36
380.999	55.12
381.21	32.6
381.42	96.08
381.63	40.79
381.84	55.12
382.05	32.6
382.261	85.84
382.471	53.08
382.681	26.45
382.891	73.56
383.101	59.22
383.311	48.98
383.521	53.08
383.731	16.21
383.941	130.9
384.151	-30.89
384.361	69.46
384.571	42.84
384.781	-6.31
384.991	151.38
385.201	89.94
385.411	65.36
385.621	3.93
385.831	20.31
386.041	12.12
386.251	-39.08
386.461	32.6
386.671	-6.31
386.881	28.5
387.091	83.8
387.301	106.32
387.511	8.02
387.72	89.94
387.93	63.32
388.14	-8.36
388.35	30.55
388.56	73.56
388.769	110.42
388.979	91.99
389.189	-6.31
389.399	14.17
389.609	26.45
389.818	8.02
390.028	-32.94
390.238	46.93
390.447	51.03
390.657	51.03
390.867	18.26
391.076	20.31
391.286	120.66
391.496	69.46
391.705	3.93
391.915	106.32
392.125	38.74
392.334	8.02
392.544	30.55
392.753	38.74
392.963	14.17
393.172	79.7
393.382	91.99
393.591	12.12
393.801	24.4
394.01	100.18
394.22	22.36
394.429	16.21
394.639	51.03
394.848	30.55
395.058	98.13
395.267	36.69
395.477	-18.6
395.686	44.88
395.895	81.75
396.105	128.85
396.314	-6.31
396.524	22.36
396.733	46.93
396.942	36.69
397.152	14.17
397.361	46.93
397.57	91.99
397.78	61.27
397.989	94.04
398.198	124.76
398.407	75.6
398.617	40.79
398.826	55.12
399.035	102.23
399.244	91.99
399.453	59.22
399.663	69.46
399.872	69.46
400.081	104.28
400.29	85.84
400.499	40.79
400.708	98.13
400.917	28.5
401.127	-6.31
401.336	-18.6
401.545	102.23
401.754	106.32
401.963	116.56
402.172	24.4
402.381	32.6
402.59	38.74
402.799	40.79
403.008	94.04
403.217	36.69
403.426	75.6
403.635	18.26
403.844	44.88
404.053	51.03
404.262	34.64
404.471	169.81
404.68	94.04
404.888	112.47
405.097	106.32
405.306	65.36
405.515	155.47
405.724	75.6
405.933	116.56
406.142	89.94
406.35	126.8
406.559	122.71
406.768	120.66
406.977	32.6
407.185	116.56
407.394	165.71
407.603	77.65
407.812	157.52
408.02	155.47
408.229	132.95
408.438	159.57
408.646	139.09
408.855	44.88
409.064	126.8
409.272	126.8
409.481	130.9
409.69	124.76
409.898	110.42
410.107	266.07
410.315	143.19
410.524	159.57
410.733	216.91
410.941	200.53
411.15	173.91
411.358	206.67
411.567	268.11
411.775	212.82
411.984	294.74
412.192	184.15
412.401	245.59
412.609	315.22
412.818	253.78
413.026	315.22
413.234	350.03
413.443	309.07
413.651	323.41
413.86	272.21
414.068	364.37
414.276	356.18
414.485	345.94
414.693	448.33
414.901	434
415.11	413.52
415.318	438.09
415.526	390.99
415.734	499.53
415.943	411.47
416.151	472.91
416.359	376.66
416.567	483.15
416.776	597.84
416.984	452.43
417.192	585.55
417.4	513.87
417.608	462.67
417.817	524.11
418.025	520.01
418.233	640.84
418.441	632.65
418.649	665.42
418.857	747.34
419.065	671.56
419.273	737.1
419.481	841.54
419.689	845.64
419.897	831.3
420.105	819.02
420.313	837.45
420.521	943.94
420.729	927.56
420.937	853.83
421.145	982.85
421.353	1021.77
421.561	1083.2
421.769	1019.72
421.977	1253.19
422.185	1158.98
422.393	1228.61
422.601	1206.08
422.809	1269.57
423.017	1265.47
423.224	1359.68
423.432	1427.26
423.64	1427.26
423.848	1623.87
424.056	1486.65
424.263	1539.9
424.471	1601.34
424.679	1615.68
424.887	1658.68
425.094	1886.01
425.302	1765.18
425.51	1824.57
425.718	1894.2
425.925	1996.6
426.133	1892.15
426.341	2174.77
426.548	2146.1
426.756	2113.33
426.964	2152.24
427.171	2385.71
427.379	2430.77
427.586	2449.2
427.794	2443.06
428.001	2654
428.209	2688.81
428.417	2662.19
428.624	2864.94
428.832	2928.42
429.039	2899.75
429.247	2944.81
429.454	3030.82
429.662	3370.79
429.869	3260.2
430.076	3464.99
430.284	3280.68
430.491	3407.65
430.699	3508
430.906	3639.07
431.114	3745.56
431.321	3847.96
431.528	3823.39
431.736	4108.05
431.943	4294.42
432.15	4185.88
432.358	4177.69
432.565	4572.94
432.772	4435.73
432.979	4677.39
433.187	4917
433.394	4822.8
433.601	5058.31
433.808	4980.49
434.016	5023.5
434.223	5465.86
434.43	5652.22
434.637	5304.07
434.844	5934.84
435.052	5852.92
435.259	6041.34
435.466	6072.06
435.673	5934.84
435.88	6344.44
436.087	6717.17
436.294	6620.91
436.501	6610.67
436.708	6586.1
436.915	6932.2
437.122	7069.42
437.329	7100.14
437.537	7472.87
437.743	7431.91
437.95	7683.81
438.157	7880.41
438.364	8077.02
438.571	8046.3
438.778	8148.7
438.985	9080.52
439.192	8648.4
439.399	8830.67
439.606	8621.78
439.813	9160.39
440.02	9830.08
440.227	9490.12
440.433	9373.38
440.64	9719.49
440.847	9854.65
441.054	9946.81
441.261	10565.3
441.467	10624.69
441.674	10651.31
441.881	11148.97
442.088	11087.53
442.294	10843.82
442.501	11294.38
442.708	11599.52
442.914	11820.7
443.121	12287.64
443.328	12015.26
443.534	12988.05
443.741	12523.16
443.948	12414.62
444.154	13377.16
444.361	13459.08
444.568	13237.9
444.774	13473.42
444.981	13614.73
445.187	14012.03
445.394	14413.43
445.6	14304.89
445.807	15859.3
446.013	15052.4
446.22	15300.2
446.426	15785.57
446.633	16174.69
446.839	16571.99
447.046	15814.24
447.252	16909.91
447.459	16969.3
447.665	16909.91
447.871	17698.38
448.078	18206.27
448.284	17163.86
448.491	18091.59
448.697	18669.11
448.903	18835
449.11	18941.49
449.316	18916.92
449.522	18929.2
449.728	19584.55
449.935	19785.26
450.141	19627.56
450.347	20391.45
450.553	19400.24
450.76	19942.95
450.966	20456.99
451.172	20239.9
451.378	20755.99
451.584	20532.76
451.791	21188.11
451.997	20923.93
452.203	21483.02
452.409	21317.14
452.615	21564.94
452.821	20514.33
453.027	20299.3
453.233	21483.02
453.44	20930.07
453.646	20755.99
453.852	20846.1
454.058	21349.9
454.264	20760.09
454.47	21038.61
454.676	20389.41
454.882	21181.97
455.088	19748.39
455.294	20033.06
455.5	20110.88
455.705	20205.09
455.911	19381.81
456.117	19144.24
456.323	19103.28
456.529	17931.84
456.735	18583.1
456.941	18257.47
457.147	17677.9
457.352	17466.95
457.558	17063.5
457.764	17382.99
457.97	16993.87
458.176	16473.69
458.381	16399.96
458.587	15717.99
458.793	15603.3
458.999	14825.08
459.204	16154.21
459.41	15621.73
459.616	14659.19
459.821	14607.99
460.027	14573.17
460.233	14265.98
460.438	13790.85
460.644	13840
460.85	12988.05
461.055	12787.35
461.261	12881.55
461.466	11681.44
461.672	11329.19
461.878	12562.07
462.083	11527.85
462.289	11112.11
462.494	11120.3
462.7	10585.78
462.905	10413.75
463.111	10653.36
463.316	10698.42
463.522	10544.82
463.727	10698.42
463.932	10352.31
464.138	10225.34
464.343	10534.58
464.549	10094.27
464.754	10467
464.959	10378.93
465.165	10260.15
465.37	10002.11
465.575	9588.42
465.781	9993.92
465.986	9952.96
466.191	9608.9
466.397	9574.08
466.602	9002.7
466.807	9494.21
467.012	9205.45
467.218	9322.18
467.423	9144.01
467.628	9318.09
467.833	9696.96
468.038	9328.33
468.244	9004.75
468.449	9572.04
468.654	9242.31
468.859	8976.08
469.064	9117.39
469.269	8822.48
469.474	8609.49
469.679	8957.64
469.885	8640.21
470.09	8777.42
470.295	8732.37
470.5	8306.39
470.705	8382.17
470.91	8306.39
471.115	8330.97
471.32	8462.04
471.525	8351.45
471.73	8138.46
471.935	8091.35
472.139	7812.83
472.344	8019.67
472.549	7833.31
472.754	7923.42
472.959	7614.18
473.164	7436
473.369	7464.68
473.574	7655.14
473.778	7669.47
473.983	7456.48
474.188	7448.29
474.393	7161.58
474.598	7118.57
474.802	7046.89
475.007	7028.46
475.212	7159.53
475.417	6891.24
475.621	6901.48
475.826	6952.68
476.031	6684.4
476.235	6670.06
476.44	6670.06
476.645	6653.68
476.849	6557.43
477.054	6557.43
477.259	6381.3
477.463	6305.53
477.668	6305.53
477.872	6295.29
478.077	6166.26
478.282	6127.35
478.486	6178.55
478.691	6090.49
478.895	5996.28
479.1	6020.86
479.304	5889.79
479.509	5748.48
479.713	5715.71
479.918	5654.27
480.122	5580.54
480.326	5754.62
480.531	5646.08
480.735	5717.76
480.94	5590.78
481.144	5648.13
481.348	5474.05
481.553	5586.69
481.757	5416.71
481.961	5515.01
482.166	5621.5
482.37	5621.5
482.574	5283.59
482.778	5426.95
482.983	5652.22
483.187	5486.34
483.391	5480.19
483.595	5441.28
483.8	5517.06
484.004	5545.73
484.208	5537.54
484.412	5377.8
484.616	5574.4
484.821	5418.75
485.025	5547.78
485.229	5426.95
485.433	5408.51
485.637	5379.84
485.841	5308.16
486.045	5418.75
486.249	5506.82
486.453	5320.45
486.657	5539.58
486.861	5488.39
487.065	5285.64
487.269	5504.77
487.473	5545.73
487.677	5560.06
487.881	5598.98
488.085	5261.06
488.289	5449.47
488.493	5474.05
488.697	5478.15
488.901	5355.27
489.105	5367.56
489.309	5420.8
489.512	5547.78
489.716	5478.15
489.92	5345.03
490.124	5529.34
490.328	5719.81
490.531	5555.97
490.735	5603.07
490.939	5574.4
491.143	5500.67
491.346	5594.88
491.55	5818.11
491.754	5646.08
491.958	5746.43
492.161	5660.41
492.365	5809.92
492.569	5572.35
492.772	5728
492.976	5756.67
493.18	5783.29
493.383	5742.33
493.587	5910.27
493.79	6006.52
493.994	5922.55
494.197	5914.36
494.401	6045.43
494.605	5926.65
494.808	6326
495.012	6233.85
495.215	6201.08
495.419	6469.36
495.622	6170.36
495.825	6158.07
496.029	6233.85
496.232	6579.95
496.436	6366.96
496.639	6561.52
496.843	6477.55
497.046	6778.61
497.249	6790.89
497.453	6622.96
497.656	7014.12
497.859	6901.48
498.063	6921.96
498.266	7089.9
498.469	7007.98
498.673	7018.22
498.876	7200.49
499.079	7208.68
499.282	7309.03
499.485	7401.19
499.689	7552.74
499.892	7440.1
500.095	7540.45
500.298	7655.14
500.501	7685.86
500.705	7937.76
500.908	7939.8
501.111	8093.4
501.314	8013.53
501.517	8183.51
501.72	8281.81
501.923	8384.21
502.126	8439.51
502.329	8707.79
502.532	8656.59
502.735	8756.94
502.938	8810.19
503.141	8857.29
503.344	9180.87
503.547	8931.02
503.75	9187.02
503.953	9318.09
504.156	9270.98
504.359	9412.29
504.562	9586.37
504.765	9955.01
504.968	9735.87
505.17	9883.33
505.373	10022.59
505.576	10268.34
505.779	10442.42
505.982	10387.13
506.185	10581.68
506.387	10501.81
506.59	10677.94
506.793	10710.71
506.996	10825.39
507.198	11140.78
507.401	11187.88
507.604	11267.75
507.807	11404.97
508.009	11312.81
508.212	11544.23
508.415	11667.11
508.617	11935.39
508.82	11894.43
509.022	11814.56
509.225	12287.64
509.428	12283.55
509.63	12359.32
509.833	12443.29
510.035	12676.76
510.238	12840.59
510.44	12957.33
510.643	13196.94
510.845	12906.13
511.048	13059.73
511.25	13305.48
511.453	13440.65
511.655	14061.18
511.858	13721.22
512.06	13903.49
512.262	14007.94
512.465	13936.26
512.667	14403.19
512.87	14573.17
513.072	14474.87
513.274	14679.67
513.477	14581.37
513.679	14786.16
513.881	15275.63
514.084	15124.08
514.286	15371.88
514.488	15353.45
514.69	16100.96
514.893	15853.16
515.095	15973.99
515.297	16232.03
515.499	16285.28
515.701	16117.34
515.904	16643.67
516.106	16711.25
516.308	16746.07
516.51	17227.34
516.712	17262.16
516.914	17188.43
517.116	17534.54
517.318	17645.13
517.52	17735.24
517.722	17690.18
517.925	18005.57
518.127	18122.3
518.329	18380.35
518.531	18314.81
518.733	18757.18
518.935	18658.87
519.136	18748.98
519.338	19342.89
519.54	19103.28
519.742	19510.83
519.944	19476.01
520.146	19650.09
520.348	19881.51
520.55	19865.13
520.752	19908.13
520.954	20577.82
521.155	20338.21
521.357	20940.31
521.559	20649.5
521.761	20985.37
521.963	21222.93
522.164	21014.04
522.366	21394.96
522.568	21337.62
522.77	21540.36
522.971	22060.55
523.173	21736.97
523.375	22142.47
523.576	22408.7
523.778	22070.79
523.98	22347.26
524.181	22648.32
524.383	22552.06
524.584	22885.88
524.786	23027.19
524.988	23043.57
525.189	23160.31
525.391	23434.74
525.592	23506.41
525.794	23617
525.995	23559.66
526.197	23946.73
526.398	23907.82
526.6	23981.54
526.801	24372.71
527.003	24196.58
527.204	24172
527.406	24735.2
527.607	24395.23
527.808	24296.93
528.01	24272.35
528.211	24458.72
528.412	25214.42
528.614	24917.47
528.815	24882.65
529.016	25130.45
529.218	25103.83
529.419	25167.32
529.62	25157.08
529.822	25179.61
530.023	25062.87
530.224	25413.07
530.425	25294.29
530.626	25306.58
530.828	24849.88
531.029	25841.1
531.23	25474.51
531.431	25546.19
531.632	25478.61
531.833	25679.31
532.035	25607.63
532.236	25669.07
532.437	25791.95
532.638	25757.13
532.839	25978.31
533.04	26125.77
533.241	26058.18
533.442	26230.21
533.643	26207.69
533.844	26103.24
534.045	26193.35
534.246	25785.8
534.447	25994.7
534.648	25996.74
534.849	26353.09
535.05	25902.54
535.251	25941.45
535.451	26230.21
535.652	26303.94
535.853	26217.93
536.054	26154.44
536.255	26344.9
536.456	25894.35
536.657	26191.3
536.857	26179.01
537.058	25955.79
537.259	26340.8
537.46	26422.72
537.66	26357.19
537.861	26240.45
538.062	25849.29
538.263	26226.12
538.463	26054.09
538.664	26379.71
538.865	26551.74
539.065	26803.64
539.266	26148.29
539.466	26533.31
539.667	25847.24
539.868	26609.09
540.068	26058.18
540.269	26246.6
540.469	26213.83
540.67	26224.07
540.87	26385.86
541.071	26193.35
541.271	26054.09
541.472	26031.56
541.672	26029.51
541.873	25794
542.073	25867.72
542.274	26183.11
542.474	26267.08
542.675	25953.74
542.875	26322.37
543.075	26107.33
543.276	25996.74
543.476	26228.17
543.676	26119.62
543.877	26070.47
544.077	26215.88
544.277	26068.42
544.478	26203.59
544.678	25966.03
544.878	26080.71
545.078	26076.62
545.279	25732.56
545.479	26033.61
545.679	26021.32
545.879	26222.02
546.079	26074.57
546.28	26121.67
546.48	25884.11
546.68	26070.47
546.88	26338.76
547.08	25996.74
547.28	25677.26
547.48	25802.19
547.68	26066.38
547.88	25724.36
548.081	25857.48
548.281	25896.39
548.481	25935.31
548.681	26201.54
548.881	26041.8
549.081	25875.91
549.28	26002.89
549.48	26150.34
549.68	26002.89
549.88	26346.95
550.08	25767.37
550.28	25884.11
550.48	25826.76
550.68	26283.46
550.88	25812.43
551.08	25775.56
551.279	25974.22
551.479	25445.84
551.679	25961.93
551.879	25718.22
552.079	25736.65
552.278	25853.39
552.478	25644.49
552.678	25703.89
552.878	25726.41
553.077	25538
553.277	25544.14
553.477	25857.48
553.676	25568.72
553.876	25523.66
554.076	25675.21
554.275	25675.21
554.475	25640.4
554.674	25673.17
554.874	25538
555.074	25818.57
555.273	25507.28
555.473	25880.01
555.672	25566.67
555.872	25460.18
556.071	25632.21
556.271	25875.91
556.47	25329.11
556.67	25050.58
556.869	25478.61
557.068	25277.91
557.268	25337.3
557.467	25028.06
557.667	25083.35
557.866	24913.37
558.065	25284.05
558.265	24911.32
558.464	25105.88
558.663	25443.79
558.863	24849.88
559.062	25161.17
559.261	24800.73
559.461	25097.69
559.66	24827.35
559.859	24862.17
560.058	24305.12
560.258	24821.21
560.457	24514.02
560.656	24655.33
560.855	24626.65
561.054	24759.77
561.253	24514.02
561.453	24509.92
561.652	24454.62
561.851	24346.08
562.05	24172
562.249	24047.08
562.448	24428
562.647	24520.16
562.846	24329.7
563.045	24116.71
563.244	23889.38
563.443	24143.33
563.642	23719.4
563.841	24055.27
564.04	23655.92
564.239	23617
564.438	23885.29
564.637	23864.81
564.836	23873
565.035	23711.21
565.234	23545.33
565.432	23487.98
565.631	23520.75
565.83	23743.98
566.029	23604.72
566.228	23397.87
566.427	23148.02
566.625	22949.37
566.824	22828.54
567.023	23158.26
567.222	22787.58
567.42	23328.24
567.619	23010.81
567.818	22965.75
568.016	23010.81
568.215	22943.22
568.414	22773.24
568.612	23008.76
568.811	22738.43
569.01	22601.21
569.208	22453.76
569.407	22771.19
569.605	22316.54
569.804	22402.56
570.002	22318.59
570.201	22590.97
570.4	22179.33
570.598	22052.36
570.797	21929.48
570.995	22052.36
571.193	21712.39
571.392	22101.51
571.59	21691.91
571.789	21792.26
571.987	21749.26
572.186	21933.57
572.384	21566.99
572.582	21761.55
572.781	21786.12
572.979	21278.22
573.177	21698.06
573.376	21761.55
573.574	21364.24
573.772	21231.12
573.971	21208.59
574.169	20901.4
574.367	20893.21
574.565	21202.45
574.763	20823.58
574.962	21083.67
575.16	20837.91
575.358	20985.37
575.556	20497.95
575.754	20901.4
575.952	20463.13
576.151	20753.94
576.349	20432.41
576.547	20295.2
576.745	20669.98
576.943	20755.99
577.141	20227.62
577.339	20405.79
577.537	20110.88
577.735	20162.08
577.933	19928.61
578.131	20239.9
578.329	19965.48
578.527	19801.64
578.725	20184.61
578.923	20162.08
579.121	19795.5
579.319	19711.53
579.516	19897.89
579.714	19697.19
579.912	19602.99
580.11	19828.26
580.308	19564.07
580.506	19465.77
580.704	19277.36
580.901	19699.24
581.099	19607.08
581.297	19240.5
581.495	19129.91
581.692	19439.15
581.89	19080.75
582.088	19285.55
582.285	18906.68
582.483	19074.61
582.681	19332.65
582.878	18832.95
583.076	18734.65
583.274	18818.61
583.471	18753.08
583.669	18667.06
583.866	18615.87
584.064	18521.66
584.262	18583.1
584.459	18652.73
584.657	18470.46
584.854	18396.73
585.052	18083.39
585.249	18454.08
585.447	18236.99
585.644	17987.14
585.841	18226.75
586.039	18456.12
586.236	17747.53
586.434	18173.5
586.631	17970.76
586.828	18163.26
587.026	17952.32
587.223	17966.66
587.42	17686.09
587.618	17827.4
587.815	17509.96
588.012	17600.07
588.21	17544.78
588.407	17690.18
588.604	17299.02
588.801	17219.15
588.999	17485.39
589.196	17389.13
589.393	17129.04
589.59	17350.22
589.787	17313.36
589.984	17325.64
590.182	17032.79
590.379	17114.7
590.576	16991.83
590.773	16922.2
590.97	16770.65
591.167	17063.5
591.364	16758.36
591.561	16920.15
591.758	16596.57
591.955	16500.31
592.152	16795.22
592.349	16373.34
592.546	16557.66
592.743	16451.16
592.94	16289.37
593.137	16598.62
593.334	16524.89
593.531	16143.97
593.727	16739.93
593.924	16123.49
594.121	16385.63
594.318	16189.02
594.515	16016.99
594.712	16215.65
594.908	16105.06
595.105	15838.82
595.302	15906.4
595.499	15920.74
595.696	16060
595.892	15443.56
596.089	15838.82
596.286	15693.41
596.482	15595.11
596.679	15644.26
596.876	15664.74
597.072	15406.7
597.269	15437.42
597.466	15179.37
597.662	15253.1
597.859	15378.03
598.055	15289.96
598.252	15392.36
598.448	14972.53
598.645	14829.17
598.841	15036.02
599.038	15005.3
599.234	14990.96
599.431	15093.36
599.627	14995.06
599.824	14859.89
600.02	14892.66
600.217	15015.54
600.413	14861.94
600.609	14751.35
600.806	14657.14
601.002	14694.01
601.198	14659.19
601.395	14395
601.591	14517.88
601.787	14616.18
601.984	14374.52
602.18	14589.56
602.376	14184.06
602.572	14272.12
602.769	14284.41
602.965	14495.35
603.161	14124.67
603.357	14130.81
603.553	13817.47
603.75	13942.4
603.946	14327.42
604.142	13903.49
604.338	13872.77
604.534	13653.64
604.73	13659.78
604.926	13688.45
605.122	13794.95
605.318	13692.55
605.514	13416.07
605.71	13448.84
605.906	13553.29
606.102	13497.99
606.298	13594.25
606.494	13473.42
606.69	13375.11
606.886	13434.5
607.082	13282.95
607.278	13323.91
607.474	13094.54
607.67	13244.04
607.866	13125.26
608.062	13094.54
608.257	13049.49
608.453	13067.92
608.649	13119.12
608.845	12953.23
609.041	12902.03
609.236	13266.57
609.432	12938.9
609.628	13018.77
609.824	12973.71
610.019	12906.13
610.215	12861.07
610.411	13020.81
610.606	12625.56
610.802	12709.52
610.998	12646.04
611.193	12904.08
611.389	12635.8
611.584	12756.63
611.78	12539.54
611.976	12768.91
612.171	12830.35
612.367	12621.46
612.562	12324.51
612.758	12504.73
612.953	12457.62
613.149	12506.77
613.344	12363.42
613.539	12467.86
613.735	12322.46
613.93	12529.3
614.126	12383.9
614.321	12502.68
614.517	12422.81
614.712	12183.2
614.907	12144.28
615.103	12369.56
615.298	12101.28
615.493	12381.85
615.688	12140.19
615.884	12299.93
616.079	12078.75
616.274	11910.82
616.47	11953.82
616.665	12023.45
616.86	12146.33
617.055	12007.07
617.25	11888.29
617.445	11835.04
617.641	11882.14
617.836	11853.47
618.031	11759.27
618.226	11830.94
618.421	11837.09
618.616	11888.29
618.811	11626.15
619.006	11837.09
619.201	11413.16
619.396	11583.14
619.591	11636.39
619.786	11560.61
619.981	11429.54
620.176	11441.83
620.371	11490.98
620.566	11372.2
620.761	11177.64
620.956	11355.82
621.151	11052.72
621.346	11120.3
621.541	10872.5
621.735	11189.93
621.93	11001.52
622.125	10974.89
622.32	10774.19
622.515	10639.03
622.709	10886.83
622.904	10653.36
623.099	10632.88
623.294	10700.47
623.488	10362.55
623.683	10563.25
623.878	10438.33
624.072	10505.91
624.267	10391.22
624.462	10278.58
624.656	10055.36
624.851	10198.71
625.046	10182.33
625.24	10047.16
625.435	9998.01
625.629	10069.69
625.824	9987.77
626.018	9895.61
626.213	9586.37
626.407	9750.21
626.602	9699.01
626.796	9633.47
626.991	9651.91
627.185	9475.78
627.38	9633.47
627.574	9383.62
627.768	9422.53
627.963	9434.82
628.157	9268.94
628.352	9260.74
628.546	9080.52
628.74	9150.15
628.935	9072.33
629.129	9158.35
629.323	9062.09
629.517	8986.32
629.712	9131.72
629.906	8883.92
630.1	8709.84
630.294	8881.87
630.489	8777.42
630.683	8732.37
630.877	8423.12
631.071	8625.87
631.265	8560.34
631.459	8554.19
631.653	8339.16
631.848	8484.56
632.042	8388.31
632.236	8328.92
632.43	8404.69
632.624	8199.9
632.818	8240.86
633.012	8173.27
633.206	8179.42
633.4	8097.5
633.594	7904.99
633.788	7861.98
633.982	8017.63
634.176	8062.68
634.369	7896.8
634.563	7847.65
634.757	7782.11
634.951	7800.54
635.145	7872.22
635.339	7765.73
635.533	7732.96
635.726	7902.94
635.92	7603.94
636.114	7567.07
636.308	7571.17
636.501	7474.92
636.695	7499.49
636.889	7345.89
637.083	7431.91
637.276	7315.17
637.47	7347.94
637.664	7249.64
637.857	7143.14
638.051	7282.41
638.244	7192.3
638.438	7036.65
638.632	7153.38
638.825	6817.52
639.019	6850.28
639.212	6797.04
639.406	6842.09
639.599	7003.88
639.793	6858.48
639.986	6809.33
640.18	6733.55
640.373	6741.74
640.567	6618.86
640.76	6629.1
640.954	6635.25
641.147	6663.92
641.34	6741.74
641.534	6627.06
641.727	6397.68
641.92	6321.91
642.114	6487.79
642.307	6307.57
642.5	6348.53
642.694	6403.83
642.887	6276.85
643.08	6389.49
643.273	6164.22
643.467	6229.75
643.66	6227.7
643.853	6127.35
644.046	6106.87
644.239	6239.99
644.432	5973.75
644.626	6020.86
644.819	6002.43
645.012	5967.61
645.205	5996.28
645.398	5996.28
645.591	5873.4
645.784	5951.23
645.977	5930.75
646.17	5875.45
646.363	5678.85
646.556	5627.65
646.749	5705.47
646.942	5734.14
647.135	5529.34
647.328	5619.46
647.521	5629.7
647.714	5598.98
647.907	5676.8
648.099	5361.41
648.292	5359.36
648.485	5474.05
648.678	5388.04
648.871	5271.3
649.064	5277.44
649.256	5181.19
649.449	5302.02
649.642	5267.2
649.835	5013.26
650.027	5218.05
650.22	5181.19
650.413	5136.13
650.605	5250.82
650.798	5023.5
650.991	4790.03
651.183	5039.88
651.376	5000.97
651.568	5021.45
651.761	4964.11
651.954	5013.26
652.146	5078.79
652.339	4853.52
652.531	4892.43
652.724	4792.08
652.916	4581.14
653.109	4591.38
653.301	4738.83
653.494	4722.45
653.686	4706.06
653.879	4910.86
654.071	4593.42
654.263	4536.08
654.456	4693.77
654.648	4736.78
654.84	4691.73
655.033	4450.07
655.225	4521.74
655.417	4529.94
655.61	4468.5
655.802	4372.24
655.994	4445.97
656.186	4419.35
656.379	4370.19
656.571	4331.28
656.763	4302.61
656.955	4212.5
657.148	4304.66
657.34	4210.45
657.532	4333.33
657.724	4319
657.916	4294.42
658.108	4228.88
658.3	4198.17
658.492	4241.17
658.684	4097.81
658.876	4136.73
659.068	4253.46
659.26	4056.86
659.452	4101.91
659.644	3847.96
659.836	3942.17
660.028	4097.81
660.22	4028.18
660.412	3778.33
660.604	3952.41
660.796	3839.77
660.988	4007.7
661.18	3876.63
661.372	3770.14
661.563	3780.38
661.755	3796.76
661.947	3852.06
662.139	3684.13
662.331	3757.85
662.522	3761.95
662.714	3720.99
662.906	3571.49
663.097	3749.66
663.289	3712.8
663.481	3575.58
663.673	3673.89
663.864	3528.48
664.056	3643.17
664.247	3557.15
664.439	3514.14
664.631	3489.57
664.822	3448.61
665.014	3604.25
665.205	3489.57
665.397	3421.99
665.588	3469.09
665.78	3405.6
665.971	3405.6
666.163	3342.11
666.354	3413.79
666.546	3350.31
666.737	3301.15
666.929	3452.7
667.12	3399.46
667.311	3317.54
667.503	3374.88
667.694	3190.56
667.885	3303.2
668.077	3301.15
668.268	3223.33
668.459	3348.26
668.651	3196.71
668.842	3344.16
669.033	3104.55
669.224	3055.4
669.416	3258.15
669.607	3268.39
669.798	3204.9
669.989	3151.65
670.18	3045.16
670.371	3043.11
670.563	2975.53
670.754	3039.01
670.945	3030.82
671.136	3075.88
671.327	2893.61
671.518	3063.59
671.709	3079.97
671.9	3016.49
672.091	3149.61
672.282	2899.75
672.473	2985.77
672.664	2969.38
672.855	3030.82
673.046	3067.69
673.237	3010.34
673.428	2981.67
673.619	2993.96
673.809	2938.66
674	2877.23
674.191	2940.71
674.382	2770.73
674.573	2922.28
674.764	2791.21
674.954	2883.37
675.145	2901.8
675.336	2950.95
675.527	2795.31
675.717	2770.73
675.908	2838.31
676.099	2801.45
676.289	2848.55
676.48	2729.77
676.671	2748.2
676.861	2893.61
677.052	2740.01
677.243	2682.67
677.433	2647.85
677.624	2805.55
677.814	2715.44
678.005	2731.82
678.195	2678.57
678.386	2686.76
678.576	2703.15
678.767	2688.81
678.957	2639.66
679.148	2758.44
679.338	2774.83
679.529	2752.3
679.719	2610.99
679.909	2680.62
680.1	2524.97
680.29	2580.27
680.481	2613.04
680.671	2660.14
680.861	2629.42
681.052	2578.22
681.242	2715.44
681.432	2748.2
681.622	2613.04
681.813	2629.42
682.003	2527.02
682.193	2625.33
682.383	2719.53
682.573	2531.12
682.764	2613.04
682.954	2617.13
683.144	2547.5
683.334	2486.06
683.524	2578.22
683.714	2529.07
683.904	2699.05
684.094	2541.36
684.284	2668.33
684.474	2588.46
684.664	2613.04
684.854	2506.54
685.044	2547.5
685.234	2520.88
685.424	2502.45
685.614	2469.68
685.804	2512.69
685.994	2529.07
686.184	2641.71
686.374	2531.12
686.564	2504.5
686.753	2537.26
686.943	2471.73
687.133	2395.95
687.323	2443.06
687.513	2383.66
687.702	2385.71
687.892	2381.62
688.082	2357.04
688.272	2330.42
688.461	2359.09
688.651	2514.73
688.841	2363.19
689.03	2318.13
689.22	2424.62
689.41	2314.03
689.599	2283.31
689.789	2260.79
689.979	2334.51
690.168	2209.59
690.358	2213.68
690.547	2291.51
690.737	2350.9
690.926	2225.97
691.116	2309.94
691.305	2293.55
691.495	2318.13
691.684	2207.54
691.874	2211.64
692.063	2219.83
692.252	2232.12
692.442	2197.3
692.631	2109.24
692.82	2228.02
693.01	2228.02
693.199	2121.52
693.388	2244.4
693.578	2039.61
693.767	2074.42
693.956	2017.08
694.146	2090.81
694.335	2064.18
694.524	2146.1
694.713	2142
694.902	2045.75
695.092	2033.46
695.281	2039.61
695.47	2053.94
695.659	2080.57
695.848	2092.85
696.037	2010.93
696.226	2074.42
696.415	2053.94
696.604	2053.94
696.793	2010.93
696.982	1969.98
697.171	1982.26
697.36	1943.35
697.549	2000.69
697.738	2029.37
697.927	2064.18
698.116	2023.22
698.305	1912.63
698.494	1947.45
698.683	1988.41
698.872	2039.61
699.061	1984.31
699.25	1955.64
699.438	1978.17
699.627	1931.06
699.816	2002.74
700.005	2000.69
700.193	1943.35
700.382	2010.93
700.571	1980.22
700.76	1951.54
700.948	2021.17
701.137	1998.65
701.326	1967.93
701.514	1967.93
701.703	1949.5
701.892	1998.65
702.08	1918.78
702.269	1961.78
702.457	1984.31
702.646	1881.91
702.834	2004.79
703.023	1972.02
703.212	1888.06
703.4	2041.65
703.589	1912.63
703.777	1818.43
703.965	1826.62
704.154	1904.44
704.342	1908.54
704.531	1892.15
704.719	1847.1
704.907	1914.68
705.096	1984.31
705.284	1957.69
705.472	1963.83
705.661	1896.25
705.849	1947.45
706.037	1873.72
706.226	1863.48
706.414	1877.82
706.602	1994.55
706.79	1843
706.979	1926.97
707.167	1886.01
707.355	1888.06
707.543	1949.5
707.731	1949.5
707.919	1883.96
708.107	1851.19
708.296	1982.26
708.484	1959.74
708.672	1969.98
708.86	1941.3
709.048	1869.62
709.236	1916.73
709.424	1949.5
709.612	2039.61
709.8	1910.58
709.988	1984.31
710.176	1933.11
710.364	1857.34
710.551	1822.52
710.739	1879.86
710.927	1988.41
711.115	1953.59
711.303	2023.22
711.491	2000.69
711.679	1797.95
711.866	1990.45
712.054	2010.93
712.242	1916.73
712.43	2027.32
712.617	1853.24
712.805	2041.65
712.993	1859.38
713.181	1871.67
713.368	1855.29
713.556	1922.87
713.744	1857.34
713.931	1957.69
714.119	1877.82
714.306	1902.39
714.494	1955.64
714.682	1941.3
714.869	1875.77
715.057	1947.45
715.244	1902.39
715.432	1967.93
715.619	1859.38
715.807	2031.41
715.994	1988.41
716.182	1914.68
716.369	1967.93
716.556	1982.26
716.744	1916.73
716.931	1974.07
717.119	1957.69
717.306	1961.78
717.493	2015.03
717.681	2033.46
717.868	1986.36
718.055	2033.46
718.242	2047.8
718.43	2137.91
718.617	2072.37
718.804	1965.88
718.991	2060.09
719.179	2066.23
719.366	2006.84
719.553	2066.23
719.74	2023.22
719.927	2043.7
720.114	2058.04
720.301	2055.99
720.488	2039.61
720.676	2027.32
720.863	1990.45
721.05	2041.65
721.237	1994.55
721.424	1922.87
721.611	2041.65
721.798	1998.65
721.985	2019.13
722.172	2123.57
722.358	2025.27
722.545	2035.51
722.732	2027.32
722.919	2125.62
723.106	2041.65
723.293	2004.79
723.48	2080.57
723.667	2017.08
723.853	2090.81
724.04	1990.45
724.227	2060.09
724.414	2006.84
724.6	1992.5
724.787	2021.17
724.974	1990.45
725.161	2041.65
725.347	1886.01
725.534	1955.64
725.72	2017.08
725.907	2117.43
726.094	2010.93
726.28	2070.33
726.467	2035.51
726.653	1992.5
726.84	2109.24
727.027	2070.33
727.213	1986.36
727.4	2133.81
727.586	2039.61
727.773	2021.17
727.959	1941.3
728.145	2033.46
728.332	1978.17
728.518	1974.07
728.705	2000.69
728.891	1969.98
729.077	2109.24
729.264	2031.41
729.45	1965.88
729.636	2146.1
729.823	2076.47
730.009	2012.98
730.195	2076.47
730.382	2072.37
730.568	2082.61
730.754	2099
730.94	2060.09
731.126	2185.01
731.313	2047.8
731.499	1951.54
731.685	1978.17
731.871	2058.04
732.057	2088.76
732.243	2195.25
732.429	2148.15
732.615	2023.22
732.801	2055.99
732.987	1974.07
733.173	1986.36
733.359	2131.76
733.545	1992.5
733.731	1953.59
733.917	2025.27
734.103	1967.93
734.289	2055.99
734.475	2015.03
734.661	2096.95
734.847	2008.89
735.033	2023.22
735.219	2017.08
735.404	2074.42
735.59	2101.05
735.776	1978.17
735.962	1920.82
736.148	2035.51
736.333	2111.29
736.519	2053.94
736.705	2041.65
736.89	2111.29
737.076	2076.47
737.262	2037.56
737.447	1955.64
737.633	2096.95
737.819	2076.47
738.004	2035.51
738.19	2033.46
738.375	2051.89
738.561	2099
738.747	2055.99
738.932	1947.45
739.118	1978.17
739.303	2035.51
739.489	2029.37
739.674	2021.17
739.859	1933.11
740.045	2015.03
740.23	1953.59
740.416	1920.82
740.601	1959.74
740.786	1922.87
740.972	1918.78
741.157	1949.5
741.342	1953.59
741.528	1883.96
741.713	1838.91
741.898	1937.21
742.084	1912.63
742.269	1875.77
742.454	1949.5
742.639	2004.79
742.824	1795.9
743.01	1851.19
743.195	1855.29
743.38	1883.96
743.565	1951.54
743.75	1822.52
743.935	1816.38
744.12	2037.56
744.305	1873.72
744.49	1771.32
744.675	1896.25
744.86	1793.85
745.045	1767.23
745.23	1859.38
745.415	1748.79
745.6	1793.85
745.785	1810.23
745.97	1754.94
746.155	1716.03
746.34	1851.19
746.525	1728.31
746.71	1814.33
746.895	1818.43
747.079	1722.17
747.264	1744.7
747.449	1713.98
747.634	1888.06
747.819	1769.27
748.003	1748.79
748.188	1627.96
748.373	1587.01
748.557	1576.77
748.742	1589.05
748.927	1554.24
749.111	1681.21
749.296	1658.68
749.481	1597.24
749.665	1617.72
749.85	1603.39
750.034	1527.61
750.219	1541.95
750.404	1640.25
750.588	1546.05
750.773	1421.12
750.957	1525.57
751.141	1498.94
751.326	1560.38
751.51	1482.56
751.695	1437.5
751.879	1437.5
752.064	1378.11
752.248	1414.98
752.432	1490.75
752.617	1476.41
752.801	1421.12
752.985	1414.98
753.17	1457.98
753.354	1367.87
753.538	1421.12
753.722	1400.64
753.907	1333.06
754.091	1341.25
754.275	1382.21
754.459	1267.52
754.643	1335.1
754.828	1298.24
755.012	1365.82
755.196	1335.1
755.38	1337.15
755.564	1220.42
755.748	1228.61
755.932	1300.29
756.116	1288
756.3	1331.01
756.484	1312.58
756.668	1318.72
756.852	1275.71
757.036	1253.19
757.22	1214.27
757.404	1265.47
757.588	1136.45
757.772	1103.68
757.956	1195.84
758.14	1142.6
758.323	1228.61
758.507	1224.51
758.691	1113.92
758.875	1072.96
759.059	1191.75
759.242	1204.03
759.426	1066.82
759.61	1124.16
759.794	1122.12
759.977	1132.36
760.161	1105.73
760.345	1093.44
760.528	1150.79
760.712	1075.01
760.895	1130.31
761.079	1044.29
761.263	1056.58
761.446	1091.4
761.63	1083.2
761.813	1083.2
761.997	1007.43
762.18	927.56
762.364	1101.64
762.547	945.99
762.731	958.28
762.914	999.24
763.098	915.27
763.281	890.7
763.464	1003.33
763.648	1017.67
763.831	989
764.015	933.7
764.198	950.09
764.381	907.08
764.564	1013.57
764.748	900.94
764.931	921.42
765.114	978.76
765.297	919.37
765.481	853.83
765.664	915.27
765.847	1007.43
766.03	941.89
766.213	862.02
766.397	888.65
766.58	954.18
766.763	884.55
766.946	874.31
767.129	857.93
767.312	833.35
767.495	900.94
767.678	841.54
767.861	827.21
768.044	950.09
768.227	911.18
768.41	792.39
768.593	765.77
768.776	880.46
768.959	872.26
769.142	833.35
769.324	909.13
769.507	759.63
769.69	859.98
769.873	868.17
770.056	880.46
770.239	876.36
770.421	853.83
770.604	831.3
770.787	810.82
770.97	776.01
771.152	864.07
771.335	843.59
771.518	765.77
771.7	718.67
771.883	786.25
772.066	726.86
772.248	831.3
772.431	859.98
772.613	827.21
772.796	665.42
772.978	757.58
773.161	847.69
773.343	720.71
773.526	728.91
773.708	773.96
773.891	739.15
774.073	773.96
774.256	753.48
774.438	802.63
774.621	712.52
774.803	681.8
774.985	692.04
775.168	661.32
775.35	614.22
775.532	771.91
775.715	671.56
775.897	720.71
776.079	675.66
776.261	630.6
776.444	671.56
776.626	702.28
776.808	651.08
776.99	575.31
777.173	663.37
777.355	681.8
777.537	618.32
777.719	655.18
777.901	685.9
778.083	642.89
778.265	587.6
778.447	579.4
778.629	587.6
778.811	655.18
778.993	612.17
779.175	587.6
779.357	614.22
779.539	601.93
779.721	626.51
779.903	622.41
780.085	593.74
780.267	538.45
780.449	513.87
780.631	565.07
780.812	509.77
780.994	481.1
781.176	507.73
781.358	597.84
781.54	427.85
781.721	507.73
781.903	546.64
782.085	429.9
782.267	632.65
782.448	491.34
782.63	464.72
782.812	548.68
782.993	384.85
783.175	485.2
783.357	528.21
783.538	470.86
783.72	513.87
783.901	479.05
784.083	593.74
784.264	466.77
784.446	466.77
784.627	438.09
784.809	436.05
784.99	442.19
785.172	421.71
785.353	446.29
785.535	401.23
785.716	427.85
785.897	356.18
786.079	442.19
786.26	411.47
786.441	370.51
786.623	393.04
786.804	366.42
786.985	397.14
787.167	399.18
787.348	419.66
787.529	390.99
787.71	470.86
787.891	401.23
788.073	378.7
788.254	421.71
788.435	360.27
788.616	339.79
788.797	311.12
788.978	374.61
789.159	352.08
789.34	382.8
789.522	321.36
789.703	393.04
789.884	321.36
790.065	321.36
790.246	368.46
790.427	278.35
790.607	452.43
790.788	411.47
790.969	311.12
791.15	261.97
791.331	311.12
791.512	360.27
791.693	331.6
791.874	337.74
792.054	370.51
792.235	378.7
792.416	311.12
792.597	294.74
792.778	298.83
792.958	307.02
793.139	294.74
793.32	284.5
793.5	292.69
793.681	253.78
793.862	247.63
794.042	388.94
794.223	243.54
794.404	296.78
794.584	208.72
794.765	247.63
794.945	221.01
795.126	347.98
795.306	261.97
795.487	272.21
795.667	335.7
795.848	282.45
796.028	290.64
796.209	247.63
796.389	274.26
796.57	296.78
796.75	257.87
796.93	225.11
797.111	178
797.291	245.59
797.471	225.11
797.652	341.84
797.832	358.22
798.012	241.49
798.192	206.67
798.373	198.48
798.553	204.63
798.733	196.43
798.913	286.54
799.093	184.15
799.274	294.74
799.454	247.63
799.634	188.24
799.814	276.31
799.994	304.98
800.174	192.34
800.354	184.15
800.534	194.39
800.714	278.35
800.894	227.15
801.074	141.14
801.254	237.39
801.434	196.43
801.614	214.87
801.794	229.2
801.974	616.27
802.154	247.63
802.334	221.01
802.514	196.43
802.693	196.43
802.873	257.87
803.053	184.15
803.233	221.01
803.413	270.16
803.592	249.68
803.772	223.06
803.952	190.29
804.131	100.18
804.311	165.71
804.491	192.34
804.67	139.09
804.85	145.24
805.03	210.77
805.209	171.86
805.389	182.1
805.568	196.43
805.748	184.15
805.928	221.01
806.107	153.43
806.287	221.01
806.466	190.29
806.646	204.63
806.825	118.61
807.004	118.61
807.184	214.87
807.363	143.19
807.543	157.52
807.722	83.8
807.901	149.33
808.081	151.38
808.26	149.33
808.439	204.63
808.619	100.18
808.798	182.1
808.977	132.95
809.156	186.19
809.336	167.76
809.515	163.67
809.694	173.91
809.873	196.43
810.052	227.15
810.231	120.66
810.411	206.67
810.59	139.09
810.769	161.62
810.948	130.9
811.127	165.71
811.306	145.24
811.485	165.71
811.664	139.09
811.843	87.89
812.022	151.38
812.201	126.8
812.38	153.43
812.559	194.39
812.737	61.27
812.916	96.08
813.095	139.09
813.274	79.7
813.453	106.32
813.632	169.81
813.811	196.43
813.989	165.71
814.168	155.47
814.347	155.47
814.526	155.47
814.704	94.04
814.883	116.56
815.062	184.15
815.24	147.28
815.419	130.9
815.598	155.47
815.776	124.76
815.955	130.9
816.133	65.36
816.312	202.58
816.49	87.89
816.669	120.66
816.847	130.9
817.026	194.39
817.204	124.76
817.383	108.37
817.561	69.46
817.74	65.36
817.918	126.8
818.097	98.13
818.275	79.7
818.453	180.05
818.632	91.99
818.81	102.23
818.988	153.43
819.167	135
819.345	163.67
819.523	137.04
819.701	40.79
819.879	155.47
820.058	106.32
820.236	118.61
820.414	126.8
820.592	102.23
820.77	98.13
820.948	118.61
821.127	182.1
821.305	151.38
821.483	116.56
821.661	79.7
821.839	40.79
822.017	130.9
822.195	120.66
822.373	112.47
822.551	48.98
822.729	46.93
822.907	110.42
823.085	81.75
823.262	137.04
823.44	69.46
823.618	114.52
823.796	89.94
823.974	22.36
824.152	81.75
824.329	83.8
824.507	141.14
824.685	128.85
824.863	77.65
825.04	98.13
825.218	108.37
825.396	75.6
825.574	114.52
825.751	57.17
825.929	132.95
826.107	57.17
826.284	69.46
826.462	108.37
826.639	44.88
826.817	24.4
826.994	51.03
827.172	73.56
827.349	139.09
827.527	30.55
827.704	16.21
827.882	46.93
828.059	57.17
828.237	69.46
828.414	167.76
828.591	59.22
828.769	55.12
828.946	26.45
829.124	81.75
829.301	71.51
829.478	155.47
829.655	149.33
829.833	81.75
830.01	73.56
830.187	63.32
830.364	65.36
830.542	135
830.719	122.71
830.896	184.15
831.073	110.42
831.25	141.14
831.427	75.6
831.604	67.41
831.782	28.5
831.959	122.71
832.136	-2.22
832.313	75.6
832.49	12.12
832.667	100.18
832.844	51.03
833.021	155.47
833.198	124.76
833.374	96.08
833.551	44.88
833.728	98.13
833.905	36.69
834.082	71.51
834.259	40.79
834.436	73.56
834.612	12.12
834.789	42.84
834.966	67.41
835.143	53.08
835.319	1.88
835.496	98.13
835.673	124.76
835.85	53.08
836.026	81.75
836.203	65.36
836.38	10.07
836.556	100.18
836.733	75.6
836.909	65.36
837.086	-4.27
837.262	94.04
837.439	48.98
837.616	67.41
837.792	77.65
837.968	91.99
838.145	67.41
838.321	77.65
838.498	98.13
838.674	96.08
838.851	36.69
839.027	116.56
839.203	38.74
839.38	85.84
839.556	63.32
839.732	28.5
839.909	48.98
840.085	89.94
840.261	61.27
840.437	98.13
840.614	44.88
840.79	96.08
840.966	-26.79
841.142	30.55
841.318	18.26
841.494	71.51
841.671	-6.31
841.847	51.03
842.023	77.65
842.199	59.22
842.375	48.98
842.551	91.99
842.727	30.55
842.903	100.18
843.079	42.84
843.255	71.51
843.431	28.5
843.607	79.7
843.783	57.17
843.959	102.23
844.134	28.5
844.31	180.05
844.486	53.08
844.662	-8.36
844.838	30.55
845.013	20.31
845.189	-8.36
845.365	20.31
845.541	38.74
845.716	73.56
845.892	69.46
846.068	67.41
846.244	22.36
846.419	114.52
846.595	16.21
846.77	10.07
846.946	102.23
847.122	-57.51
847.297	8.02
847.473	98.13
847.648	-30.89
847.824	122.71
847.999	-43.18
848.175	-37.03
848.35	42.84
848.526	69.46
848.701	106.32
848.876	40.79
849.052	83.8
849.227	-8.36
849.403	-2.22
849.578	61.27
849.753	46.93
849.929	81.75
850.104	-63.66
850.279	32.6
850.454	20.31
850.63	32.6
850.805	67.41
850.98	30.55
851.155	38.74
851.33	28.5
851.505	-18.6
851.681	63.32
851.856	-30.89
852.031	44.88
852.206	87.89
852.381	8.02
852.556	118.61
852.731	61.27
852.906	8.02
853.081	-57.51
853.256	16.21
853.431	53.08
853.606	-12.46
853.781	20.31
853.956	-37.03
854.131	16.21
854.305	83.8
854.48	-18.6
854.655	-20.65
854.83	73.56
855.005	67.41
855.18	63.32
855.354	-18.6
855.529	-14.51
855.704	-39.08
855.879	61.27
856.053	32.6
856.228	-24.75
856.403	10.07
856.577	16.21
856.752	20.31
856.926	-8.36
857.101	44.88
857.276	-10.41
857.45	98.13
857.625	53.08
857.799	28.5
857.974	16.21
858.148	-39.08
858.323	34.64
858.497	-43.18
858.672	69.46
858.846	-14.51
859.02	100.18
859.195	32.6
859.369	32.6
859.543	20.31
859.718	73.56
859.892	-22.7
860.066	51.03
860.241	22.36
860.415	-0.17
860.589	26.45
860.763	16.21
860.938	53.08
861.112	65.36
861.286	30.55
861.46	85.84
861.634	-51.37
861.808	-24.75
861.982	48.98
862.157	46.93
862.331	-18.6
862.505	-53.42
862.679	32.6
862.853	32.6
863.027	51.03
863.201	98.13
863.375	-8.36
863.549	-6.31
863.722	44.88
863.896	-47.27
864.07	75.6
864.244	-12.46
864.418	40.79
864.592	-24.75
864.766	5.97
864.939	14.17
865.113	94.04
865.287	59.22
865.461	20.31
865.634	98.13
865.808	63.32
865.982	-4.27
866.156	8.02
866.329	-12.46
866.503	42.84
866.676	30.55
866.85	-55.47
867.024	14.17
867.197	91.99
867.371	55.12
867.544	18.26
867.718	-24.75
867.891	-24.75
868.065	16.21
868.238	32.6
868.412	65.36
868.585	10.07
868.759	12.12
868.932	-0.17
869.105	28.5
869.279	-61.61
869.452	26.45
869.625	36.69
869.799	12.12
869.972	30.55
870.145	16.21
870.319	14.17
870.492	53.08
870.665	30.55
870.838	-34.99
871.011	-49.32
871.185	-10.41
871.358	-32.94
871.531	16.21
871.704	-88.23
871.877	-0.17
872.05	-2.22
872.223	-45.23
872.396	53.08
872.569	81.75
872.742	-4.27
872.915	55.12
873.088	-8.36
873.261	28.5
873.434	-43.18
873.607	104.28
873.78	79.7
873.953	-37.03
874.126	3.93
874.299	59.22
874.471	79.7
874.644	10.07
874.817	67.41
874.99	24.4
875.163	-24.75
875.335	42.84
875.508	14.17
875.681	32.6
875.853	5.97
876.026	3.93
876.199	3.93
876.371	22.36
876.544	16.21
876.717	-16.55
876.889	-16.55
877.062	16.21
877.234	-8.36
877.407	-22.7
877.579	-32.94
877.752	30.55
877.924	20.31
878.097	61.27
878.269	-22.7
878.442	67.41
878.614	-63.66
878.786	12.12
878.959	98.13
879.131	-4.27
879.303	12.12
879.476	1.88
879.648	-2.22
879.82	1.88
879.993	22.36
880.165	3.93
880.337	-30.89
880.509	-12.46
880.681	-55.47
880.854	-0.17
881.026	98.13
881.198	96.08
881.37	59.22
881.542	-0.17
881.714	34.64
881.886	-30.89
882.058	8.02
882.23	55.12
882.402	65.36
882.574	-14.51
882.746	24.4
882.918	-24.75
883.09	-18.6
883.262	30.55
883.434	-49.32
883.606	-24.75
883.778	12.12
883.95	57.17
884.122	-22.7
884.293	26.45
884.465	-34.99
884.637	32.6
884.809	-4.27
884.98	-57.51
885.152	8.02
885.324	-2.22
885.496	-39.08
885.667	42.84
885.839	-49.32
886.011	83.8
886.182	18.26
886.354	44.88
886.525	-6.31
886.697	-39.08
886.869	-57.51
887.04	24.4
887.212	32.6
887.383	40.79
887.555	59.22
887.726	3.93
887.897	-67.75
888.069	42.84
888.24	38.74
888.412	10.07
888.583	-24.75
888.754	40.79
888.926	-114.86
889.097	-14.51
889.268	-41.13
889.44	-14.51
889.611	26.45
889.782	42.84
889.953	20.31
890.125	100.18
890.296	40.79
890.467	-0.17
890.638	-2.22
890.809	-28.84
890.98	-37.03
891.151	59.22
891.323	-39.08
891.494	-6.31
891.665	26.45
891.836	20.31
892.007	12.12
892.178	42.84
892.349	20.31
892.52	-32.94
892.691	48.98
892.862	-18.6
893.032	-18.6
893.203	32.6
893.374	-4.27
893.545	59.22
893.716	-53.42
893.887	18.26
894.057	-45.23
894.228	38.74
894.399	-45.23
894.57	10.07
894.74	-24.75
894.911	1.88
895.082	16.21
895.253	110.42
895.423	-39.08
895.594	79.7
895.764	1.88
895.935	46.93
896.106	-24.75
896.276	1.88
896.447	-12.46
896.617	3.93
896.788	-53.42
896.958	-45.23
897.129	-41.13
897.299	-0.17
897.47	-4.27
897.64	40.79
897.81	-16.55
897.981	51.03
898.151	-22.7
898.322	59.22
898.492	1.88
898.662	44.88
898.832	16.21
899.003	48.98
899.173	42.84
899.343	36.69
899.513	89.94
