Data from USB4F104151__61__13-11-58-696.txt Node

Date: Fri Mar 14 13:11:58 EDT 2025
User: louis
Spectrometer: USB4F10415
Trigger mode: 4
Integration Time (sec): 2.000000E-2
Scans to average: 1
Electric dark correction enabled: true
Nonlinearity correction enabled: false
Boxcar width: 0
XAxis mode: Wavelengths
Number of Pixels in Spectrum: 3648
>>>>>Begin Spectral Data<<<<<
178.204	-114.34
178.424	-114.34
178.644	-114.34
178.864	-93.87
179.084	-110.25
179.304	14.68
179.524	-11.95
179.744	6.49
179.964	74.07
180.184	67.92
180.404	10.58
180.624	-5.8
180.844	16.73
181.064	-110.25
181.283	-24.23
181.503	41.3
181.723	-79.53
181.943	-36.52
182.163	84.31
182.383	67.92
182.602	61.78
182.822	16.73
183.042	24.92
183.262	53.59
183.482	74.07
183.701	-16.04
183.921	8.53
184.141	4.44
184.361	35.16
184.58	12.63
184.8	110.93
185.02	37.2
185.239	33.11
185.459	0.34
185.679	10.58
185.898	33.11
186.118	69.97
186.338	43.35
186.557	20.82
186.777	67.92
186.997	104.79
187.216	65.88
187.436	88.4
187.655	117.08
187.875	72.02
188.095	41.3
188.314	53.59
188.534	-13.99
188.753	80.21
188.973	63.83
189.192	57.68
189.412	45.4
189.631	39.25
189.851	49.49
190.07	61.78
190.29	-54.95
190.509	125.27
190.729	24.92
190.948	135.51
191.168	84.31
191.387	-40.62
191.607	41.3
191.826	41.3
192.045	65.88
192.265	35.16
192.484	6.49
192.704	47.44
192.923	-5.8
193.142	92.5
193.362	2.39
193.581	51.54
193.8	-22.19
194.02	41.3
194.239	14.68
194.458	74.07
194.678	2.39
194.897	45.4
195.116	8.53
195.335	80.21
195.555	39.25
195.774	63.83
195.993	16.73
196.212	45.4
196.432	-7.85
196.651	24.92
196.87	49.49
197.089	162.13
197.308	92.5
197.528	55.64
197.747	33.11
197.966	-1.71
198.185	41.3
198.404	35.16
198.623	53.59
198.842	49.49
199.062	33.11
199.281	53.59
199.5	39.25
199.719	51.54
199.938	0.34
200.157	37.2
200.376	43.35
200.595	-32.43
200.814	74.07
201.033	20.82
201.252	45.4
201.471	29.01
201.69	59.73
201.909	26.96
202.128	37.2
202.347	69.97
202.566	16.73
202.785	-5.8
203.004	6.49
203.223	110.93
203.442	55.64
203.661	-48.81
203.879	90.45
204.098	59.73
204.317	-11.95
204.536	51.54
204.755	65.88
204.974	133.46
205.193	16.73
205.411	86.36
205.63	41.3
205.849	47.44
206.068	4.44
206.287	49.49
206.505	61.78
206.724	-65.19
206.943	-5.8
207.162	43.35
207.381	59.73
207.599	37.2
207.818	33.11
208.037	-5.8
208.255	-3.75
208.474	47.44
208.693	43.35
208.911	74.07
209.13	119.12
209.349	-22.19
209.567	18.77
209.786	72.02
210.005	65.88
210.223	-11.95
210.442	24.92
210.661	78.16
210.879	18.77
211.098	63.83
211.316	18.77
211.535	65.88
211.753	133.46
211.972	74.07
212.191	-59.05
212.409	61.78
212.628	-54.95
212.846	74.07
213.065	47.44
213.283	49.49
213.502	67.92
213.72	63.83
213.938	12.63
214.157	65.88
214.375	37.2
214.594	-7.85
214.812	131.41
215.031	-34.47
215.249	-13.99
215.467	24.92
215.686	96.6
215.904	84.31
216.122	-13.99
216.341	0.34
216.559	43.35
216.778	45.4
216.996	-16.04
217.214	61.78
217.432	57.68
217.651	-44.71
217.869	119.12
218.087	-3.75
218.306	-44.71
218.524	10.58
218.742	106.84
218.96	69.97
219.179	12.63
219.397	-3.75
219.615	121.17
219.833	29.01
220.051	26.96
220.27	86.36
220.488	29.01
220.706	-36.52
220.924	35.16
221.142	61.78
221.36	-7.85
221.578	10.58
221.796	55.64
222.015	80.21
222.233	20.82
222.451	106.84
222.669	78.16
222.887	33.11
223.105	12.63
223.323	33.11
223.541	115.03
223.759	78.16
223.977	-40.62
224.195	61.78
224.413	-24.23
224.631	31.06
224.849	35.16
225.067	67.92
225.285	37.2
225.503	26.96
225.721	6.49
225.939	47.44
226.157	41.3
226.375	51.54
226.592	-11.95
226.81	59.73
227.028	84.31
227.246	65.88
227.464	16.73
227.682	76.12
227.9	24.92
228.117	98.64
228.335	69.97
228.553	74.07
228.771	51.54
228.989	2.39
229.206	-11.95
229.424	8.53
229.642	2.39
229.86	57.68
230.077	29.01
230.295	8.53
230.513	-36.52
230.731	45.4
230.948	65.88
231.166	139.6
231.384	0.34
231.601	-44.71
231.819	45.4
232.037	88.4
232.254	-11.95
232.472	26.96
232.689	33.11
232.907	37.2
233.125	-44.71
233.342	-1.71
233.56	49.49
233.777	45.4
233.995	-24.23
234.213	45.4
234.43	88.4
234.648	24.92
234.865	74.07
235.083	69.97
235.3	-13.99
235.518	49.49
235.735	43.35
235.953	90.45
236.17	51.54
236.388	24.92
236.605	0.34
236.822	115.03
237.04	45.4
237.257	-79.53
237.475	-1.71
237.692	-3.75
237.909	49.49
238.127	45.4
238.344	65.88
238.562	41.3
238.779	0.34
238.996	41.3
239.214	41.3
239.431	65.88
239.648	37.2
239.865	69.97
240.083	51.54
240.3	69.97
240.517	-38.57
240.735	39.25
240.952	55.64
241.169	35.16
241.386	14.68
241.603	51.54
241.821	-28.33
242.038	35.16
242.255	39.25
242.472	-5.8
242.689	4.44
242.907	49.49
243.124	61.78
243.341	69.97
243.558	24.92
243.775	16.73
243.992	-24.23
244.209	39.25
244.426	88.4
244.643	84.31
244.86	16.73
245.078	53.59
245.295	0.34
245.512	-48.81
245.729	55.64
245.946	-3.75
246.163	43.35
246.38	18.77
246.597	74.07
246.814	29.01
247.031	14.68
247.248	49.49
247.464	65.88
247.681	45.4
247.898	14.68
248.115	94.55
248.332	-34.47
248.549	102.74
248.766	-11.95
248.983	94.55
249.2	43.35
249.417	10.58
249.633	31.06
249.85	41.3
250.067	-5.8
250.284	37.2
250.501	16.73
250.717	74.07
250.934	8.53
251.151	39.25
251.368	57.68
251.585	37.2
251.801	69.97
252.018	16.73
252.235	59.73
252.451	-3.75
252.668	-20.14
252.885	59.73
253.102	2.39
253.318	12.63
253.535	39.25
253.752	26.96
253.968	51.54
254.185	-36.52
254.401	-24.23
254.618	45.4
254.835	35.16
255.051	98.64
255.268	80.21
255.484	45.4
255.701	78.16
255.917	102.74
256.134	4.44
256.351	20.82
256.567	26.96
256.784	84.31
257	-13.99
257.217	82.26
257.433	65.88
257.65	0.34
257.866	-1.71
258.082	12.63
258.299	10.58
258.515	67.92
258.732	37.2
258.948	29.01
259.165	24.92
259.381	53.59
259.597	18.77
259.814	-38.57
260.03	18.77
260.246	72.02
260.463	29.01
260.679	67.92
260.895	61.78
261.112	65.88
261.328	12.63
261.544	18.77
261.761	69.97
261.977	41.3
262.193	47.44
262.409	65.88
262.626	78.16
262.842	22.87
263.058	57.68
263.274	39.25
263.49	-9.9
263.707	110.93
263.923	-1.71
264.139	2.39
264.355	72.02
264.571	47.44
264.787	16.73
265.004	53.59
265.22	125.27
265.436	82.26
265.652	-16.04
265.868	69.97
266.084	53.59
266.3	78.16
266.516	-24.23
266.732	16.73
266.948	59.73
267.164	39.25
267.38	94.55
267.596	92.5
267.812	2.39
268.028	39.25
268.244	-7.85
268.46	45.4
268.676	-40.62
268.892	57.68
269.108	51.54
269.324	33.11
269.54	53.59
269.756	100.69
269.972	16.73
270.188	31.06
270.403	24.92
270.619	35.16
270.835	39.25
271.051	18.77
271.267	65.88
271.483	61.78
271.698	37.2
271.914	63.83
272.13	-54.95
272.346	16.73
272.562	-13.99
272.777	94.55
272.993	2.39
273.209	82.26
273.425	57.68
273.64	-44.71
273.856	57.68
274.072	43.35
274.287	8.53
274.503	18.77
274.719	-73.39
274.934	110.93
275.15	-16.04
275.366	24.92
275.581	49.49
275.797	67.92
276.012	61.78
276.228	41.3
276.444	-9.9
276.659	61.78
276.875	49.49
277.09	53.59
277.306	41.3
277.521	106.84
277.737	37.2
277.952	98.64
278.168	6.49
278.383	37.2
278.599	49.49
278.814	119.12
279.03	35.16
279.245	20.82
279.461	33.11
279.676	96.6
279.892	-11.95
280.107	49.49
280.322	-24.23
280.538	39.25
280.753	-11.95
280.969	0.34
281.184	29.01
281.399	45.4
281.615	76.12
281.83	4.44
282.045	-7.85
282.26	51.54
282.476	10.58
282.691	26.96
282.906	106.84
283.122	37.2
283.337	35.16
283.552	90.45
283.767	26.96
283.983	133.46
284.198	-32.43
284.413	-9.9
284.628	29.01
284.843	59.73
285.058	29.01
285.274	63.83
285.489	49.49
285.704	-13.99
285.919	74.07
286.134	94.55
286.349	51.54
286.564	-3.75
286.779	33.11
286.995	39.25
287.21	14.68
287.425	45.4
287.64	92.5
287.855	65.88
288.07	37.2
288.285	47.44
288.5	26.96
288.715	29.01
288.93	51.54
289.145	12.63
289.36	49.49
289.575	59.73
289.79	61.78
290.004	65.88
290.219	20.82
290.434	-1.71
290.649	-9.9
290.864	2.39
291.079	-9.9
291.294	59.73
291.509	51.54
291.724	82.26
291.938	-5.8
292.153	49.49
292.368	-13.99
292.583	-26.28
292.798	63.83
293.012	45.4
293.227	16.73
293.442	12.63
293.657	39.25
293.871	53.59
294.086	8.53
294.301	98.64
294.516	8.53
294.73	35.16
294.945	49.49
295.16	8.53
295.374	-9.9
295.589	67.92
295.804	41.3
296.018	53.59
296.233	80.21
296.447	33.11
296.662	24.92
296.877	33.11
297.091	14.68
297.306	24.92
297.52	4.44
297.735	37.2
297.949	31.06
298.164	57.68
298.378	55.64
298.593	16.73
298.807	-36.52
299.022	8.53
299.236	72.02
299.451	90.45
299.665	16.73
299.88	16.73
300.094	35.16
300.309	51.54
300.523	104.79
300.737	20.82
300.952	33.11
301.166	22.87
301.381	26.96
301.595	49.49
301.809	88.4
302.024	26.96
302.238	24.92
302.452	100.69
302.667	76.12
302.881	29.01
303.095	26.96
303.309	74.07
303.524	22.87
303.738	-36.52
303.952	47.44
304.166	125.27
304.381	-32.43
304.595	53.59
304.809	65.88
305.023	45.4
305.237	61.78
305.452	96.6
305.666	22.87
305.88	61.78
306.094	63.83
306.308	74.07
306.522	24.92
306.736	43.35
306.95	90.45
307.164	-5.8
307.379	-38.57
307.593	100.69
307.807	72.02
308.021	41.3
308.235	24.92
308.449	10.58
308.663	41.3
308.877	90.45
309.091	49.49
309.305	59.73
309.519	31.06
309.733	82.26
309.947	0.34
310.161	88.4
310.374	51.54
310.588	123.22
310.802	39.25
311.016	55.64
311.23	100.69
311.444	-5.8
311.658	55.64
311.872	139.6
312.085	-28.33
312.299	61.78
312.513	35.16
312.727	26.96
312.941	-11.95
313.154	100.69
313.368	133.46
313.582	41.3
313.796	43.35
314.009	57.68
314.223	82.26
314.437	49.49
314.651	53.59
314.864	22.87
315.078	59.73
315.292	-42.67
315.505	72.02
315.719	-7.85
315.933	65.88
316.146	-9.9
316.36	47.44
316.573	47.44
316.787	35.16
317.001	117.08
317.214	-54.95
317.428	74.07
317.641	10.58
317.855	102.74
318.068	69.97
318.282	53.59
318.495	47.44
318.709	92.5
318.922	-79.53
319.136	74.07
319.349	88.4
319.563	-20.14
319.776	45.4
319.99	45.4
320.203	-3.75
320.417	51.54
320.63	35.16
320.843	61.78
321.057	16.73
321.27	67.92
321.483	35.16
321.697	24.92
321.91	-3.75
322.124	24.92
322.337	49.49
322.55	90.45
322.763	147.8
322.977	106.84
323.19	65.88
323.403	43.35
323.617	12.63
323.83	61.78
324.043	59.73
324.256	69.97
324.469	29.01
324.683	63.83
324.896	47.44
325.109	61.78
325.322	0.34
325.535	41.3
325.748	86.36
325.962	45.4
326.175	10.58
326.388	41.3
326.601	108.88
326.814	12.63
327.027	45.4
327.24	16.73
327.453	-24.23
327.666	49.49
327.879	39.25
328.092	61.78
328.305	-13.99
328.518	53.59
328.731	49.49
328.944	47.44
329.157	2.39
329.37	4.44
329.583	131.41
329.796	12.63
330.009	-7.85
330.222	65.88
330.435	53.59
330.648	0.34
330.861	-13.99
331.073	41.3
331.286	69.97
331.499	51.54
331.712	80.21
331.925	106.84
332.138	59.73
332.35	18.77
332.563	45.4
332.776	67.92
332.989	20.82
333.202	61.78
333.414	92.5
333.627	47.44
333.84	117.08
334.053	26.96
334.265	57.68
334.478	16.73
334.691	-16.04
334.903	18.77
335.116	-11.95
335.329	82.26
335.541	18.77
335.754	65.88
335.966	-9.9
336.179	18.77
336.392	-34.47
336.604	20.82
336.817	22.87
337.029	16.73
337.242	47.44
337.454	82.26
337.667	29.01
337.88	43.35
338.092	86.36
338.305	90.45
338.517	-28.33
338.729	65.88
338.942	16.73
339.154	16.73
339.367	-26.28
339.579	59.73
339.792	18.77
340.004	90.45
340.217	63.83
340.429	98.64
340.641	-20.14
340.854	-20.14
341.066	24.92
341.278	84.31
341.491	135.51
341.703	51.54
341.915	33.11
342.128	61.78
342.34	-44.71
342.552	41.3
342.764	98.64
342.977	-5.8
343.189	49.49
343.401	-7.85
343.613	49.49
343.826	102.74
344.038	20.82
344.25	84.31
344.462	53.59
344.674	33.11
344.886	26.96
345.099	47.44
345.311	61.78
345.523	-26.28
345.735	35.16
345.947	80.21
346.159	-26.28
346.371	59.73
346.583	49.49
346.795	117.08
347.007	43.35
347.219	10.58
347.431	90.45
347.643	63.83
347.855	-1.71
348.067	53.59
348.279	-22.19
348.491	29.01
348.703	110.93
348.915	82.26
349.127	88.4
349.339	86.36
349.551	-34.47
349.763	57.68
349.975	-1.71
350.187	106.84
350.399	37.2
350.61	102.74
350.822	-1.71
351.034	45.4
351.246	78.16
351.458	78.16
351.669	78.16
351.881	96.6
352.093	51.54
352.305	125.27
352.517	45.4
352.728	98.64
352.94	24.92
353.152	61.78
353.363	-1.71
353.575	78.16
353.787	-18.09
353.999	92.5
354.21	74.07
354.422	49.49
354.633	80.21
354.845	78.16
355.057	65.88
355.268	92.5
355.48	92.5
355.692	0.34
355.903	49.49
356.115	108.88
356.326	10.58
356.538	-48.81
356.749	67.92
356.961	59.73
357.172	-32.43
357.384	31.06
357.595	35.16
357.807	65.88
358.018	76.12
358.23	20.82
358.441	98.64
358.653	37.2
358.864	90.45
359.075	37.2
359.287	41.3
359.498	51.54
359.709	84.31
359.921	8.53
360.132	26.96
360.344	0.34
360.555	41.3
360.766	57.68
360.977	92.5
361.189	106.84
361.4	106.84
361.611	51.54
361.823	123.22
362.034	72.02
362.245	35.16
362.456	100.69
362.667	35.16
362.879	47.44
363.09	57.68
363.301	-26.28
363.512	67.92
363.723	72.02
363.935	61.78
364.146	98.64
364.357	26.96
364.568	37.2
364.779	14.68
364.99	127.32
365.201	51.54
365.412	51.54
365.623	24.92
365.834	82.26
366.045	33.11
366.256	90.45
366.467	16.73
366.678	74.07
366.889	49.49
367.1	39.25
367.311	-3.75
367.522	82.26
367.733	74.07
367.944	-11.95
368.155	90.45
368.366	49.49
368.577	-24.23
368.788	37.2
368.999	41.3
369.209	100.69
369.42	-7.85
369.631	153.94
369.842	47.44
370.053	39.25
370.264	22.87
370.474	24.92
370.685	102.74
370.896	90.45
371.107	33.11
371.317	57.68
371.528	26.96
371.739	49.49
371.95	78.16
372.16	26.96
372.371	55.64
372.582	49.49
372.792	80.21
373.003	119.12
373.214	53.59
373.424	67.92
373.635	33.11
373.846	51.54
374.056	110.93
374.267	61.78
374.477	84.31
374.688	12.63
374.898	12.63
375.109	69.97
375.319	96.6
375.53	88.4
375.74	76.12
375.951	12.63
376.161	8.53
376.372	29.01
376.582	37.2
376.793	0.34
377.003	12.63
377.214	10.58
377.424	-3.75
377.635	84.31
377.845	18.77
378.055	72.02
378.266	76.12
378.476	4.44
378.686	45.4
378.897	133.46
379.107	12.63
379.317	100.69
379.528	110.93
379.738	84.31
379.948	22.87
380.158	31.06
380.369	39.25
380.579	78.16
380.789	31.06
380.999	29.01
381.21	100.69
381.42	115.03
381.63	41.3
381.84	61.78
382.05	29.01
382.261	131.41
382.471	98.64
382.681	53.59
382.891	108.88
383.101	67.92
383.311	57.68
383.521	-1.71
383.731	100.69
383.941	82.26
384.151	12.63
384.361	86.36
384.571	26.96
384.781	84.31
384.991	-13.99
385.201	123.22
385.411	117.08
385.621	90.45
385.831	-1.71
386.041	51.54
386.251	22.87
386.461	69.97
386.671	96.6
386.881	24.92
387.091	51.54
387.301	92.5
387.511	53.59
387.72	67.92
387.93	90.45
388.14	-13.99
388.35	119.12
388.56	47.44
388.769	76.12
388.979	26.96
389.189	26.96
389.399	24.92
389.609	74.07
389.818	57.68
390.028	-5.8
390.238	90.45
390.447	51.54
390.657	20.82
390.867	-79.53
391.076	67.92
391.286	57.68
391.496	72.02
391.705	49.49
391.915	96.6
392.125	82.26
392.334	57.68
392.544	67.92
392.753	31.06
392.963	104.79
393.172	88.4
393.382	57.68
393.591	84.31
393.801	41.3
394.01	133.46
394.22	47.44
394.429	151.89
394.639	102.74
394.848	47.44
395.058	63.83
395.267	16.73
395.477	137.56
395.686	82.26
395.895	82.26
396.105	102.74
396.314	-7.85
396.524	100.69
396.733	8.53
396.942	51.54
397.152	104.79
397.361	69.97
397.57	86.36
397.78	80.21
397.989	67.92
398.198	74.07
398.407	110.93
398.617	8.53
398.826	94.55
399.035	141.65
399.244	104.79
399.453	57.68
399.663	39.25
399.872	84.31
400.081	57.68
400.29	172.37
400.499	78.16
400.708	92.5
400.917	65.88
401.127	61.78
401.336	29.01
401.545	96.6
401.754	78.16
401.963	125.27
402.172	98.64
402.381	26.96
402.59	127.32
402.799	115.03
403.008	92.5
403.217	121.17
403.426	69.97
403.635	80.21
403.844	61.78
404.053	123.22
404.262	61.78
404.471	139.6
404.68	168.27
404.888	164.18
405.097	82.26
405.306	166.23
405.515	96.6
405.724	90.45
405.933	168.27
406.142	112.98
406.35	196.95
406.559	86.36
406.768	100.69
406.977	121.17
407.185	166.23
407.394	174.42
407.603	102.74
407.812	194.9
408.02	237.91
408.229	164.18
408.438	258.39
408.646	172.37
408.855	135.51
409.064	237.91
409.272	166.23
409.481	248.15
409.69	235.86
409.898	201.04
410.107	252.24
410.315	248.15
410.524	244.05
410.733	256.34
410.941	248.15
411.15	235.86
411.358	274.77
411.567	297.3
411.775	252.24
411.984	340.3
412.192	291.15
412.401	301.39
412.609	342.35
412.818	371.02
413.026	389.46
413.234	387.41
413.443	385.36
413.651	414.03
413.86	446.8
414.068	518.48
414.276	459.09
414.485	360.78
414.693	467.28
414.901	495.95
415.11	491.85
415.318	493.9
415.526	508.24
415.734	557.39
415.943	561.48
416.151	594.25
416.359	702.79
416.567	588.11
416.776	590.16
416.984	635.21
417.192	657.74
417.4	774.47
417.608	663.88
417.817	700.75
418.025	827.72
418.233	885.06
418.441	819.53
418.649	880.97
418.857	915.78
419.065	958.79
419.273	835.91
419.481	948.55
419.689	1106.24
419.897	989.51
420.105	1057.09
420.313	1122.63
420.521	1108.29
420.729	1214.79
420.937	1106.24
421.145	1192.26
421.353	1286.47
421.561	1327.43
421.769	1374.53
421.977	1452.35
422.185	1401.15
422.393	1483.07
422.601	1542.46
422.809	1651
423.017	1655.1
423.224	1651
423.432	1665.34
423.64	1808.7
423.848	1888.57
424.056	1929.53
424.263	2091.32
424.471	2033.97
424.679	1958.2
424.887	2171.19
425.094	2189.62
425.302	2191.67
425.51	2337.07
425.718	2310.45
425.925	2457.9
426.133	2445.62
426.341	2627.89
426.548	2765.1
426.756	2683.18
426.964	2736.43
427.171	3010.86
427.379	3014.95
427.586	2949.42
427.794	3123.49
428.001	3303.71
428.209	3316
428.417	3377.44
428.624	3551.52
428.832	3600.67
429.039	3574.05
429.247	3559.71
429.454	4090.13
429.662	4135.19
429.869	3784.99
430.076	4288.79
430.284	4094.23
430.491	4251.92
430.699	4520.21
430.906	4442.39
431.114	4565.26
431.321	4851.98
431.528	4692.24
431.736	5259.53
431.943	5425.41
432.15	5363.97
432.358	5163.27
432.565	5468.42
432.772	5732.61
432.979	6029.56
433.187	5837.05
433.394	6136.06
433.601	6516.98
433.808	6486.26
434.016	6471.92
434.223	6670.58
434.43	7153.9
434.637	6818.03
434.844	7422.18
435.052	7674.08
435.259	7385.32
435.466	7430.37
435.673	7448.8
435.88	7870.69
436.087	8421.59
436.294	8325.33
436.501	8265.94
436.708	8435.92
436.915	8659.15
437.122	8808.65
437.329	8943.82
437.537	9322.7
437.743	9603.27
437.95	9234.63
438.157	9705.67
438.364	10285.24
438.571	9976
438.778	10150.07
438.985	11151.53
439.192	10666.16
439.399	11083.95
439.606	10965.17
439.813	11344.04
440.02	12062.88
440.227	12116.12
440.433	11825.31
440.64	12163.23
440.847	12058.78
441.054	12486.81
441.261	13410.44
441.467	13099.15
441.674	13293.71
441.881	13842.56
442.088	13795.46
442.294	13758.6
442.501	14020.74
442.708	14266.49
442.914	14657.65
443.121	15538.28
443.328	15186.03
443.534	16296.03
443.741	15777.89
443.948	15562.86
444.154	16855.12
444.361	16644.18
444.568	16511.07
444.774	16758.87
444.981	16863.32
445.187	17387.6
445.394	18069.57
445.6	17750.09
445.807	19861.54
446.013	18704.44
446.22	19068.98
446.426	19894.31
446.633	19965.99
446.839	20832.28
447.046	20115.49
447.252	20971.54
447.459	21020.69
447.665	20852.76
447.871	21985.29
448.078	22892.54
448.284	21913.61
448.491	22337.54
448.697	23359.47
448.903	23779.31
449.11	23799.79
449.316	23566.32
449.522	24262.63
449.728	24690.65
449.935	24565.73
450.141	24719.32
450.347	25683.92
450.553	24641.5
450.76	25116.63
450.966	25960.39
451.172	25710.54
451.378	26224.58
451.584	25585.61
451.791	26261.44
451.997	26292.16
452.203	26560.45
452.409	26693.57
452.615	26386.37
452.821	25640.91
453.027	25405.39
453.233	26853.31
453.44	25585.61
453.646	25823.18
453.852	26054.6
454.058	26603.46
454.264	25731.02
454.47	26486.72
454.676	25737.16
454.882	26546.11
455.088	24483.81
455.294	24815.58
455.5	25237.46
455.705	25538.51
455.911	24367.07
456.117	23877.61
456.323	23664.62
456.529	22480.89
456.735	23289.84
456.941	22716.41
457.147	22452.22
457.352	21760.01
457.558	21411.85
457.764	21485.58
457.97	20959.25
458.176	20858.9
458.381	20602.91
458.587	19834.92
458.793	20064.29
458.999	18446.4
459.204	20058.15
459.41	19562.54
459.616	18174.02
459.821	18145.34
460.027	17975.36
460.233	17647.69
460.438	16803.92
460.644	17082.45
460.85	16277.6
461.055	16130.14
461.261	15931.49
461.466	15052.91
461.672	14395.51
461.878	15435.88
462.083	14295.16
462.289	14194.81
462.494	14035.07
462.7	13256.84
462.905	13019.28
463.111	13373.58
463.316	13437.06
463.522	13140.11
463.727	13418.63
463.932	13019.28
464.138	13115.53
464.343	13305.99
464.549	12652.69
464.754	13189.26
464.959	13017.23
465.165	13277.32
465.37	12279.96
465.575	12124.32
465.781	12578.97
465.986	12619.92
466.191	12259.48
466.397	11835.55
466.602	11245.74
466.807	11698.34
467.012	11802.79
467.218	11772.07
467.423	11593.89
467.628	11739.3
467.833	12085.4
468.038	11720.87
468.244	11172.01
468.449	11845.79
468.654	11188.39
468.859	11460.77
469.064	11165.87
469.269	10772.66
469.474	10862.77
469.679	10916.01
469.885	11010.22
470.09	11139.24
470.295	10961.07
470.5	10641.59
470.705	10590.39
470.91	10481.85
471.115	10582.2
471.32	10436.79
471.525	10371.26
471.73	10242.23
471.935	10088.64
472.139	9941.18
472.344	9924.8
472.549	9896.13
472.754	9838.78
472.959	9738.43
473.164	9294.02
473.369	9316.55
473.574	9615.55
473.778	9560.26
473.983	9380.04
474.188	9306.31
474.393	9009.36
474.598	9044.17
474.802	9105.61
475.007	9007.31
475.212	8984.78
475.417	8523.99
475.621	8536.28
475.826	8579.28
476.031	8511.7
476.235	8308.95
476.44	8550.61
476.645	8245.46
476.849	8358.1
477.054	8091.87
477.259	7889.12
477.463	8212.7
477.668	7909.6
477.872	8069.34
478.077	7915.74
478.282	7672.03
478.486	7739.62
478.691	7485.67
478.895	7393.51
479.1	7373.03
479.304	7536.87
479.509	7233.77
479.713	7475.43
479.918	7280.87
480.122	7076.07
480.326	7108.84
480.531	7235.81
480.735	7063.79
480.94	6983.91
481.144	7262.44
481.348	6865.13
481.553	7325.93
481.757	6932.72
481.961	7049.45
482.166	7117.03
482.37	7037.16
482.574	6836.46
482.778	6758.64
482.983	7084.27
483.187	7024.87
483.391	7100.65
483.595	6877.42
483.8	6775.02
484.004	6899.95
484.208	7114.98
484.412	6902
484.616	6971.63
484.821	6914.28
485.025	6815.98
485.229	7065.83
485.433	6971.63
485.637	6949.1
485.841	6830.32
486.045	6887.66
486.249	6930.67
486.453	6834.41
486.657	6988.01
486.861	7020.78
487.065	6826.22
487.269	6820.08
487.473	6924.52
487.677	7028.97
487.881	6889.71
488.085	6897.9
488.289	7086.31
488.493	6856.94
488.697	6992.11
488.901	6990.06
489.105	6906.09
489.309	6871.28
489.512	7008.49
489.716	7018.73
489.92	6959.34
490.124	6834.41
490.328	7151.85
490.531	7053.55
490.735	7233.77
490.939	7135.46
491.143	7061.74
491.346	6947.05
491.55	7203.05
491.754	7213.29
491.958	7192.81
492.161	7315.69
492.365	7299.3
492.569	7340.26
492.772	7233.77
492.976	7385.32
493.18	7377.12
493.383	7731.42
493.587	7336.17
493.79	7569.63
493.994	7479.52
494.197	7506.15
494.401	7649.5
494.605	7637.22
494.808	7799.01
495.012	7788.77
495.215	8102.11
495.419	7950.56
495.622	7880.93
495.825	7731.42
496.029	8042.71
496.232	8206.55
496.436	8220.89
496.639	8483.03
496.843	8265.94
497.046	8521.94
497.249	8583.38
497.453	8485.08
497.656	8669.39
497.859	8704.21
498.063	8769.74
498.266	8952.01
498.469	8943.82
498.673	9128.14
498.876	9208.01
499.079	9496.77
499.282	9414.85
499.485	9480.39
499.689	9490.63
499.892	9726.14
500.095	9711.81
500.298	9920.7
500.501	9857.21
500.705	10111.16
500.908	10186.94
501.111	10436.79
501.314	10494.13
501.517	10580.15
501.72	10735.79
501.923	10721.46
502.126	10889.39
502.329	10846.38
502.532	11178.15
502.735	11169.96
502.938	11255.98
503.141	11393.19
503.344	11561.12
503.547	11813.03
503.75	11876.51
503.953	11862.18
504.156	12136.6
504.359	12521.62
504.562	12318.87
504.765	12681.36
504.968	12525.72
505.17	12961.94
505.373	12687.51
505.576	13062.29
505.779	13082.77
505.982	13381.77
506.185	13664.39
506.387	13465.74
506.59	13559.94
506.793	13918.34
506.996	13807.75
507.198	14338.17
507.401	14047.36
507.604	14477.43
507.807	14626.93
508.009	15052.91
508.212	15044.72
508.415	15118.45
508.617	15487.08
508.82	15267.95
509.022	15038.58
509.225	15888.48
509.428	15896.67
509.63	15861.86
509.833	16181.34
510.035	16328.8
510.238	16539.74
510.44	16613.46
510.643	16633.94
510.845	17137.74
511.048	16998.48
511.25	17483.85
511.453	17274.96
511.655	17918.02
511.858	17627.21
512.06	17780.81
512.262	18096.19
512.465	18102.34
512.667	18565.18
512.87	18733.11
513.072	18761.78
513.274	19052.59
513.477	19345.45
513.679	19261.49
513.881	19824.68
514.084	19738.66
514.286	19976.23
514.488	20033.57
514.69	20348.96
514.893	20701.21
515.095	20389.92
515.297	20779.03
515.499	20961.3
515.701	21303.31
515.904	21491.73
516.106	21463.05
516.308	21796.87
516.51	22024.2
516.712	21962.76
516.914	22355.97
517.116	22847.48
517.318	22933.5
517.52	22777.85
517.722	22958.07
517.925	23310.32
518.127	23594.99
518.329	23621.61
518.531	23881.7
518.733	24014.82
518.935	24676.32
519.136	24559.58
519.338	24917.98
519.54	25067.48
519.742	25042.9
519.944	25409.49
520.146	25667.53
520.348	25890.76
520.55	26128.33
520.752	25886.67
520.954	26605.5
521.155	26482.63
521.357	26703.81
521.559	26933.18
521.761	27617.2
521.963	27412.4
522.164	27371.44
522.366	27461.55
522.568	28143.53
522.77	27965.35
522.971	28577.7
523.173	28534.69
523.375	28575.65
523.576	28465.06
523.778	28829.6
523.98	29118.36
524.181	29530
524.383	29286.29
524.584	29517.71
524.786	29839.25
524.988	29732.75
525.189	30250.89
525.391	30291.85
525.592	30486.4
525.794	30427.01
525.995	30603.14
526.197	30670.72
526.398	30617.47
526.6	31057.79
526.801	31014.78
527.003	31407.99
527.204	31690.61
527.406	31530.87
527.607	31584.12
527.808	32083.82
528.01	31444.85
528.211	31469.43
528.412	32423.78
528.614	32200.55
528.815	32233.32
529.016	32540.52
529.218	32364.39
529.419	32190.31
529.62	32618.34
529.822	32135.02
530.023	32659.3
530.224	32505.7
530.425	32655.2
530.626	32501.61
530.828	32583.52
531.029	33138.52
531.23	32933.73
531.431	32800.61
531.632	33152.86
531.833	32821.09
532.035	32894.82
532.236	33261.4
532.437	33138.52
532.638	32933.73
532.839	33390.42
533.04	33554.26
533.241	33277.79
533.442	33642.32
533.643	33482.58
533.844	33343.32
534.045	33523.54
534.246	33001.31
534.447	33464.15
534.648	33369.94
534.849	33474.39
535.05	33371.99
535.251	33204.06
535.451	33734.48
535.652	33978.19
535.853	33435.48
536.054	33619.8
536.255	33859.41
536.456	33521.49
536.657	34043.73
536.857	33476.44
537.058	33603.41
537.259	33666.9
537.46	33769.3
537.66	33748.82
537.861	33582.93
538.062	33603.41
538.263	33247.07
538.463	33562.45
538.664	33709.91
538.865	33257.31
539.065	33601.36
539.266	33251.16
539.466	33769.3
539.667	33333.08
539.868	34119.5
540.068	33537.88
540.269	33421.14
540.469	33533.78
540.67	33247.07
540.87	33853.26
541.071	33232.73
541.271	33709.91
541.472	33224.54
541.672	33437.53
541.873	33140.57
542.073	33095.52
542.274	33599.32
542.474	33566.55
542.675	32966.49
542.875	33589.08
543.075	33240.92
543.276	33113.95
543.476	33300.31
543.676	33359.7
543.877	33572.69
544.077	33685.33
544.277	33097.56
544.478	33312.6
544.678	33474.39
544.878	33122.14
545.078	33240.92
545.279	33355.61
545.479	32921.44
545.679	33245.02
545.879	33093.47
546.079	33396.57
546.28	33234.78
546.48	33154.91
546.68	33550.17
546.88	33464.15
547.08	33310.55
547.28	33367.9
547.48	32634.72
547.68	33191.77
547.88	32995.17
548.081	33408.86
548.281	33353.56
548.481	32986.97
548.681	33177.44
548.881	33226.59
549.081	33251.16
549.28	33113.95
549.48	32915.3
549.68	33011.55
549.88	33427.29
550.08	32862.05
550.28	33253.21
550.48	33154.91
550.68	33496.92
550.88	33007.45
551.08	33120.09
551.279	33150.81
551.479	32860
551.679	32579.43
551.879	32724.83
552.079	33064.8
552.278	32794.46
552.478	32894.82
552.678	32808.8
552.878	33105.76
553.077	32853.86
553.277	32634.72
553.477	33365.85
553.676	32759.65
553.876	32624.48
554.076	32190.31
554.275	32823.14
554.475	32601.96
554.674	32794.46
554.874	32952.16
555.074	32548.71
555.273	32640.87
555.473	32935.77
555.672	32116.59
555.872	32470.89
556.071	32655.2
556.271	32970.59
556.47	32788.32
556.67	32255.85
556.869	32006
557.068	32706.4
557.268	32257.9
557.467	32395.11
557.667	32210.79
557.866	32169.83
558.065	32020.33
558.265	32145.26
558.464	31838.06
558.663	32585.57
558.863	31780.72
559.062	32548.71
559.261	31776.62
559.461	32128.88
559.66	31434.61
559.859	31969.13
560.058	31684.47
560.258	31661.94
560.457	31377.27
560.656	31592.31
560.855	31502.2
561.054	31508.34
561.253	31371.13
561.453	30994.3
561.652	31612.79
561.851	31352.69
562.05	31244.15
562.249	31238.01
562.448	31539.06
562.647	31268.73
562.846	31057.79
563.045	30932.86
563.244	30818.18
563.443	30922.62
563.642	30570.37
563.841	30771.07
564.04	30875.52
564.239	30836.61
564.438	30488.45
564.637	30934.91
564.836	30730.11
565.035	30199.69
565.234	30357.38
565.432	30302.09
565.631	30189.45
565.83	30447.49
566.029	30050.19
566.228	29960.08
566.427	29665.17
566.625	29519.76
566.824	29656.98
567.023	29648.78
567.222	29446.04
567.42	29849.49
567.619	29480.85
567.818	29605.78
568.016	29368.21
568.215	29337.49
568.414	29151.13
568.612	29509.52
568.811	29183.9
569.01	29325.21
569.208	28800.93
569.407	29220.76
569.605	28772.25
569.804	28968.86
570.002	28479.39
570.201	28753.82
570.4	28632.99
570.598	28637.09
570.797	28473.25
570.995	28657.57
571.193	27928.49
571.392	28786.59
571.59	28082.09
571.789	27940.78
571.987	28108.71
572.186	27979.69
572.384	27525.04
572.582	27727.79
572.781	27877.29
572.979	27473.84
573.177	27467.7
573.376	27713.45
573.574	27547.57
573.772	27383.73
573.971	27588.53
574.169	27484.08
574.367	27217.85
574.565	27142.07
574.763	27258.81
574.962	27123.64
575.16	26273.73
575.358	26726.33
575.556	26412.99
575.754	26951.61
575.952	26505.15
576.151	26970.04
576.349	26470.34
576.547	26445.76
576.745	26443.71
576.943	26128.33
577.141	26427.33
577.339	26187.72
577.537	26056.65
577.735	25987.02
577.933	25823.18
578.131	26077.13
578.329	25829.32
578.527	25626.57
578.725	25681.87
578.923	25911.24
579.121	25731.02
579.319	25284.56
579.516	25493.46
579.714	25327.57
579.912	25509.84
580.11	25311.19
580.308	25057.24
580.506	25047
580.704	24682.46
580.901	25018.33
581.099	25200.6
581.297	24793.05
581.495	24397.79
581.692	24721.37
581.89	24676.32
582.088	24631.26
582.285	24637.41
582.483	24434.66
582.681	24354.79
582.878	24152.04
583.076	24174.56
583.274	23961.58
583.471	23918.57
583.669	23998.44
583.866	23898.09
584.064	24170.47
584.262	23885.8
584.459	24076.26
584.657	23535.6
584.854	23975.91
585.052	23769.07
585.249	23410.67
585.447	23373.81
585.644	23234.55
585.841	23126
586.039	23650.28
586.236	23302.13
586.434	23009.27
586.631	23289.84
586.828	23205.88
587.026	22958.07
587.223	22761.47
587.42	22865.91
587.618	22939.64
587.815	22519.81
588.012	22507.52
588.21	22523.9
588.407	22783.99
588.604	22319.1
588.801	22120.45
588.999	22427.65
589.196	22323.2
589.393	22235.14
589.59	22046.72
589.787	22171.65
589.984	22089.73
590.182	21936.13
590.379	22087.68
590.576	21712.91
590.773	21966.85
590.97	21594.12
591.167	21731.34
591.364	21301.26
591.561	21585.93
591.758	21221.39
591.955	21598.22
592.152	21491.73
592.349	21450.77
592.546	21186.58
592.743	21192.72
592.94	20643.87
593.137	20875.29
593.334	21069.84
593.531	20930.58
593.727	20754.46
593.924	20858.9
594.121	20660.25
594.318	20985.88
594.515	20211.74
594.712	20725.79
594.908	20533.28
595.105	20578.33
595.302	20561.95
595.499	20477.98
595.696	20463.65
595.892	20148.26
596.089	20477.98
596.286	20086.82
596.482	20023.33
596.679	19804.2
596.876	20162.59
597.072	19679.27
597.269	19703.85
597.466	19640.36
597.662	19619.88
597.859	19546.16
598.055	19695.66
598.252	19359.79
598.448	19634.22
598.645	19408.94
598.841	19181.62
599.038	19423.28
599.234	19439.66
599.431	18989.11
599.627	19204.14
599.824	19279.92
600.02	18925.62
600.217	18901.04
600.413	18532.41
600.609	18878.52
600.806	18587.71
601.002	18845.75
601.198	18905.14
601.395	18432.06
601.591	18483.26
601.787	18630.71
601.984	18503.74
602.18	18552.89
602.376	18264.13
602.572	18083.91
602.769	18370.62
602.965	18055.23
603.161	18133.06
603.357	17940.55
603.553	17979.46
603.75	17965.12
603.946	17852.48
604.142	18088
604.338	17465.42
604.534	17954.88
604.73	17489.99
604.926	17455.18
605.122	17889.35
605.318	17473.61
605.514	17295.44
605.71	17207.37
605.906	17141.84
606.102	17449.04
606.298	17283.15
606.494	17432.65
606.69	17072.21
606.886	17231.95
607.082	16832.6
607.278	17037.39
607.474	16871.51
607.67	17115.22
607.866	16638.04
608.062	16984.15
608.257	16773.21
608.453	16728.15
608.649	16773.21
608.845	16635.99
609.041	16668.76
609.236	16701.53
609.432	16588.89
609.628	16539.74
609.824	16654.42
610.019	16502.87
610.215	16572.5
610.411	16466.01
610.606	16466.01
610.802	16312.41
610.998	16304.22
611.193	16263.26
611.389	16240.73
611.584	16244.83
611.78	15804.52
611.976	16072.8
612.171	16062.56
612.367	16171.1
612.562	15978.59
612.758	15837.28
612.953	15878.24
613.149	16105.57
613.344	15687.78
613.539	16091.23
613.735	15816.8
613.93	16027.74
614.126	15913.06
614.321	15888.48
614.517	15607.91
614.712	15763.56
614.907	15704.17
615.103	15564.9
615.298	15509.61
615.493	15384.68
615.688	15388.78
615.884	15775.84
616.079	15270
616.274	15290.48
616.47	15353.96
616.665	15401.07
616.86	15073.39
617.055	15204.46
617.25	15149.17
617.445	15243.37
617.641	15018.1
617.836	15286.38
618.031	15011.95
618.226	15214.7
618.421	14663.8
618.616	14876.79
618.811	14524.54
619.006	14899.31
619.201	14788.72
619.396	14745.72
619.591	14620.79
619.786	14749.81
619.981	14162.05
620.176	14696.57
620.371	14438.52
620.566	14309.5
620.761	14116.99
620.956	14303.36
621.151	14198.91
621.346	14239.87
621.541	13889.67
621.735	14039.17
621.93	13811.84
622.125	13994.11
622.32	13682.82
622.515	13893.76
622.709	13525.13
622.904	13486.22
623.099	13478.02
623.294	13654.15
623.488	13408.39
623.683	13408.39
623.878	13213.84
624.072	12947.6
624.267	13099.15
624.462	12748.95
624.656	12961.94
624.851	12898.45
625.046	12855.44
625.24	12693.65
625.435	12617.88
625.629	12654.74
625.824	12587.16
626.018	12511.38
626.213	12458.14
626.407	12533.91
626.602	12265.63
626.796	12292.25
626.991	12105.88
627.185	12150.94
627.38	12132.51
627.574	11790.5
627.768	11708.58
627.963	11921.57
628.157	11825.31
628.352	11874.46
628.546	11255.98
628.74	11821.22
628.935	11518.12
629.129	11382.95
629.323	11249.83
629.517	11448.49
629.712	11397.29
629.906	11124.91
630.1	10985.65
630.294	10967.21
630.489	10981.55
630.683	11188.39
630.877	10879.15
631.071	10647.73
631.265	10864.82
631.459	10772.66
631.653	10682.55
631.848	10541.24
632.042	10582.2
632.236	10541.24
632.43	10338.49
632.624	10584.24
632.818	10412.21
633.012	10234.04
633.206	10326.2
633.4	10295.48
633.594	10152.12
633.788	10162.36
633.982	9994.43
634.176	10008.76
634.369	9973.95
634.563	10002.62
634.757	9883.84
634.951	9949.37
635.145	9742.53
635.339	9908.41
635.533	9742.53
635.726	9685.19
635.92	9586.88
636.114	9388.23
636.308	9349.32
636.501	9455.81
636.695	9609.41
636.889	9408.71
637.083	9189.58
637.276	9134.28
637.47	9009.36
637.664	9044.17
637.857	9316.55
638.051	8999.12
638.244	8964.3
638.438	8808.65
638.632	8962.25
638.825	8857.81
639.019	8788.18
639.212	8829.13
639.406	8949.96
639.599	8745.17
639.793	8683.73
639.986	8489.17
640.18	8521.94
640.373	8356.05
640.567	8423.64
640.76	8458.45
640.954	8173.78
641.147	8261.85
641.34	8341.72
641.534	8220.89
641.727	8296.66
641.92	8153.3
642.114	8163.54
642.307	8042.71
642.5	7866.59
642.694	7831.77
642.887	7921.88
643.08	7907.55
643.273	7907.55
643.467	7749.86
643.66	7825.63
643.853	7659.74
644.046	7631.07
644.239	7598.31
644.432	7506.15
644.626	7506.15
644.819	7457
645.012	7682.27
645.205	7373.03
645.398	7483.62
645.591	7446.76
645.784	7278.82
645.977	7252.2
646.17	7258.34
646.363	7065.83
646.556	6914.28
646.749	7119.08
646.942	7053.55
647.135	6906.09
647.328	6936.81
647.521	6902
647.714	6922.48
647.907	7112.94
648.099	6830.32
648.292	6883.56
648.485	6799.6
648.678	6725.87
648.871	6684.91
649.064	6586.61
649.256	6531.31
649.449	6584.56
649.642	6621.42
649.835	6586.61
650.027	6562.03
650.22	6559.99
650.413	6246.65
650.605	6361.33
650.798	6279.41
650.991	6287.61
651.183	6422.77
651.376	6340.85
651.568	6068.47
651.761	6211.83
651.954	6154.49
652.146	5996.79
652.339	5974.27
652.531	5966.07
652.724	5929.21
652.916	5900.54
653.109	5882.11
653.301	5851.39
653.494	5800.19
653.686	5886.2
653.879	5824.76
654.071	5832.96
654.263	5656.83
654.456	5746.94
654.648	5685.5
654.84	5579.01
655.033	5683.45
655.225	5544.19
655.417	5546.24
655.61	5511.43
655.802	5703.93
655.994	5431.55
656.186	5523.71
656.379	5492.99
656.571	5529.86
656.763	5273.86
656.955	5470.47
657.148	5439.75
657.34	5280
657.532	5218.57
657.724	5234.95
657.916	5200.13
658.108	5052.68
658.3	5128.46
658.492	5144.84
658.684	5044.49
658.876	5015.82
659.068	4956.43
659.26	5007.62
659.452	5034.25
659.644	5165.32
659.836	4849.93
660.028	4993.29
660.22	4905.23
660.412	4927.75
660.604	4579.6
660.796	4929.8
660.988	4837.64
661.18	4698.38
661.372	4632.85
661.563	4808.97
661.755	4655.37
661.947	4677.9
662.139	4612.37
662.331	4548.88
662.522	4587.79
662.714	4667.66
662.906	4550.93
663.097	4481.3
663.289	4555.02
663.481	4325.65
663.673	4434.19
663.864	4305.17
664.056	4335.89
664.247	4362.51
664.439	4301.08
664.631	4405.52
664.822	4417.81
665.014	4200.73
665.205	4292.88
665.397	4237.59
665.588	4186.39
665.78	4278.55
665.971	4243.73
666.163	4049.18
666.354	4112.66
666.546	4170.01
666.737	4026.65
666.929	4210.97
667.12	4092.18
667.311	3969.3
667.503	4077.85
667.694	3979.54
667.885	3963.16
668.077	3930.39
668.268	3850.52
668.459	3809.56
668.651	4040.98
668.842	3891.48
669.033	3780.89
669.224	3891.48
669.416	3895.58
669.607	3774.75
669.798	3918.11
669.989	3764.51
670.18	3678.49
670.371	3711.26
670.563	3449.12
670.754	3731.74
670.945	3674.4
671.136	3676.45
671.327	3739.93
671.518	3598.62
671.709	3559.71
671.9	3457.31
672.091	3670.3
672.282	3469.6
672.473	3442.98
672.664	3393.83
672.855	3434.78
673.046	3504.42
673.237	3584.29
673.428	3481.89
673.619	3393.83
673.809	3434.78
674	3442.98
674.191	3459.36
674.382	3379.49
674.573	3389.73
674.764	3297.57
674.954	3359.01
675.145	3393.83
675.336	3316
675.527	3299.62
675.717	3383.59
675.908	3227.94
676.099	3342.63
676.289	3301.67
676.48	3279.14
676.671	3266.85
676.861	3268.9
677.052	3242.28
677.243	3277.09
677.433	3146.02
677.624	3313.95
677.814	3234.08
678.005	3154.21
678.195	3178.79
678.386	3080.49
678.576	3068.2
678.767	3047.72
678.957	3111.21
679.148	3064.1
679.338	3051.81
679.529	3131.69
679.719	3062.05
679.909	3082.53
680.1	2959.66
680.29	3092.77
680.481	3197.22
680.671	2924.84
680.861	3041.57
681.052	3012.9
681.242	2961.7
681.432	3068.2
681.622	2957.61
681.813	2916.65
682.003	2992.42
682.193	2838.83
682.383	2912.55
682.573	2871.59
682.764	2890.03
682.954	3113.25
683.144	3047.72
683.334	2978.09
683.524	2877.74
683.714	2924.84
683.904	2844.97
684.094	2969.9
684.284	2810.15
684.474	2842.92
684.664	2916.65
684.854	2847.02
685.044	2781.48
685.234	2826.54
685.424	2756.91
685.614	2732.33
685.804	2853.16
685.994	2736.43
686.184	2818.35
686.374	2834.73
686.564	2808.11
686.753	2863.4
686.943	2793.77
687.133	2699.56
687.323	2689.32
687.513	2849.07
687.702	2564.4
687.892	2804.01
688.082	2599.21
688.272	2713.9
688.461	2629.93
688.651	2564.4
688.841	2531.63
689.03	2623.79
689.22	2584.88
689.41	2605.36
689.599	2492.72
689.789	2572.59
689.979	2566.45
690.168	2521.39
690.358	2560.3
690.547	2519.34
690.737	2423.09
690.926	2556.21
691.116	2400.56
691.305	2443.57
691.495	2425.14
691.684	2462
691.874	2478.38
692.063	2527.53
692.252	2449.71
692.442	2400.56
692.631	2441.52
692.82	2418.99
693.01	2462
693.199	2421.04
693.388	2380.08
693.578	2451.76
693.767	2439.47
693.956	2343.22
694.146	2242.87
694.335	2390.32
694.524	2330.93
694.713	2294.07
694.902	2433.33
695.092	2314.55
695.281	2312.5
695.47	2267.44
695.659	2224.44
695.848	2244.92
696.037	2244.92
696.226	2283.83
696.415	2294.07
696.604	2296.11
696.793	2255.15
696.982	2218.29
697.171	2404.66
697.36	2218.29
697.549	2189.62
697.738	2187.57
697.927	2222.39
698.116	2339.12
698.305	2283.83
698.494	2160.95
698.683	2292.02
698.872	2300.21
699.061	2306.35
699.25	2224.44
699.438	2277.68
699.627	2259.25
699.816	2206
700.005	2148.66
700.193	2097.46
700.382	2203.96
700.571	2269.49
700.76	2122.04
700.948	2132.28
701.137	2199.86
701.326	2115.89
701.514	2218.29
701.703	2226.48
701.892	2193.72
702.08	2324.79
702.269	2158.9
702.457	2144.56
702.646	2111.8
702.834	2173.24
703.023	2181.43
703.212	2212.15
703.4	2093.37
703.589	2130.23
703.777	2146.61
703.965	2054.45
704.154	2138.42
704.342	2197.81
704.531	2097.46
704.719	2122.04
704.907	2244.92
705.096	2171.19
705.284	2081.08
705.472	2001.21
705.661	2101.56
705.849	2111.8
706.037	2187.57
706.226	2152.76
706.414	2201.91
706.602	2146.61
706.79	2027.83
706.979	2099.51
707.167	2240.82
707.355	2044.21
707.543	2107.7
707.731	2160.95
707.919	2122.04
708.107	2187.57
708.296	2134.32
708.484	2154.8
708.672	2146.61
708.86	2042.17
709.048	2093.37
709.236	2117.94
709.424	2201.91
709.612	2033.97
709.8	2146.61
709.988	2058.55
710.176	2001.21
710.364	2105.65
710.551	2072.89
710.739	2058.55
710.927	2046.26
711.115	2146.61
711.303	2097.46
711.491	2044.21
711.679	2029.88
711.866	2122.04
712.054	2208.05
712.242	1980.73
712.43	2023.73
712.617	2040.12
712.805	2015.54
712.993	2001.21
713.181	2195.76
713.368	2058.55
713.556	2056.5
713.744	1960.25
713.931	2109.75
714.119	2081.08
714.306	2044.21
714.494	2015.54
714.682	2033.97
714.869	1935.67
715.057	2009.4
715.244	1933.62
715.432	2056.5
715.619	2007.35
715.807	2130.23
715.994	2097.46
716.182	1974.58
716.369	2126.13
716.556	2107.7
716.744	2085.17
716.931	2130.23
717.119	2031.93
717.306	2048.31
717.493	2058.55
717.681	2111.8
717.868	2083.13
718.055	2081.08
718.242	2099.51
718.43	2183.48
718.617	2142.52
718.804	2038.07
718.991	2036.02
719.179	2091.32
719.366	2070.84
719.553	2066.74
719.74	2072.89
719.927	2060.6
720.114	2040.12
720.301	2021.69
720.488	2054.45
720.676	2070.84
720.863	1982.78
721.05	2097.46
721.237	2119.99
721.424	2064.69
721.611	1990.97
721.798	2050.36
721.985	2017.59
722.172	2013.49
722.358	2175.28
722.545	2060.6
722.732	1966.39
722.919	2064.69
723.106	1986.87
723.293	2062.65
723.48	2048.31
723.667	2103.61
723.853	1972.54
724.04	2042.17
724.227	2101.56
724.414	1988.92
724.6	2031.93
724.787	2079.03
724.974	2027.83
725.161	2085.17
725.347	1952.06
725.534	1941.82
725.72	1960.25
725.907	2017.59
726.094	2165.04
726.28	1978.68
726.467	1968.44
726.653	1962.3
726.84	2033.97
727.027	2040.12
727.213	2017.59
727.4	1978.68
727.586	2072.89
727.773	2060.6
727.959	2081.08
728.145	2101.56
728.332	1950.01
728.518	2038.07
728.705	2050.36
728.891	1988.92
729.077	1966.39
729.264	2019.64
729.45	2009.4
729.636	2187.57
729.823	1958.2
730.009	2068.79
730.195	1968.44
730.382	2091.32
730.568	2025.78
730.754	1964.34
730.94	2007.35
731.126	2109.75
731.313	1980.73
731.499	2015.54
731.685	2052.41
731.871	1950.01
732.057	2072.89
732.243	2050.36
732.429	2148.66
732.615	2044.21
732.801	2048.31
732.987	2042.17
733.173	2005.3
733.359	1978.68
733.545	2124.08
733.731	1945.91
733.917	1990.97
734.103	2011.45
734.289	1947.96
734.475	2007.35
734.661	1972.54
734.847	2023.73
735.033	2025.78
735.219	1919.29
735.404	1876.28
735.59	2017.59
735.776	1997.11
735.962	1986.87
736.148	2056.5
736.333	2007.35
736.519	2066.74
736.705	1919.29
736.89	1937.72
737.076	2023.73
737.262	1966.39
737.447	2001.21
737.633	1943.86
737.819	2023.73
738.004	2019.64
738.19	1947.96
738.375	1958.2
738.561	1972.54
738.747	1972.54
738.932	1876.28
739.118	1827.13
739.303	1765.69
739.489	1974.58
739.674	1964.34
739.859	1927.48
740.045	1804.6
740.23	1902.9
740.416	1837.37
740.601	1755.45
740.786	1847.61
740.972	1696.06
741.157	1780.03
741.342	1767.74
741.528	1841.47
741.713	1868.09
741.898	1861.94
742.084	1810.75
742.269	1845.56
742.454	1788.22
742.639	1851.71
742.824	1835.32
743.01	1796.41
743.195	1851.71
743.38	1706.3
743.565	1771.83
743.75	1851.71
743.935	1833.27
744.12	1788.22
744.305	1720.64
744.49	1689.92
744.675	1753.4
744.86	1706.3
745.045	1841.47
745.23	1704.25
745.415	1714.49
745.6	1685.82
745.785	1685.82
745.97	1630.52
746.155	1677.63
746.34	1724.73
746.525	1620.28
746.71	1614.14
746.895	1567.04
747.079	1579.33
747.264	1683.77
747.449	1679.68
747.634	1601.85
747.819	1601.85
748.003	1493.31
748.188	1589.57
748.373	1501.5
748.557	1597.76
748.742	1567.04
748.927	1562.94
749.111	1478.97
749.296	1622.33
749.481	1687.87
749.665	1409.34
749.85	1470.78
750.034	1478.97
750.219	1493.31
750.404	1489.21
750.588	1483.07
750.773	1507.65
750.957	1538.37
751.141	1501.5
751.326	1460.54
751.51	1392.96
751.695	1450.3
751.879	1288.51
752.064	1442.11
752.248	1409.34
752.432	1382.72
752.617	1358.14
752.801	1311.04
752.985	1337.66
753.17	1403.2
753.354	1329.47
753.538	1306.95
753.722	1372.48
753.907	1214.79
754.091	1218.88
754.275	1304.9
754.459	1243.46
754.643	1317.19
754.828	1286.47
755.012	1270.08
755.196	1212.74
755.38	1220.93
755.564	1278.27
755.748	1268.03
755.932	1208.64
756.116	1212.74
756.3	1196.36
756.484	1204.55
756.668	1212.74
756.852	1147.2
757.036	1149.25
757.22	1118.53
757.404	1149.25
757.588	1122.63
757.772	1122.63
757.956	1091.91
758.14	1204.55
758.323	1093.96
758.507	1124.68
758.691	1050.95
758.875	1016.13
759.059	1032.52
759.242	1120.58
759.426	1016.13
759.61	1073.48
759.794	1085.76
759.977	977.22
760.161	1061.19
760.345	991.56
760.528	981.32
760.712	979.27
760.895	979.27
761.079	987.46
761.263	1001.8
761.446	1024.33
761.63	977.22
761.813	913.74
761.997	950.6
762.18	964.93
762.364	985.41
762.547	1007.94
762.731	1057.09
762.914	960.84
763.098	835.91
763.281	983.37
763.464	930.12
763.648	858.44
763.831	991.56
764.015	919.88
764.198	934.22
764.381	829.77
764.564	921.93
764.748	846.15
764.931	850.25
765.114	964.93
765.297	887.11
765.481	944.45
765.664	870.73
765.847	876.87
766.03	926.02
766.213	893.26
766.397	868.68
766.58	942.41
766.763	895.3
766.946	905.54
767.129	876.87
767.312	813.38
767.495	928.07
767.678	825.67
767.861	801.1
768.044	874.82
768.227	876.87
768.41	885.06
768.593	895.3
768.776	794.95
768.959	817.48
769.142	913.74
769.324	825.67
769.507	803.15
769.69	874.82
769.873	749.9
770.056	837.96
770.239	866.63
770.421	790.86
770.604	815.43
770.787	825.67
770.97	811.34
771.152	753.99
771.335	805.19
771.518	743.75
771.7	741.71
771.883	799.05
772.066	747.85
772.248	803.15
772.431	772.43
772.613	801.1
772.796	717.13
772.978	805.19
773.161	704.84
773.343	821.58
773.526	790.86
773.708	737.61
773.891	721.23
774.073	700.75
774.256	770.38
774.438	756.04
774.621	762.19
774.803	772.43
774.985	727.37
775.168	729.42
775.35	690.51
775.532	647.5
775.715	641.36
775.897	672.08
776.079	653.64
776.261	606.54
776.444	680.27
776.626	641.36
776.808	622.92
776.99	598.35
777.173	622.92
777.355	598.35
777.537	618.83
777.719	631.12
777.901	643.4
778.083	624.97
778.265	639.31
778.447	584.01
778.629	633.16
778.811	667.98
778.993	577.87
779.175	602.44
779.357	565.58
779.539	594.25
779.721	465.23
779.903	670.03
780.085	514.38
780.267	633.16
780.449	549.2
780.631	579.92
780.812	573.77
780.994	520.53
781.176	555.34
781.358	526.67
781.54	579.92
781.721	483.66
781.903	541.01
782.085	467.28
782.267	442.7
782.448	479.57
782.63	487.76
782.812	536.91
782.993	518.48
783.175	534.86
783.357	450.89
783.538	516.43
783.72	448.85
783.901	463.18
784.083	446.8
784.264	428.37
784.446	483.66
784.627	401.74
784.809	500.05
784.99	416.08
785.172	469.33
785.353	553.29
785.535	463.18
785.716	358.74
785.897	489.81
786.079	409.94
786.26	399.7
786.441	422.22
786.623	377.17
786.804	444.75
786.985	405.84
787.167	426.32
787.348	485.71
787.529	438.61
787.71	309.58
787.891	428.37
788.073	473.42
788.254	409.94
788.435	360.78
788.616	391.5
788.797	467.28
788.978	409.94
789.159	313.68
789.34	389.46
789.522	420.17
789.703	362.83
789.884	330.06
790.065	342.35
790.246	338.26
790.427	297.3
790.607	360.78
790.788	383.31
790.969	260.43
791.15	393.55
791.331	325.97
791.512	311.63
791.693	272.72
791.874	328.02
792.054	385.36
792.235	328.02
792.416	377.17
792.597	336.21
792.778	385.36
792.958	311.63
793.139	362.83
793.32	328.02
793.5	315.73
793.681	332.11
793.862	332.11
794.042	287.06
794.223	323.92
794.404	340.3
794.584	254.29
794.765	291.15
794.945	311.63
795.126	342.35
795.306	250.19
795.487	297.3
795.667	262.48
795.848	299.34
796.028	270.67
796.209	246.1
796.389	295.25
796.57	334.16
796.75	291.15
796.93	252.24
797.111	256.34
797.291	231.76
797.471	274.77
797.652	278.87
797.832	270.67
798.012	231.76
798.192	223.57
798.373	313.68
798.553	248.15
798.733	254.29
798.913	237.91
799.093	242
799.274	248.15
799.454	186.71
799.634	319.82
799.814	221.52
799.994	272.72
800.174	186.71
800.354	274.77
800.534	209.23
800.714	268.63
800.894	276.82
801.074	178.51
801.254	237.91
801.434	180.56
801.614	264.53
801.794	184.66
801.974	639.31
802.154	223.57
802.334	209.23
802.514	209.23
802.693	211.28
802.873	188.75
803.053	227.67
803.233	237.91
803.413	237.91
803.592	166.23
803.772	221.52
803.952	254.29
804.131	227.67
804.311	332.11
804.491	246.1
804.67	221.52
804.85	178.51
805.03	149.84
805.209	180.56
805.389	121.17
805.568	207.19
805.748	223.57
805.928	254.29
806.107	264.53
806.287	233.81
806.466	168.27
806.646	188.75
806.825	155.99
807.004	174.42
807.184	198.99
807.363	311.63
807.543	192.85
807.722	229.71
807.901	190.8
808.081	188.75
808.26	166.23
808.439	244.05
808.619	170.32
808.798	123.22
808.977	182.61
809.156	192.85
809.336	145.75
809.515	239.95
809.694	166.23
809.873	158.03
810.052	188.75
810.231	180.56
810.411	139.6
810.59	254.29
810.769	155.99
810.948	198.99
811.127	115.03
811.306	180.56
811.485	143.7
811.664	67.92
811.843	90.45
812.022	211.28
812.201	166.23
812.38	158.03
812.559	180.56
812.737	207.19
812.916	149.84
813.095	119.12
813.274	131.41
813.453	186.71
813.632	149.84
813.811	227.67
813.989	147.8
814.168	158.03
814.347	65.88
814.526	135.51
814.704	205.14
814.883	149.84
815.062	94.55
815.24	143.7
815.419	127.32
815.598	209.23
815.776	117.08
815.955	149.84
816.133	84.31
816.312	76.12
816.49	190.8
816.669	106.84
816.847	135.51
817.026	125.27
817.204	65.88
817.383	198.99
817.561	131.41
817.74	115.03
817.918	135.51
818.097	82.26
818.275	115.03
818.453	215.38
818.632	172.37
818.81	119.12
818.988	158.03
819.167	155.99
819.345	164.18
819.523	74.07
819.701	117.08
819.879	209.23
820.058	123.22
820.236	131.41
820.414	184.66
820.592	94.55
820.77	155.99
820.948	145.75
821.127	127.32
821.305	129.36
821.483	76.12
821.661	84.31
821.839	135.51
822.017	72.02
822.195	143.7
822.373	158.03
822.551	86.36
822.729	160.08
822.907	117.08
823.085	115.03
823.262	92.5
823.44	106.84
823.618	61.78
823.796	90.45
823.974	41.3
824.152	59.73
824.329	123.22
824.507	131.41
824.685	143.7
824.863	72.02
825.04	98.64
825.218	174.42
825.396	67.92
825.574	117.08
825.751	121.17
825.929	65.88
826.107	20.82
826.284	162.13
826.462	147.8
826.639	115.03
826.817	100.69
826.994	110.93
827.172	16.73
827.349	151.89
827.527	121.17
827.704	74.07
827.882	92.5
828.059	149.84
828.237	106.84
828.414	133.46
828.591	53.59
828.769	160.08
828.946	92.5
829.124	102.74
829.301	86.36
829.478	100.69
829.655	78.16
829.833	37.2
830.01	51.54
830.187	108.88
830.364	94.55
830.542	33.11
830.719	100.69
830.896	127.32
831.073	106.84
831.25	153.94
831.427	39.25
831.604	22.87
831.782	41.3
831.959	133.46
832.136	106.84
832.313	129.36
832.49	86.36
832.667	115.03
832.844	41.3
833.021	59.73
833.198	63.83
833.374	123.22
833.551	20.82
833.728	78.16
833.905	90.45
834.082	24.92
834.259	98.64
834.436	123.22
834.612	100.69
834.789	45.4
834.966	-40.62
835.143	145.75
835.319	76.12
835.496	194.9
835.673	117.08
835.85	90.45
836.026	127.32
836.203	51.54
836.38	10.58
836.556	92.5
836.733	74.07
836.909	112.98
837.086	119.12
837.262	-1.71
837.439	106.84
837.616	162.13
837.792	51.54
837.968	63.83
838.145	59.73
838.321	59.73
838.498	26.96
838.674	131.41
838.851	4.44
839.027	82.26
839.203	22.87
839.38	49.49
839.556	86.36
839.732	96.6
839.909	112.98
840.085	149.84
840.261	61.78
840.437	102.74
840.614	16.73
840.79	47.44
840.966	117.08
841.142	106.84
841.318	49.49
841.494	147.8
841.671	47.44
841.847	59.73
842.023	29.01
842.199	61.78
842.375	51.54
842.551	82.26
842.727	108.88
842.903	117.08
843.079	-9.9
843.255	88.4
843.431	26.96
843.607	65.88
843.783	-24.23
843.959	18.77
844.134	18.77
844.31	100.69
844.486	8.53
844.662	-1.71
844.838	74.07
845.013	20.82
845.189	78.16
845.365	74.07
845.541	59.73
845.716	106.84
845.892	18.77
846.068	74.07
846.244	16.73
846.419	24.92
846.595	-40.62
846.77	74.07
846.946	117.08
847.122	45.4
847.297	80.21
847.473	33.11
847.648	-9.9
847.824	63.83
847.999	18.77
848.175	57.68
848.35	90.45
848.526	59.73
848.701	12.63
848.876	-22.19
849.052	-16.04
849.227	92.5
849.403	57.68
849.578	6.49
849.753	29.01
849.929	82.26
850.104	63.83
850.279	24.92
850.454	61.78
850.63	162.13
850.805	94.55
850.98	80.21
851.155	45.4
851.33	76.12
851.505	-26.28
851.681	172.37
851.856	55.64
852.031	69.97
852.206	74.07
852.381	18.77
852.556	49.49
852.731	2.39
852.906	74.07
853.081	35.16
853.256	39.25
853.431	24.92
853.606	49.49
853.781	20.82
853.956	-16.04
854.131	53.59
854.305	35.16
854.48	102.74
854.655	-18.09
854.83	41.3
855.005	16.73
855.18	-36.52
855.354	24.92
855.529	55.64
855.704	67.92
855.879	110.93
856.053	4.44
856.228	84.31
856.403	74.07
856.577	82.26
856.752	-22.19
856.926	16.73
857.101	49.49
857.276	-18.09
857.45	-1.71
857.625	49.49
857.799	39.25
857.974	33.11
858.148	14.68
858.323	59.73
858.497	57.68
858.672	47.44
858.846	80.21
859.02	37.2
859.195	-36.52
859.369	67.92
859.543	18.77
859.718	-5.8
859.892	26.96
860.066	61.78
860.241	29.01
860.415	33.11
860.589	16.73
860.763	33.11
860.938	69.97
861.112	92.5
861.286	-3.75
861.46	63.83
861.634	61.78
861.808	45.4
861.982	-3.75
862.157	26.96
862.331	-52.91
862.505	39.25
862.679	39.25
862.853	-54.95
863.027	10.58
863.201	37.2
863.375	8.53
863.549	-32.43
863.722	59.73
863.896	22.87
864.07	8.53
864.244	100.69
864.418	18.77
864.592	55.64
864.766	-38.57
864.939	51.54
865.113	-11.95
865.287	57.68
865.461	49.49
865.634	43.35
865.808	14.68
865.982	16.73
866.156	-24.23
866.329	53.59
866.503	94.55
866.676	22.87
866.85	-30.38
867.024	-30.38
867.197	102.74
867.371	33.11
867.544	45.4
867.718	43.35
867.891	112.98
868.065	-1.71
868.238	57.68
868.412	29.01
868.585	49.49
868.759	24.92
868.932	51.54
869.105	67.92
869.279	-3.75
869.452	-32.43
869.625	61.78
869.799	14.68
869.972	16.73
870.145	100.69
870.319	72.02
870.492	26.96
870.665	-34.47
870.838	10.58
871.011	-20.14
871.185	67.92
871.358	0.34
871.531	100.69
871.704	49.49
871.877	0.34
872.05	12.63
872.223	55.64
872.396	16.73
872.569	45.4
872.742	110.93
872.915	45.4
873.088	10.58
873.261	26.96
873.434	16.73
873.607	61.78
873.78	47.44
873.953	39.25
874.126	-3.75
874.299	-7.85
874.471	12.63
874.644	12.63
874.817	69.97
874.99	24.92
875.163	26.96
875.335	24.92
875.508	-1.71
875.681	22.87
875.853	51.54
876.026	47.44
876.199	65.88
876.371	-13.99
876.544	137.56
876.717	14.68
876.889	0.34
877.062	26.96
877.234	14.68
877.407	-63.15
877.579	-46.76
877.752	108.88
877.924	67.92
878.097	26.96
878.269	35.16
878.442	78.16
878.614	4.44
878.786	-7.85
878.959	45.4
879.131	78.16
879.303	43.35
879.476	47.44
879.648	74.07
879.82	-65.19
879.993	-52.91
880.165	59.73
880.337	22.87
880.509	100.69
880.681	4.44
880.854	76.12
881.026	22.87
881.198	127.32
881.37	26.96
881.542	16.73
881.714	18.77
881.886	-61.1
882.058	8.53
882.23	24.92
882.402	53.59
882.574	-13.99
882.746	53.59
882.918	59.73
883.09	-3.75
883.262	8.53
883.434	67.92
883.606	-32.43
883.778	51.54
883.95	84.31
884.122	-1.71
884.293	49.49
884.465	-5.8
884.637	-40.62
884.809	8.53
884.98	37.2
885.152	55.64
885.324	39.25
885.496	82.26
885.667	125.27
885.839	14.68
886.011	61.78
886.182	47.44
886.354	10.58
886.525	41.3
886.697	110.93
886.869	-44.71
887.04	8.53
887.212	43.35
887.383	102.74
887.555	22.87
887.726	31.06
887.897	-5.8
888.069	24.92
888.24	24.92
888.412	47.44
888.583	-34.47
888.754	55.64
888.926	43.35
889.097	84.31
889.268	-44.71
889.44	63.83
889.611	18.77
889.782	-28.33
889.953	-20.14
890.125	41.3
890.296	8.53
890.467	2.39
890.638	78.16
890.809	10.58
890.98	29.01
891.151	37.2
891.323	0.34
891.494	74.07
891.665	-26.28
891.836	4.44
892.007	16.73
892.178	18.77
892.349	41.3
892.52	-16.04
892.691	67.92
892.862	35.16
893.032	43.35
893.203	-30.38
893.374	33.11
893.545	102.74
893.716	-63.15
893.887	4.44
894.057	22.87
894.228	35.16
894.399	47.44
894.57	24.92
894.74	-30.38
894.911	92.5
895.082	74.07
895.253	-24.23
895.423	-50.86
895.594	12.63
895.764	76.12
895.935	8.53
896.106	69.97
896.276	10.58
896.447	24.92
896.617	-32.43
896.788	39.25
896.958	-16.04
897.129	67.92
897.299	61.78
897.47	-65.19
897.64	43.35
897.81	-9.9
897.981	4.44
898.151	16.73
898.322	-30.38
898.492	65.88
898.662	84.31
898.832	6.49
899.003	12.63
899.173	10.58
899.343	29.01
899.513	-104.11
