Data from USB4F104151__89__13-13-03-769.txt Node

Date: Fri Mar 14 13:13:03 EDT 2025
User: louis
Spectrometer: USB4F10415
Trigger mode: 4
Integration Time (sec): 2.000000E-2
Scans to average: 1
Electric dark correction enabled: true
Nonlinearity correction enabled: false
Boxcar width: 0
XAxis mode: Wavelengths
Number of Pixels in Spectrum: 3648
>>>>>Begin Spectral Data<<<<<
178.204	-97.28
178.424	-97.28
178.644	-97.28
178.864	-54.27
179.084	-144.38
179.304	-37.89
179.524	-29.7
179.744	29.7
179.964	25.6
180.184	-15.36
180.404	25.6
180.624	31.74
180.844	29.7
181.064	-23.55
181.283	-44.03
181.503	-58.37
181.723	66.56
181.943	-33.79
182.163	1.02
182.383	-5.12
182.602	17.41
182.822	27.65
183.042	-58.37
183.262	-33.79
183.482	-1.02
183.701	-52.22
183.921	-17.41
184.141	-115.71
184.361	9.22
184.58	-103.42
184.8	19.46
185.02	-125.95
185.239	29.7
185.459	-62.46
185.679	25.6
185.898	-46.08
186.118	60.42
186.338	33.79
186.557	39.94
186.777	-44.03
186.997	-21.5
187.216	5.12
187.436	35.84
187.655	11.26
187.875	11.26
188.095	25.6
188.314	-17.41
188.534	1.02
188.753	31.74
188.973	11.26
189.192	39.94
189.412	-41.98
189.631	-7.17
189.851	7.17
190.07	39.94
190.29	-74.75
190.509	37.89
190.729	-37.89
190.948	-31.74
191.168	50.18
191.387	54.27
191.607	-70.65
191.826	15.36
192.045	-72.7
192.265	52.22
192.484	-58.37
192.704	9.22
192.923	-41.98
193.142	44.03
193.362	-5.12
193.581	70.65
193.8	-17.41
194.02	52.22
194.239	-50.18
194.458	23.55
194.678	11.26
194.897	-7.17
195.116	-29.7
195.335	17.41
195.555	-39.94
195.774	-5.12
195.993	7.17
196.212	-23.55
196.432	-35.84
196.651	9.22
196.87	-48.13
197.089	41.98
197.308	-9.22
197.528	-1.02
197.747	31.74
197.966	-17.41
198.185	44.03
198.404	-46.08
198.623	-39.94
198.842	3.07
199.062	11.26
199.281	23.55
199.5	-5.12
199.719	31.74
199.938	-29.7
200.157	39.94
200.376	17.41
200.595	9.22
200.814	-15.36
201.033	-17.41
201.252	-41.98
201.471	-25.6
201.69	33.79
201.909	-7.17
202.128	70.65
202.347	-46.08
202.566	-64.51
202.785	-11.26
203.004	-3.07
203.223	60.42
203.442	27.65
203.661	-27.65
203.879	-21.5
204.098	-17.41
204.317	-9.22
204.536	31.74
204.755	19.46
204.974	101.37
205.193	3.07
205.411	41.98
205.63	11.26
205.849	27.65
206.068	105.47
206.287	21.5
206.505	46.08
206.724	27.65
206.943	-29.7
207.162	-33.79
207.381	19.46
207.599	58.37
207.818	5.12
208.037	-48.13
208.255	-95.23
208.474	54.27
208.693	-31.74
208.911	-23.55
209.13	-3.07
209.349	15.36
209.567	44.03
209.786	-54.27
210.005	-19.46
210.223	-31.74
210.442	31.74
210.661	-11.26
210.879	31.74
211.098	-29.7
211.316	-17.41
211.535	46.08
211.753	54.27
211.972	44.03
212.191	7.17
212.409	9.22
212.628	80.89
212.846	-58.37
213.065	80.89
213.283	52.22
213.502	-68.61
213.72	-1.02
213.938	17.41
214.157	-9.22
214.375	-1.02
214.594	17.41
214.812	1.02
215.031	11.26
215.249	-13.31
215.467	-50.18
215.686	-35.84
215.904	31.74
216.122	-62.46
216.341	-58.37
216.559	-95.23
216.778	-7.17
216.996	-7.17
217.214	-72.7
217.432	-21.5
217.651	50.18
217.869	11.26
218.087	3.07
218.306	29.7
218.524	39.94
218.742	-46.08
218.96	-13.31
219.179	9.22
219.397	-56.32
219.615	31.74
219.833	15.36
220.051	5.12
220.27	105.47
220.488	95.23
220.706	37.89
220.924	13.31
221.142	44.03
221.36	15.36
221.578	9.22
221.796	37.89
222.015	31.74
222.233	19.46
222.451	33.79
222.669	-17.41
222.887	-17.41
223.105	-9.22
223.323	13.31
223.541	-66.56
223.759	-13.31
223.977	7.17
224.195	29.7
224.413	39.94
224.631	17.41
224.849	23.55
225.067	78.85
225.285	15.36
225.503	-41.98
225.721	-130.05
225.939	-1.02
226.157	-37.89
226.375	62.46
226.592	-23.55
226.81	-13.31
227.028	64.51
227.246	-25.6
227.464	58.37
227.682	-64.51
227.9	-5.12
228.117	44.03
228.335	11.26
228.553	11.26
228.771	5.12
228.989	35.84
229.206	39.94
229.424	-41.98
229.642	-103.42
229.86	-27.65
230.077	7.17
230.295	50.18
230.513	46.08
230.731	17.41
230.948	64.51
231.166	41.98
231.384	-46.08
231.601	-54.27
231.819	33.79
232.037	-58.37
232.254	11.26
232.472	-64.51
232.689	-15.36
232.907	9.22
233.125	50.18
233.342	3.07
233.56	7.17
233.777	33.79
233.995	-3.07
234.213	7.17
234.43	-15.36
234.648	-37.89
234.865	-48.13
235.083	76.8
235.3	-9.22
235.518	-17.41
235.735	50.18
235.953	56.32
236.17	66.56
236.388	-58.37
236.605	-11.26
236.822	33.79
237.04	62.46
237.257	-39.94
237.475	-13.31
237.692	33.79
237.909	-25.6
238.127	46.08
238.344	35.84
238.562	-29.7
238.779	-5.12
238.996	37.89
239.214	27.65
239.431	76.8
239.648	-33.79
239.865	91.13
240.083	21.5
240.3	15.36
240.517	7.17
240.735	-89.09
240.952	-3.07
241.169	-11.26
241.386	-19.46
241.603	15.36
241.821	35.84
242.038	97.28
242.255	74.75
242.472	9.22
242.689	19.46
242.907	74.75
243.124	-52.22
243.341	-3.07
243.558	11.26
243.775	-19.46
243.992	-37.89
244.209	31.74
244.426	50.18
244.643	-13.31
244.86	-9.22
245.078	-17.41
245.295	56.32
245.512	17.41
245.729	17.41
245.946	11.26
246.163	3.07
246.38	-25.6
246.597	-15.36
246.814	-7.17
247.031	52.22
247.248	29.7
247.464	21.5
247.681	82.94
247.898	48.13
248.115	-95.23
248.332	-39.94
248.549	21.5
248.766	-17.41
248.983	31.74
249.2	7.17
249.417	-9.22
249.633	31.74
249.85	-9.22
250.067	33.79
250.284	-33.79
250.501	-33.79
250.717	44.03
250.934	-15.36
251.151	-27.65
251.368	1.02
251.585	-31.74
251.801	-103.42
252.018	-3.07
252.235	7.17
252.451	-78.85
252.668	-50.18
252.885	25.6
253.102	-17.41
253.318	-58.37
253.535	-9.22
253.752	-25.6
253.968	-46.08
254.185	-82.94
254.401	-62.46
254.618	7.17
254.835	-56.32
255.051	15.36
255.268	-3.07
255.484	-3.07
255.701	-11.26
255.917	-1.02
256.134	-74.75
256.351	17.41
256.567	-44.03
256.784	15.36
257	-46.08
257.217	19.46
257.433	-17.41
257.65	9.22
257.866	-44.03
258.082	-29.7
258.299	27.65
258.515	31.74
258.732	-19.46
258.948	33.79
259.165	5.12
259.381	-23.55
259.597	3.07
259.814	9.22
260.03	19.46
260.246	-70.65
260.463	3.07
260.679	-33.79
260.895	39.94
261.112	-64.51
261.328	-41.98
261.544	17.41
261.761	70.65
261.977	7.17
262.193	29.7
262.409	-31.74
262.626	31.74
262.842	58.37
263.058	-37.89
263.274	46.08
263.49	19.46
263.707	-3.07
263.923	46.08
264.139	-78.85
264.355	19.46
264.571	-3.07
264.787	-29.7
265.004	-25.6
265.22	11.26
265.436	9.22
265.652	25.6
265.868	15.36
266.084	-48.13
266.3	23.55
266.516	15.36
266.732	-41.98
266.948	-21.5
267.164	52.22
267.38	1.02
267.596	-1.02
267.812	76.8
268.028	-3.07
268.244	-7.17
268.46	-3.07
268.676	27.65
268.892	27.65
269.108	-33.79
269.324	-33.79
269.54	-39.94
269.756	3.07
269.972	-128
270.188	54.27
270.403	-33.79
270.619	7.17
270.835	-103.42
271.051	15.36
271.267	39.94
271.483	11.26
271.698	-58.37
271.914	-31.74
272.13	33.79
272.346	-5.12
272.562	21.5
272.777	-13.31
272.993	-33.79
273.209	-9.22
273.425	15.36
273.64	25.6
273.856	-48.13
274.072	-31.74
274.287	-13.31
274.503	39.94
274.719	17.41
274.934	-76.8
275.15	-21.5
275.366	-76.8
275.581	-74.75
275.797	-9.22
276.012	-27.65
276.228	70.65
276.444	1.02
276.659	-37.89
276.875	-7.17
277.09	25.6
277.306	-29.7
277.521	33.79
277.737	-1.02
277.952	-35.84
278.168	62.46
278.383	1.02
278.599	17.41
278.814	-39.94
279.03	1.02
279.245	11.26
279.461	-25.6
279.676	37.89
279.892	3.07
280.107	25.6
280.322	-33.79
280.538	27.65
280.753	-9.22
280.969	-1.02
281.184	-11.26
281.399	-1.02
281.615	7.17
281.83	-15.36
282.045	-5.12
282.26	-91.13
282.476	23.55
282.691	62.46
282.906	74.75
283.122	-37.89
283.337	-93.18
283.552	15.36
283.767	9.22
283.983	-62.46
284.198	-64.51
284.413	46.08
284.628	-15.36
284.843	-1.02
285.058	27.65
285.274	-17.41
285.489	23.55
285.704	23.55
285.919	-19.46
286.134	-84.99
286.349	13.31
286.564	-25.6
286.779	-70.65
286.995	27.65
287.21	13.31
287.425	46.08
287.64	-41.98
287.855	35.84
288.07	-33.79
288.285	21.5
288.5	-27.65
288.715	9.22
288.93	-31.74
289.145	-17.41
289.36	5.12
289.575	-23.55
289.79	87.04
290.004	13.31
290.219	9.22
290.434	-39.94
290.649	-33.79
290.864	21.5
291.079	1.02
291.294	31.74
291.509	15.36
291.724	5.12
291.938	9.22
292.153	-39.94
292.368	-13.31
292.583	56.32
292.798	7.17
293.012	5.12
293.227	21.5
293.442	19.46
293.657	107.52
293.871	48.13
294.086	23.55
294.301	17.41
294.516	-27.65
294.73	58.37
294.945	9.22
295.16	37.89
295.374	101.37
295.589	11.26
295.804	1.02
296.018	-5.12
296.233	-17.41
296.447	72.7
296.662	-9.22
296.877	-7.17
297.091	15.36
297.306	23.55
297.52	-39.94
297.735	-60.42
297.949	-17.41
298.164	25.6
298.378	50.18
298.593	-44.03
298.807	11.26
299.022	3.07
299.236	17.41
299.451	-31.74
299.665	-87.04
299.88	7.17
300.094	9.22
300.309	9.22
300.523	11.26
300.737	-1.02
300.952	-25.6
301.166	-7.17
301.381	21.5
301.595	-39.94
301.809	41.98
302.024	-27.65
302.238	-25.6
302.452	-21.5
302.667	46.08
302.881	17.41
303.095	35.84
303.309	-3.07
303.524	-78.85
303.738	-23.55
303.952	-23.55
304.166	-25.6
304.381	-68.61
304.595	50.18
304.809	13.31
305.023	99.33
305.237	-41.98
305.452	-19.46
305.666	19.46
305.88	-58.37
306.094	-9.22
306.308	-1.02
306.522	9.22
306.736	31.74
306.95	-7.17
307.164	50.18
307.379	44.03
307.593	-21.5
307.807	74.75
308.021	29.7
308.235	15.36
308.449	72.7
308.663	33.79
308.877	132.09
309.091	-70.65
309.305	5.12
309.519	-19.46
309.733	-54.27
309.947	31.74
310.161	-23.55
310.374	31.74
310.588	31.74
310.802	-1.02
311.016	-41.98
311.23	33.79
311.444	7.17
311.658	-56.32
311.872	80.89
312.085	23.55
312.299	87.04
312.513	17.41
312.727	-84.99
312.941	-19.46
313.154	35.84
313.368	7.17
313.582	46.08
313.796	15.36
314.009	-72.7
314.223	-31.74
314.437	39.94
314.651	-37.89
314.864	-1.02
315.078	-13.31
315.292	-48.13
315.505	-91.13
315.719	-1.02
315.933	-7.17
316.146	-44.03
316.36	21.5
316.573	33.79
316.787	3.07
317.001	-29.7
317.214	-74.75
317.428	7.17
317.641	-5.12
317.855	23.55
318.068	-21.5
318.282	27.65
318.495	33.79
318.709	33.79
318.922	62.46
319.136	15.36
319.349	97.28
319.563	-54.27
319.776	52.22
319.99	9.22
320.203	-9.22
320.417	-9.22
320.63	48.13
320.843	89.09
321.057	-52.22
321.27	37.89
321.483	29.7
321.697	54.27
321.91	46.08
322.124	37.89
322.337	15.36
322.55	-31.74
322.763	-1.02
322.977	84.99
323.19	9.22
323.403	-11.26
323.617	-37.89
323.83	1.02
324.043	19.46
324.256	93.18
324.469	62.46
324.683	19.46
324.896	-17.41
325.109	-41.98
325.322	-66.56
325.535	-19.46
325.748	39.94
325.962	11.26
326.175	39.94
326.388	-3.07
326.601	27.65
326.814	13.31
327.027	-41.98
327.24	13.31
327.453	-99.33
327.666	33.79
327.879	-58.37
328.092	25.6
328.305	48.13
328.518	-60.42
328.731	-1.02
328.944	107.52
329.157	39.94
329.37	-17.41
329.583	70.65
329.796	-107.52
330.009	109.57
330.222	-7.17
330.435	-62.46
330.648	39.94
330.861	82.94
331.073	58.37
331.286	9.22
331.499	-17.41
331.712	-23.55
331.925	66.56
332.138	-31.74
332.35	44.03
332.563	-11.26
332.776	27.65
332.989	-15.36
333.202	31.74
333.414	39.94
333.627	-23.55
333.84	-25.6
334.053	27.65
334.265	-25.6
334.478	-68.61
334.691	25.6
334.903	-54.27
335.116	7.17
335.329	48.13
335.541	39.94
335.754	7.17
335.966	1.02
336.179	-58.37
336.392	76.8
336.604	-3.07
336.817	-25.6
337.029	13.31
337.242	41.98
337.454	44.03
337.667	-27.65
337.88	56.32
338.092	46.08
338.305	39.94
338.517	-25.6
338.729	15.36
338.942	23.55
339.154	9.22
339.367	-37.89
339.579	5.12
339.792	35.84
340.004	19.46
340.217	-66.56
340.429	1.02
340.641	-121.85
340.854	-3.07
341.066	-74.75
341.278	62.46
341.491	3.07
341.703	-3.07
341.915	-39.94
342.128	54.27
342.34	-17.41
342.552	-58.37
342.764	-5.12
342.977	5.12
343.189	11.26
343.401	5.12
343.613	-11.26
343.826	7.17
344.038	27.65
344.25	-15.36
344.462	41.98
344.674	-33.79
344.886	-29.7
345.099	1.02
345.311	-91.13
345.523	-48.13
345.735	-11.26
345.947	35.84
346.159	-23.55
346.371	27.65
346.583	-29.7
346.795	50.18
347.007	-31.74
347.219	60.42
347.431	-46.08
347.643	31.74
347.855	52.22
348.067	46.08
348.279	17.41
348.491	11.26
348.703	62.46
348.915	25.6
349.127	-9.22
349.339	91.13
349.551	-48.13
349.763	35.84
349.975	3.07
350.187	46.08
350.399	97.28
350.61	44.03
350.822	9.22
351.034	78.85
351.246	15.36
351.458	23.55
351.669	-52.22
351.881	9.22
352.093	-48.13
352.305	66.56
352.517	60.42
352.728	15.36
352.94	13.31
353.152	31.74
353.363	-21.5
353.575	31.74
353.787	54.27
353.999	31.74
354.21	5.12
354.422	-11.26
354.633	1.02
354.845	-21.5
355.057	62.46
355.268	17.41
355.48	1.02
355.692	-41.98
355.903	-70.65
356.115	-23.55
356.326	-37.89
356.538	33.79
356.749	5.12
356.961	-27.65
357.172	23.55
357.384	-60.42
357.595	50.18
357.807	50.18
358.018	-60.42
358.23	-23.55
358.441	62.46
358.653	-66.56
358.864	13.31
359.075	35.84
359.287	27.65
359.498	-3.07
359.709	-17.41
359.921	-87.04
360.132	68.61
360.344	11.26
360.555	5.12
360.766	-17.41
360.977	68.61
361.189	-50.18
361.4	21.5
361.611	3.07
361.823	-9.22
362.034	19.46
362.245	-11.26
362.456	-17.41
362.667	39.94
362.879	-119.81
363.09	50.18
363.301	62.46
363.512	41.98
363.723	-3.07
363.935	-37.89
364.146	-7.17
364.357	-46.08
364.568	15.36
364.779	-78.85
364.99	48.13
365.201	-15.36
365.412	-3.07
365.623	58.37
365.834	41.98
366.045	-58.37
366.256	13.31
366.467	3.07
366.678	21.5
366.889	52.22
367.1	-5.12
367.311	-48.13
367.522	-48.13
367.733	27.65
367.944	44.03
368.155	-39.94
368.366	11.26
368.577	5.12
368.788	68.61
368.999	76.8
369.209	1.02
369.42	1.02
369.631	87.04
369.842	-17.41
370.053	-54.27
370.264	-9.22
370.474	33.79
370.685	70.65
370.896	33.79
371.107	44.03
371.317	-9.22
371.528	33.79
371.739	15.36
371.95	19.46
372.16	39.94
372.371	-23.55
372.582	27.65
372.792	-17.41
373.003	74.75
373.214	-7.17
373.424	-29.7
373.635	23.55
373.846	9.22
374.056	66.56
374.267	82.94
374.477	-60.42
374.688	-7.17
374.898	7.17
375.109	-7.17
375.319	-68.61
375.53	-9.22
375.74	11.26
375.951	-66.56
376.161	29.7
376.372	48.13
376.582	-46.08
376.793	-1.02
377.003	-89.09
377.214	35.84
377.424	-33.79
377.635	-3.07
377.845	13.31
378.055	-1.02
378.266	-27.65
378.476	-11.26
378.686	35.84
378.897	35.84
379.107	-7.17
379.317	-41.98
379.528	-7.17
379.738	7.17
379.948	-72.7
380.158	39.94
380.369	-13.31
380.579	11.26
380.789	52.22
380.999	-19.46
381.21	17.41
381.42	80.89
381.63	-1.02
381.84	19.46
382.05	11.26
382.261	-13.31
382.471	50.18
382.681	15.36
382.891	23.55
383.101	15.36
383.311	5.12
383.521	1.02
383.731	64.51
383.941	70.65
384.151	3.07
384.361	21.5
384.571	-13.31
384.781	29.7
384.991	50.18
385.201	66.56
385.411	31.74
385.621	25.6
385.831	-37.89
386.041	58.37
386.251	64.51
386.461	115.71
386.671	23.55
386.881	39.94
387.091	-17.41
387.301	-50.18
387.511	9.22
387.72	5.12
387.93	66.56
388.14	-74.75
388.35	33.79
388.56	-11.26
388.769	128
388.979	58.37
389.189	9.22
389.399	-31.74
389.609	-19.46
389.818	46.08
390.028	13.31
390.238	82.94
390.447	-1.02
390.657	29.7
390.867	-23.55
391.076	11.26
391.286	44.03
391.496	-97.28
391.705	-46.08
391.915	19.46
392.125	-13.31
392.334	25.6
392.544	-5.12
392.753	25.6
392.963	-46.08
393.172	93.18
393.382	15.36
393.591	164.86
393.801	21.5
394.01	84.99
394.22	-15.36
394.429	11.26
394.639	-25.6
394.848	1.02
395.058	35.84
395.267	-54.27
395.477	56.32
395.686	68.61
395.895	95.23
396.105	44.03
396.314	3.07
396.524	5.12
396.733	50.18
396.942	1.02
397.152	13.31
397.361	27.65
397.57	41.98
397.78	91.13
397.989	29.7
398.198	5.12
398.407	31.74
398.617	-17.41
398.826	-39.94
399.035	72.7
399.244	25.6
399.453	99.33
399.663	50.18
399.872	80.89
400.081	11.26
400.29	146.43
400.499	-44.03
400.708	44.03
400.917	3.07
401.127	25.6
401.336	52.22
401.545	119.81
401.754	52.22
401.963	89.09
402.172	66.56
402.381	52.22
402.59	41.98
402.799	35.84
403.008	117.76
403.217	89.09
403.426	27.65
403.635	31.74
403.844	95.23
404.053	72.7
404.262	48.13
404.471	132.09
404.68	66.56
404.888	142.33
405.097	130.05
405.306	-27.65
405.515	39.94
405.724	82.94
405.933	27.65
406.142	39.94
406.35	58.37
406.559	113.66
406.768	132.09
406.977	66.56
407.185	50.18
407.394	93.18
407.603	56.32
407.812	25.6
408.02	107.52
408.229	82.94
408.438	117.76
408.646	154.62
408.855	99.33
409.064	89.09
409.272	97.28
409.481	91.13
409.69	111.61
409.898	140.29
410.107	72.7
410.315	130.05
410.524	160.77
410.733	146.43
410.941	183.29
411.15	203.77
411.358	230.4
411.567	181.25
411.775	191.49
411.984	173.05
412.192	220.16
412.401	166.91
412.609	259.07
412.818	244.73
413.026	318.46
413.234	228.35
413.443	259.07
413.651	240.64
413.86	236.54
414.068	310.27
414.276	351.23
414.485	304.12
414.693	324.6
414.901	343.03
415.11	302.08
415.318	351.23
415.526	406.52
415.734	330.75
415.943	398.33
416.151	373.75
416.359	394.23
416.567	398.33
416.776	449.53
416.984	506.87
417.192	513.02
417.4	455.67
417.608	459.77
417.817	488.44
418.025	599.03
418.233	549.88
418.441	576.5
418.649	556.02
418.857	619.51
419.065	709.62
419.273	627.7
419.481	680.95
419.689	689.14
419.897	752.63
420.105	771.06
420.313	705.53
420.521	779.25
420.729	818.16
420.937	902.13
421.145	879.6
421.353	990.19
421.561	1000.43
421.769	1055.73
421.977	1027.06
422.185	1090.54
422.393	1086.45
422.601	1164.27
422.809	1139.69
423.017	1174.51
423.224	1164.27
423.432	1299.44
423.64	1301.48
423.848	1356.78
424.056	1436.65
424.263	1383.4
424.471	1440.75
424.679	1401.83
424.887	1586.15
425.094	1625.06
425.302	1678.31
425.51	1739.75
425.718	1809.38
425.925	1797.09
426.133	1700.84
426.341	1883.11
426.548	2079.71
426.756	1983.46
426.964	1971.17
427.171	2206.69
427.379	2221.02
427.586	2210.78
427.794	2259.93
428.001	2345.95
428.209	2434.01
428.417	2440.15
428.624	2542.55
428.832	2632.66
429.039	2612.18
429.247	2577.37
429.454	2853.84
429.662	3158.99
429.869	2894.8
430.076	3140.56
430.284	2984.91
430.491	3124.18
430.699	3204.05
430.906	3345.36
431.114	3439.56
431.321	3503.05
431.528	3537.87
431.736	3785.67
431.943	4117.44
432.15	3922.88
432.358	3834.82
432.565	4185.02
432.772	4096.96
432.979	4359.1
433.187	4307.9
433.394	4414.4
433.601	4879.29
433.808	4598.71
434.016	4748.22
434.223	4903.86
434.43	5254.06
434.637	5135.28
434.844	5305.26
435.052	5534.64
435.259	5325.74
435.466	5331.89
435.673	5553.07
435.88	5733.29
436.087	6101.92
436.294	6163.36
436.501	6075.3
436.708	6214.56
436.915	6345.63
437.122	6503.32
437.329	6691.74
437.537	6826.9
437.743	6865.82
437.95	6855.58
438.157	7031.7
438.364	7424.91
438.571	7455.63
438.778	7498.64
438.985	8182.66
439.192	7908.23
439.399	8192.9
439.606	7848.84
439.813	8301.44
440.02	8997.75
440.227	8655.74
440.433	8543.1
440.64	8901.5
440.847	9020.28
441.054	9214.84
441.261	9714.54
441.467	9487.22
441.674	9710.44
441.881	10025.83
442.088	10187.62
442.294	9937.77
442.501	10136.42
442.708	10689.37
442.914	10838.87
443.121	11418.45
443.328	10990.42
443.534	11762.51
443.741	11793.23
443.948	11311.96
444.154	12260.16
444.361	12024.65
444.568	12110.66
444.774	12282.69
444.981	12426.05
445.187	12761.92
445.394	13191.99
445.6	13103.93
445.807	14383.91
446.013	13583.15
446.22	14005.03
446.426	14678.82
446.633	14695.2
446.839	15182.62
447.046	14570.27
447.252	15336.21
447.459	15366.93
447.665	15473.43
447.871	16313.1
448.078	16853.76
448.284	15790.86
448.491	16517.89
448.697	16978.68
448.903	17382.13
449.11	17079.04
449.316	17224.44
449.522	17490.68
449.728	18049.77
449.935	18133.74
450.141	18105.07
450.347	18662.12
450.553	17851.12
450.76	18201.32
450.966	18799.33
451.172	18383.59
451.378	19018.46
451.584	18803.43
451.791	19266.27
451.997	19317.47
452.203	19546.84
452.409	19487.45
452.615	19505.88
452.821	18684.64
453.027	18492.13
453.233	19559.13
453.44	18883.3
453.646	18967.26
453.852	19176.16
454.058	19526.36
454.264	18825.95
454.47	19415.77
454.676	18799.33
454.882	19456.73
455.088	17603.32
455.294	18012.91
455.5	18182.89
455.705	18758.37
455.911	17674.99
456.117	17584.88
456.323	17378.04
456.529	16562.95
456.735	17310.46
456.941	16763.65
457.147	16474.88
457.352	15717.14
457.558	15833.87
457.764	15760.14
457.97	15323.93
458.176	15297.3
458.381	15035.16
458.587	14412.58
458.793	14426.92
458.999	13640.5
459.204	14627.62
459.41	14355.24
459.616	13257.53
459.821	13493.04
460.027	13247.29
460.233	12942.14
460.438	12446.53
460.644	12536.64
460.85	12004.17
461.055	11866.95
461.261	11758.41
461.466	10804.06
461.672	10675.04
461.878	11346.77
462.083	10642.27
462.289	10402.66
462.494	10359.65
462.7	10007.4
462.905	9438.06
463.111	9775.98
463.316	9839.47
463.522	9798.51
463.727	9780.07
463.932	9657.2
464.138	9542.51
464.343	9669.48
464.549	9352.05
464.754	9538.41
464.959	9497.46
465.165	9339.76
465.37	9028.47
465.575	8803.19
465.781	9132.92
465.986	9218.93
466.191	8952.7
466.397	8510.33
466.602	8278.91
466.807	8551.29
467.012	8594.3
467.218	8608.64
467.423	8426.37
467.628	8520.57
467.833	8895.35
468.038	8575.87
468.244	8391.55
468.449	8500.09
468.654	8379.26
468.859	8240
469.064	8266.63
469.269	7750.54
469.474	7932.81
469.679	8170.37
469.885	7789.45
470.09	7787.4
470.295	7979.91
470.5	7699.34
470.705	7961.48
470.91	7656.33
471.115	7693.19
471.32	7836.55
471.525	7717.77
471.73	7441.29
471.935	7519.12
472.139	7066.52
472.344	7437.2
472.549	7148.43
472.754	7244.69
472.959	6945.69
473.164	6730.65
473.369	6841.24
473.574	7021.46
473.778	6906.77
473.983	6781.85
474.188	6892.44
474.393	6609.82
474.598	6523.8
474.802	6564.76
475.007	6427.55
475.212	6505.37
475.417	6218.66
475.621	6232.99
475.826	6110.11
476.031	6142.88
476.235	6120.35
476.44	6208.42
476.645	5874.6
476.849	5890.98
477.054	5966.76
477.259	5843.88
477.463	5727.14
477.668	5653.42
477.872	5778.34
478.077	5622.7
478.282	5637.03
478.486	5573.55
478.691	5469.1
478.895	5645.23
479.1	5440.43
479.304	5303.22
479.509	5264.3
479.713	5432.24
479.918	5333.93
480.122	5196.72
480.326	5266.35
480.531	5235.63
480.735	5393.33
480.94	5018.55
481.144	5338.03
481.348	5047.22
481.553	5278.64
481.757	4975.54
481.961	5102.51
482.166	5065.65
482.37	5094.32
482.574	4936.63
482.778	5102.51
482.983	5137.33
483.187	5088.18
483.391	5106.61
483.595	4969.4
483.8	4854.71
484.004	5047.22
484.208	5063.6
484.412	4950.96
484.616	4996.02
484.821	4993.97
485.025	4838.33
485.229	5084.08
485.433	4907.96
485.637	5012.4
485.841	4914.1
486.045	4959.16
486.249	4940.72
486.453	4848.57
486.657	5047.22
486.861	5151.67
487.065	4826.04
487.269	4928.44
487.473	4799.41
487.677	5137.33
487.881	5112.75
488.085	5098.42
488.289	5120.95
488.493	4774.84
488.697	5045.17
488.901	5143.47
489.105	5043.12
489.309	5106.61
489.512	5102.51
489.716	5012.4
489.92	5082.03
490.124	5159.86
490.328	5135.28
490.531	4901.81
490.735	5008.31
490.939	5131.19
491.143	5104.56
491.346	5129.14
491.55	5317.55
491.754	5315.5
491.958	5178.29
492.161	5036.98
492.365	5149.62
492.569	5239.73
492.772	5174.19
492.976	5403.57
493.18	5270.45
493.383	5374.89
493.587	5483.44
493.79	5446.57
493.994	5321.65
494.197	5364.65
494.401	5454.76
494.605	5479.34
494.808	5634.99
495.012	5616.55
495.215	5692.33
495.419	5698.47
495.622	5634.99
495.825	5749.67
496.029	5770.15
496.232	6044.58
496.436	5770.15
496.639	6003.62
496.843	6005.67
497.046	6114.21
497.249	6122.4
497.453	6312.86
497.656	6374.3
497.859	6294.43
498.063	6376.35
498.266	6431.65
498.469	6456.22
498.673	6656.92
498.876	6605.72
499.079	6701.98
499.282	6589.34
499.485	6800.28
499.689	6880.15
499.892	6957.97
500.095	7062.42
500.298	7099.28
500.501	6988.69
500.705	7320.46
500.908	7318.42
501.111	7607.18
501.314	7502.73
501.517	7685
501.72	7791.5
501.923	7537.55
502.126	7777.16
502.329	7857.03
502.532	7816.07
502.735	7912.33
502.938	8231.81
503.141	8113.03
503.344	8354.69
503.547	8217.47
503.75	8680.32
503.953	8516.48
504.156	8743.8
504.359	8741.75
504.562	8813.43
504.765	8899.45
504.968	9014.13
505.17	9220.98
505.373	9253.75
505.576	9575.28
505.779	9423.73
505.982	9335.67
506.185	9732.97
506.387	9851.75
506.59	9788.27
506.793	9882.47
506.996	10025.83
507.198	10312.55
507.401	10406.75
507.604	10292.07
507.807	10337.12
508.009	10568.54
508.212	10566.49
508.415	10904.41
508.617	11119.45
508.82	11105.11
509.022	11166.55
509.225	11281.24
509.428	11295.57
509.63	11430.74
509.833	11502.42
510.035	11762.51
510.238	11840.33
510.44	11940.68
510.643	12233.54
510.845	12229.45
511.048	12141.38
511.25	12399.43
511.453	12524.35
511.655	12950.33
511.858	12634.94
512.06	12981.05
512.262	12964.67
512.465	12888.89
512.667	13331.25
512.87	13454.13
513.072	13372.21
513.274	13775.66
513.477	13777.71
513.679	14043.95
513.881	14232.36
514.084	14240.55
514.286	14273.32
514.488	14383.91
514.69	14422.82
514.893	14924.57
515.095	14932.76
515.297	14811.93
515.499	15127.32
515.701	15360.79
515.904	15481.62
516.106	15586.07
516.308	15667.98
516.51	15991.56
516.712	16024.33
516.914	16263.94
517.116	16403.21
517.318	16403.21
517.52	16642.82
517.722	16532.23
517.925	17046.27
518.127	17150.71
518.329	17410.81
518.531	17163
518.733	17861.36
518.935	17607.41
519.136	17615.6
519.338	17951.47
519.54	18131.69
519.742	18381.54
519.944	18326.25
520.146	18789.09
520.348	18801.38
520.55	18799.33
520.752	18901.73
520.954	19307.23
521.155	19163.87
521.357	19571.41
521.559	19907.28
521.761	19946.19
521.963	20040.4
522.164	20089.55
522.366	20136.65
522.568	20497.1
522.77	20624.07
522.971	20873.92
523.173	20638.41
523.375	21060.29
523.576	20931.26
523.778	21353.15
523.98	21277.37
524.181	21547.7
524.383	21447.35
524.584	21738.16
524.786	21529.27
524.988	21654.2
525.189	22141.61
525.391	22440.62
525.592	22555.3
525.794	22528.68
525.995	22923.94
526.197	22403.75
526.398	22868.64
526.6	23057.06
526.801	23063.2
527.003	22915.75
527.204	23122.59
527.406	23354.01
527.607	23179.93
527.808	23931.54
528.01	23116.45
528.211	23403.16
528.412	23765.65
528.614	24050.32
528.815	23839.38
529.016	24193.68
529.218	24148.62
529.419	24056.46
529.62	24210.06
529.822	24140.43
530.023	24423.05
530.224	24140.43
530.425	24572.55
530.626	24173.2
530.828	24126.1
531.029	24775.3
531.23	24384.14
531.431	24355.47
531.632	24779.4
531.833	24644.23
532.035	24613.51
532.236	24900.23
532.437	24808.07
532.638	25148.03
532.839	24986.24
533.04	25123.46
533.241	24722.05
533.442	25229.95
533.643	25336.45
533.844	24902.28
534.045	25254.53
534.246	25051.78
534.447	25793.14
534.648	25014.91
534.849	25354.88
535.05	25082.5
535.251	25262.72
535.451	24982.15
535.652	25508.47
535.853	25205.38
536.054	25295.49
536.255	25401.98
536.456	25268.86
536.657	25508.47
536.857	25223.81
537.058	25094.79
537.259	25404.03
537.46	25270.91
537.66	25475.71
537.861	25563.77
538.062	25369.21
538.263	25424.51
538.463	25019.01
538.664	25393.79
538.865	25346.69
539.065	25672.31
539.266	25334.4
539.466	25567.87
539.667	25191.04
539.868	25541.24
540.068	25625.21
540.269	25336.45
540.469	25707.13
540.67	25488
540.87	25608.83
541.071	25252.48
541.271	25225.86
541.472	25246.33
541.672	25289.34
541.873	25311.87
542.073	25156.22
542.274	25870.97
542.474	25522.81
542.675	25330.3
542.875	25444.99
543.075	25651.83
543.276	25467.52
543.476	25508.47
543.676	25176.7
543.877	25473.66
544.077	25322.11
544.277	25500.28
544.478	25428.6
544.678	25528.95
544.878	25336.45
545.078	25289.34
545.279	25162.37
545.479	24951.43
545.679	25453.18
545.879	25191.04
546.079	25129.6
546.28	25471.61
546.48	25088.64
546.68	25107.07
546.88	25381.5
547.08	25279.1
547.28	25156.22
547.48	24943.24
547.68	25232
547.88	24978.05
548.081	25211.52
548.281	25516.67
548.481	25338.49
548.681	25217.66
548.881	25021.06
549.081	25723.51
549.28	24980.1
549.48	25477.76
549.68	25215.62
549.88	25524.86
550.08	25201.28
550.28	25492.09
550.48	25242.24
550.68	25555.58
550.88	25238.14
551.08	25039.49
551.279	25336.45
551.479	25195.14
551.679	25283.2
551.879	25205.38
552.079	25242.24
552.278	25184.9
552.478	25029.25
552.678	25461.37
552.878	25258.62
553.077	25076.35
553.277	24967.81
553.477	24973.95
553.676	24750.73
553.876	25121.41
554.076	24949.38
554.275	25059.97
554.475	24789.64
554.674	25293.44
554.874	25002.63
555.074	24779.4
555.273	25139.84
555.473	25182.85
555.672	24799.88
555.872	24957.57
556.071	25055.87
556.271	24715.91
556.47	24527.5
556.67	24552.07
556.869	24531.59
557.068	24674.95
557.268	24779.4
557.467	24779.4
557.667	24599.18
557.866	24722.05
558.065	24378
558.265	24480.39
558.464	24330.89
558.663	24732.29
558.863	24244.88
559.062	24789.64
559.261	24226.45
559.461	24789.64
559.66	24156.82
559.859	24330.89
560.058	24189.58
560.258	24494.73
560.457	23855.76
560.656	24156.82
560.855	24162.96
561.054	24169.1
561.253	23730.84
561.453	23823
561.652	23945.87
561.851	23884.44
562.05	23650.97
562.249	23671.45
562.448	23870.1
562.647	23589.53
562.846	23366.3
563.045	23616.15
563.244	23534.23
563.443	23567
563.642	23300.76
563.841	23296.67
564.04	23145.12
564.239	23540.38
564.438	23034.53
564.637	23173.79
564.836	23313.05
565.035	23003.81
565.234	22633.13
565.432	23040.67
565.631	22952.61
565.83	22882.98
566.029	22706.85
566.228	22536.87
566.427	22428.33
566.625	22543.02
566.824	22338.22
567.023	22553.26
567.222	22342.32
567.42	22254.25
567.619	22250.16
567.818	22276.78
568.016	22014.64
568.215	22622.89
568.414	21742.26
568.612	22158
568.811	21936.82
569.01	21842.61
569.208	21484.22
569.407	21871.28
569.605	21326.52
569.804	21854.9
570.002	21250.75
570.201	21652.15
570.4	21586.61
570.598	21562.04
570.797	21197.5
570.995	20927.17
571.193	21041.85
571.392	21150.4
571.59	20898.5
571.789	21107.39
571.987	21148.35
572.186	20691.65
572.384	20785.86
572.582	20667.08
572.781	20622.02
572.979	20392.65
573.177	20509.38
573.376	20525.77
573.574	20349.64
573.772	20380.36
573.971	20372.17
574.169	20200.14
574.367	20216.52
574.565	20198.09
574.763	20021.97
574.962	19972.82
575.16	19835.6
575.358	19847.89
575.556	19749.59
575.754	20011.73
575.952	19565.27
576.151	19765.97
576.349	19434.2
576.547	19708.63
576.745	19704.53
576.943	19430.1
577.141	19407.58
577.339	19413.72
577.537	19225.31
577.735	19346.14
577.933	19047.13
578.131	19114.72
578.329	19192.54
578.527	19034.85
578.725	18871.01
578.923	19004.13
579.121	18883.3
579.319	18838.24
579.516	18807.52
579.714	18498.28
579.912	18674.4
580.11	18461.41
580.308	18713.31
580.506	18506.47
580.704	18350.82
580.901	18213.61
581.099	18590.44
581.297	18332.39
581.495	18184.94
581.692	18268.91
581.89	17967.85
582.088	17916.65
582.285	17957.61
582.483	18281.19
582.681	18105.07
582.878	18064.11
583.076	17758.96
583.274	17863.41
583.471	17447.67
583.669	17781.49
583.866	17515.25
584.064	17863.41
584.262	17744.63
584.459	17566.45
584.657	17640.18
584.854	17652.47
585.052	17224.44
585.249	17261.3
585.447	17380.09
585.644	17138.43
585.841	17138.43
586.039	17427.19
586.236	17128.19
586.434	16782.08
586.631	17019.64
586.828	16892.67
587.026	16990.97
587.223	16757.5
587.42	16577.28
587.618	16608
587.815	16739.07
588.012	16515.84
588.21	16472.84
588.407	16739.07
588.604	16403.21
588.801	16229.13
588.999	16358.15
589.196	16145.16
589.393	16319.24
589.59	16286.47
589.787	16202.5
589.984	16024.33
590.182	15962.89
590.379	16147.21
590.576	15936.27
590.773	16235.27
590.97	15831.82
591.167	16100.11
591.364	15702.8
591.561	15977.23
591.758	15635.22
591.955	15455
592.152	15579.92
592.349	15581.97
592.546	15649.55
592.743	15555.35
592.94	15403.8
593.137	15463.19
593.334	15321.88
593.531	15418.13
593.727	15403.8
593.924	15203.1
594.121	15199
594.318	15266.58
594.515	15252.25
594.712	15063.83
594.908	14975.77
595.105	15020.83
595.302	14584.61
595.499	14943
595.696	15082.27
595.892	14852.89
596.089	14748.45
596.286	14664.48
596.482	14697.25
596.679	14615.33
596.876	14607.14
597.072	14498.59
597.269	14717.73
597.466	14547.75
597.662	14250.79
597.859	14195.5
598.055	14199.59
598.252	14164.78
598.448	14490.4
598.645	14156.58
598.841	14117.67
599.038	14080.81
599.234	14052.14
599.431	13906.73
599.627	13779.76
599.824	13996.84
600.02	13814.57
600.217	14013.23
600.413	13853.48
600.609	13792.05
600.806	13746.99
601.002	13949.74
601.198	13488.95
601.395	13558.58
601.591	13626.16
601.787	13794.09
601.984	13691.7
602.18	13652.78
602.376	13513.52
602.572	13316.92
602.769	13431.6
602.965	13247.29
603.161	13185.85
603.357	13087.54
603.553	13161.27
603.75	13011.77
603.946	13071.16
604.142	13169.46
604.338	13009.72
604.534	13034.3
604.73	12882.75
604.926	13001.53
605.122	12829.5
605.318	12659.52
605.514	12553.02
605.71	12589.89
605.906	12778.3
606.102	12661.57
606.298	12778.3
606.494	12598.08
606.69	12501.83
606.886	12387.14
607.082	12426.05
607.278	12397.38
607.474	12430.15
607.67	12528.45
607.866	12022.6
608.062	12366.66
608.257	12432.19
608.453	12157.77
608.649	12286.79
608.845	12155.72
609.041	12186.44
609.236	12127.05
609.432	12086.09
609.628	12147.53
609.824	11873.1
610.019	12063.56
610.215	12002.12
610.411	11852.62
610.606	12036.94
610.802	11823.95
610.998	12010.31
611.193	11830.09
611.389	11709.26
611.584	11805.52
611.78	11819.85
611.976	11772.75
612.171	11838.28
612.367	11658.06
612.562	11629.39
612.758	11545.42
612.953	11641.68
613.149	11668.3
613.344	11785.04
613.539	11576.14
613.735	11449.17
613.93	11588.43
614.126	11381.59
614.321	11500.37
614.517	11385.68
614.712	11639.63
614.907	11443.03
615.103	11426.64
615.298	11248.47
615.493	11457.36
615.688	11219.8
615.884	11438.93
616.079	11139.93
616.274	11182.93
616.47	11184.98
616.665	11215.7
616.86	11068.25
617.055	11098.97
617.25	11117.4
617.445	11156.31
617.641	10945.37
617.836	11195.22
618.031	11008.86
618.226	11060.06
618.421	10754.91
618.616	10867.55
618.811	10748.76
619.006	11017.05
619.201	10648.41
619.396	10863.45
619.591	10445.66
619.786	10591.07
619.981	10675.04
620.176	10701.66
620.371	10552.16
620.566	10593.12
620.761	10410.85
620.956	10541.92
621.151	10376.03
621.346	10199.91
621.541	10156.9
621.735	10414.95
621.93	10103.65
622.125	10058.6
622.32	10023.78
622.515	10040.17
622.709	9888.62
622.904	10150.76
623.099	9861.99
623.294	9835.37
623.488	9589.61
623.683	9681.77
623.878	9583.47
624.072	9417.58
624.267	9614.19
624.462	9415.54
624.656	9472.88
624.851	9554.8
625.046	9331.57
625.24	9304.95
625.435	9118.58
625.629	9214.84
625.824	9143.16
626.018	8977.27
626.213	8706.94
626.407	8981.37
626.602	8813.43
626.796	8792.95
626.991	8901.5
627.185	8737.66
627.38	8811.39
627.574	8788.86
627.768	8792.95
627.963	8780.67
628.157	8479.61
628.352	8496
628.546	8612.73
628.74	8637.31
628.935	8438.66
629.129	8549.25
629.323	8260.48
629.517	8360.83
629.712	8092.55
629.906	8199.04
630.1	7959.43
630.294	8119.17
630.489	8100.74
630.683	8098.69
630.877	7854.98
631.071	7846.79
631.265	7957.38
631.459	7897.99
631.653	7922.57
631.848	7625.61
632.042	7809.93
632.236	7732.11
632.43	7728.01
632.624	7625.61
632.818	7586.7
633.012	7574.41
633.206	7461.77
633.4	7508.88
633.594	7457.68
633.788	7355.28
633.982	7248.79
634.176	7218.07
634.369	7277.46
634.563	7230.35
634.757	7269.27
634.951	7279.5
635.145	7238.55
635.339	7148.43
635.533	7240.59
635.726	7000.98
635.92	6978.45
636.114	6878.1
636.308	6947.73
636.501	6900.63
636.695	6867.86
636.889	6704.03
637.083	6736.79
637.276	6685.59
637.47	6626.2
637.664	6564.76
637.857	6644.63
638.051	6464.41
638.244	6499.23
638.438	6652.83
638.632	6529.95
638.825	6378.4
639.019	6466.46
639.212	6335.39
639.406	6226.85
639.599	6298.53
639.793	6294.43
639.986	6390.69
640.18	6208.42
640.373	6194.08
640.567	6128.55
640.76	6142.88
640.954	6187.94
641.147	6075.3
641.34	6130.59
641.534	5944.23
641.727	5893.03
641.92	6099.87
642.114	5749.67
642.307	5680.04
642.5	5741.48
642.694	5757.86
642.887	5653.42
643.08	5696.43
643.273	5784.49
643.467	5725.1
643.66	5548.97
643.853	5522.35
644.046	5596.07
644.239	5626.79
644.432	5448.62
644.626	5528.49
644.819	5434.29
645.012	5403.57
645.205	5411.76
645.398	5352.37
645.591	5356.46
645.784	5264.3
645.977	5262.26
646.17	5262.26
646.363	5174.19
646.556	5094.32
646.749	5133.23
646.942	5239.73
647.135	5045.17
647.328	5186.48
647.521	5055.41
647.714	4989.88
647.907	5063.6
648.099	4971.44
648.292	5071.79
648.485	5036.98
648.678	4828.09
648.871	5022.64
649.064	4844.47
649.256	4836.28
649.449	4803.51
649.642	4772.79
649.835	4780.98
650.027	4701.11
650.22	4694.97
650.413	4643.77
650.605	4735.93
650.798	4631.48
650.991	4578.23
651.183	4637.63
651.376	4363.2
651.568	4594.62
651.761	4537.27
651.954	4555.71
652.146	4461.5
652.339	4361.15
652.531	4383.68
652.724	4340.67
652.916	4447.16
653.109	4252.61
653.301	4379.58
653.494	4266.94
653.686	4182.98
653.879	4203.46
654.071	4053.95
654.263	4099.01
654.456	4123.59
654.648	4428.73
654.84	4012.99
655.033	4035.52
655.225	4168.64
655.417	3976.13
655.61	3931.08
655.802	4017.09
655.994	3994.56
656.186	3853.25
656.379	3990.47
656.571	3888.07
656.763	4029.38
656.955	3877.83
657.148	3939.27
657.34	3861.45
657.532	3781.57
657.724	3709.9
657.916	3873.73
658.108	3707.85
658.3	3761.09
658.492	3582.92
658.684	3689.42
658.876	3652.55
659.068	3736.52
659.26	3601.35
659.452	3681.22
659.644	3523.53
659.836	3537.87
660.028	3578.83
660.22	3509.19
660.412	3548.11
660.604	3496.91
660.796	3472.33
660.988	3507.15
661.18	3548.11
661.372	3490.76
661.563	3494.86
661.755	3466.19
661.947	3384.27
662.139	3357.64
662.331	3349.45
662.522	3234.77
662.714	3322.83
662.906	3216.33
663.097	3249.1
663.289	3285.97
663.481	3257.29
663.673	3197.9
663.864	3238.86
664.056	3193.81
664.247	3195.86
664.439	3216.33
664.631	3169.23
664.822	3066.83
665.014	3171.28
665.205	3124.18
665.397	3083.22
665.588	3189.71
665.78	3089.36
665.971	2974.67
666.163	3103.7
666.354	3120.08
666.546	2989.01
666.737	2999.25
666.929	2991.06
667.12	2950.1
667.311	3050.45
667.503	2821.08
667.694	2913.24
667.885	2804.69
668.077	2769.88
668.268	2874.32
668.459	2843.6
668.651	2845.65
668.842	2800.6
669.033	2829.27
669.224	2849.75
669.416	2798.55
669.607	2784.21
669.798	2790.36
669.989	2698.2
670.18	2735.06
670.371	2667.48
670.563	2538.46
670.754	2733.01
670.945	2741.21
671.136	2698.2
671.327	2642.9
671.518	2558.94
671.709	2767.83
671.9	2712.53
672.091	2649.05
672.282	2603.99
672.473	2548.7
672.664	2489.31
672.855	2444.25
673.046	2563.03
673.237	2569.18
673.428	2448.35
673.619	2505.69
673.809	2530.27
674	2497.5
674.191	2509.79
674.382	2505.69
674.573	2477.02
674.764	2470.87
674.954	2685.91
675.145	2356.19
675.336	2366.43
675.527	2462.68
675.717	2526.17
675.908	2300.89
676.099	2409.44
676.289	2264.03
676.48	2388.96
676.671	2307.04
676.861	2391
677.052	2335.71
677.243	2231.26
677.433	2309.08
677.624	2325.47
677.814	2221.02
678.005	2194.4
678.195	2319.32
678.386	2309.08
678.576	2100.19
678.767	2282.46
678.957	2274.27
679.148	2270.17
679.338	2339.8
679.529	2212.83
679.719	2290.65
679.909	2272.22
680.1	2194.4
680.29	2106.34
680.481	2143.2
680.671	2169.82
680.861	2048.99
681.052	2169.82
681.242	1977.31
681.432	2180.06
681.622	2118.62
681.813	2067.42
682.003	2055.14
682.193	2038.75
682.383	2036.7
682.573	2159.58
682.764	2016.23
682.954	2229.21
683.144	2110.43
683.334	1987.55
683.524	2165.73
683.714	2083.81
683.904	2071.52
684.094	2005.99
684.284	2081.76
684.474	2073.57
684.664	2100.19
684.854	2046.94
685.044	1897.44
685.234	2087.9
685.424	2044.9
685.614	2120.67
685.804	2092
685.994	2065.38
686.184	1907.68
686.374	1958.88
686.564	1967.07
686.753	1891.3
686.943	1852.39
687.133	1926.11
687.323	1987.55
687.513	1793
687.702	1856.48
687.892	1915.87
688.082	1838.05
688.272	1903.59
688.461	1922.02
688.651	1895.4
688.841	1860.58
689.03	1899.49
689.22	1856.48
689.41	1846.24
689.599	1803.24
689.789	1850.34
689.979	1893.35
690.168	1942.5
690.358	1772.52
690.547	1860.58
690.737	1694.69
690.926	1778.66
691.116	1829.86
691.305	1723.37
691.495	1725.41
691.684	1709.03
691.874	1717.22
692.063	1721.32
692.252	1829.86
692.442	1676.26
692.631	1719.27
692.82	1661.93
693.01	1793
693.199	1698.79
693.388	1668.07
693.578	1762.28
693.767	1663.97
693.956	1620.97
694.146	1704.93
694.335	1752.04
694.524	1604.58
694.713	1745.89
694.902	1647.59
695.092	1729.51
695.281	1573.86
695.47	1633.26
695.659	1608.68
695.848	1647.59
696.037	1645.54
696.226	1709.03
696.415	1612.78
696.604	1690.6
696.793	1647.59
696.982	1623.02
697.171	1655.78
697.36	1715.17
697.549	1706.98
697.738	1561.58
697.927	1729.51
698.116	1676.26
698.305	1731.56
698.494	1551.34
698.683	1723.37
698.872	1731.56
699.061	1653.73
699.25	1680.36
699.438	1629.16
699.627	1594.34
699.816	1645.54
700.005	1698.79
700.193	1704.93
700.382	1680.36
700.571	1682.41
700.76	1608.68
700.948	1633.26
701.137	1590.25
701.326	1702.89
701.514	1602.54
701.703	1645.54
701.892	1672.17
702.08	1725.41
702.269	1612.78
702.457	1688.55
702.646	1629.16
702.834	1600.49
703.023	1696.74
703.212	1745.89
703.4	1678.31
703.589	1604.58
703.777	1596.39
703.965	1666.02
704.154	1647.59
704.342	1694.69
704.531	1680.36
704.719	1614.82
704.907	1698.79
705.096	1661.93
705.284	1594.34
705.472	1723.37
705.661	1561.58
705.849	1649.64
706.037	1725.41
706.226	1584.1
706.414	1737.7
706.602	1706.98
706.79	1653.73
706.979	1696.74
707.167	1688.55
707.355	1711.08
707.543	1756.13
707.731	1723.37
707.919	1694.69
708.107	1637.35
708.296	1612.78
708.484	1643.49
708.672	1706.98
708.86	1690.6
709.048	1686.5
709.236	1764.33
709.424	1723.37
709.612	1670.12
709.8	1680.36
709.988	1670.12
710.176	1657.83
710.364	1680.36
710.551	1739.75
710.739	1680.36
710.927	1620.97
711.115	1752.04
711.303	1721.32
711.491	1686.5
711.679	1653.73
711.866	1700.84
712.054	1729.51
712.242	1776.61
712.43	1702.89
712.617	1688.55
712.805	1680.36
712.993	1747.94
713.181	1639.4
713.368	1727.46
713.556	1739.75
713.744	1604.58
713.931	1797.09
714.119	1680.36
714.306	1737.7
714.494	1580.01
714.682	1657.83
714.869	1725.41
715.057	1713.13
715.244	1704.93
715.432	1719.27
715.619	1741.8
715.807	1635.3
715.994	1733.61
716.182	1813.48
716.369	1760.23
716.556	1629.16
716.744	1563.62
716.931	1623.02
717.119	1655.78
717.306	1768.42
717.493	1715.17
717.681	1778.66
717.868	1692.65
718.055	1698.79
718.242	1668.07
718.43	1795.04
718.617	1661.93
718.804	1661.93
718.991	1774.56
719.179	1674.21
719.366	1649.64
719.553	1760.23
719.74	1668.07
719.927	1602.54
720.114	1749.99
720.301	1731.56
720.488	1651.69
720.676	1743.85
720.863	1735.65
721.05	1655.78
721.237	1752.04
721.424	1694.69
721.611	1711.08
721.798	1666.02
721.985	1735.65
722.172	1754.09
722.358	1557.48
722.545	1801.19
722.732	1709.03
722.919	1657.83
723.106	1733.61
723.293	1778.66
723.48	1684.45
723.667	1704.93
723.853	1598.44
724.04	1702.89
724.227	1729.51
724.414	1680.36
724.6	1719.27
724.787	1698.79
724.974	1694.69
725.161	1711.08
725.347	1688.55
725.534	1799.14
725.72	1774.56
725.907	1729.51
726.094	1678.31
726.28	1674.21
726.467	1680.36
726.653	1684.45
726.84	1768.42
727.027	1768.42
727.213	1631.21
727.4	1719.27
727.586	1653.73
727.773	1659.88
727.959	1704.93
728.145	1745.89
728.332	1731.56
728.518	1518.57
728.705	1743.85
728.891	1604.58
729.077	1651.69
729.264	1790.95
729.45	1623.02
729.636	1534.95
729.823	1631.21
730.009	1717.22
730.195	1616.87
730.382	1663.97
730.568	1657.83
730.754	1700.84
730.94	1676.26
731.126	1711.08
731.313	1653.73
731.499	1588.2
731.685	1670.12
731.871	1678.31
732.057	1580.01
732.243	1657.83
732.429	1743.85
732.615	1627.11
732.801	1614.82
732.987	1659.88
733.173	1623.02
733.359	1680.36
733.545	1672.17
733.731	1623.02
733.917	1524.71
734.103	1586.15
734.289	1608.68
734.475	1547.24
734.661	1608.68
734.847	1692.65
735.033	1721.32
735.219	1614.82
735.404	1608.68
735.59	1661.93
735.776	1690.6
735.962	1537
736.148	1721.32
736.333	1553.38
736.519	1590.25
736.705	1666.02
736.89	1637.35
737.076	1631.21
737.262	1571.82
737.447	1717.22
737.633	1498.09
737.819	1528.81
738.004	1639.4
738.19	1614.82
738.375	1557.48
738.561	1541.1
738.747	1596.39
738.932	1461.23
739.118	1608.68
739.303	1530.86
739.489	1559.53
739.674	1506.28
739.859	1518.57
740.045	1455.08
740.23	1612.78
740.416	1471.47
740.601	1584.1
740.786	1465.32
740.972	1424.36
741.157	1463.27
741.342	1524.71
741.528	1532.9
741.713	1514.47
741.898	1475.56
742.084	1371.12
742.269	1465.32
742.454	1371.12
742.639	1571.82
742.824	1485.8
743.01	1457.13
743.195	1385.45
743.38	1434.6
743.565	1397.74
743.75	1393.64
743.935	1330.16
744.12	1491.95
744.305	1369.07
744.49	1440.75
744.675	1428.46
744.86	1401.83
745.045	1414.12
745.23	1471.47
745.415	1414.12
745.6	1338.35
745.785	1295.34
745.97	1358.83
746.155	1332.2
746.34	1457.13
746.525	1285.1
746.71	1303.53
746.895	1278.96
747.079	1307.63
747.264	1295.34
747.449	1229.81
747.634	1295.34
747.819	1362.92
748.003	1313.77
748.188	1225.71
748.373	1258.48
748.557	1186.8
748.742	1180.65
748.927	1209.33
749.111	1262.57
749.296	1317.87
749.481	1326.06
749.665	1194.99
749.85	1158.13
750.034	1190.89
750.219	1252.33
750.404	1186.8
750.588	1254.38
750.773	1131.5
750.957	1211.37
751.141	1131.5
751.326	1147.89
751.51	1197.04
751.695	1180.65
751.879	1098.74
752.064	1149.93
752.248	1072.11
752.432	1215.47
752.617	1115.12
752.801	1102.83
752.985	1145.84
753.17	1084.4
753.354	1121.26
753.538	1027.06
753.722	1061.87
753.907	1113.07
754.091	998.38
754.275	1018.86
754.459	1002.48
754.643	932.85
754.828	936.95
755.012	943.09
755.196	984.05
755.38	1002.48
755.564	1025.01
755.748	1025.01
755.932	955.38
756.116	932.85
756.3	1063.92
756.484	941.04
756.668	963.57
756.852	945.14
757.036	941.04
757.22	1051.63
757.404	873.46
757.588	922.61
757.772	908.27
757.956	992.24
758.14	965.62
758.323	932.85
758.507	887.79
758.691	891.89
758.875	859.12
759.059	1002.48
759.242	895.99
759.426	826.36
759.61	875.51
759.794	801.78
759.977	871.41
760.161	912.37
760.345	934.9
760.528	887.79
760.712	850.93
760.895	812.02
761.079	852.98
761.263	842.74
761.446	797.68
761.63	744.44
761.813	812.02
761.997	828.4
762.18	820.21
762.364	818.16
762.547	799.73
762.731	828.4
762.914	838.64
763.098	789.49
763.281	687.09
763.464	744.44
763.648	812.02
763.831	711.67
764.015	707.57
764.198	766.96
764.381	734.2
764.564	738.29
764.748	723.96
764.931	728.05
765.114	777.2
765.297	717.81
765.481	674.81
765.664	687.09
765.847	838.64
766.03	711.67
766.213	650.23
766.397	734.2
766.58	588.79
766.763	750.58
766.946	627.7
767.129	728.05
767.312	726
767.495	809.97
767.678	699.38
767.861	703.48
768.044	721.91
768.227	582.65
768.41	719.86
768.593	566.26
768.776	621.56
768.959	683
769.142	695.29
769.324	637.94
769.507	709.62
769.69	701.43
769.873	549.88
770.056	691.19
770.239	627.7
770.421	680.95
770.604	664.57
770.787	615.41
770.97	629.75
771.152	607.22
771.335	646.13
771.518	588.79
771.7	609.27
771.883	674.81
772.066	658.42
772.248	646.13
772.431	570.36
772.613	572.41
772.796	646.13
772.978	615.41
773.161	588.79
773.343	549.88
773.526	539.64
773.708	560.12
773.891	545.78
774.073	558.07
774.256	621.56
774.438	678.9
774.621	639.99
774.803	674.81
774.985	541.69
775.168	510.97
775.35	490.49
775.532	508.92
775.715	492.54
775.897	531.45
776.079	494.58
776.261	537.59
776.444	502.78
776.626	508.92
776.808	439.29
776.99	523.26
777.173	508.92
777.355	525.3
777.537	539.64
777.719	539.64
777.901	459.77
778.083	408.57
778.265	498.68
778.447	510.97
778.629	441.34
778.811	494.58
778.993	396.28
779.175	482.3
779.357	386.04
779.539	541.69
779.721	429.05
779.903	515.06
780.085	435.19
780.267	406.52
780.449	451.58
780.631	467.96
780.812	496.63
780.994	488.44
781.176	418.81
781.358	394.23
781.54	510.97
781.721	406.52
781.903	492.54
782.085	285.69
782.267	398.33
782.448	351.23
782.63	367.61
782.812	402.43
782.993	394.23
783.175	418.81
783.357	361.47
783.538	383.99
783.72	289.79
783.901	453.63
784.083	304.12
784.264	383.99
784.446	392.19
784.627	422.91
784.809	287.74
784.99	330.75
785.172	424.95
785.353	304.12
785.535	338.94
785.716	361.47
785.897	300.03
786.079	361.47
786.26	304.12
786.441	383.99
786.623	314.36
786.804	316.41
786.985	257.02
787.167	211.96
787.348	340.99
787.529	320.51
787.71	373.75
787.891	365.56
788.073	300.03
788.254	304.12
788.435	365.56
788.616	285.69
788.797	175.1
788.978	279.55
789.159	269.31
789.34	295.93
789.522	236.54
789.703	285.69
789.884	240.64
790.065	310.27
790.246	304.12
790.427	261.12
790.607	355.32
790.788	291.84
790.969	246.78
791.15	254.97
791.331	261.12
791.512	224.25
791.693	240.64
791.874	244.73
792.054	297.98
792.235	257.02
792.416	310.27
792.597	246.78
792.778	220.16
792.958	252.92
793.139	173.05
793.32	263.16
793.5	228.35
793.681	293.88
793.862	187.39
794.042	240.64
794.223	195.58
794.404	179.2
794.584	222.2
794.765	197.63
794.945	158.72
795.126	209.92
795.306	261.12
795.487	275.45
795.667	173.05
795.848	271.36
796.028	140.29
796.209	269.31
796.389	181.25
796.57	197.63
796.75	181.25
796.93	136.19
797.111	123.9
797.291	166.91
797.471	168.96
797.652	201.72
797.832	173.05
798.012	197.63
798.192	175.1
798.373	254.97
798.553	189.44
798.733	205.82
798.913	211.96
799.093	136.19
799.274	275.45
799.454	211.96
799.634	193.53
799.814	146.43
799.994	72.7
800.174	199.68
800.354	97.28
800.534	148.48
800.714	109.57
800.894	146.43
801.074	175.1
801.254	226.3
801.434	158.72
801.614	109.57
801.794	154.62
801.974	707.57
802.154	162.81
802.334	228.35
802.514	220.16
802.693	164.86
802.873	89.09
803.053	175.1
803.233	146.43
803.413	191.49
803.592	115.71
803.772	171.01
803.952	187.39
804.131	80.89
804.311	177.15
804.491	187.39
804.67	97.28
804.85	78.85
805.03	109.57
805.209	189.44
805.389	99.33
805.568	115.71
805.748	154.62
805.928	156.67
806.107	146.43
806.287	150.53
806.466	179.2
806.646	150.53
806.825	148.48
807.004	138.24
807.184	138.24
807.363	240.64
807.543	74.75
807.722	134.14
807.901	164.86
808.081	187.39
808.26	80.89
808.439	171.01
808.619	113.66
808.798	72.7
808.977	142.33
809.156	211.96
809.336	89.09
809.515	117.76
809.694	261.12
809.873	91.13
810.052	113.66
810.231	84.99
810.411	111.61
810.59	150.53
810.769	93.18
810.948	109.57
811.127	140.29
811.306	99.33
811.485	41.98
811.664	152.57
811.843	89.09
812.022	72.7
812.201	93.18
812.38	197.63
812.559	132.09
812.737	107.52
812.916	58.37
813.095	117.76
813.274	191.49
813.453	115.71
813.632	195.58
813.811	80.89
813.989	19.46
814.168	72.7
814.347	87.04
814.526	101.37
814.704	93.18
814.883	105.47
815.062	103.42
815.24	19.46
815.419	70.65
815.598	123.9
815.776	50.18
815.955	109.57
816.133	31.74
816.312	134.14
816.49	17.41
816.669	142.33
816.847	117.76
817.026	132.09
817.204	84.99
817.383	-1.02
817.561	19.46
817.74	52.22
817.918	74.75
818.097	29.7
818.275	50.18
818.453	56.32
818.632	115.71
818.81	105.47
818.988	80.89
819.167	89.09
819.345	97.28
819.523	-5.12
819.701	80.89
819.879	89.09
820.058	105.47
820.236	33.79
820.414	107.52
820.592	-9.22
820.77	91.13
820.948	66.56
821.127	29.7
821.305	105.47
821.483	72.7
821.661	171.01
821.839	44.03
822.017	64.51
822.195	48.13
822.373	41.98
822.551	48.13
822.729	39.94
822.907	99.33
823.085	50.18
823.262	27.65
823.44	54.27
823.618	35.84
823.796	97.28
823.974	35.84
824.152	58.37
824.329	68.61
824.507	66.56
824.685	44.03
824.863	107.52
825.04	80.89
825.218	31.74
825.396	13.31
825.574	25.6
825.751	68.61
825.929	72.7
826.107	54.27
826.284	66.56
826.462	76.8
826.639	27.65
826.817	74.75
826.994	121.85
827.172	-52.22
827.349	76.8
827.527	58.37
827.704	113.66
827.882	66.56
828.059	1.02
828.237	31.74
828.414	50.18
828.591	54.27
828.769	58.37
828.946	97.28
829.124	64.51
829.301	39.94
829.478	78.85
829.655	95.23
829.833	91.13
830.01	-9.22
830.187	89.09
830.364	80.89
830.542	64.51
830.719	109.57
830.896	58.37
831.073	15.36
831.25	66.56
831.427	91.13
831.604	56.32
831.782	50.18
831.959	1.02
832.136	-58.37
832.313	89.09
832.49	48.13
832.667	-9.22
832.844	41.98
833.021	115.71
833.198	72.7
833.374	50.18
833.551	48.13
833.728	50.18
833.905	87.04
834.082	50.18
834.259	50.18
834.436	-5.12
834.612	-39.94
834.789	50.18
834.966	15.36
835.143	46.08
835.319	99.33
835.496	50.18
835.673	72.7
835.85	117.76
836.026	29.7
836.203	-7.17
836.38	33.79
836.556	17.41
836.733	82.94
836.909	54.27
837.086	15.36
837.262	5.12
837.439	23.55
837.616	7.17
837.792	99.33
837.968	1.02
838.145	-1.02
838.321	5.12
838.498	50.18
838.674	-41.98
838.851	1.02
839.027	19.46
839.203	82.94
839.38	39.94
839.556	-17.41
839.732	1.02
839.909	-25.6
840.085	66.56
840.261	70.65
840.437	68.61
840.614	44.03
840.79	15.36
840.966	-3.07
841.142	-7.17
841.318	46.08
841.494	64.51
841.671	-44.03
841.847	23.55
842.023	33.79
842.199	52.22
842.375	56.32
842.551	-39.94
842.727	56.32
842.903	44.03
843.079	3.07
843.255	91.13
843.431	11.26
843.607	84.99
843.783	-1.02
843.959	21.5
844.134	15.36
844.31	-3.07
844.486	21.5
844.662	-64.51
844.838	72.7
845.013	13.31
845.189	-15.36
845.365	3.07
845.541	66.56
845.716	15.36
845.892	25.6
846.068	-9.22
846.244	-66.56
846.419	50.18
846.595	-23.55
846.77	123.9
846.946	27.65
847.122	-9.22
847.297	-31.74
847.473	109.57
847.648	-84.99
847.824	29.7
847.999	-50.18
848.175	-1.02
848.35	7.17
848.526	5.12
848.701	17.41
848.876	-9.22
849.052	7.17
849.227	-39.94
849.403	29.7
849.578	-9.22
849.753	-15.36
849.929	-5.12
850.104	1.02
850.279	-25.6
850.454	3.07
850.63	9.22
850.805	-17.41
850.98	19.46
851.155	33.79
851.33	-17.41
851.505	-54.27
851.681	19.46
851.856	-9.22
852.031	-9.22
852.206	64.51
852.381	21.5
852.556	-50.18
852.731	7.17
852.906	62.46
853.081	44.03
853.256	-44.03
853.431	-37.89
853.606	-19.46
853.781	-31.74
853.956	15.36
854.131	31.74
854.305	-11.26
854.48	-17.41
854.655	-7.17
854.83	23.55
855.005	-64.51
855.18	35.84
855.354	-48.13
855.529	-33.79
855.704	-95.23
855.879	-25.6
856.053	35.84
856.228	-7.17
856.403	-13.31
856.577	1.02
856.752	64.51
856.926	66.56
857.101	-7.17
857.276	-35.84
857.45	-44.03
857.625	7.17
857.799	-78.85
857.974	48.13
858.148	-21.5
858.323	-17.41
858.497	64.51
858.672	-37.89
858.846	50.18
859.02	72.7
859.195	31.74
859.369	44.03
859.543	-44.03
859.718	-13.31
859.892	7.17
860.066	-13.31
860.241	-70.65
860.415	-21.5
860.589	-1.02
860.763	-3.07
860.938	-23.55
861.112	13.31
861.286	-1.02
861.46	-17.41
861.634	62.46
861.808	-5.12
861.982	-54.27
862.157	-99.33
862.331	-9.22
862.505	-9.22
862.679	31.74
862.853	64.51
863.027	-48.13
863.201	58.37
863.375	-33.79
863.549	-44.03
863.722	9.22
863.896	72.7
864.07	5.12
864.244	-56.32
864.418	80.89
864.592	52.22
864.766	17.41
864.939	50.18
865.113	31.74
865.287	58.37
865.461	-5.12
865.634	3.07
865.808	39.94
865.982	-11.26
866.156	-80.89
866.329	-29.7
866.503	-58.37
866.676	-13.31
866.85	23.55
867.024	-39.94
867.197	-97.28
867.371	-5.12
867.544	-17.41
867.718	23.55
867.891	-101.37
868.065	-93.18
868.238	23.55
868.412	64.51
868.585	-27.65
868.759	-58.37
868.932	56.32
869.105	-56.32
869.279	-41.98
869.452	-52.22
869.625	-7.17
869.799	-31.74
869.972	-64.51
870.145	58.37
870.319	-25.6
870.492	-72.7
870.665	-37.89
870.838	-5.12
871.011	-25.6
871.185	46.08
871.358	-41.98
871.531	-25.6
871.704	11.26
871.877	-33.79
872.05	-35.84
872.223	21.5
872.396	-50.18
872.569	21.5
872.742	1.02
872.915	-29.7
873.088	-23.55
873.261	35.84
873.434	9.22
873.607	-76.8
873.78	91.13
873.953	-11.26
874.126	-68.61
874.299	76.8
874.471	31.74
874.644	27.65
874.817	-48.13
874.99	66.56
875.163	27.65
875.335	39.94
875.508	-9.22
875.681	7.17
875.853	-19.46
876.026	62.46
876.199	-25.6
876.371	19.46
876.544	1.02
876.717	-66.56
876.889	9.22
877.062	-1.02
877.234	-52.22
877.407	11.26
877.579	-29.7
877.752	-33.79
877.924	7.17
878.097	7.17
878.269	-52.22
878.442	25.6
878.614	-31.74
878.786	-37.89
878.959	19.46
879.131	44.03
879.303	-31.74
879.476	1.02
879.648	44.03
879.82	19.46
879.993	-48.13
880.165	-17.41
880.337	-89.09
880.509	-66.56
880.681	-11.26
880.854	19.46
881.026	-64.51
881.198	25.6
881.37	21.5
881.542	19.46
881.714	-72.7
881.886	-56.32
882.058	-1.02
882.23	-54.27
882.402	52.22
882.574	19.46
882.746	1.02
882.918	33.79
883.09	-35.84
883.262	-37.89
883.434	74.75
883.606	-39.94
883.778	-21.5
883.95	50.18
884.122	-3.07
884.293	89.09
884.465	-74.75
884.637	15.36
884.809	-37.89
884.98	1.02
885.152	9.22
885.324	3.07
885.496	-54.27
885.667	-9.22
885.839	-29.7
886.011	39.94
886.182	-31.74
886.354	-1.02
886.525	-46.08
886.697	-52.22
886.869	23.55
887.04	56.32
887.212	-1.02
887.383	1.02
887.555	15.36
887.726	-58.37
887.897	-41.98
888.069	-82.94
888.24	-29.7
888.412	27.65
888.583	-1.02
888.754	29.7
888.926	-62.46
889.097	7.17
889.268	-3.07
889.44	-31.74
889.611	-15.36
889.782	-37.89
889.953	-35.84
890.125	58.37
890.296	-9.22
890.467	7.17
890.638	-41.98
890.809	-48.13
890.98	-19.46
891.151	33.79
891.323	1.02
891.494	-27.65
891.665	-33.79
891.836	-80.89
892.007	9.22
892.178	-39.94
892.349	-44.03
892.52	5.12
892.691	-54.27
892.862	-11.26
893.032	-80.89
893.203	-64.51
893.374	-5.12
893.545	-31.74
893.716	-25.6
893.887	-27.65
894.057	-50.18
894.228	-9.22
894.399	-29.7
894.57	5.12
894.74	39.94
894.911	46.08
895.082	-46.08
895.253	-48.13
895.423	-52.22
895.594	-9.22
895.764	-74.75
895.935	-31.74
896.106	17.41
896.276	-62.46
896.447	-29.7
896.617	1.02
896.788	-9.22
896.958	-39.94
897.129	-91.13
897.299	-54.27
897.47	25.6
897.64	-23.55
897.81	41.98
897.981	7.17
898.151	-74.75
898.322	56.32
898.492	-93.18
898.662	-76.8
898.832	-29.7
899.003	1.02
899.173	7.17
899.343	64.51
899.513	-54.27
