Data from USB4F104151__86__13-13-02-649.txt Node

Date: Fri Mar 14 13:13:02 EDT 2025
User: louis
Spectrometer: USB4F10415
Trigger mode: 4
Integration Time (sec): 2.000000E-2
Scans to average: 1
Electric dark correction enabled: true
Nonlinearity correction enabled: false
Boxcar width: 0
XAxis mode: Wavelengths
Number of Pixels in Spectrum: 3648
>>>>>Begin Spectral Data<<<<<
178.204	-74.41
178.424	-74.41
178.644	-74.41
178.864	-82.6
179.084	-49.83
179.304	77.14
179.524	-33.45
179.744	21.85
179.964	54.61
180.184	-103.08
180.404	-72.36
180.624	50.52
180.844	32.08
181.064	-80.55
181.283	17.75
181.503	-6.83
181.723	42.32
181.943	1.37
182.163	11.61
182.383	7.51
182.602	-25.26
182.822	-8.87
183.042	-0.68
183.262	32.08
183.482	40.28
183.701	21.85
183.921	-6.83
184.141	13.65
184.361	89.43
184.58	11.61
184.8	-15.02
185.02	9.56
185.239	48.47
185.459	7.51
185.679	62.8
185.898	71
186.118	15.7
186.338	73.04
186.557	48.47
186.777	34.13
186.997	73.04
187.216	32.08
187.436	56.66
187.655	15.7
187.875	116.05
188.095	-25.26
188.314	48.47
188.534	60.76
188.753	9.56
188.973	21.85
189.192	64.85
189.412	52.56
189.631	-19.11
189.851	38.23
190.07	73.04
190.29	5.46
190.509	7.51
190.729	7.51
190.948	40.28
191.168	146.77
191.387	58.71
191.607	32.08
191.826	15.7
192.045	21.85
192.265	-0.68
192.484	97.62
192.704	3.41
192.923	34.13
193.142	38.23
193.362	19.8
193.581	58.71
193.8	3.41
194.02	15.7
194.239	11.61
194.458	73.04
194.678	42.32
194.897	40.28
195.116	-55.98
195.335	9.56
195.555	52.56
195.774	23.89
195.993	7.51
196.212	-29.35
196.432	-25.26
196.651	19.8
196.87	58.71
197.089	79.19
197.308	54.61
197.528	52.56
197.747	-39.59
197.966	-10.92
198.185	54.61
198.404	-25.26
198.623	15.7
198.842	73.04
199.062	48.47
199.281	23.89
199.5	-0.68
199.719	58.71
199.938	-29.35
200.157	23.89
200.376	-29.35
200.595	42.32
200.814	75.09
201.033	-4.78
201.252	68.95
201.471	13.65
201.69	11.61
201.909	48.47
202.128	38.23
202.347	-8.87
202.566	11.61
202.785	-23.21
203.004	-62.12
203.223	54.61
203.442	62.8
203.661	-15.02
203.879	-27.31
204.098	44.37
204.317	1.37
204.536	81.24
204.755	11.61
204.974	30.04
205.193	-58.03
205.411	77.14
205.63	-25.26
205.849	17.75
206.068	48.47
206.287	-0.68
206.505	54.61
206.724	44.37
206.943	-62.12
207.162	11.61
207.381	68.95
207.599	9.56
207.818	36.18
208.037	-2.73
208.255	-4.78
208.474	-33.45
208.693	62.8
208.911	-19.11
209.13	19.8
209.349	56.66
209.567	87.38
209.786	124.24
210.005	105.81
210.223	58.71
210.442	-58.03
210.661	97.62
210.879	32.08
211.098	30.04
211.316	7.51
211.535	9.56
211.753	38.23
211.972	56.66
212.191	13.65
212.409	-39.59
212.628	19.8
212.846	-53.93
213.065	23.89
213.283	36.18
213.502	23.89
213.72	60.76
213.938	19.8
214.157	9.56
214.375	-8.87
214.594	44.37
214.812	9.56
215.031	60.76
215.249	-49.83
215.467	-15.02
215.686	60.76
215.904	36.18
216.122	-31.4
216.341	19.8
216.559	-74.41
216.778	56.66
216.996	42.32
217.214	75.09
217.432	66.9
217.651	-23.21
217.869	23.89
218.087	7.51
218.306	-0.68
218.524	40.28
218.742	-35.5
218.96	89.43
219.179	-33.45
219.397	85.33
219.615	66.9
219.833	32.08
220.051	-25.26
220.27	103.76
220.488	34.13
220.706	11.61
220.924	71
221.142	-4.78
221.36	71
221.578	77.14
221.796	124.24
222.015	-0.68
222.233	7.51
222.451	87.38
222.669	-17.07
222.887	44.37
223.105	105.81
223.323	-12.97
223.541	-25.26
223.759	93.52
223.977	15.7
224.195	64.85
224.413	9.56
224.631	40.28
224.849	40.28
225.067	25.94
225.285	13.65
225.503	1.37
225.721	-43.69
225.939	54.61
226.157	36.18
226.375	105.81
226.592	25.94
226.81	40.28
227.028	-37.55
227.246	48.47
227.464	11.61
227.682	19.8
227.9	27.99
228.117	40.28
228.335	27.99
228.553	64.85
228.771	9.56
228.989	27.99
229.206	-25.26
229.424	-23.21
229.642	1.37
229.86	1.37
230.077	48.47
230.295	21.85
230.513	32.08
230.731	13.65
230.948	91.48
231.166	50.52
231.384	-47.79
231.601	1.37
231.819	17.75
232.037	56.66
232.254	-31.4
232.472	52.56
232.689	1.37
232.907	62.8
233.125	34.13
233.342	58.71
233.56	-35.5
233.777	-6.83
233.995	3.41
234.213	68.95
234.43	32.08
234.648	9.56
234.865	1.37
235.083	3.41
235.3	-45.74
235.518	15.7
235.735	15.7
235.953	-12.97
236.17	-33.45
236.388	48.47
236.605	52.56
236.822	-8.87
237.04	52.56
237.257	93.52
237.475	42.32
237.692	85.33
237.909	42.32
238.127	25.94
238.344	21.85
238.562	89.43
238.779	-86.7
238.996	54.61
239.214	27.99
239.431	11.61
239.648	50.52
239.865	73.04
240.083	21.85
240.3	44.37
240.517	-49.83
240.735	48.47
240.952	52.56
241.169	77.14
241.386	11.61
241.603	-19.11
241.821	-15.02
242.038	91.48
242.255	-0.68
242.472	-39.59
242.689	9.56
242.907	73.04
243.124	-4.78
243.341	30.04
243.558	-64.17
243.775	-35.5
243.992	25.94
244.209	13.65
244.426	23.89
244.643	56.66
244.86	23.89
245.078	111.96
245.295	42.32
245.512	99.67
245.729	-8.87
245.946	50.52
246.163	32.08
246.38	-4.78
246.597	62.8
246.814	-47.79
247.031	46.42
247.248	58.71
247.464	23.89
247.681	91.48
247.898	-6.83
248.115	21.85
248.332	-19.11
248.549	21.85
248.766	105.81
248.983	81.24
249.2	56.66
249.417	44.37
249.633	23.89
249.85	21.85
250.067	23.89
250.284	-15.02
250.501	126.29
250.717	77.14
250.934	-12.97
251.151	54.61
251.368	-35.5
251.585	68.95
251.801	-76.46
252.018	73.04
252.235	15.7
252.451	42.32
252.668	93.52
252.885	21.85
253.102	71
253.318	56.66
253.535	-6.83
253.752	-35.5
253.968	25.94
254.185	-53.93
254.401	11.61
254.618	81.24
254.835	-43.69
255.051	83.28
255.268	38.23
255.484	-6.83
255.701	48.47
255.917	36.18
256.134	-6.83
256.351	68.95
256.567	-2.73
256.784	44.37
257	40.28
257.217	71
257.433	27.99
257.65	66.9
257.866	-4.78
258.082	-15.02
258.299	-8.87
258.515	25.94
258.732	64.85
258.948	-21.16
259.165	3.41
259.381	40.28
259.597	-12.97
259.814	-4.78
260.03	-8.87
260.246	-8.87
260.463	58.71
260.679	15.7
260.895	15.7
261.112	56.66
261.328	73.04
261.544	58.71
261.761	42.32
261.977	13.65
262.193	-19.11
262.409	15.7
262.626	9.56
262.842	56.66
263.058	1.37
263.274	-29.35
263.49	27.99
263.707	54.61
263.923	9.56
264.139	-55.98
264.355	68.95
264.571	62.8
264.787	75.09
265.004	60.76
265.22	13.65
265.436	7.51
265.652	15.7
265.868	23.89
266.084	1.37
266.3	-8.87
266.516	-82.6
266.732	38.23
266.948	-0.68
267.164	15.7
267.38	25.94
267.596	60.76
267.812	79.19
268.028	-29.35
268.244	15.7
268.46	-35.5
268.676	15.7
268.892	122.2
269.108	11.61
269.324	-47.79
269.54	50.52
269.756	75.09
269.972	-6.83
270.188	7.51
270.403	-0.68
270.619	36.18
270.835	62.8
271.051	101.72
271.267	-33.45
271.483	21.85
271.698	25.94
271.914	68.95
272.13	42.32
272.346	56.66
272.562	101.72
272.777	105.81
272.993	3.41
273.209	-47.79
273.425	77.14
273.64	-23.21
273.856	85.33
274.072	85.33
274.287	-45.74
274.503	60.76
274.719	-4.78
274.934	19.8
275.15	-25.26
275.366	77.14
275.581	9.56
275.797	32.08
276.012	81.24
276.228	17.75
276.444	34.13
276.659	36.18
276.875	-58.03
277.09	21.85
277.306	-2.73
277.521	54.61
277.737	44.37
277.952	15.7
278.168	50.52
278.383	15.7
278.599	25.94
278.814	64.85
279.03	21.85
279.245	114
279.461	75.09
279.676	79.19
279.892	-33.45
280.107	-33.45
280.322	7.51
280.538	77.14
280.753	36.18
280.969	34.13
281.184	-15.02
281.399	38.23
281.615	-33.45
281.83	23.89
282.045	-21.16
282.26	73.04
282.476	44.37
282.691	64.85
282.906	3.41
283.122	32.08
283.337	-15.02
283.552	5.46
283.767	-17.07
283.983	91.48
284.198	-41.64
284.413	79.19
284.628	23.89
284.843	-2.73
285.058	40.28
285.274	73.04
285.489	68.95
285.704	7.51
285.919	-10.92
286.134	60.76
286.349	91.48
286.564	-74.41
286.779	161.11
286.995	3.41
287.21	19.8
287.425	-15.02
287.64	-0.68
287.855	23.89
288.07	-23.21
288.285	77.14
288.5	60.76
288.715	32.08
288.93	-17.07
289.145	-25.26
289.36	66.9
289.575	56.66
289.79	50.52
290.004	-25.26
290.219	27.99
290.434	23.89
290.649	-41.64
290.864	5.46
291.079	15.7
291.294	91.48
291.509	68.95
291.724	68.95
291.938	-6.83
292.153	66.9
292.368	-12.97
292.583	-27.31
292.798	23.89
293.012	-39.59
293.227	7.51
293.442	25.94
293.657	-12.97
293.871	32.08
294.086	73.04
294.301	58.71
294.516	23.89
294.73	15.7
294.945	42.32
295.16	13.65
295.374	15.7
295.589	56.66
295.804	-76.46
296.018	83.28
296.233	15.7
296.447	58.71
296.662	36.18
296.877	83.28
297.091	87.38
297.306	64.85
297.52	17.75
297.735	52.56
297.949	-64.17
298.164	52.56
298.378	48.47
298.593	52.56
298.807	21.85
299.022	11.61
299.236	50.52
299.451	32.08
299.665	30.04
299.88	-37.55
300.094	40.28
300.309	-8.87
300.523	-21.16
300.737	66.9
300.952	-6.83
301.166	42.32
301.381	114
301.595	7.51
301.809	34.13
302.024	-17.07
302.238	-17.07
302.452	83.28
302.667	-37.55
302.881	34.13
303.095	-0.68
303.309	-6.83
303.524	-66.22
303.738	-6.83
303.952	1.37
304.166	81.24
304.381	-29.35
304.595	134.48
304.809	-6.83
305.023	46.42
305.237	-8.87
305.452	58.71
305.666	64.85
305.88	58.71
306.094	25.94
306.308	32.08
306.522	32.08
306.736	36.18
306.95	64.85
307.164	-23.21
307.379	9.56
307.593	81.24
307.807	32.08
308.021	27.99
308.235	19.8
308.449	68.95
308.663	50.52
308.877	62.8
309.091	19.8
309.305	30.04
309.519	-0.68
309.733	9.56
309.947	-80.55
310.161	17.75
310.374	34.13
310.588	32.08
310.802	3.41
311.016	-39.59
311.23	-0.68
311.444	32.08
311.658	48.47
311.872	-29.35
312.085	7.51
312.299	27.99
312.513	75.09
312.727	89.43
312.941	-0.68
313.154	73.04
313.368	-10.92
313.582	-4.78
313.796	19.8
314.009	73.04
314.223	77.14
314.437	34.13
314.651	46.42
314.864	19.8
315.078	30.04
315.292	7.51
315.505	-23.21
315.719	7.51
315.933	89.43
316.146	36.18
316.36	30.04
316.573	30.04
316.787	42.32
317.001	27.99
317.214	40.28
317.428	-39.59
317.641	-6.83
317.855	93.52
318.068	36.18
318.282	40.28
318.495	85.33
318.709	9.56
318.922	3.41
319.136	68.95
319.349	91.48
319.563	40.28
319.776	15.7
319.99	-72.36
320.203	66.9
320.417	25.94
320.63	89.43
320.843	40.28
321.057	27.99
321.27	105.81
321.483	-6.83
321.697	75.09
321.91	85.33
322.124	73.04
322.337	15.7
322.55	-23.21
322.763	-23.21
322.977	54.61
323.19	-15.02
323.403	40.28
323.617	54.61
323.83	44.37
324.043	44.37
324.256	40.28
324.469	23.89
324.683	19.8
324.896	-6.83
325.109	60.76
325.322	7.51
325.535	44.37
325.748	85.33
325.962	-21.16
326.175	85.33
326.388	36.18
326.601	40.28
326.814	114
327.027	52.56
327.24	73.04
327.453	85.33
327.666	-31.4
327.879	34.13
328.092	-49.83
328.305	-15.02
328.518	48.47
328.731	-27.31
328.944	73.04
329.157	48.47
329.37	-21.16
329.583	5.46
329.796	134.48
330.009	19.8
330.222	64.85
330.435	71
330.648	60.76
330.861	-2.73
331.073	75.09
331.286	105.81
331.499	-49.83
331.712	-2.73
331.925	42.32
332.138	30.04
332.35	97.62
332.563	68.95
332.776	21.85
332.989	-41.64
333.202	58.71
333.414	7.51
333.627	97.62
333.84	-23.21
334.053	-37.55
334.265	75.09
334.478	-31.4
334.691	48.47
334.903	11.61
335.116	60.76
335.329	7.51
335.541	25.94
335.754	64.85
335.966	-17.07
336.179	-33.45
336.392	42.32
336.604	62.8
336.817	-29.35
337.029	83.28
337.242	-47.79
337.454	15.7
337.667	9.56
337.88	30.04
338.092	48.47
338.305	114
338.517	-4.78
338.729	95.57
338.942	91.48
339.154	46.42
339.367	1.37
339.579	30.04
339.792	-12.97
340.004	77.14
340.217	-37.55
340.429	-0.68
340.641	-0.68
340.854	105.81
341.066	-53.93
341.278	89.43
341.491	48.47
341.703	50.52
341.915	-17.07
342.128	83.28
342.34	19.8
342.552	52.56
342.764	34.13
342.977	77.14
343.189	5.46
343.401	32.08
343.613	-0.68
343.826	95.57
344.038	-37.55
344.25	15.7
344.462	-10.92
344.674	-15.02
344.886	1.37
345.099	32.08
345.311	-17.07
345.523	-2.73
345.735	1.37
345.947	17.75
346.159	7.51
346.371	11.61
346.583	64.85
346.795	66.9
347.007	-27.31
347.219	60.76
347.431	7.51
347.643	25.94
347.855	19.8
348.067	48.47
348.279	-21.16
348.491	58.71
348.703	32.08
348.915	46.42
349.127	-8.87
349.339	89.43
349.551	36.18
349.763	40.28
349.975	-17.07
350.187	81.24
350.399	15.7
350.61	56.66
350.822	38.23
351.034	91.48
351.246	15.7
351.458	32.08
351.669	-45.74
351.881	36.18
352.093	89.43
352.305	19.8
352.517	23.89
352.728	32.08
352.94	-21.16
353.152	75.09
353.363	-23.21
353.575	23.89
353.787	15.7
353.999	9.56
354.21	40.28
354.422	-33.45
354.633	44.37
354.845	-15.02
355.057	62.8
355.268	44.37
355.48	157.01
355.692	64.85
355.903	9.56
356.115	54.61
356.326	-39.59
356.538	64.85
356.749	75.09
356.961	114
357.172	73.04
357.384	15.7
357.595	126.29
357.807	23.89
358.018	-15.02
358.23	-51.88
358.441	85.33
358.653	75.09
358.864	36.18
359.075	-60.07
359.287	56.66
359.498	71
359.709	54.61
359.921	21.85
360.132	-4.78
360.344	85.33
360.555	40.28
360.766	-10.92
360.977	95.57
361.189	19.8
361.4	66.9
361.611	17.75
361.823	15.7
362.034	9.56
362.245	-19.11
362.456	68.95
362.667	-4.78
362.879	23.89
363.09	71
363.301	40.28
363.512	-39.59
363.723	38.23
363.935	46.42
364.146	99.67
364.357	-78.51
364.568	9.56
364.779	-29.35
364.99	64.85
365.201	23.89
365.412	-41.64
365.623	32.08
365.834	73.04
366.045	36.18
366.256	85.33
366.467	1.37
366.678	40.28
366.889	-37.55
367.1	1.37
367.311	66.9
367.522	27.99
367.733	62.8
367.944	50.52
368.155	15.7
368.366	114
368.577	21.85
368.788	89.43
368.999	62.8
369.209	5.46
369.42	64.85
369.631	99.67
369.842	34.13
370.053	103.76
370.264	13.65
370.474	1.37
370.685	-17.07
370.896	11.61
371.107	54.61
371.317	25.94
371.528	-35.5
371.739	32.08
371.95	-17.07
372.16	42.32
372.371	60.76
372.582	-25.26
372.792	34.13
373.003	7.51
373.214	60.76
373.424	116.05
373.635	44.37
373.846	25.94
374.056	56.66
374.267	-35.5
374.477	71
374.688	60.76
374.898	52.56
375.109	50.52
375.319	-70.31
375.53	30.04
375.74	-23.21
375.951	11.61
376.161	95.57
376.372	44.37
376.582	38.23
376.793	68.95
377.003	-8.87
377.214	17.75
377.424	118.1
377.635	81.24
377.845	77.14
378.055	-12.97
378.266	75.09
378.476	66.9
378.686	-6.83
378.897	99.67
379.107	36.18
379.317	19.8
379.528	-41.64
379.738	32.08
379.948	-47.79
380.158	50.52
380.369	-8.87
380.579	79.19
380.789	-21.16
380.999	13.65
381.21	66.9
381.42	91.48
381.63	27.99
381.84	75.09
382.05	36.18
382.261	-27.31
382.471	42.32
382.681	-15.02
382.891	50.52
383.101	34.13
383.311	19.8
383.521	44.37
383.731	-15.02
383.941	44.37
384.151	15.7
384.361	81.24
384.571	34.13
384.781	9.56
384.991	3.41
385.201	130.39
385.411	105.81
385.621	56.66
385.831	52.56
386.041	50.52
386.251	-19.11
386.461	64.85
386.671	40.28
386.881	32.08
387.091	-49.83
387.301	-4.78
387.511	19.8
387.72	85.33
387.93	81.24
388.14	-23.21
388.35	27.99
388.56	165.2
388.769	95.57
388.979	38.23
389.189	68.95
389.399	48.47
389.609	73.04
389.818	17.75
390.028	30.04
390.238	9.56
390.447	-90.79
390.657	60.76
390.867	71
391.076	73.04
391.286	73.04
391.496	40.28
391.705	32.08
391.915	-2.73
392.125	-23.21
392.334	118.1
392.544	46.42
392.753	66.9
392.963	85.33
393.172	52.56
393.382	34.13
393.591	81.24
393.801	107.86
394.01	77.14
394.22	40.28
394.429	21.85
394.639	97.62
394.848	118.1
395.058	68.95
395.267	-0.68
395.477	87.38
395.686	105.81
395.895	116.05
396.105	71
396.314	126.29
396.524	73.04
396.733	48.47
396.942	97.62
397.152	60.76
397.361	109.91
397.57	15.7
397.78	58.71
397.989	81.24
398.198	124.24
398.407	99.67
398.617	34.13
398.826	81.24
399.035	54.61
399.244	40.28
399.453	48.47
399.663	27.99
399.872	81.24
400.081	71
400.29	68.95
400.499	54.61
400.708	91.48
400.917	122.2
401.127	85.33
401.336	83.28
401.545	81.24
401.754	120.15
401.963	103.76
402.172	48.47
402.381	89.43
402.59	62.8
402.799	44.37
403.008	68.95
403.217	71
403.426	75.09
403.635	83.28
403.844	99.67
404.053	56.66
404.262	71
404.471	101.72
404.68	71
404.888	159.06
405.097	71
405.306	83.28
405.515	77.14
405.724	109.91
405.933	62.8
406.142	97.62
406.35	85.33
406.559	105.81
406.768	97.62
406.977	126.29
407.185	130.39
407.394	122.2
407.603	91.48
407.812	150.87
408.02	169.3
408.229	85.33
408.438	118.1
408.646	136.53
408.855	136.53
409.064	140.63
409.272	71
409.481	171.35
409.69	105.81
409.898	124.24
410.107	140.63
410.315	167.25
410.524	120.15
410.733	197.97
410.941	130.39
411.15	279.89
411.358	142.68
411.567	214.35
411.775	220.5
411.984	212.31
412.192	228.69
412.401	255.31
412.609	279.89
412.818	169.3
413.026	269.65
413.234	218.45
413.443	216.4
413.651	243.03
413.86	322.9
414.068	312.66
414.276	259.41
414.485	306.51
414.693	337.23
414.901	464.21
415.11	398.67
415.318	304.46
415.526	380.24
415.734	384.34
415.943	425.29
416.151	394.58
416.359	331.09
416.567	384.34
416.776	451.92
416.984	429.39
417.192	413.01
417.4	533.84
417.608	443.73
417.817	542.03
418.025	552.27
418.233	562.51
418.441	515.41
418.649	585.04
418.857	707.91
419.065	693.58
419.273	558.41
419.481	716.11
419.689	755.02
419.897	769.35
420.105	798.03
420.313	779.59
420.521	849.22
420.729	867.66
420.937	816.46
421.145	871.75
421.353	884.04
421.561	1011.01
421.769	1041.73
421.977	1008.97
422.185	1086.79
422.393	1097.03
422.601	1146.18
422.809	1230.15
423.017	1129.8
423.224	1195.33
423.432	1236.29
423.64	1187.14
423.848	1447.23
424.056	1412.42
424.263	1336.64
424.471	1410.37
424.679	1539.39
424.887	1512.77
425.094	1584.45
425.302	1572.16
425.51	1715.52
425.718	1793.34
425.925	1805.63
426.133	1881.4
426.341	1932.6
426.548	2022.71
426.756	2022.71
426.964	1932.6
427.171	2061.62
427.379	2080.05
427.586	2288.95
427.794	2252.08
428.001	2385.2
428.209	2338.1
428.417	2571.57
428.624	2688.3
428.832	2587.95
429.039	2467.12
429.247	2671.92
429.454	2807.08
429.662	3097.89
429.869	2913.58
430.076	3063.08
430.284	3040.55
430.491	3112.23
430.699	3370.27
430.906	3288.36
431.114	3366.18
431.321	3503.39
431.528	3448.1
431.736	3747.1
431.943	3892.51
432.15	3806.49
432.358	3786.01
432.565	4111.64
432.772	3878.17
432.979	4199.7
433.187	4388.11
433.394	4293.91
433.601	4543.76
433.808	4545.81
434.016	4443.41
434.223	4842.76
434.43	5129.48
434.637	5051.66
434.844	5385.48
435.052	5438.72
435.259	5381.38
435.466	5283.08
435.673	5379.33
435.88	5795.07
436.087	6049.02
436.294	6186.23
436.501	5942.52
436.708	6110.46
436.915	6352.12
437.122	6616.3
437.329	6319.35
437.537	6536.43
437.743	6649.07
437.95	6604.02
438.157	7259.37
438.364	7335.14
438.571	7226.6
438.778	7363.81
438.985	7939.29
439.192	7685.34
439.399	7865.57
439.606	7673.06
439.813	8275.16
440.02	8697.04
440.227	8588.5
440.433	8359.13
440.64	8764.62
440.847	8629.46
441.054	8862.93
441.261	9608.39
441.467	9217.22
441.674	9620.67
441.881	9927.87
442.088	9774.27
442.294	9839.81
442.501	9893.05
442.708	10226.87
442.914	10654.9
443.121	10921.13
443.328	10661.04
443.534	11607.2
443.741	11242.67
443.948	10958
444.154	11959.45
444.361	11758.75
444.568	11926.69
444.774	12086.43
444.981	11904.16
445.187	12397.72
445.394	12856.47
445.6	12848.27
445.807	13986.94
446.013	13384.84
446.22	13692.04
446.426	14175.36
446.633	14324.86
446.839	14627.96
447.046	14208.12
447.252	15031.41
447.459	15137.9
447.665	15055.98
447.871	15645.8
448.078	16454.75
448.284	15492.2
448.491	15776.87
448.697	16682.07
448.903	16979.03
449.11	16895.06
449.316	16778.33
449.522	17071.18
449.728	17658.95
449.935	17658.95
450.141	17574.99
450.347	18250.81
450.553	17427.53
450.76	17755.21
450.966	18469.95
451.172	18005.06
451.378	18799.67
451.584	18269.25
451.791	18629.69
451.997	18523.19
452.203	19184.69
452.409	19088.43
452.615	18873.4
452.821	18283.58
453.027	17796.17
453.233	19084.34
453.44	18504.76
453.646	18506.81
453.852	18668.6
454.058	18832.44
454.264	18242.62
454.47	19096.63
454.676	18392.12
454.882	18818.1
455.088	17218.64
455.294	17615.94
455.5	18013.25
455.705	17822.79
455.911	17374.28
456.117	17042.51
456.323	16909.4
456.529	16055.39
456.735	16714.84
456.941	16471.13
457.147	16045.15
457.352	15524.97
457.558	15469.67
457.764	15494.25
457.97	14933.11
458.176	14767.22
458.381	14877.81
458.587	14281.85
458.793	14025.86
458.999	13399.18
459.204	14376.06
459.41	13829.25
459.616	13237.39
459.821	12835.99
460.027	12782.74
460.233	12612.76
460.438	12049.57
460.644	12192.92
460.85	11754.66
461.055	11519.14
461.261	11228.33
461.466	10648.75
461.672	10095.8
461.878	10980.53
462.083	10362.04
462.289	9936.06
462.494	9946.3
462.7	9651.39
462.905	9127.11
463.111	9553.09
463.316	9680.07
463.522	9694.4
463.727	9374.92
463.932	9436.36
464.138	9221.32
464.343	9440.45
464.549	9077.96
464.754	9264.33
464.959	9264.33
465.165	9239.75
465.37	8746.19
465.575	8598.74
465.781	8930.51
465.986	9157.83
466.191	8641.75
466.397	8557.78
466.602	8088.79
466.807	8506.58
467.012	8545.49
467.218	8525.01
467.423	8316.12
467.628	8273.11
467.833	8658.13
468.038	8385.75
468.244	8029.4
468.449	8262.87
468.654	8109.27
468.859	8164.57
469.064	8023.26
469.269	7648.48
469.474	7855.33
469.679	7951.58
469.885	7757.02
470.09	7791.84
470.295	7949.53
470.5	7464.16
470.705	7746.78
470.91	7388.39
471.115	7404.77
471.32	7595.23
471.525	7533.79
471.73	7329
471.935	7310.57
472.139	6915.31
472.344	7136.49
472.549	7066.86
472.754	6886.64
472.959	6755.57
473.164	6718.7
473.369	6657.26
473.574	6958.32
473.778	6714.61
473.983	6733.04
474.188	6761.71
474.393	6530.29
474.598	6526.19
474.802	6442.23
475.007	6317.3
475.212	6354.16
475.417	6057.21
475.621	6114.55
475.826	6106.36
476.031	5997.82
476.235	6032.63
476.44	6055.16
476.645	5762.3
476.849	5754.11
477.054	5745.92
477.259	5840.12
477.463	5711.1
477.668	5592.32
477.872	5614.85
478.077	5369.09
478.282	5270.79
478.486	5356.8
478.691	5332.23
478.895	5317.89
479.1	5317.89
479.304	5217.54
479.509	5152.01
479.713	5164.29
479.918	5152.01
480.122	4963.59
480.326	5135.62
480.531	5242.12
480.735	5055.75
480.94	4941.07
481.144	5229.83
481.348	4996.36
481.553	4963.59
481.757	4869.39
481.961	4904.2
482.166	5016.84
482.37	4979.98
482.574	4873.48
482.778	4998.41
482.983	4961.55
483.187	5000.46
483.391	4984.07
483.595	4877.58
483.8	4791.56
484.004	4916.49
484.208	4877.58
484.412	4865.29
484.616	4793.61
484.821	4998.41
485.025	4848.91
485.229	4961.55
485.433	4939.02
485.637	4900.11
485.841	4810
486.045	4973.83
486.249	4947.21
486.453	4855.05
486.657	4836.62
486.861	4920.59
487.065	4769.04
487.269	4900.11
487.473	4709.65
487.677	4810
487.881	5004.55
488.085	4807.95
488.289	4836.62
488.493	4836.62
488.697	4996.36
488.901	4887.82
489.105	4781.32
489.309	5057.8
489.512	4963.59
489.716	4859.15
489.92	4842.76
490.124	4842.76
490.328	4936.97
490.531	5061.9
490.735	5051.66
490.939	4932.87
491.143	5006.6
491.346	5127.43
491.55	5088.52
491.754	5201.16
491.958	5104.9
492.161	4984.07
492.365	4959.5
492.569	5199.11
492.772	5266.69
492.976	5354.76
493.18	5254.41
493.383	5219.59
493.587	5352.71
493.79	5520.64
493.994	5307.65
494.197	5463.3
494.401	5465.35
494.605	5295.36
494.808	5426.43
495.012	5473.54
495.215	5485.83
495.419	5469.44
495.622	5526.78
495.825	5600.51
496.029	5713.15
496.232	5629.18
496.436	5885.18
496.639	6003.96
496.843	5848.32
497.046	5895.42
497.249	6038.78
497.453	6051.07
497.656	6159.61
497.859	5983.48
498.063	6173.94
498.266	6487.28
498.469	6311.16
498.673	6323.44
498.876	6429.94
499.079	6509.81
499.282	6382.84
499.485	6810.86
499.689	6671.6
499.892	6745.33
500.095	6700.27
500.298	6913.26
500.501	6794.48
500.705	7054.57
500.908	7097.58
501.111	7208.17
501.314	7277.8
501.517	7324.9
501.72	7533.79
501.923	7458.02
502.126	7582.95
502.329	7728.35
502.532	7683.3
502.735	7847.13
502.938	7986.4
503.141	8035.55
503.344	8187.1
503.547	8150.23
503.75	8178.9
503.953	8441.04
504.156	8344.79
504.359	8393.94
504.562	8645.84
504.765	8776.91
504.968	8809.68
505.17	8987.85
505.373	9030.86
505.576	9020.62
505.779	9198.79
505.982	9239.75
506.185	9348.29
506.387	9583.81
506.59	9655.49
506.793	9737.41
506.996	9739.46
507.198	10048.7
507.401	9968.83
507.604	10136.76
507.807	10357.94
508.009	10468.53
508.212	10550.45
508.415	10495.16
508.617	10798.26
508.82	10615.99
509.022	10591.41
509.225	10745.01
509.428	11070.64
509.63	11074.73
509.833	11064.49
510.035	11476.13
510.238	11478.18
510.44	11590.82
510.643	11775.14
510.845	11922.59
511.048	11732.13
511.25	11975.84
511.453	12119.2
511.655	12584.09
511.858	12375.19
512.06	12463.26
512.262	12577.94
512.465	12721.3
512.667	12723.35
512.87	13048.97
513.072	13042.83
513.274	13286.54
513.477	13237.39
513.679	13511.82
513.881	13524.1
514.084	13728.9
514.286	14034.05
514.488	14046.33
514.69	14247.04
514.893	14154.88
515.095	14290.04
515.297	14527.61
515.499	14728.31
515.701	14916.72
515.904	15123.57
516.106	15271.02
516.308	15238.25
516.51	15512.68
516.712	15682.66
516.914	15801.44
517.116	16039.01
517.318	15869.03
517.52	16004.19
517.722	16043.1
517.925	16438.36
518.127	16628.82
518.329	16655.45
518.531	16798.81
518.733	17030.23
518.935	17226.83
519.136	17122.38
519.338	17402.96
519.54	17564.75
519.742	17820.74
519.944	17869.89
520.146	17998.91
520.348	18129.98
520.55	18168.9
520.752	18310.21
520.954	18674.74
521.155	18504.76
521.357	18897.97
521.559	18930.74
521.761	19244.08
521.963	19309.61
522.164	19553.32
522.366	19631.15
522.568	19938.34
522.77	19790.89
522.971	20155.43
523.173	20026.4
523.375	20462.62
523.576	20235.3
523.778	20407.33
523.98	20601.88
524.181	20880.41
524.383	21021.72
524.584	21070.87
524.786	21380.11
524.988	21259.28
525.189	21236.75
525.391	21228.56
525.592	21554.19
525.794	21783.56
525.995	21871.62
526.197	22303.74
526.398	22057.99
526.6	22193.15
526.801	22338.56
527.003	22428.67
527.204	22359.04
527.406	22631.42
527.607	22475.77
527.808	22879.22
528.01	22533.12
528.211	22852.6
528.412	23141.36
528.614	22920.18
528.815	23362.54
529.016	23337.97
529.218	23438.32
529.419	23286.77
529.62	23225.33
529.822	23761.9
530.023	23331.83
530.224	23505.9
530.425	23577.58
530.626	23505.9
530.828	23553.01
531.029	24056.81
531.23	23823.34
531.431	23870.44
531.632	24116.2
531.833	24105.96
532.035	24198.12
532.236	24081.38
532.437	24220.64
532.638	24032.23
532.839	24404.96
533.04	24273.89
533.241	24257.51
533.442	24576.99
533.643	24480.74
533.844	24284.13
534.045	24452.06
534.246	24101.86
534.447	24540.13
534.648	24472.54
534.849	24493.02
535.05	24189.92
535.251	24601.57
535.451	24409.06
535.652	24419.3
535.853	24581.09
536.054	24714.2
536.255	24706.01
536.456	24413.15
536.657	24667.1
536.857	23958.5
537.058	24208.36
537.259	24763.36
537.46	24488.93
537.66	24579.04
537.861	24366.05
538.062	24538.08
538.263	24796.12
538.463	24458.21
538.664	24628.19
538.865	24603.61
539.065	24726.49
539.266	24488.93
539.466	24822.75
539.667	24247.27
539.868	24665.05
540.068	24732.64
540.269	24663
540.469	24931.29
540.67	24574.94
540.87	24634.33
541.071	24783.84
541.271	24697.82
541.472	24542.17
541.672	24390.63
541.873	24712.16
542.073	24507.36
542.274	24749.02
542.474	24364
542.675	24224.74
542.875	24906.71
543.075	24781.79
543.276	24476.64
543.476	24869.85
543.676	24468.45
543.877	24837.08
544.077	24499.17
544.277	24595.42
544.478	24652.77
544.678	24644.57
544.878	24540.13
545.078	24832.99
545.279	24507.36
545.479	24685.53
545.679	24490.98
545.879	24468.45
546.079	24810.46
546.28	24568.8
546.48	24452.06
546.68	24683.48
546.88	24427.49
547.08	24708.06
547.28	24296.42
547.48	24226.79
547.68	24599.52
547.88	24282.08
548.081	24466.4
548.281	24789.98
548.481	24404.96
548.681	24646.62
548.881	24521.7
549.081	24425.44
549.28	24507.36
549.48	24570.85
549.68	24626.14
549.88	24728.54
550.08	24269.79
550.28	24607.71
550.48	24558.56
550.68	24771.55
550.88	24302.56
551.08	24581.09
551.279	24329.19
551.479	24204.26
551.679	24450.02
551.879	24284.13
552.079	24370.15
552.278	24439.78
552.478	24497.12
552.678	24902.62
552.878	24501.22
553.077	24196.07
553.277	24243.17
553.477	24857.56
553.676	24280.03
553.876	24460.26
554.076	24364
554.275	24126.44
554.475	23999.46
554.674	24247.27
554.874	23983.08
555.074	24021.99
555.273	24144.87
555.473	24308.71
555.672	23907.3
555.872	24265.7
556.071	24175.59
556.271	24110.05
556.47	24087.53
556.67	23845.87
556.869	23925.74
557.068	23860.2
557.268	23903.21
557.467	23823.34
557.667	23905.26
557.866	23716.84
558.065	24009.7
558.265	23710.7
558.464	23419.89
558.663	23585.77
558.863	23262.19
559.062	24015.85
559.261	23632.88
559.461	23895.02
559.66	23227.38
559.859	23532.53
560.058	23151.6
560.258	23407.6
560.457	23032.82
560.656	23432.18
560.855	22924.28
561.054	23274.48
561.253	23180.28
561.453	23436.27
561.652	23213.04
561.851	23370.74
562.05	23086.07
562.249	23038.97
562.448	23016.44
562.647	22828.02
562.846	23034.87
563.045	22838.26
563.244	22932.47
563.443	23084.02
563.642	22356.99
563.841	22856.7
564.04	22440.96
564.239	22666.24
564.438	22481.92
564.637	22340.61
564.836	22361.09
565.035	21863.43
565.234	22215.68
565.432	21820.42
565.631	21937.16
565.83	21990.41
566.029	22053.89
566.228	21908.49
566.427	21754.89
566.625	21390.35
566.824	21478.41
567.023	21584.91
567.222	21234.71
567.42	21595.15
567.619	21615.63
567.818	21468.17
568.016	21447.69
568.215	21550.09
568.414	21320.72
568.612	21453.84
568.811	21316.62
569.01	20966.42
569.208	20923.41
569.407	20880.41
569.605	20827.16
569.804	20935.7
570.002	20780.06
570.201	20988.95
570.4	20540.44
570.598	20991
570.797	20505.63
570.995	20413.47
571.193	20309.02
571.392	20712.47
571.59	20349.98
571.789	20448.29
571.987	20188.19
572.186	20147.23
572.384	19962.92
572.582	20417.57
572.781	20192.29
572.979	19555.37
573.177	19729.45
573.376	20128.8
573.574	19698.73
573.772	19932.2
573.971	19581.99
574.169	19438.64
574.367	19407.92
574.565	19459.12
574.763	19395.63
574.962	19211.31
575.16	19196.98
575.358	18953.27
575.556	19049.52
575.754	19502.12
575.952	19121.2
576.151	19041.33
576.349	18805.81
576.547	18893.88
576.745	19129.39
576.943	18949.17
577.141	18691.13
577.339	18564.15
577.537	18740.28
577.735	18592.83
577.933	18474.04
578.131	18578.49
578.329	18564.15
578.527	18299.97
578.725	18134.08
578.923	18428.99
579.121	18263.1
579.319	18156.61
579.516	18396.22
579.714	18097.22
579.912	18318.4
580.11	17966.15
580.308	17859.65
580.506	17990.72
580.704	17493.07
580.901	17810.5
581.099	17798.21
581.297	17693.77
581.495	17695.82
581.692	17812.55
581.89	17828.93
582.088	17615.94
582.285	17599.56
582.483	17511.5
582.681	17564.75
582.878	17366.09
583.076	17106
583.274	17300.56
583.471	17138.77
583.669	17179.73
583.866	16888.92
584.064	17273.93
584.262	16901.2
584.459	17155.15
584.657	16792.66
584.854	16972.88
585.052	16772.18
585.249	16731.22
585.447	16901.2
585.644	16530.52
585.841	16739.41
586.039	16710.74
586.236	16491.61
586.434	16362.59
586.631	16663.64
586.828	16505.95
587.026	16354.4
587.223	16348.25
587.42	16192.61
587.618	16280.67
587.815	16000.1
588.012	16088.16
588.21	15998.05
588.407	16395.36
588.604	15766.63
588.801	15854.69
588.999	15899.75
589.196	15846.5
589.393	15600.74
589.59	15854.69
589.787	15842.4
589.984	15539.3
590.182	15430.76
590.379	15486.06
590.576	15414.38
590.773	15584.36
590.97	15598.7
591.167	15371.37
591.364	15101.04
591.561	15314.03
591.758	15228.01
591.955	15191.15
592.152	15367.27
592.349	15041.65
592.546	15129.71
592.743	15244.4
592.94	14910.58
593.137	15055.98
593.334	14929.01
593.531	14789.75
593.727	14978.16
593.924	14853.23
594.121	14630.01
594.318	14726.26
594.515	14673.01
594.712	14709.88
594.908	14830.71
595.105	14388.35
595.302	14351.48
595.499	14326.91
595.696	14210.17
595.892	14216.32
596.089	14378.11
596.286	14550.14
596.482	14095.49
596.679	14230.65
596.876	14304.38
597.072	14021.76
597.269	14009.47
597.466	13950.08
597.662	13980.8
597.859	13962.37
598.055	13851.78
598.252	13839.49
598.448	13905.03
598.645	13730.95
598.841	13585.54
599.038	13694.08
599.234	13905.03
599.431	13565.06
599.627	13493.38
599.824	13603.97
600.02	13327.5
600.217	13384.84
600.413	13284.49
600.609	13208.72
600.806	13042.83
601.002	13546.63
601.198	13175.95
601.395	13159.56
601.591	13130.89
601.787	13137.04
601.984	13089.93
602.18	13114.51
602.376	12993.68
602.572	13020.3
602.769	13069.45
602.965	12827.79
603.161	12813.46
603.357	12645.52
603.553	12684.44
603.75	12696.72
603.946	12661.91
604.142	12790.93
604.338	12387.48
604.534	12594.33
604.73	12399.77
604.926	12516.5
605.122	12491.93
605.318	12395.67
605.514	12276.89
605.71	12106.91
605.906	12362.9
606.102	12182.68
606.298	12205.21
606.494	12321.95
606.69	12098.72
606.886	11914.4
607.082	12108.96
607.278	12133.53
607.474	12006.56
607.67	11967.65
607.866	11857.06
608.062	11932.83
608.257	11691.17
608.453	12002.46
608.649	11881.63
608.845	11680.93
609.041	11756.71
609.236	11887.78
609.432	11762.85
609.628	11879.58
609.824	11650.21
610.019	11599.01
610.215	11725.99
610.411	11564.2
610.606	11523.24
610.802	11474.09
610.998	11459.75
611.193	11457.7
611.389	11451.56
611.584	11304.1
611.78	11259.05
611.976	11500.71
612.171	11439.27
612.367	11390.12
612.562	11248.81
612.758	11082.92
612.953	11091.12
613.149	11373.74
613.344	11257
613.539	11367.59
613.735	11183.27
613.93	11140.27
614.126	11254.95
614.321	11144.36
614.517	11343.02
614.712	11164.84
614.907	10820.78
615.103	11072.68
615.298	10949.81
615.493	10718.39
615.688	10783.92
615.884	11111.6
616.079	10894.51
616.274	10974.38
616.47	10828.98
616.665	10996.91
616.86	10671.28
617.055	10671.28
617.25	10689.71
617.445	10689.71
617.641	10542.26
617.836	10779.82
618.031	10378.42
618.226	10677.43
618.421	10480.82
618.616	10534.07
618.811	10548.4
619.006	10607.8
619.201	10233.02
619.396	10568.88
619.591	10329.27
619.786	10353.85
619.981	10255.54
620.176	10425.53
620.371	10011.84
620.566	10079.42
620.761	9878.72
620.956	10226.87
621.151	9958.59
621.346	9819.33
621.541	9657.54
621.735	9968.83
621.93	9796.8
622.125	9759.94
622.32	9737.41
622.515	9911.49
622.709	9559.24
622.904	9628.87
623.099	9551.04
623.294	9567.43
623.488	9163.98
623.683	9374.92
623.878	9278.66
624.072	9305.29
624.267	9295.05
624.462	9286.86
624.656	9114.83
624.851	9120.97
625.046	9080.01
625.24	8967.37
625.435	8989.9
625.629	9002.19
625.824	8828.11
626.018	8858.83
626.213	8647.89
626.407	8666.32
626.602	8656.08
626.796	8670.42
626.991	8633.55
627.185	8654.03
627.38	8572.11
627.574	8303.83
627.768	8508.63
627.963	8453.33
628.157	8226.01
628.352	8453.33
628.546	8287.45
628.74	8293.59
628.935	8119.51
629.129	8307.93
629.323	7957.72
629.517	8166.62
629.712	7972.06
629.906	7838.94
630.1	7781.6
630.294	7834.85
630.489	7734.5
630.683	7920.86
630.877	7611.62
631.071	7746.78
631.265	7748.83
631.459	7671.01
631.653	7505.12
631.848	7589.09
632.042	7478.5
632.236	7513.31
632.43	7306.47
632.624	7453.92
632.818	7419.11
633.012	7253.22
633.206	7357.67
633.4	7247.08
633.594	7318.76
633.788	7070.95
633.982	7130.34
634.176	6907.12
634.369	7134.44
634.563	7027.95
634.757	6984.94
634.951	7058.67
635.145	6874.35
635.339	6792.43
635.533	6986.99
635.726	7052.52
635.92	6739.18
636.114	6681.84
636.308	7079.15
636.501	6577.39
636.695	6714.61
636.889	6575.35
637.083	6784.24
637.276	6454.51
637.47	6429.94
637.664	6348.02
637.857	6515.95
638.051	6366.45
638.244	6413.56
638.438	6368.5
638.632	6161.66
638.825	6212.85
639.019	6124.79
639.212	6065.4
639.406	6126.84
639.599	6059.26
639.793	6130.94
639.986	6022.39
640.18	6067.45
640.373	5876.99
640.567	5952.76
640.76	5860.6
640.954	5803.26
641.147	5881.08
641.34	5850.36
641.534	5788.93
641.727	5805.31
641.92	5756.16
642.114	5678.33
642.307	5737.73
642.5	5684.48
642.694	5670.14
642.887	5657.86
643.08	5725.44
643.273	5408
643.467	5459.2
643.66	5502.21
643.853	5412.1
644.046	5453.06
644.239	5291.27
644.432	5250.31
644.626	5319.94
644.819	5389.57
645.012	5227.78
645.205	5303.56
645.398	5330.18
645.591	5211.4
645.784	5070.09
645.977	5127.43
646.17	4977.93
646.363	5035.27
646.556	4902.15
646.749	5025.03
646.942	5055.75
647.135	4982.03
647.328	4926.73
647.521	5053.7
647.714	4807.95
647.907	4736.27
648.099	4924.68
648.292	4752.65
648.485	4769.04
648.678	4730.13
648.871	4744.46
649.064	4607.25
649.256	4775.18
649.449	4635.92
649.642	4703.5
649.835	4687.12
650.027	4539.66
650.22	4592.91
650.413	4486.42
650.605	4562.19
650.798	4588.82
650.991	4513.04
651.183	4492.56
651.376	4283.67
651.568	4316.44
651.761	4490.51
651.954	4211.99
652.146	4392.21
652.339	4275.48
652.531	4230.42
652.724	4269.33
652.916	4078.87
653.109	4238.61
653.301	4293.91
653.494	4259.09
653.686	4185.37
653.879	4107.54
654.071	4128.02
654.263	4013.34
654.456	4029.72
654.648	4142.36
654.84	4113.69
655.033	3964.18
655.225	3994.9
655.417	4005.14
655.61	4050.2
655.802	3939.61
655.994	3876.12
656.186	3775.77
656.379	3927.32
656.571	3790.11
656.763	3824.92
656.955	3681.57
657.148	3738.91
657.34	3783.96
657.532	3693.85
657.724	3790.11
657.916	3740.96
658.108	3620.13
658.3	3695.9
658.492	3509.54
658.684	3607.84
658.876	3702.04
659.068	3581.21
659.26	3644.7
659.452	3644.7
659.644	3437.86
659.836	3581.21
660.028	3587.36
660.22	3411.23
660.412	3288.36
660.604	3400.99
660.796	3394.85
660.988	3366.18
661.18	3425.57
661.372	3491.1
661.563	3374.37
661.755	3341.6
661.947	3302.69
662.139	3263.78
662.331	3382.56
662.522	3192.1
662.714	3228.96
662.906	3157.29
663.097	3226.92
663.289	3317.03
663.481	3179.81
663.673	3237.16
663.864	3128.61
664.056	3177.76
664.247	3190.05
664.439	3063.08
664.631	3079.46
664.822	3130.66
665.014	3147.05
665.205	2997.54
665.397	3032.36
665.588	2940.2
665.78	3042.6
665.971	3087.65
666.163	3044.65
666.354	2919.72
666.546	2927.91
666.737	2884.91
666.929	2977.06
667.12	2972.97
667.311	2819.37
667.503	2925.86
667.694	2813.23
667.885	2766.12
668.077	2837.8
668.268	2876.71
668.459	2784.55
668.651	2829.61
668.842	2755.88
669.033	2719.02
669.224	2774.32
669.416	2706.73
669.607	2753.84
669.798	2694.44
669.989	2690.35
670.18	2608.43
670.371	2721.07
670.563	2647.34
670.754	2602.29
670.945	2719.02
671.136	2635.05
671.327	2514.22
671.518	2563.37
671.709	2690.35
671.9	2581.81
672.091	2561.33
672.282	2546.99
672.473	2596.14
672.664	2555.18
672.855	2546.99
673.046	2516.27
673.237	2481.46
673.428	2471.22
673.619	2438.45
673.809	2338.1
674	2467.12
674.191	2514.22
674.382	2520.37
674.573	2436.4
674.764	2360.63
674.954	2532.65
675.145	2436.4
675.336	2358.58
675.527	2278.71
675.717	2258.23
675.908	2334
676.099	2297.14
676.289	2338.1
676.48	2340.15
676.671	2309.43
676.861	2366.77
677.052	2147.64
677.243	2358.58
677.433	2286.9
677.624	2250.03
677.814	2227.51
678.005	2200.88
678.195	2260.27
678.386	2153.78
678.576	2211.12
678.767	2264.37
678.957	2194.74
679.148	2245.94
679.338	2258.23
679.529	2098.49
679.719	2235.7
679.909	2213.17
680.1	2192.69
680.29	2207.03
680.481	2172.21
680.671	2188.6
680.861	2252.08
681.052	2229.56
681.242	2084.15
681.432	2016.57
681.622	2008.37
681.813	2104.63
682.003	2104.63
682.193	2061.62
682.383	2204.98
682.573	2041.14
682.764	2098.49
682.954	2075.96
683.144	2098.49
683.334	1981.75
683.524	2184.5
683.714	1967.42
683.904	2106.68
684.094	1991.99
684.284	1981.75
684.474	2008.37
684.664	2086.2
684.854	2002.23
685.044	1998.13
685.234	2024.76
685.424	1967.42
685.614	1991.99
685.804	2006.33
685.994	2014.52
686.184	1955.13
686.374	1787.19
686.564	1916.22
686.753	1948.98
686.943	1920.31
687.133	1897.78
687.323	1912.12
687.513	1924.41
687.702	1936.7
687.892	1916.22
688.082	1948.98
688.272	1938.74
688.461	1862.97
688.651	1740.09
688.841	1760.57
689.03	1887.54
689.22	1803.58
689.41	1877.3
689.599	1686.84
689.789	1867.06
689.979	1795.39
690.168	1803.58
690.358	1918.26
690.547	1805.63
690.737	1813.82
690.926	1875.26
691.116	1676.6
691.305	1779
691.495	1623.36
691.684	1600.83
691.874	1772.86
692.063	1809.72
692.252	1748.28
692.442	1723.71
692.631	1723.71
692.82	1596.73
693.01	1670.46
693.199	1705.28
693.388	1723.71
693.578	1697.08
693.767	1629.5
693.956	1633.6
694.146	1611.07
694.335	1615.16
694.524	1740.09
694.713	1703.23
694.902	1703.23
695.092	1609.02
695.281	1641.79
695.47	1680.7
695.659	1645.88
695.848	1602.88
696.037	1727.8
696.226	1703.23
696.415	1582.4
696.604	1701.18
696.793	1557.82
696.982	1713.47
697.171	1629.5
697.36	1643.84
697.549	1621.31
697.738	1617.21
697.927	1649.98
698.116	1559.87
698.305	1674.56
698.494	1660.22
698.683	1600.83
698.872	1715.52
699.061	1633.6
699.25	1639.74
699.438	1566.01
699.627	1537.34
699.816	1664.32
700.005	1557.82
700.193	1627.45
700.382	1572.16
700.571	1637.69
700.76	1582.4
700.948	1645.88
701.137	1623.36
701.326	1662.27
701.514	1543.49
701.703	1525.05
701.892	1662.27
702.08	1688.89
702.269	1633.6
702.457	1672.51
702.646	1623.36
702.834	1584.45
703.023	1631.55
703.212	1670.46
703.4	1504.57
703.589	1602.88
703.777	1682.75
703.965	1631.55
704.154	1723.71
704.342	1729.85
704.531	1625.4
704.719	1604.92
704.907	1574.21
705.096	1703.23
705.284	1688.89
705.472	1647.93
705.661	1600.83
705.849	1647.93
706.037	1666.36
706.226	1686.84
706.414	1609.02
706.602	1713.47
706.79	1629.5
706.979	1598.78
707.167	1676.6
707.355	1619.26
707.543	1639.74
707.731	1729.85
707.919	1678.65
708.107	1654.08
708.296	1703.23
708.484	1680.7
708.672	1625.4
708.86	1656.12
709.048	1680.7
709.236	1785.15
709.424	1649.98
709.612	1645.88
709.8	1647.93
709.988	1697.08
710.176	1756.47
710.364	1615.16
710.551	1656.12
710.739	1727.8
710.927	1688.89
711.115	1727.8
711.303	1697.08
711.491	1721.66
711.679	1664.32
711.866	1668.41
712.054	1590.59
712.242	1731.9
712.43	1631.55
712.617	1670.46
712.805	1795.39
712.993	1699.13
713.181	1555.77
713.368	1707.32
713.556	1682.75
713.744	1678.65
713.931	1711.42
714.119	1705.28
714.306	1658.17
714.494	1647.93
714.682	1692.99
714.869	1596.73
715.057	1680.7
715.244	1688.89
715.432	1910.07
715.619	1756.47
715.807	1752.38
715.994	1762.62
716.182	1697.08
716.369	1740.09
716.556	1740.09
716.744	1803.58
716.931	1717.56
717.119	1723.71
717.306	1764.67
717.493	1697.08
717.681	1711.42
717.868	1752.38
718.055	1680.7
718.242	1680.7
718.43	1770.81
718.617	1740.09
718.804	1629.5
718.991	1713.47
719.179	1617.21
719.366	1690.94
719.553	1729.85
719.74	1746.23
719.927	1695.04
720.114	1781.05
720.301	1686.84
720.488	1727.8
720.676	1674.56
720.863	1717.56
721.05	1715.52
721.237	1692.99
721.424	1760.57
721.611	1727.8
721.798	1682.75
721.985	1725.75
722.172	1713.47
722.358	1625.4
722.545	1785.15
722.732	1668.41
722.919	1707.32
723.106	1686.84
723.293	1725.75
723.48	1727.8
723.667	1627.45
723.853	1713.47
724.04	1711.42
724.227	1621.31
724.414	1668.41
724.6	1658.17
724.787	1717.56
724.974	1695.04
725.161	1692.99
725.347	1631.55
725.534	1738.04
725.72	1703.23
725.907	1738.04
726.094	1688.89
726.28	1594.69
726.467	1596.73
726.653	1701.18
726.84	1682.75
727.027	1801.53
727.213	1690.94
727.4	1770.81
727.586	1705.28
727.773	1645.88
727.959	1748.28
728.145	1637.69
728.332	1649.98
728.518	1735.99
728.705	1813.82
728.891	1639.74
729.077	1709.37
729.264	1637.69
729.45	1701.18
729.636	1692.99
729.823	1654.08
730.009	1735.99
730.195	1682.75
730.382	1697.08
730.568	1621.31
730.754	1615.16
730.94	1697.08
731.126	1740.09
731.313	1758.52
731.499	1623.36
731.685	1740.09
731.871	1760.57
732.057	1643.84
732.243	1754.43
732.429	1752.38
732.615	1703.23
732.801	1678.65
732.987	1647.93
733.173	1629.5
733.359	1756.47
733.545	1588.54
733.731	1572.16
733.917	1639.74
734.103	1625.4
734.289	1703.23
734.475	1674.56
734.661	1795.39
734.847	1633.6
735.033	1652.03
735.219	1520.96
735.404	1631.55
735.59	1701.18
735.776	1688.89
735.962	1690.94
736.148	1627.45
736.333	1617.21
736.519	1555.77
736.705	1623.36
736.89	1615.16
737.076	1654.08
737.262	1555.77
737.447	1508.67
737.633	1580.35
737.819	1645.88
738.004	1533.25
738.19	1617.21
738.375	1594.69
738.561	1654.08
738.747	1543.49
738.932	1514.81
739.118	1606.97
739.303	1553.73
739.489	1566.01
739.674	1596.73
739.859	1510.72
740.045	1418.56
740.23	1561.92
740.416	1527.1
740.601	1436.99
740.786	1510.72
740.972	1500.48
741.157	1496.38
741.342	1410.37
741.528	1547.58
741.713	1557.82
741.898	1484.09
742.084	1539.39
742.269	1383.74
742.454	1432.9
742.639	1492.29
742.824	1477.95
743.01	1410.37
743.195	1518.91
743.38	1506.62
743.565	1463.62
743.75	1455.42
743.935	1359.17
744.12	1434.94
744.305	1422.66
744.49	1381.7
744.675	1416.51
744.86	1400.13
745.045	1422.66
745.23	1414.46
745.415	1322.31
745.6	1396.03
745.785	1391.94
745.97	1357.12
746.155	1414.46
746.34	1527.1
746.525	1326.4
746.71	1318.21
746.895	1293.63
747.079	1285.44
747.264	1383.74
747.449	1226.05
747.634	1252.67
747.819	1324.35
748.003	1289.54
748.188	1293.63
748.373	1334.59
748.557	1295.68
748.742	1164.61
748.927	1215.81
749.111	1287.49
749.296	1279.3
749.481	1271.11
749.665	1154.37
749.85	1174.85
750.034	1162.56
750.219	1162.56
750.404	1195.33
750.588	1174.85
750.773	1213.76
750.957	1144.13
751.141	1252.67
751.326	1224
751.51	1129.8
751.695	1195.33
751.879	1123.65
752.064	1197.38
752.248	1140.04
752.432	1017.16
752.617	1115.46
752.801	1068.36
752.985	1039.69
753.17	1101.12
753.354	1041.73
753.538	1105.22
753.722	1035.59
753.907	1088.84
754.091	1121.6
754.275	1113.41
754.459	925
754.643	1080.64
754.828	1023.3
755.012	1066.31
755.196	965.96
755.38	1000.77
755.564	931.14
755.748	1123.65
755.932	996.68
756.116	931.14
756.3	990.53
756.484	933.19
756.668	959.81
756.852	914.76
757.036	955.72
757.22	961.86
757.404	972.1
757.588	804.17
757.772	916.81
757.956	896.33
758.14	875.85
758.323	843.08
758.507	994.63
758.691	890.18
758.875	894.28
759.059	963.91
759.242	892.23
759.426	857.42
759.61	892.23
759.794	849.22
759.977	879.94
760.161	927.05
760.345	855.37
760.528	814.41
760.712	822.6
760.895	863.56
761.079	777.55
761.263	851.27
761.446	836.94
761.63	822.6
761.813	841.03
761.997	900.42
762.18	759.11
762.364	902.47
762.547	736.59
762.731	851.27
762.914	787.79
763.098	793.93
763.281	746.83
763.464	712.01
763.648	793.93
763.831	802.12
764.015	699.72
764.198	689.48
764.381	855.37
764.564	820.55
764.748	714.06
764.931	714.06
765.114	679.24
765.297	814.41
765.481	685.39
765.664	654.67
765.847	748.87
766.03	703.82
766.213	662.86
766.397	656.72
766.58	705.87
766.763	757.07
766.946	765.26
767.129	626
767.312	709.96
767.495	761.16
767.678	750.92
767.861	615.76
768.044	722.25
768.227	720.2
768.41	636.24
768.593	703.82
768.776	640.33
768.959	626
769.142	658.76
769.324	736.59
769.507	689.48
769.69	630.09
769.873	679.24
770.056	705.87
770.239	697.67
770.421	640.33
770.604	548.17
770.787	615.76
770.97	626
771.152	646.48
771.335	669
771.518	591.18
771.7	677.19
771.883	632.14
772.066	599.37
772.248	685.39
772.431	662.86
772.613	630.09
772.796	646.48
772.978	613.71
773.161	621.9
773.343	593.23
773.526	570.7
773.708	580.94
773.891	566.6
774.073	558.41
774.256	572.75
774.438	535.89
774.621	550.22
774.803	705.87
774.985	580.94
775.168	494.93
775.35	566.6
775.532	539.98
775.715	611.66
775.897	607.56
776.079	580.94
776.261	556.36
776.444	474.45
776.626	513.36
776.808	511.31
776.99	568.65
777.173	503.12
777.355	501.07
777.537	542.03
777.719	519.5
777.901	499.02
778.083	388.43
778.265	603.47
778.447	531.79
778.629	517.45
778.811	509.26
778.993	456.01
779.175	523.6
779.357	546.13
779.539	425.29
779.721	466.25
779.903	529.74
780.085	431.44
780.267	464.21
780.449	433.49
780.631	439.63
780.812	464.21
780.994	453.97
781.176	376.14
781.358	408.91
781.54	429.39
781.721	523.6
781.903	384.34
782.085	476.49
782.267	484.69
782.448	392.53
782.63	427.34
782.812	404.82
782.993	488.78
783.175	410.96
783.357	451.92
783.538	404.82
783.72	314.7
783.901	365.9
784.083	384.34
784.264	380.24
784.446	355.66
784.627	296.27
784.809	343.38
784.99	310.61
785.172	423.25
785.353	400.72
785.535	353.62
785.716	351.57
785.897	345.42
786.079	298.32
786.26	310.61
786.441	390.48
786.623	326.99
786.804	312.66
786.985	322.9
787.167	320.85
787.348	333.14
787.529	367.95
787.71	359.76
787.891	355.66
788.073	302.42
788.254	343.38
788.435	384.34
788.616	263.51
788.797	367.95
788.978	353.62
789.159	337.23
789.34	292.18
789.522	281.94
789.703	206.16
789.884	341.33
790.065	257.36
790.246	288.08
790.427	249.17
790.607	339.28
790.788	343.38
790.969	343.38
791.15	261.46
791.331	335.18
791.512	302.42
791.693	189.78
791.874	281.94
792.054	353.62
792.235	271.7
792.416	238.93
792.597	212.31
792.778	240.98
792.958	279.89
793.139	251.22
793.32	300.37
793.5	255.31
793.681	255.31
793.862	316.75
794.042	245.07
794.223	212.31
794.404	294.22
794.584	228.69
794.765	214.35
794.945	234.83
795.126	251.22
795.306	238.93
795.487	212.31
795.667	216.4
795.848	222.55
796.028	195.92
796.209	195.92
796.389	294.22
796.57	232.79
796.75	210.26
796.93	200.02
797.111	197.97
797.291	214.35
797.471	263.51
797.652	255.31
797.832	232.79
798.012	228.69
798.192	142.68
798.373	218.45
798.553	181.59
798.733	114
798.913	226.64
799.093	195.92
799.274	134.48
799.454	286.03
799.634	236.88
799.814	167.25
799.994	195.92
800.174	253.27
800.354	200.02
800.534	163.15
800.714	157.01
800.894	265.55
801.074	251.22
801.254	197.97
801.434	144.72
801.614	157.01
801.794	154.96
801.974	699.72
802.154	95.57
802.334	167.25
802.514	224.59
802.693	277.84
802.873	152.92
803.053	208.21
803.233	171.35
803.413	232.79
803.592	132.44
803.772	200.02
803.952	202.07
804.131	165.2
804.311	189.78
804.491	179.54
804.67	138.58
804.85	187.73
805.03	226.64
805.209	206.16
805.389	167.25
805.568	161.11
805.748	195.92
805.928	146.77
806.107	167.25
806.287	181.59
806.466	173.39
806.646	140.63
806.825	175.44
807.004	179.54
807.184	138.58
807.363	238.93
807.543	101.72
807.722	171.35
807.901	126.29
808.081	152.92
808.26	101.72
808.439	128.34
808.619	136.53
808.798	165.2
808.977	159.06
809.156	130.39
809.336	202.07
809.515	159.06
809.694	159.06
809.873	167.25
810.052	165.2
810.231	224.59
810.411	142.68
810.59	152.92
810.769	97.62
810.948	120.15
811.127	27.99
811.306	85.33
811.485	197.97
811.664	161.11
811.843	146.77
812.022	146.77
812.201	122.2
812.38	220.5
812.559	130.39
812.737	206.16
812.916	148.82
813.095	75.09
813.274	109.91
813.453	163.15
813.632	132.44
813.811	136.53
813.989	142.68
814.168	118.1
814.347	148.82
814.526	122.2
814.704	124.24
814.883	95.57
815.062	142.68
815.24	157.01
815.419	44.37
815.598	64.85
815.776	105.81
815.955	91.48
816.133	73.04
816.312	34.13
816.49	75.09
816.669	93.52
816.847	132.44
817.026	114
817.204	56.66
817.383	157.01
817.561	81.24
817.74	130.39
817.918	140.63
818.097	58.71
818.275	116.05
818.453	64.85
818.632	105.81
818.81	85.33
818.988	58.71
819.167	107.86
819.345	103.76
819.523	34.13
819.701	114
819.879	85.33
820.058	99.67
820.236	89.43
820.414	62.8
820.592	124.24
820.77	87.38
820.948	140.63
821.127	116.05
821.305	95.57
821.483	107.86
821.661	146.77
821.839	101.72
822.017	120.15
822.195	105.81
822.373	107.86
822.551	64.85
822.729	95.57
822.907	81.24
823.085	71
823.262	85.33
823.44	66.9
823.618	79.19
823.796	71
823.974	25.94
824.152	75.09
824.329	79.19
824.507	9.56
824.685	32.08
824.863	66.9
825.04	56.66
825.218	97.62
825.396	-25.26
825.574	9.56
825.751	126.29
825.929	120.15
826.107	99.67
826.284	-8.87
826.462	132.44
826.639	34.13
826.817	15.7
826.994	79.19
827.172	105.81
827.349	79.19
827.527	91.48
827.704	-19.11
827.882	56.66
828.059	81.24
828.237	23.89
828.414	50.52
828.591	3.41
828.769	140.63
828.946	9.56
829.124	118.1
829.301	85.33
829.478	103.76
829.655	107.86
829.833	34.13
830.01	85.33
830.187	83.28
830.364	48.47
830.542	23.89
830.719	101.72
830.896	81.24
831.073	120.15
831.25	75.09
831.427	83.28
831.604	91.48
831.782	1.37
831.959	89.43
832.136	32.08
832.313	30.04
832.49	11.61
832.667	93.52
832.844	75.09
833.021	91.48
833.198	44.37
833.374	107.86
833.551	52.56
833.728	54.61
833.905	83.28
834.082	75.09
834.259	111.96
834.436	93.52
834.612	99.67
834.789	83.28
834.966	-6.83
835.143	124.24
835.319	27.99
835.496	105.81
835.673	-8.87
835.85	34.13
836.026	46.42
836.203	89.43
836.38	1.37
836.556	130.39
836.733	79.19
836.909	128.34
837.086	64.85
837.262	60.76
837.439	68.95
837.616	7.51
837.792	40.28
837.968	21.85
838.145	48.47
838.321	38.23
838.498	83.28
838.674	7.51
838.851	25.94
839.027	32.08
839.203	-29.35
839.38	66.9
839.556	11.61
839.732	32.08
839.909	11.61
840.085	111.96
840.261	91.48
840.437	5.46
840.614	75.09
840.79	105.81
840.966	73.04
841.142	54.61
841.318	44.37
841.494	52.56
841.671	64.85
841.847	89.43
842.023	99.67
842.199	101.72
842.375	66.9
842.551	1.37
842.727	64.85
842.903	95.57
843.079	-21.16
843.255	89.43
843.431	38.23
843.607	62.8
843.783	11.61
843.959	44.37
844.134	85.33
844.31	-0.68
844.486	3.41
844.662	68.95
844.838	-25.26
845.013	95.57
845.189	3.41
845.365	62.8
845.541	48.47
845.716	32.08
845.892	23.89
846.068	56.66
846.244	32.08
846.419	9.56
846.595	25.94
846.77	93.52
846.946	114
847.122	-49.83
847.297	64.85
847.473	64.85
847.648	19.8
847.824	50.52
847.999	19.8
848.175	9.56
848.35	56.66
848.526	60.76
848.701	-25.26
848.876	91.48
849.052	-31.4
849.227	17.75
849.403	91.48
849.578	75.09
849.753	58.71
849.929	71
850.104	-0.68
850.279	40.28
850.454	36.18
850.63	34.13
850.805	17.75
850.98	83.28
851.155	17.75
851.33	23.89
851.505	21.85
851.681	85.33
851.856	52.56
852.031	73.04
852.206	17.75
852.381	32.08
852.556	52.56
852.731	-0.68
852.906	71
853.081	32.08
853.256	27.99
853.431	23.89
853.606	-4.78
853.781	34.13
853.956	50.52
854.131	-17.07
854.305	36.18
854.48	-47.79
854.655	-23.21
854.83	-25.26
855.005	58.71
855.18	32.08
855.354	-0.68
855.529	-6.83
855.704	85.33
855.879	56.66
856.053	15.7
856.228	21.85
856.403	21.85
856.577	40.28
856.752	-27.31
856.926	87.38
857.101	40.28
857.276	-31.4
857.45	3.41
857.625	60.76
857.799	60.76
857.974	19.8
858.148	-21.16
858.323	32.08
858.497	38.23
858.672	-80.55
858.846	42.32
859.02	60.76
859.195	-15.02
859.369	114
859.543	3.41
859.718	44.37
859.892	-31.4
860.066	54.61
860.241	32.08
860.415	-58.03
860.589	75.09
860.763	-8.87
860.938	-4.78
861.112	89.43
861.286	-10.92
861.46	1.37
861.634	120.15
861.808	15.7
861.982	-10.92
862.157	-23.21
862.331	7.51
862.505	-49.83
862.679	-94.89
862.853	23.89
863.027	3.41
863.201	58.71
863.375	25.94
863.549	62.8
863.722	-0.68
863.896	89.43
864.07	-21.16
864.244	-0.68
864.418	-33.45
864.592	66.9
864.766	79.19
864.939	-41.64
865.113	-2.73
865.287	81.24
865.461	5.46
865.634	30.04
865.808	-15.02
865.982	-37.55
866.156	52.56
866.329	3.41
866.503	38.23
866.676	19.8
866.85	-0.68
867.024	-23.21
867.197	15.7
867.371	-17.07
867.544	-17.07
867.718	71
867.891	68.95
868.065	9.56
868.238	11.61
868.412	56.66
868.585	-6.83
868.759	-49.83
868.932	-21.16
869.105	66.9
869.279	44.37
869.452	-45.74
869.625	23.89
869.799	64.85
869.972	-51.88
870.145	32.08
870.319	15.7
870.492	-47.79
870.665	81.24
870.838	13.65
871.011	-41.64
871.185	17.75
871.358	48.47
871.531	68.95
871.704	25.94
871.877	19.8
872.05	48.47
872.223	-58.03
872.396	-31.4
872.569	-8.87
872.742	64.85
872.915	23.89
873.088	21.85
873.261	-35.5
873.434	44.37
873.607	21.85
873.78	48.47
873.953	56.66
874.126	85.33
874.299	64.85
874.471	30.04
874.644	-8.87
874.817	-45.74
874.99	52.56
875.163	9.56
875.335	75.09
875.508	15.7
875.681	64.85
875.853	-25.26
876.026	3.41
876.199	-6.83
876.371	-6.83
876.544	-41.64
876.717	79.19
876.889	73.04
877.062	-66.22
877.234	25.94
877.407	-8.87
877.579	32.08
877.752	81.24
877.924	68.95
878.097	21.85
878.269	46.42
878.442	32.08
878.614	21.85
878.786	48.47
878.959	-29.35
879.131	30.04
879.303	-41.64
879.476	15.7
879.648	17.75
879.82	21.85
879.993	48.47
880.165	21.85
880.337	-39.59
880.509	-74.41
880.681	-41.64
880.854	25.94
881.026	44.37
881.198	23.89
881.37	71
881.542	23.89
881.714	7.51
881.886	23.89
882.058	11.61
882.23	-6.83
882.402	9.56
882.574	23.89
882.746	38.23
882.918	122.2
883.09	-58.03
883.262	11.61
883.434	56.66
883.606	25.94
883.778	-51.88
883.95	44.37
884.122	15.7
884.293	9.56
884.465	5.46
884.637	-8.87
884.809	-2.73
884.98	42.32
885.152	7.51
885.324	32.08
885.496	-25.26
885.667	9.56
885.839	38.23
886.011	27.99
886.182	15.7
886.354	19.8
886.525	-39.59
886.697	3.41
886.869	5.46
887.04	15.7
887.212	27.99
887.383	79.19
887.555	-8.87
887.726	-33.45
887.897	-62.12
888.069	-25.26
888.24	5.46
888.412	9.56
888.583	11.61
888.754	38.23
888.926	-6.83
889.097	42.32
889.268	77.14
889.44	-6.83
889.611	27.99
889.782	50.52
889.953	-66.22
890.125	62.8
890.296	9.56
890.467	-55.98
890.638	-62.12
890.809	15.7
890.98	13.65
891.151	3.41
891.323	27.99
891.494	66.9
891.665	-0.68
891.836	56.66
892.007	19.8
892.178	27.99
892.349	23.89
892.52	3.41
892.691	11.61
892.862	9.56
893.032	-33.45
893.203	40.28
893.374	19.8
893.545	40.28
893.716	-8.87
893.887	23.89
894.057	7.51
894.228	60.76
894.399	-70.31
894.57	-4.78
894.74	-25.26
894.911	11.61
895.082	-23.21
895.253	-80.55
895.423	-53.93
895.594	19.8
895.764	-6.83
895.935	-25.26
896.106	-33.45
896.276	-45.74
896.447	-33.45
896.617	11.61
896.788	-31.4
896.958	-4.78
897.129	7.51
897.299	30.04
897.47	21.85
897.64	27.99
897.81	19.8
897.981	-25.26
898.151	-15.02
898.322	68.95
898.492	36.18
898.662	-2.73
898.832	11.61
899.003	-0.68
899.173	25.94
899.343	27.99
899.513	-84.65
