Data from USB4F104151__28__13-10-48-024.txt Node

Date: Fri Mar 14 13:10:48 EDT 2025
User: louis
Spectrometer: USB4F10415
Trigger mode: 4
Integration Time (sec): 2.000000E-2
Scans to average: 1
Electric dark correction enabled: true
Nonlinearity correction enabled: false
Boxcar width: 0
XAxis mode: Wavelengths
Number of Pixels in Spectrum: 3648
>>>>>Begin Spectral Data<<<<<
178.204	-62.46
178.424	-62.46
178.644	-62.46
178.864	-58.37
179.084	-89.09
179.304	37.89
179.524	7.17
179.744	-21.5
179.964	9.22
180.184	1.02
180.404	-27.65
180.624	41.98
180.844	5.12
181.064	-50.18
181.283	-35.84
181.503	27.65
181.723	5.12
181.943	-25.6
182.163	113.66
182.383	13.31
182.602	15.36
182.822	41.98
183.042	23.55
183.262	3.07
183.482	25.6
183.701	29.7
183.921	48.13
184.141	-11.26
184.361	56.32
184.58	35.84
184.8	-5.12
185.02	-21.5
185.239	74.75
185.459	7.17
185.679	52.22
185.898	-56.32
186.118	56.32
186.338	95.23
186.557	-23.55
186.777	-9.22
186.997	-5.12
187.216	78.85
187.436	60.42
187.655	97.28
187.875	31.74
188.095	-64.51
188.314	27.65
188.534	103.42
188.753	31.74
188.973	74.75
189.192	56.32
189.412	64.51
189.631	29.7
189.851	-58.37
190.07	50.18
190.29	-62.46
190.509	87.04
190.729	15.36
190.948	66.56
191.168	197.63
191.387	-9.22
191.607	-5.12
191.826	56.32
192.045	-39.94
192.265	105.47
192.484	13.31
192.704	39.94
192.923	33.79
193.142	80.89
193.362	109.57
193.581	41.98
193.8	46.08
194.02	37.89
194.239	-19.46
194.458	52.22
194.678	15.36
194.897	19.46
195.116	11.26
195.335	37.89
195.555	-27.65
195.774	35.84
195.993	3.07
196.212	62.46
196.432	-54.27
196.651	58.37
196.87	-27.65
197.089	25.6
197.308	54.27
197.528	58.37
197.747	13.31
197.966	15.36
198.185	82.94
198.404	-15.36
198.623	27.65
198.842	44.03
199.062	48.13
199.281	27.65
199.5	17.41
199.719	1.02
199.938	27.65
200.157	105.47
200.376	1.02
200.595	-7.17
200.814	11.26
201.033	17.41
201.252	15.36
201.471	-44.03
201.69	15.36
201.909	46.08
202.128	-13.31
202.347	111.61
202.566	-1.02
202.785	3.07
203.004	84.99
203.223	17.41
203.442	76.8
203.661	-23.55
203.879	48.13
204.098	52.22
204.317	-9.22
204.536	41.98
204.755	82.94
204.974	3.07
205.193	62.46
205.411	80.89
205.63	-25.6
205.849	50.18
206.068	115.71
206.287	25.6
206.505	56.32
206.724	44.03
206.943	72.7
207.162	-23.55
207.381	15.36
207.599	50.18
207.818	62.46
208.037	-46.08
208.255	-50.18
208.474	58.37
208.693	-33.79
208.911	60.42
209.13	13.31
209.349	84.99
209.567	41.98
209.786	66.56
210.005	62.46
210.223	76.8
210.442	7.17
210.661	107.52
210.879	7.17
211.098	58.37
211.316	31.74
211.535	37.89
211.753	-58.37
211.972	29.7
212.191	17.41
212.409	15.36
212.628	62.46
212.846	-66.56
213.065	23.55
213.283	23.55
213.502	-3.07
213.72	-1.02
213.938	54.27
214.157	-17.41
214.375	50.18
214.594	-80.89
214.812	15.36
215.031	46.08
215.249	37.89
215.467	-3.07
215.686	-1.02
215.904	-27.65
216.122	-17.41
216.341	35.84
216.559	58.37
216.778	17.41
216.996	19.46
217.214	17.41
217.432	-9.22
217.651	41.98
217.869	74.75
218.087	17.41
218.306	50.18
218.524	64.51
218.742	23.55
218.96	-3.07
219.179	70.65
219.397	31.74
219.615	93.18
219.833	48.13
220.051	19.46
220.27	9.22
220.488	64.51
220.706	-48.13
220.924	-13.31
221.142	-1.02
221.36	89.09
221.578	-25.6
221.796	66.56
222.015	1.02
222.233	-19.46
222.451	1.02
222.669	-37.89
222.887	29.7
223.105	13.31
223.323	17.41
223.541	62.46
223.759	48.13
223.977	7.17
224.195	31.74
224.413	-7.17
224.631	78.85
224.849	68.61
225.067	9.22
225.285	-13.31
225.503	-54.27
225.721	-7.17
225.939	31.74
226.157	72.7
226.375	66.56
226.592	-31.74
226.81	44.03
227.028	80.89
227.246	56.32
227.464	121.85
227.682	-15.36
227.9	123.9
228.117	-17.41
228.335	11.26
228.553	17.41
228.771	25.6
228.989	82.94
229.206	19.46
229.424	95.23
229.642	-29.7
229.86	-5.12
230.077	48.13
230.295	-7.17
230.513	7.17
230.731	7.17
230.948	23.55
231.166	109.57
231.384	58.37
231.601	1.02
231.819	13.31
232.037	-3.07
232.254	25.6
232.472	17.41
232.689	5.12
232.907	15.36
233.125	19.46
233.342	84.99
233.56	44.03
233.777	46.08
233.995	56.32
234.213	72.7
234.43	-1.02
234.648	50.18
234.865	5.12
235.083	19.46
235.3	3.07
235.518	58.37
235.735	1.02
235.953	15.36
236.17	33.79
236.388	121.85
236.605	66.56
236.822	41.98
237.04	113.66
237.257	72.7
237.475	19.46
237.692	-33.79
237.909	15.36
238.127	23.55
238.344	-23.55
238.562	-15.36
238.779	-3.07
238.996	31.74
239.214	39.94
239.431	64.51
239.648	-13.31
239.865	66.56
240.083	39.94
240.3	1.02
240.517	21.5
240.735	74.75
240.952	21.5
241.169	31.74
241.386	56.32
241.603	-37.89
241.821	11.26
242.038	97.28
242.255	130.05
242.472	7.17
242.689	23.55
242.907	91.13
243.124	56.32
243.341	25.6
243.558	31.74
243.775	-21.5
243.992	19.46
244.209	9.22
244.426	54.27
244.643	7.17
244.86	-62.46
245.078	72.7
245.295	7.17
245.512	109.57
245.729	23.55
245.946	39.94
246.163	37.89
246.38	84.99
246.597	82.94
246.814	11.26
247.031	-3.07
247.248	46.08
247.464	31.74
247.681	46.08
247.898	64.51
248.115	3.07
248.332	7.17
248.549	9.22
248.766	105.47
248.983	74.75
249.2	23.55
249.417	27.65
249.633	-21.5
249.85	-3.07
250.067	25.6
250.284	29.7
250.501	44.03
250.717	23.55
250.934	-25.6
251.151	56.32
251.368	37.89
251.585	11.26
251.801	25.6
252.018	15.36
252.235	144.38
252.451	39.94
252.668	33.79
252.885	19.46
253.102	13.31
253.318	13.31
253.535	-41.98
253.752	-9.22
253.968	19.46
254.185	-11.26
254.401	9.22
254.618	68.61
254.835	-17.41
255.051	117.76
255.268	58.37
255.484	23.55
255.701	-39.94
255.917	41.98
256.134	13.31
256.351	44.03
256.567	15.36
256.784	80.89
257	48.13
257.217	17.41
257.433	93.18
257.65	121.85
257.866	17.41
258.082	3.07
258.299	-11.26
258.515	5.12
258.732	68.61
258.948	50.18
259.165	25.6
259.381	68.61
259.597	-17.41
259.814	89.09
260.03	7.17
260.246	68.61
260.463	62.46
260.679	41.98
260.895	58.37
261.112	58.37
261.328	-52.22
261.544	13.31
261.761	60.42
261.977	60.42
262.193	-13.31
262.409	76.8
262.626	25.6
262.842	50.18
263.058	84.99
263.274	89.09
263.49	52.22
263.707	25.6
263.923	97.28
264.139	7.17
264.355	52.22
264.571	52.22
264.787	101.37
265.004	84.99
265.22	-23.55
265.436	37.89
265.652	52.22
265.868	1.02
266.084	11.26
266.3	72.7
266.516	17.41
266.732	74.75
266.948	68.61
267.164	-1.02
267.38	97.28
267.596	60.42
267.812	99.33
268.028	50.18
268.244	-7.17
268.46	52.22
268.676	31.74
268.892	-31.74
269.108	-19.46
269.324	-17.41
269.54	-19.46
269.756	13.31
269.972	-64.51
270.188	-31.74
270.403	-11.26
270.619	35.84
270.835	78.85
271.051	-21.5
271.267	44.03
271.483	70.65
271.698	56.32
271.914	89.09
272.13	68.61
272.346	109.57
272.562	-17.41
272.777	48.13
272.993	-1.02
273.209	-23.55
273.425	3.07
273.64	19.46
273.856	91.13
274.072	29.7
274.287	-91.13
274.503	37.89
274.719	13.31
274.934	37.89
275.15	-39.94
275.366	33.79
275.581	13.31
275.797	3.07
276.012	128
276.228	15.36
276.444	-19.46
276.659	64.51
276.875	23.55
277.09	58.37
277.306	-23.55
277.521	84.99
277.737	15.36
277.952	56.32
278.168	37.89
278.383	64.51
278.599	-17.41
278.814	70.65
279.03	80.89
279.245	33.79
279.461	-1.02
279.676	54.27
279.892	9.22
280.107	62.46
280.322	23.55
280.538	21.5
280.753	-5.12
280.969	35.84
281.184	50.18
281.399	105.47
281.615	9.22
281.83	97.28
282.045	29.7
282.26	-29.7
282.476	39.94
282.691	-9.22
282.906	52.22
283.122	64.51
283.337	-1.02
283.552	21.5
283.767	46.08
283.983	17.41
284.198	56.32
284.413	-21.5
284.628	-3.07
284.843	148.48
285.058	23.55
285.274	50.18
285.489	-70.65
285.704	70.65
285.919	72.7
286.134	41.98
286.349	48.13
286.564	7.17
286.779	35.84
286.995	-15.36
287.21	-19.46
287.425	17.41
287.64	54.27
287.855	74.75
288.07	9.22
288.285	117.76
288.5	17.41
288.715	115.71
288.93	48.13
289.145	52.22
289.36	93.18
289.575	-5.12
289.79	60.42
290.004	27.65
290.219	15.36
290.434	58.37
290.649	15.36
290.864	-54.27
291.079	60.42
291.294	5.12
291.509	46.08
291.724	44.03
291.938	78.85
292.153	76.8
292.368	39.94
292.583	19.46
292.798	72.7
293.012	105.47
293.227	72.7
293.442	31.74
293.657	66.56
293.871	64.51
294.086	48.13
294.301	31.74
294.516	74.75
294.73	13.31
294.945	-17.41
295.16	-15.36
295.374	23.55
295.589	115.71
295.804	13.31
296.018	-5.12
296.233	39.94
296.447	17.41
296.662	-13.31
296.877	-1.02
297.091	7.17
297.306	27.65
297.52	1.02
297.735	31.74
297.949	11.26
298.164	76.8
298.378	-33.79
298.593	7.17
298.807	-1.02
299.022	-23.55
299.236	-5.12
299.451	31.74
299.665	52.22
299.88	97.28
300.094	5.12
300.309	-5.12
300.523	-15.36
300.737	3.07
300.952	25.6
301.166	31.74
301.381	39.94
301.595	25.6
301.809	50.18
302.024	25.6
302.238	37.89
302.452	48.13
302.667	48.13
302.881	39.94
303.095	35.84
303.309	-7.17
303.524	17.41
303.738	-27.65
303.952	-37.89
304.166	58.37
304.381	-15.36
304.595	17.41
304.809	52.22
305.023	17.41
305.237	-23.55
305.452	17.41
305.666	39.94
305.88	-13.31
306.094	33.79
306.308	72.7
306.522	-1.02
306.736	48.13
306.95	48.13
307.164	66.56
307.379	17.41
307.593	56.32
307.807	35.84
308.021	46.08
308.235	5.12
308.449	58.37
308.663	9.22
308.877	78.85
309.091	-23.55
309.305	95.23
309.519	7.17
309.733	46.08
309.947	-9.22
310.161	105.47
310.374	-17.41
310.588	138.24
310.802	-17.41
311.016	101.37
311.23	15.36
311.444	31.74
311.658	-50.18
311.872	21.5
312.085	11.26
312.299	101.37
312.513	46.08
312.727	25.6
312.941	-31.74
313.154	50.18
313.368	1.02
313.582	7.17
313.796	54.27
314.009	70.65
314.223	103.42
314.437	74.75
314.651	99.33
314.864	7.17
315.078	56.32
315.292	82.94
315.505	-19.46
315.719	52.22
315.933	66.56
316.146	46.08
316.36	15.36
316.573	74.75
316.787	48.13
317.001	39.94
317.214	101.37
317.428	-11.26
317.641	70.65
317.855	56.32
318.068	-29.7
318.282	41.98
318.495	78.85
318.709	52.22
318.922	25.6
319.136	15.36
319.349	37.89
319.563	41.98
319.776	5.12
319.99	33.79
320.203	31.74
320.417	87.04
320.63	21.5
320.843	68.61
321.057	82.94
321.27	23.55
321.483	164.86
321.697	7.17
321.91	29.7
322.124	9.22
322.337	21.5
322.55	3.07
322.763	25.6
322.977	9.22
323.19	-13.31
323.403	70.65
323.617	56.32
323.83	60.42
324.043	-9.22
324.256	56.32
324.469	23.55
324.683	58.37
324.896	62.46
325.109	74.75
325.322	87.04
325.535	17.41
325.748	62.46
325.962	72.7
326.175	25.6
326.388	19.46
326.601	56.32
326.814	54.27
327.027	41.98
327.24	23.55
327.453	-15.36
327.666	39.94
327.879	97.28
328.092	35.84
328.305	23.55
328.518	74.75
328.731	-5.12
328.944	41.98
329.157	-17.41
329.37	17.41
329.583	44.03
329.796	64.51
330.009	70.65
330.222	52.22
330.435	123.9
330.648	60.42
330.861	33.79
331.073	-21.5
331.286	72.7
331.499	11.26
331.712	9.22
331.925	15.36
332.138	62.46
332.35	11.26
332.563	-1.02
332.776	89.09
332.989	50.18
333.202	52.22
333.414	44.03
333.627	48.13
333.84	44.03
334.053	50.18
334.265	68.61
334.478	101.37
334.691	89.09
334.903	19.46
335.116	35.84
335.329	15.36
335.541	-25.6
335.754	166.91
335.966	-52.22
336.179	68.61
336.392	44.03
336.604	44.03
336.817	41.98
337.029	70.65
337.242	13.31
337.454	87.04
337.667	-39.94
337.88	64.51
338.092	15.36
338.305	64.51
338.517	76.8
338.729	29.7
338.942	109.57
339.154	58.37
339.367	11.26
339.579	107.52
339.792	-11.26
340.004	80.89
340.217	21.5
340.429	35.84
340.641	46.08
340.854	3.07
341.066	19.46
341.278	76.8
341.491	35.84
341.703	62.46
341.915	74.75
342.128	27.65
342.34	29.7
342.552	-39.94
342.764	19.46
342.977	123.9
343.189	64.51
343.401	41.98
343.613	3.07
343.826	9.22
344.038	33.79
344.25	89.09
344.462	-48.13
344.674	48.13
344.886	56.32
345.099	54.27
345.311	89.09
345.523	60.42
345.735	-3.07
345.947	39.94
346.159	19.46
346.371	35.84
346.583	50.18
346.795	39.94
347.007	15.36
347.219	46.08
347.431	-17.41
347.643	17.41
347.855	87.04
348.067	66.56
348.279	7.17
348.491	95.23
348.703	64.51
348.915	140.29
349.127	33.79
349.339	-5.12
349.551	52.22
349.763	105.47
349.975	29.7
350.187	134.14
350.399	105.47
350.61	3.07
350.822	80.89
351.034	97.28
351.246	72.7
351.458	48.13
351.669	64.51
351.881	68.61
352.093	82.94
352.305	74.75
352.517	93.18
352.728	48.13
352.94	-13.31
353.152	89.09
353.363	-23.55
353.575	-31.74
353.787	-1.02
353.999	123.9
354.21	31.74
354.422	13.31
354.633	-3.07
354.845	39.94
355.057	87.04
355.268	128
355.48	27.65
355.692	-11.26
355.903	64.51
356.115	62.46
356.326	-48.13
356.538	54.27
356.749	9.22
356.961	119.81
357.172	44.03
357.384	1.02
357.595	41.98
357.807	74.75
358.018	11.26
358.23	35.84
358.441	130.05
358.653	23.55
358.864	72.7
359.075	74.75
359.287	99.33
359.498	80.89
359.709	15.36
359.921	80.89
360.132	15.36
360.344	5.12
360.555	41.98
360.766	41.98
360.977	60.42
361.189	93.18
361.4	48.13
361.611	29.7
361.823	84.99
362.034	25.6
362.245	11.26
362.456	-1.02
362.667	50.18
362.879	41.98
363.09	33.79
363.301	3.07
363.512	35.84
363.723	56.32
363.935	95.23
364.146	76.8
364.357	31.74
364.568	56.32
364.779	48.13
364.99	5.12
365.201	31.74
365.412	113.66
365.623	-13.31
365.834	89.09
366.045	31.74
366.256	62.46
366.467	56.32
366.678	107.52
366.889	31.74
367.1	23.55
367.311	44.03
367.522	29.7
367.733	117.76
367.944	48.13
368.155	23.55
368.366	121.85
368.577	60.42
368.788	39.94
368.999	58.37
369.209	97.28
369.42	46.08
369.631	138.24
369.842	97.28
370.053	31.74
370.264	50.18
370.474	117.76
370.685	89.09
370.896	7.17
371.107	115.71
371.317	-7.17
371.528	33.79
371.739	97.28
371.95	72.7
372.16	72.7
372.371	87.04
372.582	25.6
372.792	64.51
373.003	44.03
373.214	5.12
373.424	95.23
373.635	-7.17
373.846	7.17
374.056	101.37
374.267	48.13
374.477	58.37
374.688	25.6
374.898	52.22
375.109	84.99
375.319	11.26
375.53	138.24
375.74	91.13
375.951	107.52
376.161	82.94
376.372	48.13
376.582	54.27
376.793	97.28
377.003	9.22
377.214	50.18
377.424	-25.6
377.635	80.89
377.845	5.12
378.055	54.27
378.266	44.03
378.476	25.6
378.686	89.09
378.897	64.51
379.107	66.56
379.317	37.89
379.528	11.26
379.738	123.9
379.948	66.56
380.158	70.65
380.369	74.75
380.579	74.75
380.789	35.84
380.999	56.32
381.21	-7.17
381.42	109.57
381.63	33.79
381.84	93.18
382.05	7.17
382.261	152.57
382.471	130.05
382.681	-7.17
382.891	48.13
383.101	80.89
383.311	80.89
383.521	1.02
383.731	99.33
383.941	60.42
384.151	138.24
384.361	41.98
384.571	87.04
384.781	33.79
384.991	117.76
385.201	109.57
385.411	58.37
385.621	136.19
385.831	-52.22
386.041	17.41
386.251	66.56
386.461	80.89
386.671	-11.26
386.881	97.28
387.091	33.79
387.301	140.29
387.511	35.84
387.72	107.52
387.93	58.37
388.14	39.94
388.35	37.89
388.56	78.85
388.769	103.42
388.979	150.53
389.189	87.04
389.399	97.28
389.609	66.56
389.818	48.13
390.028	41.98
390.238	123.9
390.447	5.12
390.657	66.56
390.867	-11.26
391.076	80.89
391.286	82.94
391.496	35.84
391.705	56.32
391.915	78.85
392.125	121.85
392.334	91.13
392.544	93.18
392.753	60.42
392.963	146.43
393.172	113.66
393.382	70.65
393.591	154.62
393.801	-7.17
394.01	115.71
394.22	130.05
394.429	105.47
394.639	50.18
394.848	166.91
395.058	52.22
395.267	121.85
395.477	93.18
395.686	80.89
395.895	146.43
396.105	111.61
396.314	33.79
396.524	132.09
396.733	111.61
396.942	105.47
397.152	60.42
397.361	109.57
397.57	128
397.78	89.09
397.989	105.47
398.198	201.72
398.407	70.65
398.617	132.09
398.826	89.09
399.035	60.42
399.244	68.61
399.453	168.96
399.663	128
399.872	134.14
400.081	76.8
400.29	134.14
400.499	37.89
400.708	82.94
400.917	148.48
401.127	138.24
401.336	56.32
401.545	183.29
401.754	72.7
401.963	162.81
402.172	58.37
402.381	117.76
402.59	48.13
402.799	54.27
403.008	173.05
403.217	181.25
403.426	148.48
403.635	113.66
403.844	97.28
404.053	160.77
404.262	113.66
404.471	236.54
404.68	82.94
404.888	146.43
405.097	166.91
405.306	72.7
405.515	193.53
405.724	113.66
405.933	179.2
406.142	168.96
406.35	175.1
406.559	130.05
406.768	222.2
406.977	201.72
407.185	218.11
407.394	173.05
407.603	185.34
407.812	189.44
408.02	250.88
408.229	252.92
408.438	254.97
408.646	265.21
408.855	211.96
409.064	289.79
409.272	242.68
409.481	242.68
409.69	359.42
409.898	250.88
410.107	254.97
410.315	310.27
410.524	267.26
410.733	330.75
410.941	345.08
411.15	492.54
411.358	371.71
411.567	482.3
411.775	418.81
411.984	357.37
412.192	394.23
412.401	488.44
412.609	513.02
412.818	510.97
413.026	539.64
413.234	523.26
413.443	551.93
413.651	521.21
413.86	570.36
414.068	726
414.276	615.41
414.485	670.71
414.693	691.19
414.901	668.66
415.11	781.3
415.318	744.44
415.526	736.24
415.734	801.78
415.943	760.82
416.151	787.44
416.359	926.71
416.567	830.45
416.776	910.32
416.984	1004.53
417.192	1068.02
417.4	1000.43
417.608	994.29
417.817	1002.48
418.025	1129.45
418.233	1172.46
418.441	1070.06
418.649	1240.05
418.857	1270.76
419.065	1311.72
419.273	1268.72
419.481	1436.65
419.689	1485.8
419.897	1604.58
420.105	1545.19
420.313	1514.47
420.521	1653.73
420.729	1653.73
420.937	1706.98
421.145	1768.42
421.353	1907.68
421.561	2016.23
421.769	1991.65
421.977	2020.32
422.185	1991.65
422.393	2171.87
422.601	2333.66
422.809	2288.61
423.017	2370.52
423.224	2354.14
423.432	2448.35
423.64	2530.27
423.848	2804.69
424.056	2677.72
424.263	2786.26
424.471	2927.57
424.679	2878.42
424.887	3197.9
425.094	3222.48
425.302	3310.54
425.51	3445.71
425.718	3570.63
425.925	3572.68
426.133	3496.91
426.341	3814.34
426.548	3914.69
426.756	3953.6
426.964	4049.86
427.171	4170.69
427.379	4430.78
427.586	4348.86
427.794	4471.74
428.001	4705.21
428.209	5241.78
428.417	4977.59
428.624	5323.69
428.832	5354.41
429.039	5235.63
429.247	5307.31
429.454	5823.4
429.662	6126.5
429.869	5776.3
430.076	6257.57
430.284	5899.17
430.491	6308.77
430.699	6661.02
430.906	6730.65
431.114	6853.53
431.321	7050.13
431.528	7050.13
431.736	7338.9
431.943	8010.63
432.15	7650.19
432.358	7572.36
432.565	8219.52
432.772	8080.26
432.979	8545.15
433.187	8629.12
433.394	8620.92
433.601	9370.48
433.808	9419.63
434.016	9374.58
434.223	9796.46
434.43	10320.74
434.637	10105.7
434.844	10691.42
435.052	10939.23
435.259	11070.3
435.466	11201.37
435.673	10967.9
435.88	11729.74
436.087	12526.4
436.294	12176.2
436.501	12090.18
436.708	12329.8
436.915	12704.57
437.122	13114.17
437.329	13288.25
437.537	13677.36
437.743	13873.96
437.95	13617.97
438.157	14574.37
438.364	14971.68
438.571	14897.95
438.778	15002.4
438.985	16153.35
439.192	15735.57
439.399	16157.45
439.606	15653.65
439.813	16923.39
440.02	17824.5
440.227	17586.93
440.433	17808.11
440.64	18078.44
440.847	17996.53
441.054	18356.97
441.261	19753.68
441.467	19329.75
441.674	19518.17
441.881	20128.46
442.088	20089.55
442.294	20118.22
442.501	20832.96
442.708	21105.34
442.914	22104.75
443.121	22592.17
443.328	22258.35
443.534	23792.28
443.741	23259.81
443.948	22942.37
444.154	24582.79
444.361	24220.3
444.568	24619.66
444.774	24552.07
444.981	24527.5
445.187	25174.66
445.394	26733.16
445.6	26511.98
445.807	28891.72
446.013	27953.75
446.22	28062.29
446.426	29198.91
446.633	29385.28
446.839	30679.6
447.046	29323.84
447.252	31201.83
447.459	31097.38
447.665	30896.68
447.871	32592.4
448.078	33640.96
448.284	31912.47
448.491	32709.13
448.697	34157.05
448.903	35088.87
449.11	35205.61
449.316	34658.8
449.522	35174.89
449.728	36301.27
449.935	36366.81
450.141	36725.2
450.347	37181.9
450.553	36178.39
450.76	36475.35
450.966	37767.62
451.172	37394.89
451.378	38316.47
451.584	37855.68
451.791	38582.71
451.997	38339
452.203	39127.47
452.409	39113.13
452.615	38853.04
452.821	37870.01
453.027	37562.82
453.233	39440.81
453.44	37679.55
453.646	38033.85
453.852	38234.55
454.058	39059.88
454.264	37638.59
454.47	38797.74
454.676	37802.43
454.882	39076.27
455.088	35873.24
455.294	36344.28
455.5	36856.27
455.705	37308.87
455.911	35854.81
456.117	35291.62
456.323	34834.92
456.529	32715.28
456.735	34284.02
456.941	33663.49
457.147	33151.49
457.352	32027.16
457.558	31861.27
457.764	31769.12
457.97	31359.52
458.176	30634.54
458.381	30462.51
458.587	29057.6
458.793	28994.12
458.999	27787.86
459.204	29301.31
459.41	28623.44
459.616	27046.5
459.821	26925.67
460.027	26903.14
460.233	26438.25
460.438	24773.25
460.644	25158.27
460.85	24027.79
461.055	23706.26
461.261	23763.61
461.466	22125.23
461.672	21236.41
461.878	22776.48
462.083	21449.4
462.289	20794.05
462.494	20902.59
462.7	19534.55
462.905	19110.62
463.111	19790.55
463.316	19948.24
463.522	19557.08
463.727	19253.98
463.932	19409.62
464.138	19260.12
464.343	19466.97
464.549	18942.69
464.754	19188.44
464.959	19227.35
465.165	19145.44
465.37	18432.74
465.575	17912.56
465.781	18467.56
465.986	18698.98
466.191	18080.49
466.397	17474.29
466.602	16956.16
466.807	17621.75
467.012	17505.01
467.218	17249.02
467.423	17062.65
467.628	17238.78
467.833	17920.75
468.038	17015.55
468.244	16988.92
468.449	17578.74
468.654	16943.87
468.859	16718.59
469.064	16765.7
469.269	16042.76
469.474	16091.91
469.679	16608
469.885	16010
470.09	16278.28
470.295	16026.38
470.5	15725.33
470.705	15903.5
470.91	15768.34
471.115	15350.55
471.32	15729.42
471.525	15676.18
471.73	15194.9
471.935	15174.42
472.139	14684.96
472.344	14742.3
472.549	14846.75
472.754	14318.37
472.959	14236.45
473.164	14002.99
473.369	13798.19
473.574	14215.98
473.778	14209.83
473.983	13837.1
474.188	13806.38
474.393	13302.58
474.598	13357.88
474.802	13159.22
475.007	13122.36
475.212	13148.98
475.417	12690.24
475.621	12802.88
475.826	12739.39
476.031	12352.32
476.235	12254.02
476.44	12659.52
476.645	12079.94
476.849	12426.05
477.054	12170.05
477.259	11807.56
477.463	12081.99
477.668	11782.99
477.872	11588.43
478.077	11412.31
478.282	11156.31
478.486	11125.59
478.691	10994.52
478.895	11141.97
479.1	10861.4
479.304	11045.72
479.509	10892.12
479.713	10902.36
479.918	10650.46
480.122	10615.65
480.326	10707.8
480.531	10644.32
480.735	10601.31
480.94	10443.62
481.144	10728.28
481.348	10337.12
481.553	10531.68
481.757	10120.04
481.961	10222.44
482.166	10460
482.37	10326.88
482.574	10183.52
482.778	10275.68
482.983	10232.68
483.187	10204
483.391	10232.68
483.595	10177.38
483.8	9861.99
484.004	10216.29
484.208	10310.5
484.412	10097.51
484.616	10173.28
484.821	10167.14
485.025	10197.86
485.229	10335.07
485.433	10021.74
485.637	10177.38
485.841	10087.27
486.045	9921.38
486.249	10265.44
486.453	10138.47
486.657	10099.56
486.861	10187.62
487.065	9952.1
487.269	10165.09
487.473	9950.06
487.677	10320.74
487.881	10134.37
488.085	10177.38
488.289	10353.51
488.493	10208.1
488.697	10457.95
488.901	10011.5
489.105	10204
489.309	10378.08
489.512	10177.38
489.716	10234.72
489.92	10537.82
490.124	10224.48
490.328	10287.97
490.531	10498.91
490.735	10511.2
490.939	10490.72
491.143	10343.27
491.346	10279.78
491.55	10787.68
491.754	10599.26
491.958	10683.23
492.161	10591.07
492.365	10568.54
492.569	10621.79
492.772	10808.16
492.976	10888.03
493.18	10900.31
493.383	11070.3
493.587	11072.34
493.79	11051.86
493.994	11070.3
494.197	11361.11
494.401	11258.71
494.605	11377.49
494.808	11559.76
495.012	11549.52
495.215	11602.77
495.419	11641.68
495.622	11746.12
495.825	11739.98
496.029	11631.44
496.232	12131.14
496.436	11815.76
496.639	12464.96
496.843	12290.88
497.046	12573.5
497.249	12600.13
497.453	12725.05
497.656	12802.88
497.859	12782.4
498.063	12962.62
498.266	13232.95
498.469	13073.21
498.673	13286.2
498.876	13531.95
499.079	13603.63
499.282	13644.59
499.485	13798.19
499.689	13970.22
499.892	14035.75
500.095	14191.4
500.298	14424.87
500.501	14441.25
500.705	14930.72
500.908	14813.98
501.111	15368.98
501.314	15137.56
501.517	15452.95
501.72	15745.81
501.923	15596.31
502.126	15913.74
502.329	16122.63
502.532	16442.12
502.735	16192.26
502.938	16421.64
503.141	16939.77
503.344	16767.74
503.547	17099.52
503.75	17406.71
503.953	17677.04
504.156	17652.47
504.359	17603.32
504.562	18086.64
504.765	18008.81
504.968	18381.54
505.17	18578.15
505.373	18672.36
505.576	19155.68
505.779	19243.74
505.982	19333.85
506.185	19636.95
506.387	19737.3
506.59	20083.41
506.793	20581.06
506.996	20003.53
507.198	20632.26
507.401	20628.17
507.604	20871.87
507.807	21428.92
508.009	21732.02
508.212	21793.46
508.415	21938.87
508.617	22270.64
508.82	22293.16
509.022	22158
509.225	22776.48
509.428	23231.13
509.63	23204.51
509.833	23245.47
510.035	23913.11
510.238	23587.48
510.44	23866
510.643	24306.32
510.845	24652.42
511.048	24378
511.25	24978.05
511.453	25158.27
511.655	25852.53
511.858	25488
512.06	25838.2
512.262	26215.02
512.465	25854.58
512.667	26397.29
512.87	26866.28
513.072	27159.14
513.274	27470.43
513.477	27734.62
513.679	28199.51
513.881	28256.85
514.084	28232.27
514.286	28529.23
514.488	28817.99
514.69	29690.43
514.893	29655.61
515.095	29559.36
515.297	30067.25
515.499	30401.07
515.701	30288.43
515.904	30569.01
516.106	31017.51
516.308	31537.69
516.51	31824.41
516.712	31400.48
516.914	31902.23
517.116	32565.78
517.318	32555.54
517.52	32487.95
517.722	32885.26
517.925	33511.94
518.127	33626.62
518.329	34091.51
518.531	33720.83
518.733	34331.12
518.935	34599.41
519.136	35213.8
519.338	35496.42
519.54	35060.2
519.742	35824.09
519.944	36071.9
520.146	36602.32
520.348	36178.39
520.55	36557.27
520.752	37116.36
520.954	37675.46
521.155	37439.94
521.357	38201.79
521.559	38283.7
521.761	38664.63
521.963	38531.51
522.164	38709.68
522.366	38791.6
522.568	39334.31
522.77	39659.94
522.971	40169.88
523.173	40006.05
523.375	40448.41
523.576	40272.28
523.778	40472.98
523.98	41441.67
524.181	41109.9
524.383	41140.62
524.584	41548.17
524.786	41869.7
524.988	41625.99
525.189	41916.8
525.391	42400.12
525.592	42985.84
525.794	42901.87
525.995	42520.95
526.197	42965.36
526.398	42692.98
526.6	43102.57
526.801	43516.26
527.003	43796.84
527.204	43563.37
527.406	44382.55
527.607	44175.71
527.808	44595.54
528.01	43628.9
528.211	44243.29
528.412	44968.27
528.614	44882.26
528.815	44616.02
529.016	45410.64
529.218	44818.77
529.419	44669.27
529.62	45115.73
529.822	45052.24
530.023	45332.81
530.224	45181.26
530.425	45263.18
530.626	45369.68
530.828	45228.37
531.029	46588.22
531.23	45306.19
531.431	45072.72
531.632	45914.44
531.833	45875.52
532.035	45945.15
532.236	45918.53
532.437	46399.8
532.638	45414.73
532.839	46250.3
533.04	46129.47
533.241	45812.04
533.442	46426.43
533.643	46231.87
533.844	46020.93
534.045	46076.22
534.246	45728.07
534.447	46721.34
534.648	45832.52
534.849	46283.07
535.05	46065.99
535.251	46610.74
535.451	45775.17
535.652	46397.76
535.853	46494.01
536.054	46788.92
536.255	46672.18
536.456	46137.66
536.657	46887.22
536.857	46281.02
537.058	46152
537.259	46897.46
537.46	46512.44
537.66	46373.18
537.861	46324.03
538.062	46430.52
538.263	46571.83
538.463	46295.36
538.664	46213.44
538.865	46303.55
539.065	46682.42
539.266	45877.57
539.466	46889.27
539.667	46182.72
539.868	46868.79
540.068	46631.22
540.269	46233.92
540.469	46713.14
540.67	45975.87
540.87	45945.15
541.071	46059.84
541.271	46199.1
541.472	46027.07
541.672	46319.93
541.873	45881.67
542.073	45740.36
542.274	46782.77
542.474	46231.87
542.675	46078.27
542.875	46278.97
543.075	45824.32
543.276	45599.05
543.476	46088.51
543.676	45992.26
543.877	46422.33
544.077	46203.2
544.277	46242.11
544.478	45795.65
544.678	46186.82
544.878	46158.14
545.078	46328.13
545.279	45769.03
545.479	45756.74
545.679	45857.09
545.879	45625.67
546.079	45623.62
546.28	45760.84
546.48	45320.52
546.68	46301.5
546.88	46143.81
547.08	46068.03
547.28	45848.9
547.48	45359.44
547.68	46338.36
547.88	45613.38
548.081	46092.61
548.281	45885.76
548.481	45291.85
548.681	46158.14
548.881	45865.28
549.081	45947.2
549.28	45480.27
549.48	45838.66
549.68	45685.06
549.88	46188.86
550.08	45484.36
550.28	45750.6
550.48	46055.75
550.68	45685.06
550.88	45289.8
551.08	45797.7
551.279	45754.69
551.479	45515.08
551.679	45666.63
551.879	45492.55
552.079	45730.12
552.278	45773.13
552.478	45709.64
552.678	45388.11
552.878	45625.67
553.077	45461.83
553.277	44863.83
553.477	45623.62
553.676	45402.44
553.876	45666.63
554.076	45341
554.275	45527.37
554.475	44644.69
554.674	45220.17
554.874	45287.76
555.074	45369.68
555.273	45517.13
555.473	45363.53
555.672	44689.75
555.872	45166.93
556.071	44953.94
556.271	45502.79
556.47	45201.74
556.67	44546.39
556.869	44728.66
557.068	44906.83
557.268	44378.46
557.467	44837.2
557.667	44765.52
557.866	44460.38
558.065	44421.47
558.265	44429.66
558.464	44294.49
558.663	44554.58
558.863	43948.39
559.062	44802.39
559.261	44071.26
559.461	44443.99
559.66	43927.91
559.859	44364.12
560.058	44054.88
560.258	43999.58
560.457	43659.62
560.656	44110.17
560.855	44030.3
561.054	44024.16
561.253	43778.4
561.453	43774.31
561.652	43680.1
561.851	43944.29
562.05	44005.73
562.249	42996.08
562.448	43676.01
562.647	43250.03
562.846	43407.72
563.045	43733.35
563.244	42637.69
563.443	43340.14
563.642	42572.15
563.841	43045.23
564.04	43309.42
564.239	43055.47
564.438	42705.27
564.637	42473.85
564.836	42953.07
565.035	42342.78
565.234	42312.06
565.432	42307.96
565.631	42566.01
565.83	42572.15
566.029	42447.22
566.228	42467.7
566.427	42322.3
566.625	41980.29
566.824	41421.19
567.023	42232.19
567.222	41533.83
567.42	41912.7
567.619	41681.28
567.818	41476.49
568.016	41410.95
568.215	41431.43
568.414	41415.05
568.612	41310.6
568.811	40841.62
569.01	41097.61
569.208	40974.73
569.407	41324.94
569.605	40620.44
569.804	41265.55
570.002	40483.22
570.201	40849.81
570.4	40337.82
570.598	40358.3
570.797	39893.41
570.995	40329.62
571.193	39897.5
571.392	40407.45
571.59	40192.41
571.789	39870.88
571.987	39672.23
572.186	39655.84
572.384	39465.38
572.582	40206.75
572.781	39668.13
572.979	39184.81
573.177	39201.19
573.376	39696.8
573.574	39072.17
573.772	39475.62
573.971	39080.36
574.169	38779.31
574.367	38615.47
574.565	38545.84
574.763	38605.23
574.962	38580.66
575.16	37999.04
575.358	38257.08
575.556	37894.59
575.754	38642.1
575.952	37919.17
576.151	38164.92
576.349	37816.77
576.547	37884.35
576.745	37798.34
576.943	37792.19
577.141	37671.36
577.339	37827.01
577.537	37390.79
577.735	37278.15
577.933	36962.76
578.131	37353.93
578.329	36735.44
578.527	36901.32
578.725	37073.35
578.923	36934.09
579.121	36569.55
579.319	36542.93
579.516	36774.35
579.714	36805.07
579.912	36504.02
580.11	36438.48
580.308	36346.33
580.506	36288.98
580.704	35668.45
580.901	36276.69
581.099	36272.6
581.297	35594.72
581.495	35828.19
581.692	36155.86
581.89	35604.96
582.088	35453.41
582.285	35379.68
582.483	35928.54
582.681	35723.74
582.878	35002.86
583.076	34730.48
583.274	35645.92
583.471	34744.81
583.669	35113.45
583.866	34609.65
584.064	35107.3
584.262	34497.01
584.459	34640.37
584.657	34095.61
584.854	34697.71
585.052	34099.7
585.249	34337.27
585.447	34267.64
585.644	33995.26
585.841	34177.53
586.039	34134.52
586.236	33460.74
586.434	33448.45
586.631	33645.05
586.828	33561.09
587.026	33432.07
587.223	33114.63
587.42	33378.82
587.618	33257.99
587.815	32733.71
588.012	32985.61
588.21	32817.68
588.407	33151.49
588.604	32494.1
588.801	32195.09
588.999	32426.51
589.196	32332.31
589.393	32672.27
589.59	32258.58
589.787	32166.42
589.984	32000.54
590.182	31781.4
590.379	31758.88
590.576	31638.05
590.773	31853.08
590.97	31668.76
591.167	31861.27
591.364	31359.52
591.561	31789.59
591.758	31476.26
591.955	31181.35
592.152	31265.31
592.349	31091.24
592.546	31052.33
592.743	30712.36
592.94	30470.7
593.137	30573.1
593.334	30851.63
593.531	30204.47
593.727	30773.8
593.924	29719.1
594.121	29977.14
594.318	30489.13
594.515	29858.36
594.712	30171.7
594.908	29848.12
595.105	30114.36
595.302	29452.86
595.499	29889.08
595.696	29690.43
595.892	29686.33
596.089	29481.53
596.286	29639.23
596.482	29385.28
596.679	29196.87
596.876	29440.57
597.072	29289.03
597.269	28957.25
597.466	28881.48
597.662	28535.37
597.859	28777.03
598.055	28707.4
598.252	28404.3
598.448	28211.79
598.645	28355.15
598.841	28222.03
599.038	28281.42
599.234	28379.73
599.431	27877.97
599.627	28019.28
599.824	28103.25
600.02	27632.22
600.217	27843.16
600.413	27589.21
600.609	27501.15
600.806	27568.73
601.002	27599.45
601.198	27196
601.395	26929.77
601.591	27329.12
601.787	27241.06
601.984	26987.11
602.18	27423.33
602.376	26602.09
602.572	26516.08
602.769	27212.38
602.965	26638.95
603.161	26774.12
603.357	26667.63
603.553	26493.55
603.75	26397.29
603.946	26237.55
604.142	26489.45
604.338	25920.12
604.534	26204.78
604.73	25895.54
604.926	25899.64
605.122	25975.41
605.318	25617.02
605.514	25268.86
605.71	25365.12
605.906	25391.74
606.102	25522.81
606.298	25524.86
606.494	25258.62
606.69	25604.73
606.886	25430.65
607.082	24922.76
607.278	25469.56
607.474	24568.46
607.67	24937.09
607.866	24504.97
608.062	24947.33
608.257	24787.59
608.453	24767.11
608.649	24652.42
608.845	24799.88
609.041	24459.91
609.236	24695.43
609.432	24617.61
609.628	24609.42
609.824	24464.01
610.019	24435.34
610.215	24361.61
610.411	24296.08
610.606	24019.6
610.802	24251.02
610.998	23849.62
611.193	23949.97
611.389	23745.17
611.584	23812.76
611.78	23370.4
611.976	23726.74
612.171	23767.7
612.367	23728.79
612.562	23802.52
612.758	23528.09
612.953	23249.57
613.149	23732.89
613.344	23368.35
613.539	23618.2
613.735	23546.52
613.93	23397.02
614.126	23339.68
614.321	23190.17
614.517	23161.5
614.712	23247.52
614.907	23024.29
615.103	23339.68
615.298	23100.06
615.493	23468.7
615.688	22672.04
615.884	23157.41
616.079	22999.71
616.274	22815.4
616.47	22819.49
616.665	22729.38
616.86	22436.52
617.055	22381.23
617.25	22844.07
617.445	22624.93
617.641	22450.86
617.836	22438.57
618.031	22416.04
618.226	22409.9
618.421	22176.43
618.616	22321.84
618.811	21504.7
619.006	22198.96
619.201	21678.77
619.396	21660.34
619.591	21523.13
619.786	22133.42
619.981	21680.82
620.176	21652.15
620.371	21177.02
620.566	21504.7
620.761	21326.52
620.956	21189.31
621.151	21068.48
621.346	21224.12
621.541	20673.22
621.735	20804.29
621.93	20312.78
622.125	20783.81
622.32	20470.47
622.515	20656.84
622.709	20521.67
622.904	20157.13
623.099	20257.48
623.294	20144.84
623.488	19765.97
623.683	20005.58
623.878	19509.97
624.072	19741.39
624.267	19573.46
624.462	19552.98
624.656	19102.43
624.851	19481.3
625.046	19055.33
625.24	19088.09
625.435	18797.28
625.629	18993.89
625.824	18907.87
626.018	18666.21
626.213	18217.71
626.407	18580.2
626.602	18236.14
626.796	18174.7
626.991	18270.95
627.185	18152.17
627.38	17912.56
627.574	17869.55
627.768	17666.8
627.963	17816.3
628.157	17484.53
628.352	17480.44
628.546	17490.68
628.74	17326.84
628.935	17197.82
629.129	17013.5
629.323	17040.12
629.517	17197.82
629.712	17017.6
629.906	16644.87
630.1	16532.23
630.294	16907.01
630.489	16595.71
630.683	16737.02
630.877	16177.93
631.071	16194.31
631.265	16247.56
631.459	16163.59
631.653	16204.55
631.848	15999.76
632.042	16087.82
632.236	15956.75
632.43	15629.07
632.624	15436.56
632.818	15522.58
633.012	15205.14
633.206	15278.87
633.4	15309.59
633.594	15223.58
633.788	15260.44
633.982	15123.23
634.176	15014.68
634.369	14779.17
634.563	14781.21
634.757	14846.75
634.951	14725.92
635.145	14666.53
635.339	14768.93
635.533	14531.36
635.726	14357.28
635.92	13988.65
636.114	14301.99
636.308	14359.33
636.501	14041.9
636.695	14029.61
636.889	13896.49
637.083	13785.9
637.276	14015.27
637.47	13851.44
637.664	13630.26
637.857	13736.75
638.051	13591.34
638.244	13417.27
638.438	13572.91
638.632	13458.23
638.825	13321.01
639.019	12948.28
639.212	13030.2
639.406	13091.64
639.599	13011.77
639.793	12884.8
639.986	12727.1
640.18	12763.97
640.373	12815.16
640.567	12700.48
640.76	12856.12
640.954	12524.35
641.147	12426.05
641.34	12426.05
641.534	12434.24
641.727	12335.94
641.92	12129.09
642.114	12106.57
642.307	12016.46
642.5	11959.11
642.694	12012.36
642.887	11774.8
643.08	11934.54
643.273	11846.48
643.467	11848.52
643.66	11565.9
643.853	11625.29
644.046	11352.91
644.239	11582.29
644.432	11463.51
644.626	11393.87
644.819	11526.99
645.012	11440.98
645.205	11277.14
645.398	11107.16
645.591	11064.15
645.784	11049.82
645.977	10759
646.17	11072.34
646.363	10629.98
646.556	10740.57
646.749	10767.2
646.942	10965.85
647.135	10623.84
647.328	10670.94
647.521	10335.07
647.714	10388.32
647.907	10408.8
648.099	10494.82
648.292	10294.11
648.485	10277.73
648.678	10238.82
648.871	10152.81
649.064	10224.48
649.256	10097.51
649.449	9812.84
649.642	9950.06
649.835	9679.72
650.027	9890.67
650.22	9874.28
650.413	9872.23
650.605	9677.68
650.798	9673.58
650.991	9519.98
651.183	9673.58
651.376	9347.95
651.568	9601.9
651.761	9511.79
651.954	9319.28
652.146	9122.68
652.339	9169.78
652.531	9003.89
652.724	9184.12
652.916	8956.79
653.109	9028.47
653.301	8997.75
653.494	9141.11
653.686	8891.26
653.879	8895.35
654.071	8645.5
654.263	8708.99
654.456	8739.71
654.648	8653.69
654.84	8528.77
655.033	8577.92
655.225	8678.27
655.417	8620.92
655.61	8696.7
655.802	8301.44
655.994	8504.19
656.186	8366.98
656.379	8311.68
656.571	8291.2
656.763	8119.17
656.955	8141.7
657.148	7973.77
657.34	8102.79
657.532	7977.86
657.724	7998.34
657.916	7981.96
658.108	7873.42
658.3	7709.58
658.492	7877.51
658.684	7629.71
658.876	7732.11
659.068	7721.87
659.26	7750.54
659.452	7652.24
659.644	7709.58
659.836	7410.57
660.028	7551.88
660.22	7429.01
660.412	7357.33
660.604	7273.36
660.796	7199.63
660.988	7381.9
661.18	7259.03
661.372	7197.59
661.563	7283.6
661.755	7179.15
661.947	7078.8
662.139	6939.54
662.331	7072.66
662.522	6982.55
662.714	6933.4
662.906	6941.59
663.097	6941.59
663.289	6925.21
663.481	6747.03
663.673	6892.44
663.864	6695.83
664.056	6630.3
664.247	6814.62
664.439	6515.61
664.631	6646.68
664.822	6532
665.014	6523.8
665.205	6405.02
665.397	6593.44
665.588	6413.21
665.78	6478.75
665.971	6335.39
666.163	6196.13
666.354	6286.24
666.546	6337.44
666.737	6112.16
666.929	6288.29
667.12	6173.6
667.311	6120.35
667.503	6175.65
667.694	6036.39
667.885	5985.19
668.077	5890.98
668.268	5815.21
668.459	6077.35
668.651	5933.99
668.842	5831.59
669.033	5792.68
669.224	5684.14
669.416	5882.79
669.607	5675.95
669.798	5647.27
669.989	5774.25
670.18	5751.72
670.371	5673.9
670.563	5712.81
670.754	5467.05
670.945	5639.08
671.136	5663.66
671.327	5465
671.518	5571.5
671.709	5467.05
671.9	5446.57
672.091	5323.69
672.282	5405.61
672.473	5518.25
672.664	5393.33
672.855	5397.42
673.046	5290.93
673.237	5241.78
673.428	5307.31
673.619	5211.06
673.809	5342.13
674	5157.81
674.191	5168.05
674.382	5249.97
674.573	5303.22
674.764	4969.4
674.954	5131.19
675.145	4989.88
675.336	5118.9
675.527	5071.79
675.717	4971.44
675.908	5155.76
676.099	4930.48
676.289	4983.73
676.48	4971.44
676.671	4905.91
676.861	4844.47
677.052	4705.21
677.243	4729.78
677.433	4703.16
677.624	4830.13
677.814	4705.21
678.005	4668.34
678.195	4701.11
678.386	4707.26
678.576	4684.73
678.767	4637.63
678.957	4541.37
679.148	4619.19
679.338	4635.58
679.529	4656.06
679.719	4606.91
679.909	4654.01
680.1	4529.08
680.29	4459.45
680.481	4379.58
680.671	4334.53
680.861	4307.9
681.052	4553.66
681.242	4379.58
681.432	4357.05
681.622	4322.24
681.813	4275.13
682.003	4252.61
682.193	4221.89
682.383	4469.69
682.573	4164.54
682.764	4244.42
682.954	4316.09
683.144	4176.83
683.334	4189.12
683.524	4176.83
683.714	4363.2
683.904	4244.42
684.094	4086.72
684.284	4152.26
684.474	4172.74
684.664	4146.11
684.854	4223.94
685.044	4144.06
685.234	4092.87
685.424	4088.77
685.614	4012.99
685.804	4072.39
685.994	3994.56
686.184	4074.43
686.374	3945.41
686.564	3900.36
686.753	3947.46
686.943	3861.45
687.133	3943.36
687.323	3875.78
687.513	3931.08
687.702	3763.14
687.892	3873.73
688.082	3912.64
688.272	3795.91
688.461	3861.45
688.651	3869.64
688.841	3840.97
689.03	3689.42
689.22	3705.8
689.41	3658.7
689.599	3816.39
689.789	3838.92
689.979	3812.29
690.168	3767.24
690.358	3605.45
690.547	3566.54
690.737	3546.06
690.926	3619.78
691.116	3517.39
691.305	3529.67
691.495	3439.56
691.684	3390.41
691.874	3572.68
692.063	3468.24
692.252	3625.93
692.442	3531.72
692.631	3431.37
692.82	3361.74
693.01	3439.56
693.199	3390.41
693.388	3312.59
693.578	3320.78
693.767	3363.79
693.956	3341.26
694.146	3283.92
694.335	3441.61
694.524	3322.83
694.713	3331.02
694.902	3388.36
695.092	3302.35
695.281	3204.05
695.47	3197.9
695.659	3378.12
695.848	3232.72
696.037	3353.55
696.226	3161.04
696.415	3277.77
696.604	3335.12
696.793	3152.85
696.982	3263.44
697.171	3267.53
697.36	3161.04
697.549	3027.92
697.738	3132.37
697.927	3232.72
698.116	3032.02
698.305	3021.78
698.494	3122.13
698.683	3007.44
698.872	3103.7
699.061	3179.47
699.25	3175.38
699.438	3060.69
699.627	3015.63
699.816	3040.21
700.005	2960.34
700.193	3038.16
700.382	3054.55
700.571	2952.15
700.76	2956.24
700.948	3070.93
701.137	3029.97
701.326	2991.06
701.514	2943.96
701.703	2868.18
701.892	2968.53
702.08	2919.38
702.269	3027.92
702.457	2886.61
702.646	3025.87
702.834	2968.53
703.023	2958.29
703.212	2925.52
703.4	2999.25
703.589	2964.43
703.777	2812.89
703.965	2974.67
704.154	2829.27
704.342	2845.65
704.531	2843.6
704.719	2874.32
704.907	2880.47
705.096	2833.36
705.284	3013.59
705.472	2935.76
705.661	2837.46
705.849	2989.01
706.037	2929.62
706.226	2849.75
706.414	2872.28
706.602	2964.43
706.79	2859.99
706.979	2890.71
707.167	2763.73
707.355	2692.05
707.543	2800.6
707.731	2722.77
707.919	2771.93
708.107	2673.62
708.296	2862.04
708.484	2677.72
708.672	2706.39
708.86	2845.65
709.048	2702.29
709.236	2761.69
709.424	2565.08
709.612	2833.36
709.8	2794.45
709.988	2616.28
710.176	2866.13
710.364	2599.9
710.551	2653.14
710.739	2716.63
710.927	2700.25
711.115	2685.91
711.303	2745.3
711.491	2679.77
711.679	2690.01
711.866	2712.53
712.054	2722.77
712.242	2653.14
712.43	2821.08
712.617	2679.77
712.805	2690.01
712.993	2618.33
713.181	2644.95
713.368	2608.09
713.556	2642.9
713.744	2587.61
713.931	2735.06
714.119	2603.99
714.306	2669.53
714.494	2776.02
714.682	2733.01
714.869	2765.78
715.057	2685.91
715.244	2517.98
715.432	2669.53
715.619	2710.49
715.807	2632.66
715.994	2579.42
716.182	2577.37
716.369	2630.62
716.556	2595.8
716.744	2603.99
716.931	2513.88
717.119	2694.1
717.306	2458.59
717.493	2528.22
717.681	2608.09
717.868	2546.65
718.055	2460.63
718.242	2710.49
718.43	2550.75
718.617	2630.62
718.804	2565.08
718.991	2597.85
719.179	2544.6
719.366	2479.07
719.553	2595.8
719.74	2509.79
719.927	2616.28
720.114	2550.75
720.301	2565.08
720.488	2538.46
720.676	2479.07
720.863	2595.8
721.05	2546.65
721.237	2550.75
721.424	2528.22
721.611	2434.01
721.798	2546.65
721.985	2374.62
722.172	2524.12
722.358	2395.1
722.545	2530.27
722.732	2587.61
722.919	2544.6
723.106	2554.84
723.293	2454.49
723.48	2384.86
723.667	2352.09
723.853	2636.76
724.04	2472.92
724.227	2440.15
724.414	2608.09
724.6	2491.35
724.787	2474.97
724.974	2503.64
725.161	2513.88
725.347	2456.54
725.534	2517.98
725.72	2462.68
725.907	2497.5
726.094	2530.27
726.28	2358.24
726.467	2380.76
726.653	2501.59
726.84	2401.24
727.027	2477.02
727.213	2419.68
727.4	2460.63
727.586	2384.86
727.773	2472.92
727.959	2366.43
728.145	2501.59
728.332	2384.86
728.518	2378.72
728.705	2462.68
728.891	2399.2
729.077	2452.44
729.264	2366.43
729.45	2401.24
729.636	2401.24
729.823	2325.47
730.009	2458.59
730.195	2423.77
730.382	2423.77
730.568	2325.47
730.754	2274.27
730.94	2335.71
731.126	2427.87
731.313	2391
731.499	2352.09
731.685	2339.8
731.871	2409.44
732.057	2370.52
732.243	2354.14
732.429	2278.37
732.615	2296.8
732.801	2335.71
732.987	2341.85
733.173	2245.6
733.359	2298.84
733.545	2327.52
733.731	2235.36
733.917	2421.72
734.103	2431.96
734.289	2298.84
734.475	2214.88
734.661	2368.48
734.847	2337.76
735.033	2315.23
735.219	2298.84
735.404	2393.05
735.59	2173.92
735.776	2329.56
735.962	2251.74
736.148	2268.13
736.333	2304.99
736.519	2274.27
736.705	2397.15
736.89	2214.88
737.076	2311.13
737.262	2239.45
737.447	2270.17
737.633	2294.75
737.819	2204.64
738.004	2339.8
738.19	2259.93
738.375	2309.08
738.561	2380.76
738.747	2284.51
738.932	2141.15
739.118	2243.55
739.303	2251.74
739.489	2259.93
739.674	2278.37
739.859	2259.93
740.045	2155.49
740.23	2120.67
740.416	2135.01
740.601	2235.36
740.786	2223.07
740.972	2218.97
741.157	2178.01
741.342	2067.42
741.528	2202.59
741.713	2145.25
741.898	2087.9
742.084	2065.38
742.269	2044.9
742.454	2165.73
742.639	2173.92
742.824	2059.23
743.01	2112.48
743.195	2112.48
743.38	2053.09
743.565	2122.72
743.75	2081.76
743.935	2061.28
744.12	2145.25
744.305	1938.4
744.49	2053.09
744.675	2010.08
744.86	1991.65
745.045	1913.83
745.23	1932.26
745.415	1860.58
745.6	1987.55
745.785	1975.27
745.97	1936.35
746.155	1940.45
746.34	1995.75
746.525	1975.27
746.71	1973.22
746.895	1803.24
747.079	1778.66
747.264	1876.96
747.449	1866.72
747.634	1852.39
747.819	1907.68
748.003	1858.53
748.188	1829.86
748.373	1799.14
748.557	1844.2
748.742	1782.76
748.927	1811.43
749.111	1784.8
749.296	1688.55
749.481	1752.04
749.665	1670.12
749.85	1715.17
750.034	1780.71
750.219	1614.82
750.404	1641.45
750.588	1616.87
750.773	1704.93
750.957	1688.55
751.141	1602.54
751.326	1618.92
751.51	1663.97
751.695	1596.39
751.879	1627.11
752.064	1709.03
752.248	1635.3
752.432	1670.12
752.617	1600.49
752.801	1537
752.985	1551.34
753.17	1510.38
753.354	1506.28
753.538	1461.23
753.722	1610.73
753.907	1557.48
754.091	1475.56
754.275	1461.23
754.459	1469.42
754.643	1508.33
754.828	1477.61
755.012	1426.41
755.196	1442.79
755.38	1414.12
755.564	1410.03
755.748	1399.79
755.932	1440.75
756.116	1346.54
756.3	1389.55
756.484	1350.64
756.668	1407.98
756.852	1387.5
757.036	1387.5
757.22	1371.12
757.404	1272.81
757.588	1240.05
757.772	1362.92
757.956	1276.91
758.14	1342.44
758.323	1270.76
758.507	1317.87
758.691	1336.3
758.875	1244.14
759.059	1321.96
759.242	1035.25
759.426	1295.34
759.61	1184.75
759.794	1229.81
759.977	1256.43
760.161	1270.76
760.345	1285.1
760.528	1178.61
760.712	1215.47
760.895	1213.42
761.079	1215.47
761.263	1123.31
761.446	1086.45
761.63	1180.65
761.813	1156.08
761.997	1137.65
762.18	1111.02
762.364	1178.61
762.547	1080.3
762.731	1131.5
762.914	1149.93
763.098	1082.35
763.281	1033.2
763.464	1149.93
763.648	1162.22
763.831	1104.88
764.015	1084.4
764.198	1068.02
764.381	1078.26
764.564	1137.65
764.748	1154.03
764.931	1053.68
765.114	1074.16
765.297	1051.63
765.481	932.85
765.664	1049.58
765.847	1039.34
766.03	918.51
766.213	982
766.397	1059.82
766.58	945.14
766.763	957.43
766.946	1006.58
767.129	1022.96
767.312	916.47
767.495	920.56
767.678	916.47
767.861	1068.02
768.044	955.38
768.227	1037.3
768.41	1047.54
768.593	1100.78
768.776	977.91
768.959	986.1
769.142	953.33
769.324	904.18
769.507	914.42
769.69	1000.43
769.873	877.55
770.056	957.43
770.239	941.04
770.421	1000.43
770.604	910.32
770.787	891.89
770.97	988.14
771.152	959.47
771.335	996.34
771.518	893.94
771.7	943.09
771.883	842.74
772.066	957.43
772.248	916.47
772.431	822.26
772.613	904.18
772.796	875.51
772.978	893.94
773.161	922.61
773.343	867.31
773.526	801.78
773.708	852.98
773.891	838.64
774.073	877.55
774.256	779.25
774.438	799.73
774.621	816.12
774.803	809.97
774.985	732.15
775.168	793.59
775.35	812.02
775.532	771.06
775.715	824.31
775.897	803.83
776.079	795.64
776.261	769.01
776.444	715.77
776.626	789.49
776.808	773.11
776.99	689.14
777.173	693.24
777.355	760.82
777.537	764.92
777.719	736.24
777.901	674.81
778.083	781.3
778.265	754.68
778.447	719.86
778.629	658.42
778.811	648.18
778.993	746.48
779.175	670.71
779.357	660.47
779.539	736.24
779.721	709.62
779.903	670.71
780.085	683
780.267	666.61
780.449	637.94
780.631	689.14
780.812	654.33
780.994	619.51
781.176	605.17
781.358	736.24
781.54	646.13
781.721	582.65
781.903	631.8
782.085	560.12
782.267	613.37
782.448	594.93
782.63	637.94
782.812	650.23
782.993	588.79
783.175	576.5
783.357	566.26
783.538	494.58
783.72	441.34
783.901	617.46
784.083	596.98
784.264	592.89
784.446	459.77
784.627	510.97
784.809	470.01
784.99	517.11
785.172	506.87
785.353	553.98
785.535	531.45
785.716	582.65
785.897	515.06
786.079	445.43
786.26	596.98
786.441	447.48
786.623	459.77
786.804	601.08
786.985	488.44
787.167	451.58
787.348	396.28
787.529	560.12
787.71	404.47
787.891	388.09
788.073	474.1
788.254	449.53
788.435	386.04
788.616	539.64
788.797	453.63
788.978	457.72
789.159	406.52
789.34	406.52
789.522	410.62
789.703	416.76
789.884	461.82
790.065	386.04
790.246	396.28
790.427	461.82
790.607	429.05
790.788	369.66
790.969	248.83
791.15	492.54
791.331	410.62
791.512	363.51
791.693	273.4
791.874	386.04
792.054	381.95
792.235	332.79
792.416	322.56
792.597	357.37
792.778	408.57
792.958	367.61
793.139	386.04
793.32	420.86
793.5	314.36
793.681	431.1
793.862	359.42
794.042	334.84
794.223	310.27
794.404	355.32
794.584	379.9
794.765	408.57
794.945	295.93
795.126	343.03
795.306	367.61
795.487	281.6
795.667	320.51
795.848	359.42
796.028	353.27
796.209	281.6
796.389	353.27
796.57	289.79
796.75	345.08
796.93	334.84
797.111	316.41
797.291	302.08
797.471	451.58
797.652	308.22
797.832	318.46
798.012	257.02
798.192	228.35
798.373	273.4
798.553	254.97
798.733	240.64
798.913	263.16
799.093	328.7
799.274	277.5
799.454	267.26
799.634	304.12
799.814	246.78
799.994	226.3
800.174	224.25
800.354	273.4
800.534	179.2
800.714	322.56
800.894	214.01
801.074	261.12
801.254	322.56
801.434	285.69
801.614	244.73
801.794	277.5
801.974	805.88
802.154	269.31
802.334	320.51
802.514	226.3
802.693	310.27
802.873	269.31
803.053	285.69
803.233	228.35
803.413	173.05
803.592	224.25
803.772	234.49
803.952	277.5
804.131	183.29
804.311	222.2
804.491	293.88
804.67	191.49
804.85	203.77
805.03	240.64
805.209	222.2
805.389	203.77
805.568	277.5
805.748	152.57
805.928	246.78
806.107	187.39
806.287	226.3
806.466	222.2
806.646	203.77
806.825	203.77
807.004	177.15
807.184	236.54
807.363	248.83
807.543	189.44
807.722	232.44
807.901	179.2
808.081	269.31
808.26	144.38
808.439	158.72
808.619	211.96
808.798	232.44
808.977	197.63
809.156	201.72
809.336	187.39
809.515	183.29
809.694	160.77
809.873	267.26
810.052	156.67
810.231	156.67
810.411	252.92
810.59	189.44
810.769	138.24
810.948	302.08
811.127	185.34
811.306	109.57
811.485	125.95
811.664	273.4
811.843	187.39
812.022	191.49
812.201	125.95
812.38	187.39
812.559	134.14
812.737	138.24
812.916	158.72
813.095	222.2
813.274	130.05
813.453	179.2
813.632	162.81
813.811	162.81
813.989	197.63
814.168	173.05
814.347	197.63
814.526	148.48
814.704	119.81
814.883	252.92
815.062	230.4
815.24	220.16
815.419	138.24
815.598	183.29
815.776	152.57
815.955	179.2
816.133	117.76
816.312	70.65
816.49	138.24
816.669	136.19
816.847	138.24
817.026	187.39
817.204	224.25
817.383	146.43
817.561	154.62
817.74	252.92
817.918	97.28
818.097	140.29
818.275	183.29
818.453	115.71
818.632	87.04
818.81	105.47
818.988	113.66
819.167	132.09
819.345	171.01
819.523	168.96
819.701	132.09
819.879	179.2
820.058	218.11
820.236	156.67
820.414	121.85
820.592	185.34
820.77	119.81
820.948	33.79
821.127	74.75
821.305	142.33
821.483	68.61
821.661	146.43
821.839	128
822.017	130.05
822.195	166.91
822.373	91.13
822.551	113.66
822.729	91.13
822.907	87.04
823.085	121.85
823.262	113.66
823.44	183.29
823.618	150.53
823.796	166.91
823.974	150.53
824.152	113.66
824.329	97.28
824.507	125.95
824.685	179.2
824.863	72.7
825.04	82.94
825.218	113.66
825.396	97.28
825.574	168.96
825.751	89.09
825.929	171.01
826.107	113.66
826.284	107.52
826.462	66.56
826.639	115.71
826.817	150.53
826.994	52.22
827.172	72.7
827.349	91.13
827.527	89.09
827.704	121.85
827.882	82.94
828.059	130.05
828.237	84.99
828.414	91.13
828.591	41.98
828.769	152.57
828.946	58.37
829.124	99.33
829.301	121.85
829.478	97.28
829.655	74.75
829.833	136.19
830.01	113.66
830.187	115.71
830.364	70.65
830.542	93.18
830.719	130.05
830.896	97.28
831.073	82.94
831.25	162.81
831.427	31.74
831.604	76.8
831.782	56.32
831.959	130.05
832.136	39.94
832.313	64.51
832.49	23.55
832.667	107.52
832.844	70.65
833.021	123.9
833.198	54.27
833.374	76.8
833.551	72.7
833.728	132.09
833.905	105.47
834.082	123.9
834.259	76.8
834.436	142.33
834.612	52.22
834.789	134.14
834.966	84.99
835.143	58.37
835.319	27.65
835.496	97.28
835.673	113.66
835.85	103.42
836.026	52.22
836.203	134.14
836.38	80.89
836.556	25.6
836.733	103.42
836.909	58.37
837.086	44.03
837.262	50.18
837.439	142.33
837.616	17.41
837.792	105.47
837.968	103.42
838.145	60.42
838.321	-7.17
838.498	80.89
838.674	31.74
838.851	60.42
839.027	103.42
839.203	130.05
839.38	123.9
839.556	17.41
839.732	113.66
839.909	80.89
840.085	97.28
840.261	33.79
840.437	107.52
840.614	80.89
840.79	84.99
840.966	44.03
841.142	41.98
841.318	54.27
841.494	41.98
841.671	46.08
841.847	7.17
842.023	19.46
842.199	119.81
842.375	78.85
842.551	54.27
842.727	-5.12
842.903	87.04
843.079	113.66
843.255	58.37
843.431	35.84
843.607	50.18
843.783	7.17
843.959	80.89
844.134	48.13
844.31	50.18
844.486	-1.02
844.662	101.37
844.838	7.17
845.013	89.09
845.189	15.36
845.365	58.37
845.541	52.22
845.716	44.03
845.892	97.28
846.068	48.13
846.244	-13.31
846.419	35.84
846.595	50.18
846.77	29.7
846.946	70.65
847.122	84.99
847.297	31.74
847.473	113.66
847.648	-3.07
847.824	50.18
847.999	87.04
848.175	48.13
848.35	11.26
848.526	31.74
848.701	66.56
848.876	101.37
849.052	74.75
849.227	50.18
849.403	84.99
849.578	97.28
849.753	21.5
849.929	50.18
850.104	-5.12
850.279	15.36
850.454	84.99
850.63	13.31
850.805	97.28
850.98	89.09
851.155	52.22
851.33	17.41
851.505	44.03
851.681	3.07
851.856	130.05
852.031	-3.07
852.206	66.56
852.381	41.98
852.556	25.6
852.731	3.07
852.906	44.03
853.081	68.61
853.256	54.27
853.431	-7.17
853.606	-52.22
853.781	97.28
853.956	3.07
854.131	52.22
854.305	46.08
854.48	58.37
854.655	7.17
854.83	64.51
855.005	-46.08
855.18	66.56
855.354	-54.27
855.529	56.32
855.704	15.36
855.879	89.09
856.053	35.84
856.228	39.94
856.403	29.7
856.577	56.32
856.752	33.79
856.926	-17.41
857.101	5.12
857.276	-1.02
857.45	35.84
857.625	76.8
857.799	23.55
857.974	91.13
858.148	56.32
858.323	27.65
858.497	-89.09
858.672	44.03
858.846	1.02
859.02	33.79
859.195	29.7
859.369	76.8
859.543	-7.17
859.718	-3.07
859.892	50.18
860.066	7.17
860.241	1.02
860.415	60.42
860.589	84.99
860.763	5.12
860.938	-64.51
861.112	25.6
861.286	-27.65
861.46	52.22
861.634	-15.36
861.808	44.03
861.982	31.74
862.157	9.22
862.331	35.84
862.505	-23.55
862.679	-7.17
862.853	52.22
863.027	-17.41
863.201	41.98
863.375	25.6
863.549	-15.36
863.722	113.66
863.896	48.13
864.07	19.46
864.244	107.52
864.418	-50.18
864.592	72.7
864.766	37.89
864.939	56.32
865.113	27.65
865.287	91.13
865.461	-31.74
865.634	31.74
865.808	78.85
865.982	9.22
866.156	-1.02
866.329	15.36
866.503	60.42
866.676	31.74
866.85	52.22
867.024	37.89
867.197	54.27
867.371	78.85
867.544	-1.02
867.718	17.41
867.891	-1.02
868.065	-1.02
868.238	41.98
868.412	-21.5
868.585	70.65
868.759	19.46
868.932	62.46
869.105	-17.41
869.279	15.36
869.452	-23.55
869.625	23.55
869.799	7.17
869.972	-5.12
870.145	82.94
870.319	52.22
870.492	72.7
870.665	-3.07
870.838	-29.7
871.011	-27.65
871.185	41.98
871.358	-17.41
871.531	37.89
871.704	72.7
871.877	25.6
872.05	23.55
872.223	9.22
872.396	-46.08
872.569	41.98
872.742	-13.31
872.915	-13.31
873.088	-31.74
873.261	48.13
873.434	31.74
873.607	-1.02
873.78	29.7
873.953	-50.18
874.126	48.13
874.299	80.89
874.471	25.6
874.644	68.61
874.817	-5.12
874.99	50.18
875.163	7.17
875.335	70.65
875.508	37.89
875.681	60.42
875.853	1.02
876.026	87.04
876.199	70.65
876.371	37.89
876.544	39.94
876.717	11.26
876.889	-11.26
877.062	-7.17
877.234	3.07
877.407	23.55
877.579	-23.55
877.752	7.17
877.924	80.89
878.097	29.7
878.269	97.28
878.442	54.27
878.614	11.26
878.786	17.41
878.959	80.89
879.131	29.7
879.303	-11.26
879.476	-7.17
879.648	-11.26
879.82	29.7
879.993	25.6
880.165	15.36
880.337	-3.07
880.509	50.18
880.681	-7.17
880.854	-9.22
881.026	-17.41
881.198	66.56
881.37	19.46
881.542	-13.31
881.714	41.98
881.886	91.13
882.058	39.94
882.23	76.8
882.402	-41.98
882.574	11.26
882.746	64.51
882.918	25.6
883.09	87.04
883.262	23.55
883.434	37.89
883.606	-37.89
883.778	-25.6
883.95	62.46
884.122	-23.55
884.293	82.94
884.465	15.36
884.637	-15.36
884.809	-5.12
884.98	31.74
885.152	17.41
885.324	54.27
885.496	-44.03
885.667	41.98
885.839	-101.37
886.011	23.55
886.182	44.03
886.354	25.6
886.525	27.65
886.697	9.22
886.869	37.89
887.04	-13.31
887.212	7.17
887.383	58.37
887.555	-19.46
887.726	82.94
887.897	23.55
888.069	7.17
888.24	54.27
888.412	27.65
888.583	33.79
888.754	66.56
888.926	-27.65
889.097	54.27
889.268	33.79
889.44	15.36
889.611	-29.7
889.782	1.02
889.953	70.65
890.125	95.23
890.296	-9.22
890.467	46.08
890.638	-41.98
890.809	13.31
890.98	52.22
891.151	-29.7
891.323	41.98
891.494	-72.7
891.665	-74.75
891.836	89.09
892.007	-1.02
892.178	9.22
892.349	50.18
892.52	56.32
892.691	-15.36
892.862	11.26
893.032	-66.56
893.203	-19.46
893.374	29.7
893.545	64.51
893.716	-97.28
893.887	-1.02
894.057	9.22
894.228	5.12
894.399	15.36
894.57	25.6
894.74	-17.41
894.911	31.74
895.082	11.26
895.253	23.55
895.423	35.84
895.594	-13.31
895.764	39.94
895.935	-13.31
896.106	-11.26
896.276	33.79
896.447	9.22
896.617	-68.61
896.788	-37.89
896.958	76.8
897.129	-7.17
897.299	19.46
897.47	39.94
897.64	17.41
897.81	5.12
897.981	23.55
898.151	-27.65
898.322	52.22
898.492	29.7
898.662	13.31
898.832	-37.89
899.003	44.03
899.173	39.94
899.343	-15.36
899.513	39.94
