Data from USB4F104151__55__13-11-43-279.txt Node

Date: Fri Mar 14 13:11:43 EDT 2025
User: louis
Spectrometer: USB4F10415
Trigger mode: 4
Integration Time (sec): 2.000000E-2
Scans to average: 1
Electric dark correction enabled: true
Nonlinearity correction enabled: false
Boxcar width: 0
XAxis mode: Wavelengths
Number of Pixels in Spectrum: 3648
>>>>>Begin Spectral Data<<<<<
178.204	-136.7
178.424	-136.7
178.644	-136.7
178.864	-134.65
179.084	-97.79
179.304	-52.74
179.524	-40.45
179.744	-13.82
179.964	-5.63
180.184	-36.35
180.404	37.38
180.624	-42.5
180.844	49.66
181.064	10.75
181.283	14.85
181.503	51.71
181.723	27.14
181.943	-28.16
182.163	92.67
182.383	16.9
182.602	18.94
182.822	20.99
183.042	-3.58
183.262	-13.82
183.482	39.42
183.701	-62.98
183.921	55.81
184.141	16.9
184.361	-48.64
184.58	23.04
184.8	-32.26
185.02	0.51
185.239	18.94
185.459	2.56
185.679	45.57
185.898	-56.83
186.118	-5.63
186.338	0.51
186.557	35.33
186.777	35.33
186.997	27.14
187.216	53.76
187.436	35.33
187.655	41.47
187.875	49.66
188.095	-1.54
188.314	78.33
188.534	20.99
188.753	16.9
188.973	-5.63
189.192	74.24
189.412	23.04
189.631	4.61
189.851	4.61
190.07	53.76
190.29	-24.06
190.509	68.09
190.729	78.33
190.948	66.05
191.168	145.92
191.387	23.04
191.607	41.47
191.826	66.05
192.045	39.42
192.265	2.56
192.484	25.09
192.704	10.75
192.923	25.09
193.142	111.1
193.362	-28.16
193.581	100.86
193.8	2.56
194.02	25.09
194.239	25.09
194.458	72.19
194.678	8.7
194.897	51.71
195.116	2.56
195.335	41.47
195.555	49.66
195.774	29.18
195.993	-24.06
196.212	45.57
196.432	-3.58
196.651	8.7
196.87	-17.92
197.089	20.99
197.308	45.57
197.528	-38.4
197.747	-30.21
197.966	82.43
198.185	131.58
198.404	4.61
198.623	43.52
198.842	53.76
199.062	8.7
199.281	18.94
199.5	10.75
199.719	-11.78
199.938	-11.78
200.157	57.86
200.376	59.9
200.595	27.14
200.814	43.52
201.033	37.38
201.252	68.09
201.471	78.33
201.69	41.47
201.909	51.71
202.128	-30.21
202.347	29.18
202.566	18.94
202.785	43.52
203.004	92.67
203.223	-3.58
203.442	51.71
203.661	-24.06
203.879	-7.68
204.098	4.61
204.317	61.95
204.536	18.94
204.755	61.95
204.974	59.9
205.193	51.71
205.411	57.86
205.63	-19.97
205.849	33.28
206.068	41.47
206.287	-9.73
206.505	78.33
206.724	43.52
206.943	6.66
207.162	29.18
207.381	-36.35
207.599	27.14
207.818	70.14
208.037	27.14
208.255	2.56
208.474	16.9
208.693	68.09
208.911	57.86
209.13	25.09
209.349	-32.26
209.567	43.52
209.786	123.39
210.005	74.24
210.223	10.75
210.442	6.66
210.661	16.9
210.879	49.66
211.098	-56.83
211.316	0.51
211.535	33.28
211.753	10.75
211.972	2.56
212.191	-9.73
212.409	-15.87
212.628	39.42
212.846	-48.64
213.065	33.28
213.283	33.28
213.502	-3.58
213.72	84.48
213.938	-7.68
214.157	33.28
214.375	-36.35
214.594	-13.82
214.812	2.56
215.031	-7.68
215.249	-1.54
215.467	2.56
215.686	-32.26
215.904	47.62
216.122	41.47
216.341	92.67
216.559	-36.35
216.778	33.28
216.996	66.05
217.214	8.7
217.432	20.99
217.651	29.18
217.869	41.47
218.087	53.76
218.306	12.8
218.524	-11.78
218.742	39.42
218.96	64
219.179	25.09
219.397	25.09
219.615	43.52
219.833	41.47
220.051	-30.21
220.27	18.94
220.488	51.71
220.706	41.47
220.924	0.51
221.142	35.33
221.36	27.14
221.578	29.18
221.796	33.28
222.015	76.29
222.233	66.05
222.451	86.53
222.669	-5.63
222.887	43.52
223.105	-9.73
223.323	-30.21
223.541	41.47
223.759	27.14
223.977	-1.54
224.195	66.05
224.413	57.86
224.631	51.71
224.849	25.09
225.067	0.51
225.285	-3.58
225.503	-17.92
225.721	14.85
225.939	90.62
226.157	-26.11
226.375	125.44
226.592	55.81
226.81	10.75
227.028	-28.16
227.246	37.38
227.464	37.38
227.682	-40.45
227.9	92.67
228.117	-5.63
228.335	57.86
228.553	39.42
228.771	-15.87
228.989	-36.35
229.206	33.28
229.424	-11.78
229.642	-22.02
229.86	41.47
230.077	76.29
230.295	-7.68
230.513	35.33
230.731	59.9
230.948	96.77
231.166	66.05
231.384	51.71
231.601	-7.68
231.819	78.33
232.037	-46.59
232.254	-50.69
232.472	70.14
232.689	43.52
232.907	43.52
233.125	-7.68
233.342	72.19
233.56	-40.45
233.777	-34.3
233.995	23.04
234.213	88.57
234.43	31.23
234.648	88.57
234.865	47.62
235.083	59.9
235.3	20.99
235.518	-5.63
235.735	31.23
235.953	-9.73
236.17	59.9
236.388	8.7
236.605	-5.63
236.822	49.66
237.04	-24.06
237.257	102.91
237.475	-7.68
237.692	-5.63
237.909	16.9
238.127	16.9
238.344	-52.74
238.562	119.29
238.779	6.66
238.996	70.14
239.214	66.05
239.431	55.81
239.648	33.28
239.865	-3.58
240.083	31.23
240.3	18.94
240.517	23.04
240.735	53.76
240.952	72.19
241.169	23.04
241.386	16.9
241.603	25.09
241.821	-24.06
242.038	25.09
242.255	29.18
242.472	0.51
242.689	-60.93
242.907	8.7
243.124	68.09
243.341	-7.68
243.558	12.8
243.775	27.14
243.992	-44.54
244.209	25.09
244.426	10.75
244.643	18.94
244.86	-7.68
245.078	-13.82
245.295	57.86
245.512	84.48
245.729	-3.58
245.946	33.28
246.163	29.18
246.38	23.04
246.597	35.33
246.814	61.95
247.031	-3.58
247.248	12.8
247.464	-28.16
247.681	-44.54
247.898	8.7
248.115	74.24
248.332	-73.21
248.549	-15.87
248.766	12.8
248.983	33.28
249.2	14.85
249.417	61.95
249.633	-30.21
249.85	12.8
250.067	33.28
250.284	2.56
250.501	43.52
250.717	25.09
250.934	59.9
251.151	25.09
251.368	12.8
251.585	82.43
251.801	16.9
252.018	-36.35
252.235	35.33
252.451	0.51
252.668	47.62
252.885	29.18
253.102	33.28
253.318	-19.97
253.535	47.62
253.752	-24.06
253.968	57.86
254.185	92.67
254.401	27.14
254.618	31.23
254.835	-1.54
255.051	125.44
255.268	-11.78
255.484	18.94
255.701	33.28
255.917	12.8
256.134	-9.73
256.351	6.66
256.567	0.51
256.784	4.61
257	-5.63
257.217	8.7
257.433	59.9
257.65	-36.35
257.866	8.7
258.082	109.05
258.299	20.99
258.515	37.38
258.732	-56.83
258.948	94.72
259.165	68.09
259.381	-13.82
259.597	10.75
259.814	2.56
260.03	-32.26
260.246	8.7
260.463	29.18
260.679	-24.06
260.895	16.9
261.112	64
261.328	-26.11
261.544	-15.87
261.761	127.49
261.977	10.75
262.193	20.99
262.409	74.24
262.626	39.42
262.842	0.51
263.058	-19.97
263.274	33.28
263.49	49.66
263.707	86.53
263.923	45.57
264.139	-40.45
264.355	25.09
264.571	27.14
264.787	41.47
265.004	10.75
265.22	8.7
265.436	16.9
265.652	14.85
265.868	-19.97
266.084	37.38
266.3	68.09
266.516	-11.78
266.732	16.9
266.948	8.7
267.164	-15.87
267.38	8.7
267.596	100.86
267.812	68.09
268.028	10.75
268.244	64
268.46	-3.58
268.676	41.47
268.892	45.57
269.108	-38.4
269.324	27.14
269.54	49.66
269.756	-22.02
269.972	51.71
270.188	-15.87
270.403	-62.98
270.619	33.28
270.835	84.48
271.051	-28.16
271.267	8.7
271.483	-13.82
271.698	61.95
271.914	100.86
272.13	-28.16
272.346	-54.78
272.562	78.33
272.777	43.52
272.993	-24.06
273.209	10.75
273.425	-58.88
273.64	8.7
273.856	-7.68
274.072	16.9
274.287	-42.5
274.503	45.57
274.719	-22.02
274.934	72.19
275.15	31.23
275.366	-5.63
275.581	20.99
275.797	-5.63
276.012	59.9
276.228	8.7
276.444	-3.58
276.659	53.76
276.875	-3.58
277.09	-24.06
277.306	49.66
277.521	-24.06
277.737	-26.11
277.952	16.9
278.168	72.19
278.383	-48.64
278.599	68.09
278.814	4.61
279.03	8.7
279.245	47.62
279.461	-50.69
279.676	78.33
279.892	57.86
280.107	100.86
280.322	39.42
280.538	-15.87
280.753	6.66
280.969	-11.78
281.184	-7.68
281.399	47.62
281.615	90.62
281.83	31.23
282.045	20.99
282.26	-13.82
282.476	29.18
282.691	2.56
282.906	92.67
283.122	131.58
283.337	18.94
283.552	25.09
283.767	12.8
283.983	70.14
284.198	104.96
284.413	12.8
284.628	72.19
284.843	49.66
285.058	41.47
285.274	51.71
285.489	8.7
285.704	74.24
285.919	-101.89
286.134	-42.5
286.349	88.57
286.564	33.28
286.779	88.57
286.995	66.05
287.21	-28.16
287.425	-30.21
287.64	-19.97
287.855	18.94
288.07	-67.07
288.285	64
288.5	37.38
288.715	25.09
288.93	-9.73
289.145	0.51
289.36	49.66
289.575	33.28
289.79	-11.78
290.004	86.53
290.219	-7.68
290.434	12.8
290.649	25.09
290.864	12.8
291.079	23.04
291.294	20.99
291.509	23.04
291.724	39.42
291.938	43.52
292.153	-5.63
292.368	27.14
292.583	-26.11
292.798	76.29
293.012	70.14
293.227	27.14
293.442	68.09
293.657	27.14
293.871	25.09
294.086	4.61
294.301	35.33
294.516	92.67
294.73	-32.26
294.945	6.66
295.16	-5.63
295.374	41.47
295.589	49.66
295.804	72.19
296.018	59.9
296.233	68.09
296.447	27.14
296.662	59.9
296.877	55.81
297.091	39.42
297.306	55.81
297.52	-28.16
297.735	66.05
297.949	82.43
298.164	33.28
298.378	-1.54
298.593	6.66
298.807	-36.35
299.022	33.28
299.236	18.94
299.451	82.43
299.665	53.76
299.88	27.14
300.094	25.09
300.309	-13.82
300.523	37.38
300.737	43.52
300.952	43.52
301.166	-7.68
301.381	-54.78
301.595	53.76
301.809	59.9
302.024	96.77
302.238	57.86
302.452	33.28
302.667	35.33
302.881	125.44
303.095	90.62
303.309	-19.97
303.524	25.09
303.738	8.7
303.952	20.99
304.166	-11.78
304.381	-3.58
304.595	84.48
304.809	-22.02
305.023	-1.54
305.237	12.8
305.452	76.29
305.666	12.8
305.88	49.66
306.094	20.99
306.308	70.14
306.522	-58.88
306.736	-22.02
306.95	47.62
307.164	4.61
307.379	8.7
307.593	72.19
307.807	51.71
308.021	10.75
308.235	43.52
308.449	20.99
308.663	6.66
308.877	78.33
309.091	4.61
309.305	23.04
309.519	8.7
309.733	82.43
309.947	72.19
310.161	-13.82
310.374	-7.68
310.588	20.99
310.802	-38.4
311.016	6.66
311.23	53.76
311.444	-3.58
311.658	31.23
311.872	51.71
312.085	20.99
312.299	-15.87
312.513	16.9
312.727	80.38
312.941	-3.58
313.154	74.24
313.368	-54.78
313.582	80.38
313.796	37.38
314.009	90.62
314.223	76.29
314.437	82.43
314.651	33.28
314.864	14.85
315.078	-32.26
315.292	55.81
315.505	31.23
315.719	8.7
315.933	18.94
316.146	-48.64
316.36	-15.87
316.573	74.24
316.787	82.43
317.001	84.48
317.214	-3.58
317.428	4.61
317.641	-85.5
317.855	49.66
318.068	-13.82
318.282	-22.02
318.495	25.09
318.709	80.38
318.922	-17.92
319.136	74.24
319.349	98.81
319.563	0.51
319.776	25.09
319.99	16.9
320.203	78.33
320.417	10.75
320.63	-15.87
320.843	47.62
321.057	12.8
321.27	31.23
321.483	31.23
321.697	0.51
321.91	61.95
322.124	41.47
322.337	74.24
322.55	0.51
322.763	51.71
322.977	-15.87
323.19	-15.87
323.403	33.28
323.617	33.28
323.83	31.23
324.043	33.28
324.256	57.86
324.469	-17.92
324.683	55.81
324.896	-32.26
325.109	12.8
325.322	2.56
325.535	29.18
325.748	33.28
325.962	37.38
326.175	-28.16
326.388	25.09
326.601	0.51
326.814	41.47
327.027	-30.21
327.24	74.24
327.453	8.7
327.666	20.99
327.879	25.09
328.092	88.57
328.305	12.8
328.518	100.86
328.731	45.57
328.944	14.85
329.157	-19.97
329.37	8.7
329.583	53.76
329.796	88.57
330.009	68.09
330.222	12.8
330.435	31.23
330.648	111.1
330.861	25.09
331.073	-5.63
331.286	33.28
331.499	-28.16
331.712	45.57
331.925	8.7
332.138	90.62
332.35	86.53
332.563	12.8
332.776	125.44
332.989	-24.06
333.202	68.09
333.414	4.61
333.627	-60.93
333.84	2.56
334.053	-24.06
334.265	-3.58
334.478	-24.06
334.691	25.09
334.903	100.86
335.116	18.94
335.329	-15.87
335.541	-7.68
335.754	61.95
335.966	0.51
336.179	-71.17
336.392	14.85
336.604	2.56
336.817	35.33
337.029	39.42
337.242	12.8
337.454	90.62
337.667	-36.35
337.88	84.48
338.092	-44.54
338.305	25.09
338.517	4.61
338.729	33.28
338.942	23.04
339.154	-32.26
339.367	12.8
339.579	76.29
339.792	14.85
340.004	25.09
340.217	-24.06
340.429	18.94
340.641	0.51
340.854	-52.74
341.066	39.42
341.278	8.7
341.491	59.9
341.703	16.9
341.915	14.85
342.128	35.33
342.34	0.51
342.552	16.9
342.764	31.23
342.977	59.9
343.189	2.56
343.401	64
343.613	-9.73
343.826	-15.87
344.038	-22.02
344.25	-1.54
344.462	31.23
344.674	53.76
344.886	47.62
345.099	41.47
345.311	33.28
345.523	102.91
345.735	47.62
345.947	45.57
346.159	45.57
346.371	25.09
346.583	-1.54
346.795	49.66
347.007	10.75
347.219	39.42
347.431	8.7
347.643	66.05
347.855	27.14
348.067	29.18
348.279	39.42
348.491	-22.02
348.703	-9.73
348.915	-26.11
349.127	43.52
349.339	25.09
349.551	-42.5
349.763	43.52
349.975	6.66
350.187	-1.54
350.399	27.14
350.61	16.9
350.822	-24.06
351.034	82.43
351.246	-7.68
351.458	76.29
351.669	8.7
351.881	49.66
352.093	61.95
352.305	31.23
352.517	8.7
352.728	45.57
352.94	49.66
353.152	57.86
353.363	74.24
353.575	51.71
353.787	49.66
353.999	57.86
354.21	88.57
354.422	78.33
354.633	-1.54
354.845	45.57
355.057	-17.92
355.268	-5.63
355.48	0.51
355.692	2.56
355.903	-26.11
356.115	57.86
356.326	-97.79
356.538	49.66
356.749	55.81
356.961	0.51
357.172	14.85
357.384	37.38
357.595	53.76
357.807	-46.59
358.018	39.42
358.23	51.71
358.441	27.14
358.653	45.57
358.864	41.47
359.075	-17.92
359.287	-48.64
359.498	37.38
359.709	53.76
359.921	78.33
360.132	33.28
360.344	43.52
360.555	-77.31
360.766	64
360.977	66.05
361.189	8.7
361.4	29.18
361.611	98.81
361.823	55.81
362.034	90.62
362.245	-7.68
362.456	-40.45
362.667	14.85
362.879	20.99
363.09	57.86
363.301	80.38
363.512	-22.02
363.723	68.09
363.935	0.51
364.146	25.09
364.357	64
364.568	41.47
364.779	8.7
364.99	90.62
365.201	-5.63
365.412	70.14
365.623	31.23
365.834	-17.92
366.045	57.86
366.256	33.28
366.467	88.57
366.678	-28.16
366.889	27.14
367.1	-5.63
367.311	31.23
367.522	47.62
367.733	25.09
367.944	-7.68
368.155	45.57
368.366	109.05
368.577	14.85
368.788	18.94
368.999	27.14
369.209	88.57
369.42	129.53
369.631	45.57
369.842	37.38
370.053	27.14
370.264	29.18
370.474	8.7
370.685	-7.68
370.896	0.51
371.107	18.94
371.317	49.66
371.528	37.38
371.739	76.29
371.95	76.29
372.16	82.43
372.371	20.99
372.582	-7.68
372.792	74.24
373.003	14.85
373.214	57.86
373.424	43.52
373.635	10.75
373.846	39.42
374.056	49.66
374.267	8.7
374.477	-13.82
374.688	29.18
374.898	47.62
375.109	90.62
375.319	74.24
375.53	100.86
375.74	29.18
375.951	53.76
376.161	51.71
376.372	76.29
376.582	115.2
376.793	14.85
377.003	2.56
377.214	20.99
377.424	6.66
377.635	82.43
377.845	-24.06
378.055	16.9
378.266	-24.06
378.476	20.99
378.686	49.66
378.897	94.72
379.107	41.47
379.317	55.81
379.528	8.7
379.738	117.25
379.948	2.56
380.158	33.28
380.369	55.81
380.579	127.49
380.789	61.95
380.999	37.38
381.21	23.04
381.42	92.67
381.63	-22.02
381.84	31.23
382.05	57.86
382.261	43.52
382.471	33.28
382.681	35.33
382.891	51.71
383.101	41.47
383.311	-36.35
383.521	8.7
383.731	59.9
383.941	109.05
384.151	45.57
384.361	18.94
384.571	72.19
384.781	57.86
384.991	80.38
385.201	76.29
385.411	92.67
385.621	31.23
385.831	10.75
386.041	6.66
386.251	55.81
386.461	66.05
386.671	-5.63
386.881	41.47
387.091	59.9
387.301	53.76
387.511	8.7
387.72	100.86
387.93	6.66
388.14	8.7
388.35	70.14
388.56	20.99
388.769	55.81
388.979	-22.02
389.189	-17.92
389.399	8.7
389.609	31.23
389.818	16.9
390.028	8.7
390.238	2.56
390.447	-24.06
390.657	0.51
390.867	66.05
391.076	119.29
391.286	0.51
391.496	43.52
391.705	20.99
391.915	-24.06
392.125	80.38
392.334	29.18
392.544	66.05
392.753	-13.82
392.963	29.18
393.172	147.97
393.382	-11.78
393.591	37.38
393.801	-7.68
394.01	115.2
394.22	55.81
394.429	90.62
394.639	86.53
394.848	51.71
395.058	86.53
395.267	74.24
395.477	98.81
395.686	82.43
395.895	57.86
396.105	100.86
396.314	61.95
396.524	-30.21
396.733	-7.68
396.942	10.75
397.152	129.53
397.361	98.81
397.57	43.52
397.78	39.42
397.989	37.38
398.198	133.63
398.407	61.95
398.617	57.86
398.826	-13.82
399.035	51.71
399.244	82.43
399.453	96.77
399.663	-5.63
399.872	66.05
400.081	68.09
400.29	100.86
400.499	51.71
400.708	59.9
400.917	0.51
401.127	117.25
401.336	64
401.545	39.42
401.754	139.77
401.963	74.24
402.172	39.42
402.381	86.53
402.59	61.95
402.799	90.62
403.008	107.01
403.217	117.25
403.426	127.49
403.635	37.38
403.844	4.61
404.053	88.57
404.262	25.09
404.471	127.49
404.68	119.29
404.888	51.71
405.097	18.94
405.306	98.81
405.515	125.44
405.724	111.1
405.933	111.1
406.142	90.62
406.35	129.53
406.559	51.71
406.768	115.2
406.977	96.77
407.185	100.86
407.394	82.43
407.603	31.23
407.812	107.01
408.02	104.96
408.229	61.95
408.438	82.43
408.646	104.96
408.855	113.15
409.064	172.54
409.272	84.48
409.481	158.21
409.69	102.91
409.898	137.73
410.107	182.78
410.315	172.54
410.524	139.77
410.733	172.54
410.941	178.69
411.15	209.4
411.358	172.54
411.567	160.25
411.775	156.16
411.984	166.4
412.192	215.55
412.401	217.6
412.609	207.36
412.818	283.13
413.026	199.16
413.234	215.55
413.443	174.59
413.651	227.84
413.86	170.49
414.068	256.51
414.276	289.28
414.485	215.55
414.693	344.57
414.901	375.29
415.11	303.61
415.318	387.58
415.526	330.23
415.734	416.25
415.943	385.53
416.151	383.48
416.359	307.71
416.567	377.34
416.776	446.97
416.984	428.54
417.192	369.15
417.4	334.33
417.608	449.02
417.817	494.07
418.025	487.93
418.233	512.5
418.441	426.49
418.649	502.26
418.857	549.37
419.065	557.56
419.273	473.59
419.481	633.33
419.689	629.24
419.897	659.96
420.105	606.71
420.313	688.63
420.521	659.96
420.729	809.46
420.937	674.29
421.145	772.6
421.353	872.95
421.561	928.24
421.769	969.2
421.977	858.61
422.185	852.47
422.393	885.23
422.601	999.92
422.809	975.35
423.017	1001.97
423.224	1122.8
423.432	1044.98
423.64	1159.66
423.848	1243.63
424.056	1237.49
424.263	1303.02
424.471	1223.15
424.679	1331.69
424.887	1325.55
425.094	1298.92
425.302	1386.99
425.51	1466.86
425.718	1505.77
425.925	1483.24
426.133	1567.21
426.341	1708.52
426.548	1706.47
426.756	1694.18
426.964	1690.09
427.171	1765.86
427.379	1759.72
427.586	2011.62
427.794	1944.03
428.001	2083.3
428.209	2243.04
428.417	2132.45
428.624	2247.13
428.832	2298.33
429.039	2220.51
429.247	2220.51
429.454	2564.57
429.662	2578.9
429.869	2415.07
430.076	2632.15
430.284	2642.39
430.491	2683.35
430.699	2877.91
430.906	2777.56
431.114	2888.15
431.321	2949.59
431.528	3008.98
431.736	3211.73
431.943	3475.91
432.15	3258.83
432.358	3238.35
432.565	3359.18
432.772	3492.3
432.979	3613.13
433.187	3674.57
433.394	3729.86
433.601	3924.42
433.808	4022.72
434.016	4055.49
434.223	4233.66
434.43	4325.82
434.637	4334.01
434.844	4661.69
435.052	4694.46
435.259	4633.02
435.466	4520.38
435.673	4524.47
435.88	4905.4
436.087	5269.94
436.294	5163.44
436.501	5276.08
436.708	5132.72
436.915	5351.85
437.122	5599.66
437.329	5517.74
437.537	5869.99
437.743	5691.82
437.95	5814.7
438.157	6072.74
438.364	6365.6
438.571	6242.72
438.778	6369.69
438.985	6826.39
439.192	6584.73
439.399	6951.32
439.606	6607.26
439.813	7029.14
440.02	7653.77
440.227	7467.41
440.433	7375.25
440.64	7502.22
440.847	7537.04
441.054	7868.81
441.261	8360.32
441.467	8296.83
441.674	8358.27
441.881	8677.76
442.088	8587.64
442.294	8540.54
442.501	8667.52
442.708	9038.2
442.914	9275.76
443.121	9673.07
443.328	9468.27
443.534	10070.37
443.741	9847.15
443.948	9521.52
444.154	10475.87
444.361	10326.37
444.568	10498.4
444.774	10389.86
444.981	10568.03
445.187	10797.4
445.394	11319.64
445.6	11348.31
445.807	11850.06
446.013	11762
446.22	11897.16
446.426	12323.14
446.633	12472.64
446.839	12779.84
447.046	12460.35
447.252	13007.16
447.459	13089.08
447.665	13263.16
447.871	13650.22
448.078	14209.32
448.284	13564.21
448.491	14016.81
448.697	14502.18
448.903	14762.27
449.11	14842.14
449.316	14717.22
449.522	14772.51
449.728	15446.29
449.935	15479.06
450.141	15288.6
450.347	15761.68
450.553	15276.31
450.76	15442.2
450.966	16070.92
451.172	15950.09
451.378	16378.12
451.584	15874.32
451.791	16453.89
451.997	16281.86
452.203	16541.96
452.409	16515.33
452.615	16675.07
452.821	15780.11
453.027	15741.2
453.233	16668.93
453.44	16029.96
453.646	16216.33
453.852	16529.67
454.058	16400.65
454.264	16257.29
454.47	16214.28
454.676	15905.04
454.882	16763.14
455.088	15288.6
455.294	15343.89
455.5	15565.07
455.705	15991.05
455.911	15132.95
456.117	14999.84
456.323	14825.76
456.529	13871.4
456.735	14491.94
456.941	14246.18
457.147	13943.08
457.352	13623.6
457.558	13615.41
457.764	13566.26
457.97	13181.24
458.176	12896.57
458.381	12831.04
458.587	12384.58
458.793	12212.55
458.999	11704.65
459.204	12675.39
459.41	11886.92
459.616	11403.6
459.821	11393.36
460.027	11227.48
460.233	11231.57
460.438	10684.76
460.644	10836.31
460.85	10027.37
461.055	10148.2
461.261	9847.15
461.466	9101.69
461.672	8845.69
461.878	9693.55
462.083	9181.56
462.289	8712.57
462.494	9001.33
462.7	8407.42
462.905	8348.03
463.111	8495.49
463.316	8657.28
463.522	8360.32
463.727	8382.85
463.932	8192.39
464.138	8012.17
464.343	8194.43
464.549	8038.79
464.754	8305.03
464.959	8130.95
465.165	8106.37
465.37	7651.72
465.575	7764.36
465.781	7967.11
465.986	8075.65
466.191	7643.53
466.397	7350.67
466.602	7012.76
466.807	7520.65
467.012	7344.53
467.218	7510.41
467.423	7168.4
467.628	7281.04
467.833	7436.69
468.038	7244.18
468.244	7004.57
468.449	7332.24
468.654	7152.02
468.859	7076.24
469.064	7084.44
469.269	6703.51
469.474	6861.21
469.679	6971.8
469.885	6658.46
470.09	7047.57
470.295	6705.56
470.5	6691.23
470.705	6756.76
470.91	6652.31
471.115	6365.6
471.32	6529.44
471.525	6748.57
471.73	6304.16
471.935	6209.95
472.139	6042.02
472.344	6220.19
472.549	6205.86
472.754	6056.36
472.959	5925.29
473.164	5738.92
473.369	5843.37
473.574	5915.05
473.778	5974.44
473.983	5923.24
474.188	5933.48
474.393	5630.38
474.598	5652.91
474.802	5616.04
475.007	5657
475.212	5857.7
475.417	5396.91
475.621	5454.25
475.826	5497.26
476.031	5323.18
476.235	5104.05
476.44	5259.7
476.645	5132.72
476.849	5202.35
477.054	5097.91
477.259	5001.65
477.463	5001.65
477.668	4932.02
477.872	4905.4
478.077	4991.41
478.282	4755.9
478.486	4780.47
478.691	4848.05
478.895	4600.25
479.1	4643.26
479.304	4780.47
479.509	4417.98
479.713	4590.01
479.918	4510.14
480.122	4417.98
480.326	4497.85
480.531	4596.15
480.735	4530.62
480.94	4399.55
481.144	4542.91
481.348	4401.6
481.553	4401.6
481.757	4284.86
481.961	4350.4
482.166	4422.08
482.37	4487.61
482.574	4368.83
482.778	4270.53
482.983	4542.91
483.187	4397.5
483.391	4370.88
483.595	4430.27
483.8	4424.12
484.004	4288.96
484.208	4311.49
484.412	4364.73
484.616	4313.53
484.821	4315.58
485.025	4231.62
485.229	4223.42
485.433	4278.72
485.637	4338.11
485.841	4295.1
486.045	4323.77
486.249	4352.45
486.453	4252.1
486.657	4137.41
486.861	4303.29
487.065	4227.52
487.269	4434.36
487.473	4248
487.677	4413.88
487.881	4444.6
488.085	4315.58
488.289	4499.9
488.493	4481.47
488.697	4297.15
488.901	4393.4
489.105	4436.41
489.309	4403.64
489.512	4399.55
489.716	4417.98
489.92	4438.46
490.124	4475.32
490.328	4377.02
490.531	4401.6
490.735	4614.59
490.939	4518.33
491.143	4448.7
491.346	4460.99
491.55	4530.62
491.754	4565.43
491.958	4657.59
492.161	4508.09
492.365	4661.69
492.569	4694.46
492.772	4641.21
492.976	4659.64
493.18	4680.12
493.383	4653.5
493.587	4759.99
493.79	4833.72
493.994	4596.15
494.197	4731.32
494.401	4837.81
494.605	5007.8
494.808	4882.87
495.012	4868.53
495.215	4989.36
495.419	4919.73
495.622	5030.32
495.825	4999.6
496.029	5132.72
496.232	5335.47
496.436	5104.05
496.639	5290.42
496.843	5267.89
497.046	5288.37
497.249	5302.7
497.453	5245.36
497.656	5478.83
497.859	5624.23
498.063	5515.69
498.266	5732.78
498.469	5558.7
498.673	5781.93
498.876	5550.51
499.079	5837.22
499.282	5767.59
499.485	6082.98
499.689	6007.2
499.892	6046.12
500.095	5915.05
500.298	6130.08
500.501	6277.54
500.705	6349.22
500.908	6449.57
501.111	6353.31
501.314	6574.49
501.517	6752.66
501.72	6597.02
501.923	6736.28
502.126	7033.24
502.329	6986.13
502.532	7018.9
502.735	7035.28
502.938	7201.17
503.141	7354.77
503.344	7289.23
503.547	7338.38
503.75	7418.25
503.953	7557.52
504.156	7629.2
504.359	7547.28
504.562	7756.17
504.765	7950.73
504.968	7985.54
505.17	7950.73
505.373	8196.48
505.576	8200.58
505.779	8345.98
505.982	8378.75
506.185	8561.02
506.387	8663.42
506.59	8794.49
506.793	8876.41
506.996	8984.95
507.198	9120.12
507.401	8847.74
507.604	9124.21
507.807	9300.34
508.009	9503.09
508.212	9474.42
508.415	9558.38
508.617	9648.49
508.82	9894.25
509.022	9703.79
509.225	9845.1
509.428	9986.41
509.63	10053.99
509.833	10158.44
510.035	10195.3
510.238	10254.69
510.44	10381.67
510.643	10740.06
510.845	11008.34
511.048	10832.22
511.25	10977.62
511.453	11098.45
511.655	11282.77
511.858	11233.62
512.06	11356.5
512.262	11477.33
512.465	11622.73
512.667	11944.27
512.87	11942.22
513.072	11757.9
513.274	12179.78
513.477	12247.37
513.679	12439.87
513.881	12611.9
514.084	12585.28
514.286	12826.94
514.488	12806.46
514.69	13179.19
514.893	13152.57
515.095	13037.88
515.297	13259.06
515.499	13394.23
515.701	13513.01
515.904	13541.68
516.106	13629.74
516.308	14137.64
516.51	14297.38
516.712	13979.95
516.914	14385.44
517.116	14430.5
517.318	14848.29
517.52	14868.77
517.722	14870.81
517.925	14991.64
518.127	15352.09
518.329	15307.03
518.531	15454.48
518.733	15628.56
518.935	15814.93
519.136	15620.37
519.338	16214.28
519.54	16197.9
519.742	16122.12
519.944	16318.73
520.146	16568.58
520.348	16603.39
520.55	16851.2
520.752	16910.59
520.954	17404.15
521.155	16808.19
521.357	17504.5
521.559	17496.31
521.761	17854.7
521.963	17766.64
522.164	17955.05
522.366	18206.95
522.568	18079.98
522.77	18438.37
522.971	18589.92
523.173	18665.7
523.375	18764
523.576	18587.88
523.778	18790.63
523.98	19319
524.181	19319
524.383	19114.2
524.584	19491.03
524.786	19448.02
524.988	19468.5
525.189	19744.98
525.391	19986.64
525.592	20082.89
525.794	19792.08
525.995	19992.78
526.197	20285.64
526.398	20367.56
526.6	20541.64
526.801	20410.57
527.003	20390.09
527.204	20848.83
527.406	20820.16
527.607	20730.05
527.808	21199.04
528.01	20609.22
528.211	20924.61
528.412	21178.56
528.614	21201.08
528.815	21338.3
529.016	21471.42
529.218	21473.46
529.419	21618.87
529.62	21633.21
529.822	21457.08
530.023	21807.28
530.224	21741.75
530.425	21586.1
530.626	21866.67
530.828	21934.26
531.029	22214.83
531.23	21842.1
531.431	21934.26
531.632	21921.97
531.833	22069.42
532.035	21997.74
532.236	22040.75
532.437	22548.65
532.638	22116.53
532.839	22153.39
533.04	22425.77
533.241	22040.75
533.442	22583.46
533.643	22575.27
533.844	22180.01
534.045	22542.5
534.246	22182.06
534.447	22382.76
534.648	22292.65
534.849	22345.9
535.05	22393
535.251	22157.49
535.451	22474.92
535.652	22749.35
535.853	22671.53
536.054	22464.68
536.255	23027.87
536.456	22026.42
536.657	22964.39
536.857	22669.48
537.058	22388.91
537.259	22476.97
537.46	22657.19
537.66	22243.5
537.861	22737.06
538.062	22476.97
538.263	22657.19
538.463	22509.74
538.664	22505.64
538.865	22839.46
539.065	22673.57
539.266	22505.64
539.466	22679.72
539.667	22532.26
539.868	22870.18
540.068	22448.3
540.269	22601.9
540.469	22499.5
540.67	22425.77
540.87	22401.19
541.071	22599.85
541.271	22282.41
541.472	22773.92
541.672	22397.1
541.873	22333.61
542.073	22132.91
542.274	22786.21
542.474	22243.5
542.675	22583.46
542.875	22802.6
543.075	22374.57
543.276	22173.87
543.476	22548.65
543.676	22456.49
543.877	22446.25
544.077	22429.87
544.277	22507.69
544.478	22390.95
544.678	22804.64
544.878	22421.67
545.078	22542.5
545.279	22513.83
545.479	22661.29
545.679	22659.24
545.879	22433.96
546.079	22728.87
546.28	22397.1
546.48	22343.85
546.68	22405.29
546.88	22452.39
547.08	22302.89
547.28	22349.99
547.48	22235.31
547.68	22298.8
547.88	22028.46
548.081	22474.92
548.281	22339.76
548.481	22472.87
548.681	22630.57
548.881	22528.17
549.081	22175.92
549.28	22347.95
549.48	22374.57
549.68	22134.96
549.88	22755.49
550.08	22225.07
550.28	22399.15
550.48	22175.92
550.68	22354.09
550.88	22233.26
551.08	22360.23
551.279	22315.18
551.479	22010.03
551.679	22184.11
551.879	22212.78
552.079	22216.88
552.278	22165.68
552.478	22069.42
552.678	22204.59
552.878	22282.41
553.077	21921.97
553.277	21809.33
553.477	22710.44
553.676	22118.57
553.876	22200.49
554.076	22116.53
554.275	22390.95
554.475	21756.08
554.674	22155.44
554.874	22382.76
555.074	22014.13
555.273	22309.04
555.473	22102.19
555.672	22050.99
555.872	21876.91
556.071	21942.45
556.271	22069.42
556.47	21956.78
556.67	21860.53
556.869	21774.52
557.068	22196.4
557.268	21604.53
557.467	21668.02
557.667	21715.12
557.866	21643.45
558.065	21774.52
558.265	21448.89
558.464	21807.28
558.663	21747.89
558.863	21579.96
559.062	21754.04
559.261	21450.94
559.461	21610.68
559.66	21375.16
559.859	21516.47
560.058	21291.2
560.258	21293.24
560.457	21274.81
560.656	21299.39
560.855	21225.66
561.054	21162.17
561.253	21264.57
561.453	21184.7
561.652	20949.18
561.851	21215.42
562.05	21016.77
562.249	20582.6
562.448	20971.71
562.647	20736.2
562.846	21022.91
563.045	20984
563.244	20500.68
563.443	20940.99
563.642	20574.41
563.841	20560.07
564.04	20666.56
564.239	20730.05
564.438	20191.44
564.637	20529.35
564.836	20658.37
565.035	20228.3
565.234	20211.92
565.432	20205.77
565.631	20246.73
565.83	20105.42
566.029	20162.76
566.228	20244.68
566.427	20023.5
566.625	19704.02
566.824	19863.76
567.023	19947.73
567.222	19472.6
567.42	19751.12
567.619	19724.5
567.818	19714.26
568.016	19568.85
568.215	19722.45
568.414	19298.52
568.612	19673.3
568.811	19067.1
569.01	19304.67
569.208	19063.01
569.407	19491.03
569.605	18893.02
569.804	19288.28
570.002	18847.97
570.201	19081.44
570.4	18788.58
570.598	18784.48
570.797	18698.47
570.995	18759.91
571.193	18651.36
571.392	18499.81
571.59	18608.36
571.789	18383.08
571.987	18553.06
572.186	18376.94
572.384	18266.35
572.582	18831.58
572.781	18104.56
572.979	18243.82
573.177	18202.86
573.376	18149.61
573.574	18206.95
573.772	17912.05
573.971	17873.14
574.169	17705.2
574.367	17559.8
574.565	18071.79
574.763	17662.19
574.962	17518.84
575.16	17545.46
575.358	17465.59
575.556	17600.76
575.754	17570.04
575.952	17271.03
576.151	17285.37
576.349	17277.18
576.547	17342.71
576.745	17027.32
576.943	17318.14
577.141	16826.62
577.339	17271.03
577.537	16963.84
577.735	17017.08
577.933	16873.73
578.131	16826.62
578.329	16836.86
578.527	16732.42
578.725	16675.07
578.923	16562.44
579.121	16519.43
579.319	16634.11
579.516	16673.03
579.714	16621.83
579.912	16580.87
580.11	16673.03
580.308	16554.24
580.506	16484.61
580.704	16122.12
580.901	16210.18
581.099	16214.28
581.297	16025.87
581.495	16490.76
581.692	16095.5
581.89	15866.13
582.088	16075.02
582.285	15968.52
582.483	15794.45
582.681	16062.73
582.878	15776.02
583.076	15634.71
583.274	15841.55
583.471	15624.47
583.669	15892.75
583.866	15796.49
584.064	15524.12
584.262	15427.86
584.459	15663.38
584.657	15444.24
584.854	15538.45
585.052	15110.43
585.249	15339.8
585.447	15192.34
585.644	15128.86
585.841	15032.6
586.039	15307.03
586.236	15061.27
586.434	14903.58
586.631	14868.77
586.828	14987.55
587.026	14874.91
587.223	14717.22
587.42	14594.34
587.618	14713.12
587.815	14450.98
588.012	14922.01
588.21	14530.85
588.407	14594.34
588.604	14582.05
588.801	14475.56
588.999	14418.21
589.196	14346.53
589.393	14297.38
589.59	14461.22
589.787	14371.11
589.984	14022.95
590.182	14113.06
590.379	14199.08
590.576	13887.79
590.773	14229.8
590.97	14074.15
591.167	14121.26
591.364	13814.06
591.561	13883.69
591.758	13746.48
591.955	13893.93
592.152	13549.87
592.349	13584.69
592.546	13840.68
592.743	13691.18
592.94	13590.83
593.137	13472.05
593.334	13480.24
593.531	13369.65
593.727	13476.15
593.924	13365.56
594.121	13259.06
594.318	13189.43
594.515	13236.53
594.712	13637.94
594.908	13314.36
595.105	13142.33
595.302	13211.96
595.499	13310.26
595.696	12951.87
595.892	12931.39
596.089	13046.07
596.286	12964.15
596.482	13148.47
596.679	12994.87
596.876	12765.5
597.072	12902.72
597.269	12845.37
597.466	12755.26
597.662	12738.88
597.859	12837.18
598.055	12882.24
598.252	12525.89
598.448	12525.89
598.645	12419.39
598.841	12357.96
599.038	12357.96
599.234	12484.93
599.431	12423.49
599.627	12273.99
599.824	12419.39
600.02	12026.18
600.217	12378.44
600.413	12411.2
600.609	12151.11
600.806	12142.92
601.002	12167.49
601.198	12093.77
601.395	11888.97
601.591	11948.36
601.787	12067.14
601.984	11798.86
602.18	11802.96
602.376	11864.39
602.572	11811.15
602.769	11852.11
602.965	11510.1
603.161	11561.3
603.357	11536.72
603.553	11438.42
603.75	11551.06
603.946	11452.75
604.142	11669.84
604.338	11260.24
604.534	11401.55
604.73	11403.6
604.926	11241.81
605.122	11542.86
605.318	11123.03
605.514	11135.32
605.71	11094.36
605.906	11229.52
606.102	11016.54
606.298	11245.91
606.494	11063.64
606.69	11080.02
606.886	11207
607.082	10764.64
607.278	10942.81
607.474	10746.2
607.67	11043.16
607.866	10654.05
608.062	10983.77
608.257	10723.68
608.453	10844.51
608.649	10746.2
608.845	10613.09
609.041	10692.96
609.236	10436.96
609.432	10506.59
609.628	10563.93
609.824	10570.08
610.019	10525.02
610.215	10572.13
610.411	10594.65
610.606	10406.24
610.802	10635.61
610.998	10520.93
611.193	10416.48
611.389	10396
611.584	10168.68
611.78	10256.74
611.976	10531.17
612.171	10346.85
612.367	10236.26
612.562	10359.14
612.758	10226.02
612.953	10183.01
613.149	10170.72
613.344	10170.72
613.539	10160.48
613.735	10101.09
613.93	9914.73
614.126	10142.05
614.321	10074.47
614.517	10004.84
614.712	9933.16
614.907	10174.82
615.103	10035.56
615.298	9802.09
615.493	10043.75
615.688	9945.45
615.884	9914.73
616.079	9875.82
616.274	9904.49
616.47	9546.09
616.665	9931.11
616.86	9650.54
617.055	9834.86
617.25	9777.51
617.445	9681.26
617.641	9646.44
617.836	9732.46
618.031	9568.62
618.226	9482.61
618.421	9474.42
618.616	9505.13
618.811	9376.11
619.006	9505.13
619.201	9314.67
619.396	9449.84
619.591	9300.34
619.786	9314.67
619.981	9068.92
620.176	9363.83
620.371	9242.99
620.566	9263.47
620.761	9161.08
620.956	9128.31
621.151	8966.52
621.346	9052.53
621.541	9007.48
621.735	8896.89
621.93	8718.71
622.125	8671.61
622.32	8915.32
622.515	8778.11
622.709	8606.08
622.904	8667.52
623.099	8561.02
623.294	8477.05
623.488	8483.2
623.683	8450.43
623.878	8499.58
624.072	8487.29
624.267	8563.07
624.462	8210.82
624.656	8176
624.851	8208.77
625.046	8036.74
625.24	8075.65
625.435	7877
625.629	8022.41
625.824	8163.72
626.018	8028.55
626.213	7799.18
626.407	7938.44
626.602	7848.33
626.796	7813.51
626.991	7840.14
627.185	7893.38
627.38	7582.09
627.574	7551.37
627.768	7627.15
627.963	7483.79
628.157	7489.93
628.352	7500.17
628.546	7545.23
628.74	7684.49
628.935	7221.65
629.129	7430.54
629.323	7225.75
629.517	7301.52
629.712	7272.85
629.906	7348.62
630.1	7070.1
630.294	7025.04
630.489	6930.84
630.683	7100.82
630.877	6998.42
631.071	7094.68
631.265	6844.82
631.459	6877.59
631.653	6730.14
631.848	6777.24
632.042	6740.38
632.236	6711.71
632.43	6742.43
632.624	6650.27
632.818	6592.92
633.012	6570.4
633.206	6560.16
633.4	6658.46
633.594	6496.67
633.788	6521.24
633.982	6453.66
634.176	6377.89
634.369	6252.96
634.563	6392.22
634.757	6171.04
634.951	6324.64
635.145	6316.45
635.339	6390.17
635.533	6216.1
635.726	6171.04
635.92	5968.29
636.114	6152.61
636.308	6072.74
636.501	5990.82
636.695	6001.06
636.889	5939.62
637.083	5884.33
637.276	5902.76
637.47	5712.3
637.664	5749.16
637.857	5751.21
638.051	5792.17
638.244	5904.81
638.438	5669.29
638.632	5661.1
638.825	5605.8
639.019	5466.54
639.212	5548.46
639.406	5652.91
639.599	5562.8
639.793	5691.82
639.986	5394.86
640.18	5439.92
640.373	5446.06
640.567	5181.87
640.76	5253.55
640.954	5204.4
641.147	5298.61
641.34	5243.31
641.534	5136.82
641.727	5247.41
641.92	5204.4
642.114	5079.47
642.307	5222.83
642.5	5087.67
642.694	4827.57
642.887	5018.04
643.08	5007.8
643.273	4999.6
643.467	4893.11
643.66	4796.85
643.853	4743.61
644.046	4811.19
644.239	4919.73
644.432	4772.28
644.626	4729.27
644.819	4786.61
645.012	4716.98
645.205	4749.75
645.398	4690.36
645.591	4659.64
645.784	4501.95
645.977	4671.93
646.17	4501.95
646.363	4493.76
646.556	4407.74
646.749	4483.52
646.942	4479.42
647.135	4362.69
647.328	4430.27
647.521	4501.95
647.714	4321.73
647.907	4323.77
648.099	4221.38
648.292	4336.06
648.485	4387.26
648.678	4186.56
648.871	4297.15
649.064	4215.23
649.256	4219.33
649.449	4315.58
649.642	4153.79
649.835	4149.7
650.027	4051.39
650.22	4151.74
650.413	4108.74
650.605	4063.68
650.798	4018.63
650.991	3901.89
651.183	4067.78
651.376	3940.8
651.568	4030.91
651.761	3869.12
651.954	3975.62
652.146	3858.89
652.339	3856.84
652.531	3858.89
652.724	3875.27
652.916	3615.18
653.109	3658.18
653.301	3719.62
653.494	3793.35
653.686	3664.33
653.879	3807.69
654.071	3559.88
654.263	3744.2
654.456	3697.1
654.648	3555.79
654.84	3590.6
655.033	3690.95
655.225	3555.79
655.417	3494.35
655.61	3727.82
655.802	3490.25
655.994	3318.22
656.186	3432.91
656.379	3441.1
656.571	3508.68
656.763	3402.19
656.955	3324.37
657.148	3416.52
657.34	3277.26
657.532	3348.94
657.724	3414.48
657.916	3379.66
658.108	3314.13
658.3	3340.75
658.492	3320.27
658.684	3201.49
658.876	3330.51
659.068	3193.3
659.26	3107.28
659.452	3252.69
659.644	3123.66
659.836	3162.58
660.028	3148.24
660.22	3094.99
660.412	3168.72
660.604	3023.31
660.796	3178.96
660.988	3002.83
661.18	3017.17
661.372	2824.66
661.563	3078.61
661.755	2875.86
661.947	3017.17
662.139	2855.38
662.331	2832.85
662.522	2851.28
662.714	2863.57
662.906	2920.92
663.097	2890.2
663.289	2767.32
663.481	2867.67
663.673	2732.5
663.864	2765.27
664.056	2783.7
664.247	2720.21
664.439	2699.73
664.631	2896.34
664.822	2617.82
665.014	2671.06
665.205	2654.68
665.397	2757.08
665.588	2742.74
665.78	2634.2
665.971	2654.68
666.163	2623.96
666.354	2634.2
666.546	2556.38
666.737	2580.95
666.929	2517.47
667.12	2509.27
667.311	2576.86
667.503	2593.24
667.694	2462.17
667.885	2490.84
668.077	2626.01
668.268	2507.23
668.459	2406.88
668.651	2417.12
668.842	2453.98
669.033	2486.75
669.224	2347.48
669.416	2509.27
669.607	2284
669.798	2361.82
669.989	2406.88
670.18	2505.18
670.371	2406.88
670.563	2378.2
670.754	2466.27
670.945	2410.97
671.136	2427.35
671.327	2261.47
671.518	2206.17
671.709	2398.68
671.9	2226.65
672.091	2271.71
672.282	2216.41
672.473	2212.32
672.664	2238.94
672.855	2337.24
673.046	2294.24
673.237	2288.09
673.428	2187.74
673.619	2269.66
673.809	2181.6
674	2171.36
674.191	2120.16
674.382	2068.96
674.573	2204.13
674.764	2093.54
674.954	2161.12
675.145	2200.03
675.336	2087.39
675.527	2114.02
675.717	2206.17
675.908	2109.92
676.099	2079.2
676.289	2105.82
676.48	1950.18
676.671	2185.69
676.861	1915.36
677.052	1933.79
677.243	2007.52
677.433	1991.14
677.624	2040.29
677.814	1958.37
678.005	2009.57
678.195	2011.62
678.386	2036.19
678.576	2001.38
678.767	1954.27
678.957	1993.19
679.148	2054.62
679.338	2011.62
679.529	1925.6
679.719	1958.37
679.909	1995.23
680.1	1982.95
680.29	1909.22
680.481	1837.54
680.671	1958.37
680.861	1839.59
681.052	1903.07
681.242	1735.14
681.432	1901.03
681.622	1864.16
681.813	1796.58
682.003	1890.79
682.193	1759.72
682.383	1835.49
682.573	1792.48
682.764	1780.2
682.954	1829.35
683.144	1808.87
683.334	1839.59
683.524	1851.88
683.714	1851.88
683.904	1833.44
684.094	1823.2
684.284	1759.72
684.474	1815.01
684.664	1790.44
684.854	1661.41
685.044	1747.43
685.234	1796.58
685.424	1759.72
685.614	1796.58
685.804	1804.77
685.994	1767.91
686.184	1698.28
686.374	1630.7
686.564	1786.34
686.753	1751.53
686.943	1651.17
687.133	1847.78
687.323	1806.82
687.513	1696.23
687.702	1765.86
687.892	1782.24
688.082	1753.57
688.272	1767.91
688.461	1700.33
688.651	1685.99
688.841	1681.89
689.03	1614.31
689.22	1616.36
689.41	1755.62
689.599	1720.81
689.789	1712.61
689.979	1606.12
690.168	1649.13
690.358	1645.03
690.547	1581.54
690.737	1632.74
690.926	1632.74
691.116	1602.02
691.305	1653.22
691.495	1575.4
691.684	1602.02
691.874	1548.78
692.063	1581.54
692.252	1659.37
692.442	1548.78
692.631	1610.22
692.82	1593.83
693.01	1569.26
693.199	1571.3
693.388	1550.82
693.578	1475.05
693.767	1589.74
693.956	1610.22
694.146	1473
694.335	1460.71
694.524	1507.82
694.713	1513.96
694.902	1516.01
695.092	1487.34
695.281	1427.95
695.47	1534.44
695.659	1518.06
695.848	1409.51
696.037	1524.2
696.226	1468.91
696.415	1483.24
696.604	1556.97
696.793	1509.86
696.982	1530.34
697.171	1583.59
697.36	1483.24
697.549	1466.86
697.738	1499.63
697.927	1479.15
698.116	1434.09
698.305	1507.82
698.494	1528.3
698.683	1464.81
698.872	1499.63
699.061	1563.11
699.25	1440.23
699.438	1522.15
699.627	1468.91
699.816	1493.48
700.005	1452.52
700.193	1528.3
700.382	1518.06
700.571	1589.74
700.76	1534.44
700.948	1518.06
701.137	1419.75
701.326	1550.82
701.514	1552.87
701.703	1544.68
701.892	1520.1
702.08	1565.16
702.269	1546.73
702.457	1346.03
702.646	1597.93
702.834	1573.35
703.023	1542.63
703.212	1550.82
703.4	1485.29
703.589	1516.01
703.777	1561.06
703.965	1509.86
704.154	1495.53
704.342	1454.57
704.531	1628.65
704.719	1458.67
704.907	1556.97
705.096	1499.63
705.284	1556.97
705.472	1606.12
705.661	1473
705.849	1552.87
706.037	1489.39
706.226	1507.82
706.414	1475.05
706.602	1516.01
706.79	1565.16
706.979	1475.05
707.167	1503.72
707.355	1481.19
707.543	1458.67
707.731	1616.36
707.919	1503.72
708.107	1532.39
708.296	1485.29
708.484	1491.43
708.672	1501.67
708.86	1524.2
709.048	1499.63
709.236	1526.25
709.424	1585.64
709.612	1468.91
709.8	1569.26
709.988	1434.09
710.176	1548.78
710.364	1524.2
710.551	1458.67
710.739	1622.5
710.927	1548.78
711.115	1565.16
711.303	1442.28
711.491	1520.1
711.679	1528.3
711.866	1577.45
712.054	1567.21
712.242	1501.67
712.43	1513.96
712.617	1589.74
712.805	1497.58
712.993	1540.58
713.181	1487.34
713.368	1634.79
713.556	1546.73
713.744	1548.78
713.931	1575.4
714.119	1602.02
714.306	1475.05
714.494	1616.36
714.682	1524.2
714.869	1642.98
715.057	1618.41
715.244	1540.58
715.432	1548.78
715.619	1518.06
715.807	1565.16
715.994	1559.02
716.182	1573.35
716.369	1573.35
716.556	1546.73
716.744	1442.28
716.931	1507.82
717.119	1526.25
717.306	1546.73
717.493	1516.01
717.681	1548.78
717.868	1540.58
718.055	1622.5
718.242	1638.89
718.43	1585.64
718.617	1493.48
718.804	1536.49
718.991	1530.34
719.179	1610.22
719.366	1638.89
719.553	1626.6
719.74	1614.31
719.927	1591.78
720.114	1489.39
720.301	1645.03
720.488	1610.22
720.676	1524.2
720.863	1632.74
721.05	1518.06
721.237	1604.07
721.424	1575.4
721.611	1554.92
721.798	1591.78
721.985	1606.12
722.172	1470.95
722.358	1534.44
722.545	1538.54
722.732	1587.69
722.919	1591.78
723.106	1602.02
723.293	1516.01
723.48	1628.65
723.667	1544.68
723.853	1563.11
724.04	1649.13
724.227	1642.98
724.414	1534.44
724.6	1581.54
724.787	1632.74
724.974	1528.3
725.161	1540.58
725.347	1526.25
725.534	1579.5
725.72	1505.77
725.907	1544.68
726.094	1608.17
726.28	1571.3
726.467	1501.67
726.653	1577.45
726.84	1575.4
727.027	1542.63
727.213	1569.26
727.4	1526.25
727.586	1599.98
727.773	1565.16
727.959	1659.37
728.145	1651.17
728.332	1501.67
728.518	1540.58
728.705	1642.98
728.891	1505.77
729.077	1612.26
729.264	1573.35
729.45	1509.86
729.636	1640.93
729.823	1536.49
730.009	1599.98
730.195	1544.68
730.382	1491.43
730.568	1550.82
730.754	1569.26
730.94	1544.68
731.126	1567.21
731.313	1491.43
731.499	1563.11
731.685	1483.24
731.871	1487.34
732.057	1524.2
732.243	1542.63
732.429	1567.21
732.615	1530.34
732.801	1651.17
732.987	1442.28
733.173	1524.2
733.359	1450.47
733.545	1522.15
733.731	1548.78
733.917	1542.63
734.103	1524.2
734.289	1573.35
734.475	1585.64
734.661	1573.35
734.847	1511.91
735.033	1534.44
735.219	1483.24
735.404	1667.56
735.59	1636.84
735.776	1483.24
735.962	1513.96
736.148	1622.5
736.333	1495.53
736.519	1450.47
736.705	1493.48
736.89	1540.58
737.076	1483.24
737.262	1409.51
737.447	1403.37
737.633	1559.02
737.819	1544.68
738.004	1479.15
738.19	1495.53
738.375	1378.79
738.561	1518.06
738.747	1536.49
738.932	1548.78
739.118	1470.95
739.303	1483.24
739.489	1470.95
739.674	1434.09
739.859	1501.67
740.045	1573.35
740.23	1475.05
740.416	1364.46
740.601	1477.1
740.786	1436.14
740.972	1470.95
741.157	1391.08
741.342	1341.93
741.528	1425.9
741.713	1405.42
741.898	1427.95
742.084	1391.08
742.269	1429.99
742.454	1458.67
742.639	1417.71
742.824	1360.36
743.01	1317.36
743.195	1442.28
743.38	1364.46
743.565	1386.99
743.75	1335.79
743.935	1360.36
744.12	1339.88
744.305	1343.98
744.49	1333.74
744.675	1350.12
744.86	1294.83
745.045	1329.64
745.23	1317.36
745.415	1272.3
745.6	1331.69
745.785	1335.79
745.97	1339.88
746.155	1257.96
746.34	1190.38
746.525	1290.73
746.71	1225.2
746.895	1245.68
747.079	1204.72
747.264	1188.33
747.449	1237.49
747.634	1311.21
747.819	1237.49
748.003	1214.96
748.188	1151.47
748.373	1196.53
748.557	1167.85
748.742	1192.43
748.927	1255.92
749.111	1159.66
749.296	1141.23
749.481	1149.42
749.665	1165.81
749.85	1012.21
750.034	1204.72
750.219	1065.46
750.404	1075.7
750.588	1108.46
750.773	1108.46
750.957	1122.8
751.141	1010.16
751.326	1098.22
751.51	1008.11
751.695	1102.32
751.879	1100.27
752.064	1128.94
752.248	1069.55
752.432	1106.42
752.617	1090.03
752.801	1057.26
752.985	1028.59
753.17	1004.02
753.354	1001.97
753.538	985.58
753.722	1010.16
753.907	969.2
754.091	913.91
754.275	1016.3
754.459	922.1
754.643	979.44
754.828	1040.88
755.012	963.06
755.196	879.09
755.38	952.82
755.564	901.62
755.748	909.81
755.932	950.77
756.116	936.43
756.3	874.99
756.484	969.2
756.668	930.29
756.852	907.76
757.036	866.8
757.22	872.95
757.404	825.84
757.588	889.33
757.772	807.41
757.956	831.99
758.14	877.04
758.323	797.17
758.507	854.51
758.691	848.37
758.875	836.08
759.059	825.84
759.242	829.94
759.426	731.64
759.61	758.26
759.794	850.42
759.977	733.68
760.161	899.57
760.345	862.71
760.528	778.74
760.712	723.44
760.895	770.55
761.079	766.45
761.263	709.11
761.446	721.4
761.63	801.27
761.813	731.64
761.997	811.51
762.18	731.64
762.364	827.89
762.547	772.6
762.731	750.07
762.914	754.16
763.098	668.15
763.281	770.55
763.464	676.34
763.648	743.92
763.831	748.02
764.015	672.25
764.198	729.59
764.381	752.12
764.564	705.01
764.748	745.97
764.931	705.01
765.114	641.53
765.297	739.83
765.481	674.29
765.664	682.49
765.847	770.55
766.03	705.01
766.213	612.85
766.397	754.16
766.58	627.19
766.763	717.3
766.946	676.34
767.129	666.1
767.312	713.21
767.495	668.15
767.678	637.43
767.861	659.96
768.044	645.62
768.227	707.06
768.41	674.29
768.593	707.06
768.776	643.57
768.959	590.33
769.142	598.52
769.324	580.09
769.507	563.7
769.69	631.29
769.873	645.62
770.056	610.81
770.239	553.46
770.421	664.05
770.604	602.61
770.787	582.14
770.97	606.71
771.152	600.57
771.335	670.2
771.518	557.56
771.7	575.99
771.883	582.14
772.066	567.8
772.248	672.25
772.431	598.52
772.613	590.33
772.796	571.9
772.978	633.33
773.161	590.33
773.343	537.08
773.526	555.51
773.708	543.22
773.891	496.12
774.073	584.18
774.256	481.78
774.438	573.94
774.621	578.04
774.803	551.42
774.985	606.71
775.168	559.61
775.35	549.37
775.532	469.5
775.715	485.88
775.897	498.17
776.079	532.98
776.261	516.6
776.444	465.4
776.626	467.45
776.808	494.07
776.99	539.13
777.173	442.87
777.355	430.59
777.537	494.07
777.719	469.5
777.901	498.17
778.083	520.7
778.265	510.46
778.447	344.57
778.629	438.78
778.811	430.59
778.993	557.56
779.175	508.41
779.357	473.59
779.539	408.06
779.721	477.69
779.903	444.92
780.085	399.87
780.267	442.87
780.449	469.5
780.631	424.44
780.812	504.31
780.994	322.04
781.176	381.43
781.358	416.25
781.54	418.3
781.721	403.96
781.903	387.58
782.085	391.67
782.267	340.47
782.448	422.39
782.63	313.85
782.812	401.91
782.993	418.3
783.175	346.62
783.357	375.29
783.538	397.82
783.72	385.53
783.901	393.72
784.083	375.29
784.264	385.53
784.446	444.92
784.627	307.71
784.809	371.19
784.99	426.49
785.172	328.19
785.353	393.72
785.535	303.61
785.716	356.86
785.897	238.08
786.079	340.47
786.26	281.08
786.441	317.95
786.623	258.56
786.804	360.95
786.985	260.6
787.167	297.47
787.348	332.28
787.529	297.47
787.71	356.86
787.891	315.9
788.073	242.17
788.254	301.56
788.435	336.38
788.616	233.98
788.797	250.36
788.978	289.28
789.159	311.8
789.34	250.36
789.522	258.56
789.703	248.32
789.884	313.85
790.065	260.6
790.246	315.9
790.427	350.71
790.607	246.27
790.788	328.19
790.969	186.88
791.15	315.9
791.331	246.27
791.512	252.41
791.693	246.27
791.874	287.23
792.054	399.87
792.235	283.13
792.416	236.03
792.597	199.16
792.778	221.69
792.958	258.56
793.139	221.69
793.32	240.12
793.5	166.4
793.681	203.26
793.862	225.79
794.042	199.16
794.223	248.32
794.404	215.55
794.584	176.64
794.765	303.61
794.945	233.98
795.126	311.8
795.306	252.41
795.487	238.08
795.667	193.02
795.848	219.64
796.028	170.49
796.209	225.79
796.389	145.92
796.57	233.98
796.75	246.27
796.93	260.6
797.111	172.54
797.291	240.12
797.471	299.52
797.652	156.16
797.832	197.12
798.012	158.21
798.192	145.92
798.373	229.88
798.553	174.59
798.733	154.11
798.913	207.36
799.093	213.5
799.274	227.84
799.454	238.08
799.634	145.92
799.814	201.21
799.994	190.97
800.174	141.82
800.354	160.25
800.534	168.45
800.714	203.26
800.894	119.29
801.074	178.69
801.254	182.78
801.434	215.55
801.614	135.68
801.794	150.01
801.974	692.73
802.154	109.05
802.334	213.5
802.514	164.35
802.693	154.11
802.873	213.5
803.053	133.63
803.233	188.93
803.413	217.6
803.592	176.64
803.772	166.4
803.952	143.87
804.131	145.92
804.311	160.25
804.491	209.4
804.67	72.19
804.85	125.44
805.03	168.45
805.209	174.59
805.389	207.36
805.568	164.35
805.748	92.67
805.928	162.3
806.107	123.39
806.287	92.67
806.466	160.25
806.646	150.01
806.825	127.49
807.004	100.86
807.184	117.25
807.363	150.01
807.543	123.39
807.722	119.29
807.901	137.73
808.081	207.36
808.26	117.25
808.439	123.39
808.619	131.58
808.798	123.39
808.977	143.87
809.156	207.36
809.336	158.21
809.515	217.6
809.694	107.01
809.873	178.69
810.052	115.2
810.231	154.11
810.411	141.82
810.59	49.66
810.769	104.96
810.948	121.34
811.127	98.81
811.306	154.11
811.485	88.57
811.664	141.82
811.843	166.4
812.022	172.54
812.201	117.25
812.38	80.38
812.559	80.38
812.737	86.53
812.916	115.2
813.095	143.87
813.274	119.29
813.453	92.67
813.632	111.1
813.811	41.47
813.989	94.72
814.168	125.44
814.347	59.9
814.526	109.05
814.704	147.97
814.883	174.59
815.062	94.72
815.24	111.1
815.419	147.97
815.598	41.47
815.776	92.67
815.955	47.62
816.133	37.38
816.312	88.57
816.49	119.29
816.669	141.82
816.847	66.05
817.026	98.81
817.204	100.86
817.383	127.49
817.561	80.38
817.74	68.09
817.918	115.2
818.097	117.25
818.275	113.15
818.453	115.2
818.632	82.43
818.81	98.81
818.988	90.62
819.167	90.62
819.345	94.72
819.523	115.2
819.701	168.45
819.879	90.62
820.058	31.23
820.236	70.14
820.414	53.76
820.592	231.93
820.77	127.49
820.948	41.47
821.127	57.86
821.305	133.63
821.483	35.33
821.661	123.39
821.839	57.86
822.017	119.29
822.195	84.48
822.373	72.19
822.551	41.47
822.729	90.62
822.907	33.28
823.085	131.58
823.262	121.34
823.44	78.33
823.618	166.4
823.796	74.24
823.974	82.43
824.152	88.57
824.329	133.63
824.507	135.68
824.685	59.9
824.863	98.81
825.04	96.77
825.218	121.34
825.396	39.42
825.574	61.95
825.751	16.9
825.929	51.71
826.107	29.18
826.284	74.24
826.462	102.91
826.639	74.24
826.817	82.43
826.994	123.39
827.172	29.18
827.349	143.87
827.527	113.15
827.704	33.28
827.882	55.81
828.059	107.01
828.237	20.99
828.414	100.86
828.591	10.75
828.769	53.76
828.946	74.24
829.124	104.96
829.301	66.05
829.478	107.01
829.655	115.2
829.833	68.09
830.01	35.33
830.187	64
830.364	94.72
830.542	4.61
830.719	98.81
830.896	53.76
831.073	53.76
831.25	102.91
831.427	61.95
831.604	94.72
831.782	49.66
831.959	88.57
832.136	82.43
832.313	86.53
832.49	68.09
832.667	31.23
832.844	51.71
833.021	59.9
833.198	100.86
833.374	109.05
833.551	57.86
833.728	74.24
833.905	121.34
834.082	41.47
834.259	2.56
834.436	18.94
834.612	31.23
834.789	16.9
834.966	35.33
835.143	66.05
835.319	14.85
835.496	12.8
835.673	74.24
835.85	139.77
836.026	147.97
836.203	86.53
836.38	41.47
836.556	41.47
836.733	72.19
836.909	74.24
837.086	12.8
837.262	31.23
837.439	43.52
837.616	47.62
837.792	-48.64
837.968	23.04
838.145	8.7
838.321	119.29
838.498	41.47
838.674	66.05
838.851	51.71
839.027	86.53
839.203	18.94
839.38	90.62
839.556	27.14
839.732	25.09
839.909	-30.21
840.085	90.62
840.261	-5.63
840.437	66.05
840.614	76.29
840.79	33.28
840.966	45.57
841.142	45.57
841.318	104.96
841.494	41.47
841.671	14.85
841.847	12.8
842.023	23.04
842.199	51.71
842.375	55.81
842.551	10.75
842.727	70.14
842.903	96.77
843.079	25.09
843.255	51.71
843.431	84.48
843.607	-9.73
843.783	-13.82
843.959	27.14
844.134	49.66
844.31	68.09
844.486	18.94
844.662	49.66
844.838	39.42
845.013	111.1
845.189	33.28
845.365	23.04
845.541	-28.16
845.716	16.9
845.892	35.33
846.068	-7.68
846.244	4.61
846.419	45.57
846.595	-7.68
846.77	20.99
846.946	68.09
847.122	82.43
847.297	-22.02
847.473	25.09
847.648	0.51
847.824	76.29
847.999	27.14
848.175	59.9
848.35	55.81
848.526	-5.63
848.701	20.99
848.876	100.86
849.052	-62.98
849.227	70.14
849.403	29.18
849.578	18.94
849.753	107.01
849.929	23.04
850.104	20.99
850.279	16.9
850.454	-40.45
850.63	41.47
850.805	20.99
850.98	-15.87
851.155	8.7
851.33	6.66
851.505	0.51
851.681	84.48
851.856	-9.73
852.031	53.76
852.206	57.86
852.381	61.95
852.556	-40.45
852.731	76.29
852.906	43.52
853.081	98.81
853.256	96.77
853.431	74.24
853.606	4.61
853.781	33.28
853.956	-15.87
854.131	53.76
854.305	0.51
854.48	29.18
854.655	8.7
854.83	0.51
855.005	-5.63
855.18	39.42
855.354	57.86
855.529	74.24
855.704	23.04
855.879	45.57
856.053	-30.21
856.228	4.61
856.403	-54.78
856.577	70.14
856.752	-28.16
856.926	-13.82
857.101	59.9
857.276	16.9
857.45	2.56
857.625	43.52
857.799	59.9
857.974	37.38
858.148	-28.16
858.323	18.94
858.497	35.33
858.672	109.05
858.846	45.57
859.02	133.63
859.195	74.24
859.369	37.38
859.543	64
859.718	41.47
859.892	23.04
860.066	49.66
860.241	4.61
860.415	16.9
860.589	8.7
860.763	98.81
860.938	33.28
861.112	64
861.286	-11.78
861.46	-19.97
861.634	39.42
861.808	66.05
861.982	53.76
862.157	33.28
862.331	-30.21
862.505	-5.63
862.679	-22.02
862.853	18.94
863.027	-15.87
863.201	37.38
863.375	10.75
863.549	23.04
863.722	29.18
863.896	27.14
864.07	-1.54
864.244	53.76
864.418	-5.63
864.592	84.48
864.766	-28.16
864.939	10.75
865.113	-40.45
865.287	139.77
865.461	-67.07
865.634	51.71
865.808	53.76
865.982	16.9
866.156	-13.82
866.329	16.9
866.503	82.43
866.676	10.75
866.85	-24.06
867.024	-9.73
867.197	-28.16
867.371	6.66
867.544	-1.54
867.718	-7.68
867.891	74.24
868.065	4.61
868.238	49.66
868.412	37.38
868.585	172.54
868.759	33.28
868.932	31.23
869.105	8.7
869.279	-36.35
869.452	59.9
869.625	-26.11
869.799	37.38
869.972	8.7
870.145	35.33
870.319	-17.92
870.492	4.61
870.665	12.8
870.838	2.56
871.011	-7.68
871.185	59.9
871.358	27.14
871.531	33.28
871.704	27.14
871.877	98.81
872.05	-36.35
872.223	74.24
872.396	16.9
872.569	-26.11
872.742	4.61
872.915	41.47
873.088	70.14
873.261	12.8
873.434	8.7
873.607	57.86
873.78	2.56
873.953	20.99
874.126	43.52
874.299	0.51
874.471	-48.64
874.644	-3.58
874.817	2.56
874.99	59.9
875.163	10.75
875.335	-24.06
875.508	41.47
875.681	33.28
875.853	-32.26
876.026	66.05
876.199	64
876.371	16.9
876.544	-38.4
876.717	86.53
876.889	25.09
877.062	-15.87
877.234	16.9
877.407	-13.82
877.579	51.71
877.752	51.71
877.924	39.42
878.097	4.61
878.269	43.52
878.442	66.05
878.614	45.57
878.786	72.19
878.959	43.52
879.131	35.33
879.303	-26.11
879.476	-9.73
879.648	61.95
879.82	51.71
879.993	-26.11
880.165	74.24
880.337	4.61
880.509	41.47
880.681	-71.17
880.854	-42.5
881.026	14.85
881.198	121.34
881.37	-11.78
881.542	-5.63
881.714	-7.68
881.886	45.57
882.058	8.7
882.23	68.09
882.402	-77.31
882.574	-5.63
882.746	10.75
882.918	115.2
883.09	-1.54
883.262	8.7
883.434	12.8
883.606	18.94
883.778	-19.97
883.95	164.35
884.122	-60.93
884.293	25.09
884.465	51.71
884.637	51.71
884.809	64
884.98	0.51
885.152	-13.82
885.324	66.05
885.496	0.51
885.667	74.24
885.839	6.66
886.011	61.95
886.182	31.23
886.354	-1.54
886.525	41.47
886.697	37.38
886.869	14.85
887.04	-44.54
887.212	45.57
887.383	25.09
887.555	68.09
887.726	6.66
887.897	41.47
888.069	39.42
888.24	104.96
888.412	-7.68
888.583	55.81
888.754	41.47
888.926	-44.54
889.097	-28.16
889.268	14.85
889.44	8.7
889.611	-56.83
889.782	18.94
889.953	-32.26
890.125	16.9
890.296	-24.06
890.467	-22.02
890.638	37.38
890.809	-40.45
890.98	2.56
891.151	111.1
891.323	35.33
891.494	20.99
891.665	49.66
891.836	74.24
892.007	16.9
892.178	-13.82
892.349	-38.4
892.52	-22.02
892.691	-60.93
892.862	-1.54
893.032	-28.16
893.203	49.66
893.374	43.52
893.545	41.47
893.716	-15.87
893.887	16.9
894.057	-24.06
894.228	74.24
894.399	-36.35
894.57	-67.07
894.74	-38.4
894.911	64
895.082	-48.64
895.253	14.85
895.423	-52.74
895.594	31.23
895.764	-69.12
895.935	14.85
896.106	-13.82
896.276	-34.3
896.447	-38.4
896.617	35.33
896.788	-3.58
896.958	53.76
897.129	2.56
897.299	2.56
897.47	111.1
897.64	53.76
897.81	29.18
897.981	111.1
898.151	-89.6
898.322	37.38
898.492	6.66
898.662	-30.21
898.832	4.61
899.003	-11.78
899.173	-19.97
899.343	31.23
899.513	-77.31
