Data from USB4F104151__98__13-14-06-502.txt Node

Date: Fri Mar 14 13:14:06 EDT 2025
User: louis
Spectrometer: USB4F10415
Trigger mode: 4
Integration Time (sec): 2.000000E-2
Scans to average: 1
Electric dark correction enabled: true
Nonlinearity correction enabled: false
Boxcar width: 0
XAxis mode: Wavelengths
Number of Pixels in Spectrum: 3648
>>>>>Begin Spectral Data<<<<<
178.204	-71.34
178.424	-71.34
178.644	-71.34
178.864	-110.25
179.084	-67.24
179.304	-7.85
179.524	10.58
179.744	33.11
179.964	-50.86
180.184	72.02
180.404	26.96
180.624	-26.28
180.844	-85.67
181.064	-30.38
181.283	31.06
181.503	29.01
181.723	-1.71
181.943	-63.15
182.163	6.49
182.383	2.39
182.602	-5.8
182.822	39.25
183.042	-20.14
183.262	-36.52
183.482	51.54
183.701	26.96
183.921	-26.28
184.141	-26.28
184.361	78.16
184.58	51.54
184.8	-22.19
185.02	26.96
185.239	22.87
185.459	67.92
185.679	72.02
185.898	10.58
186.118	31.06
186.338	-22.19
186.557	2.39
186.777	-1.71
186.997	18.77
187.216	14.68
187.436	-1.71
187.655	14.68
187.875	86.36
188.095	29.01
188.314	18.77
188.534	10.58
188.753	-22.19
188.973	55.64
189.192	76.12
189.412	84.31
189.631	-28.33
189.851	59.73
190.07	78.16
190.29	41.3
190.509	2.39
190.729	-87.72
190.948	63.83
191.168	61.78
191.387	-26.28
191.607	-16.04
191.826	-7.85
192.045	-22.19
192.265	43.35
192.484	61.78
192.704	51.54
192.923	29.01
193.142	76.12
193.362	-5.8
193.581	43.35
193.8	-5.8
194.02	153.94
194.239	0.34
194.458	6.49
194.678	45.4
194.897	18.77
195.116	12.63
195.335	22.87
195.555	59.73
195.774	41.3
195.993	49.49
196.212	-1.71
196.432	18.77
196.651	-5.8
196.87	-69.29
197.089	45.4
197.308	4.44
197.528	65.88
197.747	26.96
197.966	-9.9
198.185	14.68
198.404	51.54
198.623	39.25
198.842	18.77
199.062	37.2
199.281	-34.47
199.5	-16.04
199.719	2.39
199.938	59.73
200.157	33.11
200.376	51.54
200.595	22.87
200.814	45.4
201.033	-5.8
201.252	18.77
201.471	2.39
201.69	72.02
201.909	-30.38
202.128	2.39
202.347	-26.28
202.566	63.83
202.785	29.01
203.004	51.54
203.223	2.39
203.442	31.06
203.661	59.73
203.879	45.4
204.098	26.96
204.317	41.3
204.536	22.87
204.755	29.01
204.974	26.96
205.193	-38.57
205.411	53.59
205.63	8.53
205.849	-36.52
206.068	37.2
206.287	53.59
206.505	26.96
206.724	45.4
206.943	49.49
207.162	-18.09
207.381	-30.38
207.599	43.35
207.818	2.39
208.037	22.87
208.255	31.06
208.474	29.01
208.693	41.3
208.911	-11.95
209.13	-59.05
209.349	-3.75
209.567	-18.09
209.786	67.92
210.005	-75.43
210.223	8.53
210.442	-26.28
210.661	16.73
210.879	80.21
211.098	-3.75
211.316	-1.71
211.535	18.77
211.753	59.73
211.972	31.06
212.191	37.2
212.409	-7.85
212.628	-38.57
212.846	-18.09
213.065	39.25
213.283	-3.75
213.502	-1.71
213.72	-20.14
213.938	20.82
214.157	4.44
214.375	45.4
214.594	2.39
214.812	67.92
215.031	8.53
215.249	-1.71
215.467	-38.57
215.686	24.92
215.904	41.3
216.122	10.58
216.341	18.77
216.559	57.68
216.778	12.63
216.996	-22.19
217.214	33.11
217.432	24.92
217.651	39.25
217.869	-3.75
218.087	29.01
218.306	45.4
218.524	8.53
218.742	-34.47
218.96	20.82
219.179	-13.99
219.397	53.59
219.615	-11.95
219.833	8.53
220.051	-16.04
220.27	55.64
220.488	51.54
220.706	-13.99
220.924	-50.86
221.142	14.68
221.36	2.39
221.578	18.77
221.796	22.87
222.015	-36.52
222.233	-46.76
222.451	45.4
222.669	-7.85
222.887	45.4
223.105	-36.52
223.323	-38.57
223.541	-61.1
223.759	55.64
223.977	35.16
224.195	43.35
224.413	-13.99
224.631	49.49
224.849	-20.14
225.067	33.11
225.285	-34.47
225.503	82.26
225.721	-16.04
225.939	2.39
226.157	88.4
226.375	47.44
226.592	22.87
226.81	67.92
227.028	57.68
227.246	4.44
227.464	14.68
227.682	20.82
227.9	84.31
228.117	-89.77
228.335	-44.71
228.553	-30.38
228.771	35.16
228.989	61.78
229.206	10.58
229.424	39.25
229.642	31.06
229.86	67.92
230.077	12.63
230.295	-28.33
230.513	37.2
230.731	80.21
230.948	76.12
231.166	59.73
231.384	12.63
231.601	-63.15
231.819	35.16
232.037	16.73
232.254	8.53
232.472	-73.39
232.689	-20.14
232.907	59.73
233.125	16.73
233.342	-52.91
233.56	86.36
233.777	18.77
233.995	-11.95
234.213	-3.75
234.43	69.97
234.648	-83.63
234.865	-40.62
235.083	0.34
235.3	20.82
235.518	-16.04
235.735	69.97
235.953	53.59
236.17	6.49
236.388	4.44
236.605	65.88
236.822	65.88
237.04	80.21
237.257	94.55
237.475	47.44
237.692	-42.67
237.909	-16.04
238.127	59.73
238.344	55.64
238.562	72.02
238.779	-87.72
238.996	2.39
239.214	35.16
239.431	-1.71
239.648	-48.81
239.865	-38.57
240.083	47.44
240.3	59.73
240.517	94.55
240.735	29.01
240.952	-26.28
241.169	49.49
241.386	88.4
241.603	18.77
241.821	24.92
242.038	37.2
242.255	-50.86
242.472	-5.8
242.689	10.58
242.907	55.64
243.124	-18.09
243.341	43.35
243.558	35.16
243.775	-13.99
243.992	-91.82
244.209	92.5
244.426	61.78
244.643	20.82
244.86	0.34
245.078	26.96
245.295	22.87
245.512	-26.28
245.729	-22.19
245.946	67.92
246.163	-42.67
246.38	-5.8
246.597	-3.75
246.814	39.25
247.031	-5.8
247.248	-11.95
247.464	0.34
247.681	39.25
247.898	59.73
248.115	-46.76
248.332	-3.75
248.549	61.78
248.766	-3.75
248.983	18.77
249.2	82.26
249.417	31.06
249.633	-50.86
249.85	0.34
250.067	-5.8
250.284	-9.9
250.501	18.77
250.717	-22.19
250.934	26.96
251.151	47.44
251.368	41.3
251.585	16.73
251.801	37.2
252.018	-46.76
252.235	43.35
252.451	76.12
252.668	-46.76
252.885	-1.71
253.102	14.68
253.318	10.58
253.535	31.06
253.752	-9.9
253.968	59.73
254.185	-30.38
254.401	-7.85
254.618	-13.99
254.835	-30.38
255.051	33.11
255.268	24.92
255.484	61.78
255.701	4.44
255.917	0.34
256.134	-24.23
256.351	-28.33
256.567	-34.47
256.784	47.44
257	4.44
257.217	22.87
257.433	59.73
257.65	86.36
257.866	74.07
258.082	-20.14
258.299	4.44
258.515	10.58
258.732	10.58
258.948	-13.99
259.165	-24.23
259.381	-13.99
259.597	72.02
259.814	-18.09
260.03	-22.19
260.246	76.12
260.463	8.53
260.679	12.63
260.895	-9.9
261.112	80.21
261.328	4.44
261.544	29.01
261.761	18.77
261.977	51.54
262.193	-46.76
262.409	72.02
262.626	10.58
262.842	61.78
263.058	-1.71
263.274	10.58
263.49	14.68
263.707	-11.95
263.923	14.68
264.139	20.82
264.355	-57
264.571	18.77
264.787	20.82
265.004	-26.28
265.22	63.83
265.436	2.39
265.652	-38.57
265.868	4.44
266.084	-59.05
266.3	4.44
266.516	-48.81
266.732	22.87
266.948	-30.38
267.164	22.87
267.38	88.4
267.596	69.97
267.812	-52.91
268.028	6.49
268.244	26.96
268.46	100.69
268.676	-5.8
268.892	22.87
269.108	14.68
269.324	2.39
269.54	-3.75
269.756	43.35
269.972	-22.19
270.188	-18.09
270.403	8.53
270.619	20.82
270.835	63.83
271.051	-28.33
271.267	24.92
271.483	29.01
271.698	35.16
271.914	63.83
272.13	100.69
272.346	57.68
272.562	57.68
272.777	108.88
272.993	-9.9
273.209	78.16
273.425	-22.19
273.64	22.87
273.856	-3.75
274.072	37.2
274.287	-40.62
274.503	24.92
274.719	43.35
274.934	-20.14
275.15	-11.95
275.366	4.44
275.581	45.4
275.797	-5.8
276.012	-30.38
276.228	-22.19
276.444	43.35
276.659	8.53
276.875	12.63
277.09	-30.38
277.306	57.68
277.521	10.58
277.737	29.01
277.952	-20.14
278.168	4.44
278.383	33.11
278.599	-44.71
278.814	0.34
279.03	8.53
279.245	0.34
279.461	-16.04
279.676	-36.52
279.892	-22.19
280.107	-34.47
280.322	-34.47
280.538	14.68
280.753	10.58
280.969	84.31
281.184	-5.8
281.399	49.49
281.615	-63.15
281.83	29.01
282.045	37.2
282.26	6.49
282.476	-16.04
282.691	26.96
282.906	-3.75
283.122	-13.99
283.337	29.01
283.552	55.64
283.767	72.02
283.983	55.64
284.198	-26.28
284.413	24.92
284.628	-3.75
284.843	47.44
285.058	47.44
285.274	24.92
285.489	37.2
285.704	-13.99
285.919	-40.62
286.134	47.44
286.349	18.77
286.564	10.58
286.779	8.53
286.995	45.4
287.21	-9.9
287.425	20.82
287.64	61.78
287.855	8.53
288.07	-46.76
288.285	-5.8
288.5	39.25
288.715	33.11
288.93	26.96
289.145	-36.52
289.36	31.06
289.575	10.58
289.79	-16.04
290.004	29.01
290.219	-5.8
290.434	69.97
290.649	-52.91
290.864	26.96
291.079	65.88
291.294	41.3
291.509	94.55
291.724	31.06
291.938	51.54
292.153	4.44
292.368	-63.15
292.583	18.77
292.798	29.01
293.012	-44.71
293.227	-22.19
293.442	20.82
293.657	-20.14
293.871	67.92
294.086	76.12
294.301	2.39
294.516	12.63
294.73	69.97
294.945	67.92
295.16	4.44
295.374	59.73
295.589	-24.23
295.804	-54.95
296.018	-22.19
296.233	61.78
296.447	76.12
296.662	-11.95
296.877	-42.67
297.091	-13.99
297.306	-7.85
297.52	35.16
297.735	47.44
297.949	43.35
298.164	-38.57
298.378	4.44
298.593	4.44
298.807	-30.38
299.022	72.02
299.236	26.96
299.451	49.49
299.665	16.73
299.88	-11.95
300.094	51.54
300.309	24.92
300.523	20.82
300.737	26.96
300.952	29.01
301.166	59.73
301.381	-28.33
301.595	-26.28
301.809	35.16
302.024	-1.71
302.238	-22.19
302.452	-3.75
302.667	10.58
302.881	18.77
303.095	12.63
303.309	110.93
303.524	26.96
303.738	-9.9
303.952	-46.76
304.166	10.58
304.381	-13.99
304.595	43.35
304.809	12.63
305.023	53.59
305.237	-38.57
305.452	96.6
305.666	26.96
305.88	2.39
306.094	2.39
306.308	43.35
306.522	61.78
306.736	78.16
306.95	43.35
307.164	57.68
307.379	-22.19
307.593	-22.19
307.807	53.59
308.021	29.01
308.235	0.34
308.449	-28.33
308.663	-54.95
308.877	59.73
309.091	-1.71
309.305	26.96
309.519	-13.99
309.733	49.49
309.947	10.58
310.161	-5.8
310.374	31.06
310.588	16.73
310.802	-34.47
311.016	-59.05
311.23	51.54
311.444	74.07
311.658	12.63
311.872	-9.9
312.085	51.54
312.299	-11.95
312.513	59.73
312.727	41.3
312.941	6.49
313.154	59.73
313.368	92.5
313.582	123.22
313.796	-18.09
314.009	18.77
314.223	96.6
314.437	20.82
314.651	76.12
314.864	-54.95
315.078	-9.9
315.292	0.34
315.505	20.82
315.719	51.54
315.933	35.16
316.146	67.92
316.36	-11.95
316.573	94.55
316.787	45.4
317.001	2.39
317.214	-18.09
317.428	76.12
317.641	33.11
317.855	22.87
318.068	26.96
318.282	47.44
318.495	26.96
318.709	51.54
318.922	10.58
319.136	-46.76
319.349	-13.99
319.563	-11.95
319.776	6.49
319.99	14.68
320.203	-13.99
320.417	2.39
320.63	51.54
320.843	-91.82
321.057	-3.75
321.27	10.58
321.483	84.31
321.697	88.4
321.91	-5.8
322.124	10.58
322.337	-36.52
322.55	-3.75
322.763	12.63
322.977	35.16
323.19	22.87
323.403	86.36
323.617	119.12
323.83	2.39
324.043	43.35
324.256	2.39
324.469	8.53
324.683	69.97
324.896	78.16
325.109	35.16
325.322	-20.14
325.535	12.63
325.748	26.96
325.962	82.26
326.175	-22.19
326.388	39.25
326.601	45.4
326.814	12.63
327.027	57.68
327.24	26.96
327.453	-13.99
327.666	2.39
327.879	35.16
328.092	16.73
328.305	-50.86
328.518	-26.28
328.731	-59.05
328.944	-20.14
329.157	76.12
329.37	-22.19
329.583	67.92
329.796	59.73
330.009	18.77
330.222	55.64
330.435	143.7
330.648	-32.43
330.861	12.63
331.073	-3.75
331.286	108.88
331.499	14.68
331.712	-16.04
331.925	51.54
332.138	92.5
332.35	86.36
332.563	16.73
332.776	100.69
332.989	-13.99
333.202	14.68
333.414	-30.38
333.627	-46.76
333.84	20.82
334.053	18.77
334.265	37.2
334.478	59.73
334.691	-11.95
334.903	61.78
335.116	14.68
335.329	49.49
335.541	4.44
335.754	-3.75
335.966	-9.9
336.179	-11.95
336.392	12.63
336.604	20.82
336.817	-26.28
337.029	0.34
337.242	61.78
337.454	10.58
337.667	-9.9
337.88	57.68
338.092	-54.95
338.305	92.5
338.517	2.39
338.729	37.2
338.942	67.92
339.154	69.97
339.367	20.82
339.579	-13.99
339.792	2.39
340.004	65.88
340.217	45.4
340.429	43.35
340.641	-44.71
340.854	22.87
341.066	-26.28
341.278	39.25
341.491	6.49
341.703	-11.95
341.915	6.49
342.128	18.77
342.34	39.25
342.552	14.68
342.764	-5.8
342.977	-9.9
343.189	-20.14
343.401	-44.71
343.613	-44.71
343.826	88.4
344.038	-26.28
344.25	26.96
344.462	26.96
344.674	4.44
344.886	12.63
345.099	63.83
345.311	29.01
345.523	78.16
345.735	-9.9
345.947	-3.75
346.159	-13.99
346.371	-5.8
346.583	14.68
346.795	29.01
347.007	33.11
347.219	49.49
347.431	20.82
347.643	84.31
347.855	29.01
348.067	22.87
348.279	-26.28
348.491	37.2
348.703	72.02
348.915	-57
349.127	-3.75
349.339	-67.24
349.551	92.5
349.763	24.92
349.975	-36.52
350.187	76.12
350.399	96.6
350.61	29.01
350.822	-24.23
351.034	18.77
351.246	12.63
351.458	59.73
351.669	31.06
351.881	72.02
352.093	125.27
352.305	47.44
352.517	86.36
352.728	78.16
352.94	6.49
353.152	14.68
353.363	-22.19
353.575	47.44
353.787	-24.23
353.999	35.16
354.21	-3.75
354.422	10.58
354.633	41.3
354.845	2.39
355.057	47.44
355.268	18.77
355.48	123.22
355.692	4.44
355.903	6.49
356.115	20.82
356.326	-77.48
356.538	6.49
356.749	78.16
356.961	88.4
357.172	-3.75
357.384	55.64
357.595	86.36
357.807	4.44
358.018	59.73
358.23	-26.28
358.441	90.45
358.653	51.54
358.864	49.49
359.075	10.58
359.287	-32.43
359.498	33.11
359.709	16.73
359.921	98.64
360.132	55.64
360.344	43.35
360.555	16.73
360.766	65.88
360.977	-22.19
361.189	47.44
361.4	-1.71
361.611	51.54
361.823	-7.85
362.034	-28.33
362.245	-1.71
362.456	-57
362.667	51.54
362.879	37.2
363.09	16.73
363.301	45.4
363.512	-18.09
363.723	4.44
363.935	31.06
364.146	4.44
364.357	35.16
364.568	67.92
364.779	-57
364.99	10.58
365.201	18.77
365.412	65.88
365.623	-34.47
365.834	-1.71
366.045	16.73
366.256	88.4
366.467	4.44
366.678	-24.23
366.889	47.44
367.1	45.4
367.311	29.01
367.522	-13.99
367.733	10.58
367.944	61.78
368.155	4.44
368.366	35.16
368.577	88.4
368.788	-11.95
368.999	29.01
369.209	108.88
369.42	59.73
369.631	76.12
369.842	26.96
370.053	-13.99
370.264	74.07
370.474	47.44
370.685	29.01
370.896	-36.52
371.107	-22.19
371.317	-42.67
371.528	22.87
371.739	12.63
371.95	2.39
372.16	78.16
372.371	8.53
372.582	39.25
372.792	26.96
373.003	-5.8
373.214	-30.38
373.424	-22.19
373.635	-77.48
373.846	4.44
374.056	45.4
374.267	-20.14
374.477	2.39
374.688	-3.75
374.898	2.39
375.109	80.21
375.319	29.01
375.53	49.49
375.74	84.31
375.951	33.11
376.161	57.68
376.372	104.79
376.582	16.73
376.793	24.92
377.003	59.73
377.214	-5.8
377.424	59.73
377.635	10.58
377.845	51.54
378.055	16.73
378.266	39.25
378.476	2.39
378.686	47.44
378.897	-46.76
379.107	41.3
379.317	86.36
379.528	26.96
379.738	-18.09
379.948	45.4
380.158	104.79
380.369	0.34
380.579	59.73
380.789	-18.09
380.999	43.35
381.21	72.02
381.42	43.35
381.63	18.77
381.84	45.4
382.05	-20.14
382.261	29.01
382.471	-24.23
382.681	20.82
382.891	37.2
383.101	6.49
383.311	43.35
383.521	55.64
383.731	-3.75
383.941	14.68
384.151	39.25
384.361	31.06
384.571	-5.8
384.781	45.4
384.991	-38.57
385.201	12.63
385.411	35.16
385.621	49.49
385.831	12.63
386.041	57.68
386.251	-30.38
386.461	33.11
386.671	65.88
386.881	14.68
387.091	-59.05
387.301	51.54
387.511	133.46
387.72	74.07
387.93	-11.95
388.14	20.82
388.35	12.63
388.56	74.07
388.769	35.16
388.979	20.82
389.189	63.83
389.399	65.88
389.609	14.68
389.818	65.88
390.028	63.83
390.238	37.2
390.447	26.96
390.657	33.11
390.867	10.58
391.076	-52.91
391.286	-18.09
391.496	51.54
391.705	47.44
391.915	35.16
392.125	69.97
392.334	72.02
392.544	43.35
392.753	-22.19
392.963	41.3
393.172	-7.85
393.382	-13.99
393.591	86.36
393.801	53.59
394.01	49.49
394.22	35.16
394.429	102.74
394.639	20.82
394.848	53.59
395.058	51.54
395.267	24.92
395.477	127.32
395.686	45.4
395.895	0.34
396.105	137.56
396.314	72.02
396.524	59.73
396.733	55.64
396.942	18.77
397.152	47.44
397.361	39.25
397.57	-7.85
397.78	92.5
397.989	102.74
398.198	117.08
398.407	31.06
398.617	127.32
398.826	-5.8
399.035	67.92
399.244	37.2
399.453	69.97
399.663	94.55
399.872	84.31
400.081	96.6
400.29	94.55
400.499	-24.23
400.708	92.5
400.917	-5.8
401.127	108.88
401.336	86.36
401.545	78.16
401.754	98.64
401.963	29.01
402.172	-5.8
402.381	24.92
402.59	133.46
402.799	4.44
403.008	94.55
403.217	2.39
403.426	127.32
403.635	104.79
403.844	104.79
404.053	125.27
404.262	35.16
404.471	108.88
404.68	43.35
404.888	69.97
405.097	84.31
405.306	39.25
405.515	72.02
405.724	86.36
405.933	112.98
406.142	51.54
406.35	104.79
406.559	78.16
406.768	53.59
406.977	155.99
407.185	145.75
407.394	176.47
407.603	180.56
407.812	80.21
408.02	96.6
408.229	174.42
408.438	49.49
408.646	110.93
408.855	209.23
409.064	102.74
409.272	145.75
409.481	137.56
409.69	149.84
409.898	59.73
410.107	135.51
410.315	217.43
410.524	82.26
410.733	227.67
410.941	196.95
411.15	211.28
411.358	151.89
411.567	237.91
411.775	217.43
411.984	227.67
412.192	223.57
412.401	246.1
412.609	291.15
412.818	303.44
413.026	303.44
413.234	266.58
413.443	309.58
413.651	229.71
413.86	295.25
414.068	401.74
414.276	360.78
414.485	258.39
414.693	381.26
414.901	416.08
415.11	344.4
415.318	366.93
415.526	448.85
415.734	409.94
415.943	502.09
416.151	452.94
416.359	442.7
416.567	502.09
416.776	512.33
416.984	567.63
417.192	524.62
417.4	477.52
417.608	616.78
417.817	559.44
418.025	641.36
418.233	735.56
418.441	627.02
418.649	694.6
418.857	731.47
419.065	717.13
419.273	792.91
419.481	733.51
419.689	792.91
419.897	940.36
420.105	813.38
420.313	864.58
420.521	930.12
420.729	921.93
420.937	962.89
421.145	1030.47
421.353	1007.94
421.561	1016.13
421.769	1147.2
421.977	1141.06
422.185	1233.22
422.393	1222.98
422.601	1233.22
422.809	1272.13
423.017	1319.23
423.224	1337.66
423.432	1315.14
423.64	1444.16
423.848	1569.09
424.056	1388.86
424.263	1612.09
424.471	1560.89
424.679	1567.04
424.887	1634.62
425.094	1804.6
425.302	1741.11
425.51	1868.09
425.718	1945.91
425.925	1878.33
426.133	2021.69
426.341	2169.14
426.548	2163
426.756	2126.13
426.964	2183.48
427.171	2380.08
427.379	2435.38
427.586	2527.53
427.794	2427.18
428.001	2576.69
428.209	2689.32
428.417	2697.52
428.624	2920.74
428.832	2783.53
429.039	2840.87
429.247	2783.53
429.454	3031.34
429.662	3379.49
429.869	3184.93
430.076	3434.78
430.284	3303.71
430.491	3387.68
430.699	3692.83
430.906	3582.24
431.114	3705.12
431.321	3809.56
431.528	3993.88
431.736	4178.2
431.943	4311.32
432.15	4110.61
432.358	4239.64
432.565	4505.87
432.772	4430.1
432.979	4638.99
433.187	4593.94
433.394	4684.05
433.601	5185.8
433.808	4925.71
434.016	5044.49
434.223	5193.99
434.43	5650.69
434.637	5538.05
434.844	5945.59
435.052	6041.85
435.259	5824.76
435.466	6150.39
435.673	6072.57
435.88	6283.51
436.087	6828.27
436.294	6764.78
436.501	6473.97
436.708	6488.31
436.915	6803.69
437.122	7143.66
437.329	7106.79
437.537	7612.64
437.743	7600.35
437.95	7497.95
438.157	8030.43
438.364	8249.56
438.571	8122.59
438.778	8026.33
438.985	9056.46
439.192	8816.85
439.399	8890.57
439.606	8763.6
439.813	9169.1
440.02	9613.51
440.227	9586.88
440.433	9318.6
440.64	9687.23
440.847	9595.07
441.054	10025.15
441.261	10528.95
441.467	10356.92
441.674	10754.23
441.881	10922.16
442.088	11176.11
442.294	10916.01
442.501	11188.39
442.708	11397.29
442.914	11935.9
443.121	12605.59
443.328	12023.97
443.534	12847.25
443.741	12484.76
443.948	12343.45
444.154	13455.5
444.361	13164.68
444.568	13224.08
444.774	13396.1
444.981	13449.35
445.187	13944.96
445.394	14366.84
445.6	14489.72
445.807	15458.41
446.013	14970.99
446.22	15243.37
446.426	15626.34
446.633	15997.03
446.839	16676.95
447.046	15988.83
447.252	16707.67
447.459	16982.1
447.665	16660.57
447.871	17473.61
448.078	18483.26
448.284	17360.97
448.491	17887.3
448.697	18548.79
448.903	18985.01
449.11	18899
449.316	18622.52
449.522	18812.98
449.728	19742.76
449.935	19687.46
450.141	19869.73
450.347	20428.83
450.553	19558.44
450.76	19984.42
450.966	20457.5
451.172	20211.74
451.378	20867.09
451.584	20420.64
451.791	21188.63
451.997	20873.24
452.203	21452.81
452.409	21202.96
452.615	21389.33
452.821	20516.89
453.027	20164.64
453.233	21379.09
453.44	20449.31
453.646	20944.92
453.852	20908.05
454.058	21217.3
454.264	20613.15
454.47	21278.74
454.676	20785.18
454.882	21260.3
455.088	19408.94
455.294	19679.27
455.5	20146.21
455.705	20406.3
455.911	19542.06
456.117	18972.72
456.323	18894.9
456.529	17963.08
456.735	18733.11
456.941	18192.45
457.147	17741.89
457.352	17483.85
457.558	17152.08
457.764	17182.8
457.97	16820.31
458.176	16435.29
458.381	16377.95
458.587	15822.95
458.793	15730.79
458.999	15028.34
459.204	15929.44
459.41	15503.46
459.616	14276.73
459.821	14618.74
460.027	14379.13
460.233	14182.52
460.438	13756.55
460.644	13637.77
460.85	13004.94
461.055	12824.72
461.261	12857.49
461.466	11745.44
461.672	11419.82
461.878	12214.43
462.083	11544.74
462.289	11317.42
462.494	11120.81
462.7	10922.16
462.905	10469.56
463.111	10805.42
463.316	10635.44
463.522	10496.18
463.727	10569.91
463.932	10440.89
464.138	10506.42
464.343	10266.81
464.549	10129.59
464.754	10553.52
464.959	10369.21
465.165	10356.92
465.37	10051.77
465.575	9521.35
465.781	10047.68
465.986	10023.1
466.191	9617.6
466.397	9500.87
466.602	9140.43
466.807	9277.64
467.012	9457.86
467.218	9285.83
467.423	9066.7
467.628	9390.28
467.833	9781.44
468.038	9253.06
468.244	8956.11
468.449	9578.69
468.654	9124.04
468.859	9117.9
469.064	8962.25
469.269	8943.82
469.474	8843.47
469.679	8800.46
469.885	8532.18
470.09	8765.65
470.295	8712.4
470.5	8487.12
470.705	8558.8
470.91	8210.65
471.115	8349.91
471.32	8452.31
471.525	8224.98
471.73	8179.93
471.935	8130.78
472.139	7792.86
472.344	7940.32
472.549	7727.33
472.754	7923.93
472.959	7760.09
473.164	7510.24
473.369	7360.74
473.574	7749.86
473.778	7667.94
473.983	7381.22
474.188	7438.56
474.393	7014.63
474.598	7102.7
474.802	7203.05
475.007	7180.52
475.212	7104.74
475.417	6791.41
475.621	6801.65
475.826	6893.8
476.031	6584.56
476.235	6564.08
476.44	6713.58
476.645	6559.99
476.849	6699.25
477.054	6619.38
477.259	6400.24
477.463	6320.37
477.668	6189.3
477.872	6402.29
478.077	6201.59
478.282	5937.4
478.486	5843.2
478.691	5998.84
478.895	6088.95
479.1	5787.9
479.304	5896.44
479.509	5622.02
479.713	5826.81
479.918	5646.59
480.122	5632.26
480.326	5697.79
480.531	5624.06
480.735	5630.21
480.94	5529.86
481.144	5769.47
481.348	5488.9
481.553	5759.23
481.757	5392.64
481.961	5411.07
482.166	5515.52
482.37	5546.24
482.574	5611.78
482.778	5556.48
482.983	5609.73
483.187	5556.48
483.391	5511.43
483.595	5460.23
483.8	5396.74
484.004	5595.39
484.208	5470.47
484.412	5431.55
484.616	5507.33
484.821	5513.47
485.025	5237
485.229	5449.99
485.433	5449.99
485.637	5447.94
485.841	5290.24
486.045	5394.69
486.249	5366.02
486.453	5464.32
486.657	5433.6
486.861	5589.25
487.065	5488.9
487.269	5482.75
487.473	5277.96
487.677	5351.68
487.881	5665.02
488.085	5435.65
488.289	5589.25
488.493	5501.19
488.697	5409.03
488.901	5517.57
489.105	5437.7
489.309	5386.5
489.512	5497.09
489.716	5417.22
489.92	5421.31
490.124	5490.95
490.328	5482.75
490.531	5615.87
490.735	5624.06
490.939	5665.02
491.143	5484.8
491.346	5724.41
491.55	5787.9
491.754	5619.97
491.958	5640.45
492.161	5773.57
492.365	5699.84
492.569	5720.32
492.772	5626.11
492.976	5751.04
493.18	5789.95
493.383	5878.01
493.587	5933.31
493.79	5908.73
493.994	5800.19
494.197	5773.57
494.401	5968.12
494.605	5974.27
494.808	6142.2
495.012	6029.56
495.215	6125.82
495.419	6199.54
495.622	6287.61
495.825	6179.06
496.029	6250.74
496.232	6529.27
496.436	6316.28
496.639	6678.77
496.843	6486.26
497.046	6635.76
497.249	6637.81
497.453	6858.99
497.656	6889.71
497.859	6879.47
498.063	6842.6
498.266	7131.37
498.469	7065.83
498.673	7008.49
498.876	7295.21
499.079	7344.36
499.282	7317.73
499.485	7416.04
499.689	7481.57
499.892	7719.14
500.095	7657.7
500.298	7786.72
500.501	7776.48
500.705	7964.89
500.908	7946.46
501.111	7962.84
501.314	8224.98
501.517	8300.76
501.72	8427.73
501.923	8163.54
502.126	8372.44
502.329	8687.82
502.532	8548.56
502.735	8773.84
502.938	8992.97
503.141	8964.3
503.344	9083.08
503.547	9203.91
503.75	9138.38
503.953	9087.18
504.156	9478.34
504.359	9703.62
504.562	9593.03
504.765	9783.49
504.968	9912.51
505.17	9842.88
505.373	9695.43
505.576	10131.64
505.779	10365.11
505.982	10430.65
506.185	10584.24
506.387	10713.27
506.59	10688.69
506.793	10999.98
506.996	10750.13
507.198	11065.52
507.401	11088.04
507.604	11210.92
507.807	11434.15
508.009	11389.1
508.212	11679.91
508.415	11724.96
508.617	11819.17
508.82	11831.46
509.022	11985.05
509.225	12331.16
509.428	12363.93
509.63	12404.89
509.833	12396.7
510.035	12824.72
510.238	12777.62
510.44	12685.46
510.643	13107.34
510.845	13168.78
511.048	13164.68
511.25	13465.74
511.453	13377.67
511.655	13813.89
511.858	13611.14
512.06	14041.22
512.262	13932.67
512.465	14008.45
512.667	14434.43
512.87	14422.14
513.072	14338.17
513.274	14919.79
513.477	14751.86
513.679	14977.14
513.881	15159.41
514.084	15388.78
514.286	15304.81
514.488	15556.71
514.69	15878.24
514.893	15947.87
515.095	15827.04
515.297	16242.78
515.499	16414.81
515.701	16416.86
515.904	16500.83
516.106	16621.66
516.308	16922.71
516.51	17059.92
516.712	16988.24
516.914	17414.22
517.116	17571.91
517.318	17533
517.52	17737.8
517.722	18126.91
517.925	18245.69
518.127	18204.74
518.329	18257.98
518.531	18257.98
518.733	18755.64
518.935	18712.63
519.136	18966.58
519.338	19241.01
519.54	19101.75
519.742	19540.01
519.944	19640.36
520.146	19718.18
520.348	19916.84
520.55	20213.79
520.752	20303.9
520.954	20434.97
521.155	20355.1
521.357	20887.57
521.559	20557.85
521.761	21133.33
521.963	21022.74
522.164	21248.02
522.366	21522.44
522.568	21280.78
522.77	21712.91
522.971	21886.98
523.173	22114.31
523.375	21993.48
523.576	21958.66
523.778	22130.69
523.98	22312.96
524.181	22614.01
524.383	22730.75
524.584	22800.38
524.786	22974.45
524.988	23001.08
525.189	23496.69
525.391	23371.76
525.592	23500.78
525.794	23681
525.995	23771.11
526.197	23928.81
526.398	24008.68
526.6	23961.58
526.801	24147.94
527.003	24260.58
527.204	24213.48
527.406	24510.43
527.607	24588.25
527.808	24492
528.01	24471.52
528.211	24569.82
528.412	25012.18
528.614	24840.15
528.815	24938.46
529.016	25421.78
529.218	25159.64
529.419	25104.34
529.62	25264.08
529.822	25171.93
530.023	25317.33
530.224	25188.31
530.425	25249.75
530.626	24987.61
530.828	25087.96
531.029	25808.84
531.23	25515.98
531.431	25458.64
531.632	25950.15
531.833	25755.6
532.035	25778.12
532.236	26116.04
532.437	25860.04
532.638	25520.08
532.839	25962.44
533.04	25976.78
533.241	25827.28
533.442	26054.6
533.643	25884.62
533.844	25923.53
534.045	26150.85
534.246	25688.01
534.447	26062.79
534.648	25997.26
534.849	26191.81
535.05	26109.89
535.251	25995.21
535.451	26245.06
535.652	26320.84
535.853	25892.81
536.054	26107.85
536.255	26398.66
536.456	26175.43
536.657	26587.07
536.857	25978.82
537.058	26103.75
537.259	26443.71
537.46	26259.4
537.66	26195.91
537.861	26372.03
538.062	26048.46
538.263	26275.78
538.463	26316.74
538.664	26372.03
538.865	26306.5
539.065	26290.12
539.266	26007.5
539.466	26447.81
539.667	26058.7
539.868	26617.79
540.068	26265.54
540.269	26195.91
540.469	26286.02
540.67	25931.72
540.87	26273.73
541.071	26501.06
541.271	26126.28
541.472	26232.77
541.672	26023.88
541.873	26001.35
542.073	25915.34
542.274	26331.08
542.474	26128.33
542.675	25903.05
542.875	26279.88
543.075	26253.25
543.276	25522.13
543.476	26460.1
543.676	26144.71
543.877	26101.7
544.077	25956.3
544.277	26070.98
544.478	25907.15
544.678	26253.25
544.878	26103.75
545.078	26300.36
545.279	25862.09
545.479	26120.13
545.679	26087.37
545.879	26314.69
546.079	25872.33
546.28	25964.49
546.48	25794.51
546.68	26126.28
546.88	26007.5
547.08	25884.62
547.28	25933.77
547.48	25671.63
547.68	25956.3
547.88	25980.87
548.081	26357.7
548.281	25731.02
548.481	26070.98
548.681	26118.09
548.881	25892.81
549.081	25839.56
549.28	25890.76
549.48	26132.42
549.68	25991.11
549.88	26040.26
550.08	25937.87
550.28	25769.93
550.48	25984.97
550.68	26359.75
550.88	25669.58
551.08	25733.07
551.279	25890.76
551.479	25735.12
551.679	25663.44
551.879	25806.8
552.079	25989.06
552.278	25683.92
552.478	25628.62
552.678	25626.57
552.878	26177.48
553.077	25681.87
553.277	25413.59
553.477	25958.35
553.676	25540.56
553.876	25841.61
554.076	25843.66
554.275	25624.53
554.475	25397.2
554.674	25499.6
554.874	25776.08
555.074	25602
555.273	25669.58
555.473	25941.96
555.672	25597.9
555.872	25456.59
556.071	25466.83
556.271	25438.16
556.47	25421.78
556.67	25317.33
556.869	25407.44
557.068	25286.61
557.268	25450.45
557.467	25270.23
557.667	25139.16
557.866	25266.13
558.065	24858.59
558.265	25042.9
558.464	24791
558.663	25135.06
558.863	24752.09
559.062	25403.35
559.261	25044.95
559.461	25272.28
559.66	24688.6
559.859	24846.3
560.058	24723.42
560.258	24543.2
560.457	24637.41
560.656	24958.94
560.855	24811.48
561.054	24750.04
561.253	24346.59
561.453	24504.29
561.652	24426.46
561.851	24514.53
562.05	24215.52
562.249	24035.3
562.448	24549.34
562.647	24182.76
562.846	24293.35
563.045	24295.39
563.244	23822.31
563.443	24502.24
563.642	23732.2
563.841	24133.61
564.04	23853.03
564.239	24184.8
564.438	23656.43
564.637	23965.67
564.836	24020.97
565.035	23461.87
565.234	23338.99
565.432	23433.2
565.631	23392.24
565.83	23660.52
566.029	23373.81
566.228	23597.04
566.427	23250.93
566.625	23351.28
566.824	22861.82
567.023	23261.17
567.222	22974.45
567.42	22880.25
567.619	22962.17
567.818	23009.27
568.016	23060.47
568.215	23050.23
568.414	22996.98
568.612	22872.06
568.811	22736.89
569.01	22841.34
569.208	22482.94
569.407	22769.66
569.605	22298.63
569.804	22521.85
570.002	21999.62
570.201	22394.88
570.4	22185.99
570.598	22235.14
570.797	21886.98
570.995	21907.46
571.193	21796.87
571.392	22087.68
571.59	21739.53
571.789	21653.51
571.987	21600.27
572.186	21614.6
572.384	21661.71
572.582	21555.21
572.781	21649.42
572.979	21409.81
573.177	21319.7
573.376	21643.28
573.574	21270.54
573.772	21590.03
573.971	21012.5
574.169	20930.58
574.367	20961.3
574.565	21297.17
574.763	21104.66
574.962	20635.67
575.16	20883.48
575.358	20924.44
575.556	20553.76
575.754	21020.69
575.952	20547.61
576.151	20748.31
576.349	20533.28
576.547	20490.27
576.745	20426.78
576.943	20527.13
577.141	20037.67
577.339	20187.17
577.537	20107.3
577.735	20480.03
577.933	19888.17
578.131	20353.05
578.329	20189.22
578.527	19898.41
578.725	20121.63
578.923	19894.31
579.121	19912.74
579.319	20039.72
579.516	19949.6
579.714	19853.35
579.912	19836.97
580.11	19392.56
580.308	19562.54
580.506	19664.94
580.704	19099.7
580.901	19224.62
581.099	19599.4
581.297	19089.46
581.495	19077.17
581.692	19439.66
581.89	19392.56
582.088	19329.07
582.285	19234.86
582.483	18960.44
582.681	19046.45
582.878	19079.22
583.076	18677.82
583.274	18769.97
583.471	18522.17
583.669	18567.23
583.866	18274.37
584.064	18829.37
584.262	18339.9
584.459	18620.47
584.657	18421.82
584.854	18604.09
585.052	17934.4
585.249	18298.94
585.447	18178.11
585.644	18202.69
585.841	18122.82
586.039	18225.22
586.236	17633.35
586.434	18022.47
586.631	17801.29
586.828	17846.34
587.026	18061.38
587.223	17995.84
587.42	17936.45
587.618	17725.51
587.815	17717.32
588.012	17403.98
588.21	17514.57
588.407	17680.46
588.604	17526.86
588.801	17635.4
588.999	17340.49
589.196	17295.44
589.393	17451.08
589.59	17623.11
589.787	17336.4
589.984	17252.43
590.182	17014.87
590.379	17240.14
590.576	16765.01
590.773	16883.8
590.97	16992.34
591.167	17021.01
591.364	16920.66
591.561	16689.24
591.758	16511.07
591.955	16521.31
592.152	16613.46
592.349	16144.48
592.546	16488.54
592.743	16539.74
592.94	16326.75
593.137	16396.38
593.334	16492.63
593.531	16244.83
593.727	16291.93
593.924	16156.77
594.121	16380
594.318	16033.89
594.515	15847.52
594.712	16281.69
594.908	15921.25
595.105	15825
595.302	15847.52
595.499	15640.68
595.696	15841.38
595.892	15657.06
596.089	15868
596.286	15605.86
596.482	15806.56
596.679	15546.47
596.876	15480.94
597.072	15382.63
597.269	15521.9
597.466	15362.15
597.662	15282.28
597.859	15249.52
598.055	15392.87
598.252	15288.43
598.448	15177.84
598.645	15097.97
598.841	14837.87
599.038	14907.51
599.234	14973.04
599.431	14731.38
599.627	14712.95
599.824	15024.24
600.02	14665.85
600.217	14682.23
600.413	14868.59
600.609	14534.78
600.806	14643.32
601.002	14766.2
601.198	14647.41
601.395	14334.07
601.591	14581.88
601.787	14643.32
601.984	14459
602.18	14456.95
602.376	14278.78
602.572	14133.37
602.769	14073.98
602.965	14039.17
603.161	14129.28
603.357	13996.16
603.553	14053.5
603.75	14131.33
603.946	13867.14
604.142	13965.44
604.338	13922.43
604.534	13908.1
604.73	13779.08
604.926	13832.32
605.122	13602.95
605.318	13768.84
605.514	13623.43
605.71	13467.78
605.906	13410.44
606.102	13709.44
606.298	13269.13
606.494	13447.3
606.69	13416.58
606.886	13475.98
607.082	13254.8
607.278	13211.79
607.474	13064.33
607.67	13471.88
607.866	13262.99
608.062	13459.59
608.257	13211.79
608.453	12882.06
608.649	13050
608.845	12994.7
609.041	13181.07
609.236	13041.81
609.432	13054.09
609.628	13035.66
609.824	12937.36
610.019	12853.39
610.215	12738.71
610.411	12963.98
610.606	12849.3
610.802	12632.21
610.998	12652.69
611.193	12722.32
611.389	12634.26
611.584	12796.05
611.78	12548.25
611.976	12531.86
612.171	12753.04
612.367	12423.32
612.562	12476.57
612.758	12466.33
612.953	12552.34
613.149	12574.87
613.344	12294.3
613.539	12650.64
613.735	12218.52
613.93	12511.38
614.126	12443.8
614.321	12615.83
614.517	12265.63
614.712	12185.76
614.907	12185.76
615.103	12439.7
615.298	12308.63
615.493	12292.25
615.688	12191.9
615.884	12318.87
616.079	12159.13
616.274	12216.47
616.47	12189.85
616.665	12191.9
616.86	11950.24
617.055	11899.04
617.25	11782.31
617.445	11954.33
617.641	11622.56
617.836	11823.26
618.031	11770.02
618.226	11853.98
618.421	11718.82
618.616	11880.61
618.811	11462.82
619.006	11790.5
619.201	11468.97
619.396	11559.08
619.591	11497.64
619.786	11481.25
619.981	11440.29
620.176	11364.52
620.371	11397.29
620.566	11276.46
620.761	11118.76
620.956	11235.5
621.151	11200.68
621.346	11237.55
621.541	10936.49
621.735	11024.56
621.93	10971.31
622.125	10973.36
622.32	10686.64
622.515	10866.86
622.709	10627.25
622.904	10694.83
623.099	10664.11
623.294	10780.85
623.488	10481.85
623.683	10678.45
623.878	10356.92
624.072	10471.61
624.267	10528.95
624.462	10240.19
624.656	10324.15
624.851	10113.21
625.046	10154.17
625.24	10223.8
625.435	10141.88
625.629	9904.32
625.824	9808.06
626.018	9836.74
626.213	9767.1
626.407	9773.25
626.602	9758.91
626.796	9562.31
626.991	9687.23
627.185	9582.79
627.38	9494.72
627.574	9468.1
627.768	9431.24
627.963	9384.13
628.157	9291.98
628.352	9367.75
628.546	9144.52
628.74	9173.19
628.935	9078.99
629.129	9365.7
629.323	9060.56
629.517	8927.44
629.712	9050.32
629.906	8861.9
630.1	8747.22
630.294	8689.87
630.489	8679.63
630.683	8745.17
630.877	8616.15
631.071	8696.02
631.265	8734.93
631.459	8474.84
631.653	8483.03
631.848	8437.97
632.042	8349.91
632.236	8358.1
632.43	8229.08
632.624	8194.26
632.818	8247.51
633.012	8194.26
633.206	8251.61
633.4	8098.01
633.594	7958.75
633.788	8181.98
633.982	8085.72
634.176	8034.52
634.369	7866.59
634.563	7889.12
634.757	7827.68
634.951	7956.7
635.145	7807.2
635.339	7690.46
635.533	7792.86
635.726	7672.03
635.92	7682.27
636.114	7690.46
636.308	7559.39
636.501	7383.27
636.695	7368.93
636.889	7409.89
637.083	7350.5
637.276	7311.59
637.47	7344.36
637.664	7287.01
637.857	7213.29
638.051	7049.45
638.244	7110.89
638.438	7229.67
638.632	7086.31
638.825	6836.46
639.019	7051.5
639.212	6990.06
639.406	7037.16
639.599	6926.57
639.793	7100.65
639.986	6691.06
640.18	6713.58
640.373	6629.62
640.567	6664.43
640.76	6734.06
640.954	6699.25
641.147	6416.63
641.34	6467.83
641.534	6496.5
641.727	6467.83
641.92	6545.65
642.114	6351.09
642.307	6453.49
642.5	6363.38
642.694	6199.54
642.887	6258.93
643.08	6293.75
643.273	6383.86
643.467	6269.17
643.66	6238.45
643.853	6056.18
644.046	6074.62
644.239	6047.99
644.432	5970.17
644.626	6041.85
644.819	5875.96
645.012	5878.01
645.205	5961.98
645.398	5884.16
645.591	5951.74
645.784	5914.88
645.977	5839.1
646.17	5732.61
646.363	5812.48
646.556	5560.58
646.749	5654.78
646.942	5622.02
647.135	5654.78
647.328	5368.07
647.521	5683.45
647.714	5482.75
647.907	5501.19
648.099	5384.45
648.292	5378.31
648.485	5433.6
648.678	5302.53
648.871	5181.7
649.064	5189.89
649.256	5320.96
649.449	5183.75
649.642	5351.68
649.835	5103.88
650.027	5269.76
650.22	5245.19
650.413	5028.1
650.605	5114.12
650.798	5171.46
650.991	5085.45
651.183	5079.3
651.376	4983.05
651.568	5011.72
651.761	4927.75
651.954	4954.38
652.146	4940.04
652.339	4829.45
652.531	4868.36
652.724	4868.36
652.916	4702.48
653.109	4829.45
653.301	4905.23
653.494	4913.42
653.686	4552.98
653.879	4675.85
654.071	4663.57
654.263	4581.65
654.456	4624.65
654.648	4622.61
654.84	4454.67
655.033	4462.87
655.225	4546.83
655.417	4565.26
655.61	4444.43
655.802	4516.11
655.994	4501.78
656.186	4485.39
656.379	4323.6
656.571	4473.11
656.763	4372.75
656.955	4186.39
657.148	4278.55
657.34	4245.78
657.532	4253.97
657.724	4196.63
657.916	4319.51
658.108	4208.92
658.3	4133.14
658.492	4206.87
658.684	4114.71
658.876	4198.68
659.068	4063.51
659.26	4155.67
659.452	3934.49
659.644	4053.27
659.836	3942.68
660.028	4073.75
660.22	3827.99
660.412	3873.05
660.604	3873.05
660.796	3846.43
660.988	3989.78
661.18	3858.71
661.372	3827.99
661.563	3928.35
661.755	3780.89
661.947	3799.32
662.139	3838.23
662.331	3799.32
662.522	3893.53
662.714	3672.35
662.906	3651.87
663.097	3784.99
663.289	3696.92
663.481	3586.33
663.673	3721.5
663.864	3688.73
664.056	3559.71
664.247	3569.95
664.439	3615.01
664.631	3535.14
664.822	3490.08
665.014	3510.56
665.205	3496.22
665.397	3463.46
665.588	3502.37
665.78	3348.77
665.971	3338.53
666.163	3510.56
666.354	3385.63
666.546	3442.98
666.737	3461.41
666.929	3305.76
667.12	3309.86
667.311	3369.25
667.503	3305.76
667.694	3402.02
667.885	3221.8
668.077	3178.79
668.268	3221.8
668.459	3242.28
668.651	3332.39
668.842	3189.03
669.033	3217.7
669.224	3125.54
669.416	3189.03
669.607	3209.51
669.798	3113.25
669.989	3150.12
670.18	3264.8
670.371	3152.17
670.563	3049.77
670.754	3025.19
670.945	3117.35
671.136	3041.57
671.327	2947.37
671.518	3043.62
671.709	2961.7
671.9	3184.93
672.091	3141.93
672.282	2926.89
672.473	2867.5
672.664	2896.17
672.855	2937.13
673.046	2910.5
673.237	2994.47
673.428	2902.31
673.619	2945.32
673.809	2933.03
674	2986.28
674.191	2973.99
674.382	2949.42
674.573	2928.94
674.764	2939.18
674.954	2957.61
675.145	2920.74
675.336	2867.5
675.527	2795.82
675.717	2763.05
675.908	2847.02
676.099	2838.83
676.289	2797.87
676.48	2844.97
676.671	2816.3
676.861	2836.78
677.052	2810.15
677.243	2720.04
677.433	2681.13
677.624	2818.35
677.814	2672.94
678.005	2677.04
678.195	2754.86
678.386	2748.72
678.576	2619.69
678.767	2541.87
678.957	2830.63
679.148	2693.42
679.338	2855.21
679.529	2705.71
679.719	2576.69
679.909	2713.9
680.1	2746.67
680.29	2709.8
680.481	2683.18
680.671	2672.94
680.861	2634.03
681.052	2732.33
681.242	2638.13
681.432	2689.32
681.622	2529.58
681.813	2613.55
682.003	2595.12
682.193	2660.65
682.383	2644.27
682.573	2656.56
682.764	2533.68
682.954	2695.47
683.144	2584.88
683.334	2464.05
683.524	2625.84
683.714	2541.87
683.904	2537.77
684.094	2595.12
684.284	2468.14
684.474	2705.71
684.664	2502.96
684.854	2586.93
685.044	2533.68
685.234	2601.26
685.424	2560.3
685.614	2572.59
685.804	2369.84
685.994	2552.11
686.184	2550.06
686.374	2648.36
686.564	2449.71
686.753	2462
686.943	2410.8
687.133	2455.86
687.323	2492.72
687.513	2498.86
687.702	2476.34
687.892	2421.04
688.082	2423.09
688.272	2343.22
688.461	2330.93
688.651	2443.57
688.841	2431.28
689.03	2326.83
689.22	2203.96
689.41	2375.99
689.599	2330.93
689.789	2275.63
689.979	2298.16
690.168	2384.18
690.358	2365.75
690.547	2277.68
690.737	2314.55
690.926	2371.89
691.116	2214.2
691.305	2330.93
691.495	2222.39
691.684	2238.77
691.874	2296.11
692.063	2150.71
692.252	2267.44
692.442	2238.77
692.631	2175.28
692.82	2177.33
693.01	2240.82
693.199	2087.22
693.388	2079.03
693.578	2150.71
693.767	2072.89
693.956	2044.21
694.146	2033.97
694.335	1970.49
694.524	2128.18
694.713	2281.78
694.902	2107.7
695.092	2038.07
695.281	1978.68
695.47	2066.74
695.659	2027.83
695.848	2050.36
696.037	1964.34
696.226	2138.42
696.415	2058.55
696.604	2076.98
696.793	2101.56
696.982	1980.73
697.171	1939.77
697.36	1966.39
697.549	2007.35
697.738	1868.09
697.927	2015.54
698.116	2044.21
698.305	1954.1
698.494	1984.82
698.683	1904.95
698.872	2079.03
699.061	2060.6
699.25	1984.82
699.438	1995.06
699.627	1921.34
699.816	1984.82
700.005	1964.34
700.193	1941.82
700.382	1956.15
700.571	2013.49
700.76	1915.19
700.948	2097.46
701.137	1853.75
701.326	1863.99
701.514	1997.11
701.703	1931.58
701.892	1913.14
702.08	1999.16
702.269	1907
702.457	2025.78
702.646	2056.5
702.834	1907
703.023	1900.86
703.212	1972.54
703.4	1925.43
703.589	1884.47
703.777	1984.82
703.965	1853.75
704.154	1939.77
704.342	1929.53
704.531	1986.87
704.719	1929.53
704.907	2048.31
705.096	1956.15
705.284	1884.47
705.472	1952.06
705.661	1958.2
705.849	2040.12
706.037	1845.56
706.226	1919.29
706.414	1962.3
706.602	1896.76
706.79	1931.58
706.979	1911.1
707.167	1853.75
707.355	1902.9
707.543	1761.59
707.731	1986.87
707.919	1945.91
708.107	1939.77
708.296	2001.21
708.484	1984.82
708.672	1835.32
708.86	1986.87
709.048	1970.49
709.236	1829.18
709.424	2005.3
709.612	2038.07
709.8	1935.67
709.988	1939.77
710.176	1863.99
710.364	1913.14
710.551	2019.64
710.739	1964.34
710.927	1945.91
711.115	2089.27
711.303	1876.28
711.491	1890.62
711.679	2031.93
711.866	1993.01
712.054	1923.38
712.242	1902.9
712.43	1958.2
712.617	2046.26
712.805	1896.76
712.993	1964.34
713.181	1857.85
713.368	2042.17
713.556	1941.82
713.744	1974.58
713.931	2060.6
714.119	2017.59
714.306	2005.3
714.494	1880.38
714.682	1966.39
714.869	1966.39
715.057	1927.48
715.244	2050.36
715.432	1870.14
715.619	1937.72
715.807	1993.01
715.994	1976.63
716.182	1902.9
716.369	2015.54
716.556	2005.3
716.744	2003.25
716.931	1988.92
717.119	2046.26
717.306	1972.54
717.493	2056.5
717.681	1917.24
717.868	2136.37
718.055	2091.32
718.242	1896.76
718.43	1993.01
718.617	2093.37
718.804	1909.05
718.991	1966.39
719.179	1958.2
719.366	1861.94
719.553	2074.93
719.74	1956.15
719.927	2040.12
720.114	1861.94
720.301	2050.36
720.488	2093.37
720.676	2052.41
720.863	1972.54
721.05	1980.73
721.237	2081.08
721.424	2083.13
721.611	1986.87
721.798	2017.59
721.985	2140.47
722.172	2001.21
722.358	1972.54
722.545	2076.98
722.732	1935.67
722.919	1997.11
723.106	2001.21
723.293	1976.63
723.48	1937.72
723.667	2031.93
723.853	1993.01
724.04	2021.69
724.227	2091.32
724.414	2072.89
724.6	2036.02
724.787	1976.63
724.974	2113.85
725.161	2064.69
725.347	1999.16
725.534	2019.64
725.72	2148.66
725.907	2033.97
726.094	2103.61
726.28	2013.49
726.467	1966.39
726.653	2038.07
726.84	1988.92
727.027	2074.93
727.213	1927.48
727.4	2054.45
727.586	2132.28
727.773	1993.01
727.959	2050.36
728.145	2109.75
728.332	1956.15
728.518	2027.83
728.705	2050.36
728.891	2068.79
729.077	2058.55
729.264	2079.03
729.45	1978.68
729.636	2085.17
729.823	2089.27
730.009	2015.54
730.195	2076.98
730.382	2130.23
730.568	1954.1
730.754	2095.41
730.94	2117.94
731.126	2001.21
731.313	1952.06
731.499	2099.51
731.685	2089.27
731.871	2070.84
732.057	2062.65
732.243	2095.41
732.429	2046.26
732.615	2087.22
732.801	2005.3
732.987	1966.39
733.173	2072.89
733.359	1972.54
733.545	2083.13
733.731	2070.84
733.917	2079.03
734.103	2031.93
734.289	2025.78
734.475	1986.87
734.661	2117.94
734.847	2013.49
735.033	1978.68
735.219	2042.17
735.404	1988.92
735.59	1988.92
735.776	1935.67
735.962	2119.99
736.148	2005.3
736.333	2148.66
736.519	2058.55
736.705	2033.97
736.89	1933.62
737.076	2031.93
737.262	2122.04
737.447	2017.59
737.633	2017.59
737.819	2009.4
738.004	2054.45
738.19	2038.07
738.375	2052.41
738.561	2021.69
738.747	1945.91
738.932	2107.7
739.118	1999.16
739.303	2050.36
739.489	2050.36
739.674	2062.65
739.859	1984.82
740.045	1915.19
740.23	1929.53
740.416	1917.24
740.601	1997.11
740.786	1995.06
740.972	1909.05
741.157	1988.92
741.342	1913.14
741.528	1935.67
741.713	1931.58
741.898	2048.31
742.084	1884.47
742.269	1911.1
742.454	1945.91
742.639	1956.15
742.824	1945.91
743.01	1958.2
743.195	1972.54
743.38	1808.7
743.565	1894.71
743.75	1970.49
743.935	1816.89
744.12	1968.44
744.305	1790.27
744.49	1845.56
744.675	1794.36
744.86	1814.84
745.045	1786.17
745.23	1849.66
745.415	1755.45
745.6	1790.27
745.785	1763.64
745.97	1775.93
746.155	1775.93
746.34	1853.75
746.525	1747.26
746.71	1739.07
746.895	1741.11
747.079	1741.11
747.264	1812.79
747.449	1685.82
747.634	1694.01
747.819	1753.4
748.003	1689.92
748.188	1634.62
748.373	1646.91
748.557	1640.76
748.742	1628.48
748.927	1605.95
749.111	1618.24
749.296	1544.51
749.481	1685.82
749.665	1460.54
749.85	1648.96
750.034	1601.85
750.219	1554.75
750.404	1542.46
750.588	1614.14
750.773	1485.12
750.957	1507.65
751.141	1562.94
751.326	1622.33
751.51	1392.96
751.695	1446.21
751.879	1501.5
752.064	1528.13
752.248	1491.26
752.432	1491.26
752.617	1411.39
752.801	1397.06
752.985	1392.96
753.17	1333.57
753.354	1386.82
753.538	1446.21
753.722	1386.82
753.907	1347.9
754.091	1337.66
754.275	1421.63
754.459	1370.43
754.643	1333.57
754.828	1395.01
755.012	1370.43
755.196	1327.43
755.38	1419.58
755.564	1255.75
755.748	1313.09
755.932	1366.34
756.116	1259.84
756.3	1251.65
756.484	1212.74
756.668	1257.79
756.852	1227.07
757.036	1200.45
757.22	1339.71
757.404	1163.59
757.588	1306.95
757.772	1210.69
757.956	1128.77
758.14	1198.4
758.323	1132.87
758.507	1182.02
758.691	1118.53
758.875	1184.07
759.059	1227.07
759.242	1169.73
759.426	1059.14
759.61	1042.76
759.794	1143.11
759.977	1046.85
760.161	1069.38
760.345	1106.24
760.528	1132.87
760.712	1046.85
760.895	1118.53
761.079	1081.67
761.263	1116.48
761.446	1063.24
761.63	1102.15
761.813	1036.61
761.997	1116.48
762.18	938.31
762.364	1098.05
762.547	993.61
762.731	995.65
762.914	960.84
763.098	969.03
763.281	997.7
763.464	948.55
763.648	1007.94
763.831	1030.47
764.015	979.27
764.198	960.84
764.381	866.63
764.564	911.69
764.748	1001.8
764.931	993.61
765.114	989.51
765.297	903.5
765.481	911.69
765.664	969.03
765.847	944.45
766.03	876.87
766.213	858.44
766.397	952.65
766.58	907.59
766.763	987.46
766.946	944.45
767.129	930.12
767.312	821.58
767.495	903.5
767.678	913.74
767.861	848.2
768.044	856.39
768.227	911.69
768.41	872.78
768.593	975.17
768.776	829.77
768.959	932.17
769.142	825.67
769.324	868.68
769.507	952.65
769.69	907.59
769.873	854.34
770.056	891.21
770.239	921.93
770.421	842.06
770.604	825.67
770.787	815.43
770.97	792.91
771.152	782.67
771.335	815.43
771.518	764.23
771.7	784.71
771.883	821.58
772.066	794.95
772.248	780.62
772.431	780.62
772.613	764.23
772.796	735.56
772.978	727.37
773.161	776.52
773.343	747.85
773.526	676.17
773.708	805.19
773.891	608.59
774.073	715.08
774.256	723.27
774.438	715.08
774.621	667.98
774.803	694.6
774.985	641.36
775.168	651.6
775.35	672.08
775.532	690.51
775.715	684.36
775.897	569.68
776.079	661.84
776.261	741.71
776.444	674.12
776.626	569.68
776.808	641.36
776.99	543.05
777.173	665.93
777.355	643.4
777.537	631.12
777.719	629.07
777.901	569.68
778.083	602.44
778.265	559.44
778.447	641.36
778.629	569.68
778.811	608.59
778.993	639.31
779.175	577.87
779.357	579.92
779.539	508.24
779.721	618.83
779.903	645.45
780.085	541.01
780.267	622.92
780.449	606.54
780.631	608.59
780.812	522.57
780.994	551.24
781.176	500.05
781.358	600.4
781.54	522.57
781.721	555.34
781.903	481.61
782.085	436.56
782.267	428.37
782.448	498
782.63	502.09
782.812	502.09
782.993	495.95
783.175	461.13
783.357	475.47
783.538	559.44
783.72	491.85
783.901	557.39
784.083	383.31
784.264	454.99
784.446	391.5
784.627	436.56
784.809	411.98
784.99	405.84
785.172	483.66
785.353	391.5
785.535	541.01
785.716	430.41
785.897	440.65
786.079	444.75
786.26	409.94
786.441	401.74
786.623	319.82
786.804	399.7
786.985	493.9
787.167	389.46
787.348	362.83
787.529	446.8
787.71	440.65
787.891	401.74
788.073	389.46
788.254	399.7
788.435	354.64
788.616	352.59
788.797	397.65
788.978	307.54
789.159	356.69
789.34	493.9
789.522	346.45
789.703	309.58
789.884	360.78
790.065	362.83
790.246	352.59
790.427	328.02
790.607	358.74
790.788	336.21
790.969	307.54
791.15	385.36
791.331	366.93
791.512	379.22
791.693	325.97
791.874	366.93
792.054	334.16
792.235	362.83
792.416	299.34
792.597	305.49
792.778	338.26
792.958	330.06
793.139	239.95
793.32	352.59
793.5	317.78
793.681	340.3
793.862	309.58
794.042	309.58
794.223	211.28
794.404	323.92
794.584	246.1
794.765	264.53
794.945	268.63
795.126	317.78
795.306	395.6
795.487	258.39
795.667	248.15
795.848	280.91
796.028	297.3
796.209	198.99
796.389	194.9
796.57	321.87
796.75	313.68
796.93	293.2
797.111	196.95
797.291	233.81
797.471	190.8
797.652	215.38
797.832	278.87
798.012	315.73
798.192	207.19
798.373	342.35
798.553	254.29
798.733	328.02
798.913	219.47
799.093	194.9
799.274	221.52
799.454	231.76
799.634	223.57
799.814	207.19
799.994	158.03
800.174	305.49
800.354	215.38
800.534	151.89
800.714	207.19
800.894	235.86
801.074	192.85
801.254	239.95
801.434	282.96
801.614	198.99
801.794	225.62
801.974	649.55
802.154	229.71
802.334	211.28
802.514	190.8
802.693	174.42
802.873	170.32
803.053	270.67
803.233	221.52
803.413	248.15
803.592	158.03
803.772	203.09
803.952	137.56
804.131	248.15
804.311	184.66
804.491	244.05
804.67	160.08
804.85	205.14
805.03	147.8
805.209	215.38
805.389	160.08
805.568	170.32
805.748	149.84
805.928	164.18
806.107	262.48
806.287	209.23
806.466	205.14
806.646	135.51
806.825	123.22
807.004	110.93
807.184	201.04
807.363	186.71
807.543	160.08
807.722	151.89
807.901	211.28
808.081	141.65
808.26	69.97
808.439	190.8
808.619	209.23
808.798	102.74
808.977	190.8
809.156	131.41
809.336	145.75
809.515	147.8
809.694	86.36
809.873	209.23
810.052	223.57
810.231	160.08
810.411	170.32
810.59	201.04
810.769	51.54
810.948	135.51
811.127	153.94
811.306	182.61
811.485	123.22
811.664	170.32
811.843	217.43
812.022	104.79
812.201	117.08
812.38	135.51
812.559	96.6
812.737	158.03
812.916	141.65
813.095	178.51
813.274	135.51
813.453	78.16
813.632	133.46
813.811	121.17
813.989	86.36
814.168	158.03
814.347	149.84
814.526	127.32
814.704	180.56
814.883	166.23
815.062	141.65
815.24	153.94
815.419	133.46
815.598	201.04
815.776	14.68
815.955	170.32
816.133	82.26
816.312	160.08
816.49	137.56
816.669	61.78
816.847	98.64
817.026	133.46
817.204	96.6
817.383	153.94
817.561	86.36
817.74	184.66
817.918	117.08
818.097	125.27
818.275	74.07
818.453	135.51
818.632	147.8
818.81	151.89
818.988	-1.71
819.167	106.84
819.345	80.21
819.523	129.36
819.701	65.88
819.879	119.12
820.058	182.61
820.236	35.16
820.414	98.64
820.592	160.08
820.77	78.16
820.948	100.69
821.127	92.5
821.305	153.94
821.483	104.79
821.661	153.94
821.839	121.17
822.017	94.55
822.195	117.08
822.373	102.74
822.551	39.25
822.729	86.36
822.907	67.92
823.085	94.55
823.262	51.54
823.44	76.12
823.618	125.27
823.796	106.84
823.974	86.36
824.152	49.49
824.329	-5.8
824.507	18.77
824.685	59.73
824.863	59.73
825.04	139.6
825.218	90.45
825.396	14.68
825.574	84.31
825.751	26.96
825.929	88.4
826.107	98.64
826.284	49.49
826.462	115.03
826.639	26.96
826.817	45.4
826.994	104.79
827.172	39.25
827.349	102.74
827.527	41.3
827.704	96.6
827.882	104.79
828.059	72.02
828.237	112.98
828.414	69.97
828.591	139.6
828.769	84.31
828.946	84.31
829.124	80.21
829.301	115.03
829.478	100.69
829.655	188.75
829.833	96.6
830.01	72.02
830.187	141.65
830.364	67.92
830.542	69.97
830.719	143.7
830.896	115.03
831.073	104.79
831.25	98.64
831.427	37.2
831.604	67.92
831.782	84.31
831.959	117.08
832.136	31.06
832.313	35.16
832.49	69.97
832.667	26.96
832.844	110.93
833.021	-9.9
833.198	63.83
833.374	-7.85
833.551	57.68
833.728	-13.99
833.905	88.4
834.082	47.44
834.259	63.83
834.436	84.31
834.612	-65.19
834.789	90.45
834.966	-9.9
835.143	57.68
835.319	63.83
835.496	29.01
835.673	115.03
835.85	63.83
836.026	125.27
836.203	108.88
836.38	14.68
836.556	63.83
836.733	47.44
836.909	88.4
837.086	39.25
837.262	78.16
837.439	67.92
837.616	61.78
837.792	10.58
837.968	98.64
838.145	-13.99
838.321	33.11
838.498	117.08
838.674	35.16
838.851	49.49
839.027	-36.52
839.203	-3.75
839.38	51.54
839.556	-20.14
839.732	-61.1
839.909	59.73
840.085	112.98
840.261	59.73
840.437	47.44
840.614	26.96
840.79	125.27
840.966	112.98
841.142	29.01
841.318	84.31
841.494	78.16
841.671	55.64
841.847	69.97
842.023	-1.71
842.199	90.45
842.375	6.49
842.551	18.77
842.727	6.49
842.903	26.96
843.079	37.2
843.255	10.58
843.431	-28.33
843.607	6.49
843.783	2.39
843.959	100.69
844.134	35.16
844.31	57.68
844.486	86.36
844.662	47.44
844.838	37.2
845.013	69.97
845.189	43.35
845.365	47.44
845.541	63.83
845.716	69.97
845.892	-3.75
846.068	22.87
846.244	37.2
846.419	33.11
846.595	45.4
846.77	35.16
846.946	92.5
847.122	76.12
847.297	-7.85
847.473	51.54
847.648	14.68
847.824	41.3
847.999	90.45
848.175	29.01
848.35	57.68
848.526	84.31
848.701	74.07
848.876	10.58
849.052	72.02
849.227	31.06
849.403	29.01
849.578	0.34
849.753	4.44
849.929	-52.91
850.104	37.2
850.279	-18.09
850.454	57.68
850.63	65.88
850.805	37.2
850.98	51.54
851.155	4.44
851.33	12.63
851.505	26.96
851.681	92.5
851.856	67.92
852.031	65.88
852.206	-1.71
852.381	-30.38
852.556	16.73
852.731	151.89
852.906	16.73
853.081	43.35
853.256	51.54
853.431	20.82
853.606	24.92
853.781	24.92
853.956	4.44
854.131	45.4
854.305	43.35
854.48	43.35
854.655	-7.85
854.83	-28.33
855.005	-5.8
855.18	57.68
855.354	51.54
855.529	41.3
855.704	-5.8
855.879	0.34
856.053	-11.95
856.228	-9.9
856.403	-65.19
856.577	67.92
856.752	47.44
856.926	-24.23
857.101	-36.52
857.276	18.77
857.45	-5.8
857.625	115.03
857.799	45.4
857.974	59.73
858.148	47.44
858.323	35.16
858.497	-1.71
858.672	2.39
858.846	-26.28
859.02	16.73
859.195	-54.95
859.369	57.68
859.543	4.44
859.718	-13.99
859.892	74.07
860.066	-28.33
860.241	12.63
860.415	22.87
860.589	-32.43
860.763	14.68
860.938	84.31
861.112	90.45
861.286	14.68
861.46	24.92
861.634	55.64
861.808	41.3
861.982	-44.71
862.157	-22.19
862.331	47.44
862.505	-36.52
862.679	20.82
862.853	8.53
863.027	-34.47
863.201	-22.19
863.375	6.49
863.549	43.35
863.722	22.87
863.896	67.92
864.07	37.2
864.244	-36.52
864.418	18.77
864.592	55.64
864.766	-30.38
864.939	26.96
865.113	-13.99
865.287	22.87
865.461	22.87
865.634	-22.19
865.808	26.96
865.982	6.49
866.156	4.44
866.329	-42.67
866.503	-1.71
866.676	78.16
866.85	14.68
867.024	6.49
867.197	43.35
867.371	-97.96
867.544	-77.48
867.718	22.87
867.891	53.59
868.065	-22.19
868.238	45.4
868.412	92.5
868.585	51.54
868.759	-28.33
868.932	-42.67
869.105	29.01
869.279	39.25
869.452	39.25
869.625	-54.95
869.799	10.58
869.972	-48.81
870.145	100.69
870.319	22.87
870.492	59.73
870.665	57.68
870.838	-30.38
871.011	14.68
871.185	-22.19
871.358	-18.09
871.531	-54.95
871.704	4.44
871.877	35.16
872.05	-3.75
872.223	-28.33
872.396	14.68
872.569	76.12
872.742	-48.81
872.915	22.87
873.088	24.92
873.261	-30.38
873.434	-18.09
873.607	88.4
873.78	-26.28
873.953	-69.29
874.126	41.3
874.299	22.87
874.471	-18.09
874.644	-83.63
874.817	-36.52
874.99	29.01
875.163	37.2
875.335	-52.91
875.508	61.78
875.681	31.06
875.853	-3.75
876.026	92.5
876.199	-20.14
876.371	-24.23
876.544	-24.23
876.717	84.31
876.889	-22.19
877.062	-11.95
877.234	12.63
877.407	39.25
877.579	39.25
877.752	8.53
877.924	26.96
878.097	-16.04
878.269	-57
878.442	22.87
878.614	-5.8
878.786	41.3
878.959	-7.85
879.131	-9.9
879.303	-13.99
879.476	18.77
879.648	26.96
879.82	-42.67
879.993	-48.81
880.165	-24.23
880.337	-44.71
880.509	80.21
880.681	-85.67
880.854	-11.95
881.026	63.83
881.198	-11.95
881.37	-54.95
881.542	-22.19
881.714	12.63
881.886	35.16
882.058	24.92
882.23	4.44
882.402	10.58
882.574	43.35
882.746	6.49
882.918	18.77
883.09	37.2
883.262	-9.9
883.434	0.34
883.606	-61.1
883.778	51.54
883.95	104.79
884.122	-5.8
884.293	-46.76
884.465	39.25
884.637	10.58
884.809	-46.76
884.98	-5.8
885.152	-20.14
885.324	-44.71
885.496	-54.95
885.667	86.36
885.839	-11.95
886.011	-9.9
886.182	-5.8
886.354	-36.52
886.525	26.96
886.697	-3.75
886.869	-30.38
887.04	-63.15
887.212	37.2
887.383	45.4
887.555	88.4
887.726	35.16
887.897	-5.8
888.069	49.49
888.24	26.96
888.412	14.68
888.583	-18.09
888.754	37.2
888.926	-7.85
889.097	67.92
889.268	-46.76
889.44	51.54
889.611	-40.62
889.782	20.82
889.953	-34.47
890.125	-30.38
890.296	-18.09
890.467	10.58
890.638	12.63
890.809	-28.33
890.98	-13.99
891.151	55.64
891.323	41.3
891.494	-24.23
891.665	47.44
891.836	-3.75
892.007	12.63
892.178	0.34
892.349	31.06
892.52	18.77
892.691	-110.25
892.862	16.73
893.032	-26.28
893.203	14.68
893.374	-28.33
893.545	49.49
893.716	16.73
893.887	31.06
894.057	-67.24
894.228	8.53
894.399	4.44
894.57	63.83
894.74	-46.76
894.911	-20.14
895.082	-7.85
895.253	49.49
895.423	4.44
895.594	43.35
895.764	31.06
895.935	-36.52
896.106	-18.09
896.276	-30.38
896.447	-40.62
896.617	26.96
896.788	-71.34
896.958	-11.95
897.129	-32.43
897.299	-50.86
897.47	-11.95
897.64	33.11
897.81	-59.05
897.981	53.59
898.151	6.49
898.322	24.92
898.492	-9.9
898.662	-3.75
898.832	0.34
899.003	14.68
899.173	6.49
899.343	-26.28
899.513	-7.85
