Data from USB4F104151__79__13-12-29-193.txt Node

Date: Fri Mar 14 13:12:29 EDT 2025
User: louis
Spectrometer: USB4F10415
Trigger mode: 4
Integration Time (sec): 2.000000E-2
Scans to average: 1
Electric dark correction enabled: true
Nonlinearity correction enabled: false
Boxcar width: 0
XAxis mode: Wavelengths
Number of Pixels in Spectrum: 3648
>>>>>Begin Spectral Data<<<<<
178.204	-24.06
178.424	-24.06
178.644	-24.06
178.864	-112.13
179.084	-151.04
179.304	59.9
179.524	-69.12
179.744	12.8
179.964	70.14
180.184	-30.21
180.404	-46.59
180.624	29.18
180.844	12.8
181.064	-50.69
181.283	8.7
181.503	-7.68
181.723	10.75
181.943	-67.07
182.163	20.99
182.383	-87.55
182.602	2.56
182.822	37.38
183.042	27.14
183.262	2.56
183.482	25.09
183.701	51.71
183.921	-34.3
184.141	66.05
184.361	29.18
184.58	-19.97
184.8	-11.78
185.02	-13.82
185.239	47.62
185.459	-13.82
185.679	82.43
185.898	-38.4
186.118	10.75
186.338	-26.11
186.557	0.51
186.777	-38.4
186.997	-32.26
187.216	35.33
187.436	6.66
187.655	96.77
187.875	39.42
188.095	12.8
188.314	100.86
188.534	-7.68
188.753	10.75
188.973	82.43
189.192	18.94
189.412	74.24
189.631	29.18
189.851	29.18
190.07	70.14
190.29	4.61
190.509	29.18
190.729	-24.06
190.948	-30.21
191.168	94.72
191.387	109.05
191.607	-32.26
191.826	76.29
192.045	39.42
192.265	27.14
192.484	20.99
192.704	10.75
192.923	31.23
193.142	41.47
193.362	57.86
193.581	37.38
193.8	20.99
194.02	-11.78
194.239	-15.87
194.458	-34.3
194.678	-34.3
194.897	-19.97
195.116	49.66
195.335	41.47
195.555	-46.59
195.774	107.01
195.993	10.75
196.212	-73.21
196.432	-52.74
196.651	-11.78
196.87	-38.4
197.089	49.66
197.308	23.04
197.528	37.38
197.747	18.94
197.966	-40.45
198.185	41.47
198.404	25.09
198.623	41.47
198.842	-19.97
199.062	27.14
199.281	-5.63
199.5	-11.78
199.719	80.38
199.938	4.61
200.157	98.81
200.376	-13.82
200.595	68.09
200.814	37.38
201.033	-71.17
201.252	-34.3
201.471	4.61
201.69	0.51
201.909	-34.3
202.128	-13.82
202.347	33.28
202.566	-9.73
202.785	-22.02
203.004	-7.68
203.223	53.76
203.442	-15.87
203.661	43.52
203.879	4.61
204.098	-22.02
204.317	-15.87
204.536	-44.54
204.755	-24.06
204.974	57.86
205.193	-73.21
205.411	88.57
205.63	12.8
205.849	86.53
206.068	18.94
206.287	39.42
206.505	49.66
206.724	41.47
206.943	14.85
207.162	16.9
207.381	14.85
207.599	41.47
207.818	27.14
208.037	-11.78
208.255	84.48
208.474	-9.73
208.693	-19.97
208.911	25.09
209.13	37.38
209.349	74.24
209.567	74.24
209.786	8.7
210.005	57.86
210.223	16.9
210.442	-48.64
210.661	47.62
210.879	4.61
211.098	4.61
211.316	29.18
211.535	113.15
211.753	64
211.972	-28.16
212.191	-38.4
212.409	2.56
212.628	2.56
212.846	-22.02
213.065	43.52
213.283	51.71
213.502	-81.41
213.72	4.61
213.938	29.18
214.157	-36.35
214.375	6.66
214.594	39.42
214.812	-13.82
215.031	12.8
215.249	-44.54
215.467	10.75
215.686	33.28
215.904	78.33
216.122	-5.63
216.341	90.62
216.559	8.7
216.778	4.61
216.996	4.61
217.214	-22.02
217.432	29.18
217.651	-15.87
217.869	0.51
218.087	20.99
218.306	-9.73
218.524	-13.82
218.742	16.9
218.96	0.51
219.179	25.09
219.397	-62.98
219.615	74.24
219.833	2.56
220.051	-9.73
220.27	66.05
220.488	45.57
220.706	29.18
220.924	16.9
221.142	-52.74
221.36	-7.68
221.578	23.04
221.796	-3.58
222.015	-42.5
222.233	90.62
222.451	74.24
222.669	-5.63
222.887	84.48
223.105	-62.98
223.323	-17.92
223.541	53.76
223.759	82.43
223.977	-22.02
224.195	8.7
224.413	-15.87
224.631	43.52
224.849	-9.73
225.067	27.14
225.285	-89.6
225.503	-38.4
225.721	-30.21
225.939	20.99
226.157	84.48
226.375	109.05
226.592	12.8
226.81	0.51
227.028	12.8
227.246	111.1
227.464	51.71
227.682	-1.54
227.9	-9.73
228.117	-24.06
228.335	43.52
228.553	90.62
228.771	12.8
228.989	35.33
229.206	4.61
229.424	-30.21
229.642	-26.11
229.86	-11.78
230.077	2.56
230.295	-11.78
230.513	-36.35
230.731	8.7
230.948	31.23
231.166	8.7
231.384	-26.11
231.601	29.18
231.819	-24.06
232.037	-54.78
232.254	-19.97
232.472	72.19
232.689	-22.02
232.907	59.9
233.125	-15.87
233.342	-32.26
233.56	20.99
233.777	2.56
233.995	10.75
234.213	43.52
234.43	37.38
234.648	68.09
234.865	-11.78
235.083	70.14
235.3	18.94
235.518	25.09
235.735	41.47
235.953	61.95
236.17	-19.97
236.388	18.94
236.605	-44.54
236.822	33.28
237.04	43.52
237.257	-24.06
237.475	-34.3
237.692	45.57
237.909	-15.87
238.127	4.61
238.344	57.86
238.562	14.85
238.779	4.61
238.996	-89.6
239.214	-5.63
239.431	0.51
239.648	-54.78
239.865	57.86
240.083	59.9
240.3	-24.06
240.517	0.51
240.735	-13.82
240.952	14.85
241.169	113.15
241.386	37.38
241.603	-3.58
241.821	6.66
242.038	45.57
242.255	84.48
242.472	-5.63
242.689	-7.68
242.907	20.99
243.124	-48.64
243.341	64
243.558	18.94
243.775	27.14
243.992	20.99
244.209	0.51
244.426	-9.73
244.643	-30.21
244.86	-22.02
245.078	-38.4
245.295	18.94
245.512	115.2
245.729	-15.87
245.946	45.57
246.163	74.24
246.38	-11.78
246.597	57.86
246.814	90.62
247.031	-46.59
247.248	74.24
247.464	92.67
247.681	43.52
247.898	-46.59
248.115	27.14
248.332	6.66
248.549	43.52
248.766	109.05
248.983	14.85
249.2	37.38
249.417	53.76
249.633	53.76
249.85	8.7
250.067	-46.59
250.284	45.57
250.501	4.61
250.717	84.48
250.934	-71.17
251.151	33.28
251.368	57.86
251.585	-40.45
251.801	-28.16
252.018	10.75
252.235	92.67
252.451	6.66
252.668	25.09
252.885	61.95
253.102	-5.63
253.318	78.33
253.535	4.61
253.752	-60.93
253.968	49.66
254.185	18.94
254.401	0.51
254.618	27.14
254.835	0.51
255.051	45.57
255.268	27.14
255.484	-7.68
255.701	33.28
255.917	45.57
256.134	86.53
256.351	23.04
256.567	-22.02
256.784	12.8
257	6.66
257.217	70.14
257.433	-48.64
257.65	33.28
257.866	-5.63
258.082	45.57
258.299	-44.54
258.515	25.09
258.732	14.85
258.948	-26.11
259.165	68.09
259.381	0.51
259.597	43.52
259.814	49.66
260.03	41.47
260.246	-58.88
260.463	-7.68
260.679	86.53
260.895	49.66
261.112	-7.68
261.328	-34.3
261.544	25.09
261.761	45.57
261.977	4.61
262.193	-7.68
262.409	35.33
262.626	-36.35
262.842	23.04
263.058	-48.64
263.274	29.18
263.49	-40.45
263.707	8.7
263.923	70.14
264.139	-9.73
264.355	4.61
264.571	100.86
264.787	80.38
265.004	0.51
265.22	37.38
265.436	59.9
265.652	-26.11
265.868	70.14
266.084	-19.97
266.3	72.19
266.516	12.8
266.732	16.9
266.948	33.28
267.164	43.52
267.38	37.38
267.596	-5.63
267.812	61.95
268.028	18.94
268.244	-13.82
268.46	41.47
268.676	8.7
268.892	37.38
269.108	-73.21
269.324	76.29
269.54	27.14
269.756	92.67
269.972	-7.68
270.188	-54.78
270.403	0.51
270.619	-3.58
270.835	-3.58
271.051	10.75
271.267	-30.21
271.483	8.7
271.698	49.66
271.914	109.05
272.13	12.8
272.346	31.23
272.562	23.04
272.777	41.47
272.993	37.38
273.209	27.14
273.425	12.8
273.64	-13.82
273.856	-11.78
274.072	-24.06
274.287	4.61
274.503	59.9
274.719	2.56
274.934	-7.68
275.15	-67.07
275.366	35.33
275.581	8.7
275.797	39.42
276.012	68.09
276.228	27.14
276.444	27.14
276.659	53.76
276.875	43.52
277.09	-22.02
277.306	-50.69
277.521	-3.58
277.737	14.85
277.952	86.53
278.168	10.75
278.383	61.95
278.599	10.75
278.814	20.99
279.03	-13.82
279.245	94.72
279.461	25.09
279.676	92.67
279.892	25.09
280.107	16.9
280.322	27.14
280.538	51.71
280.753	72.19
280.969	18.94
281.184	39.42
281.399	0.51
281.615	64
281.83	16.9
282.045	0.51
282.26	41.47
282.476	33.28
282.691	64
282.906	37.38
283.122	-5.63
283.337	27.14
283.552	49.66
283.767	68.09
283.983	49.66
284.198	25.09
284.413	82.43
284.628	-11.78
284.843	35.33
285.058	27.14
285.274	53.76
285.489	-22.02
285.704	39.42
285.919	18.94
286.134	-3.58
286.349	25.09
286.564	-32.26
286.779	16.9
286.995	102.91
287.21	33.28
287.425	68.09
287.64	33.28
287.855	33.28
288.07	8.7
288.285	12.8
288.5	74.24
288.715	-44.54
288.93	-77.31
289.145	-56.83
289.36	20.99
289.575	-28.16
289.79	49.66
290.004	33.28
290.219	57.86
290.434	35.33
290.649	27.14
290.864	-60.93
291.079	-15.87
291.294	25.09
291.509	41.47
291.724	16.9
291.938	18.94
292.153	-13.82
292.368	35.33
292.583	2.56
292.798	72.19
293.012	-22.02
293.227	-5.63
293.442	18.94
293.657	76.29
293.871	64
294.086	2.56
294.301	115.2
294.516	10.75
294.73	55.81
294.945	41.47
295.16	16.9
295.374	82.43
295.589	-11.78
295.804	20.99
296.018	-30.21
296.233	121.34
296.447	18.94
296.662	20.99
296.877	43.52
297.091	29.18
297.306	29.18
297.52	-17.92
297.735	43.52
297.949	68.09
298.164	6.66
298.378	2.56
298.593	-30.21
298.807	98.81
299.022	6.66
299.236	66.05
299.451	18.94
299.665	10.75
299.88	-54.78
300.094	-38.4
300.309	-24.06
300.523	121.34
300.737	43.52
300.952	25.09
301.166	66.05
301.381	2.56
301.595	12.8
301.809	-54.78
302.024	-36.35
302.238	18.94
302.452	100.86
302.667	-42.5
302.881	59.9
303.095	16.9
303.309	-15.87
303.524	29.18
303.738	10.75
303.952	-13.82
304.166	25.09
304.381	-54.78
304.595	53.76
304.809	-3.58
305.023	25.09
305.237	59.9
305.452	25.09
305.666	51.71
305.88	20.99
306.094	72.19
306.308	33.28
306.522	107.01
306.736	80.38
306.95	27.14
307.164	-28.16
307.379	10.75
307.593	14.85
307.807	57.86
308.021	10.75
308.235	-7.68
308.449	66.05
308.663	0.51
308.877	45.57
309.091	70.14
309.305	39.42
309.519	-15.87
309.733	23.04
309.947	51.71
310.161	0.51
310.374	20.99
310.588	94.72
310.802	31.23
311.016	68.09
311.23	84.48
311.444	-46.59
311.658	-75.26
311.872	74.24
312.085	51.71
312.299	47.62
312.513	84.48
312.727	84.48
312.941	-3.58
313.154	18.94
313.368	90.62
313.582	41.47
313.796	-1.54
314.009	-30.21
314.223	-1.54
314.437	-44.54
314.651	96.77
314.864	-24.06
315.078	-7.68
315.292	-15.87
315.505	12.8
315.719	-11.78
315.933	-5.63
316.146	-19.97
316.36	-38.4
316.573	102.91
316.787	31.23
317.001	51.71
317.214	33.28
317.428	-26.11
317.641	8.7
317.855	-17.92
318.068	-52.74
318.282	2.56
318.495	143.87
318.709	-15.87
318.922	57.86
319.136	49.66
319.349	70.14
319.563	-24.06
319.776	-40.45
319.99	-56.83
320.203	47.62
320.417	25.09
320.63	-5.63
320.843	37.38
321.057	53.76
321.27	-24.06
321.483	23.04
321.697	59.9
321.91	68.09
322.124	53.76
322.337	-19.97
322.55	-24.06
322.763	-9.73
322.977	37.38
323.19	-50.69
323.403	33.28
323.617	-15.87
323.83	25.09
324.043	59.9
324.256	20.99
324.469	6.66
324.683	-42.5
324.896	37.38
325.109	18.94
325.322	-24.06
325.535	10.75
325.748	-7.68
325.962	37.38
326.175	59.9
326.388	-46.59
326.601	66.05
326.814	8.7
327.027	92.67
327.24	0.51
327.453	18.94
327.666	49.66
327.879	18.94
328.092	66.05
328.305	76.29
328.518	-15.87
328.731	61.95
328.944	10.75
329.157	90.62
329.37	23.04
329.583	94.72
329.796	20.99
330.009	20.99
330.222	45.57
330.435	2.56
330.648	18.94
330.861	33.28
331.073	8.7
331.286	0.51
331.499	25.09
331.712	20.99
331.925	2.56
332.138	31.23
332.35	25.09
332.563	-3.58
332.776	-19.97
332.989	25.09
333.202	41.47
333.414	12.8
333.627	23.04
333.84	27.14
334.053	8.7
334.265	-5.63
334.478	-7.68
334.691	-7.68
334.903	-7.68
335.116	18.94
335.329	49.66
335.541	84.48
335.754	64
335.966	-60.93
336.179	4.61
336.392	-75.26
336.604	18.94
336.817	-19.97
337.029	39.42
337.242	94.72
337.454	94.72
337.667	59.9
337.88	109.05
338.092	25.09
338.305	35.33
338.517	41.47
338.729	-30.21
338.942	27.14
339.154	37.38
339.367	27.14
339.579	45.57
339.792	-11.78
340.004	74.24
340.217	31.23
340.429	31.23
340.641	27.14
340.854	4.61
341.066	66.05
341.278	41.47
341.491	29.18
341.703	27.14
341.915	45.57
342.128	82.43
342.34	86.53
342.552	-9.73
342.764	29.18
342.977	-3.58
343.189	27.14
343.401	66.05
343.613	-28.16
343.826	8.7
344.038	4.61
344.25	14.85
344.462	51.71
344.674	10.75
344.886	2.56
345.099	57.86
345.311	20.99
345.523	-13.82
345.735	-11.78
345.947	57.86
346.159	25.09
346.371	98.81
346.583	53.76
346.795	49.66
347.007	4.61
347.219	41.47
347.431	12.8
347.643	2.56
347.855	-15.87
348.067	35.33
348.279	27.14
348.491	47.62
348.703	68.09
348.915	31.23
349.127	6.66
349.339	2.56
349.551	20.99
349.763	0.51
349.975	45.57
350.187	-24.06
350.399	88.57
350.61	-1.54
350.822	33.28
351.034	37.38
351.246	-15.87
351.458	78.33
351.669	29.18
351.881	-15.87
352.093	84.48
352.305	14.85
352.517	18.94
352.728	59.9
352.94	49.66
353.152	37.38
353.363	12.8
353.575	104.96
353.787	102.91
353.999	-62.98
354.21	43.52
354.422	45.57
354.633	0.51
354.845	43.52
355.057	78.33
355.268	33.28
355.48	29.18
355.692	16.9
355.903	37.38
356.115	18.94
356.326	-15.87
356.538	25.09
356.749	35.33
356.961	51.71
357.172	45.57
357.384	57.86
357.595	74.24
357.807	72.19
358.018	4.61
358.23	37.38
358.441	29.18
358.653	39.42
358.864	-38.4
359.075	57.86
359.287	2.56
359.498	27.14
359.709	68.09
359.921	49.66
360.132	-7.68
360.344	43.52
360.555	66.05
360.766	25.09
360.977	20.99
361.189	20.99
361.4	57.86
361.611	-24.06
361.823	-15.87
362.034	27.14
362.245	25.09
362.456	53.76
362.667	-3.58
362.879	35.33
363.09	-28.16
363.301	80.38
363.512	-7.68
363.723	59.9
363.935	49.66
364.146	76.29
364.357	49.66
364.568	64
364.779	-38.4
364.99	98.81
365.201	-1.54
365.412	72.19
365.623	39.42
365.834	59.9
366.045	-1.54
366.256	20.99
366.467	53.76
366.678	49.66
366.889	10.75
367.1	-32.26
367.311	49.66
367.522	35.33
367.733	-24.06
367.944	76.29
368.155	8.7
368.366	18.94
368.577	14.85
368.788	2.56
368.999	-28.16
369.209	76.29
369.42	111.1
369.631	72.19
369.842	74.24
370.053	43.52
370.264	33.28
370.474	-9.73
370.685	33.28
370.896	-5.63
371.107	55.81
371.317	4.61
371.528	37.38
371.739	59.9
371.95	-24.06
372.16	27.14
372.371	18.94
372.582	-62.98
372.792	66.05
373.003	41.47
373.214	27.14
373.424	-1.54
373.635	20.99
373.846	33.28
374.056	43.52
374.267	45.57
374.477	6.66
374.688	2.56
374.898	16.9
375.109	57.86
375.319	14.85
375.53	109.05
375.74	80.38
375.951	53.76
376.161	2.56
376.372	57.86
376.582	-85.5
376.793	31.23
377.003	10.75
377.214	78.33
377.424	-22.02
377.635	23.04
377.845	4.61
378.055	66.05
378.266	27.14
378.476	12.8
378.686	4.61
378.897	41.47
379.107	-28.16
379.317	27.14
379.528	102.91
379.738	18.94
379.948	25.09
380.158	-15.87
380.369	47.62
380.579	86.53
380.789	29.18
380.999	25.09
381.21	41.47
381.42	59.9
381.63	-5.63
381.84	23.04
382.05	8.7
382.261	35.33
382.471	25.09
382.681	-30.21
382.891	-34.3
383.101	16.9
383.311	-13.82
383.521	43.52
383.731	18.94
383.941	43.52
384.151	31.23
384.361	-54.78
384.571	6.66
384.781	31.23
384.991	92.67
385.201	104.96
385.411	76.29
385.621	27.14
385.831	59.9
386.041	33.28
386.251	45.57
386.461	64
386.671	0.51
386.881	-24.06
387.091	57.86
387.301	49.66
387.511	90.62
387.72	6.66
387.93	45.57
388.14	-48.64
388.35	-19.97
388.56	20.99
388.769	53.76
388.979	23.04
389.189	-1.54
389.399	41.47
389.609	14.85
389.818	49.66
390.028	33.28
390.238	-3.58
390.447	125.44
390.657	59.9
390.867	29.18
391.076	-40.45
391.286	12.8
391.496	68.09
391.705	-13.82
391.915	49.66
392.125	94.72
392.334	64
392.544	80.38
392.753	45.57
392.963	31.23
393.172	33.28
393.382	29.18
393.591	68.09
393.801	-3.58
394.01	57.86
394.22	104.96
394.429	43.52
394.639	55.81
394.848	152.06
395.058	53.76
395.267	49.66
395.477	55.81
395.686	43.52
395.895	107.01
396.105	109.05
396.314	72.19
396.524	66.05
396.733	47.62
396.942	53.76
397.152	59.9
397.361	47.62
397.57	96.77
397.78	84.48
397.989	82.43
398.198	121.34
398.407	72.19
398.617	98.81
398.826	53.76
399.035	94.72
399.244	117.25
399.453	96.77
399.663	43.52
399.872	43.52
400.081	64
400.29	109.05
400.499	31.23
400.708	98.81
400.917	59.9
401.127	29.18
401.336	98.81
401.545	131.58
401.754	82.43
401.963	59.9
402.172	92.67
402.381	49.66
402.59	98.81
402.799	139.77
403.008	18.94
403.217	125.44
403.426	96.77
403.635	115.2
403.844	74.24
404.053	115.2
404.262	133.63
404.471	131.58
404.68	119.29
404.888	92.67
405.097	133.63
405.306	147.97
405.515	117.25
405.724	137.73
405.933	88.57
406.142	147.97
406.35	150.01
406.559	133.63
406.768	143.87
406.977	143.87
407.185	86.53
407.394	133.63
407.603	152.06
407.812	84.48
408.02	240.12
408.229	119.29
408.438	125.44
408.646	176.64
408.855	225.79
409.064	211.45
409.272	242.17
409.481	201.21
409.69	176.64
409.898	223.74
410.107	221.69
410.315	287.23
410.524	205.31
410.733	283.13
410.941	254.46
411.15	285.18
411.358	274.94
411.567	350.71
411.775	295.42
411.984	311.8
412.192	272.89
412.401	352.76
412.609	371.19
412.818	403.96
413.026	381.43
413.234	393.72
413.443	363
413.651	479.74
413.86	395.77
414.068	459.26
414.276	545.27
414.485	438.78
414.693	541.18
414.901	543.22
415.11	623.09
415.318	551.42
415.526	610.81
415.734	668.15
415.943	664.05
416.151	614.9
416.359	616.95
416.567	707.06
416.776	729.59
416.984	829.94
417.192	852.47
417.4	737.78
417.608	745.97
417.817	838.13
418.025	969.2
418.233	911.86
418.441	899.57
418.649	1065.46
418.857	1038.83
419.065	1122.8
419.273	1057.26
419.481	1001.97
419.689	1108.46
419.897	1247.72
420.105	1270.25
420.313	1278.44
420.521	1253.87
420.729	1307.12
420.937	1300.97
421.145	1348.08
421.353	1516.01
421.561	1569.26
421.769	1571.3
421.977	1585.64
422.185	1589.74
422.393	1812.96
422.601	1829.35
422.809	1909.22
423.017	1896.93
423.224	1925.6
423.432	1980.9
423.64	2085.34
423.848	2148.83
424.056	2163.17
424.263	2310.62
424.471	2294.24
424.679	2410.97
424.887	2425.31
425.094	2419.16
425.302	2654.68
425.51	2662.87
425.718	2795.99
425.925	2793.94
426.133	2839
426.341	2939.35
426.548	3181.01
426.756	3062.23
426.964	3144.14
427.171	3459.53
427.379	3443.15
427.586	3504.59
427.794	3830.21
428.001	3891.65
428.209	3949
428.417	3809.73
428.624	4155.84
428.832	4213.18
429.039	4184.51
429.247	4219.33
429.454	4536.76
429.662	4866.49
429.869	4532.67
430.076	4843.96
430.284	4852.15
430.491	4882.87
430.699	5226.93
430.906	5169.59
431.114	5185.97
431.321	5392.81
431.528	5540.27
431.736	5970.34
431.943	6115.75
432.15	6242.72
432.358	6171.04
432.565	6424.99
432.772	6511
432.979	6771.1
433.187	6803.86
433.394	6875.54
433.601	7276.94
433.808	7391.63
434.016	7397.78
434.223	7752.07
434.43	8153.48
434.637	7940.49
434.844	8495.49
435.052	8604.03
435.259	8558.97
435.466	8651.13
435.673	8534.4
435.88	9111.92
436.087	9660.78
436.294	9671.02
436.501	9357.68
436.708	9650.54
436.915	9949.54
437.122	10432.86
437.329	10465.63
437.537	10946.9
437.743	10883.42
437.95	10781.02
438.157	11510.1
438.364	11653.45
438.571	11698.51
438.778	11645.26
438.985	12697.92
439.192	12366.15
439.399	12796.22
439.606	12329.28
439.813	13353.27
440.02	13889.84
440.227	13781.29
440.433	13533.49
440.64	14041.39
440.847	13769.01
441.054	14391.59
441.261	15132.95
441.467	14977.31
441.674	15452.44
441.881	15941.9
442.088	15931.66
442.294	16001.29
442.501	16197.9
442.708	16455.94
442.914	17088.76
443.121	17955.05
443.328	17490.17
443.534	18755.81
443.741	17967.34
443.948	17799.41
444.154	19052.77
444.361	19294.43
444.568	19314.91
444.774	19001.57
444.981	19392.73
445.187	19642.58
445.394	21113.02
445.6	20553.93
445.807	22706.34
446.013	21692.6
446.22	22077.62
446.426	22943.91
446.633	23351.45
446.839	23902.36
447.046	22583.46
447.252	24260.75
447.459	23965.84
447.665	23916.69
447.871	25309.31
448.078	26263.66
448.284	24723.59
448.491	25581.69
448.697	26959.97
448.903	27263.07
449.11	27504.73
449.316	26933.35
449.522	27244.64
449.728	28334.16
449.935	28012.63
450.141	28385.36
450.347	29280.32
450.553	27928.66
450.76	28475.47
450.966	29458.49
451.172	29093.96
451.378	29827.13
451.584	29567.04
451.791	30173.24
451.997	29968.44
452.203	30353.46
452.409	30787.63
452.615	30165.04
452.821	29395.01
453.027	28995.65
453.233	30670.89
453.44	29497.41
453.646	29937.72
453.852	29880.38
454.058	30494.77
454.264	29261.89
454.47	30363.7
454.676	29675.58
454.882	30623.79
455.088	27701.34
455.294	28182.61
455.5	28651.59
455.705	29112.39
455.911	27906.13
456.117	27428.96
456.323	27136.1
456.529	25716.86
456.735	26833
456.941	26355.82
457.147	25499.77
457.352	25141.38
457.558	24600.71
457.764	24619.14
457.97	24248.46
458.176	24025.23
458.381	23941.27
458.587	22458.54
458.793	22495.4
458.999	21342.39
459.204	23064.74
459.41	22329.52
459.616	20852.93
459.821	20863.17
460.027	20867.27
460.233	20265.16
460.438	19284.19
460.644	19476.69
460.85	18620.64
461.055	18372.84
461.261	18247.91
461.466	17094.91
461.672	16605.44
461.878	17590.52
462.083	16646.4
462.289	16013.58
462.494	15902.99
462.7	15223.06
462.905	14854.43
463.111	15327.51
463.316	15798.54
463.522	14960.92
463.727	14944.54
463.932	14991.64
464.138	15114.52
464.343	15010.07
464.549	14625.06
464.754	14852.38
464.959	14819.61
465.165	14700.83
465.37	14182.7
465.575	13824.3
465.781	14420.26
465.986	14569.76
466.191	13908.27
466.397	13496.63
466.602	13140.28
466.807	13302.07
467.012	13517.11
467.218	13375.8
467.423	13166.9
467.628	13373.75
467.833	13926.7
468.038	13306.16
468.244	12857.66
468.449	13791.53
468.654	13197.62
468.859	12960.06
469.064	13113.66
469.269	12380.48
469.474	12517.7
469.679	12681.53
469.885	12415.3
470.09	12732.73
470.295	12296.52
470.5	12325.19
470.705	12439.87
470.91	11841.87
471.115	12095.82
471.32	12233.03
471.525	12042.57
471.73	11718.99
471.935	11751.76
472.139	11215.19
472.344	11569.49
472.549	11446.61
472.754	11237.72
472.959	11026.78
473.164	10652
473.369	10647.9
473.574	11016.54
473.778	10928.47
473.983	10975.58
474.188	10994.01
474.393	10320.23
474.598	10520.93
474.802	10277.22
475.007	10248.55
475.212	10242.4
475.417	9705.84
475.621	9877.87
475.826	10066.28
476.031	9646.44
476.235	9400.69
476.44	9681.26
476.645	9560.43
476.849	9398.64
477.054	9267.57
477.259	9130.36
477.463	9093.49
477.668	8872.31
477.872	9111.92
478.077	8917.37
478.282	8743.29
478.486	8604.03
478.691	8661.37
478.895	8511.87
479.1	8411.52
479.304	8290.69
479.509	8307.07
479.713	8384.9
479.918	8190.34
480.122	8118.66
480.326	8243.59
480.531	8386.94
480.735	8163.72
480.94	8053.13
481.144	8249.73
481.348	7930.25
481.553	8001.93
481.757	7901.58
481.961	8008.07
482.166	7960.97
482.37	7940.49
482.574	7917.96
482.778	7743.88
482.983	7971.21
483.187	7780.75
483.391	7924.1
483.595	7813.51
483.8	7629.2
484.004	7969.16
484.208	7840.14
484.412	7793.03
484.616	7969.16
484.821	7864.71
485.025	7668.11
485.229	7752.07
485.433	7692.68
485.637	7901.58
485.841	7629.2
486.045	7721.35
486.249	7823.75
486.453	7629.2
486.657	7776.65
486.861	7922.06
487.065	7606.67
487.269	7743.88
487.473	7537.04
487.677	7799.18
487.881	8077.7
488.085	7885.19
488.289	7844.23
488.493	7752.07
488.697	7778.7
488.901	7782.79
489.105	7782.79
489.309	7954.82
489.512	7975.3
489.716	7891.34
489.92	7844.23
490.124	7836.04
490.328	8124.8
490.531	8061.32
490.735	7922.06
490.939	8036.74
491.143	8063.36
491.346	8071.56
491.55	8122.76
491.754	8003.97
491.958	8208.77
492.161	8333.7
492.365	8067.46
492.569	8073.6
492.772	8077.7
492.976	8196.48
493.18	8372.61
493.383	8554.88
493.587	8388.99
493.79	8581.5
493.994	8386.94
494.197	8522.11
494.401	8737.15
494.605	8601.98
494.808	8843.64
495.012	8716.67
495.215	8544.64
495.419	8894.84
495.622	8948.09
495.825	9083.25
496.029	8919.42
496.232	9238.9
496.436	9329.01
496.639	9501.04
496.843	9263.47
497.046	9558.38
497.249	9617.77
497.453	9836.91
497.656	9744.75
497.859	9730.41
498.063	9855.34
498.266	10117.48
498.469	10043.75
498.673	10185.06
498.876	10414.43
499.079	10326.37
499.282	10322.27
499.485	10809.69
499.689	10692.96
499.892	10803.55
500.095	10850.65
500.298	11145.56
500.501	11047.26
500.705	11436.37
500.908	11241.81
501.111	11563.34
501.314	11716.94
501.517	11768.14
501.72	11960.65
501.923	11739.47
502.126	12222.79
502.329	12454.21
502.532	12360
502.735	12366.15
502.938	12659.01
503.141	12556.61
503.344	13009.21
503.547	12978.49
503.75	13328.69
503.953	13363.51
504.156	13414.71
504.359	13961.51
504.562	13476.15
504.765	13973.8
504.968	14039.34
505.17	14154.02
505.373	14227.75
505.576	14391.59
505.779	14790.94
505.982	14741.79
506.185	14782.75
506.387	15100.19
506.59	15110.43
506.793	15472.92
506.996	15409.43
507.198	15585.55
507.401	15776.02
507.604	15880.46
507.807	16146.7
508.009	16144.65
508.212	16541.96
508.415	16625.92
508.617	16994.56
508.82	16888.06
509.022	16922.88
509.225	17238.26
509.428	17555.7
509.63	17768.69
509.833	17502.45
510.035	18084.08
510.238	17889.52
510.44	18305.26
510.643	18645.22
510.845	18637.03
511.048	18301.16
511.25	18784.48
511.453	18911.46
511.655	19749.07
511.858	19411.16
512.06	19345.62
512.262	19837.14
512.465	19861.71
512.667	20064.46
512.87	20080.85
513.072	20160.72
513.274	20828.35
513.477	20850.88
513.679	21199.04
513.881	21139.65
514.084	21563.57
514.286	21426.36
514.488	21737.65
514.69	22241.45
514.893	22515.88
515.095	22538.41
515.297	22374.57
515.499	22649
515.701	22702.25
515.904	23466.14
516.106	23294.11
516.308	23296.16
516.51	23791.76
516.712	23789.72
516.914	24326.28
517.116	24631.43
517.318	24440.97
517.52	24617.1
517.722	24479.88
517.925	25143.42
518.127	25493.63
518.329	25528.44
518.531	25067.65
518.733	25821.3
518.935	26396.78
519.136	26452.08
519.338	26636.39
519.54	26867.81
519.742	26816.61
519.944	27027.56
520.146	27295.84
520.348	27299.94
520.55	27332.7
520.752	27670.62
520.954	28254.29
521.155	28348.5
521.357	28227.67
521.559	28262.48
521.761	29083.72
521.963	28786.76
522.164	28858.44
522.366	29337.66
522.568	29276.23
522.77	29534.27
522.971	30044.21
523.173	30322.74
523.375	30382.13
523.576	30156.85
523.778	30343.22
523.98	30689.32
524.181	30867.5
524.383	30787.63
524.584	31197.22
524.786	31553.57
524.988	31186.98
525.189	31068.2
525.391	31492.13
525.592	31932.44
525.794	32104.47
525.995	31881.24
526.197	31936.54
526.398	32194.58
526.6	32317.46
526.801	32819.21
527.003	32426
527.204	32389.14
527.406	32960.52
527.607	33042.44
527.808	33382.4
528.01	32835.59
528.211	33187.85
528.412	33734.65
528.614	33406.98
528.815	33660.93
529.016	33767.42
529.218	33492.99
529.419	33957.88
529.62	34021.37
529.822	33636.35
530.023	33585.15
530.224	34015.22
530.425	34062.33
530.626	33796.09
530.828	33773.56
531.029	34246.65
531.23	33980.41
531.431	33589.25
531.632	34172.92
531.833	34041.85
532.035	33921.02
532.236	34559.98
532.437	34478.07
532.638	34156.53
532.839	34383.86
533.04	34418.67
533.241	34369.52
533.442	34797.55
533.643	34693.1
533.844	34095.1
534.045	34617.33
534.246	34406.39
534.447	34787.31
534.648	34545.65
534.849	34435.06
535.05	34594.8
535.251	34721.77
535.451	34600.94
535.652	34770.93
535.853	34836.46
536.054	34439.15
536.255	34547.7
536.456	34105.34
536.657	35074.02
536.857	34373.62
537.058	34222.07
537.259	34725.87
537.46	34453.49
537.66	34602.99
537.861	34809.84
538.062	34596.85
538.263	34639.86
538.463	34631.66
538.664	34854.89
538.865	34858.99
539.065	35117.03
539.266	34234.36
539.466	35049.45
539.667	34265.08
539.868	34979.82
540.068	34291.7
540.269	34287.6
540.469	34738.16
540.67	34537.46
540.87	34387.96
541.071	34576.37
541.271	34717.68
541.472	34252.79
541.672	34308.08
541.873	34580.46
542.073	33802.24
542.274	34607.09
542.474	34629.62
542.675	34195.45
542.875	34961.39
543.075	34279.41
543.276	33734.65
543.476	34426.87
543.676	34320.37
543.877	34641.9
544.077	34316.28
544.277	34387.96
544.478	34506.74
544.678	34435.06
544.878	34119.67
545.078	33988.6
545.279	34138.1
545.479	34156.53
545.679	34058.23
545.879	34203.64
546.079	34316.28
546.28	34021.37
546.48	33722.37
546.68	34295.8
546.88	34007.03
547.08	34181.11
547.28	34207.73
547.48	34101.24
547.68	34273.27
547.88	33593.34
548.081	34514.93
548.281	34138.1
548.481	34035.7
548.681	34715.63
548.881	34299.89
549.081	34111.48
549.28	33626.11
549.48	34246.65
549.68	33910.78
549.88	34492.4
550.08	34017.27
550.28	34404.34
550.48	33992.7
550.68	34115.58
550.88	34148.34
551.08	34047.99
551.279	34301.94
551.479	33650.69
551.679	34347
551.879	33599.49
552.079	34170.87
552.278	33724.41
552.478	34056.18
552.678	33732.61
552.878	33943.55
553.077	33810.43
553.277	33945.59
553.477	34138.1
553.676	33716.22
553.876	33873.92
554.076	33947.64
554.275	33693.69
554.475	33237
554.674	33869.82
554.874	33910.78
555.074	33714.17
555.273	33560.58
555.473	33685.5
555.672	33341.44
555.872	33542.14
556.071	33533.95
556.271	33904.63
556.47	33722.37
556.67	33239.04
556.869	33378.31
557.068	33736.7
557.268	33269.76
557.467	33320.96
557.667	33185.8
557.866	32905.23
558.065	33034.25
558.265	33126.41
558.464	33304.58
558.663	33046.54
558.863	33239.04
559.062	33431.55
559.261	33128.45
559.461	33347.59
559.66	32663.57
559.859	33101.83
560.058	32442.38
560.258	33069.06
560.457	32516.11
560.656	32567.31
560.855	32477.2
561.054	32569.36
561.253	32516.11
561.453	32768.01
561.652	32679.95
561.851	32272.4
562.05	32325.65
562.249	32000.02
562.448	32727.05
562.647	32253.97
562.846	32258.07
563.045	32354.32
563.244	31834.14
563.443	32262.16
563.642	31649.82
563.841	32088.09
564.04	31823.9
564.239	31834.14
564.438	31764.51
564.637	31477.79
564.836	31793.18
565.035	31508.51
565.234	31703.07
565.432	31496.22
565.631	31037.48
565.83	31561.76
566.029	31369.25
566.228	31266.85
566.427	31356.96
566.625	31051.81
566.824	30781.48
567.023	31180.84
567.222	30752.81
567.42	31080.49
567.619	30732.33
567.818	30930.98
568.016	30967.85
568.215	31012.9
568.414	30451.76
568.612	31014.95
568.811	30263.35
569.01	30394.42
569.208	30201.91
569.407	30462
569.605	30007.35
569.804	30588.97
570.002	30103.6
570.201	30326.83
570.4	30015.54
570.598	29782.07
570.797	29765.69
570.995	29839.42
571.193	29573.18
571.392	29962.29
571.59	29499.45
571.789	29691.96
571.987	29481.02
572.186	29597.76
572.384	29147.2
572.582	29493.31
572.781	29575.23
572.979	29100.1
573.177	29270.08
573.376	29190.21
573.574	28868.68
573.772	29212.74
573.971	29003.85
574.169	28923.97
574.367	28534.86
574.565	28930.12
574.763	28790.86
574.962	28598.35
575.16	28649.55
575.358	28422.22
575.556	28002.39
575.754	28516.43
575.952	28047.44
576.151	28108.88
576.349	28094.55
576.547	28256.34
576.745	27820.12
576.943	27758.68
577.141	27754.58
577.339	27865.17
577.537	27977.81
577.735	27643.99
577.933	27474.01
578.131	27775.06
578.329	27904.09
578.527	27461.72
578.725	27549.79
578.923	27097.19
579.121	27297.89
579.319	26994.79
579.516	27193.44
579.714	27369.57
579.912	27132
580.11	27039.84
580.308	26955.88
580.506	26794.09
580.704	26339.44
580.901	26599.53
581.099	26714.22
581.297	26417.26
581.495	26595.43
581.692	26513.52
581.89	26017.91
582.088	26333.29
582.285	26345.58
582.483	26411.12
582.681	26404.97
582.878	26114.16
583.076	25935.99
583.274	26101.87
583.471	25849.97
583.669	26058.87
583.866	25671.8
584.064	25882.74
584.262	25550.97
584.459	25745.53
584.657	25565.31
584.854	25712.76
585.052	25180.29
585.249	25417.85
585.447	25149.57
585.644	25190.53
585.841	25133.18
586.039	25018.5
586.236	25051.27
586.434	24973.44
586.631	25041.03
586.828	24834.18
587.026	24758.41
587.223	24715.4
587.42	24619.14
587.618	24737.93
587.815	24543.37
588.012	24342.67
588.21	24477.83
588.407	24514.7
588.604	24279.18
588.801	24101.01
588.999	24115.34
589.196	24180.88
589.393	23957.65
589.59	24010.9
589.787	24152.21
589.984	23683.22
590.182	23556.25
590.379	23660.69
590.576	23355.55
590.773	23660.69
590.97	23470.23
591.167	23859.35
591.364	23169.18
591.561	23720.09
591.758	22954.15
591.955	23091.36
592.152	23171.23
592.349	23128.22
592.546	23230.62
592.743	23117.98
592.94	22880.42
593.137	22907.04
593.334	22853.8
593.531	22526.12
593.727	22575.27
593.924	22534.31
594.121	22163.63
594.318	22548.65
594.515	22153.39
594.712	22505.64
594.908	22249.64
595.105	22282.41
595.302	22081.71
595.499	22161.58
595.696	22094
595.892	21555.38
596.089	22069.42
596.286	21913.78
596.482	21848.24
596.679	22112.43
596.876	21713.08
597.072	21461.18
597.269	21524.66
597.466	21377.21
597.662	21295.29
597.859	21225.66
598.055	21371.07
598.252	21276.86
598.448	21426.36
598.645	21229.76
598.841	21045.44
599.038	20975.81
599.234	21020.86
599.431	20789.44
599.627	20891.84
599.824	20977.86
600.02	20703.43
600.217	20592.84
600.413	20560.07
600.609	20363.47
600.806	20564.17
601.002	20580.55
601.198	20443.34
601.395	20185.29
601.591	20318.41
601.787	20375.75
601.984	20111.57
602.18	20138.19
602.376	20355.27
602.572	20070.61
602.769	19947.73
602.965	19843.28
603.161	19968.21
603.357	19806.42
603.553	19445.98
603.75	19683.54
603.946	19323.1
604.142	19316.95
604.338	19339.48
604.534	19509.46
604.73	19099.87
604.926	19040.48
605.122	19200.22
605.318	19163.36
605.514	19089.63
605.71	18940.13
605.906	19091.68
606.102	18909.41
606.298	19048.67
606.494	18624.74
606.69	18800.87
606.886	18630.88
607.082	18477.29
607.278	18555.11
607.474	18526.44
607.67	18702.56
607.866	18340.07
608.062	18602.21
608.257	18436.33
608.453	18370.79
608.649	18366.7
608.845	18176.23
609.041	17977.58
609.236	18278.63
609.432	18143.47
609.628	18364.65
609.824	18036.97
610.019	18092.27
610.215	18233.58
610.411	17926.38
610.606	18032.88
610.802	18000.11
610.998	18143.47
611.193	17910
611.389	17828.08
611.584	18024.68
611.78	17686.77
611.976	17819.89
612.171	17953.01
612.367	17621.24
612.562	17400.05
612.758	17182.97
612.953	17543.41
613.149	17705.2
613.344	17498.36
613.539	17864.94
613.735	17375.48
613.93	17248.5
614.126	17342.71
614.321	17506.55
614.517	17402.1
614.712	17121.53
614.907	17244.41
615.103	17391.86
615.298	17193.21
615.493	17338.62
615.688	16638.21
615.884	17281.27
616.079	16969.98
616.274	16978.17
616.47	16810.24
616.665	16822.53
616.86	16836.86
617.055	16855.29
617.25	16845.05
617.445	16910.59
617.641	16677.12
617.836	16785.66
618.031	16482.56
618.226	16453.89
618.421	16605.44
618.616	16929.02
618.811	16132.36
619.006	16474.37
619.201	16220.42
619.396	16097.55
619.591	16015.63
619.786	16251.14
619.981	15927.56
620.176	16181.51
620.371	15880.46
620.566	16011.53
620.761	15806.73
620.956	15747.34
621.151	15589.65
621.346	15814.93
621.541	15216.92
621.735	15540.5
621.93	15343.89
622.125	15286.55
622.32	15290.65
622.515	15124.76
622.709	15081.75
622.904	14926.11
623.099	15089.95
623.294	15188.25
623.488	14770.46
623.683	14891.29
623.878	14381.35
624.072	14553.38
624.267	14424.36
624.462	14313.77
624.656	14219.56
624.851	14377.25
625.046	14240.04
625.24	14254.37
625.435	13975.85
625.629	14018.86
625.824	13838.64
626.018	13920.56
626.213	13726
626.407	13959.47
626.602	13486.39
626.796	13603.12
626.991	13539.63
627.185	13418.8
627.38	13263.16
627.574	13410.61
627.768	13150.52
627.963	13115.7
628.157	13209.91
628.352	13113.66
628.546	12841.28
628.74	12865.85
628.935	12681.53
629.129	12640.58
629.323	12826.94
629.517	12685.63
629.712	12448.07
629.906	12564.8
630.1	12665.15
630.294	12081.48
630.489	12210.5
630.683	12319.04
630.877	12044.62
631.071	12147.01
631.265	12136.77
631.459	11936.07
631.653	11858.25
631.848	11870.54
632.042	11706.7
632.236	11901.26
632.43	11661.65
632.624	11680.08
632.818	11632.97
633.012	11411.79
633.206	11583.82
633.4	11442.51
633.594	11342.16
633.788	11424.08
633.982	11342.16
634.176	11422.03
634.369	11123.03
634.563	11041.11
634.757	11077.97
634.951	11059.54
635.145	10860.89
635.339	10936.67
635.533	10778.97
635.726	10867.03
635.92	10740.06
636.114	10791.26
636.308	10576.22
636.501	10649.95
636.695	10463.58
636.889	10467.68
637.083	10223.97
637.276	10322.27
637.47	10287.46
637.664	10281.32
637.857	10164.58
638.051	9955.69
638.244	9986.41
638.438	9970.02
638.632	10215.78
638.825	9748.84
639.019	9718.12
639.212	9797.99
639.406	9703.79
639.599	9793.9
639.793	9599.34
639.986	9480.56
640.18	9611.63
640.373	9531.76
640.567	9625.97
640.76	9398.64
640.954	9238.9
641.147	9197.94
641.34	9240.95
641.534	9236.85
641.727	9253.23
641.92	9208.18
642.114	9027.96
642.307	9068.92
642.5	8907.13
642.694	8767.87
642.887	9003.38
643.08	8995.19
643.273	8900.98
643.467	8786.3
643.66	8663.42
643.853	8503.68
644.046	8511.87
644.239	8462.72
644.432	8456.57
644.626	8511.87
644.819	8376.7
645.012	8499.58
645.205	8546.69
645.398	8171.91
645.591	8348.03
645.784	8255.87
645.977	8036.74
646.17	8059.27
646.363	8153.48
646.556	8128.9
646.749	8094.08
646.942	8069.51
647.135	7936.39
647.328	7815.56
647.521	7954.82
647.714	7883.14
647.907	7856.52
648.099	7760.27
648.292	7741.83
648.485	7555.47
648.678	7721.35
648.871	7526.8
649.064	7709.07
649.256	7838.09
649.449	7324.05
649.642	7352.72
649.835	7283.09
650.027	7420.3
650.22	7471.5
650.413	7307.66
650.605	7274.9
650.798	7096.72
650.991	7158.16
651.183	7227.79
651.376	7020.95
651.568	7162.26
651.761	6984.09
651.954	6984.09
652.146	6930.84
652.339	6830.49
652.531	6889.88
652.724	6695.32
652.916	6785.43
653.109	6592.92
653.301	6619.55
653.494	6707.61
653.686	6517.15
653.879	6793.62
654.071	6508.96
654.263	6556.06
654.456	6570.4
654.648	6572.44
654.84	6486.43
655.033	6406.56
655.225	6390.17
655.417	6424.99
655.61	6367.65
655.802	6259.1
655.994	6189.47
656.186	6156.71
656.379	6136.23
656.571	6164.9
656.763	6218.15
656.955	6058.4
657.148	6160.8
657.34	6056.36
657.532	5810.6
657.724	5880.23
657.916	5923.24
658.108	6023.59
658.3	5888.42
658.492	5886.37
658.684	5806.5
658.876	5927.33
659.068	5767.59
659.26	5689.77
659.452	5859.75
659.644	5765.54
659.836	5556.65
660.028	5503.4
660.22	5530.03
660.412	5566.89
660.604	5431.73
660.796	5575.08
660.988	5437.87
661.18	5401.01
661.372	5353.9
661.563	5390.77
661.755	5228.98
661.947	5407.15
662.139	5198.26
662.331	5304.75
662.522	5257.65
662.714	5145.01
662.906	5327.28
663.097	5253.55
663.289	5063.09
663.481	5050.8
663.673	5165.49
663.864	4942.26
664.056	5013.94
664.247	4938.16
664.439	5013.94
664.631	4936.12
664.822	4983.22
665.014	4911.54
665.205	4911.54
665.397	4835.77
665.588	4862.39
665.78	4565.43
665.971	4708.79
666.163	4823.48
666.354	4596.15
666.546	4792.76
666.737	4501.95
666.929	4501.95
667.12	4567.48
667.311	4665.78
667.503	4600.25
667.694	4522.43
667.885	4561.34
668.077	4706.74
668.268	4442.56
668.459	4516.28
668.651	4379.07
668.842	4442.56
669.033	4487.61
669.224	4422.08
669.416	4325.82
669.607	4266.43
669.798	4293.05
669.989	4270.53
670.18	4227.52
670.371	4182.46
670.563	4274.62
670.754	4319.68
670.945	4227.52
671.136	4190.66
671.327	4170.18
671.518	4123.07
671.709	4102.59
671.9	4288.96
672.091	4176.32
672.282	4145.6
672.473	3969.48
672.664	4145.6
672.855	4080.07
673.046	3903.94
673.237	4096.45
673.428	3924.42
673.619	3975.62
673.809	3973.57
674	3975.62
674.191	3842.5
674.382	3723.72
674.573	3811.78
674.764	3836.36
674.954	3740.1
675.145	3834.31
675.336	3727.82
675.527	3637.7
675.717	3811.78
675.908	3596.75
676.099	3729.86
676.289	3570.12
676.48	3701.19
676.671	3727.82
676.861	3817.93
677.052	3568.07
677.243	3537.35
677.433	3545.55
677.624	3615.18
677.814	3606.98
678.005	3580.36
678.195	3576.27
678.386	3387.85
678.576	3537.35
678.767	3455.44
678.957	3422.67
679.148	3453.39
679.338	3453.39
679.529	3373.52
679.719	3482.06
679.909	3375.56
680.1	3410.38
680.29	3580.36
680.481	3434.96
680.671	3420.62
680.861	3254.73
681.052	3406.28
681.242	3258.83
681.432	3291.6
681.622	3303.89
681.813	3195.34
682.003	3178.96
682.193	3215.82
682.383	3221.97
682.573	3273.17
682.764	3277.26
682.954	3183.06
683.144	3189.2
683.334	3201.49
683.524	3228.11
683.714	3254.73
683.904	3158.48
684.094	3250.64
684.284	3244.49
684.474	3219.92
684.664	3201.49
684.854	3273.17
685.044	3074.51
685.234	3072.47
685.424	3117.52
685.614	2920.92
685.804	3082.7
685.994	3097.04
686.184	3056.08
686.374	3072.47
686.564	3015.12
686.753	3070.42
686.943	2892.24
687.133	2857.43
687.323	2812.37
687.513	2965.97
687.702	2779.61
687.892	2892.24
688.082	2871.76
688.272	2896.34
688.461	2793.94
688.651	2922.96
688.841	2755.03
689.03	2900.44
689.22	2783.7
689.41	2752.98
689.599	2873.81
689.789	2732.5
689.979	2855.38
690.168	2839
690.358	2613.72
690.547	2701.78
690.737	2683.35
690.926	2595.29
691.116	2646.49
691.305	2664.92
691.495	2499.03
691.684	2542.04
691.874	2554.33
692.063	2589.14
692.252	2507.23
692.442	2709.97
692.631	2525.66
692.82	2517.47
693.01	2580.95
693.199	2566.62
693.388	2548.19
693.578	2443.74
693.767	2490.84
693.956	2474.46
694.146	2484.7
694.335	2509.27
694.524	2380.25
694.713	2507.23
694.902	2417.12
695.092	2413.02
695.281	2509.27
695.47	2486.75
695.659	2429.4
695.848	2441.69
696.037	2341.34
696.226	2482.65
696.415	2357.72
696.604	2548.19
696.793	2415.07
696.982	2443.74
697.171	2453.98
697.36	2402.78
697.549	2402.78
697.738	2353.63
697.927	2357.72
698.116	2275.81
698.305	2294.24
698.494	2257.37
698.683	2349.53
698.872	2312.67
699.061	2228.7
699.25	2230.75
699.438	2261.47
699.627	2181.6
699.816	2374.11
700.005	2370.01
700.193	2288.09
700.382	2292.19
700.571	2238.94
700.76	2294.24
700.948	2261.47
701.137	2214.37
701.326	2195.93
701.514	2169.31
701.703	2208.22
701.892	2124.26
702.08	2212.32
702.269	2302.43
702.457	2122.21
702.646	2247.13
702.834	2204.13
703.023	2195.93
703.212	2118.11
703.4	2288.09
703.589	2109.92
703.777	2200.03
703.965	2107.87
704.154	2079.2
704.342	2157.02
704.531	2150.88
704.719	2140.64
704.907	2142.69
705.096	2064.86
705.284	2056.67
705.472	2138.59
705.661	2120.16
705.849	2097.63
706.037	2138.59
706.226	2116.06
706.414	2193.89
706.602	2185.69
706.79	2171.36
706.979	2107.87
707.167	2030.05
707.355	2142.69
707.543	2066.91
707.731	2220.51
707.919	2105.82
708.107	2150.88
708.296	2083.3
708.484	2109.92
708.672	2042.34
708.86	2118.11
709.048	2124.26
709.236	2118.11
709.424	2165.21
709.612	1958.37
709.8	2019.81
709.988	2097.63
710.176	2130.4
710.364	2101.73
710.551	2089.44
710.739	2075.1
710.927	1960.42
711.115	2114.02
711.303	2089.44
711.491	2077.15
711.679	2054.62
711.866	2163.17
712.054	2175.45
712.242	2058.72
712.43	2083.3
712.617	2066.91
712.805	2136.54
712.993	2105.82
713.181	2054.62
713.368	2118.11
713.556	2048.48
713.744	2114.02
713.931	2068.96
714.119	2011.62
714.306	2009.57
714.494	2126.3
714.682	1958.37
714.869	2083.3
715.057	2003.43
715.244	1982.95
715.432	2095.58
715.619	2030.05
715.807	2058.72
715.994	2009.57
716.182	1915.36
716.369	2003.43
716.556	2124.26
716.744	2109.92
716.931	2052.58
717.119	2038.24
717.306	2114.02
717.493	2005.47
717.681	1923.55
717.868	2107.87
718.055	2150.88
718.242	2009.57
718.43	2130.4
718.617	2085.34
718.804	2058.72
718.991	2132.45
719.179	2009.57
719.366	2165.21
719.553	2009.57
719.74	2034.14
719.927	2038.24
720.114	1954.27
720.301	2071.01
720.488	1984.99
720.676	2023.91
720.863	2118.11
721.05	2097.63
721.237	2159.07
721.424	2073.06
721.611	2030.05
721.798	2046.43
721.985	2032.1
722.172	2064.86
722.358	2068.96
722.545	2083.3
722.732	1984.99
722.919	2056.67
723.106	2001.38
723.293	2036.19
723.48	1997.28
723.667	2015.71
723.853	2009.57
724.04	2122.21
724.227	2048.48
724.414	2118.11
724.6	1888.74
724.787	2056.67
724.974	2050.53
725.161	2003.43
725.347	1946.08
725.534	2101.73
725.72	2015.71
725.907	1997.28
726.094	2019.81
726.28	2005.47
726.467	2017.76
726.653	1941.99
726.84	2075.1
727.027	2081.25
727.213	2042.34
727.4	1958.37
727.586	2034.14
727.773	2015.71
727.959	2056.67
728.145	1993.19
728.332	2052.58
728.518	1982.95
728.705	1987.04
728.891	1968.61
729.077	1968.61
729.264	1935.84
729.45	2099.68
729.636	2075.1
729.823	1909.22
730.009	2081.25
730.195	2103.78
730.382	2025.95
730.568	1991.14
730.754	2034.14
730.94	2025.95
731.126	2013.67
731.313	2091.49
731.499	1974.75
731.685	2081.25
731.871	2009.57
732.057	2093.54
732.243	2105.82
732.429	2171.36
732.615	2071.01
732.801	2052.58
732.987	2007.52
733.173	2048.48
733.359	2015.71
733.545	2021.86
733.731	2036.19
733.917	1978.85
734.103	2138.59
734.289	1952.23
734.475	2021.86
734.661	2007.52
734.847	1991.14
735.033	1946.08
735.219	1868.26
735.404	2040.29
735.59	2001.38
735.776	2085.34
735.962	1984.99
736.148	1958.37
736.333	2011.62
736.519	2083.3
736.705	1960.42
736.89	1933.79
737.076	1995.23
737.262	2003.43
737.447	1933.79
737.633	2001.38
737.819	2089.44
738.004	1888.74
738.19	2019.81
738.375	2036.19
738.561	1944.03
738.747	1835.49
738.932	1849.83
739.118	2062.82
739.303	1989.09
739.489	1880.55
739.674	2007.52
739.859	1845.73
740.045	1810.92
740.23	1964.51
740.416	1839.59
740.601	1866.21
740.786	1792.48
740.972	1851.88
741.157	1810.92
741.342	1880.55
741.528	1876.45
741.713	1903.07
741.898	1872.36
742.084	1868.26
742.269	1941.99
742.454	1769.96
742.639	1815.01
742.824	1839.59
743.01	2034.14
743.195	1831.4
743.38	1905.12
743.565	1876.45
743.75	1772
743.935	1802.72
744.12	1868.26
744.305	1751.53
744.49	1720.81
744.675	1845.73
744.86	1753.57
745.045	1831.4
745.23	1698.28
745.415	1839.59
745.6	1753.57
745.785	1747.43
745.97	1712.61
746.155	1751.53
746.34	1665.51
746.525	1649.13
746.71	1806.82
746.895	1677.8
747.079	1696.23
747.264	1651.17
747.449	1616.36
747.634	1626.6
747.819	1708.52
748.003	1602.02
748.188	1599.98
748.373	1696.23
748.557	1669.61
748.742	1667.56
748.927	1640.93
749.111	1636.84
749.296	1556.97
749.481	1597.93
749.665	1610.22
749.85	1434.09
750.034	1538.54
750.219	1532.39
750.404	1444.33
750.588	1501.67
750.773	1419.75
750.957	1604.07
751.141	1507.82
751.326	1477.1
751.51	1452.52
751.695	1468.91
751.879	1450.47
752.064	1442.28
752.248	1604.07
752.432	1438.19
752.617	1454.57
752.801	1452.52
752.985	1331.69
753.17	1327.6
753.354	1434.09
753.538	1386.99
753.722	1335.79
753.907	1284.59
754.091	1303.02
754.275	1354.22
754.459	1327.6
754.643	1278.44
754.828	1329.64
755.012	1274.35
755.196	1198.57
755.38	1210.86
755.564	1270.25
755.748	1335.79
755.932	1272.3
756.116	1194.48
756.3	1253.87
756.484	1194.48
756.668	1286.64
756.852	1214.96
757.036	1194.48
757.22	1212.91
757.404	1229.29
757.588	1171.95
757.772	1204.72
757.956	1235.44
758.14	1264.11
758.323	1004.02
758.507	1143.28
758.691	1022.45
758.875	1098.22
759.059	1092.08
759.242	1114.61
759.426	1096.18
759.61	1114.61
759.794	1167.85
759.977	1040.88
760.161	1051.12
760.345	1085.94
760.528	1124.85
760.712	1104.37
760.895	1067.5
761.079	1010.16
761.263	1069.55
761.446	983.54
761.63	1067.5
761.813	1100.27
761.997	963.06
762.18	1049.07
762.364	983.54
762.547	934.39
762.731	981.49
762.914	918
763.098	979.44
763.281	920.05
763.464	969.2
763.648	993.78
763.831	975.35
764.015	948.72
764.198	1053.17
764.381	971.25
764.564	1034.74
764.748	977.39
764.931	909.81
765.114	862.71
765.297	961.01
765.481	905.71
765.664	952.82
765.847	918
766.03	905.71
766.213	977.39
766.397	924.15
766.58	911.86
766.763	934.39
766.946	887.28
767.129	918
767.312	864.75
767.495	985.58
767.678	811.51
767.861	872.95
768.044	889.33
768.227	926.19
768.41	930.29
768.593	838.13
768.776	899.57
768.959	889.33
769.142	866.8
769.324	778.74
769.507	864.75
769.69	803.32
769.873	829.94
770.056	877.04
770.239	891.38
770.421	918
770.604	805.36
770.787	852.47
770.97	922.1
771.152	807.41
771.335	799.22
771.518	739.83
771.7	831.99
771.883	834.04
772.066	725.49
772.248	821.75
772.431	848.37
772.613	801.27
772.796	799.22
772.978	840.18
773.161	754.16
773.343	807.41
773.526	739.83
773.708	721.4
773.891	627.19
774.073	743.92
774.256	737.78
774.438	807.41
774.621	631.29
774.803	788.98
774.985	657.91
775.168	698.87
775.35	727.54
775.532	762.36
775.715	623.09
775.897	737.78
776.079	600.57
776.261	666.1
776.444	596.47
776.626	623.09
776.808	627.19
776.99	715.25
777.173	616.95
777.355	682.49
777.537	655.86
777.719	635.38
777.901	535.03
778.083	573.94
778.265	649.72
778.447	647.67
778.629	565.75
778.811	700.92
778.993	592.37
779.175	623.09
779.357	610.81
779.539	582.14
779.721	629.24
779.903	590.33
780.085	569.85
780.267	614.9
780.449	500.22
780.631	645.62
780.812	561.66
780.994	535.03
781.176	524.79
781.358	518.65
781.54	549.37
781.721	557.56
781.903	551.42
782.085	549.37
782.267	559.61
782.448	524.79
782.63	520.7
782.812	559.61
782.993	543.22
783.175	553.46
783.357	528.89
783.538	526.84
783.72	442.87
783.901	442.87
784.083	563.7
784.264	418.3
784.446	389.63
784.627	446.97
784.809	463.35
784.99	446.97
785.172	432.63
785.353	453.11
785.535	434.68
785.716	471.54
785.897	426.49
786.079	320
786.26	420.35
786.441	414.2
786.623	403.96
786.804	444.92
786.985	365.05
787.167	420.35
787.348	369.15
787.529	455.16
787.71	498.17
787.891	352.76
788.073	381.43
788.254	451.07
788.435	426.49
788.616	338.43
788.797	401.91
788.978	369.15
789.159	373.24
789.34	350.71
789.522	354.81
789.703	379.39
789.884	383.48
790.065	418.3
790.246	410.11
790.427	377.34
790.607	330.23
790.788	334.33
790.969	336.38
791.15	365.05
791.331	354.81
791.512	322.04
791.693	322.04
791.874	340.47
792.054	356.86
792.235	395.77
792.416	248.32
792.597	272.89
792.778	365.05
792.958	231.93
793.139	274.94
793.32	328.19
793.5	320
793.681	313.85
793.862	303.61
794.042	365.05
794.223	272.89
794.404	313.85
794.584	281.08
794.765	285.18
794.945	266.75
795.126	301.56
795.306	363
795.487	309.76
795.667	225.79
795.848	281.08
796.028	348.67
796.209	305.66
796.389	311.8
796.57	279.04
796.75	246.27
796.93	301.56
797.111	231.93
797.291	262.65
797.471	250.36
797.652	250.36
797.832	197.12
798.012	287.23
798.192	225.79
798.373	172.54
798.553	233.98
798.733	289.28
798.913	184.83
799.093	233.98
799.274	276.99
799.454	283.13
799.634	229.88
799.814	266.75
799.994	225.79
800.174	199.16
800.354	219.64
800.534	190.97
800.714	205.31
800.894	289.28
801.074	225.79
801.254	262.65
801.434	293.37
801.614	233.98
801.794	244.22
801.974	676.34
802.154	207.36
802.334	223.74
802.514	170.49
802.693	209.4
802.873	160.25
803.053	246.27
803.233	219.64
803.413	193.02
803.592	197.12
803.772	158.21
803.952	188.93
804.131	188.93
804.311	176.64
804.491	236.03
804.67	174.59
804.85	182.78
805.03	215.55
805.209	274.94
805.389	131.58
805.568	281.08
805.748	160.25
805.928	223.74
806.107	139.77
806.287	238.08
806.466	166.4
806.646	164.35
806.825	233.98
807.004	201.21
807.184	174.59
807.363	209.4
807.543	102.91
807.722	107.01
807.901	197.12
808.081	213.5
808.26	174.59
808.439	197.12
808.619	188.93
808.798	133.63
808.977	150.01
809.156	186.88
809.336	199.16
809.515	133.63
809.694	123.39
809.873	160.25
810.052	127.49
810.231	127.49
810.411	233.98
810.59	186.88
810.769	127.49
810.948	170.49
811.127	78.33
811.306	72.19
811.485	121.34
811.664	133.63
811.843	184.83
812.022	119.29
812.201	143.87
812.38	90.62
812.559	182.78
812.737	156.16
812.916	102.91
813.095	156.16
813.274	162.3
813.453	152.06
813.632	111.1
813.811	172.54
813.989	199.16
814.168	176.64
814.347	74.24
814.526	139.77
814.704	150.01
814.883	119.29
815.062	76.29
815.24	119.29
815.419	176.64
815.598	166.4
815.776	100.86
815.955	229.88
816.133	82.43
816.312	150.01
816.49	172.54
816.669	150.01
816.847	139.77
817.026	131.58
817.204	49.66
817.383	139.77
817.561	82.43
817.74	123.39
817.918	98.81
818.097	90.62
818.275	98.81
818.453	109.05
818.632	168.45
818.81	68.09
818.988	131.58
819.167	100.86
819.345	90.62
819.523	166.4
819.701	104.96
819.879	121.34
820.058	43.52
820.236	164.35
820.414	133.63
820.592	102.91
820.77	131.58
820.948	115.2
821.127	31.23
821.305	188.93
821.483	111.1
821.661	158.21
821.839	158.21
822.017	123.39
822.195	139.77
822.373	143.87
822.551	113.15
822.729	137.73
822.907	31.23
823.085	82.43
823.262	123.39
823.44	98.81
823.618	45.57
823.796	16.9
823.974	8.7
824.152	113.15
824.329	45.57
824.507	84.48
824.685	94.72
824.863	123.39
825.04	31.23
825.218	150.01
825.396	147.97
825.574	61.95
825.751	55.81
825.929	86.53
826.107	74.24
826.284	74.24
826.462	55.81
826.639	41.47
826.817	45.57
826.994	109.05
827.172	76.29
827.349	123.39
827.527	68.09
827.704	6.66
827.882	139.77
828.059	84.48
828.237	78.33
828.414	141.82
828.591	35.33
828.769	129.53
828.946	121.34
829.124	129.53
829.301	90.62
829.478	92.67
829.655	90.62
829.833	109.05
830.01	59.9
830.187	100.86
830.364	82.43
830.542	61.95
830.719	37.38
830.896	147.97
831.073	-24.06
831.25	84.48
831.427	39.42
831.604	53.76
831.782	33.28
831.959	68.09
832.136	98.81
832.313	59.9
832.49	49.66
832.667	27.14
832.844	64
833.021	74.24
833.198	66.05
833.374	-15.87
833.551	12.8
833.728	74.24
833.905	115.2
834.082	18.94
834.259	86.53
834.436	68.09
834.612	68.09
834.789	27.14
834.966	90.62
835.143	27.14
835.319	-15.87
835.496	127.49
835.673	74.24
835.85	8.7
836.026	33.28
836.203	90.62
836.38	102.91
836.556	18.94
836.733	49.66
836.909	92.67
837.086	41.47
837.262	25.09
837.439	150.01
837.616	76.29
837.792	61.95
837.968	70.14
838.145	-1.54
838.321	49.66
838.498	86.53
838.674	135.68
838.851	66.05
839.027	47.62
839.203	39.42
839.38	39.42
839.556	-36.35
839.732	57.86
839.909	78.33
840.085	64
840.261	4.61
840.437	123.39
840.614	37.38
840.79	107.01
840.966	102.91
841.142	74.24
841.318	4.61
841.494	55.81
841.671	10.75
841.847	84.48
842.023	18.94
842.199	18.94
842.375	0.51
842.551	18.94
842.727	47.62
842.903	115.2
843.079	2.56
843.255	41.47
843.431	55.81
843.607	70.14
843.783	-69.12
843.959	78.33
844.134	39.42
844.31	115.2
844.486	16.9
844.662	41.47
844.838	70.14
845.013	41.47
845.189	-15.87
845.365	49.66
845.541	31.23
845.716	139.77
845.892	72.19
846.068	33.28
846.244	66.05
846.419	107.01
846.595	-30.21
846.77	16.9
846.946	-1.54
847.122	59.9
847.297	10.75
847.473	84.48
847.648	27.14
847.824	8.7
847.999	-34.3
848.175	121.34
848.35	41.47
848.526	33.28
848.701	-40.45
848.876	39.42
849.052	98.81
849.227	18.94
849.403	-5.63
849.578	102.91
849.753	-36.35
849.929	4.61
850.104	-40.45
850.279	78.33
850.454	59.9
850.63	109.05
850.805	27.14
850.98	41.47
851.155	29.18
851.33	16.9
851.505	14.85
851.681	53.76
851.856	12.8
852.031	53.76
852.206	37.38
852.381	-15.87
852.556	14.85
852.731	-42.5
852.906	53.76
853.081	35.33
853.256	8.7
853.431	-3.58
853.606	61.95
853.781	29.18
853.956	-7.68
854.131	72.19
854.305	33.28
854.48	-56.83
854.655	10.75
854.83	64
855.005	-1.54
855.18	-32.26
855.354	29.18
855.529	31.23
855.704	76.29
855.879	33.28
856.053	-11.78
856.228	66.05
856.403	23.04
856.577	57.86
856.752	-19.97
856.926	35.33
857.101	-17.92
857.276	33.28
857.45	-42.5
857.625	59.9
857.799	-3.58
857.974	25.09
858.148	-81.41
858.323	6.66
858.497	-89.6
858.672	-17.92
858.846	14.85
859.02	76.29
859.195	16.9
859.369	-1.54
859.543	-40.45
859.718	29.18
859.892	8.7
860.066	10.75
860.241	-54.78
860.415	-5.63
860.589	29.18
860.763	29.18
860.938	16.9
861.112	4.61
861.286	-9.73
861.46	-32.26
861.634	-22.02
861.808	23.04
861.982	-7.68
862.157	2.56
862.331	-3.58
862.505	-30.21
862.679	-26.11
862.853	-7.68
863.027	31.23
863.201	43.52
863.375	0.51
863.549	-30.21
863.722	88.57
863.896	4.61
864.07	35.33
864.244	2.56
864.418	59.9
864.592	-13.82
864.766	-5.63
864.939	51.71
865.113	16.9
865.287	57.86
865.461	-3.58
865.634	-60.93
865.808	-38.4
865.982	35.33
866.156	4.61
866.329	-9.73
866.503	18.94
866.676	25.09
866.85	100.86
867.024	18.94
867.197	-11.78
867.371	-32.26
867.544	-7.68
867.718	8.7
867.891	-38.4
868.065	-24.06
868.238	31.23
868.412	55.81
868.585	41.47
868.759	16.9
868.932	27.14
869.105	33.28
869.279	-5.63
869.452	29.18
869.625	76.29
869.799	-30.21
869.972	-1.54
870.145	12.8
870.319	45.57
870.492	43.52
870.665	-24.06
870.838	-56.83
871.011	-114.17
871.185	8.7
871.358	4.61
871.531	-7.68
871.704	57.86
871.877	-5.63
872.05	-46.59
872.223	29.18
872.396	35.33
872.569	41.47
872.742	2.56
872.915	20.99
873.088	-11.78
873.261	-46.59
873.434	49.66
873.607	-42.5
873.78	10.75
873.953	-56.83
874.126	-9.73
874.299	-3.58
874.471	-52.74
874.644	-3.58
874.817	-3.58
874.99	12.8
875.163	18.94
875.335	-34.3
875.508	-19.97
875.681	8.7
875.853	0.51
876.026	16.9
876.199	10.75
876.371	-67.07
876.544	-46.59
876.717	-56.83
876.889	-7.68
877.062	12.8
877.234	-32.26
877.407	-13.82
877.579	4.61
877.752	-71.17
877.924	20.99
878.097	29.18
878.269	-56.83
878.442	-1.54
878.614	12.8
878.786	33.28
878.959	-46.59
879.131	12.8
879.303	-42.5
879.476	82.43
879.648	25.09
879.82	57.86
879.993	-77.31
880.165	20.99
880.337	-32.26
880.509	-54.78
880.681	-52.74
880.854	-65.02
881.026	29.18
881.198	53.76
881.37	16.9
881.542	31.23
881.714	-81.41
881.886	90.62
882.058	-22.02
882.23	16.9
882.402	27.14
882.574	49.66
882.746	-1.54
882.918	68.09
883.09	16.9
883.262	-24.06
883.434	-91.65
883.606	-15.87
883.778	-5.63
883.95	82.43
884.122	-52.74
884.293	57.86
884.465	41.47
884.637	-26.11
884.809	-93.69
884.98	45.57
885.152	41.47
885.324	-1.54
885.496	-56.83
885.667	55.81
885.839	14.85
886.011	16.9
886.182	-19.97
886.354	-19.97
886.525	-54.78
886.697	-22.02
886.869	-54.78
887.04	68.09
887.212	-71.17
887.383	20.99
887.555	27.14
887.726	-73.21
887.897	-44.54
888.069	-79.36
888.24	-3.58
888.412	57.86
888.583	39.42
888.754	-17.92
888.926	-50.69
889.097	0.51
889.268	-40.45
889.44	0.51
889.611	20.99
889.782	43.52
889.953	-28.16
890.125	-15.87
890.296	-26.11
890.467	12.8
890.638	-19.97
890.809	-17.92
890.98	-24.06
891.151	39.42
891.323	6.66
891.494	-15.87
891.665	6.66
891.836	41.47
892.007	-42.5
892.178	-44.54
892.349	8.7
892.52	-87.55
892.691	10.75
892.862	-46.59
893.032	-50.69
893.203	-24.06
893.374	41.47
893.545	8.7
893.716	-65.02
893.887	-48.64
894.057	-1.54
894.228	-7.68
894.399	18.94
894.57	59.9
894.74	18.94
894.911	-17.92
895.082	33.28
895.253	39.42
895.423	-9.73
895.594	-36.35
895.764	39.42
895.935	-44.54
896.106	10.75
896.276	-56.83
896.447	-24.06
896.617	57.86
896.788	-19.97
896.958	49.66
897.129	-73.21
897.299	61.95
897.47	-24.06
897.64	-15.87
897.81	-69.12
897.981	-13.82
898.151	29.18
898.322	27.14
898.492	23.04
898.662	-11.78
898.832	49.66
899.003	29.18
899.173	23.04
899.343	33.28
899.513	-83.45
