Data from USB4F104151__71__13-12-13-554.txt Node

Date: Fri Mar 14 13:12:13 EDT 2025
User: louis
Spectrometer: USB4F10415
Trigger mode: 4
Integration Time (sec): 2.000000E-2
Scans to average: 1
Electric dark correction enabled: true
Nonlinearity correction enabled: false
Boxcar width: 0
XAxis mode: Wavelengths
Number of Pixels in Spectrum: 3648
>>>>>Begin Spectral Data<<<<<
178.204	-99.67
178.424	-99.67
178.644	-99.67
178.864	-64.85
179.084	-75.09
179.304	6.83
179.524	23.21
179.744	-64.85
179.964	25.26
180.184	-32.08
180.404	80.55
180.624	25.26
180.844	-7.51
181.064	-58.71
181.283	-17.75
181.503	-68.95
181.723	88.75
181.943	-32.08
182.163	82.6
182.383	37.55
182.602	64.17
182.822	45.74
183.042	70.31
183.262	12.97
183.482	55.98
183.701	47.79
183.921	55.98
184.141	-1.37
184.361	33.45
184.58	23.21
184.8	39.59
185.02	-1.37
185.239	21.16
185.459	43.69
185.679	55.98
185.898	-21.84
186.118	25.26
186.338	-13.65
186.557	60.07
186.777	-23.89
186.997	60.07
187.216	72.36
187.436	137.9
187.655	76.46
187.875	58.03
188.095	68.27
188.314	78.51
188.534	68.27
188.753	15.02
188.973	-17.75
189.192	74.41
189.412	31.4
189.631	88.75
189.851	58.03
190.07	66.22
190.29	-25.94
190.509	-56.66
190.729	-1.37
190.948	33.45
191.168	82.6
191.387	101.03
191.607	80.55
191.826	64.17
192.045	41.64
192.265	-1.37
192.484	27.31
192.704	107.18
192.923	53.93
193.142	98.99
193.362	27.31
193.581	113.32
193.8	25.26
194.02	15.02
194.239	2.73
194.458	31.4
194.678	-32.08
194.897	35.5
195.116	74.41
195.335	-11.61
195.555	2.73
195.774	-9.56
195.993	33.45
196.212	-13.65
196.432	23.21
196.651	31.4
196.87	-23.89
197.089	39.59
197.308	19.11
197.528	35.5
197.747	4.78
197.966	37.55
198.185	88.75
198.404	-56.66
198.623	60.07
198.842	-23.89
199.062	31.4
199.281	92.84
199.5	0.68
199.719	31.4
199.938	-15.7
200.157	64.17
200.376	70.31
200.595	51.88
200.814	-38.23
201.033	-17.75
201.252	12.97
201.471	51.88
201.69	88.75
201.909	10.92
202.128	37.55
202.347	96.94
202.566	129.7
202.785	8.87
203.004	10.92
203.223	117.42
203.442	25.26
203.661	23.21
203.879	2.73
204.098	-38.23
204.317	-17.75
204.536	-9.56
204.755	82.6
204.974	35.5
205.193	80.55
205.411	29.35
205.63	29.35
205.849	23.21
206.068	-13.65
206.287	37.55
206.505	8.87
206.724	17.07
206.943	-89.43
207.162	66.22
207.381	-58.71
207.599	17.07
207.818	4.78
208.037	25.26
208.255	66.22
208.474	12.97
208.693	72.36
208.911	66.22
209.13	68.27
209.349	66.22
209.567	88.75
209.786	70.31
210.005	39.59
210.223	43.69
210.442	27.31
210.661	39.59
210.879	43.69
211.098	37.55
211.316	-1.37
211.535	49.83
211.753	37.55
211.972	-1.37
212.191	86.7
212.409	58.03
212.628	-1.37
212.846	64.17
213.065	60.07
213.283	60.07
213.502	8.87
213.72	19.11
213.938	25.26
214.157	15.02
214.375	101.03
214.594	-34.13
214.812	21.16
215.031	15.02
215.249	6.83
215.467	60.07
215.686	49.83
215.904	4.78
216.122	-17.75
216.341	35.5
216.559	-32.08
216.778	51.88
216.996	123.56
217.214	58.03
217.432	78.51
217.651	-17.75
217.869	55.98
218.087	-27.99
218.306	-25.94
218.524	53.93
218.742	43.69
218.96	27.31
219.179	6.83
219.397	62.12
219.615	-19.8
219.833	39.59
220.051	66.22
220.27	43.69
220.488	78.51
220.706	49.83
220.924	-30.04
221.142	51.88
221.36	72.36
221.578	84.65
221.796	41.64
222.015	25.26
222.233	10.92
222.451	113.32
222.669	19.11
222.887	-9.56
223.105	41.64
223.323	76.46
223.541	-15.7
223.759	113.32
223.977	-17.75
224.195	88.75
224.413	17.07
224.631	39.59
224.849	31.4
225.067	17.07
225.285	25.26
225.503	31.4
225.721	-38.23
225.939	64.17
226.157	47.79
226.375	39.59
226.592	15.02
226.81	47.79
227.028	111.27
227.246	60.07
227.464	23.21
227.682	84.65
227.9	72.36
228.117	64.17
228.335	96.94
228.553	29.35
228.771	41.64
228.989	55.98
229.206	33.45
229.424	-7.51
229.642	2.73
229.86	19.11
230.077	31.4
230.295	66.22
230.513	88.75
230.731	55.98
230.948	139.94
231.166	35.5
231.384	33.45
231.601	92.84
231.819	96.94
232.037	39.59
232.254	31.4
232.472	27.31
232.689	-25.94
232.907	60.07
233.125	-9.56
233.342	23.21
233.56	80.55
233.777	23.21
233.995	43.69
234.213	82.6
234.43	41.64
234.648	111.27
234.865	2.73
235.083	15.02
235.3	10.92
235.518	-5.46
235.735	68.27
235.953	64.17
236.17	62.12
236.388	-9.56
236.605	29.35
236.822	88.75
237.04	25.26
237.257	31.4
237.475	45.74
237.692	88.75
237.909	-9.56
238.127	-15.7
238.344	31.4
238.562	45.74
238.779	-50.52
238.996	-40.28
239.214	45.74
239.431	160.42
239.648	8.87
239.865	39.59
240.083	19.11
240.3	31.4
240.517	47.79
240.735	-21.84
240.952	68.27
241.169	0.68
241.386	27.31
241.603	-3.41
241.821	-17.75
242.038	60.07
242.255	156.33
242.472	4.78
242.689	23.21
242.907	45.74
243.124	37.55
243.341	19.11
243.558	2.73
243.775	-32.08
243.992	10.92
244.209	80.55
244.426	125.61
244.643	0.68
244.86	-9.56
245.078	51.88
245.295	84.65
245.512	41.64
245.729	-17.75
245.946	39.59
246.163	55.98
246.38	0.68
246.597	-21.84
246.814	-17.75
247.031	2.73
247.248	82.6
247.464	-30.04
247.681	-9.56
247.898	64.17
248.115	25.26
248.332	19.11
248.549	55.98
248.766	80.55
248.983	68.27
249.2	-3.41
249.417	-7.51
249.633	47.79
249.85	6.83
250.067	58.03
250.284	41.64
250.501	-40.28
250.717	76.46
250.934	-15.7
251.151	39.59
251.368	19.11
251.585	96.94
251.801	113.32
252.018	17.07
252.235	64.17
252.451	-1.37
252.668	43.69
252.885	2.73
253.102	-21.84
253.318	-34.13
253.535	10.92
253.752	29.35
253.968	-1.37
254.185	19.11
254.401	70.31
254.618	60.07
254.835	31.4
255.051	10.92
255.268	41.64
255.484	55.98
255.701	19.11
255.917	55.98
256.134	-89.43
256.351	76.46
256.567	-48.47
256.784	72.36
257	-23.89
257.217	66.22
257.433	55.98
257.65	64.17
257.866	33.45
258.082	15.02
258.299	27.31
258.515	31.4
258.732	39.59
258.948	-42.32
259.165	-23.89
259.381	-1.37
259.597	94.89
259.814	15.02
260.03	6.83
260.246	31.4
260.463	70.31
260.679	33.45
260.895	43.69
261.112	-9.56
261.328	51.88
261.544	-1.37
261.761	84.65
261.977	41.64
262.193	6.83
262.409	-17.75
262.626	12.97
262.842	74.41
263.058	-34.13
263.274	55.98
263.49	15.02
263.707	64.17
263.923	25.26
264.139	6.83
264.355	-32.08
264.571	25.26
264.787	72.36
265.004	6.83
265.22	33.45
265.436	31.4
265.652	41.64
265.868	17.07
266.084	74.41
266.3	43.69
266.516	-58.71
266.732	17.07
266.948	92.84
267.164	58.03
267.38	-17.75
267.596	8.87
267.812	66.22
268.028	-27.99
268.244	29.35
268.46	51.88
268.676	60.07
268.892	105.13
269.108	31.4
269.324	47.79
269.54	31.4
269.756	51.88
269.972	45.74
270.188	78.51
270.403	21.16
270.619	47.79
270.835	-1.37
271.051	35.5
271.267	15.02
271.483	6.83
271.698	37.55
271.914	64.17
272.13	-7.51
272.346	10.92
272.562	31.4
272.777	37.55
272.993	17.07
273.209	121.51
273.425	-30.04
273.64	25.26
273.856	62.12
274.072	-15.7
274.287	31.4
274.503	15.02
274.719	88.75
274.934	-15.7
275.15	29.35
275.366	-21.84
275.581	-42.32
275.797	60.07
276.012	62.12
276.228	29.35
276.444	43.69
276.659	55.98
276.875	33.45
277.09	43.69
277.306	51.88
277.521	84.65
277.737	-3.41
277.952	25.26
278.168	158.38
278.383	180.9
278.599	-21.84
278.814	47.79
279.03	-66.9
279.245	80.55
279.461	58.03
279.676	39.59
279.892	60.07
280.107	35.5
280.322	33.45
280.538	82.6
280.753	-25.94
280.969	-27.99
281.184	45.74
281.399	74.41
281.615	62.12
281.83	64.17
282.045	6.83
282.26	6.83
282.476	-46.42
282.691	29.35
282.906	-1.37
283.122	76.46
283.337	64.17
283.552	45.74
283.767	-23.89
283.983	64.17
284.198	27.31
284.413	53.93
284.628	96.94
284.843	27.31
285.058	55.98
285.274	31.4
285.489	25.26
285.704	66.22
285.919	25.26
286.134	0.68
286.349	-40.28
286.564	35.5
286.779	19.11
286.995	33.45
287.21	4.78
287.425	119.46
287.64	-9.56
287.855	6.83
288.07	98.99
288.285	82.6
288.5	33.45
288.715	121.51
288.93	62.12
289.145	41.64
289.36	21.16
289.575	29.35
289.79	25.26
290.004	60.07
290.219	86.7
290.434	-15.7
290.649	-11.61
290.864	33.45
291.079	0.68
291.294	10.92
291.509	55.98
291.724	39.59
291.938	-1.37
292.153	64.17
292.368	37.55
292.583	2.73
292.798	72.36
293.012	41.64
293.227	31.4
293.442	17.07
293.657	8.87
293.871	31.4
294.086	-17.75
294.301	107.18
294.516	121.51
294.73	62.12
294.945	-13.65
295.16	6.83
295.374	27.31
295.589	80.55
295.804	35.5
296.018	-21.84
296.233	80.55
296.447	-11.61
296.662	27.31
296.877	6.83
297.091	31.4
297.306	-9.56
297.52	-34.13
297.735	17.07
297.949	72.36
298.164	23.21
298.378	31.4
298.593	12.97
298.807	-23.89
299.022	74.41
299.236	10.92
299.451	88.75
299.665	-1.37
299.88	4.78
300.094	-15.7
300.309	0.68
300.523	90.79
300.737	10.92
300.952	113.32
301.166	94.89
301.381	-5.46
301.595	-13.65
301.809	62.12
302.024	-17.75
302.238	111.27
302.452	105.13
302.667	10.92
302.881	-27.99
303.095	-30.04
303.309	55.98
303.524	17.07
303.738	15.02
303.952	33.45
304.166	37.55
304.381	35.5
304.595	68.27
304.809	-48.47
305.023	37.55
305.237	2.73
305.452	17.07
305.666	47.79
305.88	66.22
306.094	86.7
306.308	17.07
306.522	78.51
306.736	15.02
306.95	139.94
307.164	39.59
307.379	19.11
307.593	41.64
307.807	39.59
308.021	-19.8
308.235	55.98
308.449	35.5
308.663	74.41
308.877	84.65
309.091	23.21
309.305	115.37
309.519	-15.7
309.733	98.99
309.947	-7.51
310.161	-5.46
310.374	103.08
310.588	76.46
310.802	-17.75
311.016	98.99
311.23	12.97
311.444	10.92
311.658	23.21
311.872	49.83
312.085	96.94
312.299	23.21
312.513	109.23
312.727	94.89
312.941	43.69
313.154	-21.84
313.368	27.31
313.582	41.64
313.796	17.07
314.009	51.88
314.223	66.22
314.437	70.31
314.651	-15.7
314.864	15.02
315.078	23.21
315.292	12.97
315.505	80.55
315.719	64.17
315.933	70.31
316.146	17.07
316.36	49.83
316.573	76.46
316.787	6.83
317.001	55.98
317.214	25.26
317.428	31.4
317.641	35.5
317.855	37.55
318.068	55.98
318.282	51.88
318.495	90.79
318.709	-5.46
318.922	-3.41
319.136	113.32
319.349	70.31
319.563	51.88
319.776	27.31
319.99	-13.65
320.203	19.11
320.417	21.16
320.63	4.78
320.843	64.17
321.057	64.17
321.27	-9.56
321.483	19.11
321.697	72.36
321.91	43.69
322.124	55.98
322.337	12.97
322.55	-1.37
322.763	-5.46
322.977	31.4
323.19	-46.42
323.403	39.59
323.617	-9.56
323.83	2.73
324.043	31.4
324.256	41.64
324.469	-83.28
324.683	15.02
324.896	55.98
325.109	23.21
325.322	-15.7
325.535	64.17
325.748	103.08
325.962	-9.56
326.175	-38.23
326.388	45.74
326.601	133.8
326.814	-40.28
327.027	62.12
327.24	72.36
327.453	33.45
327.666	-19.8
327.879	37.55
328.092	66.22
328.305	107.18
328.518	6.83
328.731	15.02
328.944	-42.32
329.157	-19.8
329.37	29.35
329.583	53.93
329.796	43.69
330.009	88.75
330.222	76.46
330.435	17.07
330.648	64.17
330.861	103.08
331.073	39.59
331.286	37.55
331.499	15.02
331.712	45.74
331.925	74.41
332.138	86.7
332.35	29.35
332.563	-11.61
332.776	29.35
332.989	-1.37
333.202	-19.8
333.414	-3.41
333.627	-13.65
333.84	66.22
334.053	82.6
334.265	62.12
334.478	-5.46
334.691	2.73
334.903	94.89
335.116	76.46
335.329	21.16
335.541	47.79
335.754	64.17
335.966	-5.46
336.179	-17.75
336.392	-44.37
336.604	0.68
336.817	-32.08
337.029	31.4
337.242	27.31
337.454	58.03
337.667	164.52
337.88	64.17
338.092	17.07
338.305	0.68
338.517	58.03
338.729	27.31
338.942	144.04
339.154	-7.51
339.367	27.31
339.579	121.51
339.792	17.07
340.004	6.83
340.217	80.55
340.429	-3.41
340.641	55.98
340.854	55.98
341.066	72.36
341.278	74.41
341.491	86.7
341.703	94.89
341.915	8.87
342.128	51.88
342.34	90.79
342.552	23.21
342.764	107.18
342.977	-9.56
343.189	37.55
343.401	146.09
343.613	23.21
343.826	78.51
344.038	-5.46
344.25	15.02
344.462	58.03
344.674	66.22
344.886	-48.47
345.099	127.66
345.311	55.98
345.523	41.64
345.735	35.5
345.947	98.99
346.159	88.75
346.371	41.64
346.583	58.03
346.795	86.7
347.007	27.31
347.219	-13.65
347.431	78.51
347.643	88.75
347.855	47.79
348.067	82.6
348.279	-50.52
348.491	41.64
348.703	17.07
348.915	113.32
349.127	43.69
349.339	37.55
349.551	8.87
349.763	17.07
349.975	29.35
350.187	12.97
350.399	49.83
350.61	121.51
350.822	21.16
351.034	64.17
351.246	45.74
351.458	66.22
351.669	62.12
351.881	80.55
352.093	49.83
352.305	66.22
352.517	4.78
352.728	76.46
352.94	-30.04
353.152	115.37
353.363	19.11
353.575	80.55
353.787	66.22
353.999	31.4
354.21	96.94
354.422	66.22
354.633	96.94
354.845	80.55
355.057	58.03
355.268	80.55
355.48	12.97
355.692	27.31
355.903	35.5
356.115	31.4
356.326	-3.41
356.538	88.75
356.749	51.88
356.961	23.21
357.172	21.16
357.384	133.8
357.595	113.32
357.807	96.94
358.018	27.31
358.23	72.36
358.441	86.7
358.653	58.03
358.864	15.02
359.075	47.79
359.287	39.59
359.498	72.36
359.709	82.6
359.921	10.92
360.132	41.64
360.344	49.83
360.555	60.07
360.766	53.93
360.977	82.6
361.189	47.79
361.4	33.45
361.611	62.12
361.823	98.99
362.034	-15.7
362.245	41.64
362.456	88.75
362.667	66.22
362.879	58.03
363.09	101.03
363.301	10.92
363.512	60.07
363.723	25.26
363.935	31.4
364.146	43.69
364.357	72.36
364.568	137.9
364.779	-42.32
364.99	25.26
365.201	-17.75
365.412	109.23
365.623	-25.94
365.834	8.87
366.045	47.79
366.256	55.98
366.467	146.09
366.678	-1.37
366.889	55.98
367.1	27.31
367.311	25.26
367.522	27.31
367.733	39.59
367.944	60.07
368.155	2.73
368.366	45.74
368.577	74.41
368.788	23.21
368.999	6.83
369.209	55.98
369.42	92.84
369.631	105.13
369.842	43.69
370.053	21.16
370.264	74.41
370.474	72.36
370.685	60.07
370.896	35.5
371.107	78.51
371.317	58.03
371.528	98.99
371.739	60.07
371.95	47.79
372.16	19.11
372.371	-1.37
372.582	-19.8
372.792	62.12
373.003	58.03
373.214	72.36
373.424	84.65
373.635	29.35
373.846	107.18
374.056	2.73
374.267	39.59
374.477	92.84
374.688	4.78
374.898	51.88
375.109	78.51
375.319	37.55
375.53	37.55
375.74	-7.51
375.951	60.07
376.161	17.07
376.372	55.98
376.582	88.75
376.793	35.5
377.003	64.17
377.214	23.21
377.424	31.4
377.635	82.6
377.845	49.83
378.055	39.59
378.266	53.93
378.476	35.5
378.686	98.99
378.897	31.4
379.107	-1.37
379.317	55.98
379.528	39.59
379.738	62.12
379.948	-5.46
380.158	78.51
380.369	-7.51
380.579	72.36
380.789	-5.46
380.999	45.74
381.21	-7.51
381.42	137.9
381.63	45.74
381.84	123.56
382.05	-19.8
382.261	58.03
382.471	109.23
382.681	66.22
382.891	35.5
383.101	88.75
383.311	23.21
383.521	-1.37
383.731	125.61
383.941	88.75
384.151	84.65
384.361	51.88
384.571	98.99
384.781	70.31
384.991	82.6
385.201	109.23
385.411	74.41
385.621	113.32
385.831	80.55
386.041	78.51
386.251	-7.51
386.461	74.41
386.671	2.73
386.881	31.4
387.091	55.98
387.301	101.03
387.511	39.59
387.72	80.55
387.93	51.88
388.14	51.88
388.35	12.97
388.56	60.07
388.769	113.32
388.979	74.41
389.189	47.79
389.399	90.79
389.609	51.88
389.818	55.98
390.028	74.41
390.238	197.29
390.447	15.02
390.657	68.27
390.867	98.99
391.076	15.02
391.286	109.23
391.496	51.88
391.705	62.12
391.915	109.23
392.125	144.04
392.334	25.26
392.544	29.35
392.753	129.7
392.963	15.02
393.172	92.84
393.382	29.35
393.591	66.22
393.801	70.31
394.01	98.99
394.22	88.75
394.429	53.93
394.639	31.4
394.848	103.08
395.058	78.51
395.267	60.07
395.477	49.83
395.686	113.32
395.895	72.36
396.105	17.07
396.314	88.75
396.524	55.98
396.733	47.79
396.942	101.03
397.152	105.13
397.361	74.41
397.57	37.55
397.78	25.26
397.989	82.6
398.198	121.51
398.407	62.12
398.617	113.32
398.826	66.22
399.035	68.27
399.244	144.04
399.453	105.13
399.663	23.21
399.872	55.98
400.081	21.16
400.29	107.18
400.499	82.6
400.708	131.75
400.917	55.98
401.127	115.37
401.336	25.26
401.545	154.28
401.754	80.55
401.963	72.36
402.172	43.69
402.381	74.41
402.59	47.79
402.799	86.7
403.008	92.84
403.217	29.35
403.426	-3.41
403.635	74.41
403.844	39.59
404.053	154.28
404.262	94.89
404.471	137.9
404.68	180.9
404.888	49.83
405.097	43.69
405.306	98.99
405.515	125.61
405.724	164.52
405.933	113.32
406.142	33.45
406.35	150.18
406.559	123.56
406.768	107.18
406.977	152.23
407.185	185
407.394	121.51
407.603	10.92
407.812	148.14
408.02	199.34
408.229	137.9
408.438	131.75
408.646	129.7
408.855	176.81
409.064	156.33
409.272	115.37
409.481	154.28
409.69	180.9
409.898	230.06
410.107	129.7
410.315	156.33
410.524	303.78
410.733	219.82
410.941	268.97
411.15	221.86
411.358	154.28
411.567	277.16
411.775	230.06
411.984	264.87
412.192	264.87
412.401	273.06
412.609	322.21
412.818	254.63
413.026	350.89
413.234	389.8
413.443	301.73
413.651	342.69
413.86	354.98
414.068	432.8
414.276	393.89
414.485	363.17
414.693	391.84
414.901	453.28
415.11	418.47
415.318	516.77
415.526	447.14
415.734	402.08
415.943	486.05
416.151	467.62
416.359	508.58
416.567	551.59
416.776	625.31
416.984	623.27
417.192	662.18
417.4	682.66
417.608	660.13
417.817	596.64
418.025	639.65
418.233	797.34
418.441	637.6
418.649	756.38
418.857	725.66
419.065	776.86
419.273	795.29
419.481	817.82
419.689	846.49
419.897	926.36
420.105	940.7
420.313	854.69
420.521	950.94
420.729	998.04
420.937	1014.43
421.145	1112.73
421.353	1108.63
421.561	1243.8
421.769	1231.51
421.977	1145.5
422.185	1227.42
422.393	1211.03
422.601	1383.06
422.809	1444.5
423.017	1524.37
423.224	1419.92
423.432	1518.23
423.64	1507.99
423.848	1669.78
424.056	1591.95
424.263	1815.18
424.471	1632.91
424.679	1710.74
424.887	1839.76
425.094	1852.05
425.302	1997.45
425.51	1983.12
425.718	2112.14
425.925	2015.88
426.133	2159.24
426.341	2161.29
426.548	2325.13
426.756	2323.08
426.964	2427.53
427.171	2548.36
427.379	2687.62
427.586	2687.62
427.794	2730.62
428.001	2816.64
428.209	2994.81
428.417	2990.72
428.624	3144.31
428.832	3230.33
429.039	3119.74
429.247	3078.78
429.454	3431.03
429.662	3537.52
429.869	3451.51
430.076	3568.24
430.284	3527.28
430.491	3867.25
430.699	3857.01
430.906	3859.06
431.114	4049.52
431.321	4164.2
431.528	4262.51
431.736	4440.68
431.943	4891.23
432.15	4629.09
432.358	4618.85
432.565	4854.37
432.772	4794.98
432.979	5030.49
433.187	5286.49
433.394	5278.3
433.601	5425.75
433.808	5696.08
434.016	5522.01
434.223	5808.72
434.43	6064.72
434.637	5812.82
434.844	6410.82
435.052	6435.4
435.259	6502.98
435.466	6423.11
435.673	6373.96
435.88	6982.21
436.087	7279.16
436.294	7289.4
436.501	7066.17
436.708	7270.97
436.915	7479.86
437.122	7688.76
437.329	7881.27
437.537	7920.18
437.743	8176.17
437.95	8092.21
438.157	8550.95
438.364	8872.48
438.571	8905.25
438.778	8856.1
438.985	9656.86
439.192	9435.67
439.399	9683.48
439.606	9607.7
439.813	10041.87
440.02	10672.65
440.227	10379.79
440.433	10238.48
440.64	10668.55
440.847	10551.82
441.054	10881.54
441.261	11551.23
441.467	11440.64
441.674	11655.67
441.881	12020.21
442.088	12046.83
442.294	11911.67
442.501	12327.41
442.708	12524.01
442.914	12802.54
443.121	13619.67
443.328	13263.33
443.534	14035.41
443.741	13779.42
443.948	13486.56
444.154	14660.04
444.361	14604.75
444.568	14711.24
444.774	14793.16
444.981	14932.42
445.187	15202.75
445.394	15985.08
445.6	15692.22
445.807	17299.87
446.013	16343.47
446.22	16753.07
446.426	17406.37
446.633	17445.28
446.839	18098.58
447.046	17148.33
447.252	18551.18
447.459	18393.49
447.665	18530.7
447.871	19032.46
448.078	19997.05
448.284	19155.33
448.491	19605.89
448.697	20453.75
448.903	20750.7
449.11	21113.19
449.316	20326.77
449.522	20887.92
449.728	21467.49
449.935	21784.93
450.141	21686.62
450.347	22266.2
450.553	21338.47
450.76	21961.05
450.966	22612.31
451.172	22337.88
451.378	23044.43
451.584	22503.76
451.791	23302.47
451.997	23066.95
452.203	23458.12
452.409	23615.81
452.615	23462.21
452.821	22346.07
453.027	22073.69
453.233	23337.29
453.44	22389.08
453.646	22997.32
453.852	22946.12
454.058	23265.61
454.264	22397.27
454.47	23210.31
454.676	22520.15
454.882	23099.72
455.088	21563.75
455.294	21426.53
455.5	21813.6
455.705	22264.15
455.911	21168.49
456.117	21193.06
456.323	20670.83
456.529	19351.94
456.735	20576.62
456.941	19886.46
457.147	19661.18
457.352	18798.99
457.558	18893.19
457.764	18831.76
457.97	18504.08
458.176	18049.43
458.381	18160.02
458.587	17389.99
458.793	17420.7
458.999	16259.51
459.204	17471.9
459.41	17088.93
459.616	15741.37
459.821	15966.65
460.027	15927.74
460.233	15436.22
460.438	14778.83
460.644	15090.12
460.85	14225.87
461.055	14266.83
461.261	14264.78
461.466	13064.68
461.672	12517.87
461.878	13433.31
462.083	12702.18
462.289	12216.82
462.494	12184.05
462.7	11657.72
462.905	11379.2
463.111	11678.2
463.316	11876.85
463.522	11469.31
463.727	11502.08
463.932	11614.71
464.138	11153.92
464.343	11545.08
464.549	11110.91
464.754	11504.12
464.959	11393.53
465.165	11366.91
465.37	10803.72
465.575	10605.06
465.781	11045.38
465.986	11168.26
466.191	10539.53
466.397	10375.69
466.602	10029.59
466.807	10480.14
467.012	10566.15
467.218	10215.95
467.423	10050.07
467.628	10336.78
467.833	10623.5
468.038	10183.18
468.244	10066.45
468.449	10535.43
468.654	9945.62
468.859	9912.85
469.064	10082.83
469.269	9411.1
469.474	9599.51
469.679	9894.42
469.885	9441.82
470.09	9652.76
470.295	9388.57
470.5	9445.91
470.705	9454.11
470.91	9224.73
471.115	9040.42
471.32	9468.44
471.525	9361.95
471.73	9077.28
471.935	8983.07
472.139	8667.69
472.344	8751.65
472.549	8700.45
472.754	8655.4
472.959	8421.93
473.164	8428.07
473.369	8227.37
473.574	8645.16
473.778	8372.78
473.983	8366.64
474.188	8395.31
474.393	7905.84
474.598	8012.34
474.802	7893.55
475.007	7725.62
475.212	7907.89
475.417	7418.43
475.621	7606.84
475.826	7555.64
476.031	7508.54
476.235	7279.16
476.44	7404.09
476.645	7285.31
476.849	7230.01
477.054	7184.96
477.259	7123.52
477.463	7160.38
477.668	6808.13
477.872	6951.49
478.077	6851.14
478.282	6679.11
478.486	6713.92
478.691	6625.86
478.895	6732.36
479.1	6496.84
479.304	6664.77
479.509	6261.32
479.713	6505.03
479.918	6396.49
480.122	6277.71
480.326	6253.13
480.531	6335.05
480.735	6150.73
480.94	6251.08
481.144	6298.19
481.348	6216.27
481.553	6156.88
481.757	6103.63
481.961	6181.45
482.166	6267.47
482.37	6224.46
482.574	6085.2
482.778	6134.35
482.983	6113.87
483.187	5986.9
483.391	6238.8
483.595	5915.22
483.8	6013.52
484.004	6027.85
484.208	6283.85
484.412	6210.12
484.616	6228.56
484.821	5982.8
485.025	6160.97
485.229	6171.21
485.433	5937.74
485.637	6206.03
485.841	6044.24
486.045	6103.63
486.249	6156.88
486.453	5882.45
486.657	6029.9
486.861	6167.12
487.065	6044.24
487.269	5952.08
487.473	6070.86
487.677	6177.36
487.881	6214.22
488.085	6150.73
488.289	5990.99
488.493	6095.44
488.697	6259.28
488.901	6203.98
489.105	6054.48
489.309	6193.74
489.512	6165.07
489.716	6199.88
489.92	6099.53
490.124	6277.71
490.328	6261.32
490.531	6273.61
490.735	6464.07
490.939	6386.25
491.143	6226.51
491.346	6234.7
491.55	6496.84
491.754	6550.09
491.958	6482.5
492.161	6560.33
492.365	6545.99
492.569	6474.31
492.772	6437.45
492.976	6564.42
493.18	6492.74
493.383	6758.98
493.587	6742.6
493.79	6924.86
493.994	6644.29
494.197	6765.12
494.401	6939.2
494.605	6931.01
494.808	6789.7
495.012	6941.25
495.215	6939.2
495.419	7121.47
495.622	6965.82
495.825	7035.46
496.029	7154.24
496.232	7301.69
496.436	7285.31
496.639	7469.62
496.843	7350.84
497.046	7619.13
497.249	7631.41
497.453	7688.76
497.656	7881.27
497.859	7668.28
498.063	7903.79
498.266	8006.19
498.469	7856.69
498.673	7998
498.876	8315.44
499.079	8149.55
499.282	8247.85
499.485	8315.44
499.689	8530.47
499.892	8825.38
500.095	8708.65
500.298	8864.29
500.501	8763.94
500.705	9073.18
500.908	9173.53
501.111	9208.35
501.314	9194.01
501.517	9357.85
501.72	9421.34
501.923	9558.55
502.126	9558.55
502.329	9859.6
502.532	9986.58
502.735	10017.3
502.938	10088.98
503.141	10066.45
503.344	10469.9
503.547	10394.12
503.75	10578.44
503.953	10605.06
504.156	10785.29
504.359	10852.87
504.562	10959.36
504.765	11160.06
504.968	11276.8
505.17	11444.73
505.373	11305.47
505.576	11426.3
505.779	11758.07
505.982	11934.2
506.185	11926
506.387	12118.51
506.59	12204.53
506.793	12681.71
506.996	12442.09
507.198	12884.45
507.401	12669.42
507.604	12947.94
507.807	13371.87
508.009	13277.66
508.212	13292
508.415	13537.76
508.617	13601.24
508.82	13834.71
509.022	13629.91
509.225	14178.77
509.428	14229.97
509.63	14305.74
509.833	14352.85
510.035	14602.7
510.238	14576.08
510.44	14807.5
510.643	14952.9
510.845	15075.78
511.048	15206.85
511.25	15425.98
511.453	15595.96
511.655	16112.05
511.858	15677.88
512.06	15931.83
512.262	16234.93
512.465	16075.19
512.667	16300.47
512.87	16646.57
513.072	16560.56
513.274	17215.91
513.477	17101.22
513.679	17287.59
513.881	17715.61
514.084	17770.91
514.286	17738.14
514.488	18094.49
514.69	18127.25
514.893	18373.01
515.095	18383.25
515.297	18712.97
515.499	18665.87
515.701	19091.85
515.904	19192.2
516.106	19181.96
516.308	19712.38
516.51	19880.32
516.712	19716.48
516.914	20130.17
517.116	20445.55
517.318	20234.61
517.52	20453.75
517.722	20674.93
517.925	20996.46
518.127	21207.4
518.329	21111.14
518.531	21254.5
518.733	21567.84
518.935	21838.17
519.136	22110.55
519.338	22208.86
519.54	22253.91
519.742	22509.91
519.944	22661.46
520.146	23169.35
520.348	23249.22
520.55	23415.11
520.752	23589.19
520.954	23785.79
521.155	23664.96
521.357	24179
521.559	24414.52
521.761	24209.72
521.963	24607.03
522.164	24688.95
522.366	24881.45
522.568	25028.91
522.77	25340.2
522.971	25432.36
523.173	25295.14
523.375	25819.42
523.576	25815.33
523.778	25567.52
523.98	26145.05
524.181	26200.35
524.383	26409.24
524.584	26652.95
524.786	26683.67
524.988	26630.42
525.189	27042.06
525.391	27087.12
525.592	27279.63
525.794	27435.27
525.995	27379.98
526.197	27599.11
526.398	27619.59
526.6	27799.81
526.801	28207.36
527.003	27947.26
527.204	28133.63
527.406	28578.04
527.607	28457.21
527.808	28678.39
528.01	28389.63
528.211	28559.61
528.412	29100.27
528.614	28600.57
528.815	28811.51
529.016	29018.35
529.218	29067.5
529.419	29053.17
529.62	29450.47
529.822	28989.68
530.023	29237.48
530.224	29622.5
530.425	29206.76
530.626	29208.81
530.828	29083.89
531.029	29870.31
531.23	29438.19
531.431	29511.91
531.632	29726.95
531.833	29999.33
532.035	29657.32
532.236	30093.54
532.437	30195.93
532.638	29837.54
532.839	30222.56
533.04	30312.67
533.241	29772
533.442	30177.5
533.643	30232.8
533.844	29950.18
534.045	30658.77
534.246	29685.99
534.447	30558.42
534.648	30091.49
534.849	29937.89
535.05	29894.88
535.251	30075.1
535.451	29962.47
535.652	30306.52
535.853	30255.33
536.054	30224.61
536.255	30025.95
536.456	29876.45
536.657	30654.68
536.857	30066.91
537.058	30197.98
537.259	30273.76
537.46	30316.76
537.66	30464.22
537.861	30445.79
538.062	30367.96
538.263	30226.65
538.463	30120.16
538.664	30064.86
538.865	30568.66
539.065	30410.97
539.266	30353.63
539.466	30535.9
539.667	29958.37
539.868	30539.99
540.068	30345.44
540.269	30122.21
540.469	30593.24
540.67	30238.94
540.87	30013.66
541.071	30034.14
541.271	30302.43
541.472	30361.82
541.672	30318.81
541.873	30093.54
542.073	29667.56
542.274	30388.44
542.474	30200.03
542.675	30267.61
542.875	30382.3
543.075	30302.43
543.276	30163.17
543.476	30468.31
543.676	29987.04
543.877	30161.12
544.077	30214.37
544.277	30275.8
544.478	29763.81
544.678	30499.03
544.878	30038.24
545.078	29980.9
545.279	29835.49
545.479	29845.73
545.679	30042.34
545.879	29931.75
546.079	30195.93
546.28	30292.19
546.48	29860.07
546.68	30163.17
546.88	29862.11
547.08	29835.49
547.28	29913.31
547.48	29622.5
547.68	30009.57
547.88	30056.67
548.081	30103.78
548.281	29804.77
548.481	30210.27
548.681	30017.76
548.881	30222.56
549.081	29976.8
549.28	29952.23
549.48	30271.71
549.68	30079.2
549.88	30085.34
550.08	29696.23
550.28	29982.95
550.48	30042.34
550.68	30173.41
550.88	29982.95
551.08	29802.72
551.279	30058.72
551.479	29915.36
551.679	29739.24
551.879	29720.81
552.079	29923.55
552.278	29702.37
552.478	29743.33
552.678	30036.19
552.878	30181.6
553.077	29489.38
553.277	29833.44
553.477	30300.38
553.676	29810.92
553.876	29984.99
554.076	29882.59
554.275	29815.01
554.475	29464.81
554.674	29821.16
554.874	29581.54
555.074	29655.27
555.273	29456.62
555.473	29634.79
555.672	29518.06
555.872	29618.41
556.071	29417.71
556.271	29778.15
556.47	29470.95
556.67	29030.64
556.869	29346.03
557.068	29397.23
557.268	29348.07
557.467	29311.21
557.667	29745.38
557.866	29239.53
558.065	29391.08
558.265	29120.75
558.464	29124.85
558.663	29370.6
558.863	28627.19
559.062	29372.65
559.261	28887.28
559.461	29186.29
559.66	28532.98
559.859	28621.05
560.058	28223.74
560.258	28541.18
560.457	28610.81
560.656	28803.32
560.855	28313.85
561.054	28553.46
561.253	28287.23
561.453	28829.94
561.652	28430.58
561.851	28555.51
562.05	28444.92
562.249	28340.47
562.448	28440.82
562.647	28010.75
562.846	27971.84
563.045	28084.48
563.244	27951.36
563.443	28115.2
563.642	27705.6
563.841	27902.21
564.04	27828.48
564.239	27986.18
564.438	27715.84
564.637	27764.99
564.836	27650.31
565.035	27521.29
565.234	27375.88
565.432	27250.95
565.631	27437.32
565.83	27674.88
566.029	27326.73
566.228	27062.54
566.427	27109.65
566.625	26851.6
566.824	26849.55
567.023	27175.18
567.222	26657.04
567.42	27126.03
567.619	26511.64
567.818	26474.77
568.016	26544.41
568.215	26976.53
568.414	26343.7
568.612	26728.72
568.811	26636.56
569.01	26507.54
569.208	25895.2
569.407	26175.77
569.605	26118.43
569.804	26206.49
570.002	25848.1
570.201	25966.88
570.4	25889.06
570.598	25551.14
570.797	25284.9
570.995	25694.5
571.193	25020.72
571.392	25973.02
571.59	25397.54
571.789	25489.7
571.987	25157.93
572.186	25000.24
572.384	25215.27
572.582	25192.75
572.781	25200.94
572.979	24822.06
573.177	25211.18
573.376	25065.77
573.574	24348.98
573.772	24701.23
573.971	24545.59
574.169	24514.87
574.367	24518.96
574.565	24379.7
574.763	24162.62
574.962	24361.27
575.16	23865.66
575.358	24226.1
575.556	24013.12
575.754	24330.55
575.952	23839.04
576.151	24033.6
576.349	23736.64
576.547	23984.44
576.745	23673.15
576.943	23992.64
577.141	23548.23
577.339	23728.45
577.537	23253.32
577.735	23494.98
577.933	23224.65
578.131	23392.58
578.329	23212.36
578.527	23017.8
578.725	23050.57
578.923	22964.56
579.121	23032.14
579.319	22589.78
579.516	22968.65
579.714	22837.58
579.912	22944.08
580.11	22718.8
580.308	22640.98
580.506	22550.87
580.704	22258.01
580.901	22540.63
581.099	22700.37
581.297	22239.58
581.495	22083.93
581.692	22585.68
581.89	22120.79
582.088	22399.32
582.285	21975.39
582.483	22149.46
582.681	22085.98
582.878	21946.72
583.076	21602.66
583.274	21821.79
583.471	21367.14
583.669	21746.01
583.866	21614.94
584.064	21821.79
584.262	21389.67
584.459	21361
584.657	21309.8
584.854	21342.56
585.052	20814.19
585.249	21297.51
585.447	21061.99
585.644	20967.79
585.841	21162.34
586.039	20883.82
586.236	20724.08
586.434	20857.2
586.631	20779.37
586.828	20595.06
587.026	20478.32
587.223	20447.6
587.42	20482.42
587.618	20613.49
587.815	20423.03
588.012	20277.62
588.21	20195.7
588.407	20402.55
588.604	20013.43
588.801	20085.11
588.999	20197.75
589.196	20007.29
589.393	20038.01
589.59	19820.92
589.787	19675.52
589.984	19837.31
590.182	19599.74
590.379	19702.14
590.576	19562.88
590.773	19425.67
590.97	19792.25
591.167	19587.46
591.364	19267.97
591.561	19200.39
591.758	19093.9
591.955	19071.37
592.152	19216.77
592.349	18958.73
592.546	19179.91
592.743	18891.15
592.94	18776.46
593.137	18762.12
593.334	18979.21
593.531	18653.58
593.727	18604.43
593.924	18985.35
594.121	18426.26
594.318	18536.85
594.515	18416.02
594.712	18657.68
594.908	18379.15
595.105	18139.54
595.302	18239.89
595.499	18305.43
595.696	18186.65
595.892	17883.55
596.089	18102.68
596.286	18131.35
596.482	18100.63
596.679	17791.39
596.876	17740.19
597.072	17719.71
597.269	17801.63
597.466	17631.65
597.662	17801.63
597.859	17584.54
598.055	17469.86
598.252	17406.37
598.448	17508.77
598.645	17428.9
598.841	17275.3
599.038	17166.76
599.234	17072.55
599.431	17334.69
599.627	16820.65
599.824	16947.62
600.02	17027.49
600.217	17037.73
600.413	16943.53
600.609	16603.57
600.806	16867.75
601.002	16726.44
601.198	16382.38
601.395	16677.29
601.591	16427.44
601.787	16697.77
601.984	16374.19
602.18	16525.74
602.376	16417.2
602.572	16251.31
602.769	16271.79
602.965	16124.34
603.161	16273.84
603.357	16036.28
603.553	15950.26
603.75	16044.47
603.946	15978.93
604.142	15942.07
604.338	15710.65
604.534	15770.04
604.73	15569.34
604.926	15632.83
605.122	15933.88
605.318	15655.36
605.514	15835.58
605.71	15399.36
605.906	15579.58
606.102	15622.59
606.298	15489.47
606.494	15475.13
606.69	15339.97
606.886	15284.67
607.082	15169.99
607.278	15458.75
607.474	15163.84
607.67	15047.11
607.866	14815.69
608.062	15147.46
608.257	14809.54
608.453	15030.73
608.649	15237.57
608.845	14709.19
609.041	14711.24
609.236	14901.7
609.432	14815.69
609.628	14633.42
609.824	14954.95
610.019	14678.47
610.215	14711.24
610.411	14588.36
610.606	14510.54
610.802	14496.21
610.998	14463.44
611.193	14516.69
611.389	14559.69
611.584	14342.61
611.78	14404.05
611.976	14479.82
612.171	14334.42
612.367	14358.99
612.562	14242.26
612.758	14232.02
612.953	14172.63
613.149	14240.21
613.344	13994.45
613.539	14207.44
613.735	14463.44
613.93	14031.32
614.126	14029.27
614.321	14078.42
614.517	13951.45
614.712	13826.52
614.907	13971.93
615.103	13941.21
615.298	13769.18
615.493	14029.27
615.688	13670.87
615.884	13902.29
616.079	13668.83
616.274	13758.94
616.47	13580.76
616.665	13781.46
616.86	13736.41
617.055	13478.36
617.25	13529.56
617.445	13566.43
617.641	13482.46
617.836	13609.43
618.031	13214.18
618.226	13406.69
618.421	13537.76
618.616	13308.38
618.811	12724.71
619.006	13326.82
619.201	12949.99
619.396	12884.45
619.591	12794.34
619.786	13316.58
619.981	12880.36
620.176	12960.23
620.371	12714.47
620.566	12904.93
620.761	12782.06
620.956	12814.82
621.151	12417.52
621.346	12466.67
621.541	12431.85
621.735	12491.24
621.93	12354.03
622.125	12388.85
622.32	12104.18
622.515	12110.32
622.709	12194.29
622.904	12089.84
623.099	11981.3
623.294	12061.17
623.488	11815.41
623.683	11926
623.878	11639.29
624.072	11962.87
624.267	11700.73
624.462	11694.58
624.656	11442.68
624.851	11493.88
625.046	11387.39
625.24	11534.84
625.435	11180.54
625.629	11225.6
625.824	11192.83
626.018	11223.55
626.213	11076.1
626.407	11100.67
626.602	10861.06
626.796	11039.23
626.991	10760.71
627.185	10885.64
627.38	10861.06
627.574	10684.94
627.768	10715.66
627.963	10500.62
628.157	10328.59
628.352	10631.69
628.546	10355.21
628.74	10306.06
628.935	10250.77
629.129	10234.38
629.323	10359.31
629.517	10160.66
629.712	10041.87
629.906	9869.84
630.1	9812.5
630.294	9921.04
630.489	9626.14
630.683	9937.43
630.877	9673.24
631.071	9828.88
631.265	9697.81
631.459	9503.26
631.653	9546.26
631.848	9458.2
632.042	9394.72
632.236	9472.54
632.43	9273.89
632.624	9302.56
632.818	9337.37
633.012	9204.25
633.206	9071.14
633.4	9191.97
633.594	9097.76
633.788	9091.62
633.982	8909.35
634.176	9079.33
634.369	8964.64
634.563	8804.9
634.757	8821.28
634.951	8665.64
635.145	8706.6
635.339	8804.9
635.533	8731.17
635.726	8628.77
635.92	8540.71
636.114	8495.66
636.308	8348.2
636.501	8446.51
636.695	8340.01
636.889	7998
637.083	8157.74
637.276	8073.78
637.47	8034.86
637.664	8063.54
637.857	7946.8
638.051	8022.58
638.244	7979.57
638.438	7950.9
638.632	8067.63
638.825	7795.25
639.019	7813.68
639.212	7625.27
639.406	7692.85
639.599	7645.75
639.793	7481.91
639.986	7471.67
640.18	7584.31
640.373	7578.17
640.567	7469.62
640.76	7473.72
640.954	7387.71
641.147	7242.3
641.34	7338.55
641.534	7326.27
641.727	7381.56
641.92	7244.35
642.114	7127.61
642.307	7164.48
642.5	6990.4
642.694	7123.52
642.887	7002.69
643.08	6945.34
643.273	6922.82
643.467	6849.09
643.66	6785.6
643.853	6781.51
644.046	6718.02
644.239	6703.68
644.432	6738.5
644.626	6580.81
644.819	6607.43
645.012	6750.79
645.205	6398.54
645.398	6490.7
645.591	6578.76
645.784	6564.42
645.977	6419.02
646.17	6429.26
646.363	6343.24
646.556	6330.95
646.749	6500.94
646.942	6246.99
647.135	6021.71
647.328	6093.39
647.521	6072.91
647.714	5978.7
647.907	6128.21
648.099	6173.26
648.292	6206.03
648.485	5988.94
648.678	6019.66
648.871	5974.61
649.064	5861.97
649.256	5937.74
649.449	5667.41
649.642	5665.36
649.835	5726.8
650.027	5798.48
650.22	5755.47
650.413	5640.79
650.605	5653.08
650.798	5702.23
650.991	5601.88
651.183	5579.35
651.376	5352.02
651.568	5587.54
651.761	5431.9
651.954	5423.7
652.146	5360.22
652.339	5499.48
652.531	5335.64
652.724	5317.21
652.916	5096.03
653.109	5186.14
653.301	5184.09
653.494	5188.19
653.686	5085.79
653.879	5161.56
654.071	5065.31
654.263	5136.99
654.456	5032.54
654.648	5118.56
654.84	5075.55
655.033	5026.4
655.225	5005.92
655.417	4895.33
655.61	4942.43
655.802	4944.48
655.994	4893.28
656.186	4864.61
656.379	4862.56
656.571	4780.64
656.763	4700.77
656.955	4645.48
657.148	4713.06
657.34	4794.98
657.532	4659.81
657.724	4557.41
657.916	4725.35
658.108	4598.37
658.3	4659.81
658.492	4575.84
658.684	4491.88
658.876	4545.13
659.068	4373.1
659.26	4377.19
659.452	4295.27
659.644	4366.95
659.836	4344.42
660.028	4371.05
660.22	4258.41
660.412	4323.94
660.604	4254.31
660.796	4336.23
660.988	4129.39
661.18	4102.76
661.372	4006.51
661.563	4145.77
661.755	4045.42
661.947	4082.28
662.139	4094.57
662.331	4086.38
662.522	3951.21
662.714	3887.73
662.906	3975.79
663.097	3893.87
663.289	3963.5
663.481	3904.11
663.673	3902.06
663.864	3881.58
664.056	3787.38
664.247	3822.19
664.439	3801.71
664.631	3687.03
664.822	3725.94
665.014	3840.62
665.205	3783.28
665.397	3670.64
665.588	3609.2
665.78	3623.54
665.971	3654.26
666.163	3693.17
666.354	3500.66
666.546	3668.59
666.737	3668.59
666.929	3541.62
667.12	3515
667.311	3596.92
667.503	3512.95
667.694	3650.16
667.885	3494.52
668.077	3484.28
668.268	3338.87
668.459	3424.89
668.651	3455.61
668.842	3334.78
669.033	3465.85
669.224	3215.99
669.416	3375.74
669.607	3345.02
669.798	3283.58
669.989	3310.2
670.18	3168.89
670.371	3373.69
670.563	3197.56
670.754	3177.08
670.945	3138.17
671.136	3226.23
671.327	3103.36
671.518	3140.22
671.709	3097.21
671.9	3187.32
672.091	3019.39
672.282	3064.44
672.473	3095.16
672.664	2966.14
672.855	3015.29
673.046	3074.68
673.237	3041.92
673.428	3005.05
673.619	3005.05
673.809	3037.82
674	2910.85
674.191	3023.48
674.382	2980.48
674.573	2964.09
674.764	2957.95
674.954	2914.94
675.145	2767.49
675.336	2890.37
675.527	2968.19
675.717	2837.12
675.908	2734.72
676.099	2814.59
676.289	2857.6
676.48	2818.69
676.671	2704
676.861	2747.01
677.052	2712.19
677.243	2742.91
677.433	2611.84
677.624	2810.5
677.814	2771.58
678.005	2671.23
678.195	2624.13
678.386	2595.46
678.576	2507.4
678.767	2574.98
678.957	2648.71
679.148	2630.27
679.338	2630.27
679.529	2624.13
679.719	2577.03
679.909	2630.27
680.1	2587.27
680.29	2431.62
680.481	2562.69
680.671	2538.12
680.861	2585.22
681.052	2495.11
681.242	2513.54
681.432	2450.05
681.622	2552.45
681.813	2304.65
682.003	2517.64
682.193	2464.39
682.383	2542.21
682.573	2407.05
682.764	2351.75
682.954	2343.56
683.144	2290.31
683.334	2409.09
683.524	2304.65
683.714	2452.1
683.904	2392.71
684.094	2439.81
684.284	2353.8
684.474	2411.14
684.664	2429.57
684.854	2261.64
685.044	2331.27
685.234	2292.36
685.424	2265.74
685.614	2151.05
685.804	2327.18
685.994	2382.47
686.184	2316.94
686.374	2323.08
686.564	2232.97
686.753	2126.47
686.943	2278.02
687.133	2124.43
687.323	2132.62
687.513	2151.05
687.702	2198.15
687.892	2140.81
688.082	2140.81
688.272	2149
688.461	2228.87
688.651	2257.54
688.841	2235.02
689.03	2146.95
689.22	2112.14
689.41	2138.76
689.599	2116.23
689.789	2058.89
689.979	1999.5
690.168	2007.69
690.358	2093.71
690.547	2034.32
690.737	2024.08
690.926	2138.76
691.116	2030.22
691.305	2005.64
691.495	2048.65
691.684	2091.66
691.874	1884.81
692.063	2110.09
692.252	2054.8
692.442	1905.29
692.631	1950.35
692.82	1942.16
693.01	1981.07
693.199	2017.93
693.388	1893.01
693.578	1886.86
693.767	1948.3
693.956	1979.02
694.146	2013.84
694.335	2024.08
694.524	1952.4
694.713	1890.96
694.902	1907.34
695.092	1917.58
695.281	1886.86
695.47	1862.29
695.659	1862.29
695.848	1843.85
696.037	1784.46
696.226	1942.16
696.415	1874.57
696.604	1862.29
696.793	1843.85
696.982	1929.87
697.171	1948.3
697.36	1938.06
697.549	1899.15
697.738	1782.42
697.927	1948.3
698.116	1852.05
698.305	1880.72
698.494	1925.77
698.683	1882.77
698.872	1880.72
699.061	1800.85
699.25	1876.62
699.438	1972.88
699.627	1806.99
699.816	1923.73
700.005	1880.72
700.193	1897.1
700.382	1882.77
700.571	1862.29
700.76	1864.33
700.948	1888.91
701.137	1804.94
701.326	1735.31
701.514	1917.58
701.703	1866.38
701.892	1792.66
702.08	1874.57
702.269	1821.33
702.457	1911.44
702.646	1829.52
702.834	1815.18
703.023	1800.85
703.212	1864.33
703.4	1804.94
703.589	1841.81
703.777	1895.05
703.965	1860.24
704.154	1804.94
704.342	1870.48
704.531	1755.79
704.719	1813.13
704.907	1790.61
705.096	1827.47
705.284	1862.29
705.472	1874.57
705.661	1821.33
705.849	1850
706.037	1870.48
706.226	1784.46
706.414	1809.04
706.602	1782.42
706.79	1821.33
706.979	1866.38
707.167	1911.44
707.355	1827.47
707.543	1870.48
707.731	1792.66
707.919	1759.89
708.107	1757.84
708.296	1743.5
708.484	1776.27
708.672	1757.84
708.86	1743.5
709.048	1718.93
709.236	1833.61
709.424	1837.71
709.612	1903.25
709.8	1852.05
709.988	1784.46
710.176	1833.61
710.364	1866.38
710.551	1813.13
710.739	1747.6
710.927	1868.43
711.115	1847.95
711.303	1774.22
711.491	1845.9
711.679	1956.49
711.866	1915.53
712.054	1942.16
712.242	1800.85
712.43	1884.81
712.617	1909.39
712.805	1946.25
712.993	1899.15
713.181	1770.13
713.368	1751.7
713.556	1804.94
713.744	1841.81
713.931	1841.81
714.119	1923.73
714.306	1952.4
714.494	1833.61
714.682	1899.15
714.869	1831.57
715.057	1862.29
715.244	1819.28
715.432	1931.92
715.619	1839.76
715.807	1870.48
715.994	1874.57
716.182	1798.8
716.369	1841.81
716.556	1788.56
716.744	1841.81
716.931	1796.75
717.119	1946.25
717.306	1696.4
717.493	1806.99
717.681	1823.37
717.868	1856.14
718.055	1809.04
718.242	1743.5
718.43	1800.85
718.617	1852.05
718.804	1778.32
718.991	1804.94
719.179	1794.7
719.366	1788.56
719.553	1841.81
719.74	1825.42
719.927	1843.85
720.114	1782.42
720.301	1802.9
720.488	1737.36
720.676	1819.28
720.863	1788.56
721.05	1850
721.237	1870.48
721.424	1839.76
721.611	1837.71
721.798	1700.5
721.985	1813.13
722.172	1755.79
722.358	1770.13
722.545	1800.85
722.732	1776.27
722.919	1733.26
723.106	1800.85
723.293	1843.85
723.48	1833.61
723.667	1776.27
723.853	1821.33
724.04	1835.66
724.227	1817.23
724.414	1788.56
724.6	1663.63
724.787	1878.67
724.974	1753.74
725.161	1800.85
725.347	1737.36
725.534	1841.81
725.72	1809.04
725.907	1729.17
726.094	1776.27
726.28	1870.48
726.467	1847.95
726.653	1739.41
726.84	1868.43
727.027	1788.56
727.213	1761.94
727.4	1757.84
727.586	1841.81
727.773	1837.71
727.959	1852.05
728.145	1823.37
728.332	1780.37
728.518	1677.97
728.705	1931.92
728.891	1835.66
729.077	1786.51
729.264	1800.85
729.45	1735.31
729.636	1743.5
729.823	1741.46
730.009	1671.83
730.195	1985.16
730.382	1811.09
730.568	1761.94
730.754	1768.08
730.94	1827.47
731.126	1727.12
731.313	1854.09
731.499	1839.76
731.685	1768.08
731.871	1747.6
732.057	1702.54
732.243	1809.04
732.429	1743.5
732.615	1749.65
732.801	1702.54
732.987	1698.45
733.173	1745.55
733.359	1723.02
733.545	1768.08
733.731	1727.12
733.917	1688.21
734.103	1686.16
734.289	1682.06
734.475	1743.5
734.661	1800.85
734.847	1651.35
735.033	1575.57
735.219	1741.46
735.404	1860.24
735.59	1790.61
735.776	1716.88
735.962	1737.36
736.148	1714.83
736.333	1729.17
736.519	1667.73
736.705	1714.83
736.89	1704.59
737.076	1686.16
737.262	1641.11
737.447	1671.83
737.633	1653.39
737.819	1680.02
738.004	1651.35
738.19	1739.41
738.375	1702.54
738.561	1702.54
738.747	1622.67
738.932	1673.87
739.118	1743.5
739.303	1682.06
739.489	1704.59
739.674	1587.86
739.859	1657.49
740.045	1630.87
740.23	1579.67
740.416	1608.34
740.601	1647.25
740.786	1587.86
740.972	1616.53
741.157	1567.38
741.342	1596.05
741.528	1559.19
741.713	1548.95
741.898	1532.56
742.084	1596.05
742.269	1551
742.454	1673.87
742.639	1524.37
742.824	1567.38
743.01	1553.04
743.195	1587.86
743.38	1548.95
743.565	1505.94
743.75	1473.17
743.935	1518.23
744.12	1487.51
744.305	1612.43
744.49	1436.31
744.675	1589.91
744.86	1442.45
745.045	1561.23
745.23	1487.51
745.415	1477.27
745.6	1426.07
745.785	1448.6
745.97	1544.85
746.155	1440.4
746.34	1366.68
746.525	1456.79
746.71	1481.36
746.895	1464.98
747.079	1409.69
747.264	1397.4
747.449	1331.86
747.634	1376.92
747.819	1358.49
748.003	1321.62
748.188	1325.72
748.373	1333.91
748.557	1464.98
748.742	1237.66
748.927	1366.68
749.111	1286.81
749.296	1292.95
749.481	1432.21
749.665	1256.09
749.85	1342.1
750.034	1268.38
750.219	1280.66
750.404	1192.6
750.588	1354.39
750.773	1292.95
750.957	1368.73
751.141	1256.09
751.326	1229.46
751.51	1215.13
751.695	1137.31
751.879	1188.5
752.064	1249.94
752.248	1247.9
752.432	1266.33
752.617	1129.11
752.801	1243.8
752.985	1286.81
753.17	1217.18
753.354	1190.55
753.538	1186.46
753.722	1106.59
753.907	1139.35
754.091	1118.87
754.275	1108.63
754.459	1114.78
754.643	1098.39
754.828	1184.41
755.012	1206.94
755.196	1065.63
755.38	998.04
755.564	1026.71
755.748	1000.09
755.932	1077.91
756.116	1065.63
756.3	1094.3
756.484	1106.59
756.668	1108.63
756.852	975.52
757.036	1024.67
757.22	983.71
757.404	926.36
757.588	961.18
757.772	993.95
757.956	998.04
758.14	998.04
758.323	852.64
758.507	1063.58
758.691	998.04
758.875	955.04
759.059	991.9
759.242	899.74
759.426	940.7
759.61	907.93
759.794	912.03
759.977	1000.09
760.161	1000.09
760.345	938.65
760.528	957.08
760.712	881.31
760.895	914.08
761.079	854.69
761.263	973.47
761.446	955.04
761.63	766.62
761.813	844.45
761.997	889.5
762.18	879.26
762.364	776.86
762.547	809.63
762.731	860.83
762.914	811.68
763.098	758.43
763.281	766.62
763.464	805.53
763.648	832.16
763.831	821.92
764.015	805.53
764.198	852.64
764.381	809.63
764.564	883.36
764.748	821.92
764.931	774.81
765.114	834.21
765.297	864.93
765.481	750.24
765.664	793.25
765.847	848.54
766.03	783.01
766.213	766.62
766.397	793.25
766.58	717.47
766.763	850.59
766.946	731.81
767.129	801.44
767.312	785.05
767.495	760.48
767.678	740
767.861	834.21
768.044	668.32
768.227	793.25
768.41	768.67
768.593	807.58
768.776	809.63
768.959	744.1
769.142	737.95
769.324	793.25
769.507	658.08
769.69	770.72
769.873	719.52
770.056	758.43
770.239	670.37
770.421	838.3
770.604	664.22
770.787	688.8
770.97	719.52
771.152	647.84
771.335	715.42
771.518	690.85
771.7	754.34
771.883	754.34
772.066	670.37
772.248	703.14
772.431	678.56
772.613	746.14
772.796	705.18
772.978	690.85
773.161	694.94
773.343	694.94
773.526	694.94
773.708	696.99
773.891	553.63
774.073	690.85
774.256	555.68
774.438	737.95
774.621	574.11
774.803	668.32
774.985	678.56
775.168	649.89
775.35	590.5
775.532	613.03
775.715	570.02
775.897	590.5
776.079	623.27
776.261	641.7
776.444	672.42
776.626	588.45
776.808	647.84
776.99	551.59
777.173	531.11
777.355	572.07
777.537	545.44
777.719	563.87
777.901	627.36
778.083	529.06
778.265	567.97
778.447	563.87
778.629	492.2
778.811	551.59
778.993	404.13
779.175	647.84
779.357	553.63
779.539	533.15
779.721	563.87
779.903	580.26
780.085	582.31
780.267	506.53
780.449	531.11
780.631	606.88
780.812	533.15
780.994	529.06
781.176	529.06
781.358	490.15
781.54	469.67
781.721	475.81
781.903	465.57
782.085	477.86
782.267	508.58
782.448	516.77
782.63	506.53
782.812	441
782.993	506.53
783.175	432.8
783.357	434.85
783.538	412.32
783.72	426.66
783.901	377.51
784.083	430.76
784.264	420.52
784.446	418.47
784.627	449.19
784.809	365.22
784.99	350.89
785.172	395.94
785.353	352.93
785.535	402.08
785.716	367.27
785.897	412.32
786.079	361.13
786.26	408.23
786.441	346.79
786.623	391.84
786.804	354.98
786.985	441
787.167	441
787.348	301.73
787.529	348.84
787.71	371.37
787.891	391.84
788.073	303.78
788.254	383.65
788.435	408.23
788.616	314.02
788.797	330.41
788.978	393.89
789.159	361.13
789.34	443.04
789.522	344.74
789.703	357.03
789.884	352.93
790.065	326.31
790.246	365.22
790.427	320.17
790.607	289.45
790.788	350.89
790.969	279.21
791.15	252.58
791.331	340.65
791.512	342.69
791.693	240.3
791.874	260.77
792.054	402.08
792.235	287.4
792.416	275.11
792.597	287.4
792.778	295.59
792.958	248.49
793.139	326.31
793.32	330.41
793.5	314.02
793.681	305.83
793.862	328.36
794.042	303.78
794.223	238.25
794.404	309.93
794.584	275.11
794.765	352.93
794.945	328.36
795.126	318.12
795.306	346.79
795.487	322.21
795.667	252.58
795.848	311.97
796.028	240.3
796.209	207.53
796.389	283.3
796.57	240.3
796.75	254.63
796.93	277.16
797.111	178.86
797.291	275.11
797.471	301.73
797.652	291.49
797.832	193.19
798.012	279.21
798.192	240.3
798.373	279.21
798.553	258.73
798.733	330.41
798.913	219.82
799.093	293.54
799.274	207.53
799.454	254.63
799.634	248.49
799.814	197.29
799.994	287.4
800.174	268.97
800.354	164.52
800.534	228.01
800.714	285.35
800.894	219.82
801.074	174.76
801.254	150.18
801.434	268.97
801.614	211.62
801.794	105.13
801.974	725.66
802.154	271.01
802.334	248.49
802.514	137.9
802.693	246.44
802.873	217.77
803.053	195.24
803.233	199.34
803.413	141.99
803.592	170.66
803.772	223.91
803.952	180.9
804.131	203.43
804.311	262.82
804.491	252.58
804.67	170.66
804.85	197.29
805.03	205.48
805.209	271.01
805.389	180.9
805.568	191.14
805.748	193.19
805.928	219.82
806.107	148.14
806.287	297.64
806.466	121.51
806.646	156.33
806.825	254.63
807.004	150.18
807.184	150.18
807.363	189.1
807.543	98.99
807.722	174.76
807.901	217.77
808.081	283.3
808.26	193.19
808.439	141.99
808.619	191.14
808.798	105.13
808.977	185
809.156	197.29
809.336	172.71
809.515	203.43
809.694	103.08
809.873	131.75
810.052	189.1
810.231	244.39
810.411	121.51
810.59	162.47
810.769	164.52
810.948	213.67
811.127	43.69
811.306	166.57
811.485	107.18
811.664	141.99
811.843	144.04
812.022	205.48
812.201	135.85
812.38	195.24
812.559	146.09
812.737	211.62
812.916	115.37
813.095	195.24
813.274	162.47
813.453	180.9
813.632	141.99
813.811	191.14
813.989	111.27
814.168	111.27
814.347	98.99
814.526	80.55
814.704	166.57
814.883	146.09
815.062	105.13
815.24	117.42
815.419	72.36
815.598	176.81
815.776	127.66
815.955	170.66
816.133	133.8
816.312	131.75
816.49	160.42
816.669	162.47
816.847	170.66
817.026	144.04
817.204	144.04
817.383	219.82
817.561	125.61
817.74	168.62
817.918	94.89
818.097	64.17
818.275	70.31
818.453	221.86
818.632	123.56
818.81	96.94
818.988	86.7
819.167	82.6
819.345	101.03
819.523	96.94
819.701	60.07
819.879	146.09
820.058	105.13
820.236	174.76
820.414	141.99
820.592	25.26
820.77	76.46
820.948	90.79
821.127	94.89
821.305	135.85
821.483	125.61
821.661	117.42
821.839	113.32
822.017	101.03
822.195	94.89
822.373	88.75
822.551	189.1
822.729	74.41
822.907	94.89
823.085	98.99
823.262	107.18
823.44	88.75
823.618	105.13
823.796	141.99
823.974	133.8
824.152	2.73
824.329	70.31
824.507	146.09
824.685	74.41
824.863	166.57
825.04	119.46
825.218	137.9
825.396	103.08
825.574	115.37
825.751	121.51
825.929	180.9
826.107	113.32
826.284	164.52
826.462	64.17
826.639	105.13
826.817	37.55
826.994	113.32
827.172	72.36
827.349	185
827.527	109.23
827.704	88.75
827.882	62.12
828.059	94.89
828.237	66.22
828.414	133.8
828.591	98.99
828.769	78.51
828.946	101.03
829.124	64.17
829.301	49.83
829.478	139.94
829.655	105.13
829.833	49.83
830.01	68.27
830.187	82.6
830.364	25.26
830.542	121.51
830.719	66.22
830.896	33.45
831.073	101.03
831.25	127.66
831.427	82.6
831.604	84.65
831.782	96.94
831.959	84.65
832.136	12.97
832.313	72.36
832.49	41.64
832.667	125.61
832.844	76.46
833.021	129.7
833.198	152.23
833.374	55.98
833.551	119.46
833.728	47.79
833.905	35.5
834.082	10.92
834.259	115.37
834.436	131.75
834.612	64.17
834.789	113.32
834.966	125.61
835.143	55.98
835.319	80.55
835.496	107.18
835.673	12.97
835.85	115.37
836.026	29.35
836.203	92.84
836.38	60.07
836.556	121.51
836.733	68.27
836.909	58.03
837.086	47.79
837.262	72.36
837.439	-23.89
837.616	125.61
837.792	94.89
837.968	96.94
838.145	31.4
838.321	146.09
838.498	41.64
838.674	129.7
838.851	113.32
839.027	43.69
839.203	74.41
839.38	115.37
839.556	41.64
839.732	47.79
839.909	39.59
840.085	66.22
840.261	12.97
840.437	49.83
840.614	23.21
840.79	146.09
840.966	41.64
841.142	66.22
841.318	31.4
841.494	137.9
841.671	141.99
841.847	125.61
842.023	23.21
842.199	29.35
842.375	137.9
842.551	49.83
842.727	39.59
842.903	47.79
843.079	70.31
843.255	88.75
843.431	23.21
843.607	31.4
843.783	53.93
843.959	51.88
844.134	35.5
844.31	98.99
844.486	45.74
844.662	86.7
844.838	19.11
845.013	92.84
845.189	43.69
845.365	74.41
845.541	27.31
845.716	19.11
845.892	62.12
846.068	107.18
846.244	109.23
846.419	25.26
846.595	55.98
846.77	62.12
846.946	31.4
847.122	39.59
847.297	41.64
847.473	96.94
847.648	70.31
847.824	115.37
847.999	-3.41
848.175	103.08
848.35	0.68
848.526	82.6
848.701	12.97
848.876	84.65
849.052	33.45
849.227	39.59
849.403	92.84
849.578	82.6
849.753	31.4
849.929	-11.61
850.104	0.68
850.279	64.17
850.454	23.21
850.63	39.59
850.805	-13.65
850.98	64.17
851.155	55.98
851.33	70.31
851.505	105.13
851.681	86.7
851.856	0.68
852.031	27.31
852.206	70.31
852.381	-75.09
852.556	25.26
852.731	15.02
852.906	0.68
853.081	74.41
853.256	60.07
853.431	82.6
853.606	17.07
853.781	51.88
853.956	2.73
854.131	8.87
854.305	49.83
854.48	105.13
854.655	-5.46
854.83	-1.37
855.005	41.64
855.18	94.89
855.354	88.75
855.529	72.36
855.704	117.42
855.879	66.22
856.053	66.22
856.228	43.69
856.403	6.83
856.577	88.75
856.752	-30.04
856.926	49.83
857.101	10.92
857.276	33.45
857.45	107.18
857.625	39.59
857.799	6.83
857.974	8.87
858.148	-44.37
858.323	76.46
858.497	45.74
858.672	6.83
858.846	-17.75
859.02	-3.41
859.195	80.55
859.369	-46.42
859.543	21.16
859.718	90.79
859.892	19.11
860.066	58.03
860.241	96.94
860.415	10.92
860.589	-15.7
860.763	80.55
860.938	-30.04
861.112	64.17
861.286	49.83
861.46	27.31
861.634	-11.61
861.808	10.92
861.982	64.17
862.157	8.87
862.331	82.6
862.505	41.64
862.679	29.35
862.853	90.79
863.027	15.02
863.201	27.31
863.375	-15.7
863.549	-32.08
863.722	31.4
863.896	82.6
864.07	49.83
864.244	10.92
864.418	74.41
864.592	39.59
864.766	-42.32
864.939	64.17
865.113	23.21
865.287	-25.94
865.461	0.68
865.634	39.59
865.808	72.36
865.982	86.7
866.156	12.97
866.329	47.79
866.503	23.21
866.676	23.21
866.85	60.07
867.024	33.45
867.197	-7.51
867.371	4.78
867.544	-7.51
867.718	-21.84
867.891	-7.51
868.065	55.98
868.238	2.73
868.412	35.5
868.585	41.64
868.759	-3.41
868.932	37.55
869.105	-1.37
869.279	76.46
869.452	2.73
869.625	109.23
869.799	21.16
869.972	-5.46
870.145	-1.37
870.319	-19.8
870.492	68.27
870.665	10.92
870.838	37.55
871.011	12.97
871.185	74.41
871.358	-1.37
871.531	49.83
871.704	17.07
871.877	39.59
872.05	-17.75
872.223	47.79
872.396	31.4
872.569	-9.56
872.742	6.83
872.915	17.07
873.088	2.73
873.261	39.59
873.434	8.87
873.607	129.7
873.78	29.35
873.953	-23.89
874.126	-15.7
874.299	55.98
874.471	58.03
874.644	-30.04
874.817	39.59
874.99	49.83
875.163	6.83
875.335	58.03
875.508	12.97
875.681	96.94
875.853	35.5
876.026	23.21
876.199	43.69
876.371	21.16
876.544	-23.89
876.717	25.26
876.889	-1.37
877.062	101.03
877.234	37.55
877.407	12.97
877.579	6.83
877.752	47.79
877.924	-15.7
878.097	-9.56
878.269	-9.56
878.442	121.51
878.614	55.98
878.786	10.92
878.959	70.31
879.131	0.68
879.303	39.59
879.476	-15.7
879.648	27.31
879.82	25.26
879.993	-21.84
880.165	31.4
880.337	23.21
880.509	-36.18
880.681	-15.7
880.854	-1.37
881.026	10.92
881.198	90.79
881.37	-44.37
881.542	41.64
881.714	12.97
881.886	39.59
882.058	55.98
882.23	31.4
882.402	12.97
882.574	72.36
882.746	76.46
882.918	45.74
883.09	101.03
883.262	-21.84
883.434	76.46
883.606	-58.71
883.778	15.02
883.95	45.74
884.122	15.02
884.293	-32.08
884.465	27.31
884.637	64.17
884.809	-19.8
884.98	8.87
885.152	33.45
885.324	66.22
885.496	15.02
885.667	0.68
885.839	-36.18
886.011	70.31
886.182	27.31
886.354	55.98
886.525	0.68
886.697	60.07
886.869	0.68
887.04	-1.37
887.212	39.59
887.383	39.59
887.555	25.26
887.726	62.12
887.897	29.35
888.069	60.07
888.24	12.97
888.412	68.27
888.583	43.69
888.754	37.55
888.926	-66.9
889.097	4.78
889.268	-30.04
889.44	35.5
889.611	10.92
889.782	33.45
889.953	17.07
890.125	51.88
890.296	-71
890.467	70.31
890.638	8.87
890.809	109.23
890.98	-13.65
891.151	41.64
891.323	39.59
891.494	47.79
891.665	-17.75
891.836	131.75
892.007	29.35
892.178	47.79
892.349	35.5
892.52	47.79
892.691	-5.46
892.862	15.02
893.032	21.16
893.203	33.45
893.374	-13.65
893.545	64.17
893.716	-7.51
893.887	8.87
894.057	-118.1
894.228	49.83
894.399	-75.09
894.57	41.64
894.74	6.83
894.911	23.21
895.082	19.11
895.253	58.03
895.423	49.83
895.594	60.07
895.764	17.07
895.935	31.4
896.106	2.73
896.276	21.16
896.447	51.88
896.617	33.45
896.788	23.21
896.958	4.78
897.129	-32.08
897.299	-15.7
897.47	17.07
897.64	119.46
897.81	2.73
897.981	84.65
898.151	-7.51
898.322	8.87
898.492	4.78
898.662	31.4
898.832	-34.13
899.003	27.31
899.173	-25.94
899.343	-7.51
899.513	-1.37
