Data from USB4F104151__74__13-12-21-454.txt Node

Date: Fri Mar 14 13:12:21 EDT 2025
User: louis
Spectrometer: USB4F10415
Trigger mode: 4
Integration Time (sec): 2.000000E-2
Scans to average: 1
Electric dark correction enabled: true
Nonlinearity correction enabled: false
Boxcar width: 0
XAxis mode: Wavelengths
Number of Pixels in Spectrum: 3648
>>>>>Begin Spectral Data<<<<<
178.204	-115.88
178.424	-115.88
178.644	-115.88
178.864	-87.21
179.084	-76.97
179.304	-1.19
179.524	-44.2
179.744	9.05
179.964	-33.96
180.184	-9.39
180.404	21.33
180.624	95.06
180.844	7
181.064	-44.2
181.283	37.72
181.503	-40.11
181.723	2.9
181.943	-89.26
182.163	7
182.383	60.24
182.602	-56.49
182.822	60.24
183.042	-11.43
183.262	-31.91
183.482	39.76
183.701	41.81
183.921	-62.63
184.141	-36.01
184.361	86.87
184.58	-1.19
184.8	99.16
185.02	-31.91
185.239	-13.48
185.459	9.05
185.679	35.67
185.898	-15.53
186.118	25.43
186.338	50
186.557	-42.15
186.777	-19.63
186.997	31.57
187.216	-1.19
187.436	56.15
187.655	21.33
187.875	0.85
188.095	-9.39
188.314	78.68
188.534	60.24
188.753	-9.39
188.973	37.72
189.192	39.76
189.412	52.05
189.631	-13.48
189.851	47.96
190.07	25.43
190.29	17.24
190.509	9.05
190.729	-21.67
190.948	19.29
191.168	93.01
191.387	-7.34
191.607	-19.63
191.826	13.14
192.045	-17.58
192.265	-9.39
192.484	-5.29
192.704	54.1
192.923	-23.72
193.142	127.83
193.362	-36.01
193.581	72.53
193.8	52.05
194.02	19.29
194.239	60.24
194.458	78.68
194.678	-81.07
194.897	25.43
195.116	-21.67
195.335	27.48
195.555	19.29
195.774	54.1
195.993	35.67
196.212	62.29
196.432	-33.96
196.651	11.09
196.87	-9.39
197.089	133.97
197.308	-31.91
197.528	4.95
197.747	-25.77
197.966	-52.39
198.185	2.9
198.404	21.33
198.623	11.09
198.842	-23.72
199.062	35.67
199.281	-5.29
199.5	54.1
199.719	-17.58
199.938	39.76
200.157	52.05
200.376	154.45
200.595	-46.25
200.814	9.05
201.033	-9.39
201.252	86.87
201.471	-11.43
201.69	68.44
201.909	19.29
202.128	13.14
202.347	11.09
202.566	-7.34
202.785	-25.77
203.004	11.09
203.223	101.2
203.442	-1.19
203.661	-9.39
203.879	-62.63
204.098	4.95
204.317	-31.91
204.536	19.29
204.755	86.87
204.974	90.96
205.193	23.38
205.411	58.2
205.63	54.1
205.849	-44.2
206.068	27.48
206.287	41.81
206.505	27.48
206.724	70.48
206.943	35.67
207.162	-64.68
207.381	4.95
207.599	-42.15
207.818	-5.29
208.037	-17.58
208.255	-17.58
208.474	2.9
208.693	13.14
208.911	39.76
209.13	21.33
209.349	35.67
209.567	-58.54
209.786	45.91
210.005	15.19
210.223	-9.39
210.442	7
210.661	7
210.879	-11.43
211.098	-3.24
211.316	45.91
211.535	-3.24
211.753	-27.82
211.972	-38.06
212.191	11.09
212.409	72.53
212.628	-3.24
212.846	27.48
213.065	-13.48
213.283	140.12
213.502	45.91
213.72	33.62
213.938	-19.63
214.157	43.86
214.375	9.05
214.594	21.33
214.812	90.96
215.031	-9.39
215.249	23.38
215.467	45.91
215.686	4.95
215.904	-13.48
216.122	-1.19
216.341	43.86
216.559	39.76
216.778	31.57
216.996	88.92
217.214	76.63
217.432	13.14
217.651	-7.34
217.869	54.1
218.087	4.95
218.306	11.09
218.524	4.95
218.742	27.48
218.96	64.34
219.179	43.86
219.397	-27.82
219.615	31.57
219.833	43.86
220.051	-42.15
220.27	29.52
220.488	39.76
220.706	-11.43
220.924	-50.35
221.142	9.05
221.36	-11.43
221.578	43.86
221.796	9.05
222.015	68.44
222.233	-13.48
222.451	-11.43
222.669	29.52
222.887	66.39
223.105	13.14
223.323	17.24
223.541	-25.77
223.759	-25.77
223.977	-11.43
224.195	50
224.413	27.48
224.631	70.48
224.849	-15.53
225.067	19.29
225.285	-11.43
225.503	0.85
225.721	-58.54
225.939	74.58
226.157	47.96
226.375	70.48
226.592	43.86
226.81	-5.29
227.028	-38.06
227.246	119.64
227.464	-60.59
227.682	-7.34
227.9	-11.43
228.117	27.48
228.335	15.19
228.553	-52.39
228.771	33.62
228.989	23.38
229.206	33.62
229.424	-40.11
229.642	-54.44
229.86	13.14
230.077	-1.19
230.295	-33.96
230.513	27.48
230.731	-19.63
230.948	-1.19
231.166	29.52
231.384	-56.49
231.601	33.62
231.819	-5.29
232.037	-9.39
232.254	-29.87
232.472	-36.01
232.689	-25.77
232.907	23.38
233.125	60.24
233.342	15.19
233.56	-21.67
233.777	74.58
233.995	-23.72
234.213	101.2
234.43	39.76
234.648	58.2
234.865	13.14
235.083	52.05
235.3	-9.39
235.518	54.1
235.735	35.67
235.953	-19.63
236.17	7
236.388	33.62
236.605	19.29
236.822	43.86
237.04	58.2
237.257	11.09
237.475	-46.25
237.692	-5.29
237.909	15.19
238.127	45.91
238.344	58.2
238.562	56.15
238.779	15.19
238.996	-21.67
239.214	-42.15
239.431	25.43
239.648	78.68
239.865	-21.67
240.083	35.67
240.3	-7.34
240.517	33.62
240.735	62.29
240.952	-52.39
241.169	-1.19
241.386	27.48
241.603	-7.34
241.821	33.62
242.038	47.96
242.255	109.4
242.472	-42.15
242.689	-1.19
242.907	103.25
243.124	15.19
243.341	-9.39
243.558	-13.48
243.775	27.48
243.992	-29.87
244.209	-42.15
244.426	0.85
244.643	39.76
244.86	-29.87
245.078	9.05
245.295	54.1
245.512	60.24
245.729	-5.29
245.946	-52.39
246.163	43.86
246.38	4.95
246.597	7
246.814	13.14
247.031	60.24
247.248	-23.72
247.464	37.72
247.681	43.86
247.898	29.52
248.115	-15.53
248.332	25.43
248.549	29.52
248.766	-17.58
248.983	39.76
249.2	43.86
249.417	19.29
249.633	62.29
249.85	35.67
250.067	31.57
250.284	-50.35
250.501	52.05
250.717	21.33
250.934	-56.49
251.151	76.63
251.368	-27.82
251.585	107.35
251.801	-21.67
252.018	-17.58
252.235	-36.01
252.451	-3.24
252.668	-62.63
252.885	13.14
253.102	37.72
253.318	21.33
253.535	2.9
253.752	-27.82
253.968	-3.24
254.185	23.38
254.401	27.48
254.618	-5.29
254.835	2.9
255.051	64.34
255.268	-7.34
255.484	7
255.701	111.44
255.917	35.67
256.134	17.24
256.351	52.05
256.567	-29.87
256.784	4.95
257	-13.48
257.217	58.2
257.433	-27.82
257.65	127.83
257.866	62.29
258.082	35.67
258.299	-25.77
258.515	43.86
258.732	-11.43
258.948	-52.39
259.165	88.92
259.381	31.57
259.597	78.68
259.814	-21.67
260.03	17.24
260.246	27.48
260.463	-38.06
260.679	105.3
260.895	50
261.112	37.72
261.328	58.2
261.544	-1.19
261.761	31.57
261.977	-13.48
262.193	-29.87
262.409	-1.19
262.626	86.87
262.842	39.76
263.058	43.86
263.274	60.24
263.49	27.48
263.707	9.05
263.923	2.9
264.139	19.29
264.355	19.29
264.571	27.48
264.787	66.39
265.004	35.67
265.22	4.95
265.436	19.29
265.652	-3.24
265.868	41.81
266.084	-64.68
266.3	-33.96
266.516	-9.39
266.732	35.67
266.948	35.67
267.164	45.91
267.38	50
267.596	43.86
267.812	52.05
268.028	56.15
268.244	33.62
268.46	35.67
268.676	-23.72
268.892	52.05
269.108	19.29
269.324	-38.06
269.54	-54.44
269.756	19.29
269.972	-40.11
270.188	50
270.403	-66.73
270.619	-29.87
270.835	66.39
271.051	-11.43
271.267	-13.48
271.483	-11.43
271.698	-13.48
271.914	82.77
272.13	-19.63
272.346	56.15
272.562	45.91
272.777	29.52
272.993	-25.77
273.209	-19.63
273.425	35.67
273.64	27.48
273.856	2.9
274.072	-29.87
274.287	43.86
274.503	-17.58
274.719	68.44
274.934	-87.21
275.15	-23.72
275.366	86.87
275.581	-19.63
275.797	-58.54
276.012	15.19
276.228	-9.39
276.444	4.95
276.659	68.44
276.875	43.86
277.09	56.15
277.306	45.91
277.521	54.1
277.737	13.14
277.952	-7.34
278.168	25.43
278.383	27.48
278.599	19.29
278.814	-23.72
279.03	52.05
279.245	25.43
279.461	11.09
279.676	-5.29
279.892	15.19
280.107	-21.67
280.322	13.14
280.538	43.86
280.753	88.92
280.969	62.29
281.184	115.54
281.399	66.39
281.615	-25.77
281.83	23.38
282.045	-27.82
282.26	-38.06
282.476	7
282.691	-27.82
282.906	2.9
283.122	-11.43
283.337	43.86
283.552	-27.82
283.767	-11.43
283.983	82.77
284.198	50
284.413	82.77
284.628	35.67
284.843	101.2
285.058	68.44
285.274	-13.48
285.489	0.85
285.704	19.29
285.919	23.38
286.134	19.29
286.349	19.29
286.564	97.11
286.779	80.72
286.995	-15.53
287.21	-23.72
287.425	15.19
287.64	-25.77
287.855	-1.19
288.07	31.57
288.285	47.96
288.5	74.58
288.715	15.19
288.93	54.1
289.145	-31.91
289.36	0.85
289.575	37.72
289.79	62.29
290.004	-9.39
290.219	2.9
290.434	21.33
290.649	-15.53
290.864	31.57
291.079	-33.96
291.294	11.09
291.509	72.53
291.724	33.62
291.938	52.05
292.153	25.43
292.368	37.72
292.583	27.48
292.798	56.15
293.012	15.19
293.227	11.09
293.442	25.43
293.657	58.2
293.871	88.92
294.086	29.52
294.301	0.85
294.516	45.91
294.73	60.24
294.945	2.9
295.16	33.62
295.374	-36.01
295.589	4.95
295.804	41.81
296.018	-13.48
296.233	13.14
296.447	41.81
296.662	88.92
296.877	64.34
297.091	7
297.306	43.86
297.52	37.72
297.735	21.33
297.949	-46.25
298.164	78.68
298.378	-21.67
298.593	11.09
298.807	9.05
299.022	25.43
299.236	-21.67
299.451	37.72
299.665	-62.63
299.88	-11.43
300.094	60.24
300.309	35.67
300.523	-40.11
300.737	4.95
300.952	-11.43
301.166	2.9
301.381	13.14
301.595	-15.53
301.809	-1.19
302.024	-44.2
302.238	-21.67
302.452	136.02
302.667	95.06
302.881	35.67
303.095	43.86
303.309	125.78
303.524	17.24
303.738	-95.4
303.952	-25.77
304.166	136.02
304.381	-33.96
304.595	84.82
304.809	27.48
305.023	31.57
305.237	-15.53
305.452	52.05
305.666	54.1
305.88	62.29
306.094	52.05
306.308	-9.39
306.522	13.14
306.736	17.24
306.95	-13.48
307.164	-40.11
307.379	33.62
307.593	70.48
307.807	7
308.021	43.86
308.235	-21.67
308.449	-3.24
308.663	189.27
308.877	138.07
309.091	113.49
309.305	19.29
309.519	9.05
309.733	62.29
309.947	-46.25
310.161	37.72
310.374	23.38
310.588	74.58
310.802	-70.83
311.016	93.01
311.23	78.68
311.444	54.1
311.658	-13.48
311.872	29.52
312.085	45.91
312.299	60.24
312.513	-27.82
312.727	9.05
312.941	-44.2
313.154	-5.29
313.368	35.67
313.582	62.29
313.796	64.34
314.009	7
314.223	2.9
314.437	41.81
314.651	39.76
314.864	-15.53
315.078	39.76
315.292	13.14
315.505	41.81
315.719	45.91
315.933	-11.43
316.146	2.9
316.36	-11.43
316.573	136.02
316.787	7
317.001	62.29
317.214	29.52
317.428	54.1
317.641	54.1
317.855	13.14
318.068	2.9
318.282	11.09
318.495	13.14
318.709	31.57
318.922	27.48
319.136	-44.2
319.349	60.24
319.563	-5.29
319.776	19.29
319.99	29.52
320.203	-25.77
320.417	64.34
320.63	105.3
320.843	109.4
321.057	-38.06
321.27	43.86
321.483	35.67
321.697	80.72
321.91	19.29
322.124	4.95
322.337	15.19
322.55	0.85
322.763	-64.68
322.977	7
323.19	13.14
323.403	45.91
323.617	33.62
323.83	41.81
324.043	64.34
324.256	27.48
324.469	21.33
324.683	2.9
324.896	60.24
325.109	19.29
325.322	27.48
325.535	43.86
325.748	35.67
325.962	2.9
326.175	17.24
326.388	52.05
326.601	76.63
326.814	101.2
327.027	7
327.24	35.67
327.453	-52.39
327.666	29.52
327.879	17.24
328.092	2.9
328.305	13.14
328.518	-5.29
328.731	50
328.944	15.19
329.157	35.67
329.37	60.24
329.583	23.38
329.796	41.81
330.009	41.81
330.222	31.57
330.435	23.38
330.648	39.76
330.861	-17.58
331.073	70.48
331.286	2.9
331.499	23.38
331.712	35.67
331.925	125.78
332.138	7
332.35	107.35
332.563	35.67
332.776	117.59
332.989	13.14
333.202	35.67
333.414	25.43
333.627	101.2
333.84	52.05
334.053	43.86
334.265	29.52
334.478	4.95
334.691	-11.43
334.903	72.53
335.116	-25.77
335.329	86.87
335.541	-3.24
335.754	21.33
335.966	2.9
336.179	-52.39
336.392	-33.96
336.604	4.95
336.817	41.81
337.029	-17.58
337.242	29.52
337.454	27.48
337.667	17.24
337.88	54.1
338.092	-7.34
338.305	19.29
338.517	54.1
338.729	45.91
338.942	25.43
339.154	52.05
339.367	-66.73
339.579	93.01
339.792	13.14
340.004	15.19
340.217	-5.29
340.429	68.44
340.641	19.29
340.854	19.29
341.066	-74.92
341.278	-1.19
341.491	-27.82
341.703	109.4
341.915	-48.3
342.128	31.57
342.34	66.39
342.552	-3.24
342.764	-3.24
342.977	39.76
343.189	-19.63
343.401	11.09
343.613	-1.19
343.826	74.58
344.038	9.05
344.25	29.52
344.462	54.1
344.674	-3.24
344.886	11.09
345.099	125.78
345.311	68.44
345.523	29.52
345.735	2.9
345.947	133.97
346.159	58.2
346.371	58.2
346.583	60.24
346.795	60.24
347.007	29.52
347.219	70.48
347.431	50
347.643	-5.29
347.855	21.33
348.067	54.1
348.279	33.62
348.491	25.43
348.703	60.24
348.915	0.85
349.127	74.58
349.339	60.24
349.551	37.72
349.763	7
349.975	62.29
350.187	31.57
350.399	13.14
350.61	2.9
350.822	-31.91
351.034	29.52
351.246	23.38
351.458	13.14
351.669	76.63
351.881	101.2
352.093	76.63
352.305	43.86
352.517	2.9
352.728	66.39
352.94	7
353.152	45.91
353.363	0.85
353.575	27.48
353.787	17.24
353.999	9.05
354.21	72.53
354.422	23.38
354.633	-11.43
354.845	-15.53
355.057	93.01
355.268	0.85
355.48	11.09
355.692	15.19
355.903	35.67
356.115	-1.19
356.326	-19.63
356.538	52.05
356.749	27.48
356.961	39.76
357.172	82.77
357.384	-3.24
357.595	-9.39
357.807	7
358.018	17.24
358.23	-3.24
358.441	9.05
358.653	-38.06
358.864	95.06
359.075	7
359.287	-3.24
359.498	52.05
359.709	19.29
359.921	-36.01
360.132	25.43
360.344	13.14
360.555	33.62
360.766	9.05
360.977	37.72
361.189	39.76
361.4	7
361.611	93.01
361.823	21.33
362.034	41.81
362.245	4.95
362.456	35.67
362.667	70.48
362.879	31.57
363.09	-3.24
363.301	66.39
363.512	2.9
363.723	13.14
363.935	64.34
364.146	19.29
364.357	-23.72
364.568	17.24
364.779	25.43
364.99	82.77
365.201	-9.39
365.412	47.96
365.623	2.9
365.834	66.39
366.045	35.67
366.256	17.24
366.467	60.24
366.678	33.62
366.889	74.58
367.1	17.24
367.311	52.05
367.522	-5.29
367.733	-15.53
367.944	0.85
368.155	39.76
368.366	119.64
368.577	111.44
368.788	43.86
368.999	4.95
369.209	-15.53
369.42	152.4
369.631	62.29
369.842	74.58
370.053	88.92
370.264	11.09
370.474	19.29
370.685	70.48
370.896	76.63
371.107	11.09
371.317	54.1
371.528	41.81
371.739	29.52
371.95	0.85
372.16	86.87
372.371	-5.29
372.582	45.91
372.792	72.53
373.003	41.81
373.214	-13.48
373.424	2.9
373.635	47.96
373.846	88.92
374.056	62.29
374.267	41.81
374.477	41.81
374.688	-15.53
374.898	-1.19
375.109	11.09
375.319	47.96
375.53	7
375.74	-36.01
375.951	-13.48
376.161	52.05
376.372	50
376.582	33.62
376.793	-50.35
377.003	35.67
377.214	4.95
377.424	-36.01
377.635	33.62
377.845	41.81
378.055	105.3
378.266	82.77
378.476	56.15
378.686	-54.44
378.897	17.24
379.107	52.05
379.317	72.53
379.528	-21.67
379.738	56.15
379.948	78.68
380.158	13.14
380.369	-3.24
380.579	103.25
380.789	23.38
380.999	-46.25
381.21	4.95
381.42	119.64
381.63	-29.87
381.84	60.24
382.05	11.09
382.261	68.44
382.471	93.01
382.681	27.48
382.891	107.35
383.101	70.48
383.311	11.09
383.521	21.33
383.731	103.25
383.941	31.57
384.151	9.05
384.361	4.95
384.571	43.86
384.781	4.95
384.991	25.43
385.201	78.68
385.411	86.87
385.621	101.2
385.831	60.24
386.041	21.33
386.251	21.33
386.461	29.52
386.671	19.29
386.881	107.35
387.091	-3.24
387.301	4.95
387.511	43.86
387.72	-1.19
387.93	-3.24
388.14	27.48
388.35	-15.53
388.56	68.44
388.769	86.87
388.979	39.76
389.189	-70.83
389.399	47.96
389.609	43.86
389.818	70.48
390.028	31.57
390.238	68.44
390.447	80.72
390.657	-33.96
390.867	-23.72
391.076	17.24
391.286	95.06
391.496	41.81
391.705	-15.53
391.915	66.39
392.125	27.48
392.334	31.57
392.544	101.2
392.753	76.63
392.963	-50.35
393.172	-23.72
393.382	72.53
393.591	62.29
393.801	4.95
394.01	152.4
394.22	43.86
394.429	45.91
394.639	47.96
394.848	97.11
395.058	60.24
395.267	58.2
395.477	50
395.686	56.15
395.895	144.21
396.105	152.4
396.314	47.96
396.524	72.53
396.733	39.76
396.942	88.92
397.152	117.59
397.361	52.05
397.57	76.63
397.78	13.14
397.989	31.57
398.198	138.07
398.407	90.96
398.617	70.48
398.826	72.53
399.035	-95.4
399.244	62.29
399.453	150.36
399.663	45.91
399.872	113.49
400.081	13.14
400.29	41.81
400.499	-3.24
400.708	168.79
400.917	52.05
401.127	127.83
401.336	76.63
401.545	183.12
401.754	88.92
401.963	80.72
402.172	88.92
402.381	140.12
402.59	64.34
402.799	78.68
403.008	160.59
403.217	158.55
403.426	76.63
403.635	31.57
403.844	154.45
404.053	90.96
404.262	129.88
404.471	127.83
404.68	97.11
404.888	138.07
405.097	136.02
405.306	103.25
405.515	207.7
405.724	117.59
405.933	162.64
406.142	84.82
406.35	152.4
406.559	119.64
406.768	113.49
406.977	224.08
407.185	179.03
407.394	107.35
407.603	142.16
407.812	115.54
408.02	174.93
408.229	154.45
408.438	256.85
408.646	230.23
408.855	179.03
409.064	207.7
409.272	250.71
409.481	230.23
409.69	297.81
409.898	211.79
410.107	275.28
410.315	244.56
410.524	287.57
410.733	277.33
410.941	344.91
411.15	332.62
411.358	332.62
411.567	271.19
411.775	306
411.984	310.1
412.192	383.82
412.401	346.96
412.609	371.54
412.818	365.39
413.026	461.65
413.234	416.59
413.443	365.39
413.651	387.92
413.86	447.31
414.068	510.8
414.276	494.41
414.485	437.07
414.693	543.57
414.901	500.56
415.11	572.24
415.318	588.62
415.526	576.33
415.734	609.1
415.943	652.11
416.151	650.06
416.359	666.44
416.567	822.09
416.776	676.68
416.984	797.51
417.192	791.37
417.4	809.8
417.608	805.71
417.817	854.86
418.025	910.15
418.233	965.45
418.441	981.83
418.649	940.87
418.857	1057.61
419.065	1088.32
419.273	1002.31
419.481	1145.67
419.689	1174.34
419.897	1280.83
420.105	1237.83
420.313	1305.41
420.521	1342.27
420.729	1512.25
420.937	1358.66
421.145	1487.68
421.353	1428.29
421.561	1657.66
421.769	1592.13
421.977	1743.67
422.185	1583.93
422.393	1792.83
422.601	1938.23
422.809	1907.51
423.017	1975.1
423.224	1925.94
423.432	2075.45
423.64	2095.93
423.848	2202.42
424.056	2067.25
424.263	2472.75
424.471	2327.35
424.679	2403.12
424.887	2468.66
425.094	2700.08
425.302	2630.45
425.51	2724.65
425.718	2874.15
425.925	2825
426.133	2927.4
426.341	3087.14
426.548	3277.6
426.756	3351.33
426.964	3109.67
427.171	3482.4
427.379	3601.18
427.586	3582.75
427.794	3627.81
428.001	4006.68
428.209	4178.71
428.417	4018.97
428.624	4467.47
428.832	4303.64
429.039	4266.77
429.247	4160.28
429.454	4680.46
429.662	5081.86
429.869	4713.23
430.076	4993.8
430.284	4877.07
430.491	5024.52
430.699	5413.63
430.906	5327.62
431.114	5491.46
431.321	5614.34
431.528	5731.07
431.736	6019.83
431.943	6236.92
432.15	6298.36
432.358	6157.05
432.565	6759.15
432.772	6759.15
432.979	6884.08
433.187	7191.27
433.394	7271.14
433.601	7559.91
433.808	7498.47
434.016	7637.73
434.223	7844.57
434.43	8282.84
434.637	8315.61
434.844	8669.91
435.052	8964.81
435.259	9026.25
435.466	8829.65
435.673	8848.08
435.88	9536.2
436.087	9757.38
436.294	9910.97
436.501	9566.92
436.708	9786.05
436.915	10232.51
437.122	10795.7
437.329	10490.55
437.537	10902.19
437.743	11264.68
437.95	11125.42
438.157	11432.61
438.364	11952.8
438.571	11983.52
438.778	12243.61
438.985	12993.17
439.192	12731.03
439.399	13068.94
439.606	12888.72
439.813	13486.73
440.02	14498.42
440.227	14082.69
440.433	14125.69
440.64	14297.72
440.847	14314.11
441.054	14742.13
441.261	15776.36
441.467	15614.57
441.674	15700.58
441.881	16314.97
442.088	16335.45
442.294	16167.52
442.501	16695.89
442.708	16988.75
442.914	17386.06
443.121	18303.55
443.328	17863.24
443.534	19280.43
443.741	18557.5
443.948	18459.2
444.154	19851.81
444.361	19614.25
444.568	19329.58
444.774	19841.57
444.981	19884.58
445.187	20597.28
445.394	21299.73
445.6	21350.93
445.807	23259.63
446.013	22147.59
446.22	22731.26
446.426	23298.55
446.633	23593.45
446.839	24447.46
447.046	23622.12
447.252	24811.99
447.459	24539.61
447.665	24920.54
447.871	25858.51
448.078	27083.19
448.284	25795.02
448.491	26509.76
448.697	27574.7
448.903	28000.68
449.11	27892.14
449.316	27259.32
449.522	28205.48
449.728	28971.42
449.935	29190.55
450.141	29094.3
450.347	29845.9
450.553	28740
450.76	29096.35
450.966	30314.89
451.172	30294.41
451.378	30648.71
451.584	29804.94
451.791	30906.75
451.997	30939.52
452.203	31455.61
452.409	31650.16
452.615	31394.17
452.821	30058.89
453.027	29841.81
453.233	31715.7
453.44	30208.39
453.646	30443.91
453.852	30577.03
454.058	31220.09
454.264	30017.93
454.47	31267.19
454.676	30288.26
454.882	31144.31
455.088	28473.76
455.294	28762.53
455.5	29743.5
455.705	29651.34
455.911	28688.8
456.117	28303.78
456.323	27992.49
456.529	26243.52
456.735	27423.15
456.941	26638.78
457.147	26542.53
457.352	25387.47
457.558	25287.12
457.764	25203.16
457.97	24576.48
458.176	24150.5
458.381	24248.8
458.587	23267.83
458.793	23112.18
458.999	21811.72
459.204	23503.34
459.41	22819.32
459.616	21355.02
459.821	21266.96
460.027	21322.26
460.233	20632.09
460.438	20124.19
460.644	19915.3
460.85	19010.1
461.055	18870.84
461.261	18942.52
461.466	17498.7
461.672	16978.51
461.878	18125.38
462.083	16648.79
462.289	16591.45
462.494	16480.86
462.7	15350.38
462.905	15149.68
463.111	15596.14
463.316	15723.11
463.522	15460.97
463.727	15536.74
463.932	15491.69
464.138	15194.73
464.343	15164.01
464.549	15094.38
464.754	15401.58
464.959	15219.31
465.165	15032.94
465.37	14690.93
465.575	14097.02
465.781	14752.37
465.986	14570.1
466.191	14154.37
466.397	14088.83
466.602	13357.71
466.807	13757.06
467.012	13800.07
467.218	13931.14
467.423	13441.67
467.628	13466.25
467.833	14183.04
468.038	13595.27
468.244	13167.24
468.449	13806.21
468.654	13234.83
468.859	13240.97
469.064	13386.38
469.269	12733.08
469.474	12966.54
469.679	12948.11
469.885	12704.4
470.09	12974.74
470.295	12843.67
470.5	12382.87
470.705	12790.42
470.91	12251.8
471.115	12278.43
471.32	12307.1
471.525	12335.77
471.73	11797.15
471.935	11895.46
472.139	11692.71
472.344	11539.11
472.549	11680.42
472.754	11557.54
472.959	11162.28
473.164	10850.99
473.369	10830.51
473.574	11023.02
473.778	10971.82
473.983	10982.06
474.188	10969.77
474.393	10396.34
474.598	10619.57
474.802	10470.07
475.007	10480.31
475.212	10560.18
475.417	10050.24
475.621	9892.54
475.826	10205.88
476.031	9726.66
476.235	9841.34
476.44	9865.92
476.645	9634.5
476.849	9423.56
477.054	9663.17
477.259	9439.94
477.463	9415.37
477.668	9124.55
477.872	9226.95
478.077	9040.59
478.282	9034.44
478.486	8868.56
478.691	8940.24
478.895	8598.23
479.1	8741.58
479.304	8577.75
479.509	8360.66
479.713	8731.34
479.918	8577.75
480.122	8223.45
480.326	8393.43
480.531	8270.55
480.735	8170.2
480.94	8192.73
481.144	8372.95
481.348	8006.36
481.553	8190.68
481.757	8229.59
481.961	7891.68
482.166	8221.4
482.37	8270.55
482.574	8143.58
482.778	7834.33
482.983	8119
483.187	7989.98
483.391	8176.34
483.595	7852.77
483.8	8057.56
484.004	8104.67
484.208	8037.08
484.412	7953.12
484.616	8004.32
484.821	7973.6
485.025	8041.18
485.229	8008.41
485.433	7908.06
485.637	7961.31
485.841	7881.44
486.045	8039.13
486.249	7977.69
486.453	7867.1
486.657	7867.1
486.861	7967.45
487.065	7873.25
487.269	7922.4
487.473	7912.16
487.677	7975.64
487.881	8039.13
488.085	7903.96
488.289	7955.16
488.493	8112.86
488.697	7981.79
488.901	8030.94
489.105	7992.03
489.309	8125.15
489.512	7989.98
489.716	8057.56
489.92	7969.5
490.124	8043.23
490.328	8102.62
490.531	7981.79
490.735	8284.89
490.939	8168.15
491.143	8073.95
491.346	8106.71
491.55	8432.34
491.754	8270.55
491.958	8405.72
492.161	8305.37
492.365	8395.48
492.569	8508.12
492.772	8389.33
492.976	8506.07
493.18	8575.7
493.383	8762.06
493.587	8458.96
493.79	8628.95
493.994	8657.62
494.197	8915.66
494.401	8714.96
494.605	8866.51
494.808	8954.57
495.012	8893.13
495.215	8932.05
495.419	9042.64
495.622	8966.86
495.825	9272.01
496.029	9257.67
496.232	9269.96
496.436	9323.21
496.639	9728.7
496.843	9335.49
497.046	9697.99
497.249	9788.1
497.453	9956.03
497.656	9747.14
497.859	10093.24
498.063	10033.85
498.266	10369.72
498.469	10128.06
498.673	10373.82
498.876	10515.12
499.079	10726.07
499.282	10711.73
499.485	10750.64
499.689	10939.05
499.892	11074.22
500.095	10945.2
500.298	11385.51
500.501	11274.92
500.705	11539.11
500.908	11549.35
501.111	11842.21
501.314	11907.74
501.517	11946.66
501.72	12104.35
501.923	12087.96
502.126	12370.58
502.329	12495.51
502.532	12616.34
502.735	12688.02
502.938	13159.05
503.141	13081.23
503.344	13218.44
503.547	13294.22
503.75	13308.55
503.953	13609.61
504.156	13845.12
504.359	13900.42
504.562	13949.57
504.765	14199.42
504.968	14195.32
505.17	14613.11
505.373	14735.99
505.576	14840.43
505.779	14832.24
505.982	15088.24
506.185	15352.43
506.387	15452.78
506.59	15587.94
506.793	15649.38
506.996	15565.42
507.198	16231.01
507.401	16058.98
507.604	16390.75
507.807	16292.44
508.009	16695.89
508.212	16814.68
508.415	16982.61
508.617	17205.84
508.82	17541.71
509.022	17173.07
509.225	17709.64
509.428	17756.74
509.63	17990.21
509.833	18035.27
510.035	18364.99
510.238	18436.67
510.44	18915.89
510.643	18856.5
510.845	18928.18
511.048	19083.83
511.25	19444.27
511.453	19536.43
511.655	20189.73
511.858	20073
512.06	19939.88
512.262	20443.68
512.465	20361.76
512.667	20576.8
512.87	20867.61
513.072	20984.34
513.274	21361.17
513.477	21410.32
513.679	21940.74
513.881	22086.15
514.084	22141.44
514.286	22080
514.488	22180.35
514.69	22979.06
514.893	22714.87
515.095	22776.31
515.297	22940.15
515.499	23353.84
515.701	23456.24
515.904	23605.74
516.106	23749.1
516.308	24269.28
516.51	24670.68
516.712	24408.54
516.914	24840.67
517.116	25172.44
517.318	25403.86
517.52	25207.25
517.722	25164.25
517.925	26110.41
518.127	26264
518.329	26241.48
518.531	26376.64
518.733	27042.23
518.935	27414.96
519.136	27122.1
519.338	27386.29
519.54	27255.22
519.742	27619.76
519.944	27943.34
520.146	28330.41
520.348	28385.7
520.55	28471.71
520.752	28793.25
520.954	29026.71
521.155	28791.2
521.357	29370.77
521.559	29786.51
521.761	30239.11
521.963	29774.22
522.164	29946.25
522.366	30146.95
522.568	30470.53
522.77	30677.38
522.971	31144.31
523.173	30714.24
523.375	31408.5
523.576	31062.4
523.778	31199.61
523.98	31805.81
524.181	31988.08
524.383	32026.99
524.584	32172.39
524.786	32276.84
524.988	31996.27
525.189	32680.29
525.391	32893.28
525.592	33005.92
525.794	33110.36
525.995	32950.62
526.197	33145.18
526.398	33036.64
526.6	33628.5
526.801	33876.3
527.003	33769.81
527.204	33640.79
527.406	34099.53
527.607	34007.37
527.808	34404.68
528.01	34253.13
528.211	34126.16
528.412	34853.19
528.614	35109.18
528.815	34750.79
529.016	34888
529.218	34828.61
529.419	34976.06
529.62	35373.37
529.822	35158.33
530.023	34879.81
530.224	34922.82
530.425	35094.85
530.626	35035.45
530.828	34924.86
531.029	35627.32
531.23	35197.24
531.431	35610.93
531.632	35414.33
531.833	35754.29
532.035	35635.51
532.236	35842.35
532.437	36043.06
532.638	35496.25
532.839	35995.95
533.04	35723.57
533.241	35598.65
533.442	36571.43
533.643	36231.47
533.844	35952.94
534.045	35979.57
534.246	35905.84
534.447	36176.17
534.648	35940.66
534.849	36120.88
535.05	35615.03
535.251	35754.29
535.451	35828.02
535.652	36051.25
535.853	35871.03
536.054	36194.61
536.255	36036.91
536.456	35694.9
536.657	36600.1
536.857	36036.91
537.058	35866.93
537.259	36389.16
537.46	36018.48
537.66	35948.85
537.861	36178.22
538.062	35948.85
538.263	36061.49
538.463	36122.93
538.664	36172.08
538.865	36137.26
539.065	36153.65
539.266	36116.78
539.466	36135.21
539.667	35520.82
539.868	36297
540.068	35991.86
540.269	35963.18
540.469	36249.9
540.67	35737.91
540.87	35862.83
541.071	36270.38
541.271	36071.73
541.472	35744.05
541.672	35709.24
541.873	35569.97
542.073	35420.47
542.274	35993.9
542.474	35766.58
542.675	35469.62
542.875	36122.93
543.075	35408.19
543.276	35199.29
543.476	36149.55
543.676	35399.99
543.877	35940.66
544.077	35754.29
544.277	35930.42
544.478	35901.75
544.678	35825.97
544.878	35801.4
545.078	36014.38
545.279	36006.19
545.479	35604.79
545.679	35574.07
545.879	35791.16
546.079	35739.96
546.28	35520.82
546.48	35699
546.68	35457.34
546.88	36114.73
547.08	35690.8
547.28	35191.1
547.48	35232.06
547.68	35559.73
547.88	35410.23
548.081	35832.11
548.281	35549.49
548.481	35586.36
548.681	35623.22
548.881	35555.64
549.081	35543.35
549.28	35215.68
549.48	35600.69
549.68	35729.72
549.88	36057.39
550.08	35590.45
550.28	35389.75
550.48	35608.89
550.68	35680.56
550.88	35113.28
551.08	35094.85
551.279	35529.02
551.479	35264.83
551.679	35535.16
551.879	35510.58
552.079	35164.48
552.278	35316.03
552.478	35219.77
552.678	35285.31
552.878	35526.97
553.077	35451.19
553.277	34867.52
553.477	35459.38
553.676	34982.21
553.876	35492.15
554.076	35088.7
554.275	35037.5
554.475	34677.06
554.674	34873.67
554.874	34857.28
555.074	34959.68
555.273	35234.11
555.473	35270.97
555.672	34912.58
555.872	35008.83
556.071	34720.07
556.271	34963.78
556.47	34781.51
556.67	34462.02
556.869	34609.48
557.068	35060.03
557.268	34560.33
557.467	34836.8
557.667	34701.64
557.866	34763.07
558.065	34335.05
558.265	34429.26
558.464	34031.95
558.663	34441.54
558.863	34308.43
559.062	34560.33
559.261	34107.72
559.461	34605.38
559.66	33941.84
559.859	34193.74
560.058	33993.04
560.258	33974.61
560.457	33853.78
560.656	34048.33
560.855	33757.52
561.054	33665.36
561.253	33675.6
561.453	33761.62
561.652	33837.39
561.851	34038.09
562.05	33546.58
562.249	33585.49
562.448	33956.18
562.647	33659.22
562.846	33075.55
563.045	33628.5
563.244	33245.53
563.443	33530.2
563.642	32885.09
563.841	33294.68
564.04	32702.82
564.239	32936.29
564.438	32987.49
564.637	33012.06
564.836	33155.42
565.035	32364.9
565.234	33016.16
565.432	32584.04
565.631	32616.8
565.83	32856.42
566.029	32229.74
566.228	32514.41
566.427	32078.19
566.625	32131.44
566.824	31918.45
567.023	32338.28
567.222	31949.17
567.42	32090.48
567.619	32104.81
567.818	32143.72
568.016	31822.19
568.215	31787.38
568.414	31385.97
568.612	31938.93
568.811	31783.28
569.01	31574.39
569.208	31369.59
569.407	31619.44
569.605	31007.1
569.804	31598.96
570.002	31062.4
570.201	31408.5
570.4	30902.65
570.598	30677.38
570.797	30939.52
570.995	30951.81
571.193	30521.73
571.392	30835.07
571.59	30472.58
571.789	30736.77
571.987	30499.2
572.186	30456.2
572.384	30386.57
572.582	30617.99
572.781	30460.29
572.979	29557.14
573.177	30335.37
573.376	30083.47
573.574	29991.31
573.772	29974.92
573.971	29610.39
574.169	29962.64
574.367	29475.22
574.565	29643.15
574.763	29350.29
574.962	29499.8
575.16	28756.38
575.358	29368.73
575.556	29235.61
575.754	29415.83
575.952	29086.11
576.151	29079.96
576.349	28907.93
576.547	29032.86
576.745	28889.5
576.943	28680.61
577.141	28828.06
577.339	28725.66
577.537	28764.57
577.735	28828.06
577.933	28371.36
578.131	28297.64
578.329	28221.86
578.527	28219.81
578.725	28410.28
578.923	27937.2
579.121	27910.57
579.319	27752.88
579.516	28043.69
579.714	27808.17
579.912	27554.22
580.11	27705.77
580.308	27562.42
580.506	27742.64
580.704	27175.35
580.901	27437.49
581.099	27306.42
581.297	27296.18
581.495	26995.13
581.692	27322.8
581.89	26950.07
582.088	26810.81
582.285	27077.05
582.483	27099.58
582.681	27087.29
582.878	26786.24
583.076	26479.04
583.274	26900.92
583.471	26102.22
583.669	26390.98
583.866	26481.09
584.064	26153.41
584.262	26184.13
584.459	26307.01
584.657	25917.9
584.854	25921.99
585.052	25641.42
585.249	26012.1
585.447	25981.38
585.644	25743.82
585.841	25739.72
586.039	26241.48
586.236	25297.36
586.434	25344.47
586.631	25237.97
586.828	25473.49
587.026	25643.47
587.223	25369.04
587.42	25065.94
587.618	25199.06
587.815	24709.6
588.012	24639.97
588.21	24924.63
588.407	25315.8
588.604	24689.12
588.801	24539.61
588.999	24910.3
589.196	24525.28
589.393	24773.08
589.59	24672.73
589.787	24269.28
589.984	24203.75
590.182	24046.05
590.379	24498.66
590.576	24025.57
590.773	23980.52
590.97	23759.34
591.167	24287.71
591.364	23861.74
591.561	23816.68
591.758	23634.41
591.955	23577.07
592.152	23431.66
592.349	23421.42
592.546	23720.43
592.743	23599.6
592.94	22974.97
593.137	23529.97
593.334	23579.12
593.531	22936.06
593.727	23302.64
593.924	23112.18
594.121	23013.88
594.318	23038.45
594.515	22735.35
594.712	23114.23
594.908	22811.13
595.105	22966.77
595.302	22452.73
595.499	22551.04
595.696	22426.11
595.892	22485.5
596.089	22338.05
596.286	22297.09
596.482	22272.51
596.679	22125.06
596.876	22323.71
597.072	22051.33
597.269	22102.53
597.466	21500.43
597.662	21692.94
597.859	21731.85
598.055	21801.48
598.252	21531.15
598.448	21631.5
598.645	21508.62
598.841	21105.17
599.038	21228.05
599.234	21248.53
599.431	21172.75
599.627	20941.33
599.824	20941.33
600.02	21121.56
600.217	21099.03
600.413	20750.87
600.609	20943.38
600.806	20515.36
601.002	20822.55
601.198	20541.98
601.395	20791.83
601.591	20648.47
601.787	20503.07
601.984	20681.24
602.18	20640.28
602.376	20658.71
602.572	20240.93
602.769	20482.59
602.965	20148.77
603.161	20191.78
603.357	19771.94
603.553	20111.91
603.75	20052.52
603.946	19933.73
604.142	19796.52
604.338	19477.04
604.534	19759.66
604.73	19477.04
604.926	19253.81
605.122	19636.78
605.318	19526.19
605.514	19255.86
605.71	19546.67
605.906	19218.99
606.102	19081.78
606.298	19311.15
606.494	19120.69
606.69	19247.66
606.886	19173.94
607.082	18946.61
607.278	18881.08
607.474	18821.69
607.67	18872.89
607.866	18788.92
608.062	19096.11
608.257	18651.7
608.453	18799.16
608.649	18569.79
608.845	18399.8
609.041	18451
609.236	18565.69
609.432	18520.63
609.628	18098.75
609.824	18518.59
610.019	18401.85
610.215	18287.17
610.411	18367.04
610.606	18250.3
610.802	18192.96
610.998	18160.19
611.193	18328.13
611.389	17992.26
611.584	17801.8
611.78	18047.55
611.976	18129.47
612.171	17785.41
612.367	17906.24
612.562	18016.83
612.758	17652.3
612.953	17941.06
613.149	17844.81
613.344	17697.35
613.539	17850.95
613.735	17525.32
613.93	17726.02
614.126	17470.03
614.321	17488.46
614.517	17427.02
614.712	17338.96
614.907	17537.61
615.103	17510.99
615.298	17279.57
615.493	17830.47
615.688	17007.19
615.884	17781.32
616.079	17183.31
616.274	17357.39
616.47	17117.78
616.665	17209.93
616.86	16855.64
617.055	17109.58
617.25	16845.4
617.445	17017.43
617.641	16751.19
617.836	16933.46
618.031	16736.85
618.226	16867.92
618.421	16726.61
618.616	16867.92
618.811	16616.02
619.006	16794.2
619.201	16443.99
619.396	16579.16
619.591	16290.4
619.786	16446.04
619.981	15983.2
620.176	16274.01
620.371	15856.23
620.566	16073.31
620.761	16165.47
620.956	15981.15
621.151	15612.52
621.346	15921.76
621.541	15678.05
621.735	15821.41
621.93	15487.59
622.125	15594.09
622.32	15290.99
622.515	15360.62
622.709	15325.8
622.904	15393.39
623.099	15217.26
623.294	15209.07
623.488	14760.56
623.683	14813.81
623.878	14946.93
624.072	14473.85
624.267	14680.69
624.462	14580.34
624.656	14406.27
624.851	14367.35
625.046	14357.11
625.24	14346.87
625.435	14076.54
625.629	14211.71
625.824	14045.82
626.018	13982.34
626.213	13900.42
626.407	13798.02
626.602	13630.09
626.796	13644.42
626.991	13816.45
627.185	13523.59
627.38	13365.9
627.574	13462.15
627.768	13292.17
627.963	13251.21
628.157	13136.52
628.352	13193.87
628.546	13093.52
628.74	13157
628.935	12847.76
629.129	12968.59
629.323	12847.76
629.517	12706.45
629.712	12870.29
629.906	12683.92
630.1	12591.77
630.294	12675.73
630.489	12278.43
630.683	12438.17
630.877	12313.24
631.071	12102.3
631.265	12153.5
631.459	12188.32
631.653	12102.3
631.848	12180.12
632.042	11930.27
632.236	11813.54
632.43	11754.15
632.624	11659.94
632.818	11676.32
633.012	11606.69
633.206	11492.01
633.4	11506.34
633.594	11457.19
633.788	11250.35
633.982	11317.93
634.176	11446.95
634.369	11121.32
634.563	11190.95
634.757	11020.97
634.951	11041.45
635.145	11180.71
635.339	11039.4
635.533	10803.89
635.726	10988.21
635.92	10775.22
636.114	10701.49
636.308	10701.49
636.501	10709.68
636.695	10580.66
636.889	10504.89
637.083	10498.74
637.276	10220.22
637.47	10146.49
637.664	10271.42
637.857	10310.33
638.051	10189.5
638.244	10015.42
638.438	10003.13
638.632	10050.24
638.825	10029.76
639.019	9953.98
639.212	9759.42
639.406	9941.69
639.599	9806.53
639.793	9808.58
639.986	9689.79
640.18	9550.53
640.373	9571.01
640.567	9476.8
640.76	9417.41
640.954	9431.75
641.147	9448.13
641.34	9431.75
641.534	9337.54
641.727	9536.2
641.92	9173.71
642.114	9245.38
642.307	9296.58
642.5	9159.37
642.694	8727.25
642.887	8874.7
643.08	8927.95
643.273	8837.84
643.467	8868.56
643.66	8823.5
643.853	8559.31
644.046	8524.5
644.239	8575.7
644.432	8557.27
644.626	8319.7
644.819	8497.88
645.012	8499.92
645.205	8358.61
645.398	8272.6
645.591	8391.38
645.784	8270.55
645.977	8241.88
646.17	8262.36
646.363	8069.85
646.556	8090.33
646.749	8145.63
646.942	8145.63
647.135	7717.6
647.328	7809.76
647.521	7809.76
647.714	7877.34
647.907	7756.51
648.099	7756.51
648.292	7795.42
648.485	7598.82
648.678	7572.19
648.871	7566.05
649.064	7568.1
649.256	7668.45
649.449	7559.91
649.642	7441.12
649.835	7383.78
650.027	7238.37
650.22	7273.19
650.413	7234.28
650.605	7262.95
650.798	7146.22
650.991	7289.57
651.183	7244.52
651.376	6931.18
651.568	7078.63
651.761	6791.92
651.954	6918.89
652.146	6988.52
652.339	6968.04
652.531	6789.87
652.724	6935.28
652.916	6679.28
653.109	6734.57
653.301	6808.3
653.494	6687.47
653.686	6585.07
653.879	6888.17
654.071	6460.15
654.263	6472.43
654.456	6828.78
654.648	6505.2
654.84	6509.3
655.033	6554.35
655.225	6318.84
655.417	6380.28
655.61	6214.39
655.802	6398.71
655.994	6177.53
656.186	6279.93
656.379	6312.69
656.571	6218.49
656.763	6032.12
656.955	6152.95
657.148	6279.93
657.34	5974.78
657.532	5921.53
657.724	6081.27
657.916	6083.32
658.108	5946.11
658.3	5903.1
658.492	5858.04
658.684	5847.8
658.876	5837.56
659.068	5753.6
659.26	5714.69
659.452	5843.71
659.644	5546.75
659.836	5548.8
660.028	5671.68
660.22	5460.74
660.412	5520.13
660.604	5538.56
660.796	5432.07
660.988	5405.44
661.18	5382.92
661.372	5317.38
661.563	5403.39
661.755	5466.88
661.947	5464.83
662.139	5274.37
662.331	5266.18
662.522	5266.18
662.714	5184.26
662.906	5157.64
663.097	5024.52
663.289	4961.03
663.481	5075.72
663.673	5088.01
663.864	4979.47
664.056	5045
664.247	5151.49
664.439	4879.11
664.631	4879.11
664.822	4901.64
665.014	4846.35
665.205	4987.66
665.397	4805.39
665.588	4903.69
665.78	4698.89
665.971	4909.83
666.163	4846.35
666.354	4692.75
666.546	4553.49
666.737	4741.9
666.929	4537.1
667.12	4676.37
667.311	4416.27
667.503	4629.26
667.694	4621.07
667.885	4459.28
668.077	4551.44
668.268	4401.94
668.459	4451.09
668.651	4543.25
668.842	4410.13
669.033	4287.25
669.224	4332.31
669.416	4524.82
669.607	4463.38
669.798	4371.22
669.989	4381.46
670.18	4197.14
670.371	4246.29
670.563	4207.38
670.754	4258.58
670.945	4135.7
671.136	4240.15
671.327	4141.85
671.518	4191
671.709	4246.29
671.9	4256.53
672.091	4068.12
672.282	4104.98
672.473	3902.23
672.664	4090.65
672.855	3885.85
673.046	3912.47
673.237	3910.43
673.428	4025.11
673.619	3826.46
673.809	3779.36
674	3959.58
674.191	3832.6
674.382	3842.84
674.573	3844.89
674.764	3898.14
674.954	3771.16
675.145	3750.68
675.336	3808.03
675.527	3748.64
675.717	3748.64
675.908	3681.05
676.099	3654.43
676.289	3496.74
676.48	3664.67
676.671	3726.11
676.861	3805.98
677.052	3615.52
677.243	3566.37
677.433	3402.53
677.624	3580.7
677.814	3554.08
678.005	3617.57
678.195	3549.98
678.386	3441.44
678.576	3459.87
678.767	3365.67
678.957	3406.63
679.148	3478.3
679.338	3439.39
679.529	3328.8
679.719	3521.31
679.909	3525.41
680.1	3570.46
680.29	3347.23
680.481	3476.26
680.671	3357.47
680.861	3363.62
681.052	3361.57
681.242	3369.76
681.432	3343.14
681.622	3177.25
681.813	3242.79
682.003	3291.94
682.193	3218.21
682.383	3287.84
682.573	3210.02
682.764	3109.67
682.954	3230.5
683.144	3244.84
683.334	3300.13
683.524	3171.11
683.714	3140.39
683.904	3109.67
684.094	3175.2
684.284	3097.38
684.474	3244.84
684.664	3081
684.854	3117.86
685.044	3025.7
685.234	2935.59
685.424	2954.02
685.614	3091.24
685.804	2900.78
685.994	3083.05
686.184	2999.08
686.374	2902.83
686.564	2956.07
686.753	3091.24
686.943	2880.3
687.133	2943.78
687.323	2941.74
687.513	2935.59
687.702	2968.36
687.892	2755.37
688.082	2870.06
688.272	2861.87
688.461	2888.49
688.651	2911.02
688.841	2808.62
689.03	2818.86
689.22	2747.18
689.41	2812.71
689.599	2693.93
689.789	2861.87
689.979	2720.56
690.168	2687.79
690.358	2749.23
690.547	2710.32
690.737	2771.76
690.926	2630.45
691.116	2700.08
691.305	2784.04
691.495	2722.6
691.684	2579.25
691.874	2616.11
692.063	2599.73
692.252	2550.57
692.442	2532.14
692.631	2495.28
692.82	2423.6
693.01	2593.58
693.199	2591.53
693.388	2450.22
693.578	2501.42
693.767	2532.14
693.956	2577.2
694.146	2470.7
694.335	2462.51
694.524	2374.45
694.713	2487.09
694.902	2493.23
695.092	2431.79
695.281	2439.98
695.47	2390.83
695.659	2427.7
695.848	2485.04
696.037	2386.74
696.226	2399.02
696.415	2368.31
696.604	2468.66
696.793	2339.63
696.982	2421.55
697.171	2259.76
697.36	2376.5
697.549	2308.91
697.738	2374.45
697.927	2366.26
698.116	2296.63
698.305	2253.62
698.494	2272.05
698.683	2296.63
698.872	2329.39
699.061	2325.3
699.25	2267.95
699.438	2386.74
699.627	2321.2
699.816	2345.78
700.005	2308.91
700.193	2313.01
700.382	2362.16
700.571	2255.67
700.76	2308.91
700.948	2247.48
701.137	2249.52
701.326	2306.87
701.514	2175.8
701.703	2220.85
701.892	2247.48
702.08	2270
702.269	2329.39
702.457	2200.37
702.646	2288.43
702.834	2278.19
703.023	2149.17
703.212	2249.52
703.4	2255.67
703.589	2163.51
703.777	2317.11
703.965	2194.23
704.154	2171.7
704.342	2208.56
704.531	2087.73
704.719	2128.69
704.907	2222.9
705.096	2122.55
705.284	2239.28
705.472	2202.42
705.661	2206.52
705.849	2181.94
706.037	2183.99
706.226	2192.18
706.414	2239.28
706.602	2110.26
706.79	2134.84
706.979	2042.68
707.167	2108.21
707.355	2163.51
707.543	2130.74
707.731	2173.75
707.919	2151.22
708.107	2169.65
708.296	2077.49
708.484	2161.46
708.672	2036.53
708.86	2198.32
709.048	2118.45
709.236	2102.07
709.424	2227
709.612	2134.84
709.8	2085.69
709.988	2018.1
710.176	2196.28
710.364	2198.32
710.551	2134.84
710.739	2116.41
710.927	2147.12
711.115	2259.76
711.303	2210.61
711.491	2112.31
711.679	2331.44
711.866	2104.12
712.054	2181.94
712.242	2173.75
712.43	2224.95
712.617	2122.55
712.805	2059.06
712.993	2216.76
713.181	2110.26
713.368	2208.56
713.556	2052.92
713.744	2198.32
713.931	2206.52
714.119	2171.7
714.306	2179.89
714.494	2196.28
714.682	2138.93
714.869	2116.41
715.057	2157.36
715.244	2044.73
715.432	2104.12
715.619	2132.79
715.807	2118.45
715.994	2145.08
716.182	2157.36
716.369	2175.8
716.556	2136.88
716.744	2165.56
716.931	2128.69
717.119	2165.56
717.306	2181.94
717.493	2118.45
717.681	2128.69
717.868	2132.79
718.055	2112.31
718.242	2073.4
718.43	2124.6
718.617	2143.03
718.804	2151.22
718.991	2085.69
719.179	2075.45
719.366	2110.26
719.553	2093.88
719.74	2145.08
719.927	2173.75
720.114	2165.56
720.301	2163.51
720.488	2061.11
720.676	2052.92
720.863	2183.99
721.05	2183.99
721.237	2325.3
721.424	2091.83
721.611	2298.67
721.798	2116.41
721.985	2130.74
722.172	2040.63
722.358	2100.02
722.545	2077.49
722.732	2136.88
722.919	2112.31
723.106	2108.21
723.293	2085.69
723.48	2243.38
723.667	2192.18
723.853	2110.26
724.04	2159.41
724.227	2231.09
724.414	2054.97
724.6	2218.8
724.787	2112.31
724.974	2241.33
725.161	2079.54
725.347	2145.08
725.534	2181.94
725.72	2143.03
725.907	2155.32
726.094	2149.17
726.28	2104.12
726.467	2100.02
726.653	2079.54
726.84	2102.07
727.027	2181.94
727.213	2126.64
727.4	2077.49
727.586	2218.8
727.773	2124.6
727.959	2208.56
728.145	2138.93
728.332	2173.75
728.518	2065.21
728.705	2214.71
728.891	2134.84
729.077	2067.25
729.264	2136.88
729.45	2089.78
729.636	2190.13
729.823	2204.47
730.009	2110.26
730.195	2149.17
730.382	2106.17
730.568	2149.17
730.754	2075.45
730.94	2138.93
731.126	2143.03
731.313	2190.13
731.499	2132.79
731.685	2067.25
731.871	2206.52
732.057	2018.1
732.243	2157.36
732.429	2300.72
732.615	2208.56
732.801	2134.84
732.987	2165.56
733.173	2065.21
733.359	2145.08
733.545	2161.46
733.731	2173.75
733.917	2149.17
734.103	2202.42
734.289	2038.58
734.475	2063.16
734.661	2214.71
734.847	2198.32
735.033	2104.12
735.219	2114.36
735.404	2149.17
735.59	2067.25
735.776	2181.94
735.962	2173.75
736.148	2202.42
736.333	2112.31
736.519	2034.49
736.705	2145.08
736.89	2102.07
737.076	2112.31
737.262	2143.03
737.447	2100.02
737.633	2061.11
737.819	2048.82
738.004	2151.22
738.19	2134.84
738.375	2122.55
738.561	2202.42
738.747	1971
738.932	2081.59
739.118	1895.22
739.303	2009.91
739.489	2118.45
739.674	1993.53
739.859	2100.02
740.045	2059.06
740.23	2057.01
740.416	1942.33
740.601	2075.45
740.786	2071.35
740.972	1866.55
741.157	1919.8
741.342	2005.81
741.528	1964.86
741.713	1981.24
741.898	1985.34
742.084	1938.23
742.269	1932.09
742.454	2009.91
742.639	2009.91
742.824	1944.38
743.01	1921.85
743.195	1940.28
743.38	1866.55
743.565	1911.61
743.75	1989.43
743.935	1844.03
744.12	1870.65
744.305	1952.57
744.49	1887.03
744.675	1911.61
744.86	1850.17
745.045	1801.02
745.23	1936.18
745.415	1839.93
745.6	1733.43
745.785	1882.94
745.97	1868.6
746.155	1864.5
746.34	1850.17
746.525	1731.39
746.71	1755.96
746.895	1864.5
747.079	1737.53
747.264	1862.46
747.449	1798.97
747.634	1690.43
747.819	1815.35
748.003	1649.47
748.188	1667.9
748.373	1712.96
748.557	1741.63
748.742	1641.28
748.927	1686.33
749.111	1549.12
749.296	1655.61
749.481	1725.24
749.665	1624.89
749.85	1596.22
750.034	1809.21
750.219	1628.99
750.404	1616.7
750.588	1624.89
750.773	1602.36
750.957	1645.37
751.141	1561.41
751.326	1577.79
751.51	1465.15
751.695	1567.55
751.879	1702.72
752.064	1567.55
752.248	1461.06
752.432	1551.17
752.617	1622.84
752.801	1579.84
752.985	1471.29
753.17	1602.36
753.354	1485.63
753.538	1416
753.722	1413.95
753.907	1450.82
754.091	1444.67
754.275	1340.22
754.459	1436.48
754.643	1368.9
754.828	1327.94
755.012	1440.58
755.196	1370.94
755.38	1329.99
755.564	1325.89
755.748	1381.18
755.932	1416
756.116	1209.15
756.3	1432.38
756.484	1295.17
756.668	1334.08
756.852	1321.79
757.036	1254.21
757.22	1250.11
757.404	1166.15
757.588	1321.79
757.772	1252.16
757.956	1280.83
758.14	1289.03
758.323	1266.5
758.507	1235.78
758.691	1172.29
758.875	1194.82
759.059	1227.59
759.242	1153.86
759.426	1131.33
759.61	1133.38
759.794	1170.24
759.977	1170.24
760.161	1155.91
760.345	1112.9
760.528	1096.52
760.712	1086.28
760.895	1112.9
761.079	1170.24
761.263	1168.2
761.446	1127.24
761.63	1139.52
761.813	1168.2
761.997	1071.94
762.18	1061.7
762.364	1092.42
762.547	1008.45
762.731	1059.65
762.914	1069.89
763.098	1041.22
763.281	1004.36
763.464	1018.69
763.648	1094.47
763.831	1061.7
764.015	985.93
764.198	1057.61
764.381	981.83
764.564	1006.41
764.748	1008.45
764.931	973.64
765.114	944.97
765.297	1069.89
765.481	979.78
765.664	920.39
765.847	1006.41
766.03	1012.55
766.213	1028.93
766.397	875.34
766.58	979.78
766.763	965.45
766.946	932.68
767.129	922.44
767.312	1008.45
767.495	920.39
767.678	969.54
767.861	930.63
768.044	906.06
768.227	895.82
768.41	940.87
768.593	928.58
768.776	977.73
768.959	930.63
769.142	1049.41
769.324	951.11
769.507	895.82
769.69	953.16
769.873	840.52
770.056	961.35
770.239	867.14
770.421	906.06
770.604	899.91
770.787	858.95
770.97	856.9
771.152	887.62
771.335	951.11
771.518	799.56
771.7	887.62
771.883	969.54
772.066	910.15
772.248	817.99
772.431	873.29
772.613	813.9
772.796	807.75
772.978	842.57
773.161	768.84
773.343	830.28
773.526	783.18
773.708	772.94
773.891	856.9
774.073	834.38
774.256	691.02
774.438	904.01
774.621	805.71
774.803	850.76
774.985	805.71
775.168	787.27
775.35	734.03
775.532	686.92
775.715	785.23
775.897	719.69
776.079	715.59
776.261	744.27
776.444	645.96
776.626	693.07
776.808	676.68
776.99	705.35
777.173	715.59
777.355	680.78
777.537	674.64
777.719	701.26
777.901	729.93
778.083	617.29
778.265	617.29
778.447	740.17
778.629	723.79
778.811	674.64
778.993	674.64
779.175	723.79
779.357	678.73
779.539	621.39
779.721	609.1
779.903	602.96
780.085	586.57
780.267	613.2
780.449	594.76
780.631	676.68
780.812	559.95
780.994	531.28
781.176	584.52
781.358	633.68
781.54	582.48
781.721	535.37
781.903	592.72
782.085	580.43
782.267	600.91
782.448	486.22
782.63	553.8
782.812	592.72
782.993	432.97
783.175	562
783.357	500.56
783.538	598.86
783.72	555.85
783.901	531.28
784.083	543.57
784.264	576.33
784.446	453.45
784.627	475.98
784.809	543.57
784.99	514.89
785.172	494.41
785.353	463.69
785.535	502.61
785.716	490.32
785.897	437.07
786.079	478.03
786.26	461.65
786.441	478.03
786.623	439.12
786.804	443.21
786.985	424.78
787.167	471.89
787.348	428.88
787.529	416.59
787.71	412.5
787.891	453.45
788.073	392.02
788.254	480.08
788.435	459.6
788.616	465.74
788.797	428.88
788.978	494.41
789.159	367.44
789.34	389.97
789.522	392.02
789.703	357.2
789.884	344.91
790.065	351.06
790.246	424.78
790.427	357.2
790.607	363.34
790.788	449.36
790.969	340.82
791.15	340.82
791.331	396.11
791.512	303.95
791.693	306
791.874	322.38
792.054	308.05
792.235	375.63
792.416	357.2
792.597	340.82
792.778	361.3
792.958	373.58
793.139	330.58
793.32	308.05
793.5	314.19
793.681	332.62
793.862	332.62
794.042	346.96
794.223	293.71
794.404	308.05
794.584	205.65
794.765	289.62
794.945	316.24
795.126	316.24
795.306	328.53
795.487	363.34
795.667	289.62
795.848	308.05
796.028	258.9
796.209	293.71
796.389	211.79
796.57	275.28
796.75	209.75
796.93	301.9
797.111	244.56
797.291	277.33
797.471	224.08
797.652	191.31
797.832	258.9
798.012	310.1
798.192	211.79
798.373	256.85
798.553	285.52
798.733	303.95
798.913	166.74
799.093	303.95
799.274	256.85
799.454	314.19
799.634	242.51
799.814	267.09
799.994	250.71
800.174	277.33
800.354	228.18
800.534	258.9
800.714	252.75
800.894	267.09
801.074	232.27
801.254	176.98
801.434	271.19
801.614	248.66
801.794	156.5
801.974	789.32
802.154	258.9
802.334	299.86
802.514	207.7
802.693	183.12
802.873	215.89
803.053	273.23
803.233	219.99
803.413	217.94
803.592	287.57
803.772	185.17
803.952	201.55
804.131	283.47
804.311	271.19
804.491	203.6
804.67	189.27
804.85	195.41
805.03	275.28
805.209	226.13
805.389	189.27
805.568	203.6
805.748	250.71
805.928	205.65
806.107	199.51
806.287	242.51
806.466	199.51
806.646	150.36
806.825	207.7
807.004	152.4
807.184	224.08
807.363	195.41
807.543	238.42
807.722	176.98
807.901	154.45
808.081	183.12
808.26	160.59
808.439	209.75
808.619	138.07
808.798	181.07
808.977	140.12
809.156	174.93
809.336	197.46
809.515	136.02
809.694	125.78
809.873	185.17
810.052	170.83
810.231	138.07
810.411	158.55
810.59	164.69
810.769	179.03
810.948	219.99
811.127	111.44
811.306	121.68
811.485	160.59
811.664	195.41
811.843	119.64
812.022	174.93
812.201	207.7
812.38	160.59
812.559	217.94
812.737	207.7
812.916	127.83
813.095	142.16
813.274	152.4
813.453	133.97
813.632	144.21
813.811	146.26
813.989	111.44
814.168	123.73
814.347	138.07
814.526	176.98
814.704	154.45
814.883	222.03
815.062	117.59
815.24	170.83
815.419	170.83
815.598	142.16
815.776	64.34
815.955	140.12
816.133	109.4
816.312	228.18
816.49	121.68
816.669	166.74
816.847	140.12
817.026	119.64
817.204	93.01
817.383	78.68
817.561	88.92
817.74	193.36
817.918	123.73
818.097	179.03
818.275	179.03
818.453	142.16
818.632	154.45
818.81	95.06
818.988	150.36
819.167	111.44
819.345	23.38
819.523	174.93
819.701	154.45
819.879	86.87
820.058	62.29
820.236	146.26
820.414	136.02
820.592	152.4
820.77	90.96
820.948	93.01
821.127	123.73
821.305	90.96
821.483	131.92
821.661	23.38
821.839	101.2
822.017	133.97
822.195	113.49
822.373	189.27
822.551	152.4
822.729	125.78
822.907	35.67
823.085	119.64
823.262	121.68
823.44	117.59
823.618	93.01
823.796	52.05
823.974	101.2
824.152	97.11
824.329	43.86
824.507	97.11
824.685	144.21
824.863	41.81
825.04	97.11
825.218	101.2
825.396	138.07
825.574	54.1
825.751	133.97
825.929	181.07
826.107	88.92
826.284	50
826.462	56.15
826.639	107.35
826.817	29.52
826.994	127.83
827.172	74.58
827.349	150.36
827.527	7
827.704	90.96
827.882	105.3
828.059	164.69
828.237	86.87
828.414	109.4
828.591	101.2
828.769	133.97
828.946	86.87
829.124	47.96
829.301	78.68
829.478	68.44
829.655	113.49
829.833	70.48
830.01	52.05
830.187	70.48
830.364	150.36
830.542	74.58
830.719	74.58
830.896	113.49
831.073	168.79
831.25	76.63
831.427	70.48
831.604	45.91
831.782	127.83
831.959	103.25
832.136	66.39
832.313	41.81
832.49	111.44
832.667	131.92
832.844	45.91
833.021	82.77
833.198	60.24
833.374	19.29
833.551	50
833.728	84.82
833.905	103.25
834.082	11.09
834.259	129.88
834.436	97.11
834.612	64.34
834.789	99.16
834.966	39.76
835.143	111.44
835.319	60.24
835.496	93.01
835.673	62.29
835.85	88.92
836.026	103.25
836.203	101.2
836.38	-23.72
836.556	78.68
836.733	45.91
836.909	47.96
837.086	56.15
837.262	-3.24
837.439	117.59
837.616	45.91
837.792	82.77
837.968	82.77
838.145	7
838.321	162.64
838.498	78.68
838.674	119.64
838.851	72.53
839.027	37.72
839.203	19.29
839.38	39.76
839.556	-31.91
839.732	97.11
839.909	-44.2
840.085	93.01
840.261	60.24
840.437	131.92
840.614	47.96
840.79	84.82
840.966	66.39
841.142	123.73
841.318	41.81
841.494	-31.91
841.671	-21.67
841.847	-46.25
842.023	37.72
842.199	50
842.375	56.15
842.551	4.95
842.727	68.44
842.903	29.52
843.079	56.15
843.255	136.02
843.431	39.76
843.607	56.15
843.783	39.76
843.959	64.34
844.134	4.95
844.31	41.81
844.486	-29.87
844.662	15.19
844.838	-29.87
845.013	70.48
845.189	56.15
845.365	39.76
845.541	-29.87
845.716	39.76
845.892	2.9
846.068	37.72
846.244	64.34
846.419	-76.97
846.595	80.72
846.77	2.9
846.946	29.52
847.122	88.92
847.297	-9.39
847.473	45.91
847.648	0.85
847.824	78.68
847.999	-11.43
848.175	52.05
848.35	56.15
848.526	86.87
848.701	17.24
848.876	78.68
849.052	97.11
849.227	41.81
849.403	-9.39
849.578	70.48
849.753	56.15
849.929	19.29
850.104	-13.48
850.279	4.95
850.454	93.01
850.63	9.05
850.805	9.05
850.98	62.29
851.155	50
851.33	76.63
851.505	-7.34
851.681	90.96
851.856	47.96
852.031	97.11
852.206	27.48
852.381	19.29
852.556	47.96
852.731	35.67
852.906	2.9
853.081	33.62
853.256	54.1
853.431	7
853.606	-21.67
853.781	84.82
853.956	88.92
854.131	-23.72
854.305	-5.29
854.48	-1.19
854.655	-11.43
854.83	7
855.005	7
855.18	52.05
855.354	9.05
855.529	50
855.704	9.05
855.879	93.01
856.053	45.91
856.228	-36.01
856.403	4.95
856.577	-27.82
856.752	31.57
856.926	-42.15
857.101	54.1
857.276	66.39
857.45	35.67
857.625	47.96
857.799	-19.63
857.974	31.57
858.148	39.76
858.323	29.52
858.497	4.95
858.672	-13.48
858.846	11.09
859.02	37.72
859.195	-25.77
859.369	-56.49
859.543	-9.39
859.718	47.96
859.892	93.01
860.066	70.48
860.241	2.9
860.415	45.91
860.589	-5.29
860.763	4.95
860.938	35.67
861.112	54.1
861.286	58.2
861.46	35.67
861.634	11.09
861.808	60.24
861.982	-19.63
862.157	35.67
862.331	-42.15
862.505	-27.82
862.679	-70.83
862.853	11.09
863.027	56.15
863.201	93.01
863.375	-46.25
863.549	13.14
863.722	39.76
863.896	15.19
864.07	2.9
864.244	37.72
864.418	-9.39
864.592	54.1
864.766	-46.25
864.939	17.24
865.113	-126.12
865.287	76.63
865.461	62.29
865.634	43.86
865.808	17.24
865.982	9.05
866.156	35.67
866.329	-54.44
866.503	13.14
866.676	-21.67
866.85	-46.25
867.024	39.76
867.197	43.86
867.371	29.52
867.544	19.29
867.718	19.29
867.891	-11.43
868.065	-21.67
868.238	-62.63
868.412	52.05
868.585	41.81
868.759	-40.11
868.932	2.9
869.105	11.09
869.279	19.29
869.452	52.05
869.625	-3.24
869.799	15.19
869.972	-9.39
870.145	2.9
870.319	43.86
870.492	7
870.665	47.96
870.838	-74.92
871.011	-58.54
871.185	-11.43
871.358	25.43
871.531	43.86
871.704	-19.63
871.877	13.14
872.05	4.95
872.223	7
872.396	-66.73
872.569	27.48
872.742	-31.91
872.915	35.67
873.088	47.96
873.261	-21.67
873.434	11.09
873.607	74.58
873.78	29.52
873.953	39.76
874.126	-3.24
874.299	125.78
874.471	13.14
874.644	62.29
874.817	54.1
874.99	72.53
875.163	13.14
875.335	-56.49
875.508	45.91
875.681	80.72
875.853	-42.15
876.026	35.67
876.199	-54.44
876.371	27.48
876.544	52.05
876.717	52.05
876.889	-44.2
877.062	60.24
877.234	2.9
877.407	-9.39
877.579	58.2
877.752	45.91
877.924	70.48
878.097	43.86
878.269	25.43
878.442	39.76
878.614	-25.77
878.786	13.14
878.959	-13.48
879.131	-1.19
879.303	-21.67
879.476	13.14
879.648	-23.72
879.82	-58.54
879.993	-29.87
880.165	-15.53
880.337	25.43
880.509	33.62
880.681	-68.78
880.854	-5.29
881.026	58.2
881.198	56.15
881.37	-40.11
881.542	13.14
881.714	-11.43
881.886	-31.91
882.058	33.62
882.23	76.63
882.402	-54.44
882.574	-13.48
882.746	47.96
882.918	39.76
883.09	27.48
883.262	25.43
883.434	-21.67
883.606	11.09
883.778	2.9
883.95	50
884.122	-64.68
884.293	2.9
884.465	-1.19
884.637	-21.67
884.809	7
884.98	0.85
885.152	19.29
885.324	72.53
885.496	-13.48
885.667	101.2
885.839	-27.82
886.011	-38.06
886.182	80.72
886.354	11.09
886.525	45.91
886.697	0.85
886.869	15.19
887.04	23.38
887.212	52.05
887.383	27.48
887.555	4.95
887.726	27.48
887.897	-25.77
888.069	31.57
888.24	70.48
888.412	9.05
888.583	15.19
888.754	-46.25
888.926	-42.15
889.097	2.9
889.268	29.52
889.44	0.85
889.611	-25.77
889.782	52.05
889.953	-31.91
890.125	23.38
890.296	0.85
890.467	68.44
890.638	-29.87
890.809	-9.39
890.98	-48.3
891.151	60.24
891.323	4.95
891.494	27.48
891.665	-5.29
891.836	13.14
892.007	-5.29
892.178	-56.49
892.349	29.52
892.52	50
892.691	-11.43
892.862	-5.29
893.032	-33.96
893.203	-17.58
893.374	39.76
893.545	35.67
893.716	-13.48
893.887	-40.11
894.057	-5.29
894.228	-48.3
894.399	66.39
894.57	39.76
894.74	27.48
894.911	41.81
895.082	-27.82
895.253	-9.39
895.423	19.29
895.594	62.29
895.764	4.95
895.935	80.72
896.106	23.38
896.276	50
896.447	-46.25
896.617	-5.29
896.788	2.9
896.958	-5.29
897.129	37.72
897.299	27.48
897.47	-3.24
897.64	0.85
897.81	-13.48
897.981	76.63
898.151	31.57
898.322	11.09
898.492	37.72
898.662	9.05
898.832	-13.48
899.003	-19.63
899.173	4.95
899.343	-48.3
899.513	41.81
