Data from USB4F104151__47__13-11-15-521.txt Node

Date: Fri Mar 14 13:11:15 EDT 2025
User: louis
Spectrometer: USB4F10415
Trigger mode: 4
Integration Time (sec): 2.000000E-2
Scans to average: 1
Electric dark correction enabled: true
Nonlinearity correction enabled: false
Boxcar width: 0
XAxis mode: Wavelengths
Number of Pixels in Spectrum: 3648
>>>>>Begin Spectral Data<<<<<
178.204	-94.72
178.424	-94.72
178.644	-94.72
178.864	-119.29
179.084	-78.33
179.304	-88.57
179.524	65.02
179.744	11.78
179.964	-14.85
180.184	7.68
180.404	-49.66
180.624	22.02
180.844	48.64
181.064	3.58
181.283	-31.23
181.503	-29.18
181.723	54.78
181.943	9.73
182.163	91.65
182.383	50.69
182.602	56.83
182.822	75.26
183.042	1.54
183.262	9.73
183.482	-18.94
183.701	-29.18
183.921	-8.7
184.141	13.82
184.361	1.54
184.58	38.4
184.8	-45.57
185.02	-33.28
185.239	5.63
185.459	-8.7
185.679	97.79
185.898	19.97
186.118	-72.19
186.338	-25.09
186.557	42.5
186.777	3.58
186.997	-49.66
187.216	-14.85
187.436	11.78
187.655	11.78
187.875	26.11
188.095	-115.2
188.314	50.69
188.534	89.6
188.753	32.26
188.973	-33.28
189.192	17.92
189.412	46.59
189.631	-27.14
189.851	5.63
190.07	22.02
190.29	-6.66
190.509	3.58
190.729	28.16
190.948	93.69
191.168	138.75
191.387	15.87
191.607	-16.9
191.826	50.69
192.045	30.21
192.265	50.69
192.484	-41.47
192.704	48.64
192.923	22.02
193.142	69.12
193.362	22.02
193.581	42.5
193.8	62.98
194.02	1.54
194.239	-37.38
194.458	38.4
194.678	42.5
194.897	5.63
195.116	11.78
195.335	9.73
195.555	58.88
195.774	50.69
195.993	-6.66
196.212	17.92
196.432	36.35
196.651	52.74
196.87	17.92
197.089	52.74
197.308	50.69
197.528	26.11
197.747	60.93
197.966	1.54
198.185	105.98
198.404	-10.75
198.623	-12.8
198.842	48.64
199.062	108.03
199.281	13.82
199.5	-2.56
199.719	42.5
199.938	34.3
200.157	48.64
200.376	-12.8
200.595	13.82
200.814	-68.09
201.033	97.79
201.252	40.45
201.471	11.78
201.69	36.35
201.909	9.73
202.128	11.78
202.347	-29.18
202.566	13.82
202.785	5.63
203.004	-49.66
203.223	62.98
203.442	26.11
203.661	69.12
203.879	26.11
204.098	-51.71
204.317	17.92
204.536	85.5
204.755	11.78
204.974	93.69
205.193	62.98
205.411	24.06
205.63	26.11
205.849	-45.57
206.068	-20.99
206.287	67.07
206.505	38.4
206.724	-39.42
206.943	-72.19
207.162	75.26
207.381	9.73
207.599	40.45
207.818	79.36
208.037	34.3
208.255	24.06
208.474	-6.66
208.693	32.26
208.911	69.12
209.13	44.54
209.349	77.31
209.567	46.59
209.786	13.82
210.005	81.41
210.223	36.35
210.442	-51.71
210.661	-4.61
210.879	15.87
211.098	-2.56
211.316	26.11
211.535	3.58
211.753	99.84
211.972	13.82
212.191	-14.85
212.409	62.98
212.628	7.68
212.846	22.02
213.065	48.64
213.283	77.31
213.502	30.21
213.72	71.17
213.938	26.11
214.157	40.45
214.375	-10.75
214.594	-14.85
214.812	34.3
215.031	3.58
215.249	11.78
215.467	42.5
215.686	52.74
215.904	-4.61
216.122	32.26
216.341	-10.75
216.559	71.17
216.778	34.3
216.996	42.5
217.214	48.64
217.432	24.06
217.651	-37.38
217.869	-31.23
218.087	56.83
218.306	-53.76
218.524	32.26
218.742	28.16
218.96	65.02
219.179	46.59
219.397	101.89
219.615	40.45
219.833	38.4
220.051	9.73
220.27	-4.61
220.488	46.59
220.706	44.54
220.924	-25.09
221.142	52.74
221.36	26.11
221.578	50.69
221.796	7.68
222.015	103.93
222.233	-25.09
222.451	116.22
222.669	-78.33
222.887	5.63
223.105	-10.75
223.323	-4.61
223.541	17.92
223.759	19.97
223.977	-23.04
224.195	120.32
224.413	30.21
224.631	-8.7
224.849	11.78
225.067	65.02
225.285	28.16
225.503	60.93
225.721	-100.86
225.939	28.16
226.157	-16.9
226.375	71.17
226.592	13.82
226.81	-35.33
227.028	24.06
227.246	69.12
227.464	46.59
227.682	32.26
227.9	36.35
228.117	38.4
228.335	67.07
228.553	54.78
228.771	-0.51
228.989	54.78
229.206	7.68
229.424	-29.18
229.642	5.63
229.86	-18.94
230.077	52.74
230.295	38.4
230.513	-18.94
230.731	-4.61
230.948	46.59
231.166	-2.56
231.384	32.26
231.601	-2.56
231.819	11.78
232.037	28.16
232.254	1.54
232.472	-47.62
232.689	5.63
232.907	40.45
233.125	11.78
233.342	-59.9
233.56	40.45
233.777	26.11
233.995	-16.9
234.213	36.35
234.43	-0.51
234.648	-39.42
234.865	17.92
235.083	-6.66
235.3	-16.9
235.518	-64
235.735	60.93
235.953	99.84
236.17	-41.47
236.388	50.69
236.605	-23.04
236.822	95.74
237.04	50.69
237.257	1.54
237.475	54.78
237.692	-18.94
237.909	58.88
238.127	1.54
238.344	56.83
238.562	52.74
238.779	-29.18
238.996	54.78
239.214	42.5
239.431	-23.04
239.648	11.78
239.865	38.4
240.083	19.97
240.3	-6.66
240.517	30.21
240.735	87.55
240.952	110.08
241.169	79.36
241.386	-39.42
241.603	-20.99
241.821	-16.9
242.038	87.55
242.255	42.5
242.472	81.41
242.689	44.54
242.907	26.11
243.124	19.97
243.341	38.4
243.558	48.64
243.775	24.06
243.992	42.5
244.209	-6.66
244.426	93.69
244.643	22.02
244.86	38.4
245.078	95.74
245.295	52.74
245.512	-14.85
245.729	42.5
245.946	-2.56
246.163	19.97
246.38	69.12
246.597	1.54
246.814	-8.7
247.031	56.83
247.248	50.69
247.464	17.92
247.681	79.36
247.898	42.5
248.115	17.92
248.332	-25.09
248.549	26.11
248.766	71.17
248.983	118.27
249.2	-4.61
249.417	28.16
249.633	-6.66
249.85	36.35
250.067	-8.7
250.284	22.02
250.501	58.88
250.717	46.59
250.934	9.73
251.151	77.31
251.368	-29.18
251.585	26.11
251.801	69.12
252.018	17.92
252.235	28.16
252.451	9.73
252.668	40.45
252.885	28.16
253.102	9.73
253.318	75.26
253.535	-23.04
253.752	-47.62
253.968	19.97
254.185	17.92
254.401	9.73
254.618	-8.7
254.835	9.73
255.051	89.6
255.268	73.21
255.484	17.92
255.701	1.54
255.917	-14.85
256.134	7.68
256.351	19.97
256.567	-39.42
256.784	73.21
257	48.64
257.217	-33.28
257.433	58.88
257.65	11.78
257.866	34.3
258.082	-27.14
258.299	-2.56
258.515	-2.56
258.732	-35.33
258.948	30.21
259.165	-14.85
259.381	5.63
259.597	42.5
259.814	19.97
260.03	56.83
260.246	58.88
260.463	54.78
260.679	50.69
260.895	42.5
261.112	5.63
261.328	-18.94
261.544	-27.14
261.761	28.16
261.977	77.31
262.193	36.35
262.409	69.12
262.626	3.58
262.842	48.64
263.058	-12.8
263.274	-14.85
263.49	-14.85
263.707	44.54
263.923	56.83
264.139	56.83
264.355	9.73
264.571	93.69
264.787	-18.94
265.004	13.82
265.22	48.64
265.436	34.3
265.652	-64
265.868	19.97
266.084	15.87
266.3	67.07
266.516	-29.18
266.732	19.97
266.948	42.5
267.164	52.74
267.38	77.31
267.596	13.82
267.812	69.12
268.028	-55.81
268.244	48.64
268.46	-18.94
268.676	-2.56
268.892	17.92
269.108	24.06
269.324	99.84
269.54	-2.56
269.756	-18.94
269.972	-35.33
270.188	-31.23
270.403	1.54
270.619	-59.9
270.835	77.31
271.051	79.36
271.267	42.5
271.483	17.92
271.698	134.65
271.914	17.92
272.13	7.68
272.346	65.02
272.562	9.73
272.777	85.5
272.993	-74.24
273.209	9.73
273.425	1.54
273.64	-86.53
273.856	58.88
274.072	-25.09
274.287	42.5
274.503	120.32
274.719	1.54
274.934	9.73
275.15	-45.57
275.366	73.21
275.581	17.92
275.797	89.6
276.012	-14.85
276.228	-0.51
276.444	56.83
276.659	-20.99
276.875	17.92
277.09	11.78
277.306	22.02
277.521	7.68
277.737	9.73
277.952	46.59
278.168	52.74
278.383	5.63
278.599	24.06
278.814	30.21
279.03	101.89
279.245	52.74
279.461	54.78
279.676	24.06
279.892	36.35
280.107	69.12
280.322	19.97
280.538	22.02
280.753	17.92
280.969	-20.99
281.184	52.74
281.399	93.69
281.615	3.58
281.83	11.78
282.045	-18.94
282.26	19.97
282.476	9.73
282.691	19.97
282.906	30.21
283.122	-6.66
283.337	-6.66
283.552	9.73
283.767	58.88
283.983	40.45
284.198	54.78
284.413	83.45
284.628	7.68
284.843	-64
285.058	36.35
285.274	9.73
285.489	3.58
285.704	83.45
285.919	15.87
286.134	-53.76
286.349	17.92
286.564	-2.56
286.779	79.36
286.995	17.92
287.21	69.12
287.425	91.65
287.64	11.78
287.855	-4.61
288.07	42.5
288.285	22.02
288.5	67.07
288.715	77.31
288.93	-6.66
289.145	9.73
289.36	9.73
289.575	-12.8
289.79	-14.85
290.004	52.74
290.219	77.31
290.434	17.92
290.649	62.98
290.864	93.69
291.079	79.36
291.294	-37.38
291.509	19.97
291.724	13.82
291.938	58.88
292.153	9.73
292.368	-18.94
292.583	3.58
292.798	3.58
293.012	58.88
293.227	-4.61
293.442	-23.04
293.657	60.93
293.871	46.59
294.086	73.21
294.301	48.64
294.516	-2.56
294.73	-39.42
294.945	-29.18
295.16	9.73
295.374	-29.18
295.589	54.78
295.804	-25.09
296.018	3.58
296.233	42.5
296.447	-0.51
296.662	9.73
296.877	54.78
297.091	-4.61
297.306	50.69
297.52	30.21
297.735	1.54
297.949	19.97
298.164	15.87
298.378	58.88
298.593	60.93
298.807	-29.18
299.022	-31.23
299.236	19.97
299.451	91.65
299.665	60.93
299.88	-18.94
300.094	42.5
300.309	50.69
300.523	5.63
300.737	19.97
300.952	48.64
301.166	30.21
301.381	24.06
301.595	30.21
301.809	87.55
302.024	69.12
302.238	24.06
302.452	101.89
302.667	-37.38
302.881	85.5
303.095	1.54
303.309	42.5
303.524	22.02
303.738	17.92
303.952	44.54
304.166	17.92
304.381	-12.8
304.595	52.74
304.809	38.4
305.023	67.07
305.237	-6.66
305.452	42.5
305.666	7.68
305.88	11.78
306.094	1.54
306.308	42.5
306.522	65.02
306.736	52.74
306.95	19.97
307.164	52.74
307.379	38.4
307.593	36.35
307.807	93.69
308.021	83.45
308.235	69.12
308.449	3.58
308.663	-31.23
308.877	124.41
309.091	75.26
309.305	62.98
309.519	-27.14
309.733	87.55
309.947	-12.8
310.161	-20.99
310.374	24.06
310.588	19.97
310.802	69.12
311.016	38.4
311.23	38.4
311.444	34.3
311.658	15.87
311.872	36.35
312.085	79.36
312.299	44.54
312.513	15.87
312.727	58.88
312.941	44.54
313.154	144.89
313.368	30.21
313.582	58.88
313.796	26.11
314.009	26.11
314.223	50.69
314.437	28.16
314.651	26.11
314.864	13.82
315.078	-29.18
315.292	32.26
315.505	11.78
315.719	34.3
315.933	1.54
316.146	5.63
316.36	1.54
316.573	34.3
316.787	60.93
317.001	67.07
317.214	60.93
317.428	15.87
317.641	46.59
317.855	95.74
318.068	56.83
318.282	5.63
318.495	17.92
318.709	11.78
318.922	48.64
319.136	44.54
319.349	9.73
319.563	15.87
319.776	99.84
319.99	124.41
320.203	65.02
320.417	60.93
320.63	52.74
320.843	132.61
321.057	-68.09
321.27	-6.66
321.483	-35.33
321.697	17.92
321.91	22.02
322.124	40.45
322.337	13.82
322.55	77.31
322.763	71.17
322.977	1.54
323.19	69.12
323.403	9.73
323.617	19.97
323.83	67.07
324.043	36.35
324.256	40.45
324.469	-0.51
324.683	32.26
324.896	69.12
325.109	24.06
325.322	42.5
325.535	118.27
325.748	-6.66
325.962	-27.14
326.175	46.59
326.388	-10.75
326.601	19.97
326.814	52.74
327.027	17.92
327.24	30.21
327.453	-31.23
327.666	101.89
327.879	114.17
328.092	67.07
328.305	36.35
328.518	46.59
328.731	-33.28
328.944	54.78
329.157	28.16
329.37	79.36
329.583	91.65
329.796	38.4
330.009	-27.14
330.222	-64
330.435	-23.04
330.648	-6.66
330.861	-35.33
331.073	110.08
331.286	56.83
331.499	91.65
331.712	36.35
331.925	38.4
332.138	40.45
332.35	54.78
332.563	-25.09
332.776	79.36
332.989	-4.61
333.202	5.63
333.414	15.87
333.627	69.12
333.84	97.79
334.053	-8.7
334.265	38.4
334.478	103.93
334.691	3.58
334.903	52.74
335.116	-0.51
335.329	11.78
335.541	60.93
335.754	58.88
335.966	56.83
336.179	-25.09
336.392	26.11
336.604	97.79
336.817	52.74
337.029	-20.99
337.242	7.68
337.454	36.35
337.667	30.21
337.88	1.54
338.092	38.4
338.305	44.54
338.517	-6.66
338.729	50.69
338.942	108.03
339.154	-4.61
339.367	-29.18
339.579	67.07
339.792	-18.94
340.004	1.54
340.217	48.64
340.429	54.78
340.641	11.78
340.854	85.5
341.066	19.97
341.278	52.74
341.491	65.02
341.703	32.26
341.915	-6.66
342.128	42.5
342.34	108.03
342.552	9.73
342.764	32.26
342.977	1.54
343.189	52.74
343.401	38.4
343.613	5.63
343.826	30.21
344.038	26.11
344.25	42.5
344.462	-51.71
344.674	-18.94
344.886	67.07
345.099	89.6
345.311	-0.51
345.523	-18.94
345.735	1.54
345.947	-20.99
346.159	24.06
346.371	65.02
346.583	116.22
346.795	99.84
347.007	38.4
347.219	28.16
347.431	-4.61
347.643	91.65
347.855	26.11
348.067	87.55
348.279	-31.23
348.491	24.06
348.703	83.45
348.915	34.3
349.127	-53.76
349.339	32.26
349.551	1.54
349.763	101.89
349.975	-23.04
350.187	67.07
350.399	73.21
350.61	91.65
350.822	-14.85
351.034	28.16
351.246	30.21
351.458	95.74
351.669	3.58
351.881	77.31
352.093	50.69
352.305	87.55
352.517	3.58
352.728	118.27
352.94	56.83
353.152	67.07
353.363	52.74
353.575	60.93
353.787	60.93
353.999	79.36
354.21	44.54
354.422	44.54
354.633	36.35
354.845	-23.04
355.057	108.03
355.268	99.84
355.48	13.82
355.692	30.21
355.903	-64
356.115	17.92
356.326	-33.28
356.538	54.78
356.749	36.35
356.961	58.88
357.172	22.02
357.384	26.11
357.595	173.57
357.807	-4.61
358.018	38.4
358.23	-10.75
358.441	110.08
358.653	73.21
358.864	56.83
359.075	3.58
359.287	34.3
359.498	-12.8
359.709	73.21
359.921	-39.42
360.132	36.35
360.344	65.02
360.555	91.65
360.766	26.11
360.977	75.26
361.189	75.26
361.4	67.07
361.611	75.26
361.823	95.74
362.034	93.69
362.245	-33.28
362.456	22.02
362.667	38.4
362.879	-25.09
363.09	79.36
363.301	30.21
363.512	62.98
363.723	50.69
363.935	50.69
364.146	54.78
364.357	28.16
364.568	26.11
364.779	93.69
364.99	11.78
365.201	-4.61
365.412	108.03
365.623	11.78
365.834	110.08
366.045	13.82
366.256	30.21
366.467	99.84
366.678	-2.56
366.889	-6.66
367.1	153.09
367.311	85.5
367.522	9.73
367.733	85.5
367.944	-12.8
368.155	17.92
368.366	-10.75
368.577	44.54
368.788	54.78
368.999	48.64
369.209	34.3
369.42	65.02
369.631	128.51
369.842	34.3
370.053	42.5
370.264	69.12
370.474	17.92
370.685	75.26
370.896	46.59
371.107	73.21
371.317	42.5
371.528	52.74
371.739	97.79
371.95	83.45
372.16	22.02
372.371	28.16
372.582	-35.33
372.792	93.69
373.003	38.4
373.214	34.3
373.424	60.93
373.635	15.87
373.846	32.26
374.056	3.58
374.267	108.03
374.477	110.08
374.688	26.11
374.898	75.26
375.109	24.06
375.319	-37.38
375.53	69.12
375.74	19.97
375.951	1.54
376.161	28.16
376.372	101.89
376.582	17.92
376.793	-0.51
377.003	9.73
377.214	22.02
377.424	-2.56
377.635	58.88
377.845	5.63
378.055	69.12
378.266	5.63
378.476	9.73
378.686	103.93
378.897	69.12
379.107	-49.66
379.317	42.5
379.528	34.3
379.738	140.8
379.948	-86.53
380.158	-29.18
380.369	1.54
380.579	85.5
380.789	56.83
380.999	52.74
381.21	-0.51
381.42	81.41
381.63	22.02
381.84	34.3
382.05	38.4
382.261	60.93
382.471	7.68
382.681	9.73
382.891	50.69
383.101	83.45
383.311	-0.51
383.521	79.36
383.731	13.82
383.941	50.69
384.151	-31.23
384.361	36.35
384.571	79.36
384.781	62.98
384.991	52.74
385.201	9.73
385.411	89.6
385.621	110.08
385.831	-20.99
386.041	28.16
386.251	22.02
386.461	140.8
386.671	54.78
386.881	128.51
387.091	7.68
387.301	-4.61
387.511	67.07
387.72	5.63
387.93	85.5
388.14	15.87
388.35	13.82
388.56	-0.51
388.769	73.21
388.979	58.88
389.189	52.74
389.399	-2.56
389.609	46.59
389.818	75.26
390.028	17.92
390.238	44.54
390.447	-51.71
390.657	89.6
390.867	-29.18
391.076	34.3
391.286	73.21
391.496	79.36
391.705	-53.76
391.915	132.61
392.125	140.8
392.334	67.07
392.544	71.17
392.753	79.36
392.963	54.78
393.172	44.54
393.382	5.63
393.591	42.5
393.801	28.16
394.01	75.26
394.22	58.88
394.429	36.35
394.639	34.3
394.848	79.36
395.058	-12.8
395.267	99.84
395.477	65.02
395.686	91.65
395.895	40.45
396.105	126.46
396.314	52.74
396.524	52.74
396.733	73.21
396.942	114.17
397.152	101.89
397.361	58.88
397.57	81.41
397.78	67.07
397.989	67.07
398.198	167.42
398.407	91.65
398.617	75.26
398.826	77.31
399.035	136.7
399.244	50.69
399.453	142.85
399.663	87.55
399.872	132.61
400.081	67.07
400.29	11.78
400.499	56.83
400.708	114.17
400.917	22.02
401.127	60.93
401.336	52.74
401.545	169.47
401.754	108.03
401.963	44.54
402.172	81.41
402.381	67.07
402.59	116.22
402.799	124.41
403.008	91.65
403.217	62.98
403.426	50.69
403.635	52.74
403.844	65.02
404.053	95.74
404.262	36.35
404.471	153.09
404.68	144.89
404.888	148.99
405.097	122.37
405.306	81.41
405.515	97.79
405.724	112.13
405.933	138.75
406.142	112.13
406.35	169.47
406.559	155.13
406.768	177.66
406.977	210.43
407.185	200.19
407.394	99.84
407.603	151.04
407.812	153.09
408.02	175.61
408.229	136.7
408.438	167.42
408.646	192
408.855	177.66
409.064	208.38
409.272	220.67
409.481	122.37
409.69	196.09
409.898	163.33
410.107	200.19
410.315	202.24
410.524	202.24
410.733	230.91
410.941	230.91
411.15	232.96
411.358	298.49
411.567	312.83
411.775	282.11
411.984	345.59
412.192	316.92
412.401	312.83
412.609	386.55
412.818	454.14
413.026	368.12
413.234	380.41
413.443	429.56
413.651	443.9
413.86	368.12
414.068	476.66
414.276	484.86
414.485	452.09
414.693	613.88
414.901	574.97
415.11	488.95
415.318	429.56
415.526	513.53
415.734	558.58
415.943	605.69
416.151	634.36
416.359	634.36
416.567	630.26
416.776	665.08
416.984	714.23
417.192	775.67
417.4	843.25
417.608	724.47
417.817	742.9
418.025	865.78
418.233	949.75
418.441	876.02
418.649	855.54
418.857	935.41
419.065	968.18
419.273	923.12
419.481	978.42
419.689	1138.16
419.897	1129.97
420.105	1156.59
420.313	1240.56
420.521	1254.89
420.729	1160.69
420.937	1361.39
421.145	1299.95
421.353	1316.33
421.561	1496.55
421.769	1441.26
421.977	1533.42
422.185	1521.13
422.393	1592.81
422.601	1734.12
422.809	1725.93
423.017	1748.45
423.224	1791.46
423.432	1803.75
423.64	1844.71
423.848	2065.89
424.056	2043.36
424.263	2201.05
424.471	2055.65
424.679	2117.09
424.887	2313.69
425.094	2362.84
425.302	2334.17
425.51	2401.76
425.718	2604.5
425.925	2528.73
426.133	2797.01
426.341	2864.6
426.548	2954.71
426.756	3007.95
426.964	3032.53
427.171	3302.86
427.379	3206.61
427.586	3356.11
427.794	3323.34
428.001	3513.8
428.209	3679.69
428.417	3579.34
428.624	3743.17
428.832	3888.58
429.039	3935.68
429.247	3978.69
429.454	4234.69
429.662	4527.55
429.869	4462.01
430.076	4588.99
430.284	4462.01
430.491	4607.42
430.699	4836.79
430.906	4744.63
431.114	4718.01
431.321	4994.48
431.528	5313.97
431.736	5422.51
431.943	5848.49
432.15	5686.7
432.358	5836.2
432.565	5979.56
432.772	6208.93
432.979	6446.49
433.187	6348.19
433.394	6559.13
433.601	6981.01
433.808	6976.92
434.016	7021.97
434.223	7107.99
434.43	7478.67
434.637	7327.12
434.844	7742.86
435.052	8048.01
435.259	8189.32
435.466	8242.56
435.673	7974.28
435.88	8629.63
436.087	9006.45
436.294	9074.04
436.501	8922.49
436.708	9311.6
436.915	9489.78
437.122	9749.87
437.329	9635.18
437.537	9999.72
437.743	10190.18
437.95	10186.08
438.157	10773.85
438.364	11015.51
438.571	10902.87
438.778	10949.98
438.985	12053.83
439.192	11791.69
439.399	12102.98
439.606	11732.3
439.813	12428.61
440.02	13190.45
440.227	12707.13
440.433	12846.4
440.64	13364.53
440.847	13194.55
441.054	13616.43
441.261	14470.44
441.467	14230.82
441.674	14478.63
441.881	15019.29
442.088	14959.9
442.294	14769.44
442.501	15295.77
442.708	15564.05
442.914	16196.87
443.121	16745.73
443.328	16583.94
443.534	17550.58
443.741	17347.83
443.948	16690.43
444.154	18107.63
444.361	18152.68
444.568	18234.6
444.774	18238.7
444.981	18269.42
445.187	18992.35
445.394	19573.97
445.6	19272.92
445.807	21259.45
446.013	20407.5
446.22	20913.34
446.426	21564.6
446.633	21802.16
446.839	22729.89
447.046	21734.58
447.252	22656.17
447.459	23073.95
447.665	22795.43
447.871	24188.05
448.078	25220.22
448.284	23747.73
448.491	24331.4
448.697	25642.1
448.903	25767.03
449.11	25871.48
449.316	25355.39
449.522	26354.8
449.728	26899.56
449.935	27401.31
450.141	27047.01
450.347	27257.95
450.553	26844.26
450.76	26971.24
450.966	28312.66
451.172	27952.21
451.378	28449.87
451.584	27878.49
451.791	28605.52
451.997	28488.78
452.203	29183.04
452.409	29076.55
452.615	29156.42
452.821	27663.45
453.027	27743.32
453.233	29201.47
453.44	27735.13
453.646	28398.67
453.852	28542.03
454.058	29025.35
454.264	28144.72
454.47	28609.61
454.676	27946.07
454.882	28998.73
455.088	26438.76
455.294	26965.09
455.5	27667.55
455.705	27771.99
455.911	26809.45
456.117	25869.43
456.323	25619.58
456.529	24407.18
456.735	25799.8
456.941	24962.18
457.147	24425.61
457.352	23538.84
457.558	23504.03
457.764	23878.8
457.97	23219.36
458.176	22473.9
458.381	22690.98
458.587	21623.99
458.793	21294.27
458.999	20210.89
459.204	21865.65
459.41	21146.81
459.616	19989.71
459.821	19932.37
460.027	19901.65
460.233	19277.02
460.438	18435.3
460.644	18734.31
460.85	17827.06
461.055	17472.76
461.261	17546.48
461.466	16123.15
461.672	15826.19
461.878	16735.49
462.083	15643.92
462.289	15529.24
462.494	15543.57
462.7	14634.27
462.905	14308.65
463.111	14701.86
463.316	14720.29
463.522	14634.27
463.727	14423.33
463.932	14439.72
464.138	14257.45
464.343	14202.15
464.549	13907.24
464.754	14406.95
464.959	14026.03
465.165	14265.64
465.37	13600.05
465.575	13282.61
465.781	13735.21
465.986	13864.24
466.191	13315.38
466.397	12950.84
466.602	12533.06
466.807	12977.47
467.012	12854.59
467.218	12723.52
467.423	12528.96
467.628	12520.77
467.833	13305.14
468.038	12678.46
468.244	12576.06
468.449	12963.13
468.654	12641.6
468.859	12350.79
469.064	12291.4
469.269	11818.32
469.474	12000.58
469.679	12246.34
469.885	12000.58
470.09	12084.55
470.295	11889.99
470.5	11484.5
470.705	11871.56
470.91	11367.76
471.115	11240.79
471.32	11638.09
471.525	11519.31
471.73	11281.75
471.935	11300.18
472.139	10716.51
472.344	10958.17
472.549	10863.96
472.754	10829.15
472.959	10558.81
473.164	10280.29
473.369	10157.41
473.574	10464.61
473.778	10478.94
473.983	10460.51
474.188	10208.61
474.393	9923.94
474.598	9880.94
474.802	9753.96
475.007	9770.35
475.212	9770.35
475.417	9637.23
475.621	9434.48
475.826	9512.3
476.031	9094.52
476.235	8813.95
476.44	9160.05
476.645	9221.49
476.849	9170.29
477.054	9096.57
477.259	8670.59
477.463	8693.12
477.668	8672.64
477.872	8742.27
478.077	8398.21
478.282	8285.57
478.486	8332.67
478.691	8060.29
478.895	8105.35
479.1	8224.13
479.304	7929.22
479.509	7900.55
479.713	8099.2
479.918	7867.78
480.122	7763.34
480.326	7761.29
480.531	7861.64
480.735	7708.04
480.94	7882.12
481.144	7984.52
481.348	7579.02
481.553	7603.6
481.757	7531.92
481.961	7581.07
482.166	7775.63
482.37	7642.51
482.574	7380.37
482.778	7525.77
482.983	7769.48
483.187	7667.08
483.391	7619.98
483.595	7441.81
483.8	7509.39
484.004	7753.1
484.208	7507.34
484.412	7646.6
484.616	7333.26
484.821	7622.03
485.025	7357.84
485.229	7669.13
485.433	7329.17
485.637	7441.81
485.841	7689.61
486.045	7488.91
486.249	7458.19
486.453	7495.05
486.657	7521.68
486.861	7605.64
487.065	7251.35
487.269	7472.53
487.473	7398.8
487.677	7687.56
487.881	7470.48
488.085	7572.88
488.289	7513.49
488.493	7400.85
488.697	7611.79
488.901	7576.97
489.105	7447.95
489.309	7546.25
489.512	7644.56
489.716	7769.48
489.92	7683.47
490.124	7599.5
490.328	7736.71
490.531	7759.24
490.735	7818.63
490.939	7820.68
491.143	7751.05
491.346	7908.74
491.55	8064.39
491.754	7925.13
491.958	7880.07
492.161	7947.65
492.365	8007.05
492.569	8007.05
492.772	7912.84
492.976	8052.1
493.18	8093.06
493.383	8211.84
493.587	8314.24
493.79	8217.99
493.994	8152.45
494.197	8467.84
494.401	8430.98
494.605	8652.16
494.808	8717.69
495.012	8566.14
495.215	8598.91
495.419	8529.28
495.622	8494.46
495.825	8885.62
496.029	8938.87
496.232	9008.5
496.436	9010.55
496.639	9313.65
496.843	9108.85
497.046	9096.57
497.249	9356.66
497.453	9362.8
497.656	9549.17
497.859	9583.98
498.063	9710.96
498.266	10007.91
498.469	9700.72
498.673	9766.25
498.876	10009.96
499.079	10255.72
499.282	10265.96
499.485	10407.27
499.689	10431.84
499.892	10485.09
500.095	10483.04
500.298	10982.74
500.501	10595.68
500.705	10952.02
500.908	11109.72
501.111	11152.73
501.314	11240.79
501.517	11597.14
501.72	11603.28
501.923	11484.5
502.126	11834.7
502.329	12191.05
502.532	11984.2
502.735	12234.05
502.938	12451.14
503.141	12479.81
503.344	12596.54
503.547	12637.5
503.75	12846.4
503.953	13114.68
504.156	13096.25
504.359	13141.3
504.562	13370.68
504.765	13643.06
504.968	13698.35
505.17	13933.87
505.373	13905.2
505.576	14222.63
505.779	14378.28
505.982	14353.7
506.185	14791.97
506.387	15017.24
506.59	14951.71
506.793	15342.87
506.996	15176.98
507.198	15555.86
507.401	15619.35
507.604	15705.36
507.807	16135.43
508.009	16323.85
508.212	16209.16
508.415	16325.89
508.617	16639.23
508.82	16891.13
509.022	16704.77
509.225	17143.03
509.428	17323.26
509.63	17579.25
509.833	17450.23
510.035	18038
510.238	18052.33
510.44	18040.04
510.643	18396.39
510.845	18644.2
511.048	18648.29
511.25	18863.33
511.453	19223.77
511.655	19641.56
511.858	19193.05
512.06	20026.57
512.262	19748.05
512.465	20063.44
512.667	20333.77
512.87	20423.88
513.072	20339.91
513.274	20890.82
513.477	21226.68
513.679	21322.94
513.881	21365.95
514.084	21552.31
514.286	22015.15
514.488	21703.86
514.69	22621.35
514.893	22602.92
515.095	22578.34
515.297	22897.83
515.499	22758.56
515.701	23207.07
515.904	23671.96
516.106	23518.36
516.308	23848.08
516.51	24046.74
516.712	24329.36
516.914	24327.31
517.116	24667.27
517.318	24841.35
517.52	25330.81
517.722	25263.23
517.925	25558.14
518.127	25926.77
518.329	25773.17
518.531	25922.68
518.733	26543.21
518.935	26743.91
519.136	27020.39
519.338	27124.83
519.54	27130.98
519.742	27645.02
519.944	27771.99
520.146	28083.28
520.348	28410.96
520.55	28279.89
520.752	28593.23
520.954	28873.8
521.155	28681.29
521.357	29330.5
521.559	29260.87
521.761	30135.35
521.963	30020.66
522.164	30264.37
522.366	30051.38
522.568	30782.51
522.77	30594.09
522.971	31294.5
523.173	30923.82
523.375	31245.35
523.576	31015.97
523.778	31597.6
523.98	31898.65
524.181	31949.85
524.383	31949.85
524.584	32783.37
524.786	32476.18
524.988	32617.49
525.189	32711.69
525.391	33045.51
525.592	33238.02
525.794	33463.3
525.995	33721.34
526.197	33670.14
526.398	33612.8
526.6	33907.71
526.801	34114.55
527.003	34186.23
527.204	34587.63
527.406	34790.38
527.607	34601.97
527.808	34896.88
528.01	34143.22
528.211	34784.24
528.412	35589.09
528.614	35105.77
528.815	35122.15
529.016	35320.81
529.218	34925.55
529.419	35736.54
529.62	35490.79
529.822	35716.06
530.023	35458.02
530.224	35824.61
530.425	35699.68
530.626	35797.98
530.828	35562.47
531.029	36287.45
531.23	35941.34
531.431	35804.13
531.632	36185.05
531.833	36578.26
532.035	36152.28
532.236	36574.16
532.437	36830.16
532.638	36193.24
532.839	36606.93
533.04	36670.42
533.241	36123.61
533.442	36942.8
533.643	36930.51
533.844	36977.61
534.045	36539.35
534.246	36355.03
534.447	37161.93
534.648	36449.24
534.849	36766.67
535.05	36633.55
535.251	36651.98
535.451	36537.3
535.652	36645.84
535.853	36496.34
536.054	36686.8
536.255	36910.03
536.456	36443.09
536.657	37194.7
536.857	36381.65
537.058	36520.91
537.259	37293
537.46	36475.86
537.66	36928.46
537.861	36500.44
538.062	36926.41
538.263	36606.93
538.463	36674.51
538.664	36510.67
538.865	36801.49
539.065	37127.11
539.266	36942.8
539.466	37092.3
539.667	36260.82
539.868	36842.45
540.068	36797.39
540.269	36613.07
540.469	36709.33
540.67	36639.7
540.87	36719.57
541.071	36772.81
541.271	36762.58
541.472	36572.11
541.672	36946.89
541.873	36549.59
542.073	36318.17
542.274	36961.23
542.474	36748.24
542.675	36656.08
542.875	36760.53
543.075	36766.67
543.276	36334.55
543.476	36910.03
543.676	36373.46
543.877	36473.81
544.077	36416.47
544.277	36807.63
544.478	36371.41
544.678	36793.29
544.878	36983.76
545.078	36432.85
545.279	36277.21
545.479	36457.43
545.679	36277.21
545.879	36488.15
546.079	36545.49
546.28	36457.43
546.48	36279.25
546.68	36527.06
546.88	36670.42
547.08	36615.12
547.28	36461.52
547.48	35902.43
547.68	36365.27
547.88	35935.2
548.081	36606.93
548.281	36410.32
548.481	36635.6
548.681	36563.92
548.881	36369.37
549.081	36117.46
549.28	36471.76
549.48	36543.44
549.68	36254.68
549.88	36819.92
550.08	36242.39
550.28	36434.9
550.48	36137.94
550.68	36441.04
550.88	36293.59
551.08	36000.73
551.279	36359.13
551.479	36049.88
551.679	36463.57
551.879	36445.14
552.079	36430.8
552.278	36146.14
552.478	36291.54
552.678	36119.51
552.878	36572.11
553.077	35982.3
553.277	35861.47
553.477	36699.09
553.676	36101.08
553.876	36027.35
554.076	36008.92
554.275	36019.16
554.475	35435.49
554.674	36056.03
554.874	35933.15
555.074	35582.95
555.273	35591.14
555.473	36119.51
555.672	35625.95
555.872	35462.11
556.071	35677.15
556.271	35877.85
556.47	35752.93
556.67	35466.21
556.869	35576.8
557.068	36084.7
557.268	35496.93
557.467	35183.59
557.667	35380.2
557.866	35521.51
558.065	35437.54
558.265	35316.71
558.464	35277.8
558.663	35740.64
558.863	35124.2
559.062	35568.61
559.261	34839.53
559.461	35333.09
559.66	34720.75
559.859	34884.59
560.058	34685.93
560.258	35068.9
560.457	34753.52
560.656	34636.78
560.855	34610.16
561.054	34950.12
561.253	34464.75
561.453	34479.09
561.652	34507.76
561.851	34536.43
562.05	34124.79
562.249	34339.83
562.448	34448.37
562.647	34184.18
562.846	34145.27
563.045	34065.4
563.244	33889.27
563.443	34259.96
563.642	33575.94
563.841	34096.12
564.04	33664
564.239	34178.04
564.438	33391.62
564.637	34032.63
564.836	33750.01
565.035	33715.2
565.234	33567.74
565.432	33068.04
565.631	33182.73
565.83	33559.55
566.029	33207.3
566.228	32979.98
566.427	33342.47
566.625	33063.94
566.824	32527.38
567.023	32637.97
567.222	32572.43
567.42	32832.52
567.619	32801.8
567.818	32615.44
568.016	32259.09
568.215	32562.19
568.414	31972.38
568.612	32607.25
568.811	32121.88
569.01	32211.99
569.208	31691.8
569.407	32072.73
569.605	31593.5
569.804	32353.3
570.002	31753.24
570.201	31876.12
570.4	31597.6
570.598	31153.19
570.797	31196.2
570.995	31534.11
571.193	31056.93
571.392	31224.87
571.59	31188
571.789	31292.45
571.987	31058.98
572.186	30872.62
572.384	30678.06
572.582	30829.61
572.781	30874.66
572.979	30450.74
573.177	30512.17
573.376	30614.57
573.574	30143.54
573.772	30540.85
573.971	29834.3
574.169	29654.08
574.367	29748.28
574.565	30270.51
574.763	29602.88
574.962	29672.51
575.16	29342.78
575.358	29887.54
575.556	29197.38
575.754	29758.52
575.952	29328.45
576.151	29725.75
576.349	29299.78
576.547	29334.59
576.745	29197.38
576.943	29267.01
577.141	28746.83
577.339	29033.54
577.537	28884.04
577.735	28767.31
577.933	28748.87
578.131	28789.83
578.329	28343.38
578.527	28425.29
578.725	28132.43
578.923	28337.23
579.121	28171.35
579.319	28056.66
579.516	28232.79
579.714	28073.04
579.912	28056.66
580.11	27765.85
580.308	27771.99
580.506	27946.07
580.704	27331.68
580.901	27690.07
581.099	27526.24
581.297	27270.24
581.495	27284.58
581.692	27481.18
581.89	27434.08
582.088	27526.24
582.285	26836.07
582.483	27272.29
582.681	26987.62
582.878	26948.71
583.076	26643.56
583.274	26823.78
583.471	26379.37
583.669	26754.15
583.866	26340.46
584.064	26879.08
584.262	26158.19
584.459	26569.83
584.657	26461.29
584.854	26489.96
585.052	26100.85
585.249	26463.34
585.447	26248.3
585.644	25738.36
585.841	25879.67
586.039	25855.09
586.236	25521.27
586.434	25652.34
586.631	25422.97
586.828	25549.95
587.026	25525.37
587.223	25554.04
587.42	25257.09
587.618	25164.93
587.815	24906.88
588.012	25289.85
588.21	24923.27
588.407	25105.54
588.604	24761.48
588.801	24716.42
588.999	24884.36
589.196	24403.08
589.393	24444.04
589.59	24515.72
589.787	24302.73
589.984	24517.77
590.182	23934.1
590.379	24095.89
590.576	24286.35
590.773	24085.65
590.97	24126.61
591.167	23897.24
591.364	23596.18
591.561	23993.49
591.758	23792.79
591.955	23622.81
592.152	23704.73
592.349	23456.92
592.546	23567.51
592.743	23594.14
592.94	23174.3
593.137	23471.26
593.334	23272.6
593.531	23063.71
593.727	23059.62
593.924	23030.94
594.121	22613.16
594.318	22992.03
594.515	22705.32
594.712	22660.26
594.908	22439.08
595.105	22756.52
595.302	22508.71
595.499	22496.42
595.696	22586.54
595.892	22187.18
596.089	22518.95
596.286	22303.92
596.482	22355.11
596.679	22232.24
596.876	22310.06
597.072	22090.93
597.269	22068.4
597.466	21664.95
597.662	21673.14
597.859	21902.51
598.055	21851.31
598.252	21609.65
598.448	21335.23
598.645	21107.9
598.841	21212.35
599.038	21468.34
599.234	21363.9
599.431	21245.12
599.627	21163.2
599.824	21243.07
600.02	21142.72
600.217	20980.93
600.413	21085.37
600.609	20886.72
600.806	20749.51
601.002	20802.75
601.198	20735.17
601.395	20409.54
601.591	20563.14
601.787	20632.77
601.984	20450.5
602.18	20600.01
602.376	20075.73
602.572	19911.89
602.769	20116.69
602.965	19776.72
603.161	20366.54
603.357	20088.01
603.553	19842.26
603.75	20010.19
603.946	19682.52
604.142	19879.12
604.338	19698.9
604.534	19829.97
604.73	19320.03
604.926	19729.62
605.122	19733.71
605.318	19739.86
605.514	19277.02
605.71	19115.23
605.906	19367.13
606.102	18924.77
606.298	19258.59
606.494	19139.8
606.69	19223.77
606.886	19109.08
607.082	18902.24
607.278	19121.37
607.474	18719.97
607.67	18994.4
607.866	18607.33
608.062	18898.14
608.257	18697.44
608.453	18679.01
608.649	18654.44
608.845	18349.29
609.041	18320.62
609.236	18277.61
609.432	18433.25
609.628	18384.1
609.824	18128.11
610.019	18015.47
610.215	18337
610.411	18134.25
610.606	18207.98
610.802	18285.8
610.998	17978.61
611.193	18015.47
611.389	17945.84
611.584	17831.15
611.78	17755.38
611.976	17872.11
612.171	17716.47
612.367	18040.04
612.562	17997.04
612.758	17679.6
612.953	17663.22
613.149	17581.3
613.344	17478.9
613.539	18128.11
613.735	17681.65
613.93	17595.64
614.126	17433.85
614.321	17624.31
614.517	17612.02
614.712	17501.43
614.907	17425.65
615.103	17364.22
615.298	17231.1
615.493	17499.38
615.688	17280.25
615.884	17319.16
616.079	17136.89
616.274	17229.05
616.47	17159.42
616.665	17229.05
616.86	16960.77
617.055	16975.1
617.25	16919.81
617.445	17118.46
617.641	16913.66
617.836	16704.77
618.031	16450.82
618.226	16618.75
618.421	16471.3
618.616	16682.24
618.811	16516.36
619.006	16852.22
619.201	16129.29
619.396	16393.48
619.591	15987.98
619.786	16207.11
619.981	16045.32
620.176	16284.94
620.371	15961.36
620.566	15981.84
620.761	15820.05
620.956	15994.12
621.151	15807.76
621.346	15828.24
621.541	15600.91
621.735	15682.83
621.93	15389.97
622.125	15367.45
622.32	15279.38
622.515	15154.46
622.709	15301.91
622.904	15207.7
623.099	15004.96
623.294	15174.94
623.488	15074.59
623.683	14751.01
623.878	14601.51
624.072	14664.99
624.267	14771.49
624.462	14488.87
624.656	14370.08
624.851	14288.17
625.046	14241.06
625.24	14304.55
625.435	14134.57
625.629	14009.64
625.824	14181.67
626.018	13937.96
626.213	13667.63
626.407	13688.11
626.602	13436.21
626.796	13684.02
626.991	13657.39
627.185	13497.65
627.38	13428.02
627.574	13278.52
627.768	13225.27
627.963	13268.28
628.157	13034.81
628.352	12938.55
628.546	12899.64
628.74	12956.99
628.935	12821.82
629.129	12899.64
629.323	12565.82
629.517	12707.13
629.712	12565.82
629.906	12703.04
630.1	12320.07
630.294	12438.85
630.489	12275.01
630.683	12385.6
630.877	12141.89
631.071	12129.61
631.265	12158.28
631.459	12191.05
631.653	11783.5
631.848	11967.82
632.042	11933
632.236	11789.64
632.43	11846.99
632.624	11664.72
632.818	11543.89
633.012	11373.91
633.206	11695.44
633.4	11474.26
633.594	11314.52
633.788	11357.52
633.982	11277.65
634.176	11103.57
634.369	11214.16
634.563	10941.79
634.757	10974.55
634.951	11085.14
635.145	10997.08
635.339	10931.55
635.533	10739.04
635.726	10814.81
635.92	10616.16
636.114	10636.64
636.308	10528.1
636.501	10673.5
636.695	10659.17
636.889	10497.38
637.083	10122.6
637.276	10380.64
637.47	10325.35
637.664	10175.84
637.857	10241.38
638.051	10071.4
638.244	10194.28
638.438	10085.73
638.632	10091.88
638.825	9854.31
639.019	9989.48
639.212	9629.04
639.406	9733.48
639.599	9659.76
639.793	9780.59
639.986	9395.57
640.18	9604.46
640.373	9586.03
640.567	9422.19
640.76	9626.99
640.954	9377.14
641.147	9192.82
641.34	9219.44
641.534	9282.93
641.727	9162.1
641.92	9160.05
642.114	8938.87
642.307	8994.17
642.5	9012.6
642.694	8684.92
642.887	8652.16
643.08	8832.38
643.273	8740.22
643.467	8916.34
643.66	8723.83
643.853	8514.94
644.046	8428.93
644.239	8590.72
644.432	8420.74
644.626	8500.61
644.819	8482.17
645.012	8277.38
645.205	8390.02
645.398	8320.39
645.591	8265.09
645.784	8177.03
645.977	8238.47
646.17	8097.16
646.363	8091.01
646.556	7978.37
646.749	7908.74
646.942	7947.65
647.135	7708.04
647.328	7767.43
647.521	7798.15
647.714	7882.12
647.907	7533.97
648.099	7669.13
648.292	7632.27
648.485	7640.46
648.678	7447.95
648.871	7505.29
649.064	7511.44
649.256	7609.74
649.449	7421.33
649.642	7200.15
649.835	7247.25
650.027	7191.95
650.22	7194
650.413	7144.85
650.605	7237.01
650.798	6993.3
650.991	7052.69
651.183	6837.66
651.376	6978.97
651.568	7026.07
651.761	6997.4
651.954	6890.9
652.146	6792.6
652.339	6690.2
652.531	7030.16
652.724	6692.25
652.916	6622.62
653.109	6663.58
653.301	6612.38
653.494	6663.58
653.686	6610.33
653.879	6761.88
654.071	6544.8
654.263	6505.88
654.456	6471.07
654.648	6356.38
654.84	6278.56
655.033	6520.22
655.225	6380.96
655.417	6180.26
655.61	6239.65
655.802	6172.07
655.994	6290.85
656.186	6258.08
656.379	6122.91
656.571	6206.88
656.763	5959.08
656.955	5897.64
657.148	5930.41
657.34	5774.76
657.532	5823.91
657.724	5778.86
657.916	5905.83
658.108	5819.82
658.3	5842.34
658.492	5778.86
658.684	5545.39
658.876	5789.1
659.068	5715.37
659.26	5649.83
659.452	5844.39
659.644	5610.92
659.836	5524.91
660.028	5694.89
660.22	5473.71
660.412	5379.5
660.604	5455.28
660.796	5252.53
660.988	5395.89
661.18	5529
661.372	5254.58
661.563	5270.96
661.755	5264.82
661.947	5213.62
662.139	5303.73
662.331	5113.27
662.522	5078.45
662.714	5223.86
662.906	5062.07
663.097	5025.2
663.289	5105.07
663.481	5150.13
663.673	4892.09
663.864	4793.78
664.056	4838.84
664.247	4887.99
664.439	4838.84
664.631	4869.56
664.822	4967.86
665.014	4847.03
665.205	4814.26
665.397	4677.05
665.588	4818.36
665.78	4736.44
665.971	4631.99
666.163	4744.63
666.354	4621.75
666.546	4631.99
666.737	4582.84
666.929	4634.04
667.12	4591.03
667.311	4572.6
667.503	4498.88
667.694	4548.03
667.885	4451.77
668.077	4279.74
668.268	4390.33
668.459	4335.04
668.651	4441.53
668.842	4359.61
669.033	4263.36
669.224	4279.74
669.416	4335.04
669.607	4320.7
669.798	4234.69
669.989	4212.16
670.18	4279.74
670.371	4171.2
670.563	4181.44
670.754	4072.9
670.945	4054.47
671.136	3968.45
671.327	4109.76
671.518	3993.03
671.709	3999.17
671.9	4027.84
672.091	4040.13
672.282	4056.51
672.473	3964.36
672.664	4015.55
672.855	3919.3
673.046	3933.64
673.237	3972.55
673.428	3876.29
673.619	3837.38
673.809	3861.96
674	3870.15
674.191	3913.16
674.382	3757.51
674.573	3878.34
674.764	3771.85
674.954	3773.89
675.145	3708.36
675.336	3694.02
675.527	3593.67
675.717	3579.34
675.908	3616.2
676.099	3597.77
676.289	3634.63
676.48	3540.43
676.671	3642.82
676.861	3620.3
677.052	3526.09
677.243	3538.38
677.433	3556.81
677.624	3501.51
677.814	3425.74
678.005	3392.97
678.195	3511.75
678.386	3454.41
678.576	3364.3
678.767	3335.63
678.957	3472.84
679.148	3466.7
679.338	3440.08
679.529	3454.41
679.719	3358.16
679.909	3481.03
680.1	3339.73
680.29	3464.65
680.481	3288.53
680.671	3419.6
680.861	3354.06
681.052	3366.35
681.242	3306.96
681.432	3368.4
681.622	3286.48
681.813	3173.84
682.003	3306.96
682.193	3349.96
682.383	3198.42
682.573	3331.53
682.764	3188.18
682.954	3343.82
683.144	3169.74
683.334	3128.78
683.524	3085.78
683.714	3225.04
683.904	3194.32
684.094	3343.82
684.284	3175.89
684.474	3126.74
684.664	3141.07
684.854	3061.2
685.044	3132.88
685.234	3022.29
685.424	3141.07
685.614	3073.49
685.804	2979.28
685.994	3030.48
686.184	3081.68
686.374	3053.01
686.564	3136.98
686.753	3120.59
686.943	3081.68
687.133	3096.02
687.323	2999.76
687.513	3065.3
687.702	2911.7
687.892	2878.93
688.082	2872.79
688.272	2862.55
688.461	2979.28
688.651	2889.17
688.841	2919.89
689.03	2926.04
689.22	2979.28
689.41	2790.87
689.599	2903.51
689.789	2727.38
689.979	2772.44
690.168	2848.21
690.358	2721.24
690.547	2706.9
690.737	2739.67
690.926	2704.85
691.116	2823.64
691.305	2717.14
691.495	2700.76
691.684	2598.36
691.874	2837.97
692.063	2672.09
692.252	2737.62
692.442	2782.68
692.631	2627.03
692.82	2594.26
693.01	2565.59
693.199	2690.52
693.388	2608.6
693.578	2663.9
693.767	2663.9
693.956	2567.64
694.146	2616.79
694.335	2594.26
694.524	2504.15
694.713	2676.18
694.902	2524.63
695.092	2502.11
695.281	2606.55
695.47	2545.11
695.659	2541.02
695.848	2504.15
696.037	2450.91
696.226	2420.19
696.415	2569.69
696.604	2430.43
696.793	2420.19
696.982	2442.71
697.171	2436.57
697.36	2473.43
697.549	2434.52
697.738	2459.1
697.927	2430.43
698.116	2477.53
698.305	2389.47
698.494	2444.76
698.683	2524.63
698.872	2610.65
699.061	2407.9
699.25	2385.37
699.438	2592.22
699.627	2373.08
699.816	2569.69
700.005	2274.78
700.193	2297.31
700.382	2422.24
700.571	2438.62
700.76	2373.08
700.948	2467.29
701.137	2403.8
701.326	2495.96
701.514	2401.76
701.703	2412
701.892	2381.28
702.08	2444.76
702.269	2334.17
702.457	2348.51
702.646	2301.4
702.834	2442.71
703.023	2311.64
703.212	2393.56
703.4	2407.9
703.589	2364.89
703.777	2362.84
703.965	2209.25
704.154	2301.4
704.342	2356.7
704.531	2280.93
704.719	2397.66
704.907	2356.7
705.096	2395.61
705.284	2278.88
705.472	2297.31
705.661	2285.02
705.849	2348.51
706.037	2360.8
706.226	2397.66
706.414	2389.47
706.602	2350.56
706.79	2272.73
706.979	2444.76
707.167	2354.65
707.355	2348.51
707.543	2311.64
707.731	2436.57
707.919	2452.95
708.107	2303.45
708.296	2360.8
708.484	2305.5
708.672	2360.8
708.86	2307.55
709.048	2481.63
709.236	2258.4
709.424	2317.79
709.612	2377.18
709.8	2352.6
709.988	2262.49
710.176	2373.08
710.364	2338.27
710.551	2321.88
710.739	2282.97
710.927	2422.24
711.115	2297.31
711.303	2354.65
711.491	2297.31
711.679	2264.54
711.866	2274.78
712.054	2379.23
712.242	2280.93
712.43	2471.39
712.617	2422.24
712.805	2354.65
712.993	2338.27
713.181	2254.3
713.368	2307.55
713.556	2289.12
713.744	2360.8
713.931	2366.94
714.119	2328.03
714.306	2403.8
714.494	2293.21
714.682	2258.4
714.869	2354.65
715.057	2235.87
715.244	2305.5
715.432	2450.91
715.619	2368.99
715.807	2213.34
715.994	2188.77
716.182	2309.6
716.369	2354.65
716.556	2235.87
716.744	2336.22
716.931	2289.12
717.119	2336.22
717.306	2268.64
717.493	2328.03
717.681	2379.23
717.868	2270.69
718.055	2258.4
718.242	2313.69
718.43	2397.66
718.617	2352.6
718.804	2311.64
718.991	2336.22
719.179	2346.46
719.366	2248.16
719.553	2219.49
719.74	2311.64
719.927	2237.92
720.114	2321.88
720.301	2231.77
720.488	2278.88
720.676	2256.35
720.863	2264.54
721.05	2274.78
721.237	2319.84
721.424	2387.42
721.611	2282.97
721.798	2201.05
721.985	2248.16
722.172	2211.29
722.358	2170.33
722.545	2244.06
722.732	2233.82
722.919	2254.3
723.106	2315.74
723.293	2213.34
723.48	2211.29
723.667	2180.57
723.853	2168.29
724.04	2221.53
724.227	2219.49
724.414	2162.14
724.6	2164.19
724.787	2147.81
724.974	2260.45
725.161	2305.5
725.347	2237.92
725.534	2207.2
725.72	2242.01
725.907	2176.48
726.094	2291.17
726.28	2311.64
726.467	2246.11
726.653	2262.49
726.84	2231.77
727.027	2297.31
727.213	2170.33
727.4	2225.63
727.586	2307.55
727.773	2192.86
727.959	2229.73
728.145	2311.64
728.332	2178.53
728.518	2278.88
728.705	2287.07
728.891	2190.81
729.077	2211.29
729.264	2223.58
729.45	2190.81
729.636	2293.21
729.823	2285.02
730.009	2164.19
730.195	2323.93
730.382	2229.73
730.568	2174.43
730.754	2196.96
730.94	2256.35
731.126	2219.49
731.313	2381.28
731.499	2207.2
731.685	2196.96
731.871	2196.96
732.057	2301.4
732.243	2293.21
732.429	2219.49
732.615	2188.77
732.801	2215.39
732.987	2141.66
733.173	2135.52
733.359	2289.12
733.545	2172.38
733.731	2246.11
733.917	2127.33
734.103	2207.2
734.289	2201.05
734.475	2209.25
734.661	2239.97
734.847	2133.47
735.033	2225.63
735.219	2112.99
735.404	2254.3
735.59	2164.19
735.776	2133.47
735.962	2209.25
736.148	2127.33
736.333	2237.92
736.519	2156
736.705	2108.9
736.89	2043.36
737.076	2084.32
737.262	2051.55
737.447	2156
737.633	2102.75
737.819	2096.61
738.004	2076.13
738.19	2074.08
738.375	2031.07
738.561	2041.31
738.747	2143.71
738.932	1959.39
739.118	2100.7
739.303	2104.8
739.489	2084.32
739.674	2010.59
739.859	2026.98
740.045	2002.4
740.23	2080.22
740.416	2012.64
740.601	2082.27
740.786	1996.26
740.972	1967.59
741.157	1906.15
741.342	2045.41
741.528	2137.57
741.713	2029.03
741.898	2100.7
742.084	2049.5
742.269	1947.11
742.454	1938.91
742.639	1992.16
742.824	1938.91
743.01	1981.92
743.195	1900
743.38	1959.39
743.565	1900
743.75	1959.39
743.935	1975.78
744.12	2022.88
744.305	1773.03
744.49	1818.08
744.675	1998.31
744.86	1822.18
745.045	1957.35
745.23	1893.86
745.415	1951.2
745.6	1852.9
745.785	1785.32
745.97	1871.33
746.155	1775.08
746.34	1834.47
746.525	1773.03
746.71	1789.41
746.895	1742.31
747.079	1852.9
747.264	1738.21
747.449	1844.71
747.634	1713.64
747.819	1752.55
748.003	1730.02
748.188	1695.21
748.373	1799.65
748.557	1652.2
748.742	1672.68
748.927	1644.01
749.111	1754.6
749.296	1687.01
749.481	1777.12
749.665	1541.61
749.85	1703.4
750.034	1590.76
750.219	1609.19
750.404	1633.77
750.588	1664.49
750.773	1611.24
750.957	1582.57
751.141	1484.27
751.326	1639.91
751.51	1510.89
751.695	1555.94
751.879	1537.51
752.064	1506.79
752.248	1455.59
752.432	1545.7
752.617	1525.22
752.801	1414.63
752.985	1584.62
753.17	1455.59
753.354	1453.55
753.538	1355.24
753.722	1494.51
753.907	1437.16
754.091	1361.39
754.275	1414.63
754.459	1410.54
754.643	1377.77
754.828	1371.63
755.012	1322.48
755.196	1334.76
755.38	1375.72
755.564	1222.13
755.748	1379.82
755.932	1463.79
756.116	1312.24
756.3	1312.24
756.484	1265.13
756.668	1308.14
756.852	1199.6
757.036	1340.91
757.22	1299.95
757.404	1236.46
757.588	1273.32
757.772	1218.03
757.956	1238.51
758.14	1115.63
758.323	1199.6
758.507	1193.45
758.691	1107.44
758.875	1172.97
759.059	1299.95
759.242	1138.16
759.426	1129.97
759.61	1211.89
759.794	1078.77
759.977	1183.21
760.161	1166.83
760.345	1138.16
760.528	1191.41
760.712	1134.06
760.895	1179.12
761.079	1041.9
761.263	1101.3
761.446	1117.68
761.63	1033.71
761.813	1037.81
761.997	1101.3
762.18	1109.49
762.364	1132.01
762.547	1002.99
762.731	1109.49
762.914	964.08
763.098	1050.1
763.281	1000.94
763.464	1035.76
763.648	1009.14
763.831	1037.81
764.015	1054.19
764.198	984.56
764.381	959.99
764.564	988.66
764.748	1013.23
764.931	974.32
765.114	927.22
765.297	982.51
765.481	949.75
765.664	951.79
765.847	970.23
766.03	1000.94
766.213	945.65
766.397	964.08
766.58	898.55
766.763	941.55
766.946	984.56
767.129	955.89
767.312	1002.99
767.495	935.41
767.678	871.92
767.861	986.61
768.044	914.93
768.227	943.6
768.41	863.73
768.593	976.37
768.776	886.26
768.959	853.49
769.142	886.26
769.324	859.63
769.507	886.26
769.69	951.79
769.873	900.59
770.056	923.12
770.239	939.51
770.421	869.87
770.604	871.92
770.787	830.96
770.97	876.02
771.152	828.92
771.335	855.54
771.518	884.21
771.7	880.11
771.883	910.83
772.066	855.54
772.248	921.07
772.431	919.03
772.613	851.44
772.796	726.52
772.978	849.4
773.161	906.74
773.343	798.2
773.526	763.38
773.708	693.75
773.891	755.19
774.073	724.47
774.256	814.58
774.438	808.44
774.621	820.72
774.803	771.57
774.985	718.33
775.168	763.38
775.35	697.85
775.532	699.89
775.715	738.8
775.897	753.14
776.079	626.17
776.261	755.19
776.444	722.42
776.626	667.13
776.808	677.37
776.99	667.13
777.173	636.41
777.355	632.31
777.537	677.37
777.719	665.08
777.901	607.73
778.083	589.3
778.265	644.6
778.447	767.48
778.629	574.97
778.811	660.98
778.993	652.79
779.175	613.88
779.357	654.84
779.539	564.73
779.721	577.02
779.903	630.26
780.085	607.73
780.267	609.78
780.449	527.86
780.631	632.31
780.812	652.79
780.994	511.48
781.176	527.86
781.358	544.25
781.54	605.69
781.721	572.92
781.903	544.25
782.085	513.53
782.267	548.34
782.448	493.05
782.63	472.57
782.812	562.68
782.993	491
783.175	624.12
783.357	562.68
783.538	570.87
783.72	421.37
783.901	462.33
784.083	493.05
784.264	560.63
784.446	525.82
784.627	558.58
784.809	429.56
784.99	462.33
785.172	472.57
785.353	478.71
785.535	519.67
785.716	413.18
785.897	419.32
786.079	394.75
786.26	431.61
786.441	495.1
786.623	407.03
786.804	464.38
786.985	341.5
787.167	404.99
787.348	409.08
787.529	466.42
787.71	454.14
787.891	476.66
788.073	456.19
788.254	388.6
788.435	441.85
788.616	402.94
788.797	384.51
788.978	452.09
789.159	400.89
789.34	470.52
789.522	437.75
789.703	280.06
789.884	333.31
790.065	370.17
790.246	394.75
790.427	339.45
790.607	372.22
790.788	409.08
790.969	300.54
791.15	398.84
791.331	364.03
791.512	394.75
791.693	357.88
791.874	331.26
792.054	349.69
792.235	331.26
792.416	312.83
792.597	300.54
792.778	351.74
792.958	402.94
793.139	333.31
793.32	321.02
793.5	353.79
793.681	288.25
793.862	378.36
794.042	247.29
794.223	314.88
794.404	288.25
794.584	265.72
794.765	368.12
794.945	325.12
795.126	253.44
795.306	339.45
795.487	251.39
795.667	310.78
795.848	353.79
796.028	265.72
796.209	374.27
796.389	249.34
796.57	265.72
796.75	280.06
796.93	253.44
797.111	232.96
797.291	232.96
797.471	271.87
797.652	306.68
797.832	249.34
798.012	318.97
798.192	259.58
798.373	239.1
798.553	308.73
798.733	284.16
798.913	214.52
799.093	220.67
799.274	194.05
799.454	218.62
799.634	218.62
799.814	294.4
799.994	308.73
800.174	259.58
800.354	282.11
800.534	265.72
800.714	269.82
800.894	214.52
801.074	228.86
801.254	257.53
801.434	273.92
801.614	142.85
801.794	222.72
801.974	790
802.154	298.49
802.334	200.19
802.514	249.34
802.693	159.23
802.873	202.24
803.053	247.29
803.233	187.9
803.413	206.33
803.592	263.68
803.772	208.38
803.952	167.42
804.131	224.76
804.311	220.67
804.491	232.96
804.67	161.28
804.85	247.29
805.03	177.66
805.209	312.83
805.389	196.09
805.568	175.61
805.748	179.71
805.928	189.95
806.107	183.81
806.287	230.91
806.466	247.29
806.646	206.33
806.825	185.85
807.004	222.72
807.184	167.42
807.363	206.33
807.543	243.2
807.722	112.13
807.901	312.83
808.081	294.4
808.26	153.09
808.439	173.57
808.619	210.43
808.798	159.23
808.977	192
809.156	196.09
809.336	157.18
809.515	132.61
809.694	220.67
809.873	95.74
810.052	210.43
810.231	124.41
810.411	122.37
810.59	214.52
810.769	159.23
810.948	140.8
811.127	136.7
811.306	159.23
811.485	142.85
811.664	157.18
811.843	114.17
812.022	196.09
812.201	142.85
812.38	269.82
812.559	230.91
812.737	140.8
812.916	146.94
813.095	224.76
813.274	237.05
813.453	132.61
813.632	214.52
813.811	165.37
813.989	26.11
814.168	167.42
814.347	181.76
814.526	130.56
814.704	177.66
814.883	214.52
815.062	77.31
815.24	140.8
815.419	140.8
815.598	134.65
815.776	142.85
815.955	146.94
816.133	153.09
816.312	165.37
816.49	136.7
816.669	108.03
816.847	110.08
817.026	198.14
817.204	95.74
817.383	177.66
817.561	87.55
817.74	148.99
817.918	136.7
818.097	87.55
818.275	138.75
818.453	155.13
818.632	103.93
818.81	120.32
818.988	110.08
819.167	103.93
819.345	116.22
819.523	52.74
819.701	126.46
819.879	142.85
820.058	151.04
820.236	30.21
820.414	73.21
820.592	177.66
820.77	103.93
820.948	56.83
821.127	13.82
821.305	148.99
821.483	155.13
821.661	146.94
821.839	134.65
822.017	52.74
822.195	136.7
822.373	103.93
822.551	140.8
822.729	122.37
822.907	167.42
823.085	87.55
823.262	132.61
823.44	124.41
823.618	87.55
823.796	108.03
823.974	112.13
824.152	116.22
824.329	36.35
824.507	110.08
824.685	101.89
824.863	69.12
825.04	62.98
825.218	114.17
825.396	120.32
825.574	183.81
825.751	108.03
825.929	132.61
826.107	93.69
826.284	99.84
826.462	46.59
826.639	-6.66
826.817	42.5
826.994	142.85
827.172	54.78
827.349	103.93
827.527	142.85
827.704	134.65
827.882	126.46
828.059	118.27
828.237	103.93
828.414	159.23
828.591	73.21
828.769	128.51
828.946	116.22
829.124	38.4
829.301	75.26
829.478	56.83
829.655	91.65
829.833	112.13
830.01	50.69
830.187	69.12
830.364	44.54
830.542	91.65
830.719	108.03
830.896	85.5
831.073	151.04
831.25	105.98
831.427	142.85
831.604	83.45
831.782	79.36
831.959	148.99
832.136	83.45
832.313	58.88
832.49	77.31
832.667	169.47
832.844	54.78
833.021	85.5
833.198	91.65
833.374	75.26
833.551	62.98
833.728	79.36
833.905	71.17
834.082	19.97
834.259	73.21
834.436	126.46
834.612	75.26
834.789	77.31
834.966	67.07
835.143	79.36
835.319	65.02
835.496	58.88
835.673	108.03
835.85	44.54
836.026	85.5
836.203	85.5
836.38	32.26
836.556	124.41
836.733	77.31
836.909	77.31
837.086	157.18
837.262	48.64
837.439	50.69
837.616	93.69
837.792	3.58
837.968	75.26
838.145	-47.62
838.321	85.5
838.498	50.69
838.674	71.17
838.851	77.31
839.027	83.45
839.203	75.26
839.38	73.21
839.556	3.58
839.732	124.41
839.909	77.31
840.085	99.84
840.261	103.93
840.437	67.07
840.614	-25.09
840.79	71.17
840.966	95.74
841.142	118.27
841.318	-16.9
841.494	1.54
841.671	50.69
841.847	83.45
842.023	32.26
842.199	50.69
842.375	75.26
842.551	-14.85
842.727	13.82
842.903	77.31
843.079	-45.57
843.255	11.78
843.431	-2.56
843.607	50.69
843.783	5.63
843.959	60.93
844.134	22.02
844.31	42.5
844.486	24.06
844.662	58.88
844.838	108.03
845.013	130.56
845.189	30.21
845.365	83.45
845.541	46.59
845.716	9.73
845.892	36.35
846.068	67.07
846.244	-12.8
846.419	48.64
846.595	1.54
846.77	67.07
846.946	54.78
847.122	60.93
847.297	9.73
847.473	116.22
847.648	13.82
847.824	50.69
847.999	26.11
848.175	50.69
848.35	17.92
848.526	83.45
848.701	73.21
848.876	58.88
849.052	-12.8
849.227	52.74
849.403	87.55
849.578	-35.33
849.753	34.3
849.929	5.63
850.104	46.59
850.279	22.02
850.454	46.59
850.63	110.08
850.805	87.55
850.98	42.5
851.155	38.4
851.33	58.88
851.505	7.68
851.681	99.84
851.856	-6.66
852.031	118.27
852.206	24.06
852.381	134.65
852.556	22.02
852.731	44.54
852.906	32.26
853.081	38.4
853.256	-2.56
853.431	54.78
853.606	-29.18
853.781	48.64
853.956	-2.56
854.131	15.87
854.305	-33.28
854.48	30.21
854.655	58.88
854.83	75.26
855.005	36.35
855.18	26.11
855.354	-33.28
855.529	19.97
855.704	58.88
855.879	91.65
856.053	9.73
856.228	99.84
856.403	11.78
856.577	24.06
856.752	-29.18
856.926	11.78
857.101	60.93
857.276	19.97
857.45	-0.51
857.625	24.06
857.799	46.59
857.974	9.73
858.148	-16.9
858.323	-18.94
858.497	-12.8
858.672	3.58
858.846	56.83
859.02	11.78
859.195	40.45
859.369	52.74
859.543	1.54
859.718	44.54
859.892	48.64
860.066	50.69
860.241	-12.8
860.415	9.73
860.589	13.82
860.763	26.11
860.938	-45.57
861.112	22.02
861.286	-43.52
861.46	65.02
861.634	48.64
861.808	87.55
861.982	32.26
862.157	7.68
862.331	56.83
862.505	-10.75
862.679	17.92
862.853	40.45
863.027	-84.48
863.201	69.12
863.375	-18.94
863.549	5.63
863.722	75.26
863.896	19.97
864.07	17.92
864.244	15.87
864.418	3.58
864.592	34.3
864.766	62.98
864.939	11.78
865.113	-25.09
865.287	-25.09
865.461	9.73
865.634	-49.66
865.808	-2.56
865.982	30.21
866.156	-27.14
866.329	-37.38
866.503	46.59
866.676	48.64
866.85	77.31
867.024	60.93
867.197	58.88
867.371	71.17
867.544	81.41
867.718	-37.38
867.891	-8.7
868.065	-6.66
868.238	-61.95
868.412	75.26
868.585	40.45
868.759	26.11
868.932	3.58
869.105	44.54
869.279	7.68
869.452	-61.95
869.625	34.3
869.799	3.58
869.972	-47.62
870.145	87.55
870.319	22.02
870.492	-4.61
870.665	-2.56
870.838	65.02
871.011	42.5
871.185	42.5
871.358	-35.33
871.531	140.8
871.704	13.82
871.877	75.26
872.05	34.3
872.223	-35.33
872.396	-10.75
872.569	17.92
872.742	-43.52
872.915	15.87
873.088	48.64
873.261	40.45
873.434	11.78
873.607	17.92
873.78	-6.66
873.953	-2.56
874.126	11.78
874.299	3.58
874.471	52.74
874.644	42.5
874.817	-72.19
874.99	28.16
875.163	-39.42
875.335	9.73
875.508	-37.38
875.681	24.06
875.853	-37.38
876.026	48.64
876.199	65.02
876.371	60.93
876.544	15.87
876.717	17.92
876.889	-82.43
877.062	-6.66
877.234	-45.57
877.407	56.83
877.579	9.73
877.752	9.73
877.924	30.21
878.097	46.59
878.269	-4.61
878.442	36.35
878.614	30.21
878.786	-12.8
878.959	112.13
879.131	17.92
879.303	22.02
879.476	-6.66
879.648	73.21
879.82	17.92
879.993	-55.81
880.165	-20.99
880.337	-25.09
880.509	71.17
880.681	-18.94
880.854	11.78
881.026	13.82
881.198	54.78
881.37	7.68
881.542	5.63
881.714	-23.04
881.886	3.58
882.058	-29.18
882.23	38.4
882.402	-4.61
882.574	-31.23
882.746	30.21
882.918	52.74
883.09	17.92
883.262	17.92
883.434	-23.04
883.606	-41.47
883.778	60.93
883.95	17.92
884.122	11.78
884.293	-25.09
884.465	-43.52
884.637	34.3
884.809	32.26
884.98	3.58
885.152	44.54
885.324	58.88
885.496	50.69
885.667	-27.14
885.839	-27.14
886.011	24.06
886.182	-4.61
886.354	-43.52
886.525	1.54
886.697	28.16
886.869	-47.62
887.04	50.69
887.212	42.5
887.383	38.4
887.555	-10.75
887.726	-29.18
887.897	-20.99
888.069	15.87
888.24	5.63
888.412	36.35
888.583	-35.33
888.754	-0.51
888.926	-20.99
889.097	34.3
889.268	-10.75
889.44	40.45
889.611	13.82
889.782	-31.23
889.953	-6.66
890.125	36.35
890.296	46.59
890.467	-66.05
890.638	-72.19
890.809	17.92
890.98	75.26
891.151	42.5
891.323	30.21
891.494	19.97
891.665	1.54
891.836	-12.8
892.007	1.54
892.178	91.65
892.349	30.21
892.52	19.97
892.691	-0.51
892.862	83.45
893.032	-51.71
893.203	-18.94
893.374	26.11
893.545	11.78
893.716	28.16
893.887	24.06
894.057	-39.42
894.228	11.78
894.399	52.74
894.57	54.78
894.74	-4.61
894.911	50.69
895.082	9.73
895.253	-20.99
895.423	-51.71
895.594	26.11
895.764	-37.38
895.935	26.11
896.106	32.26
896.276	-18.94
896.447	-111.1
896.617	32.26
896.788	36.35
896.958	9.73
897.129	-20.99
897.299	-12.8
897.47	42.5
897.64	-20.99
897.81	26.11
897.981	-35.33
898.151	-6.66
898.322	9.73
898.492	83.45
898.662	30.21
898.832	-23.04
899.003	5.63
899.173	-29.18
899.343	22.02
899.513	30.21
