Data from USB4F104151__30__13-10-48-724.txt Node

Date: Fri Mar 14 13:10:48 EDT 2025
User: louis
Spectrometer: USB4F10415
Trigger mode: 4
Integration Time (sec): 2.000000E-2
Scans to average: 1
Electric dark correction enabled: true
Nonlinearity correction enabled: false
Boxcar width: 0
XAxis mode: Wavelengths
Number of Pixels in Spectrum: 3648
>>>>>Begin Spectral Data<<<<<
178.204	-125.1
178.424	-125.1
178.644	-125.1
178.864	-22.7
179.084	-123.05
179.304	-24.75
179.524	16.21
179.744	40.79
179.964	-2.22
180.184	-18.6
180.404	20.31
180.624	-32.94
180.844	14.17
181.064	-55.47
181.283	24.4
181.503	-26.79
181.723	44.88
181.943	34.64
182.163	36.69
182.383	38.74
182.602	77.65
182.822	110.42
183.042	57.17
183.262	-6.31
183.482	-2.22
183.701	-4.27
183.921	14.17
184.141	26.45
184.361	85.84
184.58	38.74
184.8	22.36
185.02	55.12
185.239	91.99
185.459	38.74
185.679	55.12
185.898	-10.41
186.118	57.17
186.338	8.02
186.557	83.8
186.777	-14.51
186.997	-30.89
187.216	20.31
187.436	112.47
187.655	118.61
187.875	-4.27
188.095	51.03
188.314	38.74
188.534	98.13
188.753	48.98
188.973	40.79
189.192	65.36
189.412	1.88
189.631	30.55
189.851	57.17
190.07	65.36
190.29	-4.27
190.509	85.84
190.729	112.47
190.948	71.51
191.168	112.47
191.387	104.28
191.607	38.74
191.826	26.45
192.045	34.64
192.265	32.6
192.484	5.97
192.704	1.88
192.923	71.51
193.142	53.08
193.362	48.98
193.581	57.17
193.8	20.31
194.02	83.8
194.239	40.79
194.458	67.41
194.678	83.8
194.897	48.98
195.116	63.32
195.335	108.37
195.555	5.97
195.774	65.36
195.993	40.79
196.212	96.08
196.432	83.8
196.651	102.23
196.87	42.84
197.089	94.04
197.308	71.51
197.528	132.95
197.747	63.32
197.966	96.08
198.185	55.12
198.404	57.17
198.623	69.46
198.842	-6.31
199.062	30.55
199.281	24.4
199.5	16.21
199.719	-2.22
199.938	104.28
200.157	61.27
200.376	48.98
200.595	110.42
200.814	63.32
201.033	26.45
201.252	44.88
201.471	-8.36
201.69	87.89
201.909	22.36
202.128	48.98
202.347	24.4
202.566	61.27
202.785	42.84
203.004	10.07
203.223	141.14
203.442	87.89
203.661	-28.84
203.879	8.02
204.098	14.17
204.317	42.84
204.536	94.04
204.755	-8.36
204.974	32.6
205.193	89.94
205.411	96.08
205.63	30.55
205.849	18.26
206.068	73.56
206.287	63.32
206.505	85.84
206.724	116.56
206.943	48.98
207.162	79.7
207.381	65.36
207.599	81.75
207.818	16.21
208.037	42.84
208.255	3.93
208.474	110.42
208.693	67.41
208.911	51.03
209.13	5.97
209.349	55.12
209.567	51.03
209.786	116.56
210.005	63.32
210.223	30.55
210.442	48.98
210.661	63.32
210.879	55.12
211.098	132.95
211.316	34.64
211.535	122.71
211.753	65.36
211.972	12.12
212.191	42.84
212.409	38.74
212.628	71.51
212.846	36.69
213.065	22.36
213.283	126.8
213.502	67.41
213.72	137.04
213.938	5.97
214.157	55.12
214.375	87.89
214.594	-2.22
214.812	5.97
215.031	83.8
215.249	79.7
215.467	-8.36
215.686	65.36
215.904	73.56
216.122	-8.36
216.341	24.4
216.559	112.47
216.778	96.08
216.996	12.12
217.214	8.02
217.432	40.79
217.651	71.51
217.869	-28.84
218.087	-6.31
218.306	10.07
218.524	12.12
218.742	53.08
218.96	100.18
219.179	22.36
219.397	-8.36
219.615	118.61
219.833	63.32
220.051	8.02
220.27	85.84
220.488	55.12
220.706	100.18
220.924	26.45
221.142	79.7
221.36	57.17
221.578	34.64
221.796	83.8
222.015	89.94
222.233	61.27
222.451	30.55
222.669	-8.36
222.887	48.98
223.105	40.79
223.323	77.65
223.541	18.26
223.759	118.61
223.977	-6.31
224.195	153.43
224.413	16.21
224.631	61.27
224.849	91.99
225.067	30.55
225.285	18.26
225.503	22.36
225.721	-37.03
225.939	100.18
226.157	1.88
226.375	157.52
226.592	106.32
226.81	71.51
227.028	79.7
227.246	104.28
227.464	16.21
227.682	-2.22
227.9	-20.65
228.117	87.89
228.335	22.36
228.553	71.51
228.771	53.08
228.989	63.32
229.206	3.93
229.424	8.02
229.642	59.22
229.86	3.93
230.077	69.46
230.295	108.37
230.513	91.99
230.731	85.84
230.948	-0.17
231.166	-22.7
231.384	44.88
231.601	85.84
231.819	26.45
232.037	79.7
232.254	67.41
232.472	5.97
232.689	10.07
232.907	24.4
233.125	26.45
233.342	46.93
233.56	24.4
233.777	79.7
233.995	-18.6
234.213	53.08
234.43	46.93
234.648	20.31
234.865	8.02
235.083	67.41
235.3	-57.51
235.518	-4.27
235.735	77.65
235.953	8.02
236.17	81.75
236.388	32.6
236.605	91.99
236.822	75.6
237.04	96.08
237.257	8.02
237.475	1.88
237.692	69.46
237.909	71.51
238.127	120.66
238.344	24.4
238.562	16.21
238.779	32.6
238.996	73.56
239.214	40.79
239.431	32.6
239.648	-4.27
239.865	91.99
240.083	85.84
240.3	85.84
240.517	10.07
240.735	98.13
240.952	79.7
241.169	34.64
241.386	32.6
241.603	34.64
241.821	48.98
242.038	73.56
242.255	57.17
242.472	44.88
242.689	100.18
242.907	42.84
243.124	28.5
243.341	48.98
243.558	85.84
243.775	28.5
243.992	-73.9
244.209	87.89
244.426	163.67
244.643	51.03
244.86	-43.18
245.078	-0.17
245.295	114.52
245.512	69.46
245.729	3.93
245.946	34.64
246.163	32.6
246.38	-8.36
246.597	51.03
246.814	44.88
247.031	1.88
247.248	96.08
247.464	69.46
247.681	83.8
247.898	89.94
248.115	83.8
248.332	-10.41
248.549	79.7
248.766	91.99
248.983	96.08
249.2	30.55
249.417	5.97
249.633	-30.89
249.85	106.32
250.067	67.41
250.284	71.51
250.501	63.32
250.717	96.08
250.934	98.13
251.151	30.55
251.368	69.46
251.585	-39.08
251.801	-43.18
252.018	42.84
252.235	18.26
252.451	14.17
252.668	59.22
252.885	110.42
253.102	102.23
253.318	81.75
253.535	-20.65
253.752	3.93
253.968	10.07
254.185	106.32
254.401	65.36
254.618	46.93
254.835	63.32
255.051	87.89
255.268	1.88
255.484	124.76
255.701	67.41
255.917	-14.51
256.134	26.45
256.351	118.61
256.567	-39.08
256.784	96.08
257	34.64
257.217	87.89
257.433	71.51
257.65	-2.22
257.866	40.79
258.082	73.56
258.299	-24.75
258.515	-18.6
258.732	20.31
258.948	81.75
259.165	67.41
259.381	18.26
259.597	46.93
259.814	1.88
260.03	5.97
260.246	1.88
260.463	75.6
260.679	16.21
260.895	-2.22
261.112	106.32
261.328	89.94
261.544	10.07
261.761	65.36
261.977	30.55
262.193	-6.31
262.409	100.18
262.626	96.08
262.842	55.12
263.058	-49.32
263.274	79.7
263.49	102.23
263.707	83.8
263.923	-49.32
264.139	24.4
264.355	22.36
264.571	171.86
264.787	34.64
265.004	96.08
265.22	63.32
265.436	30.55
265.652	30.55
265.868	79.7
266.084	87.89
266.3	120.66
266.516	-30.89
266.732	59.22
266.948	57.17
267.164	32.6
267.38	16.21
267.596	53.08
267.812	34.64
268.028	8.02
268.244	46.93
268.46	59.22
268.676	79.7
268.892	120.66
269.108	81.75
269.324	59.22
269.54	24.4
269.756	153.43
269.972	-22.7
270.188	57.17
270.403	-2.22
270.619	48.98
270.835	55.12
271.051	69.46
271.267	61.27
271.483	8.02
271.698	69.46
271.914	24.4
272.13	8.02
272.346	67.41
272.562	38.74
272.777	48.98
272.993	67.41
273.209	61.27
273.425	53.08
273.64	-0.17
273.856	143.19
274.072	12.12
274.287	-14.51
274.503	128.85
274.719	94.04
274.934	42.84
275.15	18.26
275.366	1.88
275.581	36.69
275.797	63.32
276.012	-8.36
276.228	85.84
276.444	48.98
276.659	104.28
276.875	-10.41
277.09	83.8
277.306	65.36
277.521	85.84
277.737	51.03
277.952	87.89
278.168	61.27
278.383	5.97
278.599	-32.94
278.814	30.55
279.03	71.51
279.245	59.22
279.461	57.17
279.676	48.98
279.892	40.79
280.107	44.88
280.322	73.56
280.538	89.94
280.753	57.17
280.969	36.69
281.184	73.56
281.399	22.36
281.615	38.74
281.83	14.17
282.045	16.21
282.26	-0.17
282.476	14.17
282.691	5.97
282.906	73.56
283.122	-12.46
283.337	40.79
283.552	98.13
283.767	55.12
283.983	38.74
284.198	102.23
284.413	157.52
284.628	79.7
284.843	55.12
285.058	71.51
285.274	30.55
285.489	-8.36
285.704	63.32
285.919	-24.75
286.134	16.21
286.349	12.12
286.564	51.03
286.779	57.17
286.995	1.88
287.21	34.64
287.425	120.66
287.64	71.51
287.855	48.98
288.07	24.4
288.285	98.13
288.5	38.74
288.715	135
288.93	-14.51
289.145	51.03
289.36	59.22
289.575	20.31
289.79	77.65
290.004	67.41
290.219	53.08
290.434	30.55
290.649	20.31
290.864	14.17
291.079	40.79
291.294	5.97
291.509	77.65
291.724	77.65
291.938	3.93
292.153	18.26
292.368	102.23
292.583	81.75
292.798	38.74
293.012	79.7
293.227	22.36
293.442	32.6
293.657	85.84
293.871	120.66
294.086	55.12
294.301	132.95
294.516	53.08
294.73	112.47
294.945	-63.66
295.16	40.79
295.374	63.32
295.589	89.94
295.804	1.88
296.018	87.89
296.233	100.18
296.447	55.12
296.662	73.56
296.877	71.51
297.091	67.41
297.306	10.07
297.52	34.64
297.735	112.47
297.949	67.41
298.164	55.12
298.378	59.22
298.593	5.97
298.807	48.98
299.022	14.17
299.236	-32.94
299.451	59.22
299.665	32.6
299.88	51.03
300.094	71.51
300.309	69.46
300.523	16.21
300.737	-22.7
300.952	38.74
301.166	98.13
301.381	42.84
301.595	96.08
301.809	14.17
302.024	139.09
302.238	102.23
302.452	51.03
302.667	36.69
302.881	53.08
303.095	44.88
303.309	100.18
303.524	114.52
303.738	26.45
303.952	75.6
304.166	26.45
304.381	-18.6
304.595	89.94
304.809	-10.41
305.023	69.46
305.237	-10.41
305.452	139.09
305.666	3.93
305.88	155.47
306.094	112.47
306.308	63.32
306.522	71.51
306.736	139.09
306.95	51.03
307.164	26.45
307.379	24.4
307.593	75.6
307.807	44.88
308.021	87.89
308.235	34.64
308.449	120.66
308.663	110.42
308.877	94.04
309.091	186.19
309.305	1.88
309.519	10.07
309.733	34.64
309.947	10.07
310.161	55.12
310.374	-2.22
310.588	163.67
310.802	118.61
311.016	16.21
311.23	3.93
311.444	14.17
311.658	151.38
311.872	14.17
312.085	69.46
312.299	59.22
312.513	114.52
312.727	79.7
312.941	16.21
313.154	153.43
313.368	57.17
313.582	18.26
313.796	87.89
314.009	18.26
314.223	34.64
314.437	59.22
314.651	24.4
314.864	114.52
315.078	18.26
315.292	65.36
315.505	28.5
315.719	65.36
315.933	157.52
316.146	57.17
316.36	-16.55
316.573	44.88
316.787	98.13
317.001	42.84
317.214	-57.51
317.428	-2.22
317.641	77.65
317.855	137.04
318.068	63.32
318.282	40.79
318.495	167.76
318.709	89.94
318.922	116.56
319.136	141.14
319.349	87.89
319.563	87.89
319.776	32.6
319.99	16.21
320.203	-0.17
320.417	100.18
320.63	44.88
320.843	132.95
321.057	3.93
321.27	40.79
321.483	114.52
321.697	126.8
321.91	5.97
322.124	89.94
322.337	96.08
322.55	65.36
322.763	30.55
322.977	46.93
323.19	10.07
323.403	1.88
323.617	55.12
323.83	34.64
324.043	30.55
324.256	83.8
324.469	-8.36
324.683	44.88
324.896	85.84
325.109	71.51
325.322	34.64
325.535	83.8
325.748	46.93
325.962	36.69
326.175	98.13
326.388	67.41
326.601	79.7
326.814	71.51
327.027	-16.55
327.24	100.18
327.453	-41.13
327.666	51.03
327.879	112.47
328.092	8.02
328.305	30.55
328.518	48.98
328.731	77.65
328.944	57.17
329.157	75.6
329.37	55.12
329.583	8.02
329.796	94.04
330.009	42.84
330.222	-20.65
330.435	46.93
330.648	67.41
330.861	46.93
331.073	75.6
331.286	137.04
331.499	128.85
331.712	38.74
331.925	75.6
332.138	81.75
332.35	77.65
332.563	79.7
332.776	110.42
332.989	42.84
333.202	71.51
333.414	87.89
333.627	89.94
333.84	26.45
334.053	48.98
334.265	22.36
334.478	-24.75
334.691	145.24
334.903	46.93
335.116	94.04
335.329	61.27
335.541	1.88
335.754	32.6
335.966	-22.7
336.179	48.98
336.392	79.7
336.604	94.04
336.817	79.7
337.029	85.84
337.242	48.98
337.454	89.94
337.667	-0.17
337.88	48.98
338.092	96.08
338.305	137.04
338.517	-8.36
338.729	110.42
338.942	83.8
339.154	-0.17
339.367	-22.7
339.579	73.56
339.792	32.6
340.004	-45.23
340.217	36.69
340.429	24.4
340.641	5.97
340.854	63.32
341.066	1.88
341.278	145.24
341.491	61.27
341.703	26.45
341.915	24.4
342.128	36.69
342.34	71.51
342.552	38.74
342.764	57.17
342.977	79.7
343.189	71.51
343.401	71.51
343.613	77.65
343.826	38.74
344.038	61.27
344.25	96.08
344.462	38.74
344.674	53.08
344.886	10.07
345.099	10.07
345.311	5.97
345.523	59.22
345.735	28.5
345.947	67.41
346.159	42.84
346.371	124.76
346.583	1.88
346.795	147.28
347.007	73.56
347.219	87.89
347.431	38.74
347.643	65.36
347.855	-2.22
348.067	38.74
348.279	40.79
348.491	24.4
348.703	-28.84
348.915	112.47
349.127	96.08
349.339	124.76
349.551	-47.27
349.763	73.56
349.975	71.51
350.187	96.08
350.399	12.12
350.61	42.84
350.822	77.65
351.034	-20.65
351.246	-20.65
351.458	139.09
351.669	51.03
351.881	46.93
352.093	85.84
352.305	69.46
352.517	26.45
352.728	96.08
352.94	126.8
353.152	44.88
353.363	-2.22
353.575	63.32
353.787	122.71
353.999	87.89
354.21	94.04
354.422	104.28
354.633	85.84
354.845	180.05
355.057	63.32
355.268	30.55
355.48	75.6
355.692	89.94
355.903	1.88
356.115	40.79
356.326	-37.03
356.538	30.55
356.749	128.85
356.961	51.03
357.172	100.18
357.384	137.04
357.595	135
357.807	106.32
358.018	30.55
358.23	38.74
358.441	73.56
358.653	122.71
358.864	44.88
359.075	57.17
359.287	22.36
359.498	104.28
359.709	85.84
359.921	24.4
360.132	87.89
360.344	63.32
360.555	79.7
360.766	91.99
360.977	42.84
361.189	85.84
361.4	20.31
361.611	51.03
361.823	112.47
362.034	-24.75
362.245	28.5
362.456	32.6
362.667	63.32
362.879	122.71
363.09	26.45
363.301	67.41
363.512	63.32
363.723	79.7
363.935	128.85
364.146	106.32
364.357	75.6
364.568	96.08
364.779	1.88
364.99	59.22
365.201	59.22
365.412	112.47
365.623	96.08
365.834	51.03
366.045	114.52
366.256	71.51
366.467	106.32
366.678	71.51
366.889	81.75
367.1	102.23
367.311	98.13
367.522	48.98
367.733	85.84
367.944	40.79
368.155	40.79
368.366	83.8
368.577	71.51
368.788	65.36
368.999	114.52
369.209	24.4
369.42	100.18
369.631	106.32
369.842	104.28
370.053	79.7
370.264	73.56
370.474	65.36
370.685	24.4
370.896	32.6
371.107	155.47
371.317	24.4
371.528	79.7
371.739	85.84
371.95	42.84
372.16	34.64
372.371	44.88
372.582	87.89
372.792	79.7
373.003	53.08
373.214	102.23
373.424	96.08
373.635	-8.36
373.846	87.89
374.056	67.41
374.267	51.03
374.477	169.81
374.688	22.36
374.898	79.7
375.109	79.7
375.319	42.84
375.53	63.32
375.74	59.22
375.951	-0.17
376.161	157.52
376.372	83.8
376.582	32.6
376.793	171.86
377.003	81.75
377.214	118.61
377.424	-12.46
377.635	114.52
377.845	110.42
378.055	118.61
378.266	-22.7
378.476	55.12
378.686	28.5
378.897	94.04
379.107	59.22
379.317	69.46
379.528	120.66
379.738	137.04
379.948	44.88
380.158	34.64
380.369	67.41
380.579	94.04
380.789	128.85
380.999	104.28
381.21	85.84
381.42	145.24
381.63	28.5
381.84	108.37
382.05	85.84
382.261	67.41
382.471	26.45
382.681	104.28
382.891	126.8
383.101	79.7
383.311	16.21
383.521	96.08
383.731	67.41
383.941	38.74
384.151	57.17
384.361	8.02
384.571	87.89
384.781	3.93
384.991	22.36
385.201	36.69
385.411	16.21
385.621	38.74
385.831	108.37
386.041	42.84
386.251	10.07
386.461	65.36
386.671	73.56
386.881	-30.89
387.091	79.7
387.301	89.94
387.511	87.89
387.72	61.27
387.93	96.08
388.14	40.79
388.35	75.6
388.56	104.28
388.769	108.37
388.979	85.84
389.189	81.75
389.399	59.22
389.609	61.27
389.818	145.24
390.028	132.95
390.238	139.09
390.447	-4.27
390.657	100.18
390.867	116.56
391.076	57.17
391.286	63.32
391.496	87.89
391.705	137.04
391.915	57.17
392.125	42.84
392.334	77.65
392.544	32.6
392.753	77.65
392.963	89.94
393.172	71.51
393.382	118.61
393.591	145.24
393.801	112.47
394.01	59.22
394.22	63.32
394.429	100.18
394.639	135
394.848	108.37
395.058	83.8
395.267	112.47
395.477	32.6
395.686	61.27
395.895	122.71
396.105	186.19
396.314	143.19
396.524	116.56
396.733	135
396.942	139.09
397.152	26.45
397.361	169.81
397.57	87.89
397.78	96.08
397.989	173.91
398.198	122.71
398.407	104.28
398.617	169.81
398.826	34.64
399.035	100.18
399.244	102.23
399.453	137.04
399.663	96.08
399.872	139.09
400.081	151.38
400.29	155.47
400.499	81.75
400.708	173.91
400.917	178
401.127	145.24
401.336	73.56
401.545	165.71
401.754	214.87
401.963	114.52
402.172	196.43
402.381	141.14
402.59	132.95
402.799	151.38
403.008	124.76
403.217	122.71
403.426	169.81
403.635	87.89
403.844	204.63
404.053	106.32
404.262	98.13
404.471	251.73
404.68	63.32
404.888	237.39
405.097	122.71
405.306	118.61
405.515	196.43
405.724	141.14
405.933	223.06
406.142	178
406.35	186.19
406.559	233.3
406.768	202.58
406.977	255.83
407.185	235.35
407.394	178
407.603	175.95
407.812	264.02
408.02	237.39
408.229	218.96
408.438	218.96
408.646	206.67
408.855	221.01
409.064	257.87
409.272	341.84
409.481	307.02
409.69	280.4
409.898	257.87
410.107	329.55
410.315	444.24
410.524	315.22
410.733	358.22
410.941	386.9
411.15	425.81
411.358	368.46
411.567	458.57
411.775	382.8
411.984	454.48
412.192	390.99
412.401	436.05
412.609	526.16
412.818	548.68
413.026	515.92
413.234	563.02
413.443	489.29
413.651	526.16
413.86	591.69
414.068	634.7
414.276	585.55
414.485	698.19
414.693	642.89
414.901	685.9
415.11	741.19
415.318	726.86
415.526	835.4
415.734	804.68
415.943	870.22
416.151	909.13
416.359	755.53
416.567	919.37
416.776	1013.57
416.984	1013.57
417.192	1009.48
417.4	1027.91
417.608	1001.29
417.817	1070.92
418.025	1161.03
418.233	1183.56
418.441	1158.98
418.649	1279.81
418.857	1343.3
419.065	1294.15
419.273	1259.33
419.481	1398.59
419.689	1517.37
419.897	1554.24
420.105	1582.91
420.313	1554.24
420.521	1582.91
420.729	1619.77
420.937	1746.75
421.145	1742.65
421.353	1865.53
421.561	2072.37
421.769	1980.22
421.977	2185.01
422.185	2068.28
422.393	2238.26
422.601	2357.04
422.809	2375.47
423.017	2379.57
423.224	2488.11
423.432	2574.13
423.64	2617.13
423.848	2697
424.056	2664.24
424.263	2852.65
424.471	2967.34
424.679	3036.97
424.887	3153.7
425.094	3221.28
425.302	3153.7
425.51	3401.51
425.718	3499.81
425.925	3495.71
426.133	3696.41
426.341	3979.03
426.548	4112.15
426.756	4161.3
426.964	3999.51
427.171	4230.93
427.379	4505.36
427.586	4454.16
427.794	4615.95
428.001	4763.4
428.209	4970.25
428.417	4871.95
428.624	5250.82
428.832	5224.2
429.039	5230.34
429.247	5302.02
429.454	5883.64
429.662	6319.86
429.869	5697.28
430.076	6266.61
430.284	6047.48
430.491	6239.99
430.699	6586.1
430.906	6821.61
431.114	6749.93
431.321	6946.54
431.528	7141.1
431.736	7552.74
431.943	8013.53
432.15	7628.51
432.358	7790.3
432.565	8201.94
432.772	8197.85
432.979	8468.18
433.187	8672.98
433.394	8802
433.601	9250.5
433.808	9492.16
434.016	9389.77
434.223	9758.4
434.43	10327.74
434.637	10413.75
434.844	10811.06
435.052	11110.06
435.259	10948.27
435.466	11173.55
435.673	10933.93
435.88	11830.94
436.087	12242.59
436.294	12365.46
436.501	12123.8
436.708	12170.91
436.915	12572.31
437.122	13256.33
437.329	13096.59
437.537	13817.47
437.743	13721.22
437.95	13377.16
438.157	14347.9
438.364	14999.15
438.571	14878.32
438.778	14937.71
438.985	16066.14
439.192	15924.83
439.399	16385.63
439.606	15752.8
439.813	16860.76
440.02	17692.23
440.227	17407.56
440.433	17378.89
440.64	17815.11
440.847	17802.82
441.054	18257.47
441.261	19574.31
441.467	19383.85
441.674	19734.06
441.881	20397.6
442.088	20366.88
442.294	20244
442.501	20598.3
442.708	21071.38
442.914	21896.71
443.121	22783.48
443.328	22461.95
443.534	24069.61
443.741	22914.55
443.948	22672.89
444.154	24430.05
444.361	24356.32
444.568	24346.08
444.774	24796.63
444.981	24823.26
445.187	25490.9
445.394	26502.59
445.6	26342.85
445.807	28734.88
446.013	27428.27
446.22	28106.15
446.426	29285.78
446.633	29654.42
446.839	30586.24
447.046	29146.52
447.252	30586.24
447.459	31327.61
447.665	30881.15
447.871	32232.81
448.078	34053.45
448.284	32241
448.491	32828.77
448.697	34608.45
448.903	34655.56
449.11	34870.59
449.316	34471.24
449.522	34929.98
449.728	36001.07
449.935	36437.29
450.141	36361.51
450.347	37127.45
450.553	36277.55
450.76	36738.34
450.966	37625.11
451.172	37227.81
451.378	38278.41
451.584	37913.87
451.791	38251.79
451.997	38380.81
452.203	39247.1
452.409	39292.16
452.615	39042.31
452.821	37354.78
453.027	37254.43
453.233	39128.32
453.44	37735.7
453.646	37989.65
453.852	38307.08
454.058	38937.86
454.264	37754.13
454.47	38640.9
454.676	37408.03
454.882	38880.52
455.088	35509.56
455.294	36281.64
455.5	37135.65
455.705	37176.61
455.911	35495.22
456.117	35419.45
456.323	34995.52
456.529	32759.14
456.735	34301.26
456.941	33615.19
457.147	32793.95
457.352	32179.56
457.558	31692.15
457.764	31907.18
457.97	31085.95
458.176	30637.44
458.381	30645.63
458.587	28913.05
458.793	29150.62
458.999	27637.17
459.204	29330.84
459.41	28646.82
459.616	27166.13
459.821	27114.94
460.027	26623.42
460.233	26449.35
460.438	25161.17
460.644	25617.87
460.85	24131.05
461.055	23518.7
461.261	23760.36
461.466	21886.47
461.672	21493.26
461.878	22822.39
462.083	21374.48
462.289	20907.54
462.494	20524.57
462.7	19762.73
462.905	19029.55
463.111	19811.88
463.316	20002.34
463.522	19310.13
463.727	19476.01
463.932	19678.76
464.138	19256.88
464.343	19465.77
464.549	18716.22
464.754	19363.37
464.959	19183.15
465.165	18888.25
465.37	18290.24
465.575	17905.22
465.781	18529.85
465.986	18677.3
466.191	17876.55
466.397	17454.67
466.602	16768.6
466.807	17591.88
467.012	17544.78
467.218	17299.02
467.423	17270.35
467.628	17073.74
467.833	17899.08
468.038	17219.15
468.244	16784.98
468.449	17393.23
468.654	17053.27
468.859	16817.75
469.064	16797.27
469.269	16098.91
469.474	16088.67
469.679	16504.41
469.885	16270.94
470.09	16395.87
470.295	16117.34
470.5	15797.86
470.705	15949.41
470.91	15572.58
471.115	15461.99
471.32	15548.01
471.525	15599.21
471.73	15279.72
471.935	15126.13
472.139	14368.38
472.344	14671.48
472.549	14681.72
472.754	14743.16
472.959	14235.26
473.164	13919.87
473.369	13506.18
473.574	14212.73
473.778	14202.49
473.983	14096
474.188	13796.99
474.393	13530.76
474.598	13444.74
474.802	13211.28
475.007	13131.4
475.212	13282.95
475.417	12646.04
475.621	12664.47
475.826	12777.11
476.031	12424.86
476.235	12256.92
476.44	12390.04
476.645	12281.5
476.849	12261.02
477.054	11947.68
477.259	12023.45
477.463	11736.74
477.668	11497.13
477.872	11695.78
478.077	11499.17
478.282	11216.55
478.486	11191.98
478.691	11024.05
478.895	11054.76
479.1	11093.68
479.304	11189.93
479.509	10479.29
479.713	10976.94
479.918	10641.07
480.122	10475.19
480.326	10577.59
480.531	10788.53
480.735	10407.61
480.94	10550.96
481.144	10856.11
481.348	10352.31
481.553	10370.74
481.757	10223.29
481.961	10176.19
482.166	10215.1
482.37	10380.98
482.574	10114.75
482.778	10000.06
482.983	10221.24
483.187	10278.58
483.391	10436.28
483.595	10184.38
483.8	10079.93
484.004	10122.94
484.208	10018.49
484.412	10116.79
484.616	10198.71
484.821	10211
485.025	10000.06
485.229	10057.4
485.433	10122.94
485.637	10131.13
485.841	10020.54
486.045	10145.47
486.249	10034.88
486.453	9940.67
486.657	10065.6
486.861	10475.19
487.065	9940.67
487.269	10235.58
487.473	10155.71
487.677	10116.79
487.881	10264.25
488.085	10139.32
488.289	10317.5
488.493	10139.32
488.697	10356.41
488.901	10227.39
489.105	10211
489.309	10303.16
489.512	10290.87
489.716	10372.79
489.92	10340.02
490.124	10190.52
490.328	10645.17
490.531	10094.27
490.735	10487.48
490.939	10399.41
491.143	10344.12
491.346	10524.34
491.55	10528.44
491.754	10606.26
491.958	10387.13
492.161	10536.63
492.365	10553.01
492.569	10620.6
492.772	10598.07
492.976	10788.53
493.18	10884.78
493.383	10987.18
493.587	10876.59
493.79	11153.07
493.994	11007.66
494.197	11241.13
494.401	11292.33
494.605	11208.36
494.808	11396.78
495.012	11464.36
495.215	11617.96
495.419	11417.26
495.622	11370.15
495.825	11853.47
496.029	11714.21
496.232	12072.61
496.436	11622.05
496.639	12326.55
496.843	12273.31
497.046	12564.12
497.249	12519.06
497.453	12662.42
497.656	12818.07
497.859	13000.33
498.063	12803.73
498.266	13244.04
498.469	13166.22
498.673	13330.06
498.876	13602.44
499.079	13530.76
499.282	13584.01
499.485	14151.29
499.689	13801.09
499.892	14124.67
500.095	14321.27
500.298	14769.78
500.501	14251.64
500.705	14616.18
500.908	14999.15
501.111	14947.95
501.314	15257.2
501.517	15341.16
501.72	15480.43
501.923	15474.28
502.126	15959.65
502.329	16078.43
502.532	16178.78
502.735	16221.79
502.938	16647.77
503.141	16682.58
503.344	16909.91
503.547	17249.87
503.75	17243.73
503.953	17497.67
504.156	17686.09
504.359	17823.3
504.562	17901.12
504.765	18462.27
504.968	18519.61
505.17	18626.11
505.373	18646.58
505.576	18957.88
505.779	19330.61
505.982	19293.74
506.185	20020.77
506.387	20127.27
506.59	19887.65
506.793	20375.07
506.996	20172.32
507.198	20799
507.401	20471.32
507.604	21130.77
507.807	21200.4
508.009	21423.63
508.212	21761.55
508.415	21835.27
508.617	22181.38
508.82	22140.42
509.022	22402.56
509.225	22818.3
509.428	22857.21
509.63	22699.51
509.833	23115.25
510.035	23864.81
510.238	23766.51
510.44	23975.4
510.643	24499.68
510.845	24550.88
511.048	24442.34
511.25	24935.9
511.453	25089.49
511.655	26043.85
511.858	25394.64
512.06	25918.92
512.262	26209.73
512.465	26136.01
512.667	26551.74
512.87	26781.12
513.072	27153.85
513.274	27139.51
513.477	27721.13
513.679	27835.82
513.881	28013.99
514.084	28663.2
514.286	28681.63
514.488	28562.85
514.69	29046.17
514.893	29392.28
515.095	29642.13
515.297	30098.83
515.499	29562.26
515.701	30487.94
515.904	30850.43
516.106	31141.24
516.308	31407.48
516.51	31774.06
516.712	31821.17
516.914	32134.51
517.116	32585.06
517.318	32623.97
517.52	33047.9
517.722	32912.74
517.925	33434.97
518.127	33701.2
518.329	34075.98
518.531	34086.22
518.733	34673.99
518.935	34852.16
519.136	34700.61
519.338	35409.21
519.54	35431.74
519.742	35472.7
519.944	35542.33
520.146	36818.21
520.348	36807.97
520.55	36801.83
520.752	37076.26
520.954	37825.81
521.155	37197.09
521.357	37950.74
521.559	38118.67
521.761	38528.27
521.963	38593.8
522.164	39085.31
522.366	39161.09
522.568	39189.76
522.77	39576.83
522.971	40164.59
523.173	39634.17
523.375	40338.67
523.576	40645.87
523.778	40500.46
523.98	40811.75
524.181	41149.67
524.383	41051.36
524.584	41704.66
524.786	41628.89
524.988	41561.31
525.189	42349.78
525.391	42048.72
525.592	42607.82
525.794	42665.16
525.995	42763.46
526.197	42910.92
526.398	42695.88
526.6	42890.44
526.801	43312.32
527.003	43408.57
527.204	43709.63
527.406	44084.4
527.607	43918.52
527.808	44381.36
528.01	43560.12
528.211	43988.15
528.412	44936.36
528.614	44858.54
528.815	44913.83
529.016	44772.52
529.218	44506.29
529.419	45120.68
529.62	45137.06
529.822	45255.84
530.023	45073.57
530.224	45038.76
530.425	45057.19
530.626	44848.3
530.828	45022.37
531.029	46083.22
531.23	45546.65
531.431	45454.5
531.632	45601.95
531.833	45794.46
532.035	45937.82
532.236	45683.87
532.437	46029.97
532.638	45624.48
532.839	46353.55
533.04	46042.26
533.241	45556.89
533.442	46361.75
533.643	46220.44
533.844	46478.48
534.045	46353.55
534.246	46070.93
534.447	46748.81
534.648	46230.68
534.849	46398.61
535.05	46363.79
535.251	46554.25
535.451	45675.68
535.652	45890.71
535.853	46197.91
536.054	46376.08
536.255	46625.93
536.456	45616.29
536.657	46978.18
536.857	46212.24
537.058	46072.98
537.259	46412.95
537.46	46404.75
537.66	45800.6
537.861	46570.64
538.062	46429.33
538.263	46509.2
538.463	45780.12
538.664	45909.14
538.865	46212.24
539.065	46492.82
539.266	46021.78
539.466	46496.91
539.667	46058.65
539.868	46361.75
540.068	46075.03
540.269	46132.37
540.469	46101.65
540.67	45911.19
540.87	46138.52
541.071	46044.31
541.271	46093.46
541.472	45872.28
541.672	45737.12
541.873	45882.52
542.073	45450.4
542.274	46455.95
542.474	45874.33
542.675	45571.23
542.875	46161.04
543.075	46097.56
543.276	45485.22
543.476	46115.99
543.676	45978.78
543.877	46171.28
544.077	46093.46
544.277	46070.93
544.478	45999.26
544.678	45751.45
544.878	46019.74
545.078	45976.73
545.279	45323.43
545.479	45948.06
545.679	45894.81
545.879	45825.18
546.079	45862.04
546.28	45706.4
546.48	45012.13
546.68	45663.39
546.88	46240.92
547.08	46038.17
547.28	45644.96
547.48	45141.16
547.68	45917.34
547.88	45509.79
548.081	45694.11
548.281	45712.54
548.481	45206.69
548.681	46142.61
548.881	45444.26
549.081	45581.47
549.28	45690.01
549.48	45866.14
549.68	45702.3
549.88	46451.86
550.08	45649.05
550.28	45577.37
550.48	45667.48
550.68	45976.73
550.88	45630.62
551.08	45298.85
551.279	45796.51
551.479	45309.09
551.679	45405.34
551.879	45253.79
552.079	45345.95
552.278	45116.58
552.478	45460.64
552.678	45372.58
552.878	45857.95
553.077	45470.88
553.277	45089.96
553.477	45735.07
553.676	45216.93
553.876	45587.61
554.076	45042.85
554.275	45296.8
554.475	44424.37
554.674	45554.85
554.874	45237.41
555.074	44887.21
555.273	45042.85
555.473	45280.42
555.672	44745.9
555.872	44917.93
556.071	45323.43
556.271	44909.74
556.47	44674.22
556.67	44684.46
556.869	44649.64
557.068	44717.23
557.268	44399.79
557.467	44620.97
557.667	44563.63
557.866	44602.54
558.065	44528.81
558.265	44426.42
558.464	44268.72
558.663	44735.66
558.863	44149.94
559.062	45044.9
559.261	44197.04
559.461	44274.87
559.66	44149.94
559.859	43906.23
560.058	43730.11
560.258	44012.73
560.457	43650.24
560.656	44053.69
560.855	43738.3
561.054	44217.52
561.253	43117.76
561.453	43695.29
561.652	43570.36
561.851	43588.8
562.05	43340.99
562.249	43574.46
562.448	43435.2
562.647	43478.21
562.846	43156.67
563.045	43314.37
563.244	42796.23
563.443	43261.12
563.642	42218.71
563.841	43005.13
564.04	42652.87
564.239	43148.48
564.438	42284.24
564.637	42865.86
564.836	42777.8
565.035	42489.04
565.234	42611.92
565.432	42323.15
565.631	42245.33
565.83	42470.61
566.029	41845.97
566.228	41897.17
566.427	41952.47
566.625	42075.35
566.824	41483.48
567.023	41895.13
567.222	41268.45
567.42	41813.21
567.619	41700.57
567.818	41366.75
568.016	41460.96
568.215	41610.46
568.414	41299.17
568.612	41362.65
568.811	41245.92
569.01	40840.42
569.208	40572.14
569.407	40862.95
569.605	40807.65
569.804	40908.01
570.002	40289.52
570.201	40740.07
570.4	40287.47
570.598	40107.25
570.797	40060.15
570.995	40269.04
571.193	39718.14
571.392	40588.52
571.59	39814.39
571.789	39711.99
571.987	39654.65
572.186	39716.09
572.384	39558.39
572.582	39718.14
572.781	39529.72
572.979	39042.31
573.177	39349.5
573.376	39548.15
573.574	38741.25
573.772	39030.02
573.971	38718.73
574.169	38528.27
574.367	38485.26
574.565	38649.1
574.763	38479.11
574.962	38513.93
575.16	38190.35
575.358	38530.31
575.556	38106.38
575.754	38653.19
575.952	37909.78
576.151	38182.16
576.349	37729.56
576.547	37930.26
576.745	37692.69
576.943	37702.93
577.141	37618.97
577.339	37418.27
577.537	37279
577.735	37057.82
577.933	37088.54
578.131	37217.57
578.329	36605.22
578.527	36826.4
578.725	36570.41
578.923	37041.44
579.121	36605.22
579.319	36740.39
579.516	36738.34
579.714	36611.37
579.912	36490.54
580.11	36422.95
580.308	36425
580.506	36445.48
580.704	35626.29
580.901	36062.51
581.099	36085.04
581.297	35456.31
581.495	35681.59
581.692	36099.37
581.89	35542.33
582.088	35446.07
582.285	35249.47
582.483	35689.78
582.681	35085.63
582.878	35292.47
583.076	34921.79
583.274	35009.86
583.471	34596.17
583.669	34809.15
583.866	34331.98
584.064	34624.84
584.262	34321.74
584.459	34755.91
584.657	34096.46
584.854	34485.58
585.052	33586.52
585.249	34166.09
585.447	34131.28
585.644	33699.16
585.841	33951.06
586.039	34311.5
586.236	33465.69
586.434	33543.51
586.631	33477.97
586.828	33801.55
587.026	33480.02
587.223	33348.95
587.42	33140.06
587.618	33322.33
587.815	32847.2
588.012	32955.74
588.21	32732.51
588.407	32877.92
588.604	32916.83
588.801	32445.8
588.999	32394.6
589.196	32349.54
589.393	32306.54
589.59	32007.53
589.787	31892.85
589.984	31950.19
590.182	31915.37
590.379	32030.06
590.576	31526.26
590.773	31804.78
590.97	31542.64
591.167	31372.66
591.364	31319.42
591.561	31456.63
591.758	31221.11
591.955	31085.95
592.152	31186.3
592.349	30948.73
592.546	31034.75
592.743	31001.98
592.94	30631.3
593.137	30596.48
593.334	31083.9
593.531	30229.9
593.727	30526.85
593.924	30367.11
594.121	30172.55
594.318	30412.17
594.515	29687.18
594.712	30133.64
594.908	29568.4
595.105	30051.72
595.302	29732.24
595.499	29894.03
595.696	29617.55
595.892	29396.37
596.089	29625.75
596.286	29498.77
596.482	29074.84
596.679	29388.18
596.876	29330.84
597.072	28601.76
597.269	29115.8
597.466	28667.3
597.662	28810.65
597.859	28472.74
598.055	28568.99
598.252	28255.65
598.448	28495.27
598.645	28356
598.841	27809.2
599.038	28251.56
599.234	27991.47
599.431	27833.77
599.627	28024.23
599.824	27987.37
600.02	27360.69
600.217	27801.01
600.413	27594.16
600.609	27622.83
600.806	27375.03
601.002	27493.81
601.198	27092.41
601.395	27106.74
601.591	27313.59
601.787	27381.17
601.984	26650.05
602.18	27221.43
602.376	26971.58
602.572	26666.43
602.769	26856.89
602.965	26279.36
603.161	26998.2
603.357	26600.9
603.553	26211.78
603.75	26504.64
603.946	26121.67
604.142	26215.88
604.338	26189.25
604.534	26168.77
604.73	25812.43
604.926	25832.91
605.122	25898.44
605.318	25744.84
605.514	25507.28
605.71	25419.22
605.906	25578.96
606.102	25263.57
606.298	25406.93
606.494	25433.55
606.69	25300.44
606.886	25302.48
607.082	25099.73
607.278	25249.24
607.474	24589.79
607.67	24868.31
607.866	24638.94
608.062	25163.22
608.257	24718.81
608.453	24829.4
608.649	24741.34
608.845	24753.63
609.041	24630.75
609.236	24747.48
609.432	24499.68
609.628	24376.8
609.824	24522.21
610.019	24286.69
610.215	24192.48
610.411	24110.57
610.606	23868.91
610.802	24425.95
610.998	24143.33
611.193	24036.84
611.389	24126.95
611.584	23752.17
611.78	23705.07
611.976	23756.27
612.171	23836.14
612.367	23684.59
612.562	23758.31
612.758	23629.29
612.953	23584.24
613.149	23420.4
613.344	23205.36
613.539	23791.08
613.735	23479.79
613.93	23510.51
614.126	23027.19
614.321	23342.58
614.517	23221.75
614.712	23119.35
614.907	23252.47
615.103	23422.45
615.298	23102.96
615.493	23123.44
615.688	22980.09
615.884	23193.08
616.079	22756.86
616.274	23084.53
616.47	22646.27
616.665	22748.67
616.86	22732.28
617.055	22558.21
617.25	22271.49
617.445	22642.17
617.641	22261.25
617.836	22361.6
618.031	22111.75
618.226	22375.94
618.421	22076.93
618.616	22019.59
618.811	21876.23
619.006	22156.8
619.201	21679.63
619.396	22035.97
619.591	21466.64
619.786	21855.75
619.981	21335.57
620.176	21747.21
620.371	21102.1
620.566	21270.03
620.761	21040.66
620.956	21493.26
621.151	21018.13
621.346	21136.91
621.541	20608.54
621.735	20991.51
621.93	20631.07
622.125	20936.21
622.32	20467.23
622.515	20293.15
622.709	20209.18
622.904	20008.48
623.099	20209.18
623.294	20127.27
623.488	19713.58
623.683	20129.31
623.878	19502.64
624.072	19570.22
624.267	19594.79
624.462	19381.81
624.656	19228.21
624.851	19392.05
625.046	18863.67
625.24	19152.43
625.435	18851.38
625.629	18751.03
625.824	18669.11
626.018	18667.06
626.213	18245.18
626.407	18675.26
626.602	18032.19
626.796	18181.7
626.991	17890.88
627.185	18011.71
627.38	17980.99
627.574	17829.45
627.768	17598.02
627.963	17546.83
628.157	17552.97
628.352	17749.57
628.546	17270.35
628.74	17528.39
628.935	17196.62
629.129	17149.52
629.323	16991.83
629.517	16893.52
629.712	16954.96
629.906	16744.02
630.1	16543.32
630.294	16539.22
630.489	16651.86
630.683	16365.15
630.877	16201.31
631.071	16178.78
631.265	16229.98
631.459	16143.97
631.653	16195.17
631.848	16072.29
632.042	15842.92
632.236	15824.48
632.43	15617.64
632.624	15703.65
632.818	15599.21
633.012	15373.93
633.206	15255.15
633.4	15349.36
633.594	14993.01
633.788	15285.87
633.982	15232.62
634.176	14962.29
634.369	14909.04
634.563	14931.57
634.757	14956.15
634.951	14900.85
635.145	14679.67
635.339	14499.45
635.533	14448.25
635.726	14515.83
635.92	14386.81
636.114	14179.96
636.308	14171.77
636.501	14288.51
636.695	14089.85
636.889	14028.42
637.083	13870.72
637.276	13895.3
637.47	13905.54
637.664	13502.09
637.857	13641.35
638.051	13731.46
638.244	13522.57
638.438	13448.84
638.632	13411.98
638.825	13407.88
639.019	13084.3
639.212	13024.91
639.406	13076.11
639.599	12973.71
639.793	12916.37
639.986	12637.84
640.18	12881.55
640.373	12742.29
640.567	12523.16
640.76	12678.8
640.954	12754.58
641.147	12488.34
641.34	12379.8
641.534	12453.53
641.727	12519.06
641.92	12363.42
642.114	12324.51
642.307	12091.04
642.5	12011.17
642.694	11900.58
642.887	11802.27
643.08	11822.75
643.273	11634.34
643.467	11706.02
643.66	11644.58
643.853	11443.88
644.046	11390.63
644.239	11280.04
644.432	11398.82
644.626	11265.71
644.819	11404.97
645.012	11415.21
645.205	11286.19
645.398	11411.11
645.591	11110.06
645.784	11091.63
645.977	10827.44
646.17	10890.93
646.363	11034.28
646.556	10741.43
646.749	10776.24
646.942	10956.46
647.135	10489.53
647.328	10694.32
647.521	10448.57
647.714	10370.74
647.907	10391.22
648.099	10450.61
648.292	10352.31
648.485	10172.09
648.678	10262.2
648.871	10065.6
649.064	10016.44
649.256	10079.93
649.449	10069.69
649.642	10030.78
649.835	9948.86
650.027	9805.5
650.22	9717.44
650.413	9676.48
650.605	9680.58
650.798	9787.07
650.991	9455.3
651.183	9498.31
651.376	9277.13
651.568	9357
651.761	9291.46
651.954	9279.18
652.146	9258.7
652.339	9371.33
652.531	9066.19
652.724	9092.81
652.916	9033.42
653.109	9080.52
653.301	8988.36
653.494	9055.95
653.686	8795.86
653.879	8996.56
654.071	9029.32
654.263	8703.7
654.456	8851.15
654.648	8746.7
654.84	8677.07
655.033	8468.18
655.225	8535.76
655.417	8664.79
655.61	8298.2
655.802	8472.28
655.994	8247
656.186	8390.36
656.379	8158.94
656.571	8271.58
656.763	8111.83
656.955	8056.54
657.148	8212.18
657.34	8122.07
657.532	8095.45
657.724	8068.83
657.916	8091.35
658.108	7884.51
658.3	7821.02
658.492	7866.08
658.684	7722.72
658.876	7694.05
659.068	7698.14
659.26	7524.07
659.452	7468.77
659.644	7630.56
659.836	7634.66
660.028	7597.79
660.22	7534.31
660.412	7368.42
660.604	7362.28
660.796	7386.85
660.988	7472.87
661.18	7276.26
661.372	7208.68
661.563	7214.82
661.755	7112.42
661.947	7018.22
662.139	6999.79
662.331	7050.99
662.522	7081.71
662.714	7182.06
662.906	6995.69
663.097	6831.85
663.289	6784.75
663.481	6842.09
663.673	6778.61
663.864	6534.9
664.056	6551.28
664.247	6610.67
664.439	6715.12
664.631	6332.15
664.822	6643.44
665.014	6442.74
665.205	6469.36
665.397	6573.81
665.588	6475.51
665.78	6348.53
665.971	6313.72
666.163	6301.43
666.354	6395.64
666.546	6174.46
666.737	6242.04
666.929	6201.08
667.12	6141.69
667.311	6166.26
667.503	5932.79
667.694	6043.39
667.885	6092.54
668.077	6010.62
668.268	5969.66
668.459	5859.07
668.651	5887.74
668.842	5881.6
669.033	5840.64
669.224	5746.43
669.416	5918.46
669.607	5738.24
669.798	5633.79
669.989	5695.23
670.18	5553.92
670.371	5641.98
670.563	5621.5
670.754	5728
670.945	5734.14
671.136	5402.37
671.327	5402.37
671.518	5502.72
671.709	5486.34
671.9	5478.15
672.091	5428.99
672.282	5572.35
672.473	5355.27
672.664	5457.67
672.855	5338.88
673.046	5263.11
673.237	5293.83
673.428	5119.75
673.619	5345.03
673.809	5211.91
674	5201.67
674.191	5175.05
674.382	5052.17
674.573	5043.98
674.764	4994.83
674.954	5185.29
675.145	5015.3
675.336	4955.91
675.527	4978.44
675.717	5027.59
675.908	4992.78
676.099	5011.21
676.289	4914.95
676.48	4945.67
676.671	4847.37
676.861	4747.02
677.052	4804.36
677.243	4749.07
677.433	4640.53
677.624	4726.54
677.814	4661.01
678.005	4814.6
678.195	4830.99
678.386	4665.1
678.576	4572.94
678.767	4540.18
678.957	4648.72
679.148	4521.74
679.338	4585.23
679.529	4517.65
679.719	4507.41
679.909	4515.6
680.1	4478.74
680.29	4454.16
680.481	4531.98
680.671	4407.06
680.861	4339.48
681.052	4552.46
681.242	4376.34
681.432	4550.42
681.622	4319
681.813	4323.09
682.003	4417.3
682.193	4245.27
682.383	4312.85
682.573	4159.25
682.764	4044.57
682.954	4257.56
683.144	4278.04
683.334	4200.21
683.524	4146.97
683.714	4214.55
683.904	4124.44
684.094	4116.25
684.284	4069.14
684.474	4198.17
684.664	4065.05
684.854	4019.99
685.044	4001.56
685.234	3958.55
685.424	4032.28
685.614	4011.8
685.804	4130.58
685.994	4091.67
686.184	4071.19
686.374	3913.5
686.564	3823.39
686.753	4019.99
686.943	3946.27
687.133	3825.43
687.323	3847.96
687.513	3899.16
687.702	4050.71
687.892	3893.02
688.082	3872.54
688.272	3876.63
688.461	3772.19
688.651	3702.56
688.841	3796.76
689.03	3651.36
689.22	3677.98
689.41	3610.4
689.599	3712.8
689.789	3651.36
689.979	3624.73
690.168	3632.93
690.358	3665.69
690.547	3616.54
690.737	3610.4
690.926	3692.32
691.116	3643.17
691.305	3495.71
691.495	3462.94
691.684	3563.29
691.874	3475.23
692.063	3524.38
692.252	3569.44
692.442	3536.67
692.631	3381.03
692.82	3495.71
693.01	3397.41
693.199	3344.16
693.388	3508
693.578	3366.69
693.767	3462.94
693.956	3538.72
694.146	3424.03
694.335	3331.87
694.524	3331.87
694.713	3430.18
694.902	3241.76
695.092	3346.21
695.281	3188.52
695.47	3190.56
695.659	3243.81
695.848	3221.28
696.037	3305.25
696.226	3165.99
696.415	3378.98
696.604	3190.56
696.793	3176.23
696.982	3053.35
697.171	3206.95
697.36	3127.08
697.549	3073.83
697.738	3065.64
697.927	3026.73
698.116	3045.16
698.305	3178.28
698.494	3122.98
698.683	3170.08
698.872	3137.32
699.061	2979.62
699.25	2993.96
699.438	3137.32
699.627	2977.58
699.816	3151.65
700.005	3120.93
700.193	3073.83
700.382	3026.73
700.571	3034.92
700.76	2938.66
700.948	2932.52
701.137	2899.75
701.326	3012.39
701.514	3012.39
701.703	2967.34
701.892	2912.04
702.08	2998.06
702.269	3012.39
702.457	2852.65
702.646	2901.8
702.834	3028.78
703.023	3004.2
703.212	2979.62
703.4	2842.41
703.589	2907.94
703.777	2832.17
703.965	2791.21
704.154	2991.91
704.342	2852.65
704.531	2955.05
704.719	2852.65
704.907	2762.54
705.096	2819.88
705.284	2826.03
705.472	2856.75
705.661	2699.05
705.849	2805.55
706.037	2776.87
706.226	2799.4
706.414	2871.08
706.602	2678.57
706.79	2873.13
706.979	2881.32
707.167	2883.37
707.355	2742.06
707.543	2922.28
707.731	2912.04
707.919	2889.51
708.107	2869.03
708.296	2760.49
708.484	2768.68
708.672	2791.21
708.86	2787.11
709.048	2832.17
709.236	2764.59
709.424	2674.48
709.612	2789.16
709.8	2658.09
709.988	2742.06
710.176	2711.34
710.364	2717.48
710.551	2699.05
710.739	2733.87
710.927	2627.37
711.115	2692.91
711.303	2772.78
711.491	2692.91
711.679	2654
711.866	2766.64
712.054	2750.25
712.242	2666.28
712.43	2649.9
712.617	2684.72
712.805	2643.76
712.993	2711.34
713.181	2735.92
713.368	2541.36
713.556	2690.86
713.744	2604.85
713.931	2727.72
714.119	2588.46
714.306	2699.05
714.494	2641.71
714.682	2668.33
714.869	2479.92
715.057	2567.98
715.244	2633.52
715.432	2664.24
715.619	2647.85
715.807	2645.8
715.994	2567.98
716.182	2643.76
716.369	2682.67
716.556	2701.1
716.744	2627.37
716.931	2606.89
717.119	2565.93
717.306	2678.57
717.493	2547.5
717.681	2651.95
717.868	2705.2
718.055	2643.76
718.242	2735.92
718.43	2598.7
718.617	2469.68
718.804	2615.09
718.991	2598.7
719.179	2594.61
719.366	2537.26
719.553	2504.5
719.74	2553.65
719.927	2531.12
720.114	2430.77
720.301	2524.97
720.488	2426.67
720.676	2608.94
720.863	2432.82
721.05	2488.11
721.237	2561.84
721.424	2567.98
721.611	2481.97
721.798	2490.16
721.985	2586.41
722.172	2557.74
722.358	2447.15
722.545	2594.61
722.732	2357.04
722.919	2469.68
723.106	2561.84
723.293	2465.58
723.48	2529.07
723.667	2414.38
723.853	2510.64
724.04	2490.16
724.227	2504.5
724.414	2443.06
724.6	2430.77
724.787	2502.45
724.974	2324.27
725.161	2475.82
725.347	2420.53
725.534	2492.21
725.72	2504.5
725.907	2434.86
726.094	2471.73
726.28	2461.49
726.467	2471.73
726.653	2459.44
726.84	2477.87
727.027	2475.82
727.213	2398
727.4	2363.19
727.586	2398
727.773	2443.06
727.959	2453.3
728.145	2400.05
728.332	2328.37
728.518	2332.47
728.705	2418.48
728.891	2445.1
729.077	2484.02
729.264	2398
729.45	2475.82
729.636	2494.26
729.823	2389.81
730.009	2398
730.195	2348.85
730.382	2406.19
730.568	2336.56
730.754	2328.37
730.94	2365.23
731.126	2455.34
731.313	2361.14
731.499	2293.55
731.685	2447.15
731.871	2424.62
732.057	2494.26
732.243	2346.8
732.429	2418.48
732.615	2387.76
732.801	2422.58
732.987	2316.08
733.173	2473.78
733.359	2299.7
733.545	2279.22
733.731	2326.32
733.917	2430.77
734.103	2393.9
734.289	2328.37
734.475	2244.4
734.661	2432.82
734.847	2348.85
735.033	2365.23
735.219	2393.9
735.404	2281.27
735.59	2217.78
735.776	2369.33
735.962	2328.37
736.148	2203.44
736.333	2234.16
736.519	2289.46
736.705	2283.31
736.89	2342.71
737.076	2193.2
737.262	2176.82
737.447	2219.83
737.633	2277.17
737.819	2236.21
738.004	2338.61
738.19	2189.11
738.375	2176.82
738.561	2250.55
738.747	2246.45
738.932	2217.78
739.118	2088.76
739.303	2309.94
739.489	2230.07
739.674	2285.36
739.859	2275.12
740.045	2301.75
740.23	2137.91
740.416	2121.52
740.601	2240.31
740.786	2137.91
740.972	2242.36
741.157	2117.43
741.342	2127.67
741.528	2129.72
741.713	2051.89
741.898	2131.76
742.084	2113.33
742.269	2058.04
742.454	2168.63
742.639	2182.96
742.824	2037.56
743.01	2111.29
743.195	2088.76
743.38	2043.7
743.565	2135.86
743.75	2109.24
743.935	2002.74
744.12	2078.52
744.305	2006.84
744.49	1969.98
744.675	1974.07
744.86	1941.3
745.045	1992.5
745.23	1906.49
745.415	1955.64
745.6	1953.59
745.785	2021.17
745.97	1941.3
746.155	1881.91
746.34	2035.51
746.525	1900.34
746.71	1906.49
746.895	1742.65
747.079	1853.24
747.264	1818.43
747.449	1961.78
747.634	1904.44
747.819	1806.14
748.003	1765.18
748.188	1869.62
748.373	1740.6
748.557	1763.13
748.742	1752.89
748.927	1832.76
749.111	1799.99
749.296	1730.36
749.481	1867.58
749.665	1722.17
749.85	1654.59
750.034	1691.45
750.219	1701.69
750.404	1732.41
750.588	1695.55
750.773	1730.36
750.957	1574.72
751.141	1652.54
751.326	1609.53
751.51	1691.45
751.695	1552.19
751.879	1527.61
752.064	1605.44
752.248	1578.81
752.432	1593.15
752.617	1472.32
752.801	1593.15
752.985	1589.05
753.17	1589.05
753.354	1509.18
753.538	1486.65
753.722	1478.46
753.907	1480.51
754.091	1480.51
754.275	1548.09
754.459	1478.46
754.643	1431.36
754.828	1417.02
755.012	1357.63
755.196	1464.13
755.38	1390.4
755.564	1435.46
755.748	1439.55
755.932	1443.65
756.116	1427.26
756.3	1410.88
756.484	1388.35
756.668	1314.63
756.852	1296.19
757.036	1318.72
757.22	1351.49
757.404	1296.19
757.588	1304.39
757.772	1316.67
757.956	1390.4
758.14	1324.87
758.323	1318.72
758.507	1306.43
758.691	1253.19
758.875	1288
759.059	1247.04
759.242	1199.94
759.426	1156.93
759.61	1324.87
759.794	1216.32
759.977	1226.56
760.161	1304.39
760.345	1228.61
760.528	1165.12
760.712	1158.98
760.895	1185.6
761.079	1142.6
761.263	1064.77
761.446	1148.74
761.63	1163.08
761.813	1171.27
761.997	1187.65
762.18	1060.68
762.364	1251.14
762.547	1120.07
762.731	1138.5
762.914	1128.26
763.098	1136.45
763.281	1042.25
763.464	1046.34
763.648	1146.69
763.831	1046.34
764.015	1017.67
764.198	1177.41
764.381	1054.53
764.564	982.85
764.748	1044.29
764.931	989
765.114	1023.81
765.297	1124.16
765.481	1079.11
765.664	1040.2
765.847	1025.86
766.03	1038.15
766.213	1009.48
766.397	1025.86
766.58	1017.67
766.763	1083.2
766.946	1066.82
767.129	989
767.312	1025.86
767.495	1023.81
767.678	1001.29
767.861	952.13
768.044	1017.67
768.227	1062.73
768.41	1023.81
768.593	989
768.776	880.46
768.959	952.13
769.142	1013.57
769.324	999.24
769.507	958.28
769.69	816.97
769.873	1013.57
770.056	1060.68
770.239	833.35
770.421	1023.81
770.604	995.14
770.787	925.51
770.97	927.56
771.152	907.08
771.335	1005.38
771.518	898.89
771.7	941.89
771.883	948.04
772.066	925.51
772.248	880.46
772.431	898.89
772.613	870.22
772.796	866.12
772.978	882.5
773.161	1017.67
773.343	843.59
773.526	644.94
773.708	847.69
773.891	827.21
774.073	837.45
774.256	825.16
774.438	833.35
774.621	839.5
774.803	773.96
774.985	841.54
775.168	831.3
775.35	868.17
775.532	788.3
775.715	763.72
775.897	694.09
776.079	800.59
776.261	741.19
776.444	862.02
776.626	704.33
776.808	753.48
776.99	784.2
777.173	722.76
777.355	749.39
777.537	679.75
777.719	726.86
777.901	726.86
778.083	726.86
778.265	663.37
778.447	745.29
778.629	634.7
778.811	694.09
778.993	661.32
779.175	708.43
779.357	685.9
779.539	618.32
779.721	714.57
779.903	616.27
780.085	689.99
780.267	614.22
780.449	649.04
780.631	589.64
780.812	653.13
780.994	704.33
781.176	612.17
781.358	644.94
781.54	606.03
781.721	620.36
781.903	724.81
782.085	556.88
782.267	593.74
782.448	628.56
782.63	558.92
782.812	575.31
782.993	622.41
783.175	616.27
783.357	579.4
783.538	554.83
783.72	567.12
783.901	509.77
784.083	591.69
784.264	526.16
784.446	517.97
784.627	491.34
784.809	599.88
784.99	638.8
785.172	575.31
785.353	556.88
785.535	497.49
785.716	579.4
785.897	503.63
786.079	546.64
786.26	472.91
786.441	479.05
786.623	444.24
786.804	520.01
786.985	528.21
787.167	522.06
787.348	444.24
787.529	526.16
787.71	468.81
787.891	460.62
788.073	489.29
788.254	483.15
788.435	423.76
788.616	452.43
788.797	399.18
788.978	407.38
789.159	483.15
789.34	489.29
789.522	405.33
789.703	434
789.884	425.81
790.065	458.57
790.246	548.68
790.427	456.53
790.607	368.46
790.788	489.29
790.969	442.19
791.15	390.99
791.331	425.81
791.512	425.81
791.693	403.28
791.874	347.98
792.054	399.18
792.235	419.66
792.416	280.4
792.597	366.42
792.778	442.19
792.958	339.79
793.139	337.74
793.32	354.13
793.5	350.03
793.681	405.33
793.862	362.32
794.042	333.65
794.223	368.46
794.404	397.14
794.584	294.74
794.765	390.99
794.945	341.84
795.126	337.74
795.306	380.75
795.487	272.21
795.667	304.98
795.848	390.99
796.028	354.13
796.209	395.09
796.389	337.74
796.57	372.56
796.75	315.22
796.93	374.61
797.111	290.64
797.291	286.54
797.471	307.02
797.652	325.46
797.832	294.74
798.012	327.5
798.192	212.82
798.373	317.26
798.553	356.18
798.733	237.39
798.913	374.61
799.093	319.31
799.274	229.2
799.454	304.98
799.634	317.26
799.814	341.84
799.994	282.45
800.174	268.11
800.354	239.44
800.534	239.44
800.714	163.67
800.894	270.16
801.074	304.98
801.254	296.78
801.434	272.21
801.614	290.64
801.794	296.78
801.974	685.9
802.154	292.69
802.334	259.92
802.514	227.15
802.693	239.44
802.873	243.54
803.053	309.07
803.233	251.73
803.413	288.59
803.592	264.02
803.772	245.59
803.952	182.1
804.131	206.67
804.311	237.39
804.491	245.59
804.67	237.39
804.85	282.45
805.03	278.35
805.209	294.74
805.389	313.17
805.568	202.58
805.748	307.02
805.928	325.46
806.107	229.2
806.287	245.59
806.466	186.19
806.646	186.19
806.825	128.85
807.004	243.54
807.184	196.43
807.363	212.82
807.543	243.54
807.722	214.87
807.901	276.31
808.081	288.59
808.26	153.43
808.439	169.81
808.619	130.9
808.798	247.63
808.977	237.39
809.156	208.72
809.336	157.52
809.515	272.21
809.694	178
809.873	171.86
810.052	235.35
810.231	255.83
810.411	235.35
810.59	202.58
810.769	175.95
810.948	231.25
811.127	243.54
811.306	210.77
811.485	253.78
811.664	261.97
811.843	204.63
812.022	169.81
812.201	178
812.38	178
812.559	85.84
812.737	165.71
812.916	149.33
813.095	137.04
813.274	157.52
813.453	186.19
813.632	130.9
813.811	145.24
813.989	221.01
814.168	165.71
814.347	128.85
814.526	218.96
814.704	173.91
814.883	212.82
815.062	196.43
815.24	192.34
815.419	194.39
815.598	214.87
815.776	151.38
815.955	143.19
816.133	100.18
816.312	145.24
816.49	153.43
816.669	212.82
816.847	184.15
817.026	120.66
817.204	161.62
817.383	225.11
817.561	161.62
817.74	149.33
817.918	182.1
818.097	196.43
818.275	171.86
818.453	128.85
818.632	165.71
818.81	261.97
818.988	132.95
819.167	206.67
819.345	202.58
819.523	137.04
819.701	139.09
819.879	137.04
820.058	184.15
820.236	214.87
820.414	188.24
820.592	128.85
820.77	128.85
820.948	116.56
821.127	155.47
821.305	124.76
821.483	106.32
821.661	194.39
821.839	155.47
822.017	75.6
822.195	112.47
822.373	128.85
822.551	188.24
822.729	206.67
822.907	130.9
823.085	153.43
823.262	114.52
823.44	161.62
823.618	38.74
823.796	87.89
823.974	91.99
824.152	163.67
824.329	167.76
824.507	145.24
824.685	175.95
824.863	180.05
825.04	149.33
825.218	171.86
825.396	128.85
825.574	155.47
825.751	202.58
825.929	204.63
826.107	79.7
826.284	69.46
826.462	65.36
826.639	110.42
826.817	108.37
826.994	94.04
827.172	94.04
827.349	182.1
827.527	91.99
827.704	85.84
827.882	100.18
828.059	141.14
828.237	116.56
828.414	161.62
828.591	51.03
828.769	151.38
828.946	141.14
829.124	155.47
829.301	110.42
829.478	48.98
829.655	112.47
829.833	112.47
830.01	73.56
830.187	65.36
830.364	75.6
830.542	132.95
830.719	192.34
830.896	188.24
831.073	12.12
831.25	126.8
831.427	91.99
831.604	153.43
831.782	73.56
831.959	89.94
832.136	151.38
832.313	130.9
832.49	71.51
832.667	143.19
832.844	124.76
833.021	130.9
833.198	145.24
833.374	63.32
833.551	81.75
833.728	16.21
833.905	116.56
834.082	65.36
834.259	91.99
834.436	91.99
834.612	59.22
834.789	130.9
834.966	87.89
835.143	96.08
835.319	71.51
835.496	100.18
835.673	36.69
835.85	161.62
836.026	75.6
836.203	94.04
836.38	79.7
836.556	100.18
836.733	30.55
836.909	106.32
837.086	98.13
837.262	87.89
837.439	42.84
837.616	44.88
837.792	28.5
837.968	73.56
838.145	100.18
838.321	104.28
838.498	61.27
838.674	112.47
838.851	40.79
839.027	89.94
839.203	-16.55
839.38	116.56
839.556	34.64
839.732	67.41
839.909	137.04
840.085	53.08
840.261	69.46
840.437	143.19
840.614	79.7
840.79	106.32
840.966	75.6
841.142	106.32
841.318	120.66
841.494	98.13
841.671	63.32
841.847	81.75
842.023	44.88
842.199	73.56
842.375	91.99
842.551	51.03
842.727	63.32
842.903	73.56
843.079	30.55
843.255	124.76
843.431	28.5
843.607	63.32
843.783	100.18
843.959	53.08
844.134	67.41
844.31	130.9
844.486	24.4
844.662	98.13
844.838	20.31
845.013	46.93
845.189	114.52
845.365	65.36
845.541	44.88
845.716	94.04
845.892	30.55
846.068	38.74
846.244	51.03
846.419	87.89
846.595	16.21
846.77	48.98
846.946	87.89
847.122	8.02
847.297	53.08
847.473	120.66
847.648	69.46
847.824	67.41
847.999	38.74
848.175	44.88
848.35	16.21
848.526	98.13
848.701	48.98
848.876	114.52
849.052	106.32
849.227	83.8
849.403	-28.84
849.578	16.21
849.753	91.99
849.929	87.89
850.104	81.75
850.279	53.08
850.454	30.55
850.63	34.64
850.805	42.84
850.98	77.65
851.155	75.6
851.33	79.7
851.505	5.97
851.681	63.32
851.856	87.89
852.031	51.03
852.206	59.22
852.381	-10.41
852.556	-20.65
852.731	155.47
852.906	77.65
853.081	102.23
853.256	32.6
853.431	75.6
853.606	30.55
853.781	87.89
853.956	34.64
854.131	59.22
854.305	46.93
854.48	24.4
854.655	55.12
854.83	34.64
855.005	-39.08
855.18	-39.08
855.354	-14.51
855.529	32.6
855.704	14.17
855.879	83.8
856.053	-18.6
856.228	112.47
856.403	71.51
856.577	40.79
856.752	5.97
856.926	48.98
857.101	48.98
857.276	130.9
857.45	28.5
857.625	30.55
857.799	-10.41
857.974	40.79
858.148	106.32
858.323	59.22
858.497	79.7
858.672	40.79
858.846	73.56
859.02	124.76
859.195	16.21
859.369	55.12
859.543	51.03
859.718	89.94
859.892	98.13
860.066	75.6
860.241	100.18
860.415	3.93
860.589	24.4
860.763	59.22
860.938	12.12
861.112	79.7
861.286	-6.31
861.46	-16.55
861.634	42.84
861.808	89.94
861.982	-18.6
862.157	67.41
862.331	-51.37
862.505	-39.08
862.679	26.45
862.853	40.79
863.027	5.97
863.201	34.64
863.375	-8.36
863.549	63.32
863.722	116.56
863.896	100.18
864.07	89.94
864.244	59.22
864.418	12.12
864.592	30.55
864.766	-71.85
864.939	34.64
865.113	102.23
865.287	38.74
865.461	-63.66
865.634	55.12
865.808	-12.46
865.982	32.6
866.156	32.6
866.329	57.17
866.503	18.26
866.676	-14.51
866.85	55.12
867.024	-8.36
867.197	63.32
867.371	104.28
867.544	75.6
867.718	104.28
867.891	75.6
868.065	-49.32
868.238	96.08
868.412	16.21
868.585	5.97
868.759	-22.7
868.932	18.26
869.105	-10.41
869.279	91.99
869.452	1.88
869.625	44.88
869.799	94.04
869.972	36.69
870.145	24.4
870.319	38.74
870.492	118.61
870.665	32.6
870.838	57.17
871.011	-77.99
871.185	14.17
871.358	22.36
871.531	18.26
871.704	40.79
871.877	-24.75
872.05	30.55
872.223	46.93
872.396	71.51
872.569	112.47
872.742	20.31
872.915	26.45
873.088	12.12
873.261	77.65
873.434	-2.22
873.607	5.97
873.78	104.28
873.953	51.03
874.126	61.27
874.299	30.55
874.471	10.07
874.644	46.93
874.817	63.32
874.99	81.75
875.163	18.26
875.335	-2.22
875.508	67.41
875.681	83.8
875.853	1.88
876.026	24.4
876.199	28.5
876.371	73.56
876.544	22.36
876.717	81.75
876.889	26.45
877.062	69.46
877.234	-20.65
877.407	18.26
877.579	42.84
877.752	46.93
877.924	-8.36
878.097	96.08
878.269	71.51
878.442	-51.37
878.614	81.75
878.786	32.6
878.959	36.69
879.131	55.12
879.303	-20.65
879.476	-2.22
879.648	51.03
879.82	3.93
879.993	-6.31
880.165	12.12
880.337	24.4
880.509	18.26
880.681	-63.66
880.854	8.02
881.026	-2.22
881.198	87.89
881.37	51.03
881.542	-20.65
881.714	-2.22
881.886	79.7
882.058	63.32
882.23	-2.22
882.402	22.36
882.574	30.55
882.746	-20.65
882.918	63.32
883.09	-0.17
883.262	34.64
883.434	32.6
883.606	102.23
883.778	34.64
883.95	24.4
884.122	-20.65
884.293	14.17
884.465	24.4
884.637	32.6
884.809	48.98
884.98	46.93
885.152	63.32
885.324	51.03
885.496	24.4
885.667	57.17
885.839	-4.27
886.011	59.22
886.182	30.55
886.354	26.45
886.525	-30.89
886.697	-18.6
886.869	-39.08
887.04	-4.27
887.212	51.03
887.383	87.89
887.555	-2.22
887.726	48.98
887.897	-20.65
888.069	79.7
888.24	26.45
888.412	51.03
888.583	20.31
888.754	-8.36
888.926	-71.85
889.097	-49.32
889.268	85.84
889.44	73.56
889.611	-43.18
889.782	53.08
889.953	67.41
890.125	149.33
890.296	-43.18
890.467	5.97
890.638	16.21
890.809	24.4
890.98	-34.99
891.151	63.32
891.323	24.4
891.494	-18.6
891.665	3.93
891.836	22.36
892.007	106.32
892.178	14.17
892.349	59.22
892.52	-37.03
892.691	73.56
892.862	-49.32
893.032	38.74
893.203	79.7
893.374	-22.7
893.545	55.12
893.716	51.03
893.887	65.36
894.057	14.17
894.228	40.79
894.399	89.94
894.57	59.22
894.74	34.64
894.911	-73.9
895.082	16.21
895.253	34.64
895.423	36.69
895.594	26.45
895.764	16.21
895.935	57.17
896.106	12.12
896.276	71.51
896.447	61.27
896.617	12.12
896.788	57.17
896.958	-2.22
897.129	-12.46
897.299	12.12
897.47	55.12
897.64	71.51
897.81	73.56
897.981	32.6
898.151	14.17
898.322	18.26
898.492	-24.75
898.662	14.17
898.832	30.55
899.003	38.74
899.173	3.93
899.343	-30.89
899.513	-30.89
