Data from USB4F104151__54__13-11-42-878.txt Node

Date: Fri Mar 14 13:11:42 EDT 2025
User: louis
Spectrometer: USB4F10415
Trigger mode: 4
Integration Time (sec): 2.000000E-2
Scans to average: 1
Electric dark correction enabled: true
Nonlinearity correction enabled: false
Boxcar width: 0
XAxis mode: Wavelengths
Number of Pixels in Spectrum: 3648
>>>>>Begin Spectral Data<<<<<
178.204	-73.39
178.424	-73.39
178.644	-73.39
178.864	-183.98
179.084	-126.63
179.304	-30.38
179.524	12.63
179.744	41.3
179.964	18.77
180.184	49.49
180.404	-13.99
180.624	-40.62
180.844	16.73
181.064	22.87
181.283	2.39
181.503	-87.72
181.723	8.53
181.943	-42.67
182.163	-3.75
182.383	-22.19
182.602	47.44
182.822	41.3
183.042	31.06
183.262	0.34
183.482	49.49
183.701	43.35
183.921	-1.71
184.141	39.25
184.361	37.2
184.58	39.25
184.8	-73.39
185.02	-5.8
185.239	45.4
185.459	-1.71
185.679	102.74
185.898	20.82
186.118	-20.14
186.338	18.77
186.557	8.53
186.777	-65.19
186.997	-24.23
187.216	-16.04
187.436	35.16
187.655	90.45
187.875	61.78
188.095	-40.62
188.314	10.58
188.534	-3.75
188.753	26.96
188.973	45.4
189.192	26.96
189.412	69.97
189.631	-7.85
189.851	-57
190.07	18.77
190.29	-11.95
190.509	-11.95
190.729	-9.9
190.948	-24.23
191.168	72.02
191.387	57.68
191.607	-16.04
191.826	24.92
192.045	-1.71
192.265	-28.33
192.484	6.49
192.704	-13.99
192.923	-1.71
193.142	0.34
193.362	41.3
193.581	-16.04
193.8	-3.75
194.02	-34.47
194.239	90.45
194.458	33.11
194.678	-32.43
194.897	16.73
195.116	0.34
195.335	-22.19
195.555	53.59
195.774	-34.47
195.993	24.92
196.212	8.53
196.432	12.63
196.651	53.59
196.87	16.73
197.089	18.77
197.308	39.25
197.528	8.53
197.747	8.53
197.966	16.73
198.185	-9.9
198.404	49.49
198.623	-65.19
198.842	-5.8
199.062	-30.38
199.281	-9.9
199.5	-16.04
199.719	-34.47
199.938	49.49
200.157	16.73
200.376	22.87
200.595	51.54
200.814	80.21
201.033	20.82
201.252	-16.04
201.471	12.63
201.69	90.45
201.909	76.12
202.128	-9.9
202.347	2.39
202.566	41.3
202.785	-44.71
203.004	53.59
203.223	76.12
203.442	16.73
203.661	10.58
203.879	2.39
204.098	108.88
204.317	-3.75
204.536	-3.75
204.755	112.98
204.974	33.11
205.193	-5.8
205.411	123.22
205.63	-16.04
205.849	41.3
206.068	-32.43
206.287	-11.95
206.505	-34.47
206.724	33.11
206.943	57.68
207.162	4.44
207.381	-7.85
207.599	-5.8
207.818	-36.52
208.037	-9.9
208.255	-16.04
208.474	47.44
208.693	41.3
208.911	0.34
209.13	41.3
209.349	-24.23
209.567	26.96
209.786	-16.04
210.005	55.64
210.223	-1.71
210.442	-22.19
210.661	18.77
210.879	51.54
211.098	94.55
211.316	74.07
211.535	45.4
211.753	-67.24
211.972	35.16
212.191	-5.8
212.409	45.4
212.628	26.96
212.846	24.92
213.065	2.39
213.283	29.01
213.502	2.39
213.72	26.96
213.938	-28.33
214.157	-13.99
214.375	92.5
214.594	127.32
214.812	67.92
215.031	24.92
215.249	20.82
215.467	-52.91
215.686	8.53
215.904	6.49
216.122	-28.33
216.341	33.11
216.559	-34.47
216.778	-1.71
216.996	-67.24
217.214	57.68
217.432	-44.71
217.651	49.49
217.869	14.68
218.087	16.73
218.306	-24.23
218.524	65.88
218.742	35.16
218.96	-54.95
219.179	53.59
219.397	16.73
219.615	78.16
219.833	29.01
220.051	-24.23
220.27	37.2
220.488	76.12
220.706	-40.62
220.924	49.49
221.142	-54.95
221.36	-11.95
221.578	37.2
221.796	16.73
222.015	41.3
222.233	74.07
222.451	53.59
222.669	26.96
222.887	86.36
223.105	-65.19
223.323	0.34
223.541	59.73
223.759	29.01
223.977	-11.95
224.195	26.96
224.413	22.87
224.631	-1.71
224.849	37.2
225.067	51.54
225.285	43.35
225.503	29.01
225.721	-24.23
225.939	65.88
226.157	12.63
226.375	86.36
226.592	-97.96
226.81	43.35
227.028	53.59
227.246	55.64
227.464	33.11
227.682	6.49
227.9	16.73
228.117	41.3
228.335	82.26
228.553	-5.8
228.771	18.77
228.989	-16.04
229.206	-11.95
229.424	-38.57
229.642	18.77
229.86	24.92
230.077	-32.43
230.295	47.44
230.513	-16.04
230.731	98.64
230.948	-52.91
231.166	16.73
231.384	-9.9
231.601	-11.95
231.819	-20.14
232.037	14.68
232.254	39.25
232.472	106.84
232.689	-83.63
232.907	55.64
233.125	14.68
233.342	45.4
233.56	-24.23
233.777	-22.19
233.995	22.87
234.213	125.27
234.43	8.53
234.648	57.68
234.865	12.63
235.083	4.44
235.3	0.34
235.518	18.77
235.735	29.01
235.953	6.49
236.17	-52.91
236.388	29.01
236.605	-24.23
236.822	33.11
237.04	26.96
237.257	24.92
237.475	20.82
237.692	29.01
237.909	47.44
238.127	65.88
238.344	-30.38
238.562	45.4
238.779	4.44
238.996	135.51
239.214	-5.8
239.431	72.02
239.648	98.64
239.865	8.53
240.083	39.25
240.3	-9.9
240.517	2.39
240.735	0.34
240.952	33.11
241.169	43.35
241.386	43.35
241.603	-1.71
241.821	12.63
242.038	29.01
242.255	33.11
242.472	8.53
242.689	26.96
242.907	37.2
243.124	-28.33
243.341	69.97
243.558	18.77
243.775	0.34
243.992	-42.67
244.209	-36.52
244.426	61.78
244.643	16.73
244.86	33.11
245.078	12.63
245.295	-44.71
245.512	53.59
245.729	-18.09
245.946	74.07
246.163	-112.3
246.38	43.35
246.597	-48.81
246.814	37.2
247.031	-26.28
247.248	-42.67
247.464	0.34
247.681	20.82
247.898	72.02
248.115	26.96
248.332	-5.8
248.549	8.53
248.766	47.44
248.983	16.73
249.2	69.97
249.417	-34.47
249.633	-3.75
249.85	29.01
250.067	-46.76
250.284	33.11
250.501	-32.43
250.717	45.4
250.934	8.53
251.151	-16.04
251.368	37.2
251.585	43.35
251.801	-20.14
252.018	-38.57
252.235	51.54
252.451	-5.8
252.668	-38.57
252.885	16.73
253.102	8.53
253.318	-30.38
253.535	2.39
253.752	22.87
253.968	61.78
254.185	-13.99
254.401	20.82
254.618	31.06
254.835	20.82
255.051	98.64
255.268	63.83
255.484	26.96
255.701	26.96
255.917	2.39
256.134	43.35
256.351	47.44
256.567	-20.14
256.784	4.44
257	10.58
257.217	84.31
257.433	26.96
257.65	-20.14
257.866	-7.85
258.082	-32.43
258.299	47.44
258.515	47.44
258.732	-30.38
258.948	94.55
259.165	-22.19
259.381	43.35
259.597	14.68
259.814	-46.76
260.03	-7.85
260.246	35.16
260.463	82.26
260.679	24.92
260.895	-18.09
261.112	43.35
261.328	-7.85
261.544	43.35
261.761	84.31
261.977	37.2
262.193	-59.05
262.409	14.68
262.626	12.63
262.842	10.58
263.058	-22.19
263.274	-5.8
263.49	26.96
263.707	12.63
263.923	41.3
264.139	-67.24
264.355	-16.04
264.571	55.64
264.787	-30.38
265.004	16.73
265.22	4.44
265.436	-48.81
265.652	-54.95
265.868	-7.85
266.084	-13.99
266.3	45.4
266.516	24.92
266.732	104.79
266.948	35.16
267.164	12.63
267.38	-40.62
267.596	55.64
267.812	35.16
268.028	-3.75
268.244	-7.85
268.46	33.11
268.676	2.39
268.892	51.54
269.108	-46.76
269.324	59.73
269.54	43.35
269.756	29.01
269.972	-1.71
270.188	20.82
270.403	10.58
270.619	-30.38
270.835	67.92
271.051	26.96
271.267	-24.23
271.483	-7.85
271.698	26.96
271.914	-16.04
272.13	55.64
272.346	41.3
272.562	10.58
272.777	-7.85
272.993	86.36
273.209	-34.47
273.425	39.25
273.64	16.73
273.856	8.53
274.072	35.16
274.287	-48.81
274.503	12.63
274.719	37.2
274.934	74.07
275.15	-20.14
275.366	29.01
275.581	-28.33
275.797	8.53
276.012	-22.19
276.228	-5.8
276.444	2.39
276.659	-40.62
276.875	4.44
277.09	-30.38
277.306	-3.75
277.521	67.92
277.737	-3.75
277.952	74.07
278.168	-32.43
278.383	4.44
278.599	8.53
278.814	84.31
279.03	16.73
279.245	45.4
279.461	29.01
279.676	74.07
279.892	41.3
280.107	-9.9
280.322	96.6
280.538	24.92
280.753	14.68
280.969	16.73
281.184	37.2
281.399	8.53
281.615	-26.28
281.83	0.34
282.045	-1.71
282.26	-3.75
282.476	-57
282.691	45.4
282.906	-36.52
283.122	20.82
283.337	-7.85
283.552	53.59
283.767	8.53
283.983	76.12
284.198	-11.95
284.413	78.16
284.628	0.34
284.843	16.73
285.058	-16.04
285.274	86.36
285.489	26.96
285.704	22.87
285.919	16.73
286.134	2.39
286.349	53.59
286.564	4.44
286.779	12.63
286.995	16.73
287.21	-89.77
287.425	92.5
287.64	-59.05
287.855	102.74
288.07	-34.47
288.285	8.53
288.5	88.4
288.715	12.63
288.93	12.63
289.145	-46.76
289.36	53.59
289.575	10.58
289.79	61.78
290.004	22.87
290.219	16.73
290.434	37.2
290.649	-40.62
290.864	43.35
291.079	-3.75
291.294	-28.33
291.509	90.45
291.724	-7.85
291.938	-32.43
292.153	29.01
292.368	31.06
292.583	24.92
292.798	63.83
293.012	-18.09
293.227	33.11
293.442	0.34
293.657	-5.8
293.871	4.44
294.086	-38.57
294.301	117.08
294.516	8.53
294.73	6.49
294.945	-44.71
295.16	37.2
295.374	67.92
295.589	-13.99
295.804	49.49
296.018	98.64
296.233	51.54
296.447	24.92
296.662	-11.95
296.877	59.73
297.091	67.92
297.306	61.78
297.52	72.02
297.735	-40.62
297.949	137.56
298.164	104.79
298.378	24.92
298.593	47.44
298.807	-48.81
299.022	35.16
299.236	22.87
299.451	41.3
299.665	2.39
299.88	8.53
300.094	65.88
300.309	16.73
300.523	24.92
300.737	31.06
300.952	51.54
301.166	29.01
301.381	-5.8
301.595	43.35
301.809	72.02
302.024	20.82
302.238	-32.43
302.452	-38.57
302.667	24.92
302.881	35.16
303.095	47.44
303.309	-1.71
303.524	37.2
303.738	-24.23
303.952	35.16
304.166	12.63
304.381	-1.71
304.595	4.44
304.809	2.39
305.023	0.34
305.237	14.68
305.452	0.34
305.666	69.97
305.88	35.16
306.094	57.68
306.308	45.4
306.522	-7.85
306.736	-11.95
306.95	24.92
307.164	-9.9
307.379	26.96
307.593	65.88
307.807	49.49
308.021	45.4
308.235	-22.19
308.449	0.34
308.663	29.01
308.877	65.88
309.091	104.79
309.305	0.34
309.519	-36.52
309.733	31.06
309.947	-40.62
310.161	-30.38
310.374	8.53
310.588	6.49
310.802	12.63
311.016	59.73
311.23	45.4
311.444	49.49
311.658	33.11
311.872	0.34
312.085	65.88
312.299	14.68
312.513	18.77
312.727	92.5
312.941	4.44
313.154	-5.8
313.368	61.78
313.582	33.11
313.796	55.64
314.009	8.53
314.223	6.49
314.437	-13.99
314.651	69.97
314.864	137.56
315.078	76.12
315.292	-13.99
315.505	29.01
315.719	12.63
315.933	-50.86
316.146	2.39
316.36	-22.19
316.573	-22.19
316.787	16.73
317.001	16.73
317.214	-87.72
317.428	37.2
317.641	-24.23
317.855	14.68
318.068	-18.09
318.282	45.4
318.495	67.92
318.709	78.16
318.922	0.34
319.136	-11.95
319.349	82.26
319.563	2.39
319.776	16.73
319.99	-38.57
320.203	53.59
320.417	35.16
320.63	8.53
320.843	76.12
321.057	59.73
321.27	12.63
321.483	65.88
321.697	22.87
321.91	-40.62
322.124	-81.58
322.337	29.01
322.55	-38.57
322.763	-1.71
322.977	-65.19
323.19	0.34
323.403	43.35
323.617	-36.52
323.83	-11.95
324.043	-7.85
324.256	-5.8
324.469	-16.04
324.683	-46.76
324.896	-57
325.109	-3.75
325.322	-13.99
325.535	37.2
325.748	20.82
325.962	57.68
326.175	-22.19
326.388	49.49
326.601	-16.04
326.814	94.55
327.027	61.78
327.24	2.39
327.453	33.11
327.666	45.4
327.879	80.21
328.092	47.44
328.305	18.77
328.518	-3.75
328.731	0.34
328.944	-9.9
329.157	2.39
329.37	4.44
329.583	12.63
329.796	37.2
330.009	-16.04
330.222	-24.23
330.435	-24.23
330.648	72.02
330.861	-16.04
331.073	55.64
331.286	63.83
331.499	31.06
331.712	33.11
331.925	8.53
332.138	35.16
332.35	-52.91
332.563	-3.75
332.776	-38.57
332.989	16.73
333.202	41.3
333.414	-24.23
333.627	106.84
333.84	-26.28
334.053	14.68
334.265	-18.09
334.478	29.01
334.691	-16.04
334.903	-11.95
335.116	29.01
335.329	33.11
335.541	22.87
335.754	47.44
335.966	10.58
336.179	-40.62
336.392	-20.14
336.604	41.3
336.817	55.64
337.029	20.82
337.242	-16.04
337.454	4.44
337.667	2.39
337.88	45.4
338.092	37.2
338.305	20.82
338.517	-34.47
338.729	0.34
338.942	14.68
339.154	-9.9
339.367	-9.9
339.579	35.16
339.792	2.39
340.004	16.73
340.217	2.39
340.429	-7.85
340.641	80.21
340.854	33.11
341.066	33.11
341.278	-16.04
341.491	14.68
341.703	8.53
341.915	16.73
342.128	-7.85
342.34	-5.8
342.552	61.78
342.764	37.2
342.977	-13.99
343.189	20.82
343.401	45.4
343.613	22.87
343.826	4.44
344.038	2.39
344.25	-22.19
344.462	35.16
344.674	63.83
344.886	-16.04
345.099	41.3
345.311	26.96
345.523	-32.43
345.735	-11.95
345.947	-42.67
346.159	33.11
346.371	-34.47
346.583	-5.8
346.795	29.01
347.007	41.3
347.219	-32.43
347.431	22.87
347.643	16.73
347.855	0.34
348.067	26.96
348.279	-32.43
348.491	37.2
348.703	22.87
348.915	10.58
349.127	45.4
349.339	-48.81
349.551	65.88
349.763	-11.95
349.975	8.53
350.187	16.73
350.399	94.55
350.61	51.54
350.822	61.78
351.034	49.49
351.246	-7.85
351.458	65.88
351.669	4.44
351.881	8.53
352.093	65.88
352.305	37.2
352.517	-32.43
352.728	74.07
352.94	0.34
353.152	96.6
353.363	8.53
353.575	51.54
353.787	106.84
353.999	14.68
354.21	67.92
354.422	12.63
354.633	2.39
354.845	29.01
355.057	4.44
355.268	63.83
355.48	-11.95
355.692	47.44
355.903	18.77
356.115	57.68
356.326	6.49
356.538	96.6
356.749	90.45
356.961	49.49
357.172	57.68
357.384	-50.86
357.595	47.44
357.807	55.64
358.018	16.73
358.23	96.6
358.441	-5.8
358.653	16.73
358.864	8.53
359.075	4.44
359.287	24.92
359.498	61.78
359.709	110.93
359.921	35.16
360.132	39.25
360.344	45.4
360.555	-9.9
360.766	49.49
360.977	29.01
361.189	96.6
361.4	0.34
361.611	10.58
361.823	106.84
362.034	0.34
362.245	-24.23
362.456	43.35
362.667	26.96
362.879	-16.04
363.09	61.78
363.301	80.21
363.512	65.88
363.723	82.26
363.935	24.92
364.146	65.88
364.357	35.16
364.568	-13.99
364.779	-24.23
364.99	45.4
365.201	-30.38
365.412	53.59
365.623	26.96
365.834	53.59
366.045	24.92
366.256	90.45
366.467	63.83
366.678	18.77
366.889	61.78
367.1	0.34
367.311	47.44
367.522	49.49
367.733	94.55
367.944	33.11
368.155	4.44
368.366	45.4
368.577	51.54
368.788	41.3
368.999	-34.47
369.209	-69.29
369.42	20.82
369.631	47.44
369.842	35.16
370.053	-36.52
370.264	22.87
370.474	26.96
370.685	-42.67
370.896	-7.85
371.107	29.01
371.317	82.26
371.528	-22.19
371.739	74.07
371.95	-30.38
372.16	18.77
372.371	-30.38
372.582	12.63
372.792	63.83
373.003	-50.86
373.214	0.34
373.424	82.26
373.635	45.4
373.846	78.16
374.056	-9.9
374.267	-44.71
374.477	-44.71
374.688	41.3
374.898	67.92
375.109	0.34
375.319	16.73
375.53	76.12
375.74	6.49
375.951	-34.47
376.161	16.73
376.372	-11.95
376.582	14.68
376.793	37.2
377.003	-11.95
377.214	37.2
377.424	-1.71
377.635	16.73
377.845	31.06
378.055	43.35
378.266	-32.43
378.476	115.03
378.686	37.2
378.897	-7.85
379.107	-20.14
379.317	63.83
379.528	80.21
379.738	84.31
379.948	-5.8
380.158	-5.8
380.369	12.63
380.579	-11.95
380.789	-52.91
380.999	-38.57
381.21	29.01
381.42	43.35
381.63	0.34
381.84	33.11
382.05	-11.95
382.261	125.27
382.471	-7.85
382.681	41.3
382.891	24.92
383.101	-5.8
383.311	-63.15
383.521	-13.99
383.731	24.92
383.941	0.34
384.151	-38.57
384.361	-3.75
384.571	88.4
384.781	20.82
384.991	26.96
385.201	51.54
385.411	8.53
385.621	0.34
385.831	90.45
386.041	41.3
386.251	31.06
386.461	51.54
386.671	24.92
386.881	49.49
387.091	12.63
387.301	26.96
387.511	-16.04
387.72	74.07
387.93	37.2
388.14	-3.75
388.35	39.25
388.56	29.01
388.769	-26.28
388.979	2.39
389.189	-73.39
389.399	4.44
389.609	-38.57
389.818	43.35
390.028	10.58
390.238	78.16
390.447	4.44
390.657	82.26
390.867	10.58
391.076	45.4
391.286	26.96
391.496	55.64
391.705	26.96
391.915	82.26
392.125	112.98
392.334	-20.14
392.544	-11.95
392.753	0.34
392.963	-1.71
393.172	4.44
393.382	10.58
393.591	92.5
393.801	24.92
394.01	82.26
394.22	16.73
394.429	20.82
394.639	-7.85
394.848	35.16
395.058	115.03
395.267	29.01
395.477	-5.8
395.686	41.3
395.895	-42.67
396.105	69.97
396.314	45.4
396.524	41.3
396.733	4.44
396.942	96.6
397.152	12.63
397.361	-9.9
397.57	-38.57
397.78	51.54
397.989	29.01
398.198	33.11
398.407	82.26
398.617	76.12
398.826	33.11
399.035	51.54
399.244	82.26
399.453	49.49
399.663	24.92
399.872	78.16
400.081	20.82
400.29	102.74
400.499	31.06
400.708	39.25
400.917	88.4
401.127	76.12
401.336	53.59
401.545	160.08
401.754	84.31
401.963	8.53
402.172	45.4
402.381	41.3
402.59	33.11
402.799	49.49
403.008	8.53
403.217	55.64
403.426	78.16
403.635	76.12
403.844	57.68
404.053	4.44
404.262	61.78
404.471	72.02
404.68	125.27
404.888	106.84
405.097	45.4
405.306	123.22
405.515	110.93
405.724	37.2
405.933	29.01
406.142	53.59
406.35	160.08
406.559	119.12
406.768	123.22
406.977	78.16
407.185	135.51
407.394	49.49
407.603	74.07
407.812	41.3
408.02	96.6
408.229	14.68
408.438	129.36
408.646	106.84
408.855	123.22
409.064	127.32
409.272	112.98
409.481	168.27
409.69	166.23
409.898	57.68
410.107	57.68
410.315	166.23
410.524	106.84
410.733	172.37
410.941	115.03
411.15	139.6
411.358	153.94
411.567	180.56
411.775	131.41
411.984	102.74
412.192	133.46
412.401	231.76
412.609	221.52
412.818	248.15
413.026	158.03
413.234	213.33
413.443	215.38
413.651	188.75
413.86	248.15
414.068	278.87
414.276	309.58
414.485	256.34
414.693	356.69
414.901	287.06
415.11	373.07
415.318	205.14
415.526	321.87
415.734	328.02
415.943	262.48
416.151	383.31
416.359	348.5
416.567	317.78
416.776	452.94
416.984	459.09
417.192	454.99
417.4	461.13
417.608	313.68
417.817	444.75
418.025	454.99
418.233	510.29
418.441	418.13
418.649	389.46
418.857	549.2
419.065	657.74
419.273	446.8
419.481	620.88
419.689	659.79
419.897	602.44
420.105	680.27
420.313	706.89
420.521	739.66
420.729	710.99
420.937	678.22
421.145	782.67
421.353	854.34
421.561	840.01
421.769	870.73
421.977	807.24
422.185	883.02
422.393	969.03
422.601	946.5
422.809	1020.23
423.017	1005.89
423.224	1081.67
423.432	1069.38
423.64	1118.53
423.848	1220.93
424.056	1075.52
424.263	1231.17
424.471	1261.89
424.679	1364.29
424.887	1308.99
425.094	1376.58
425.302	1431.87
425.51	1487.17
425.718	1497.41
425.925	1456.45
426.133	1550.65
426.341	1646.91
426.548	1777.98
426.756	1722.68
426.964	1730.87
427.171	1939.77
427.379	1917.24
427.586	1851.71
427.794	2009.4
428.001	2040.12
428.209	2138.42
428.417	2224.44
428.624	2269.49
428.832	2281.78
429.039	2240.82
429.247	2126.13
429.454	2498.86
429.662	2668.84
429.869	2384.18
430.076	2679.08
430.284	2513.2
430.491	2687.28
430.699	2877.74
430.906	2758.96
431.114	2769.2
431.321	2994.47
431.528	3103.01
431.736	3199.27
431.943	3223.84
432.15	3180.84
432.358	3375.39
432.565	3424.55
432.772	3387.68
432.979	3623.2
433.187	3725.6
433.394	3670.3
433.601	4124.95
433.808	3952.92
434.016	4014.36
434.223	4239.64
434.43	4368.66
434.637	4284.69
434.844	4565.26
435.052	4735.25
435.259	4606.22
435.466	4792.59
435.673	4604.18
435.88	4954.38
436.087	5286.15
436.294	5019.91
436.501	5067.02
436.708	5050.63
436.915	5331.2
437.122	5601.54
437.329	5607.68
437.537	5628.16
437.743	5865.72
437.95	5820.67
438.157	6037.75
438.364	6326.52
438.571	6277.37
438.778	6205.69
438.985	6955.24
439.192	6719.73
439.399	6967.53
439.606	6764.78
439.813	7112.94
440.02	7649.5
440.227	7250.15
440.433	7348.45
440.64	7469.28
440.847	7497.95
441.054	7817.44
441.261	8274.14
441.467	8151.26
441.674	8335.57
441.881	8560.85
442.088	8540.37
442.294	8407.25
442.501	8579.28
442.708	9083.08
442.914	9230.54
443.121	9629.89
443.328	9234.63
443.534	10076.35
443.741	9588.93
443.948	9715.91
444.154	10139.83
444.361	10455.22
444.568	10289.34
444.774	10539.19
444.981	10346.68
445.187	10743.99
445.394	11270.31
445.6	11190.44
445.807	12312.73
446.013	11841.7
446.22	11978.91
446.426	12368.02
446.633	12312.73
446.839	12837.01
447.046	12302.49
447.252	13037.71
447.459	13183.12
447.665	13080.72
447.871	13324.43
448.078	14268.54
448.284	13641.86
448.491	13871.23
448.697	14481.53
448.903	14784.63
449.11	14817.4
449.316	14424.19
449.522	15038.58
449.728	15235.18
449.935	15507.56
450.141	15614.06
450.347	15648.87
450.553	15095.92
450.76	15310.96
450.966	16064.61
451.172	15679.59
451.378	16582.74
451.584	16027.74
451.791	16336.99
451.997	16394.33
452.203	16734.29
452.409	16629.85
452.615	16408.67
452.821	15964.26
453.027	15683.69
453.233	16828.5
453.44	15956.07
453.646	16298.08
453.852	16347.23
454.058	16574.55
454.264	15851.62
454.47	16445.53
454.676	16189.53
454.882	16646.23
455.088	15419.5
455.294	15337.58
455.5	15730.79
455.705	15970.4
455.911	15210.61
456.117	14893.17
456.323	14733.43
456.529	13928.58
456.735	14489.72
456.941	14282.88
457.147	13912.19
457.352	13285.51
457.558	13346.95
457.764	13504.65
457.97	12882.06
458.176	12558.49
458.381	12603.54
458.587	12394.65
458.793	12361.88
458.999	11559.08
459.204	12306.59
459.41	12261.53
459.616	11212.97
459.821	11536.55
460.027	11251.88
460.233	10969.26
460.438	10508.47
460.644	10604.72
460.85	10223.8
461.055	9959.61
461.261	10121.4
461.466	9177.29
461.672	9078.99
461.878	9347.27
462.083	9046.22
462.289	8685.78
462.494	8814.8
462.7	8286.42
462.905	8177.88
463.111	8384.73
463.316	8202.46
463.522	8247.51
463.727	8421.59
463.932	8442.07
464.138	8126.68
464.343	8403.16
464.549	8052.95
464.754	8210.65
464.959	8147.16
465.165	7979.23
465.37	7669.98
465.575	7256.29
465.781	7799.01
465.986	7940.32
466.191	7751.9
466.397	7614.69
466.602	7078.12
466.807	7309.54
467.012	7569.63
467.218	7389.41
467.423	7217.38
467.628	7411.94
467.833	7680.22
468.038	7344.36
468.244	7137.51
468.449	7471.33
468.654	7051.5
468.859	7082.22
469.064	7172.33
469.269	6736.11
469.474	6840.56
469.679	6945
469.885	6791.41
470.09	6877.42
470.295	6781.17
470.5	6656.24
470.705	6666.48
470.91	6480.11
471.115	6574.32
471.32	6629.62
471.525	6740.21
471.73	6447.35
471.935	6383.86
472.139	6211.83
472.344	6330.61
472.549	6099.19
472.754	6209.78
472.959	5988.6
473.164	5757.18
473.369	5816.57
473.574	5982.46
473.778	6113.53
473.983	6007.03
474.188	5953.79
474.393	5619.97
474.598	5722.37
474.802	5478.66
475.007	5538.05
475.212	5527.81
475.417	5447.94
475.621	5529.86
475.826	5538.05
476.031	5296.39
476.235	5343.49
476.44	5482.75
476.645	5179.65
476.849	5110.02
477.054	5079.3
477.259	5071.11
477.463	4983.05
477.668	5103.88
477.872	4960.52
478.077	4743.44
478.282	4679.95
478.486	4788.49
478.691	4813.07
478.895	4641.04
479.1	4624.65
479.304	4657.42
479.509	4456.72
479.713	4682
479.918	4555.02
480.122	4331.8
480.326	4606.22
480.531	4649.23
480.735	4589.84
480.94	4481.3
481.144	4538.64
481.348	4307.22
481.553	4501.78
481.757	4350.23
481.961	4497.68
482.166	4434.19
482.37	4401.43
482.574	4346.13
482.778	4413.71
482.983	4493.58
483.187	4419.86
483.391	4442.39
483.595	4401.43
483.8	4333.84
484.004	4323.6
484.208	4380.95
484.412	4454.67
484.616	4450.58
484.821	4440.34
485.025	4280.6
485.229	4321.56
485.433	4202.77
485.637	4473.11
485.841	4325.65
486.045	4161.81
486.249	4366.61
486.453	4274.45
486.657	4329.75
486.861	4313.36
487.065	4081.94
487.269	4186.39
487.473	4159.77
487.677	4426
487.881	4540.69
488.085	4368.66
488.289	4440.34
488.493	4225.3
488.697	4342.04
488.901	4270.36
489.105	4323.6
489.309	4391.19
489.512	4317.46
489.716	4376.85
489.92	4299.03
490.124	4374.8
490.328	4540.69
490.531	4282.64
490.735	4512.02
490.939	4563.22
491.143	4471.06
491.346	4454.67
491.55	4530.45
491.754	4589.84
491.958	4565.26
492.161	4499.73
492.365	4630.8
492.569	4489.49
492.772	4391.19
492.976	4524.3
493.18	4712.72
493.383	4757.77
493.587	4851.98
493.79	4684.05
493.994	4788.49
494.197	4874.51
494.401	4839.69
494.605	4751.63
494.808	4968.71
495.012	4774.16
495.215	4860.17
495.419	5114.12
495.622	4972.81
495.825	5028.1
496.029	4991.24
496.232	5187.85
496.436	5056.78
496.639	5181.7
496.843	5259.53
497.046	5476.61
497.249	5380.36
497.453	5460.23
497.656	5507.33
497.859	5611.78
498.063	5605.63
498.266	5622.02
498.469	5519.62
498.673	5622.02
498.876	5751.04
499.079	5869.82
499.282	5837.05
499.485	6101.24
499.689	5945.59
499.892	5933.31
500.095	6258.93
500.298	6271.22
500.501	6234.36
500.705	6332.66
500.908	6549.75
501.111	6586.61
501.314	6596.85
501.517	6738.16
501.72	6639.86
501.923	6729.97
502.126	6969.58
502.329	6996.2
502.532	7065.83
502.735	7090.41
502.938	7112.94
503.141	7096.55
503.344	7182.57
503.547	7203.05
503.75	7448.8
503.953	7510.24
504.156	7827.68
504.359	7532.77
504.562	7733.47
504.765	7950.56
504.968	7911.64
505.17	8098.01
505.373	8249.56
505.576	8044.76
505.779	8364.25
505.982	8335.57
506.185	8589.52
506.387	8466.64
506.59	8657.11
506.793	8677.58
506.996	8855.76
507.198	9103.56
507.401	9027.79
507.604	9152.71
507.807	9271.5
508.009	9451.72
508.212	9291.98
508.415	9343.17
508.617	9738.43
508.82	9668.8
509.022	9545.92
509.225	9955.52
509.428	9963.71
509.63	10109.12
509.833	10234.04
510.035	10557.62
510.238	10049.72
510.44	10651.83
510.643	10598.58
510.845	10977.45
511.048	10717.36
511.25	10993.84
511.453	10969.26
511.655	11348.14
511.858	11511.97
512.06	11497.64
512.262	11530.41
512.465	11444.39
512.667	11833.5
512.87	11733.15
513.072	11989.15
513.274	12001.44
513.477	12316.83
513.679	12257.43
513.881	12228.76
514.084	12783.76
514.286	12648.6
514.488	12687.51
514.69	13074.57
514.893	13480.07
515.095	13303.95
515.297	13473.93
515.499	13471.88
515.701	13455.5
515.904	13942.91
516.106	13811.84
516.308	13973.63
516.51	14086.27
516.712	14045.31
516.914	14207.1
517.116	14530.68
517.318	14645.37
517.52	14702.71
517.722	14729.33
517.925	15192.17
518.127	15372.39
518.329	15474.79
518.531	15290.48
518.733	15706.21
518.935	15802.47
519.136	15763.56
519.338	16154.72
519.54	16236.64
519.742	16216.16
519.944	16451.67
520.146	16707.67
520.348	16429.15
520.55	16808.02
520.752	16951.38
520.954	17176.66
521.155	16949.33
521.357	17485.9
521.559	17686.6
521.761	17938.5
521.963	17694.79
522.164	18036.8
522.366	18206.78
522.568	18079.81
522.77	18255.93
522.971	18649.14
523.173	18710.58
523.375	18741.3
523.576	18817.08
523.778	18780.21
523.98	19030.07
524.181	19230.77
524.383	19187.76
524.584	19060.79
524.786	19400.75
524.988	19425.32
525.189	19677.23
525.391	20004.9
525.592	20248.61
525.794	20131.87
525.995	20115.49
526.197	20394.01
526.398	20439.07
526.6	20590.62
526.801	20600.86
527.003	20727.83
527.204	20803.61
527.406	20850.71
527.607	20912.15
527.808	21106.71
528.01	20801.56
528.211	20887.57
528.412	21461.01
528.614	21188.63
528.815	21475.34
529.016	21717
529.218	21407.76
529.419	21401.61
529.62	21389.33
529.822	21544.97
530.023	21618.7
530.224	21714.95
530.425	21778.44
530.626	21817.35
530.828	21760.01
531.029	22284.29
531.23	21659.66
531.431	21862.41
531.632	22046.72
531.833	21921.8
532.035	22003.72
532.236	22315.01
532.437	22267.91
532.638	22001.67
532.839	22151.17
533.04	22192.13
533.241	22026.25
533.442	22409.22
533.643	22280.19
533.844	22708.22
534.045	22222.85
534.246	22194.18
534.447	22237.19
534.648	22335.49
534.849	22145.03
535.05	22349.82
535.251	22341.63
535.451	22581.24
535.652	22265.86
535.853	22489.09
536.054	22579.2
536.255	22231.04
536.456	22439.93
536.657	22519.81
536.857	22487.04
537.058	22532.09
537.259	22673.4
537.46	22507.52
537.66	22269.95
537.861	22587.39
538.062	22364.16
538.263	22558.72
538.463	22548.48
538.664	22374.4
538.865	22929.4
539.065	22515.71
539.266	22214.66
539.466	22558.72
539.667	22456.32
539.868	22712.31
540.068	22472.7
540.269	22546.43
540.469	22648.83
540.67	22448.13
540.87	22507.52
541.071	22460.41
541.271	22720.51
541.472	22417.41
541.672	22355.97
541.873	22382.59
542.073	22061.06
542.274	22503.42
542.474	22554.62
542.675	22403.07
542.875	22663.16
543.075	22497.28
543.276	22114.31
543.476	22550.53
543.676	22507.52
543.877	22638.59
544.077	22249.47
544.277	22310.91
544.478	22136.84
544.678	22380.54
544.878	22544.38
545.078	22376.45
545.279	22525.95
545.479	22159.36
545.679	22366.21
545.879	22505.47
546.079	22061.06
546.28	22444.03
546.48	22345.73
546.68	22448.13
546.88	22423.55
547.08	22517.76
547.28	22413.31
547.48	22218.75
547.68	22546.43
547.88	22376.45
548.081	22417.41
548.281	22298.63
548.481	22464.51
548.681	22585.34
548.881	22390.78
549.081	22298.63
549.28	21985.29
549.48	22243.33
549.68	22530.05
549.88	22753.27
550.08	22224.9
550.28	22249.47
550.48	22329.34
550.68	22286.34
550.88	22296.58
551.08	22366.21
551.279	22179.84
551.479	22415.36
551.679	22140.93
551.879	22331.39
552.079	22343.68
552.278	22327.3
552.478	22306.82
552.678	22296.58
552.878	22415.36
553.077	22224.9
553.277	21876.74
553.477	22530.05
553.676	22222.85
553.876	22206.47
554.076	22099.97
554.275	21997.57
554.475	21833.74
554.674	22085.64
554.874	22300.67
555.074	22095.88
555.273	21762.06
555.473	21729.29
555.672	21870.6
555.872	22124.55
556.071	21813.26
556.271	21997.57
556.47	21889.03
556.67	21714.95
556.869	21964.81
557.068	22030.34
557.268	21571.6
557.467	21688.33
557.667	21686.28
557.866	21788.68
558.065	21960.71
558.265	21645.32
558.464	21329.94
558.663	21602.32
558.863	21446.67
559.062	21608.46
559.261	21270.54
559.461	21741.58
559.66	21315.6
559.859	21487.63
560.058	21270.54
560.258	21268.5
560.457	21059.6
560.656	21440.53
560.855	21164.05
561.054	21149.71
561.253	21071.89
561.453	21260.3
561.652	21018.64
561.851	21088.28
562.05	20963.35
562.249	20924.44
562.448	21045.27
562.647	21139.47
562.846	20971.54
563.045	20719.64
563.244	20480.03
563.443	20949.01
563.642	20475.93
563.841	20617.24
564.04	20246.56
564.239	20697.11
564.438	20185.12
564.637	20463.65
564.836	20361.25
565.035	19986.47
565.234	20398.11
565.432	20092.96
565.631	19963.94
565.83	20086.82
566.029	20344.86
566.228	19986.47
566.427	19965.99
566.625	19902.5
566.824	19787.82
567.023	19957.8
567.222	19580.97
567.42	19830.82
567.619	19484.72
567.818	19445.8
568.016	19396.65
568.215	19540.01
568.414	19439.66
568.612	19669.03
568.811	19286.06
569.01	19157.04
569.208	18976.82
569.407	19345.45
569.605	19179.57
569.804	19212.34
570.002	18802.74
570.201	18972.72
570.4	18712.63
570.598	18556.99
570.797	18552.89
570.995	18909.24
571.193	18573.37
571.392	18692.15
571.59	18446.4
571.789	18696.25
571.987	18495.55
572.186	18352.19
572.384	18597.95
572.582	18389.05
572.781	18184.26
572.979	18057.28
573.177	18370.62
573.376	18372.67
573.574	18141.25
573.772	18098.24
573.971	17987.65
574.169	18014.27
574.367	17690.7
574.565	18057.28
574.763	17444.94
574.962	17709.13
575.16	17416.27
575.358	17717.32
575.556	17303.63
575.754	17535.05
575.952	17399.88
576.151	17436.75
576.349	17199.18
576.547	17274.96
576.745	17586.25
576.943	17260.62
577.141	17248.33
577.339	17186.9
577.537	17248.33
577.735	16996.43
577.933	16744.53
578.131	17025.11
578.329	16795.73
578.527	16662.62
578.725	16664.66
578.923	16732.25
579.121	16590.94
579.319	16894.04
579.516	16556.12
579.714	16617.56
579.912	16429.15
580.11	16330.84
580.308	16408.67
580.506	16263.26
580.704	16201.82
580.901	16298.08
581.099	16210.01
581.297	16130.14
581.495	16195.68
581.692	16185.44
581.89	15992.93
582.088	15900.77
582.285	15986.79
582.483	16029.79
582.681	16154.72
582.878	15933.54
583.076	15868
583.274	15784.04
583.471	15614.06
583.669	15442.03
583.866	15616.1
584.064	15521.9
584.262	15550.57
584.459	15794.28
584.657	15356.01
584.854	15583.34
585.052	15052.91
585.249	15259.76
585.447	15298.67
585.644	15478.89
585.841	15126.64
586.039	15161.45
586.236	15040.62
586.434	14991.47
586.631	14983.28
586.828	14985.33
587.026	14895.22
587.223	14764.15
587.42	14942.32
587.618	14551.16
587.815	14618.74
588.012	14622.84
588.21	14581.88
588.407	14747.76
588.604	14616.69
588.801	14471.29
588.999	14286.97
589.196	14450.81
589.393	14434.43
589.59	14323.83
589.787	14293.12
589.984	14223.48
590.182	14102.65
590.379	14022.78
590.576	14047.36
590.773	14098.56
590.97	14008.45
591.167	13856.9
591.364	13953.15
591.561	13852.8
591.758	13740.16
591.955	13858.95
592.152	13887.62
592.349	13824.13
592.546	13492.36
592.743	13748.36
592.94	13602.95
593.137	13566.09
593.334	13668.48
593.531	13449.35
593.727	13639.81
593.924	13561.99
594.121	13258.89
594.318	13314.19
594.515	12949.65
594.712	13199.5
594.908	13328.52
595.105	13299.85
595.302	13099.15
595.499	13027.47
595.696	13086.86
595.892	13084.81
596.089	12843.15
596.286	12818.58
596.482	12857.49
596.679	12845.2
596.876	12742.8
597.072	12689.56
597.269	12693.65
597.466	12808.34
597.662	12609.68
597.859	12546.2
598.055	12822.67
598.252	12466.33
598.448	12472.47
598.645	12480.66
598.841	12208.28
599.038	12388.5
599.234	12279.96
599.431	12413.08
599.627	12050.59
599.824	12304.54
600.02	12099.74
600.217	12107.93
600.413	12103.84
600.609	12050.59
600.806	11903.14
601.002	12048.54
601.198	11864.22
601.395	11856.03
601.591	12001.44
601.787	11948.19
601.984	11843.74
602.18	11821.22
602.376	11731.11
602.572	11817.12
602.769	11862.18
602.965	11712.67
603.161	11794.59
603.357	11827.36
603.553	11559.08
603.75	11382.95
603.946	11550.89
604.142	11487.4
604.338	11264.17
604.534	11401.38
604.73	11174.06
604.926	11319.46
605.122	11282.6
605.318	11346.09
605.514	11292.84
605.71	11208.87
605.906	11059.37
606.102	11038.89
606.298	11219.11
606.494	11243.69
606.69	10987.69
606.886	11161.77
607.082	10741.94
607.278	11071.66
607.474	10664.11
607.67	10907.82
607.866	10823.86
608.062	11047.08
608.257	10780.85
608.453	10989.74
608.649	10928.3
608.845	10789.04
609.041	10670.26
609.236	10713.27
609.432	10784.94
609.628	10733.75
609.824	10545.33
610.019	10541.24
610.215	10477.75
610.411	10401.97
610.606	10559.67
610.802	10684.59
610.998	10336.44
611.193	10518.71
611.389	10385.59
611.584	10436.79
611.78	10406.07
611.976	10307.77
612.171	10420.41
612.367	10324.15
612.562	10289.34
612.758	10107.07
612.953	10340.54
613.149	10336.44
613.344	10100.92
613.539	10279.1
613.735	9957.57
613.93	10041.53
614.126	9961.66
614.321	10143.93
614.517	10076.35
614.712	10000.57
614.907	10008.76
615.103	10123.45
615.298	10010.81
615.493	10148.03
615.688	9797.82
615.884	9984.19
616.079	9740.48
616.274	9844.93
616.47	9849.02
616.665	9789.63
616.86	9877.69
617.055	9674.95
617.25	9793.73
617.445	9767.1
617.641	9513.16
617.836	9748.67
618.031	9562.31
618.226	9705.67
618.421	9539.78
618.616	9670.85
618.811	9332.93
619.006	9605.31
619.201	9365.7
619.396	9574.6
619.591	9103.56
619.786	9111.75
619.981	9390.28
620.176	9171.15
620.371	9132.23
620.566	9263.3
620.761	9183.43
620.956	9078.99
621.151	8935.63
621.346	8851.66
621.541	8997.07
621.735	8933.58
621.93	8857.81
622.125	8644.82
622.32	8855.76
622.515	8653.01
622.709	8702.16
622.904	8372.44
623.099	8534.23
623.294	8532.18
623.488	8468.69
623.683	8546.51
623.878	8528.08
624.072	8564.95
624.267	8394.97
624.462	8304.85
624.656	8206.55
624.851	8284.37
625.046	8198.36
625.24	8147.16
625.435	7954.65
625.629	8079.58
625.824	7948.51
626.018	8030.43
626.213	7747.81
626.407	7620.83
626.602	7647.46
626.796	7807.2
626.991	7766.24
627.185	7837.92
627.38	7708.9
627.574	7631.07
627.768	7520.48
627.963	7379.17
628.157	7485.67
628.352	7405.8
628.546	7420.13
628.74	7508.19
628.935	7514.34
629.129	7325.93
629.323	7282.92
629.517	7184.62
629.712	7176.42
629.906	7276.77
630.1	7139.56
630.294	7020.78
630.489	7098.6
630.683	7190.76
630.877	7020.78
631.071	6844.65
631.265	6877.42
631.459	6695.15
631.653	6799.6
631.848	6775.02
632.042	6770.93
632.236	6797.55
632.43	6676.72
632.624	6580.46
632.818	6488.31
633.012	6586.61
633.206	6521.07
633.4	6584.56
633.594	6459.63
633.788	6471.92
633.982	6439.16
634.176	6297.85
634.369	6377.72
634.563	6394.1
634.757	6338.8
634.951	6277.37
635.145	6242.55
635.339	6254.84
635.533	6203.64
635.726	6097.14
635.92	5978.36
636.114	6086.9
636.308	5923.07
636.501	6082.81
636.695	6045.95
636.889	5845.24
637.083	5882.11
637.276	5755.13
637.47	5794.04
637.664	5914.88
637.857	5800.19
638.051	5837.05
638.244	5646.59
638.438	5720.32
638.632	5730.56
638.825	5521.67
639.019	5603.58
639.212	5531.9
639.406	5587.2
639.599	5454.08
639.793	5499.14
639.986	5355.78
640.18	5513.47
640.373	5331.2
640.567	5290.24
640.76	5380.36
640.954	5372.16
641.147	5210.37
641.34	5300.48
641.534	5284.1
641.727	5153.03
641.92	5087.5
642.114	4981
642.307	4974.86
642.5	5021.96
642.694	5054.73
642.887	5073.16
643.08	4981
643.273	4950.28
643.467	4874.51
643.66	4933.9
643.853	4768.01
644.046	4899.08
644.239	4894.99
644.432	4847.88
644.626	4645.13
644.819	4696.33
645.012	4665.61
645.205	4638.99
645.398	4759.82
645.591	4600.08
645.784	4647.18
645.977	4442.39
646.17	4546.83
646.363	4409.62
646.556	4632.85
646.749	4440.34
646.942	4456.72
647.135	4348.18
647.328	4362.51
647.521	4440.34
647.714	4352.27
647.907	4391.19
648.099	4311.32
648.292	4403.47
648.485	4284.69
648.678	4344.08
648.871	4192.53
649.064	4065.56
649.256	4161.81
649.449	4155.67
649.642	4188.44
649.835	4112.66
650.027	4053.27
650.22	4034.84
650.413	4096.28
650.605	4057.37
650.798	4006.17
650.991	3973.4
651.183	4047.13
651.376	3891.48
651.568	3914.01
651.761	3985.69
651.954	3946.78
652.146	3715.36
652.339	3926.3
652.531	3891.48
652.724	3858.71
652.916	3680.54
653.109	3696.92
653.301	3670.3
653.494	3658.01
653.686	3590.43
653.879	3756.32
654.071	3623.2
654.263	3563.81
654.456	3670.3
654.648	3744.03
654.84	3524.9
655.033	3662.11
655.225	3631.39
655.417	3531.04
655.61	3512.61
655.802	3528.99
655.994	3520.8
656.186	3359.01
656.379	3473.7
656.571	3395.87
656.763	3303.71
656.955	3389.73
657.148	3375.39
657.34	3395.87
657.532	3221.8
657.724	3262.76
657.916	3359.01
658.108	3223.84
658.3	3260.71
658.492	3207.46
658.684	3270.95
658.876	3014.95
659.068	3219.75
659.26	3146.02
659.452	3238.18
659.644	3166.5
659.836	3076.39
660.028	3084.58
660.22	3096.87
660.412	3049.77
660.604	3023.14
660.796	3062.05
660.988	3125.54
661.18	3066.15
661.372	3068.2
661.563	2859.31
661.755	3066.15
661.947	2906.41
662.139	2867.5
662.331	2887.98
662.522	3096.87
662.714	2949.42
662.906	2883.88
663.097	2820.39
663.289	2804.01
663.481	2746.67
663.673	2842.92
663.864	2740.52
664.056	2799.91
664.247	2756.91
664.439	2822.44
664.631	2812.2
664.822	2705.71
665.014	2810.15
665.205	2777.39
665.397	2619.69
665.588	2584.88
665.78	2556.21
665.971	2591.02
666.163	2492.72
666.354	2621.74
666.546	2576.69
666.737	2609.45
666.929	2511.15
667.12	2646.32
667.311	2515.25
667.503	2535.73
667.694	2548.01
667.885	2402.61
668.077	2380.08
668.268	2416.94
668.459	2484.53
668.651	2416.94
668.842	2545.97
669.033	2414.9
669.224	2502.96
669.416	2435.38
669.607	2451.76
669.798	2480.43
669.989	2416.94
670.18	2459.95
670.371	2312.5
670.563	2277.68
670.754	2406.7
670.945	2398.51
671.136	2244.92
671.327	2337.07
671.518	2212.15
671.709	2384.18
671.9	2345.27
672.091	2326.83
672.282	2330.93
672.473	2277.68
672.664	2253.11
672.855	2150.71
673.046	2238.77
673.237	2269.49
673.428	2171.19
673.619	2201.91
673.809	2244.92
674	2222.39
674.191	2236.72
674.382	2171.19
674.573	2044.21
674.764	2101.56
674.954	2140.47
675.145	2066.74
675.336	2144.56
675.527	2056.5
675.717	2101.56
675.908	2091.32
676.099	2060.6
676.289	2179.38
676.48	2015.54
676.671	2033.97
676.861	2099.51
677.052	2119.99
677.243	1943.86
677.433	2054.45
677.624	2146.61
677.814	1954.1
678.005	2019.64
678.195	2025.78
678.386	1943.86
678.576	1913.14
678.767	1880.38
678.957	1872.18
679.148	1950.01
679.338	1870.14
679.529	2044.21
679.719	1907
679.909	1939.77
680.1	1909.05
680.29	1843.51
680.481	1886.52
680.671	1890.62
680.861	1833.27
681.052	1902.9
681.242	1962.3
681.432	1857.85
681.622	1952.06
681.813	1769.79
682.003	1861.94
682.193	1816.89
682.383	1876.28
682.573	1755.45
682.764	1800.51
682.954	1902.9
683.144	1777.98
683.334	1851.71
683.524	1747.26
683.714	1853.75
683.904	1816.89
684.094	1878.33
684.284	1765.69
684.474	1866.04
684.664	1792.31
684.854	1788.22
685.044	1859.9
685.234	1753.4
685.424	1724.73
685.614	1773.88
685.804	1790.27
685.994	1806.65
686.184	1722.68
686.374	1749.31
686.564	1753.4
686.753	1726.78
686.943	1737.02
687.133	1780.03
687.323	1728.83
687.513	1802.55
687.702	1691.96
687.892	1642.81
688.082	1737.02
688.272	1708.35
688.461	1630.52
688.651	1689.92
688.841	1691.96
689.03	1741.11
689.22	1694.01
689.41	1644.86
689.599	1569.09
689.789	1591.61
689.979	1673.53
690.168	1722.68
690.358	1683.77
690.547	1616.19
690.737	1716.54
690.926	1657.15
691.116	1638.72
691.305	1780.03
691.495	1505.6
691.684	1579.33
691.874	1583.42
692.063	1694.01
692.252	1657.15
692.442	1646.91
692.631	1526.08
692.82	1593.66
693.01	1595.71
693.199	1626.43
693.388	1618.24
693.578	1569.09
693.767	1526.08
693.956	1589.57
694.146	1552.7
694.335	1581.37
694.524	1616.19
694.713	1579.33
694.902	1438.02
695.092	1622.33
695.281	1573.18
695.47	1399.1
695.659	1483.07
695.848	1403.2
696.037	1487.17
696.226	1491.26
696.415	1485.12
696.604	1464.64
696.793	1540.41
696.982	1425.73
697.171	1495.36
697.36	1497.41
697.549	1532.22
697.738	1474.88
697.927	1483.07
698.116	1421.63
698.305	1421.63
698.494	1524.03
698.683	1444.16
698.872	1524.03
699.061	1456.45
699.25	1526.08
699.438	1503.55
699.627	1495.36
699.816	1483.07
700.005	1386.82
700.193	1440.06
700.382	1521.98
700.571	1456.45
700.76	1534.27
700.948	1569.09
701.137	1476.93
701.326	1409.34
701.514	1501.5
701.703	1429.82
701.892	1481.02
702.08	1462.59
702.269	1538.37
702.457	1397.06
702.646	1503.55
702.834	1474.88
703.023	1530.17
703.212	1526.08
703.4	1534.27
703.589	1444.16
703.777	1505.6
703.965	1483.07
704.154	1573.18
704.342	1483.07
704.531	1493.31
704.719	1487.17
704.907	1456.45
705.096	1567.04
705.284	1438.02
705.472	1524.03
705.661	1542.46
705.849	1433.92
706.037	1489.21
706.226	1534.27
706.414	1513.79
706.602	1542.46
706.79	1628.48
706.979	1413.44
707.167	1401.15
707.355	1440.06
707.543	1550.65
707.731	1589.57
707.919	1599.8
708.107	1507.65
708.296	1478.97
708.484	1507.65
708.672	1612.09
708.86	1489.21
709.048	1562.94
709.236	1440.06
709.424	1542.46
709.612	1560.89
709.8	1466.69
709.988	1483.07
710.176	1538.37
710.364	1431.87
710.551	1515.84
710.739	1562.94
710.927	1478.97
711.115	1478.97
711.303	1497.41
711.491	1507.65
711.679	1515.84
711.866	1567.04
712.054	1599.8
712.242	1438.02
712.43	1581.37
712.617	1603.9
712.805	1540.41
712.993	1567.04
713.181	1599.8
713.368	1450.3
713.556	1605.95
713.744	1513.79
713.931	1595.71
714.119	1442.11
714.306	1474.88
714.494	1532.22
714.682	1558.85
714.869	1538.37
715.057	1526.08
715.244	1536.32
715.432	1581.37
715.619	1489.21
715.807	1507.65
715.994	1534.27
716.182	1544.51
716.369	1640.76
716.556	1612.09
716.744	1577.28
716.931	1538.37
717.119	1622.33
717.306	1466.69
717.493	1483.07
717.681	1542.46
717.868	1589.57
718.055	1550.65
718.242	1501.5
718.43	1491.26
718.617	1517.89
718.804	1503.55
718.991	1608
719.179	1489.21
719.366	1556.8
719.553	1446.21
719.74	1556.8
719.927	1431.87
720.114	1567.04
720.301	1577.28
720.488	1581.37
720.676	1542.46
720.863	1560.89
721.05	1583.42
721.237	1468.73
721.424	1651
721.611	1558.85
721.798	1481.02
721.985	1476.93
722.172	1560.89
722.358	1524.03
722.545	1593.66
722.732	1587.52
722.919	1571.13
723.106	1532.22
723.293	1567.04
723.48	1587.52
723.667	1521.98
723.853	1509.69
724.04	1554.75
724.227	1548.61
724.414	1622.33
724.6	1444.16
724.787	1614.14
724.974	1605.95
725.161	1503.55
725.347	1593.66
725.534	1620.28
725.72	1558.85
725.907	1599.8
726.094	1558.85
726.28	1497.41
726.467	1569.09
726.653	1556.8
726.84	1560.89
727.027	1587.52
727.213	1493.31
727.4	1585.47
727.586	1605.95
727.773	1468.73
727.959	1474.88
728.145	1581.37
728.332	1476.93
728.518	1466.69
728.705	1511.74
728.891	1595.71
729.077	1589.57
729.264	1491.26
729.45	1550.65
729.636	1509.69
729.823	1614.14
730.009	1589.57
730.195	1540.41
730.382	1438.02
730.568	1474.88
730.754	1476.93
730.94	1538.37
731.126	1614.14
731.313	1573.18
731.499	1519.93
731.685	1595.71
731.871	1429.82
732.057	1515.84
732.243	1626.43
732.429	1548.61
732.615	1571.13
732.801	1648.96
732.987	1435.97
733.173	1540.41
733.359	1450.3
733.545	1503.55
733.731	1546.56
733.917	1507.65
734.103	1476.93
734.289	1575.23
734.475	1542.46
734.661	1526.08
734.847	1548.61
735.033	1448.26
735.219	1519.93
735.404	1716.54
735.59	1536.32
735.776	1452.35
735.962	1542.46
736.148	1462.59
736.333	1392.96
736.519	1452.35
736.705	1454.4
736.89	1562.94
737.076	1491.26
737.262	1413.44
737.447	1544.51
737.633	1579.33
737.819	1519.93
738.004	1386.82
738.19	1362.24
738.375	1558.85
738.561	1530.17
738.747	1388.86
738.932	1435.97
739.118	1499.45
739.303	1472.83
739.489	1405.25
739.674	1454.4
739.859	1419.58
740.045	1433.92
740.23	1372.48
740.416	1372.48
740.601	1438.02
740.786	1370.43
740.972	1421.63
741.157	1401.15
741.342	1397.06
741.528	1380.67
741.713	1335.62
741.898	1407.3
742.084	1405.25
742.269	1386.82
742.454	1376.58
742.639	1456.45
742.824	1384.77
743.01	1419.58
743.195	1265.99
743.38	1399.1
743.565	1343.81
743.75	1419.58
743.935	1249.6
744.12	1413.44
744.305	1349.95
744.49	1362.24
744.675	1368.38
744.86	1327.43
745.045	1233.22
745.23	1323.33
745.415	1325.38
745.6	1313.09
745.785	1278.27
745.97	1202.5
746.155	1302.85
746.34	1306.95
746.525	1286.47
746.71	1284.42
746.895	1161.54
747.079	1229.12
747.264	1249.6
747.449	1202.5
747.634	1124.68
747.819	1257.79
748.003	1233.22
748.188	1182.02
748.373	1247.55
748.557	1272.13
748.742	1196.36
748.927	1165.64
749.111	1126.72
749.296	1196.36
749.481	1075.52
749.665	1190.21
749.85	1081.67
750.034	1081.67
750.219	1040.71
750.404	1093.96
750.588	1081.67
750.773	1130.82
750.957	1014.09
751.141	1034.57
751.326	1061.19
751.51	1081.67
751.695	1063.24
751.879	1040.71
752.064	1044.81
752.248	991.56
752.432	1081.67
752.617	1087.81
752.801	1069.38
752.985	1046.85
753.17	1012.04
753.354	1007.94
753.538	928.07
753.722	993.61
753.907	1016.13
754.091	885.06
754.275	1079.62
754.459	1007.94
754.643	950.6
754.828	905.54
755.012	891.21
755.196	934.22
755.38	977.22
755.564	997.7
755.748	870.73
755.932	979.27
756.116	928.07
756.3	928.07
756.484	948.55
756.668	987.46
756.852	840.01
757.036	893.26
757.22	891.21
757.404	801.1
757.588	862.54
757.772	860.49
757.956	850.25
758.14	844.1
758.323	819.53
758.507	862.54
758.691	897.35
758.875	893.26
759.059	844.1
759.242	797
759.426	741.71
759.61	762.19
759.794	823.62
759.977	735.56
760.161	797
760.345	799.05
760.528	811.34
760.712	790.86
760.895	741.71
761.079	794.95
761.263	813.38
761.446	731.47
761.63	753.99
761.813	772.43
761.997	758.09
762.18	813.38
762.364	694.6
762.547	702.79
762.731	684.36
762.914	778.57
763.098	747.85
763.281	692.55
763.464	706.89
763.648	704.84
763.831	663.88
764.015	713.03
764.198	713.03
764.381	594.25
764.564	667.98
764.748	676.17
764.931	651.6
765.114	698.7
765.297	684.36
765.481	663.88
765.664	723.27
765.847	649.55
766.03	733.51
766.213	622.92
766.397	719.18
766.58	641.36
766.763	612.68
766.946	622.92
767.129	635.21
767.312	710.99
767.495	622.92
767.678	590.16
767.861	692.55
768.044	667.98
768.227	696.65
768.41	620.88
768.593	604.49
768.776	659.79
768.959	592.2
769.142	678.22
769.324	579.92
769.507	536.91
769.69	637.26
769.873	629.07
770.056	649.55
770.239	627.02
770.421	639.31
770.604	596.3
770.787	684.36
770.97	672.08
771.152	610.64
771.335	690.51
771.518	526.67
771.7	592.2
771.883	586.06
772.066	520.53
772.248	624.97
772.431	483.66
772.613	577.87
772.796	532.81
772.978	579.92
773.161	635.21
773.343	559.44
773.526	506.19
773.708	588.11
773.891	516.43
774.073	524.62
774.256	547.15
774.438	590.16
774.621	520.53
774.803	569.68
774.985	530.77
775.168	588.11
775.35	471.37
775.532	477.52
775.715	465.23
775.897	545.1
776.079	428.37
776.261	493.9
776.444	467.28
776.626	467.28
776.808	504.14
776.99	479.57
777.173	567.63
777.355	477.52
777.537	444.75
777.719	551.24
777.901	463.18
778.083	485.71
778.265	389.46
778.447	448.85
778.629	461.13
778.811	438.61
778.993	477.52
779.175	440.65
779.357	454.99
779.539	407.89
779.721	477.52
779.903	491.85
780.085	454.99
780.267	418.13
780.449	461.13
780.631	440.65
780.812	420.17
780.994	366.93
781.176	418.13
781.358	495.95
781.54	489.81
781.721	485.71
781.903	368.98
782.085	407.89
782.267	444.75
782.448	401.74
782.63	311.63
782.812	395.6
782.993	373.07
783.175	409.94
783.357	387.41
783.538	389.46
783.72	303.44
783.901	352.59
784.083	342.35
784.264	342.35
784.446	338.26
784.627	323.92
784.809	385.36
784.99	289.1
785.172	373.07
785.353	301.39
785.535	328.02
785.716	311.63
785.897	323.92
786.079	258.39
786.26	321.87
786.441	303.44
786.623	270.67
786.804	289.1
786.985	274.77
787.167	287.06
787.348	354.64
787.529	336.21
787.71	231.76
787.891	389.46
788.073	336.21
788.254	285.01
788.435	323.92
788.616	368.98
788.797	203.09
788.978	278.87
789.159	319.82
789.34	344.4
789.522	254.29
789.703	215.38
789.884	325.97
790.065	268.63
790.246	276.82
790.427	262.48
790.607	336.21
790.788	276.82
790.969	229.71
791.15	291.15
791.331	213.33
791.512	246.1
791.693	162.13
791.874	270.67
792.054	213.33
792.235	239.95
792.416	168.27
792.597	184.66
792.778	266.58
792.958	291.15
793.139	141.65
793.32	258.39
793.5	123.22
793.681	174.42
793.862	186.71
794.042	174.42
794.223	182.61
794.404	127.32
794.584	201.04
794.765	196.95
794.945	151.89
795.126	196.95
795.306	256.34
795.487	186.71
795.667	106.84
795.848	168.27
796.028	299.34
796.209	233.81
796.389	207.19
796.57	229.71
796.75	217.43
796.93	209.23
797.111	129.36
797.291	151.89
797.471	174.42
797.652	207.19
797.832	149.84
798.012	168.27
798.192	178.51
798.373	215.38
798.553	237.91
798.733	248.15
798.913	166.23
799.093	155.99
799.274	285.01
799.454	256.34
799.634	227.67
799.814	254.29
799.994	213.33
800.174	180.56
800.354	201.04
800.534	139.6
800.714	192.85
800.894	164.18
801.074	176.47
801.254	158.03
801.434	186.71
801.614	160.08
801.794	108.88
801.974	602.44
802.154	201.04
802.334	201.04
802.514	158.03
802.693	178.51
802.873	211.28
803.053	223.57
803.233	137.56
803.413	137.56
803.592	115.03
803.772	110.93
803.952	110.93
804.131	123.22
804.311	176.47
804.491	194.9
804.67	129.36
804.85	57.68
805.03	153.94
805.209	92.5
805.389	110.93
805.568	115.03
805.748	129.36
805.928	115.03
806.107	100.69
806.287	166.23
806.466	129.36
806.646	53.59
806.825	100.69
807.004	143.7
807.184	125.27
807.363	225.62
807.543	125.27
807.722	86.36
807.901	123.22
808.081	133.46
808.26	141.65
808.439	110.93
808.619	61.78
808.798	90.45
808.977	160.08
809.156	164.18
809.336	160.08
809.515	153.94
809.694	96.6
809.873	164.18
810.052	176.47
810.231	172.37
810.411	43.35
810.59	108.88
810.769	86.36
810.948	125.27
811.127	196.95
811.306	131.41
811.485	119.12
811.664	115.03
811.843	145.75
812.022	82.26
812.201	94.55
812.38	123.22
812.559	37.2
812.737	65.88
812.916	94.55
813.095	108.88
813.274	43.35
813.453	76.12
813.632	78.16
813.811	104.79
813.989	12.63
814.168	92.5
814.347	61.78
814.526	96.6
814.704	190.8
814.883	67.92
815.062	123.22
815.24	121.17
815.419	-5.8
815.598	74.07
815.776	69.97
815.955	76.12
816.133	74.07
816.312	131.41
816.49	98.64
816.669	117.08
816.847	143.7
817.026	166.23
817.204	74.07
817.383	143.7
817.561	67.92
817.74	104.79
817.918	90.45
818.097	139.6
818.275	43.35
818.453	76.12
818.632	98.64
818.81	123.22
818.988	26.96
819.167	92.5
819.345	51.54
819.523	145.75
819.701	182.61
819.879	61.78
820.058	96.6
820.236	149.84
820.414	78.16
820.592	98.64
820.77	82.26
820.948	108.88
821.127	106.84
821.305	41.3
821.483	37.2
821.661	94.55
821.839	106.84
822.017	67.92
822.195	115.03
822.373	49.49
822.551	16.73
822.729	78.16
822.907	96.6
823.085	-46.76
823.262	51.54
823.44	166.23
823.618	69.97
823.796	33.11
823.974	74.07
824.152	35.16
824.329	59.73
824.507	6.49
824.685	78.16
824.863	49.49
825.04	63.83
825.218	90.45
825.396	37.2
825.574	67.92
825.751	45.4
825.929	49.49
826.107	37.2
826.284	106.84
826.462	86.36
826.639	115.03
826.817	49.49
826.994	98.64
827.172	131.41
827.349	69.97
827.527	143.7
827.704	-40.62
827.882	117.08
828.059	121.17
828.237	6.49
828.414	8.53
828.591	24.92
828.769	63.83
828.946	96.6
829.124	-7.85
829.301	37.2
829.478	102.74
829.655	63.83
829.833	78.16
830.01	22.87
830.187	24.92
830.364	61.78
830.542	63.83
830.719	24.92
830.896	88.4
831.073	74.07
831.25	35.16
831.427	49.49
831.604	37.2
831.782	41.3
831.959	67.92
832.136	35.16
832.313	57.68
832.49	-34.47
832.667	94.55
832.844	82.26
833.021	65.88
833.198	43.35
833.374	76.12
833.551	59.73
833.728	92.5
833.905	61.78
834.082	18.77
834.259	59.73
834.436	96.6
834.612	16.73
834.789	35.16
834.966	41.3
835.143	49.49
835.319	90.45
835.496	45.4
835.673	84.31
835.85	133.46
836.026	29.01
836.203	141.65
836.38	-1.71
836.556	29.01
836.733	-24.23
836.909	90.45
837.086	24.92
837.262	12.63
837.439	12.63
837.616	72.02
837.792	-7.85
837.968	82.26
838.145	-30.38
838.321	69.97
838.498	57.68
838.674	59.73
838.851	57.68
839.027	2.39
839.203	0.34
839.38	80.21
839.556	94.55
839.732	47.44
839.909	24.92
840.085	110.93
840.261	-13.99
840.437	31.06
840.614	-24.23
840.79	33.11
840.966	51.54
841.142	-1.71
841.318	0.34
841.494	100.69
841.671	45.4
841.847	41.3
842.023	94.55
842.199	51.54
842.375	45.4
842.551	-63.15
842.727	47.44
842.903	43.35
843.079	-36.52
843.255	65.88
843.431	53.59
843.607	82.26
843.783	-24.23
843.959	74.07
844.134	0.34
844.31	-11.95
844.486	65.88
844.662	-16.04
844.838	12.63
845.013	0.34
845.189	4.44
845.365	63.83
845.541	82.26
845.716	41.3
845.892	53.59
846.068	-5.8
846.244	29.01
846.419	24.92
846.595	86.36
846.77	59.73
846.946	31.06
847.122	-67.24
847.297	61.78
847.473	53.59
847.648	35.16
847.824	127.32
847.999	45.4
848.175	-26.28
848.35	-1.71
848.526	41.3
848.701	0.34
848.876	63.83
849.052	6.49
849.227	51.54
849.403	16.73
849.578	33.11
849.753	16.73
849.929	22.87
850.104	8.53
850.279	10.58
850.454	82.26
850.63	-1.71
850.805	16.73
850.98	-18.09
851.155	35.16
851.33	2.39
851.505	-46.76
851.681	0.34
851.856	84.31
852.031	0.34
852.206	-7.85
852.381	31.06
852.556	-7.85
852.731	20.82
852.906	20.82
853.081	43.35
853.256	20.82
853.431	33.11
853.606	-9.9
853.781	31.06
853.956	6.49
854.131	26.96
854.305	20.82
854.48	-28.33
854.655	10.58
854.83	55.64
855.005	31.06
855.18	8.53
855.354	24.92
855.529	61.78
855.704	33.11
855.879	24.92
856.053	-7.85
856.228	57.68
856.403	12.63
856.577	43.35
856.752	-52.91
856.926	-7.85
857.101	10.58
857.276	-40.62
857.45	-18.09
857.625	22.87
857.799	-11.95
857.974	61.78
858.148	37.2
858.323	24.92
858.497	20.82
858.672	6.49
858.846	37.2
859.02	78.16
859.195	-32.43
859.369	-13.99
859.543	49.49
859.718	0.34
859.892	41.3
860.066	8.53
860.241	24.92
860.415	2.39
860.589	-16.04
860.763	-5.8
860.938	-34.47
861.112	63.83
861.286	-32.43
861.46	14.68
861.634	51.54
861.808	33.11
861.982	-40.62
862.157	18.77
862.331	8.53
862.505	-24.23
862.679	-9.9
862.853	-3.75
863.027	-36.52
863.201	57.68
863.375	-7.85
863.549	-9.9
863.722	24.92
863.896	-44.71
864.07	14.68
864.244	-7.85
864.418	24.92
864.592	22.87
864.766	8.53
864.939	-5.8
865.113	-20.14
865.287	18.77
865.461	-5.8
865.634	-11.95
865.808	8.53
865.982	14.68
866.156	-13.99
866.329	0.34
866.503	-28.33
866.676	39.25
866.85	18.77
867.024	-20.14
867.197	49.49
867.371	22.87
867.544	-11.95
867.718	-5.8
867.891	16.73
868.065	-26.28
868.238	24.92
868.412	51.54
868.585	16.73
868.759	0.34
868.932	45.4
869.105	10.58
869.279	4.44
869.452	43.35
869.625	14.68
869.799	-26.28
869.972	12.63
870.145	-32.43
870.319	12.63
870.492	53.59
870.665	-1.71
870.838	33.11
871.011	-52.91
871.185	-32.43
871.358	-16.04
871.531	35.16
871.704	-20.14
871.877	41.3
872.05	33.11
872.223	-28.33
872.396	-13.99
872.569	-7.85
872.742	0.34
872.915	69.97
873.088	72.02
873.261	43.35
873.434	-11.95
873.607	-5.8
873.78	-65.19
873.953	-16.04
874.126	26.96
874.299	-16.04
874.471	33.11
874.644	-48.81
874.817	63.83
874.99	16.73
875.163	47.44
875.335	-9.9
875.508	-36.52
875.681	49.49
875.853	-24.23
876.026	10.58
876.199	59.73
876.371	51.54
876.544	59.73
876.717	-13.99
876.889	41.3
877.062	-44.71
877.234	-16.04
877.407	43.35
877.579	-1.71
877.752	-77.48
877.924	94.55
878.097	-32.43
878.269	43.35
878.442	16.73
878.614	-3.75
878.786	37.2
878.959	-16.04
879.131	39.25
879.303	-40.62
879.476	-28.33
879.648	-24.23
879.82	61.78
879.993	22.87
880.165	29.01
880.337	-63.15
880.509	16.73
880.681	-44.71
880.854	49.49
881.026	29.01
881.198	8.53
881.37	33.11
881.542	-26.28
881.714	14.68
881.886	-32.43
882.058	47.44
882.23	57.68
882.402	-83.63
882.574	49.49
882.746	-13.99
882.918	39.25
883.09	4.44
883.262	41.3
883.434	-65.19
883.606	-3.75
883.778	-11.95
883.95	14.68
884.122	24.92
884.293	51.54
884.465	-40.62
884.637	39.25
884.809	22.87
884.98	-32.43
885.152	-11.95
885.324	-18.09
885.496	12.63
885.667	43.35
885.839	-50.86
886.011	127.32
886.182	51.54
886.354	-40.62
886.525	37.2
886.697	59.73
886.869	59.73
887.04	0.34
887.212	-22.19
887.383	20.82
887.555	-13.99
887.726	-16.04
887.897	33.11
888.069	-7.85
888.24	10.58
888.412	-9.9
888.583	20.82
888.754	-1.71
888.926	-30.38
889.097	-52.91
889.268	-40.62
889.44	-20.14
889.611	10.58
889.782	-61.1
889.953	2.39
890.125	35.16
890.296	-16.04
890.467	10.58
890.638	-1.71
890.809	-26.28
890.98	-13.99
891.151	14.68
891.323	41.3
891.494	29.01
891.665	-46.76
891.836	29.01
892.007	-32.43
892.178	16.73
892.349	37.2
892.52	-30.38
892.691	-7.85
892.862	29.01
893.032	-16.04
893.203	-65.19
893.374	-57
893.545	12.63
893.716	-30.38
893.887	-22.19
894.057	0.34
894.228	-71.34
894.399	-40.62
894.57	35.16
894.74	6.49
894.911	-40.62
895.082	12.63
895.253	12.63
895.423	4.44
895.594	59.73
895.764	-102.06
895.935	6.49
896.106	-7.85
896.276	45.4
896.447	-9.9
896.617	24.92
896.788	-63.15
896.958	61.78
897.129	10.58
897.299	-69.29
897.47	-16.04
897.64	33.11
897.81	6.49
897.981	-42.67
898.151	-22.19
898.322	26.96
898.492	-7.85
898.662	-16.04
898.832	-22.19
899.003	-32.43
899.173	-11.95
899.343	-7.85
899.513	-22.19
