Data from USB4F104151__27__12-17-40-669.txt Node

Date: Wed Feb 19 12:17:40 EST 2025
User: louis
Spectrometer: USB4F10415
Trigger mode: 4
Integration Time (sec): 2.250200E-1
Scans to average: 1
Electric dark correction enabled: true
Nonlinearity correction enabled: false
Boxcar width: 0
XAxis mode: Wavelengths
Number of Pixels in Spectrum: 3648
>>>>>Begin Spectral Data<<<<<
178.204	-800.24
178.424	-800.24
178.644	-800.24
178.864	-796.15
179.084	-871.92
179.304	113.15
179.524	129.53
179.744	-3.58
179.964	-192
180.184	242.17
180.404	207.36
180.624	-280.06
180.844	-73.21
181.064	-3.58
181.283	193.02
181.503	-198.14
181.723	-134.65
181.943	-24.06
182.163	424.44
182.383	-255.48
182.602	-146.94
182.822	430.59
183.042	252.41
183.262	-204.28
183.482	-267.77
183.701	150.01
183.921	246.27
184.141	-153.09
184.361	-171.52
184.58	231.93
184.8	293.37
185.02	-175.61
185.239	-60.93
185.459	293.37
185.679	395.77
185.898	-273.92
186.118	-239.1
186.338	227.84
186.557	328.19
186.777	-239.1
186.997	-212.48
187.216	197.12
187.436	465.4
187.655	-105.98
187.875	-116.22
188.095	193.02
188.314	324.09
188.534	-89.6
188.753	-206.33
188.973	342.52
189.192	442.87
189.412	-245.24
189.631	-169.47
189.851	315.9
190.07	563.7
190.29	-218.62
190.509	-208.38
190.729	242.17
190.948	324.09
191.168	-34.3
191.387	-136.7
191.607	213.5
191.826	303.61
192.045	-163.33
192.265	-216.57
192.484	350.71
192.704	285.18
192.923	-206.33
193.142	14.85
193.362	340.47
193.581	416.25
193.8	-181.76
194.02	-146.94
194.239	231.93
194.458	279.04
194.678	-124.41
194.897	-216.57
195.116	283.13
195.335	285.18
195.555	-130.56
195.774	-183.81
195.993	344.57
196.212	201.21
196.432	-179.71
196.651	-206.33
196.87	147.97
197.089	602.61
197.308	-232.96
197.528	-77.31
197.747	37.38
197.966	209.4
198.185	-28.16
198.404	-243.2
198.623	264.7
198.842	393.72
199.062	-108.03
199.281	-56.83
199.5	272.89
199.719	270.84
199.938	-216.57
200.157	-134.65
200.376	344.57
200.595	385.53
200.814	-99.84
201.033	-181.76
201.252	397.82
201.471	233.98
201.69	-97.79
201.909	-89.6
202.128	274.94
202.347	231.93
202.566	-105.98
202.785	-235
203.004	131.58
203.223	522.74
203.442	-79.36
203.661	-249.34
203.879	295.42
204.098	414.2
204.317	-159.23
204.536	-46.59
204.755	463.35
204.974	348.67
205.193	-286.2
205.411	-36.35
205.63	385.53
205.849	397.82
206.068	-189.95
206.287	-232.96
206.505	442.87
206.724	145.92
206.943	-171.52
207.162	-255.48
207.381	236.03
207.599	174.59
207.818	-120.32
208.037	-232.96
208.255	199.16
208.474	205.31
208.693	-169.47
208.911	-177.66
209.13	289.28
209.349	369.15
209.567	20.99
209.786	-148.99
210.005	352.76
210.223	244.22
210.442	-333.31
210.661	-220.67
210.879	256.51
211.098	295.42
211.316	-108.03
211.535	-196.09
211.753	313.85
211.972	332.28
212.191	-71.17
212.409	-146.94
212.628	336.38
212.846	137.73
213.065	-208.38
213.283	-93.69
213.502	141.82
213.72	233.98
213.938	-196.09
214.157	-120.32
214.375	348.67
214.594	229.88
214.812	-108.03
215.031	-130.56
215.249	215.55
215.467	276.99
215.686	-60.93
215.904	-81.41
216.122	213.5
216.341	434.68
216.559	-48.64
216.778	-103.93
216.996	463.35
217.214	156.16
217.432	-87.55
217.651	-257.53
217.869	238.08
218.087	287.23
218.306	-267.77
218.524	-222.72
218.742	236.03
218.96	365.05
219.179	-192
219.397	-144.89
219.615	498.17
219.833	328.19
220.051	-224.76
220.27	-71.17
220.488	346.62
220.706	369.15
220.924	-241.15
221.142	-198.14
221.36	252.41
221.578	242.17
221.796	-183.81
222.015	-58.88
222.233	207.36
222.451	360.95
222.669	-85.5
222.887	-22.02
223.105	74.24
223.323	244.22
223.541	-118.27
223.759	-24.06
223.977	225.79
224.195	455.16
224.413	-101.89
224.631	-167.42
224.849	248.32
225.067	524.79
225.285	-52.74
225.503	-165.37
225.721	-3.58
225.939	217.6
226.157	-44.54
226.375	14.85
226.592	162.3
226.81	137.73
227.028	-50.69
227.246	-122.37
227.464	346.62
227.682	338.43
227.9	-167.42
228.117	-101.89
228.335	244.22
228.553	182.78
228.771	-185.85
228.989	-181.76
229.206	328.19
229.424	90.62
229.642	-105.98
229.86	-122.37
230.077	506.36
230.295	217.6
230.513	-15.87
230.731	-142.85
230.948	340.47
231.166	348.67
231.384	-58.88
231.601	-175.61
231.819	377.34
232.037	107.01
232.254	-17.92
232.472	-181.76
232.689	78.33
232.907	307.71
233.125	-202.24
233.342	-204.28
233.56	162.3
233.777	90.62
233.995	-167.42
234.213	-116.22
234.43	184.83
234.648	123.39
234.865	-173.57
235.083	-67.07
235.3	233.98
235.518	348.67
235.735	-114.17
235.953	-77.31
236.17	178.69
236.388	203.26
236.605	29.18
236.822	-130.56
237.04	381.43
237.257	244.22
237.475	-142.85
237.692	-136.7
237.909	289.28
238.127	176.64
238.344	-38.4
238.562	-110.08
238.779	37.38
238.996	76.29
239.214	-40.45
239.431	-99.84
239.648	164.35
239.865	281.08
240.083	-108.03
240.3	-206.33
240.517	80.38
240.735	236.03
240.952	18.94
241.169	-165.37
241.386	344.57
241.603	178.69
241.821	-161.28
242.038	-58.88
242.255	309.76
242.472	12.8
242.689	-112.13
242.907	-110.08
243.124	217.6
243.341	221.69
243.558	-110.08
243.775	-189.95
243.992	-36.35
244.209	238.08
244.426	18.94
244.643	-30.21
244.86	143.87
245.078	260.6
245.295	0.51
245.512	-116.22
245.729	115.2
245.946	256.51
246.163	-116.22
246.38	-187.9
246.597	193.02
246.814	236.03
247.031	-99.84
247.248	-226.81
247.464	332.28
247.681	215.55
247.898	-179.71
248.115	-67.07
248.332	156.16
248.549	430.59
248.766	61.95
248.983	-50.69
249.2	289.28
249.417	381.43
249.633	-112.13
249.85	-85.5
250.067	174.59
250.284	199.16
250.501	-73.21
250.717	-114.17
250.934	57.86
251.151	188.93
251.368	-11.78
251.585	-140.8
251.801	264.7
252.018	35.33
252.235	82.43
252.451	-103.93
252.668	152.06
252.885	406.01
253.102	-112.13
253.318	-173.57
253.535	172.54
253.752	129.53
253.968	-134.65
254.185	-255.48
254.401	285.18
254.618	307.71
254.835	-44.54
255.051	-11.78
255.268	365.05
255.484	168.45
255.701	-122.37
255.917	-99.84
256.134	53.76
256.351	211.45
256.567	-148.99
256.784	-3.58
257	-110.08
257.217	410.11
257.433	74.24
257.65	-132.61
257.866	457.21
258.082	-26.11
258.299	-79.36
258.515	-34.3
258.732	141.82
258.948	66.05
259.165	-69.12
259.381	-241.15
259.597	313.85
259.814	178.69
260.03	-116.22
260.246	-81.41
260.463	389.63
260.679	365.05
260.895	25.09
261.112	43.52
261.328	225.79
261.544	55.81
261.761	-48.64
261.977	-132.61
262.193	76.29
262.409	291.32
262.626	-38.4
262.842	-134.65
263.058	98.81
263.274	276.99
263.49	-67.07
263.707	-247.29
263.923	279.04
264.139	29.18
264.355	-73.21
264.571	-62.98
264.787	223.74
265.004	289.28
265.22	6.66
265.436	-132.61
265.652	227.84
265.868	264.7
266.084	-192
266.3	-97.79
266.516	102.91
266.732	178.69
266.948	-99.84
267.164	-114.17
267.38	289.28
267.596	297.47
267.812	-9.73
268.028	-17.92
268.244	160.25
268.46	233.98
268.676	-62.98
268.892	23.04
269.108	20.99
269.324	80.38
269.54	-198.14
269.756	-44.54
269.972	14.85
270.188	225.79
270.403	-93.69
270.619	-159.23
270.835	166.4
271.051	209.4
271.267	-116.22
271.483	-118.27
271.698	305.66
271.914	266.75
272.13	-13.82
272.346	-83.45
272.562	143.87
272.777	367.1
272.993	-85.5
273.209	-159.23
273.425	233.98
273.64	39.42
273.856	-42.5
274.072	-255.48
274.287	111.1
274.503	328.19
274.719	49.66
274.934	-200.19
275.15	18.94
275.366	121.34
275.581	-124.41
275.797	-48.64
276.012	184.83
276.228	61.95
276.444	-50.69
276.659	121.34
276.875	45.57
277.09	96.77
277.306	-32.26
277.521	-30.21
277.737	233.98
277.952	197.12
278.168	-165.37
278.383	-40.45
278.599	107.01
278.814	299.52
279.03	-58.88
279.245	59.9
279.461	248.32
279.676	242.17
279.892	-28.16
280.107	-105.98
280.322	119.29
280.538	297.47
280.753	-105.98
280.969	-87.55
281.184	186.88
281.399	307.71
281.615	6.66
281.83	94.72
282.045	2.56
282.26	20.99
282.476	-52.74
282.691	-17.92
282.906	242.17
283.122	168.45
283.337	-46.59
283.552	43.52
283.767	150.01
283.983	219.64
284.198	-85.5
284.413	-46.59
284.628	66.05
284.843	121.34
285.058	-24.06
285.274	-1.54
285.489	29.18
285.704	205.31
285.919	-146.94
286.134	49.66
286.349	84.48
286.564	123.39
286.779	39.42
286.995	-13.82
287.21	10.75
287.425	276.99
287.64	-60.93
287.855	170.49
288.07	12.8
288.285	307.71
288.5	0.51
288.715	37.38
288.93	266.75
289.145	53.76
289.36	-73.21
289.575	0.51
289.79	301.56
290.004	125.44
290.219	29.18
290.434	-71.17
290.649	117.25
290.864	123.39
291.079	-38.4
291.294	107.01
291.509	297.47
291.724	111.1
291.938	-132.61
292.153	-126.46
292.368	221.69
292.583	170.49
292.798	29.18
293.012	51.71
293.227	207.36
293.442	197.12
293.657	33.28
293.871	8.7
294.086	274.94
294.301	264.7
294.516	57.86
294.73	47.62
294.945	29.18
295.16	135.68
295.374	31.23
295.589	39.42
295.804	195.07
296.018	227.84
296.233	-67.07
296.447	25.09
296.662	-22.02
296.877	315.9
297.091	45.57
297.306	-15.87
297.52	147.97
297.735	188.93
297.949	14.85
298.164	-110.08
298.378	197.12
298.593	51.71
298.807	-65.02
299.022	-17.92
299.236	373.24
299.451	70.14
299.665	-13.82
299.88	-3.58
300.094	289.28
300.309	131.58
300.523	68.09
300.737	-50.69
300.952	272.89
301.166	180.73
301.381	-83.45
301.595	-124.41
301.809	139.77
302.024	158.21
302.238	-130.56
302.452	92.67
302.667	266.75
302.881	252.41
303.095	27.14
303.309	45.57
303.524	90.62
303.738	51.71
303.952	2.56
304.166	12.8
304.381	-97.79
304.595	246.27
304.809	-46.59
305.023	-15.87
305.237	66.05
305.452	88.57
305.666	-79.36
305.88	55.81
306.094	248.32
306.308	250.36
306.522	-19.97
306.736	-7.68
306.95	258.56
307.164	127.49
307.379	55.81
307.593	90.62
307.807	223.74
308.021	276.99
308.235	188.93
308.449	-87.55
308.663	115.2
308.877	508.41
309.091	98.81
309.305	29.18
309.519	0.51
309.733	365.05
309.947	-97.79
310.161	-38.4
310.374	186.88
310.588	270.84
310.802	-52.74
311.016	-62.98
311.23	262.65
311.444	45.57
311.658	23.04
311.872	125.44
312.085	346.62
312.299	289.28
312.513	242.17
312.727	-38.4
312.941	66.05
313.154	162.3
313.368	53.76
313.582	-19.97
313.796	172.54
314.009	176.64
314.223	102.91
314.437	98.81
314.651	252.41
314.864	4.61
315.078	-97.79
315.292	-65.02
315.505	170.49
315.719	158.21
315.933	72.19
316.146	-42.5
316.36	186.88
316.573	217.6
316.787	156.16
317.001	25.09
317.214	70.14
317.428	133.63
317.641	-105.98
317.855	-5.63
318.068	238.08
318.282	242.17
318.495	145.92
318.709	23.04
318.922	240.12
319.136	414.2
319.349	20.99
319.563	-79.36
319.776	238.08
319.99	-89.6
320.203	18.94
320.417	-11.78
320.63	102.91
320.843	324.09
321.057	111.1
321.27	-1.54
321.483	293.37
321.697	276.99
321.91	-15.87
322.124	55.81
322.337	162.3
322.55	55.81
322.763	18.94
322.977	-91.65
323.19	64
323.403	111.1
323.617	16.9
323.83	182.78
324.043	154.11
324.256	184.83
324.469	-183.81
324.683	123.39
324.896	190.97
325.109	117.25
325.322	-157.18
325.535	39.42
325.748	399.87
325.962	152.06
326.175	115.2
326.388	-34.3
326.601	231.93
326.814	78.33
327.027	-40.45
327.24	94.72
327.453	-26.11
327.666	217.6
327.879	176.64
328.092	64
328.305	129.53
328.518	64
328.731	-5.63
328.944	-17.92
329.157	158.21
329.37	33.28
329.583	186.88
329.796	139.77
330.009	-42.5
330.222	233.98
330.435	64
330.648	14.85
330.861	279.04
331.073	160.25
331.286	92.67
331.499	-17.92
331.712	49.66
331.925	139.77
332.138	102.91
332.35	-24.06
332.563	131.58
332.776	293.37
332.989	-13.82
333.202	-130.56
333.414	213.5
333.627	160.25
333.84	16.9
334.053	20.99
334.265	45.57
334.478	61.95
334.691	16.9
334.903	102.91
335.116	137.73
335.329	209.4
335.541	80.38
335.754	254.46
335.966	117.25
336.179	162.3
336.392	6.66
336.604	88.57
336.817	276.99
337.029	223.74
337.242	-71.17
337.454	61.95
337.667	242.17
337.88	342.52
338.092	135.68
338.305	14.85
338.517	31.23
338.729	129.53
338.942	-13.82
339.154	6.66
339.367	-11.78
339.579	193.02
339.792	-67.07
340.004	49.66
340.217	154.11
340.429	211.45
340.641	-58.88
340.854	-114.17
341.066	156.16
341.278	309.76
341.491	176.64
341.703	-24.06
341.915	113.15
342.128	307.71
342.34	45.57
342.552	-1.54
342.764	248.32
342.977	205.31
343.189	2.56
343.401	90.62
343.613	-34.3
343.826	160.25
344.038	-62.98
344.25	31.23
344.462	70.14
344.674	160.25
344.886	-15.87
345.099	-28.16
345.311	211.45
345.523	104.96
345.735	-73.21
345.947	61.95
346.159	193.02
346.371	299.52
346.583	-28.16
346.795	59.9
347.007	143.87
347.219	254.46
347.431	74.24
347.643	104.96
347.855	51.71
348.067	297.47
348.279	-28.16
348.491	-34.3
348.703	367.1
348.915	133.63
349.127	0.51
349.339	4.61
349.551	100.86
349.763	299.52
349.975	14.85
350.187	70.14
350.399	324.09
350.61	168.45
350.822	-32.26
351.034	80.38
351.246	248.32
351.458	135.68
351.669	57.86
351.881	-22.02
352.093	299.52
352.305	301.56
352.517	23.04
352.728	119.29
352.94	131.58
353.152	242.17
353.363	-87.55
353.575	33.28
353.787	344.57
353.999	182.78
354.21	154.11
354.422	-44.54
354.633	195.07
354.845	139.77
355.057	76.29
355.268	31.23
355.48	248.32
355.692	18.94
355.903	33.28
356.115	-52.74
356.326	-75.26
356.538	371.19
356.749	-56.83
356.961	82.43
357.172	180.73
357.384	39.42
357.595	143.87
357.807	0.51
358.018	117.25
358.23	141.82
358.441	33.28
358.653	16.9
358.864	102.91
359.075	53.76
359.287	-1.54
359.498	121.34
359.709	201.21
359.921	225.79
360.132	23.04
360.344	-116.22
360.555	29.18
360.766	166.4
360.977	16.9
361.189	76.29
361.4	199.16
361.611	256.51
361.823	127.49
362.034	-87.55
362.245	2.56
362.456	229.88
362.667	141.82
362.879	-103.93
363.09	287.23
363.301	207.36
363.512	0.51
363.723	-22.02
363.935	207.36
364.146	301.56
364.357	20.99
364.568	-56.83
364.779	80.38
364.99	238.08
365.201	4.61
365.412	158.21
365.623	20.99
365.834	141.82
366.045	-11.78
366.256	51.71
366.467	252.41
366.678	121.34
366.889	-44.54
367.1	-93.69
367.311	350.71
367.522	102.91
367.733	78.33
367.944	4.61
368.155	174.59
368.366	217.6
368.577	98.81
368.788	84.48
368.999	70.14
369.209	168.45
369.42	68.09
369.631	369.15
369.842	293.37
370.053	88.57
370.264	14.85
370.474	-24.06
370.685	266.75
370.896	154.11
371.107	12.8
371.317	47.62
371.528	98.81
371.739	375.29
371.95	16.9
372.16	-32.26
372.371	53.76
372.582	74.24
372.792	-9.73
373.003	96.77
373.214	283.13
373.424	178.69
373.635	-1.54
373.846	240.12
374.056	195.07
374.267	88.57
374.477	104.96
374.688	-36.35
374.898	193.02
375.109	205.31
375.319	47.62
375.53	6.66
375.74	336.38
375.951	164.35
376.161	86.53
376.372	70.14
376.582	139.77
376.793	307.71
377.003	-9.73
377.214	-56.83
377.424	252.41
377.635	143.87
377.845	-67.07
378.055	59.9
378.266	-19.97
378.476	178.69
378.686	6.66
378.897	55.81
379.107	389.63
379.317	348.67
379.528	-36.35
379.738	109.05
379.948	10.75
380.158	291.32
380.369	-26.11
380.579	39.42
380.789	94.72
380.999	184.83
381.21	111.1
381.42	119.29
381.63	82.43
381.84	244.22
382.05	86.53
382.261	102.91
382.471	246.27
382.681	100.86
382.891	82.43
383.101	129.53
383.311	104.96
383.521	80.38
383.731	14.85
383.941	211.45
384.151	129.53
384.361	14.85
384.571	92.67
384.781	39.42
384.991	233.98
385.201	352.76
385.411	170.49
385.621	20.99
385.831	305.66
386.041	236.03
386.251	92.67
386.461	139.77
386.671	207.36
386.881	225.79
387.091	-5.63
387.301	117.25
387.511	139.77
387.72	242.17
387.93	107.01
388.14	-26.11
388.35	158.21
388.56	375.29
388.769	35.33
388.979	0.51
389.189	78.33
389.399	111.1
389.609	-44.54
389.818	96.77
390.028	207.36
390.238	137.73
390.447	-44.54
390.657	94.72
390.867	215.55
391.076	39.42
391.286	-19.97
391.496	20.99
391.705	199.16
391.915	379.39
392.125	-5.63
392.334	-19.97
392.544	309.76
392.753	225.79
392.963	80.38
393.172	29.18
393.382	184.83
393.591	406.01
393.801	-9.73
394.01	-34.3
394.22	242.17
394.429	129.53
394.639	2.56
394.848	12.8
395.058	225.79
395.267	119.29
395.477	61.95
395.686	70.14
395.895	522.74
396.105	328.19
396.314	80.38
396.524	82.43
396.733	121.34
396.942	334.33
397.152	49.66
397.361	143.87
397.57	111.1
397.78	125.44
397.989	158.21
398.198	233.98
398.407	207.36
398.617	156.16
398.826	70.14
399.035	-1.54
399.244	209.4
399.453	133.63
399.663	16.9
399.872	-69.12
400.081	31.23
400.29	295.42
400.499	4.61
400.708	135.68
400.917	154.11
401.127	129.53
401.336	72.19
401.545	256.51
401.754	326.14
401.963	264.7
402.172	10.75
402.381	-36.35
402.59	240.12
402.799	156.16
403.008	233.98
403.217	51.71
403.426	219.64
403.635	43.52
403.844	-9.73
404.053	-44.54
404.262	141.82
404.471	225.79
404.68	70.14
404.888	70.14
405.097	139.77
405.306	209.4
405.515	31.23
405.724	31.23
405.933	322.04
406.142	184.83
406.35	16.9
406.559	66.05
406.768	186.88
406.977	449.02
407.185	33.28
407.394	27.14
407.603	98.81
407.812	203.26
408.02	176.64
408.229	66.05
408.438	205.31
408.646	29.18
408.855	-36.35
409.064	43.52
409.272	248.32
409.481	207.36
409.69	66.05
409.898	-22.02
410.107	156.16
410.315	264.7
410.524	49.66
410.733	39.42
410.941	213.5
411.15	285.18
411.358	113.15
411.567	190.97
411.775	205.31
411.984	193.02
412.192	98.81
412.401	-9.73
412.609	401.91
412.818	307.71
413.026	152.06
413.234	72.19
413.443	281.08
413.651	25.09
413.86	-34.3
414.068	268.8
414.276	451.07
414.485	88.57
414.693	82.43
414.901	281.08
415.11	186.88
415.318	205.31
415.526	49.66
415.734	96.77
415.943	156.16
416.151	346.62
416.359	6.66
416.567	94.72
416.776	274.94
416.984	285.18
417.192	109.05
417.4	8.7
417.608	178.69
417.817	80.38
418.025	168.45
418.233	102.91
418.441	10.75
418.649	98.81
418.857	137.73
419.065	119.29
419.273	68.09
419.481	242.17
419.689	145.92
419.897	-28.16
420.105	143.87
420.313	332.28
420.521	119.29
420.729	201.21
420.937	125.44
421.145	25.09
421.353	107.01
421.561	283.13
421.769	324.09
421.977	156.16
422.185	123.39
422.393	45.57
422.601	268.8
422.809	276.99
423.017	107.01
423.224	70.14
423.432	373.24
423.64	199.16
423.848	92.67
424.056	33.28
424.263	410.11
424.471	182.78
424.679	219.64
424.887	33.28
425.094	428.54
425.302	250.36
425.51	-77.31
425.718	143.87
425.925	254.46
426.133	88.57
426.341	233.98
426.548	53.76
426.756	193.02
426.964	299.52
427.171	61.95
427.379	164.35
427.586	215.55
427.794	291.32
428.001	227.84
428.209	158.21
428.417	465.4
428.624	317.95
428.832	152.06
429.039	221.69
429.247	203.26
429.454	268.8
429.662	219.64
429.869	158.21
430.076	276.99
430.284	332.28
430.491	94.72
430.699	203.26
430.906	547.32
431.114	334.33
431.321	180.73
431.528	199.16
431.736	240.12
431.943	317.95
432.15	186.88
432.358	217.6
432.565	580.09
432.772	64
432.979	242.17
433.187	199.16
433.394	451.07
433.601	354.81
433.808	344.57
434.016	297.47
434.223	365.05
434.43	414.2
434.637	250.36
434.844	356.86
435.052	389.63
435.259	524.79
435.466	363
435.673	332.28
435.88	514.55
436.087	586.23
436.294	584.18
436.501	438.78
436.708	414.2
436.915	514.55
437.122	578.04
437.329	295.42
437.537	430.59
437.743	537.08
437.95	623.09
438.157	397.82
438.364	569.85
438.571	492.02
438.778	426.49
438.985	532.98
439.192	707.06
439.399	563.7
439.606	549.37
439.813	561.66
440.02	881.14
440.227	965.11
440.433	516.6
440.64	541.18
440.847	653.81
441.054	670.2
441.261	676.34
441.467	684.53
441.674	698.87
441.881	934.39
442.088	575.99
442.294	668.15
442.501	766.45
442.708	885.23
442.914	733.68
443.121	739.83
443.328	930.29
443.534	1100.27
443.741	756.21
443.948	674.29
444.154	954.87
444.361	1241.58
444.568	858.61
444.774	961.01
444.981	975.35
445.187	1260.01
445.394	985.58
445.6	940.53
445.807	1145.33
446.013	1114.61
446.22	963.06
446.426	1079.79
446.633	1294.83
446.839	1522.15
447.046	1092.08
447.252	1266.16
447.459	1315.31
447.665	1323.5
447.871	1249.77
448.078	1710.57
448.284	1569.26
448.491	1841.64
448.697	1585.64
448.903	1661.41
449.11	1747.43
449.316	1673.7
449.522	1753.57
449.728	1827.3
449.935	1968.61
450.141	1911.27
450.347	2017.76
450.553	1915.36
450.76	2200.03
450.966	2234.85
451.172	2093.54
451.378	2269.66
451.584	2423.26
451.791	2671.06
451.997	2462.17
452.203	2539.99
452.409	2808.28
452.615	2683.35
452.821	2529.75
453.027	2607.58
453.233	3129.81
453.44	3011.03
453.646	2769.37
453.852	2955.73
454.058	2873.81
454.264	3191.25
454.47	3228.11
454.676	3170.77
454.882	3590.6
455.088	3383.76
455.294	3299.79
455.5	3488.2
455.705	3893.7
455.911	3609.03
456.117	3606.98
456.323	3559.88
456.529	3670.47
456.735	3922.37
456.941	3596.75
457.147	3729.86
457.352	3940.8
457.558	3746.25
457.764	3801.54
457.97	3744.2
458.176	4166.08
458.381	4268.48
458.587	3871.17
458.793	4049.35
458.999	3973.57
459.204	4340.16
459.41	4186.56
459.616	3985.86
459.821	4239.81
460.027	4045.25
460.233	4178.37
460.438	4022.72
460.644	4178.37
460.85	4102.59
461.055	4153.79
461.261	4069.83
461.466	3854.79
461.672	3910.08
461.878	3918.28
462.083	3846.6
462.289	3705.29
462.494	3795.4
462.7	3738.05
462.905	3568.07
463.111	4057.54
463.316	3879.36
463.522	3764.68
463.727	3742.15
463.932	3922.37
464.138	3901.89
464.343	3867.08
464.549	3717.58
464.754	4092.35
464.959	4037.06
465.165	3701.19
465.37	3701.19
465.575	3570.12
465.781	3822.02
465.986	3731.91
466.191	3568.07
466.397	3711.43
466.602	3764.68
466.807	3504.59
467.012	3582.41
467.218	3928.52
467.423	3772.87
467.628	3563.98
467.833	3781.06
468.038	3668.42
468.244	3547.59
468.449	3938.76
468.654	3862.98
468.859	3813.83
469.064	3883.46
469.269	3611.08
469.474	3584.46
469.679	4026.82
469.885	3920.32
470.09	3699.14
470.295	3766.73
470.5	3961.28
470.705	4145.6
470.91	3801.54
471.115	3871.17
471.32	4065.73
471.525	4293.05
471.73	3725.77
471.935	3994.05
472.139	3961.28
472.344	4075.97
472.549	3936.71
472.754	3973.57
472.959	4241.86
473.164	4051.39
473.369	4061.63
473.574	4032.96
473.778	4284.86
473.983	4344.25
474.188	4356.54
474.393	4069.83
474.598	4278.72
474.802	4149.7
475.007	4092.35
475.212	4256.19
475.417	4180.42
475.621	4393.4
475.826	4186.56
476.031	4256.19
476.235	4252.1
476.44	4317.63
476.645	4190.66
476.849	4133.31
477.054	4301.25
477.259	4282.81
477.463	4225.47
477.668	4325.82
477.872	4563.39
478.077	4317.63
478.282	3899.84
478.486	4262.33
478.691	4360.64
478.895	4415.93
479.1	4293.05
479.304	4391.36
479.509	4317.63
479.713	4676.02
479.918	4241.86
480.122	4291.01
480.326	4405.69
480.531	4411.84
480.735	4340.16
480.94	4293.05
481.144	4594.11
481.348	4514.24
481.553	4258.24
481.757	4223.42
481.961	4606.39
482.166	4598.2
482.37	4485.56
482.574	4583.87
482.778	4516.28
482.983	4786.61
483.187	4518.33
483.391	4747.7
483.595	4698.55
483.8	4792.76
484.004	4694.46
484.208	4798.9
484.412	4929.97
484.616	5028.28
484.821	4999.6
485.025	4858.29
485.229	4884.92
485.433	5140.91
485.637	4948.4
485.841	4999.6
486.045	5288.37
486.249	5579.18
486.453	5183.92
486.657	5241.26
486.861	5235.12
487.065	5300.66
487.269	5294.51
487.473	5167.54
487.677	5616.04
487.881	5851.56
488.085	5446.06
488.289	5468.59
488.493	5831.08
488.697	5917.09
488.901	5800.36
489.105	5826.98
489.309	5904.81
489.512	6183.33
489.716	5906.85
489.92	6156.71
490.124	5927.33
490.328	6363.55
490.531	6058.4
490.735	6179.23
490.939	6312.35
491.143	6459.81
491.346	6220.19
491.55	6683.03
491.754	6672.79
491.958	6672.79
492.161	6693.27
492.365	6769.05
492.569	6750.62
492.772	6955.41
492.976	6990.23
493.18	6994.33
493.383	7174.55
493.587	7309.71
493.79	7166.35
493.994	7125.4
494.197	7485.84
494.401	7485.84
494.605	7215.51
494.808	7420.3
495.012	7747.98
495.215	7842.18
495.419	7762.31
495.622	7666.06
495.825	7827.85
496.029	7934.34
496.232	8382.85
496.436	8030.6
496.639	8475.01
496.843	8178.05
497.046	8464.77
497.249	8354.18
497.453	8667.52
497.656	8528.25
497.859	8786.3
498.063	8702.33
498.266	8927.61
498.469	8778.11
498.673	8948.09
498.876	9177.46
499.079	9359.73
499.282	9388.4
499.485	9492.85
499.689	9482.61
499.892	9675.12
500.095	9752.94
500.298	9853.29
500.501	9804.14
500.705	10209.64
500.908	10260.84
501.111	10209.64
501.314	10447.2
501.517	10557.79
501.72	10461.54
501.923	10520.93
502.126	11043.16
502.329	11268.44
502.532	11417.94
502.735	11022.68
502.938	11780.43
503.141	11577.68
503.344	11745.61
503.547	11794.76
503.75	11835.72
503.953	12224.84
504.156	12452.16
504.359	12310.85
504.562	12343.62
504.765	12779.84
504.968	12921.15
505.17	12900.67
505.373	13209.91
505.576	13308.21
505.779	13558.07
505.982	13398.32
506.185	13902.12
506.387	14092.58
506.59	14203.18
506.793	14188.84
506.996	14299.43
507.198	15071.51
507.401	14745.89
507.604	14657.82
507.807	15120.67
508.009	15413.52
508.212	15593.75
508.415	15323.41
508.617	15513.88
508.82	15847.69
509.022	15859.98
509.225	16267.53
509.428	16546.05
509.63	16744.7
509.833	16609.54
510.035	17281.27
510.238	17144.06
510.44	17211.64
510.643	17846.51
510.845	18063.6
511.048	17789.17
511.25	18395.37
511.453	18200.81
511.655	19136.73
511.858	18776.29
512.06	19437.78
512.262	19255.51
512.465	19071.2
512.667	19452.12
512.87	19955.92
513.072	20525.25
513.274	20402.38
513.477	20580.55
513.679	21008.58
513.881	21100.73
514.084	21209.28
514.286	21303.48
514.488	21975.22
514.69	22444.2
514.893	22098.09
515.095	22341.8
515.297	23187.61
515.499	22890.66
515.701	23343.26
515.904	23421.08
516.106	24074.38
516.308	24168.59
516.51	24311.95
516.712	24627.34
516.914	25090.18
517.116	24981.63
517.318	25516.15
517.52	25546.87
517.722	25940.08
517.925	25921.65
518.127	26523.76
518.329	26986.6
518.531	26384.49
518.733	27191.39
518.935	27238.5
519.136	27797.59
519.338	27930.71
519.54	28364.88
519.742	28518.48
519.944	28850.25
520.146	29225.03
520.348	29618.24
520.55	29282.37
520.752	29866.04
520.954	30476.33
521.155	30226.48
521.357	30619.69
521.559	30857.26
521.761	31715.36
521.963	32022.55
522.164	31723.55
522.366	31844.38
522.568	32464.91
522.77	32972.81
522.971	33032.2
523.173	32927.75
523.375	33566.72
523.576	33329.16
523.778	33626.11
523.98	34183.16
524.181	34508.79
524.383	34707.44
524.584	34947.05
524.786	34996.2
524.988	35207.14
525.189	35440.61
525.391	35874.78
525.592	35794.91
525.794	36075.48
525.995	36231.13
526.197	36708.3
526.398	36601.81
526.6	37054.41
526.801	37308.36
527.003	37072.84
527.204	37277.64
527.406	38064.06
527.607	37984.19
527.808	38195.13
528.01	37787.58
528.211	38500.28
528.412	39366.57
528.614	38830
528.815	38795.18
529.016	39896.99
529.218	39221.16
529.419	39024.56
529.62	39186.35
529.822	39679.91
530.023	39425.96
530.224	39628.71
530.425	40036.25
530.626	39534.5
530.828	39972.77
531.029	40591.25
531.23	40533.91
531.431	40363.93
531.632	40394.65
531.833	41099.15
532.035	40910.74
532.236	40382.36
532.437	41248.65
532.638	40634.26
532.839	40984.46
533.04	41834.37
533.241	41697.16
533.442	41777.03
533.643	41457.54
533.844	41400.2
534.045	41947.01
534.246	41013.13
534.447	41815.94
534.648	41719.68
534.849	42291.07
535.05	41813.89
535.251	41953.15
535.451	42053.5
535.652	42086.27
535.853	41979.78
536.054	42530.68
536.255	42334.07
536.456	42143.61
536.657	42952.56
536.857	42657.65
537.058	42497.91
537.259	42487.67
537.46	42555.25
537.66	42278.78
537.861	42571.64
538.062	42876.79
538.263	42588.02
538.463	42893.17
538.664	43126.64
538.865	43388.78
539.065	42938.22
539.266	42506.1
539.466	43386.73
539.667	42844.02
539.868	43491.18
540.068	43067.25
540.269	43569
540.469	43794.28
540.67	43100.01
540.87	43683.69
541.071	43730.79
541.271	43589.48
541.472	43302.76
541.672	43601.77
541.873	43720.55
542.073	42862.45
542.274	44109.66
542.474	43880.29
542.675	43720.55
542.875	44322.65
543.075	43777.89
543.276	43435.88
543.476	44230.49
543.676	44240.73
543.877	44035.94
544.077	44220.25
544.277	44269.4
544.478	44289.88
544.678	44179.29
544.878	44343.13
545.078	44697.43
545.279	43906.91
545.479	44269.4
545.679	44472.15
545.879	44279.64
546.079	44914.51
546.28	44306.27
546.48	44601.18
546.68	45201.23
546.88	44699.48
547.08	45227.85
547.28	45084.5
547.48	44179.29
547.68	44777.3
547.88	44842.84
548.081	44922.71
548.281	45037.39
548.481	44519.26
548.681	45338.44
548.881	45430.6
549.081	45500.23
549.28	45260.62
549.48	45387.6
549.68	45354.83
549.88	45678.41
550.08	45461.32
550.28	45365.07
550.48	45334.35
550.68	45829.96
550.88	45395.79
551.08	45416.27
551.279	45819.72
551.479	45258.57
551.679	46208.83
551.879	45170.51
552.079	45825.86
552.278	45930.31
552.478	45942.59
552.678	45911.88
552.878	46006.08
553.077	45805.38
553.277	45690.69
553.477	46348.09
553.676	46186.3
553.876	45985.6
554.076	45991.75
554.275	46026.56
554.475	45340.49
554.674	46149.44
554.874	46145.34
555.074	45856.58
555.273	46300.99
555.473	46442.3
555.672	46116.67
555.872	45858.63
556.071	46325.57
556.271	46683.96
556.47	45954.88
556.67	45866.82
556.869	45854.53
557.068	46313.28
557.268	45983.55
557.467	45989.7
557.667	46255.93
557.866	46333.76
558.065	46047.04
558.265	45502.28
558.464	45635.4
558.663	46131.01
558.863	46012.23
559.062	46202.69
559.261	45307.72
559.461	46663.48
559.66	45915.97
559.859	45846.34
560.058	45555.53
560.258	46036.8
560.457	45424.46
560.656	46124.86
560.855	45295.44
561.054	45811.52
561.253	45446.99
561.453	45823.81
561.652	45895.49
561.851	45834.05
562.05	45340.49
562.249	44769.11
562.448	45958.98
562.647	45123.41
562.846	45363.02
563.045	45217.61
563.244	45152.08
563.443	45840.2
563.642	45000.53
563.841	45291.34
564.04	44883.8
564.239	45010.77
564.438	44904.27
564.637	44904.27
564.836	44834.64
565.035	44691.29
565.234	44797.78
565.432	44345.18
565.631	44441.43
565.83	44986.19
566.029	44439.39
566.228	43886.43
566.427	44345.18
566.625	44050.27
566.824	43804.52
567.023	44408.67
567.222	43345.77
567.42	44205.92
567.619	43540.33
567.818	43915.11
568.016	43534.18
568.215	43827.04
568.414	43288.43
568.612	43349.87
568.811	43327.34
569.01	43265.9
569.208	42850.16
569.407	43530.09
569.605	42090.37
569.804	43196.27
570.002	42643.32
570.201	42725.24
570.4	42671.99
570.598	42282.87
570.797	42266.49
570.995	42329.98
571.193	41783.17
571.392	42454.9
571.59	41596.81
571.789	42008.45
571.987	41738.12
572.186	41764.74
572.384	41385.86
572.582	41021.33
572.781	41707.4
572.979	41129.87
573.177	41283.47
573.376	41488.26
573.574	41185.16
573.772	41136.01
573.971	40408.98
574.169	40683.41
574.367	40116.12
574.565	40757.14
574.763	40480.66
574.962	40181.66
575.16	40134.56
575.358	40415.13
575.556	39673.76
575.754	40220.57
575.952	39862.18
576.151	40345.5
576.349	39866.27
576.547	39751.59
576.745	39565.22
576.943	39976.86
577.141	39589.8
577.339	39172.01
577.537	39251.88
577.735	39788.45
577.933	39202.73
578.131	39227.31
578.329	38938.54
578.527	39002.03
578.725	39112.62
578.923	38836.14
579.121	38524.85
579.319	38494.13
579.516	38723.51
579.714	38758.32
579.912	38332.34
580.11	38356.92
580.308	38842.29
580.506	38154.17
580.704	37527.49
580.901	38170.55
581.099	38490.04
581.297	38051.77
581.495	38113.21
581.692	38143.93
581.89	38186.94
582.088	38180.79
582.285	37320.65
582.483	38027.2
582.681	37562.31
582.878	37674.95
583.076	37564.35
583.274	37590.98
583.471	37728.19
583.669	37834.69
583.866	37142.47
584.064	37554.11
584.262	37363.65
584.459	37269.45
584.657	37011.4
584.854	37849.02
585.052	36777.93
585.249	36913.1
585.447	37165
585.644	36667.34
585.841	37400.52
586.039	37056.46
586.236	36374.48
586.434	36495.32
586.631	36753.36
586.828	36442.07
587.026	36558.8
587.223	36358.1
587.42	36642.77
587.618	36636.62
587.815	36112.34
588.012	36376.53
588.21	36177.88
588.407	36384.72
588.604	36345.81
588.801	35790.81
588.999	36022.23
589.196	36229.08
589.393	36132.82
589.59	35928.03
589.787	36294.61
589.984	35551.2
590.182	35477.47
590.379	35985.37
590.576	36132.82
590.773	35600.35
590.97	35409.89
591.167	36143.06
591.364	35342.31
591.561	35876.83
591.758	35592.16
591.955	35753.95
592.152	35909.6
592.349	35602.4
592.546	35827.68
592.743	35715.04
592.94	35153.9
593.137	35682.27
593.334	35778.53
593.531	35332.07
593.727	35717.09
593.924	35393.51
594.121	34867.18
594.318	35655.65
594.515	35287.01
594.712	35645.41
594.908	34977.77
595.105	35336.16
595.302	35268.58
595.499	35674.08
595.696	35106.79
595.892	35078.12
596.089	35332.07
596.286	35289.06
596.482	35031.02
596.679	35053.55
596.876	35305.45
597.072	34713.58
597.269	34869.23
597.466	35031.02
597.662	34682.86
597.859	34426.87
598.055	35352.55
598.252	34861.04
598.448	35336.16
598.645	34777.07
598.841	34795.5
599.038	35035.11
599.234	35244.01
599.431	34789.36
599.627	34680.81
599.824	35297.25
600.02	34932.71
600.217	34842.6
600.413	34631.66
600.609	34994.15
600.806	34652.14
601.002	34979.82
601.198	34750.45
601.395	34734.06
601.591	34756.59
601.787	34584.56
601.984	34332.66
602.18	35215.33
602.376	34580.46
602.572	34686.96
602.769	34629.62
602.965	34613.23
603.161	34928.62
603.357	34519.03
603.553	34420.72
603.75	35012.59
603.946	34635.76
604.142	34265.08
604.338	34150.39
604.534	34746.35
604.73	34408.43
604.926	34093.05
605.122	34439.15
605.318	34217.97
605.514	34250.74
605.71	34338.8
605.906	34248.69
606.102	34344.95
606.298	34234.36
606.494	34322.42
606.69	34330.61
606.886	34543.6
607.082	34041.85
607.278	34512.88
607.474	33802.24
607.67	34301.94
607.866	33681.41
608.062	34349.04
608.257	34134.01
608.453	33890.3
608.649	34691.05
608.845	33835
609.041	33996.79
609.236	34465.78
609.432	34162.68
609.628	33990.65
609.824	33839.1
610.019	33984.51
610.215	34099.19
610.411	34508.79
610.606	34074.62
610.802	34351.09
610.998	34717.68
611.193	34445.3
611.389	33781.76
611.584	33972.22
611.78	33859.58
611.976	33632.25
612.171	34340.85
612.367	34166.77
612.562	34091
612.758	33394.69
612.953	33665.02
613.149	34230.26
613.344	34172.92
613.539	34666.48
613.735	34134.01
613.93	33966.07
614.126	33646.59
614.321	34455.54
614.517	34232.31
614.712	34539.5
614.907	34080.76
615.103	34400.24
615.298	33574.91
615.493	34400.24
615.688	33390.59
615.884	34781.17
616.079	33937.4
616.274	34121.72
616.47	33839.1
616.665	34283.51
616.86	34070.52
617.055	34158.58
617.25	33748.99
617.445	34095.1
617.641	33878.01
617.836	34277.36
618.031	33701.89
618.226	33734.65
618.421	33822.72
618.616	33964.03
618.811	33603.58
619.006	33988.6
619.201	33312.77
619.396	33687.55
619.591	33073.16
619.786	33720.32
619.981	32978.95
620.176	33515.52
620.371	33032.2
620.566	33402.88
620.761	33312.77
620.956	33851.39
621.151	33175.56
621.346	33394.69
621.541	32522.26
621.735	33245.19
621.93	32434.19
622.125	32503.82
622.32	32450.58
622.515	32505.87
622.709	32552.98
622.904	32292.88
623.099	32292.88
623.294	32638.99
623.488	31891.48
623.683	32256.02
623.878	31563.81
624.072	32288.79
624.267	31662.11
624.462	31625.25
624.656	31352.87
624.851	31707.16
625.046	31735.84
625.24	31299.62
625.435	31289.38
625.629	31483.94
625.824	31373.35
626.018	31383.59
626.213	30693.42
626.407	31041.57
626.602	30789.67
626.796	30777.39
626.991	30418.99
627.185	30681.13
627.38	30449.71
627.574	30298.16
627.768	30287.92
627.963	30263.35
628.157	30660.65
628.352	30214.19
628.546	29679.68
628.74	30775.34
628.935	29888.57
629.129	30013.49
629.323	29923.38
629.517	29786.17
629.712	29519.93
629.906	29632.57
630.1	29343.81
630.294	29624.38
630.489	29442.11
630.683	29419.58
630.877	29120.58
631.071	29429.82
631.265	29225.03
631.459	28917.83
631.653	29001.8
631.848	28923.97
632.042	28846.15
632.236	28774.47
632.43	28475.47
632.624	28952.65
632.818	28276.82
633.012	28246.1
633.206	28242
633.4	28383.31
633.594	28002.39
633.788	27764.82
633.982	28084.31
634.176	28049.49
634.369	27938.9
634.563	27924.57
634.757	27275.36
634.951	27699.29
635.145	27521.12
635.339	27523.16
635.533	27388
635.726	27445.34
635.92	27183.2
636.114	26810.47
636.308	26736.74
636.501	26828.9
636.695	26671.21
636.889	25845.88
637.083	26044.53
637.276	25895.03
637.47	25524.35
637.664	25475.2
637.857	25563.26
638.051	26019.95
638.244	25311.36
638.438	25370.75
638.632	24979.59
638.825	24817.8
639.019	24858.76
639.212	24670.34
639.406	24516.75
639.599	24273.04
639.793	24514.7
639.986	24035.47
640.18	23865.49
640.373	23611.54
640.567	23490.71
640.76	23589.02
640.954	23177.37
641.147	22841.51
641.34	23064.74
641.534	22814.88
641.727	22368.43
641.92	22585.51
642.114	22329.52
642.307	22302.89
642.5	22034.61
642.694	21407.93
642.887	21371.07
643.08	21637.3
643.273	21205.18
643.467	21006.53
643.66	20457.67
643.853	20328.65
644.046	20306.12
644.239	20400.33
644.432	20082.89
644.626	19769.55
644.819	19599.57
645.012	19728.59
645.205	19730.64
645.398	19542.23
645.591	19165.4
645.784	18905.31
645.977	18757.86
646.17	19036.38
646.363	18575.59
646.556	18305.26
646.749	18163.95
646.942	18045.16
647.135	17940.72
647.328	18254.06
647.521	17651.95
647.714	17195.26
647.907	17582.32
648.099	17012.99
648.292	17549.56
648.485	17103.1
648.678	16828.67
648.871	16906.49
649.064	16611.59
649.256	16560.39
649.449	16394.5
649.642	16226.57
649.835	16165.13
650.027	16050.44
650.22	15788.3
650.413	15894.8
650.605	15829.26
650.798	15644.95
650.991	15560.98
651.183	16017.68
651.376	15479.06
651.568	15495.44
651.761	15192.34
651.954	15700.24
652.146	15167.77
652.339	15012.12
652.531	14883.1
652.724	14686.5
652.916	14440.74
653.109	14336.29
653.301	14442.79
653.494	14623.01
653.686	14342.44
653.879	14586.15
654.071	14352.68
654.263	13979.95
654.456	14061.87
654.648	14045.48
654.84	13691.18
655.033	13902.12
655.225	14014.76
655.417	13521.2
655.61	13697.33
655.802	13801.77
655.994	13607.22
656.186	13259.06
656.379	13191.48
656.571	13097.27
656.763	13089.08
656.955	13115.7
657.148	12763.45
657.34	13222.2
657.532	12620.1
657.724	12609.86
657.916	12415.3
658.108	12917.05
658.3	12632.38
658.492	12366.15
658.684	12341.57
658.876	12446.02
659.068	12077.38
659.26	11929.93
659.452	11966.79
659.644	11979.08
659.836	12028.23
660.028	11790.67
660.22	11452.75
660.412	11393.36
660.604	11362.64
660.796	11278.68
660.988	11155.8
661.18	10854.75
661.372	11256.15
661.563	11114.84
661.755	10643.81
661.947	10912.09
662.139	10590.56
662.331	10447.2
662.522	10277.22
662.714	10400.1
662.906	10273.12
663.097	10137.96
663.289	9935.21
663.481	9845.1
663.673	9957.74
663.864	9677.16
664.056	9677.16
664.247	9632.11
664.439	9826.67
664.631	9302.39
664.822	9218.42
665.014	9464.18
665.205	9154.93
665.397	9027.96
665.588	9050.49
665.78	8841.59
665.971	9001.33
666.163	8554.88
666.354	8591.74
666.546	8579.45
666.737	8384.9
666.929	8307.07
667.12	8288.64
667.311	8384.9
667.503	8165.76
667.694	8151.43
667.885	7944.58
668.077	8274.31
668.268	7870.86
668.459	7901.58
668.651	8085.89
668.842	7862.66
669.033	7891.34
669.224	7666.06
669.416	7774.6
669.607	7737.74
669.798	7539.08
669.989	7428.49
670.18	7156.11
670.371	7575.95
670.563	7240.08
670.754	7389.58
670.945	7184.79
671.136	7408.01
671.327	7205.27
671.518	7002.52
671.709	7061.91
671.9	7225.75
672.091	7264.66
672.282	6865.3
672.473	6963.61
672.664	7041.43
672.855	7027.09
673.046	6861.21
673.237	6814.1
673.428	6824.34
673.619	7018.9
673.809	6662.55
674	6691.23
674.191	6791.58
674.382	6664.6
674.573	6662.55
674.764	6525.34
674.954	6779.29
675.145	6398.37
675.336	6527.39
675.527	6523.29
675.717	6498.72
675.908	6361.5
676.099	6390.17
676.289	6447.52
676.48	6400.41
676.671	6601.12
676.861	6336.93
677.052	6193.57
677.243	6349.22
677.433	6392.22
677.624	6369.69
677.814	6314.4
678.005	6424.99
678.195	6629.79
678.386	6181.28
678.576	6310.3
678.767	6138.27
678.957	6173.09
679.148	6300.06
679.338	6492.57
679.529	6478.24
679.719	6336.93
679.909	6457.76
680.1	6285.73
680.29	6554.01
680.481	6312.35
680.671	6281.63
680.861	6158.75
681.052	6513.05
681.242	6369.69
681.432	6371.74
681.622	6420.89
681.813	6410.65
682.003	6461.85
682.193	6445.47
682.383	6633.88
682.573	6631.83
682.764	6650.27
682.954	6889.88
683.144	6869.4
683.334	6533.53
683.524	6674.84
683.714	6771.1
683.904	6846.87
684.094	6959.51
684.284	6924.69
684.474	6939.03
684.664	7023
684.854	7192.98
685.044	7039.38
685.234	7238.03
685.424	6979.99
685.614	7043.48
685.804	7481.74
685.994	7334.29
686.184	7399.82
686.374	7637.39
686.564	7448.97
686.753	7641.48
686.943	7383.44
687.133	7725.45
687.323	7788.94
687.513	7823.75
687.702	7643.53
687.892	8034.69
688.082	8059.27
688.272	8057.22
688.461	8233.35
688.651	8360.32
688.841	8253.83
689.03	8255.87
689.22	8315.27
689.41	8759.67
689.599	8733.05
689.789	8591.74
689.979	8819.07
690.168	8888.7
690.358	9150.84
690.547	8839.55
690.737	9124.21
690.926	9314.67
691.116	9429.36
691.305	9355.63
691.495	9384.3
691.684	9472.37
691.874	9763.18
692.063	9638.25
692.252	9730.41
692.442	10045.8
692.631	9863.53
692.82	9867.63
693.01	9892.2
693.199	10156.39
693.388	10324.32
693.578	10375.52
693.767	10441.06
693.956	10709.34
694.146	10490.21
694.335	10647.9
694.524	10631.52
694.713	11268.44
694.902	10989.91
695.092	10973.53
695.281	10940.76
695.47	11084.12
695.659	11233.62
695.848	11376.98
696.037	11231.57
696.226	11596.11
696.415	11372.88
696.604	11837.77
696.793	11637.07
696.982	11813.2
697.171	11915.59
697.36	11657.55
697.549	11704.65
697.738	11581.78
697.927	11665.74
698.116	12040.52
698.305	12024.14
698.494	12265.8
698.683	12144.97
698.872	12130.63
699.061	12020.04
699.25	12452.16
699.438	12261.7
699.627	12134.73
699.816	12319.04
700.005	12210.5
700.193	12351.81
700.382	12575.04
700.571	12388.67
700.76	12556.61
700.948	12720.45
701.137	12476.74
701.326	12587.33
701.514	12642.62
701.703	12968.25
701.892	12405.06
702.08	12546.37
702.269	12585.28
702.457	12374.34
702.646	12624.19
702.834	12486.98
703.023	12747.07
703.212	12771.65
703.4	12474.69
703.589	12441.92
703.777	12925.24
703.965	12638.53
704.154	12556.61
704.342	12607.81
704.531	12589.38
704.719	12398.91
704.907	12742.97
705.096	12505.41
705.284	12685.63
705.472	12900.67
705.661	12577.09
705.849	12755.26
706.037	12689.73
706.226	13127.99
706.414	12745.02
706.602	12497.22
706.79	12749.12
706.979	12491.07
707.167	12446.02
707.355	12343.62
707.543	12767.55
707.731	12808.51
707.919	12548.42
708.107	12306.76
708.296	12470.59
708.484	12366.15
708.672	12579.14
708.86	12202.31
709.048	12347.72
709.236	12292.42
709.424	12321.09
709.612	12329.28
709.8	12093.77
709.988	12302.66
710.176	12247.37
710.364	12155.21
710.551	12210.5
710.739	12179.78
710.927	11985.23
711.115	11960.65
711.303	12210.5
711.491	11901.26
711.679	11673.93
711.866	12020.04
712.054	12108.1
712.242	12056.9
712.43	12011.85
712.617	11821.39
712.805	12026.18
712.993	11708.75
713.181	11467.09
713.368	11567.44
713.556	11706.7
713.744	11282.77
713.931	11606.35
714.119	11555.15
714.306	11661.65
714.494	11360.59
714.682	11510.1
714.869	11120.98
715.057	11518.29
715.244	11067.74
715.432	11606.35
715.619	11331.92
715.807	11268.44
715.994	11135.32
716.182	10981.72
716.369	11016.54
716.556	11272.53
716.744	10774.88
716.931	10883.42
717.119	10819.93
717.306	11004.25
717.493	10934.62
717.681	10748.25
717.868	10821.98
718.055	10938.71
718.242	10860.89
718.43	10707.29
718.617	10537.31
718.804	10531.17
718.991	10443.1
719.179	10424.67
719.366	10416.48
719.553	10334.56
719.74	10537.31
719.927	10174.82
720.114	10244.45
720.301	10266.98
720.488	10066.28
720.676	9879.91
720.863	10164.58
721.05	10539.36
721.237	10217.83
721.424	9961.83
721.611	9836.91
721.798	9976.17
721.985	9748.84
722.172	9797.99
722.358	9666.92
722.545	10010.98
722.732	9771.37
722.919	9750.89
723.106	9490.8
723.293	9578.86
723.48	9455.98
723.667	9435.5
723.853	9384.3
724.04	9478.51
724.227	9564.53
724.414	9015.67
724.6	9269.62
724.787	9290.1
724.974	9464.18
725.161	9193.84
725.347	8911.22
725.534	9128.31
725.72	9253.23
725.907	8886.65
726.094	9052.53
726.28	8821.11
726.467	8782.2
726.653	8757.63
726.84	8479.1
727.027	9025.91
727.213	8460.67
727.4	8726.91
727.586	8403.33
727.773	8868.22
727.959	8354.18
728.145	8792.44
728.332	8360.32
728.518	8278.4
728.705	8534.4
728.891	8239.49
729.077	8384.9
729.264	8290.69
729.45	8319.36
729.636	8186.24
729.823	8040.84
730.009	8440.19
730.195	8227.2
730.382	8020.36
730.568	7917.96
730.754	8110.47
730.94	8108.42
731.126	7936.39
731.313	7737.74
731.499	7905.67
731.685	7807.37
731.871	7778.7
732.057	7846.28
732.243	7960.97
732.429	7926.15
732.615	7813.51
732.801	7491.98
732.987	7475.6
733.173	7547.28
733.359	7498.13
733.545	7645.58
733.731	7569.8
733.917	7698.83
734.103	7467.41
734.289	7498.13
734.475	7268.75
734.661	7582.09
734.847	7262.61
735.033	7303.57
735.219	7403.92
735.404	7092.63
735.59	7131.54
735.776	6793.62
735.962	7235.99
736.148	7309.71
736.333	7149.97
736.519	6994.33
736.705	6910.36
736.89	6932.89
737.076	6859.16
737.262	6664.6
737.447	6750.62
737.633	6697.37
737.819	6812.06
738.004	6652.31
738.19	6646.17
738.375	6740.38
738.561	6533.53
738.747	6558.11
738.932	6420.89
739.118	6764.95
739.303	6451.61
739.489	6396.32
739.674	6404.51
739.859	6316.45
740.045	6478.24
740.23	6279.58
740.416	5986.72
740.601	6359.45
740.786	6168.99
740.972	6232.48
741.157	6011.3
741.342	6042.02
741.528	5941.67
741.713	6050.21
741.898	6001.06
742.084	5980.58
742.269	5982.63
742.454	5945.77
742.639	6015.4
742.824	5847.46
743.01	5927.33
743.195	5908.9
743.38	5929.38
743.565	5630.38
743.75	5661.1
743.935	5659.05
744.12	5812.65
744.305	5525.93
744.49	5568.94
744.675	5456.3
744.86	5677.48
745.045	5712.3
745.23	5308.85
745.415	5409.2
745.6	5654.95
745.785	5302.7
745.97	5181.87
746.155	5269.94
746.34	5513.64
746.525	5267.89
746.71	5200.3
746.895	4981.17
747.079	5108.15
747.264	5015.99
747.449	4983.22
747.634	5058.99
747.819	5099.95
748.003	4987.32
748.188	4839.86
748.373	4864.44
748.557	4948.4
748.742	4803
748.927	4661.69
749.111	4755.9
749.296	4688.31
749.481	4747.7
749.665	4690.36
749.85	4487.61
750.034	4846.01
750.219	4473.28
750.404	4411.84
750.588	4467.13
750.773	4463.04
750.957	4469.18
751.141	4473.28
751.326	4532.67
751.51	4338.11
751.695	4401.6
751.879	4229.57
752.064	4225.47
752.248	4397.5
752.432	4309.44
752.617	4069.83
752.801	4153.79
752.985	4088.26
753.17	4264.38
753.354	4118.98
753.538	3887.56
753.722	4026.82
753.907	4073.92
754.091	3758.53
754.275	3727.82
754.459	3668.42
754.643	3899.84
754.828	3781.06
755.012	3682.76
755.196	3680.71
755.38	3848.65
755.564	3643.85
755.748	3545.55
755.932	3699.14
756.116	3670.47
756.3	3502.54
756.484	3514.83
756.668	3693
756.852	3365.32
757.036	3465.68
757.22	3391.95
757.404	3371.47
757.588	3301.84
757.772	3398.09
757.956	3273.17
758.14	3645.9
758.323	3318.22
758.507	3389.9
758.691	3226.06
758.875	3410.38
759.059	3504.59
759.242	3064.27
759.426	3230.16
759.61	3162.58
759.794	2984.4
759.977	3166.67
760.161	3514.83
760.345	3285.45
760.528	3240.4
760.712	3054.03
760.895	3144.14
761.079	2963.92
761.263	2853.33
761.446	2857.43
761.63	2687.45
761.813	3062.23
761.997	2826.71
762.18	2712.02
762.364	2922.96
762.547	2775.51
762.731	2814.42
762.914	2886.1
763.098	2621.91
763.281	2802.13
763.464	2689.49
763.648	2699.73
763.831	2761.17
764.015	2740.69
764.198	2855.38
764.381	2666.97
764.564	2576.86
764.748	2832.85
764.931	2793.94
765.114	2546.14
765.297	2607.58
765.481	2531.8
765.664	2666.97
765.847	2378.2
766.03	2548.19
766.213	2654.68
766.397	2740.69
766.58	2445.79
766.763	2742.74
766.946	2599.38
767.129	2535.9
767.312	2539.99
767.495	2517.47
767.678	2564.57
767.861	2572.76
768.044	2447.83
768.227	2492.89
768.41	2486.75
768.593	2449.88
768.776	2437.59
768.959	2384.35
769.142	2693.59
769.324	2458.07
769.507	2306.52
769.69	2331.1
769.873	2488.79
770.056	2816.47
770.239	2183.65
770.421	2494.94
770.604	2486.75
770.787	2374.11
770.97	2279.9
771.152	2191.84
771.335	2386.4
771.518	2167.26
771.7	2173.41
771.883	2333.15
772.066	2339.29
772.248	2304.48
772.431	2382.3
772.613	2275.81
772.796	2318.81
772.978	2394.59
773.161	2249.18
773.343	2140.64
773.526	2247.13
773.708	1960.42
773.891	1952.23
774.073	2009.57
774.256	2095.58
774.438	2302.43
774.621	1964.51
774.803	2068.96
774.985	2120.16
775.168	2206.17
775.35	1972.71
775.532	2079.2
775.715	1929.7
775.897	2083.3
776.079	1948.13
776.261	1892.84
776.444	1804.77
776.626	1827.3
776.808	1917.41
776.99	1651.17
777.173	1896.93
777.355	1806.82
777.537	1749.48
777.719	1767.91
777.901	1823.2
778.083	1798.63
778.265	1710.57
778.447	1765.86
778.629	1673.7
778.811	1790.44
778.993	1833.44
779.175	1581.54
779.357	1698.28
779.539	1552.87
779.721	1608.17
779.903	1653.22
780.085	1741.29
780.267	1767.91
780.449	1556.97
780.631	1628.65
780.812	1841.64
780.994	1630.7
781.176	1493.48
781.358	1524.2
781.54	1556.97
781.721	1722.85
781.903	1417.71
782.085	1331.69
782.267	1669.61
782.448	1415.66
782.63	1423.85
782.812	1460.71
782.993	1589.74
783.175	1561.06
783.357	1333.74
783.538	1511.91
783.72	1411.56
783.901	1415.66
784.083	1374.7
784.264	1333.74
784.446	1393.13
784.627	1212.91
784.809	1423.85
784.99	1274.35
785.172	1483.24
785.353	1251.82
785.535	1253.87
785.716	1147.37
785.897	1128.94
786.079	1296.88
786.26	1196.53
786.441	1186.29
786.623	1028.59
786.804	1196.53
786.985	1071.6
787.167	1137.13
787.348	1167.85
787.529	1120.75
787.71	1149.42
787.891	1130.99
788.073	1047.02
788.254	991.73
788.435	1104.37
788.616	997.87
788.797	1145.33
788.978	1069.55
789.159	1069.55
789.34	1143.28
789.522	1079.79
789.703	973.3
789.884	1042.93
790.065	1075.7
790.246	1292.78
790.427	1053.17
790.607	1024.5
790.788	1112.56
790.969	979.44
791.15	1049.07
791.331	915.95
791.512	897.52
791.693	840.18
791.874	918
792.054	954.87
792.235	934.39
792.416	881.14
792.597	856.56
792.778	981.49
792.958	840.18
793.139	963.06
793.32	838.13
793.5	692.73
793.681	952.82
793.862	1036.78
794.042	862.71
794.223	649.72
794.404	727.54
794.584	696.82
794.765	893.43
794.945	831.99
795.126	885.23
795.306	907.76
795.487	870.9
795.667	705.01
795.848	684.53
796.028	815.6
796.209	797.17
796.389	1012.21
796.57	700.92
796.75	739.83
796.93	776.69
797.111	729.59
797.291	680.44
797.471	854.51
797.652	770.55
797.832	643.57
798.012	778.74
798.192	698.87
798.373	610.81
798.553	709.11
798.733	881.14
798.913	590.33
799.093	743.92
799.274	635.38
799.454	729.59
799.634	909.81
799.814	856.56
799.994	635.38
800.174	750.07
800.354	788.98
800.534	449.02
800.714	664.05
800.894	537.08
801.074	537.08
801.254	600.57
801.434	797.17
801.614	684.53
801.794	588.28
801.974	4358.59
802.154	635.38
802.334	723.44
802.514	465.4
802.693	623.09
802.873	422.39
803.053	754.16
803.233	721.4
803.413	700.92
803.592	467.45
803.772	422.39
803.952	651.77
804.131	430.59
804.311	637.43
804.491	653.81
804.67	551.42
804.85	489.98
805.03	494.07
805.209	737.78
805.389	643.57
805.568	549.37
805.748	571.9
805.928	631.29
806.107	733.68
806.287	635.38
806.466	586.23
806.646	520.7
806.825	627.19
807.004	440.83
807.184	541.18
807.363	586.23
807.543	580.09
807.722	395.77
807.901	643.57
808.081	481.78
808.26	262.65
808.439	549.37
808.619	459.26
808.798	485.88
808.977	555.51
809.156	719.35
809.336	487.93
809.515	414.2
809.694	506.36
809.873	416.25
810.052	434.68
810.231	621.05
810.411	526.84
810.59	653.81
810.769	483.83
810.948	477.69
811.127	346.62
811.306	440.83
811.485	358.91
811.664	440.83
811.843	539.13
812.022	489.98
812.201	346.62
812.38	305.66
812.559	406.01
812.737	561.66
812.916	211.45
813.095	332.28
813.274	608.76
813.453	539.13
813.632	375.29
813.811	518.65
813.989	246.27
814.168	479.74
814.347	272.89
814.526	317.95
814.704	629.24
814.883	606.71
815.062	258.56
815.24	463.35
815.419	266.75
815.598	463.35
815.776	186.88
815.955	324.09
816.133	174.59
816.312	461.3
816.49	240.12
816.669	387.58
816.847	387.58
817.026	496.12
817.204	303.61
817.383	340.47
817.561	320
817.74	522.74
817.918	334.33
818.097	180.73
818.275	299.52
818.453	496.12
818.632	410.11
818.81	279.04
818.988	236.03
819.167	315.9
819.345	289.28
819.523	285.18
819.701	494.07
819.879	432.63
820.058	326.14
820.236	348.67
820.414	412.15
820.592	266.75
820.77	322.04
820.948	236.03
821.127	297.47
821.305	426.49
821.483	113.15
821.661	324.09
821.839	426.49
822.017	174.59
822.195	217.6
822.373	397.82
822.551	350.71
822.729	479.74
822.907	238.08
823.085	350.71
823.262	455.16
823.44	252.41
823.618	272.89
823.796	217.6
823.974	305.66
824.152	172.54
824.329	285.18
824.507	248.32
824.685	414.2
824.863	358.91
825.04	229.88
825.218	260.6
825.396	397.82
825.574	397.82
825.751	338.43
825.929	182.78
826.107	184.83
826.284	393.72
826.462	229.88
826.639	137.73
826.817	178.69
826.994	356.86
827.172	88.57
827.349	207.36
827.527	299.52
827.704	268.8
827.882	383.48
828.059	109.05
828.237	309.76
828.414	389.63
828.591	57.86
828.769	193.02
828.946	195.07
829.124	340.47
829.301	383.48
829.478	145.92
829.655	346.62
829.833	408.06
830.01	18.94
830.187	373.24
830.364	268.8
830.542	305.66
830.719	195.07
830.896	283.13
831.073	358.91
831.25	268.8
831.427	158.21
831.604	225.79
831.782	203.26
831.959	365.05
832.136	197.12
832.313	260.6
832.49	324.09
832.667	346.62
832.844	72.19
833.021	410.11
833.198	299.52
833.374	326.14
833.551	266.75
833.728	164.35
833.905	381.43
834.082	53.76
834.259	236.03
834.436	406.01
834.612	104.96
834.789	328.19
834.966	160.25
835.143	170.49
835.319	111.1
835.496	330.23
835.673	244.22
835.85	236.03
836.026	315.9
836.203	350.71
836.38	72.19
836.556	193.02
836.733	244.22
836.909	498.17
837.086	121.34
837.262	18.94
837.439	233.98
837.616	201.21
837.792	193.02
837.968	205.31
838.145	-7.68
838.321	244.22
838.498	147.97
838.674	223.74
838.851	272.89
839.027	78.33
839.203	131.58
839.38	233.98
839.556	135.68
839.732	244.22
839.909	158.21
840.085	94.72
840.261	129.53
840.437	188.93
840.614	92.67
840.79	250.36
840.966	340.47
841.142	268.8
841.318	246.27
841.494	129.53
841.671	348.67
841.847	145.92
842.023	41.47
842.199	94.72
842.375	444.92
842.551	68.09
842.727	0.51
842.903	252.41
843.079	121.34
843.255	330.23
843.431	172.54
843.607	201.21
843.783	-138.75
843.959	164.35
844.134	64
844.31	266.75
844.486	107.01
844.662	168.45
844.838	193.02
845.013	78.33
845.189	383.48
845.365	195.07
845.541	131.58
845.716	242.17
845.892	412.15
846.068	145.92
846.244	123.39
846.419	80.38
846.595	53.76
846.77	111.1
846.946	205.31
847.122	121.34
847.297	174.59
847.473	489.98
847.648	-26.11
847.824	102.91
847.999	-52.74
848.175	186.88
848.35	215.55
848.526	322.04
848.701	383.48
848.876	326.14
849.052	330.23
849.227	154.11
849.403	160.25
849.578	256.51
849.753	213.5
849.929	78.33
850.104	-54.78
850.279	244.22
850.454	162.3
850.63	168.45
850.805	180.73
850.98	274.94
851.155	193.02
851.33	217.6
851.505	92.67
851.681	426.49
851.856	74.24
852.031	207.36
852.206	117.25
852.381	125.44
852.556	82.43
852.731	137.73
852.906	336.38
853.081	244.22
853.256	254.46
853.431	111.1
853.606	119.29
853.781	141.82
853.956	-48.64
854.131	119.29
854.305	-17.92
854.48	86.53
854.655	80.38
854.83	45.57
855.005	225.79
855.18	238.08
855.354	45.57
855.529	96.77
855.704	201.21
855.879	369.15
856.053	45.57
856.228	143.87
856.403	102.91
856.577	299.52
856.752	-40.45
856.926	88.57
857.101	244.22
857.276	16.9
857.45	141.82
857.625	195.07
857.799	227.84
857.974	168.45
858.148	64
858.323	152.06
858.497	61.95
858.672	61.95
858.846	98.81
859.02	180.73
859.195	-11.78
859.369	125.44
859.543	164.35
859.718	145.92
859.892	137.73
860.066	172.54
860.241	74.24
860.415	-73.21
860.589	70.14
860.763	164.35
860.938	96.77
861.112	72.19
861.286	119.29
861.46	236.03
861.634	59.9
861.808	88.57
861.982	68.09
862.157	59.9
862.331	160.25
862.505	-60.93
862.679	-17.92
862.853	176.64
863.027	80.38
863.201	147.97
863.375	139.77
863.549	180.73
863.722	193.02
863.896	154.11
864.07	10.75
864.244	135.68
864.418	139.77
864.592	123.39
864.766	268.8
864.939	158.21
865.113	45.57
865.287	293.37
865.461	53.76
865.634	209.4
865.808	94.72
865.982	127.49
866.156	107.01
866.329	-44.54
866.503	74.24
866.676	193.02
866.85	170.49
867.024	104.96
867.197	225.79
867.371	162.3
867.544	180.73
867.718	-7.68
867.891	209.4
868.065	14.85
868.238	182.78
868.412	281.08
868.585	102.91
868.759	49.66
868.932	129.53
869.105	29.18
869.279	152.06
869.452	53.76
869.625	326.14
869.799	16.9
869.972	-34.3
870.145	57.86
870.319	342.52
870.492	61.95
870.665	84.48
870.838	-73.21
871.011	-69.12
871.185	129.53
871.358	61.95
871.531	238.08
871.704	68.09
871.877	125.44
872.05	33.28
872.223	-91.65
872.396	211.45
872.569	193.02
872.742	-38.4
872.915	164.35
873.088	227.84
873.261	-26.11
873.434	186.88
873.607	47.62
873.78	340.47
873.953	33.28
874.126	123.39
874.299	111.1
874.471	88.57
874.644	47.62
874.817	104.96
874.99	199.16
875.163	70.14
875.335	92.67
875.508	45.57
875.681	150.01
875.853	76.29
876.026	217.6
876.199	180.73
876.371	70.14
876.544	72.19
876.717	162.3
876.889	80.38
877.062	137.73
877.234	-38.4
877.407	86.53
877.579	137.73
877.752	94.72
877.924	303.61
878.097	229.88
878.269	33.28
878.442	117.25
878.614	182.78
878.786	176.64
878.959	90.62
879.131	147.97
879.303	-54.78
879.476	94.72
879.648	233.98
879.82	-26.11
879.993	98.81
880.165	70.14
880.337	-73.21
880.509	86.53
880.681	-38.4
880.854	-1.54
881.026	238.08
881.198	203.26
881.37	129.53
881.542	160.25
881.714	-17.92
881.886	-9.73
882.058	164.35
882.23	152.06
882.402	133.63
882.574	156.16
882.746	254.46
882.918	322.04
883.09	127.49
883.262	25.09
883.434	274.94
883.606	-1.54
883.778	76.29
883.95	150.01
884.122	39.42
884.293	283.13
884.465	74.24
884.637	141.82
884.809	2.56
884.98	244.22
885.152	238.08
885.324	203.26
885.496	45.57
885.667	94.72
885.839	57.86
886.011	61.95
886.182	252.41
886.354	240.12
886.525	174.59
886.697	47.62
886.869	35.33
887.04	86.53
887.212	287.23
887.383	221.69
887.555	174.59
887.726	16.9
887.897	41.47
888.069	86.53
888.24	258.56
888.412	98.81
888.583	94.72
888.754	53.76
888.926	-81.41
889.097	20.99
889.268	-38.4
889.44	53.76
889.611	-19.97
889.782	39.42
889.953	-19.97
890.125	86.53
890.296	33.28
890.467	66.05
890.638	53.76
890.809	59.9
890.98	70.14
891.151	252.41
891.323	158.21
891.494	-7.68
891.665	129.53
891.836	219.64
892.007	125.44
892.178	90.62
892.349	213.5
892.52	14.85
892.691	68.09
892.862	23.04
893.032	0.51
893.203	-9.73
893.374	53.76
893.545	160.25
893.716	64
893.887	266.75
894.057	12.8
894.228	33.28
894.399	123.39
894.57	313.85
894.74	139.77
894.911	193.02
895.082	86.53
895.253	49.66
895.423	209.4
895.594	68.09
895.764	317.95
895.935	-44.54
896.106	55.81
896.276	20.99
896.447	127.49
896.617	82.43
896.788	-40.45
896.958	-17.92
897.129	76.29
897.299	-24.06
897.47	266.75
897.64	111.1
897.81	16.9
897.981	225.79
898.151	20.99
898.322	84.48
898.492	135.68
898.662	-17.92
898.832	96.77
899.003	39.42
899.173	201.21
899.343	10.75
899.513	35.33
