Data from USB4F104151__93__11-45-45-026.txt Node

Date: Fri Mar 14 11:45:45 EDT 2025
User: louis
Spectrometer: USB4F10415
Trigger mode: 4
Integration Time (sec): 2.000000E-2
Scans to average: 1
Electric dark correction enabled: true
Nonlinearity correction enabled: false
Boxcar width: 0
XAxis mode: Wavelengths
Number of Pixels in Spectrum: 3648
>>>>>Begin Spectral Data<<<<<
178.204	-36.52
178.424	-36.52
178.644	-36.52
178.864	-81.58
179.084	-61.1
179.304	-5.8
179.524	18.77
179.744	-18.09
179.964	29.01
180.184	-5.8
180.404	-50.86
180.624	33.11
180.844	-13.99
181.064	-9.9
181.283	37.2
181.503	-30.38
181.723	16.73
181.943	-36.52
182.163	33.11
182.383	43.35
182.602	-48.81
182.822	8.53
183.042	49.49
183.262	-36.52
183.482	29.01
183.701	43.35
183.921	8.53
184.141	-18.09
184.361	65.88
184.58	37.2
184.8	24.92
185.02	-44.71
185.239	82.26
185.459	-5.8
185.679	45.4
185.898	-18.09
186.118	8.53
186.338	-36.52
186.557	53.59
186.777	-18.09
186.997	-7.85
187.216	8.53
187.436	63.83
187.655	-3.75
187.875	55.64
188.095	16.73
188.314	0.34
188.534	-20.14
188.753	14.68
188.973	82.26
189.192	45.4
189.412	2.39
189.631	59.73
189.851	6.49
190.07	-20.14
190.29	63.83
190.509	82.26
190.729	37.2
190.948	33.11
191.168	6.49
191.387	-3.75
191.607	47.44
191.826	39.25
192.045	-9.9
192.265	-44.71
192.484	-32.43
192.704	14.68
192.923	-22.19
193.142	16.73
193.362	47.44
193.581	39.25
193.8	74.07
194.02	69.97
194.239	-54.95
194.458	4.44
194.678	-7.85
194.897	-3.75
195.116	-1.71
195.335	35.16
195.555	-24.23
195.774	47.44
195.993	90.45
196.212	69.97
196.432	16.73
196.651	20.82
196.87	76.12
197.089	100.69
197.308	16.73
197.528	37.2
197.747	-26.28
197.966	-34.47
198.185	31.06
198.404	-22.19
198.623	-5.8
198.842	-9.9
199.062	65.88
199.281	12.63
199.5	80.21
199.719	20.82
199.938	-5.8
200.157	72.02
200.376	47.44
200.595	-5.8
200.814	76.12
201.033	72.02
201.252	20.82
201.471	141.65
201.69	110.93
201.909	0.34
202.128	63.83
202.347	26.96
202.566	20.82
202.785	55.64
203.004	-7.85
203.223	106.84
203.442	6.49
203.661	-5.8
203.879	63.83
204.098	14.68
204.317	-1.71
204.536	31.06
204.755	92.5
204.974	8.53
205.193	74.07
205.411	33.11
205.63	10.58
205.849	35.16
206.068	39.25
206.287	16.73
206.505	82.26
206.724	61.78
206.943	39.25
207.162	33.11
207.381	49.49
207.599	-32.43
207.818	53.59
208.037	22.87
208.255	14.68
208.474	-13.99
208.693	100.69
208.911	-9.9
209.13	-24.23
209.349	102.74
209.567	92.5
209.786	69.97
210.005	69.97
210.223	6.49
210.442	-69.29
210.661	43.35
210.879	31.06
211.098	67.92
211.316	-16.04
211.535	69.97
211.753	-3.75
211.972	41.3
212.191	12.63
212.409	-24.23
212.628	82.26
212.846	88.4
213.065	33.11
213.283	65.88
213.502	-65.19
213.72	-28.33
213.938	-9.9
214.157	76.12
214.375	57.68
214.594	47.44
214.812	43.35
215.031	-24.23
215.249	-28.33
215.467	-69.29
215.686	61.78
215.904	18.77
216.122	37.2
216.341	12.63
216.559	49.49
216.778	55.64
216.996	67.92
217.214	22.87
217.432	37.2
217.651	22.87
217.869	-18.09
218.087	-22.19
218.306	45.4
218.524	49.49
218.742	45.4
218.96	20.82
219.179	88.4
219.397	115.03
219.615	94.55
219.833	-5.8
220.051	74.07
220.27	47.44
220.488	4.44
220.706	67.92
220.924	45.4
221.142	-67.24
221.36	51.54
221.578	55.64
221.796	16.73
222.015	0.34
222.233	26.96
222.451	76.12
222.669	-3.75
222.887	110.93
223.105	20.82
223.323	12.63
223.541	20.82
223.759	-48.81
223.977	33.11
224.195	112.98
224.413	-20.14
224.631	39.25
224.849	4.44
225.067	102.74
225.285	-18.09
225.503	-32.43
225.721	-32.43
225.939	37.2
226.157	-44.71
226.375	106.84
226.592	12.63
226.81	59.73
227.028	35.16
227.246	67.92
227.464	-7.85
227.682	26.96
227.9	26.96
228.117	123.22
228.335	-1.71
228.553	6.49
228.771	16.73
228.989	55.64
229.206	29.01
229.424	53.59
229.642	22.87
229.86	14.68
230.077	65.88
230.295	0.34
230.513	14.68
230.731	0.34
230.948	-7.85
231.166	92.5
231.384	47.44
231.601	-97.96
231.819	24.92
232.037	45.4
232.254	-112.3
232.472	55.64
232.689	8.53
232.907	2.39
233.125	76.12
233.342	43.35
233.56	-48.81
233.777	-18.09
233.995	45.4
234.213	-1.71
234.43	55.64
234.648	12.63
234.865	74.07
235.083	110.93
235.3	35.16
235.518	22.87
235.735	92.5
235.953	53.59
236.17	65.88
236.388	72.02
236.605	-1.71
236.822	94.55
237.04	8.53
237.257	41.3
237.475	51.54
237.692	74.07
237.909	2.39
238.127	41.3
238.344	57.68
238.562	22.87
238.779	-7.85
238.996	-44.71
239.214	-5.8
239.431	39.25
239.648	41.3
239.865	35.16
240.083	-46.76
240.3	92.5
240.517	14.68
240.735	37.2
240.952	69.97
241.169	45.4
241.386	0.34
241.603	16.73
241.821	-16.04
242.038	-38.57
242.255	61.78
242.472	24.92
242.689	-7.85
242.907	55.64
243.124	-61.1
243.341	53.59
243.558	8.53
243.775	-22.19
243.992	-16.04
244.209	94.55
244.426	78.16
244.643	92.5
244.86	10.58
245.078	41.3
245.295	-30.38
245.512	14.68
245.729	24.92
245.946	14.68
246.163	76.12
246.38	41.3
246.597	12.63
246.814	63.83
247.031	39.25
247.248	26.96
247.464	16.73
247.681	22.87
247.898	69.97
248.115	53.59
248.332	-20.14
248.549	41.3
248.766	74.07
248.983	78.16
249.2	-24.23
249.417	45.4
249.633	57.68
249.85	-42.67
250.067	65.88
250.284	35.16
250.501	41.3
250.717	53.59
250.934	31.06
251.151	20.82
251.368	41.3
251.585	49.49
251.801	-7.85
252.018	20.82
252.235	96.6
252.451	16.73
252.668	-26.28
252.885	-34.47
253.102	12.63
253.318	29.01
253.535	61.78
253.752	-28.33
253.968	-44.71
254.185	14.68
254.401	20.82
254.618	12.63
254.835	-63.15
255.051	45.4
255.268	31.06
255.484	78.16
255.701	53.59
255.917	8.53
256.134	55.64
256.351	35.16
256.567	65.88
256.784	100.69
257	33.11
257.217	100.69
257.433	45.4
257.65	-7.85
257.866	78.16
258.082	-22.19
258.299	14.68
258.515	26.96
258.732	20.82
258.948	41.3
259.165	-1.71
259.381	12.63
259.597	35.16
259.814	10.58
260.03	-18.09
260.246	69.97
260.463	55.64
260.679	86.36
260.895	35.16
261.112	29.01
261.328	-3.75
261.544	24.92
261.761	90.45
261.977	78.16
262.193	-5.8
262.409	74.07
262.626	-1.71
262.842	39.25
263.058	6.49
263.274	65.88
263.49	12.63
263.707	65.88
263.923	-22.19
264.139	29.01
264.355	29.01
264.571	14.68
264.787	4.44
265.004	39.25
265.22	14.68
265.436	39.25
265.652	12.63
265.868	53.59
266.084	-42.67
266.3	-22.19
266.516	-5.8
266.732	108.88
266.948	-3.75
267.164	14.68
267.38	63.83
267.596	-40.62
267.812	67.92
268.028	4.44
268.244	4.44
268.46	-36.52
268.676	43.35
268.892	55.64
269.108	-16.04
269.324	14.68
269.54	-42.67
269.756	37.2
269.972	29.01
270.188	-36.52
270.403	-46.76
270.619	-1.71
270.835	98.64
271.051	8.53
271.267	4.44
271.483	20.82
271.698	18.77
271.914	125.27
272.13	96.6
272.346	-38.57
272.562	63.83
272.777	-1.71
272.993	14.68
273.209	20.82
273.425	-20.14
273.64	33.11
273.856	-3.75
274.072	-18.09
274.287	16.73
274.503	-26.28
274.719	104.79
274.934	-50.86
275.15	29.01
275.366	43.35
275.581	92.5
275.797	12.63
276.012	10.58
276.228	43.35
276.444	49.49
276.659	47.44
276.875	16.73
277.09	63.83
277.306	80.21
277.521	80.21
277.737	76.12
277.952	33.11
278.168	31.06
278.383	45.4
278.599	8.53
278.814	0.34
279.03	41.3
279.245	41.3
279.461	84.31
279.676	10.58
279.892	-18.09
280.107	-16.04
280.322	45.4
280.538	2.39
280.753	53.59
280.969	65.88
281.184	10.58
281.399	0.34
281.615	-3.75
281.83	35.16
282.045	-89.77
282.26	47.44
282.476	51.54
282.691	86.36
282.906	39.25
283.122	33.11
283.337	-1.71
283.552	-38.57
283.767	55.64
283.983	29.01
284.198	-40.62
284.413	-20.14
284.628	-36.52
284.843	-5.8
285.058	82.26
285.274	84.31
285.489	16.73
285.704	-1.71
285.919	41.3
286.134	-1.71
286.349	53.59
286.564	-11.95
286.779	51.54
286.995	22.87
287.21	0.34
287.425	61.78
287.64	-34.47
287.855	51.54
288.07	-7.85
288.285	33.11
288.5	76.12
288.715	0.34
288.93	37.2
289.145	74.07
289.36	26.96
289.575	20.82
289.79	82.26
290.004	-42.67
290.219	121.17
290.434	-9.9
290.649	-18.09
290.864	22.87
291.079	-7.85
291.294	61.78
291.509	-7.85
291.724	2.39
291.938	127.32
292.153	43.35
292.368	35.16
292.583	-36.52
292.798	8.53
293.012	12.63
293.227	43.35
293.442	47.44
293.657	47.44
293.871	102.74
294.086	49.49
294.301	26.96
294.516	76.12
294.73	94.55
294.945	47.44
295.16	53.59
295.374	6.49
295.589	92.5
295.804	31.06
296.018	74.07
296.233	43.35
296.447	33.11
296.662	-50.86
296.877	14.68
297.091	123.22
297.306	76.12
297.52	-7.85
297.735	-28.33
297.949	-59.05
298.164	-22.19
298.378	18.77
298.593	53.59
298.807	-13.99
299.022	65.88
299.236	63.83
299.451	4.44
299.665	53.59
299.88	20.82
300.094	8.53
300.309	-20.14
300.523	31.06
300.737	43.35
300.952	72.02
301.166	33.11
301.381	20.82
301.595	-59.05
301.809	-16.04
302.024	112.98
302.238	-65.19
302.452	69.97
302.667	74.07
302.881	55.64
303.095	-3.75
303.309	51.54
303.524	41.3
303.738	47.44
303.952	18.77
304.166	26.96
304.381	4.44
304.595	67.92
304.809	-48.81
305.023	37.2
305.237	55.64
305.452	22.87
305.666	22.87
305.88	45.4
306.094	33.11
306.308	33.11
306.522	72.02
306.736	82.26
306.95	57.68
307.164	29.01
307.379	41.3
307.593	92.5
307.807	16.73
308.021	43.35
308.235	119.12
308.449	-50.86
308.663	41.3
308.877	92.5
309.091	49.49
309.305	84.31
309.519	26.96
309.733	59.73
309.947	26.96
310.161	82.26
310.374	72.02
310.588	47.44
310.802	26.96
311.016	18.77
311.23	-44.71
311.444	14.68
311.658	76.12
311.872	0.34
312.085	35.16
312.299	59.73
312.513	18.77
312.727	31.06
312.941	10.58
313.154	74.07
313.368	41.3
313.582	37.2
313.796	24.92
314.009	0.34
314.223	0.34
314.437	39.25
314.651	22.87
314.864	26.96
315.078	2.39
315.292	-9.9
315.505	12.63
315.719	-36.52
315.933	-1.71
316.146	12.63
316.36	63.83
316.573	31.06
316.787	33.11
317.001	-34.47
317.214	125.27
317.428	39.25
317.641	61.78
317.855	72.02
318.068	45.4
318.282	8.53
318.495	57.68
318.709	29.01
318.922	-28.33
319.136	47.44
319.349	0.34
319.563	26.96
319.776	-16.04
319.99	18.77
320.203	-7.85
320.417	69.97
320.63	69.97
320.843	80.21
321.057	-52.91
321.27	-36.52
321.483	39.25
321.697	90.45
321.91	45.4
322.124	53.59
322.337	-3.75
322.55	6.49
322.763	-48.81
322.977	47.44
323.19	-20.14
323.403	20.82
323.617	18.77
323.83	26.96
324.043	2.39
324.256	123.22
324.469	-26.28
324.683	35.16
324.896	-1.71
325.109	-16.04
325.322	98.64
325.535	86.36
325.748	-44.71
325.962	18.77
326.175	22.87
326.388	53.59
326.601	90.45
326.814	-63.15
327.027	-9.9
327.24	29.01
327.453	-44.71
327.666	45.4
327.879	53.59
328.092	45.4
328.305	-11.95
328.518	100.69
328.731	-9.9
328.944	24.92
329.157	33.11
329.37	74.07
329.583	115.03
329.796	22.87
330.009	45.4
330.222	110.93
330.435	6.49
330.648	26.96
330.861	-32.43
331.073	33.11
331.286	82.26
331.499	57.68
331.712	61.78
331.925	0.34
332.138	12.63
332.35	35.16
332.563	24.92
332.776	47.44
332.989	49.49
333.202	29.01
333.414	55.64
333.627	-1.71
333.84	-38.57
334.053	-13.99
334.265	74.07
334.478	39.25
334.691	-3.75
334.903	61.78
335.116	4.44
335.329	49.49
335.541	-32.43
335.754	8.53
335.966	-24.23
336.179	-9.9
336.392	14.68
336.604	-38.57
336.817	6.49
337.029	100.69
337.242	-13.99
337.454	43.35
337.667	74.07
337.88	98.64
338.092	59.73
338.305	26.96
338.517	51.54
338.729	47.44
338.942	-36.52
339.154	106.84
339.367	-42.67
339.579	72.02
339.792	-1.71
340.004	29.01
340.217	94.55
340.429	33.11
340.641	45.4
340.854	35.16
341.066	-20.14
341.278	67.92
341.491	119.12
341.703	45.4
341.915	-5.8
342.128	33.11
342.34	-38.57
342.552	0.34
342.764	63.83
342.977	80.21
343.189	37.2
343.401	78.16
343.613	67.92
343.826	63.83
344.038	14.68
344.25	-11.95
344.462	10.58
344.674	39.25
344.886	-3.75
345.099	22.87
345.311	63.83
345.523	61.78
345.735	2.39
345.947	41.3
346.159	82.26
346.371	12.63
346.583	-59.05
346.795	96.6
347.007	26.96
347.219	115.03
347.431	-9.9
347.643	57.68
347.855	-22.19
348.067	67.92
348.279	92.5
348.491	69.97
348.703	12.63
348.915	4.44
349.127	-69.29
349.339	4.44
349.551	16.73
349.763	22.87
349.975	6.49
350.187	76.12
350.399	84.31
350.61	51.54
350.822	-36.52
351.034	63.83
351.246	10.58
351.458	26.96
351.669	0.34
351.881	10.58
352.093	61.78
352.305	72.02
352.517	92.5
352.728	26.96
352.94	-40.62
353.152	49.49
353.363	18.77
353.575	100.69
353.787	74.07
353.999	80.21
354.21	-22.19
354.422	26.96
354.633	2.39
354.845	63.83
355.057	-11.95
355.268	-3.75
355.48	65.88
355.692	47.44
355.903	94.55
356.115	14.68
356.326	-28.33
356.538	127.32
356.749	104.79
356.961	37.2
357.172	6.49
357.384	16.73
357.595	45.4
357.807	29.01
358.018	33.11
358.23	37.2
358.441	74.07
358.653	18.77
358.864	-20.14
359.075	119.12
359.287	86.36
359.498	61.78
359.709	12.63
359.921	10.58
360.132	2.39
360.344	108.88
360.555	65.88
360.766	39.25
360.977	43.35
361.189	74.07
361.4	26.96
361.611	47.44
361.823	74.07
362.034	45.4
362.245	18.77
362.456	8.53
362.667	33.11
362.879	31.06
363.09	74.07
363.301	61.78
363.512	6.49
363.723	26.96
363.935	39.25
364.146	24.92
364.357	-48.81
364.568	121.17
364.779	-13.99
364.99	102.74
365.201	39.25
365.412	53.59
365.623	0.34
365.834	69.97
366.045	10.58
366.256	41.3
366.467	76.12
366.678	80.21
366.889	106.84
367.1	22.87
367.311	-7.85
367.522	57.68
367.733	74.07
367.944	18.77
368.155	26.96
368.366	108.88
368.577	35.16
368.788	37.2
368.999	2.39
369.209	112.98
369.42	51.54
369.631	33.11
369.842	61.78
370.053	69.97
370.264	78.16
370.474	43.35
370.685	37.2
370.896	53.59
371.107	31.06
371.317	0.34
371.528	76.12
371.739	100.69
371.95	90.45
372.16	-54.95
372.371	-22.19
372.582	37.2
372.792	20.82
373.003	18.77
373.214	63.83
373.424	86.36
373.635	33.11
373.846	147.8
374.056	18.77
374.267	-3.75
374.477	4.44
374.688	-22.19
374.898	76.12
375.109	74.07
375.319	-9.9
375.53	39.25
375.74	63.83
375.951	61.78
376.161	53.59
376.372	45.4
376.582	-32.43
376.793	76.12
377.003	18.77
377.214	-40.62
377.424	67.92
377.635	14.68
377.845	20.82
378.055	0.34
378.266	47.44
378.476	108.88
378.686	-9.9
378.897	63.83
379.107	-24.23
379.317	39.25
379.528	-7.85
379.738	90.45
379.948	31.06
380.158	84.31
380.369	31.06
380.579	49.49
380.789	72.02
380.999	57.68
381.21	72.02
381.42	98.64
381.63	51.54
381.84	57.68
382.05	112.98
382.261	47.44
382.471	92.5
382.681	33.11
382.891	4.44
383.101	65.88
383.311	-1.71
383.521	-7.85
383.731	57.68
383.941	49.49
384.151	47.44
384.361	-28.33
384.571	45.4
384.781	92.5
384.991	41.3
385.201	45.4
385.411	53.59
385.621	-9.9
385.831	49.49
386.041	6.49
386.251	88.4
386.461	-18.09
386.671	74.07
386.881	57.68
387.091	31.06
387.301	45.4
387.511	35.16
387.72	78.16
387.93	94.55
388.14	43.35
388.35	33.11
388.56	55.64
388.769	-20.14
388.979	90.45
389.189	84.31
389.399	67.92
389.609	51.54
389.818	24.92
390.028	53.59
390.238	20.82
390.447	41.3
390.657	47.44
390.867	-26.28
391.076	57.68
391.286	57.68
391.496	49.49
391.705	-5.8
391.915	117.08
392.125	45.4
392.334	98.64
392.544	110.93
392.753	72.02
392.963	29.01
393.172	29.01
393.382	26.96
393.591	65.88
393.801	22.87
394.01	47.44
394.22	72.02
394.429	-40.62
394.639	12.63
394.848	86.36
395.058	63.83
395.267	49.49
395.477	112.98
395.686	67.92
395.895	88.4
396.105	41.3
396.314	49.49
396.524	-13.99
396.733	102.74
396.942	90.45
397.152	106.84
397.361	102.74
397.57	49.49
397.78	39.25
397.989	47.44
398.198	72.02
398.407	53.59
398.617	49.49
398.826	125.27
399.035	92.5
399.244	37.2
399.453	72.02
399.663	2.39
399.872	102.74
400.081	119.12
400.29	12.63
400.499	78.16
400.708	145.75
400.917	90.45
401.127	78.16
401.336	61.78
401.545	100.69
401.754	39.25
401.963	37.2
402.172	45.4
402.381	59.73
402.59	90.45
402.799	65.88
403.008	135.51
403.217	123.22
403.426	94.55
403.635	102.74
403.844	18.77
404.053	102.74
404.262	100.69
404.471	102.74
404.68	72.02
404.888	110.93
405.097	117.08
405.306	176.47
405.515	90.45
405.724	129.36
405.933	45.4
406.142	37.2
406.35	203.09
406.559	90.45
406.768	63.83
406.977	174.42
407.185	139.6
407.394	180.56
407.603	160.08
407.812	162.13
408.02	174.42
408.229	119.12
408.438	131.41
408.646	61.78
408.855	166.23
409.064	119.12
409.272	176.47
409.481	203.09
409.69	194.9
409.898	213.33
410.107	223.57
410.315	225.62
410.524	145.75
410.733	250.19
410.941	262.48
411.15	188.75
411.358	293.2
411.567	272.72
411.775	248.15
411.984	317.78
412.192	178.51
412.401	346.45
412.609	239.95
412.818	317.78
413.026	325.97
413.234	323.92
413.443	323.92
413.651	383.31
413.86	387.41
414.068	381.26
414.276	467.28
414.485	381.26
414.693	450.89
414.901	502.09
415.11	500.05
415.318	407.89
415.526	524.62
415.734	450.89
415.943	549.2
416.151	604.49
416.359	536.91
416.567	594.25
416.776	594.25
416.984	614.73
417.192	698.7
417.4	719.18
417.608	557.39
417.817	610.64
418.025	778.57
418.233	731.47
418.441	753.99
418.649	737.61
418.857	772.43
419.065	846.15
419.273	819.53
419.481	831.82
419.689	962.89
419.897	973.13
420.105	995.65
420.313	977.22
420.521	932.17
420.729	1053
420.937	1075.52
421.145	1159.49
421.353	1130.82
421.561	1200.45
421.769	1212.74
421.977	1257.79
422.185	1253.7
422.393	1345.86
422.601	1462.59
422.809	1403.2
423.017	1276.23
423.224	1505.6
423.432	1569.09
423.64	1536.32
423.848	1716.54
424.056	1698.11
424.263	1816.89
424.471	1737.02
424.679	1728.83
424.887	1929.53
425.094	2009.4
425.302	1982.78
425.51	2183.48
425.718	2191.67
425.925	2113.85
426.133	2263.35
426.341	2418.99
426.548	2439.47
426.756	2496.82
426.964	2421.04
427.171	2646.32
427.379	2638.13
427.586	2728.24
427.794	2853.16
428.001	2916.65
428.209	3105.06
428.417	3090.73
428.624	3332.39
428.832	3217.7
429.039	3248.42
429.247	3256.61
429.454	3520.8
429.662	3838.23
429.869	3522.85
430.076	3889.43
430.284	3721.5
430.491	3930.39
430.699	4032.79
430.906	4170.01
431.114	4092.18
431.321	4182.29
431.528	4368.66
431.736	4690.19
431.943	4788.49
432.15	4712.72
432.358	4901.13
432.565	5056.78
432.772	5093.64
432.979	5277.96
433.187	5269.76
433.394	5183.75
433.601	5812.48
433.808	5656.83
434.016	5677.31
434.223	6000.89
434.43	6254.84
434.637	6107.38
434.844	6609.14
435.052	6578.42
435.259	6613.23
435.466	6824.17
435.673	6707.44
435.88	6961.39
436.087	7461.09
436.294	7651.55
436.501	7354.6
436.708	7567.59
436.915	7708.9
437.122	7946.46
437.329	7950.56
437.537	8302.81
437.743	8300.76
437.95	8419.54
438.157	8822.99
438.364	8890.57
438.571	9015.5
438.778	8941.77
438.985	9896.13
439.192	9584.84
439.399	9877.69
439.606	9674.95
439.813	10277.05
440.02	10436.79
440.227	10623.16
440.433	10502.33
440.64	10942.64
440.847	10860.72
441.054	11247.79
441.261	11649.19
441.467	11587.75
441.674	11917.47
441.881	12241.05
442.088	12259.48
442.294	12437.66
442.501	12458.14
442.708	12767.38
442.914	13404.3
443.121	13744.26
443.328	13551.75
443.534	14233.72
443.741	13998.21
443.948	13789.31
444.154	14878.83
444.361	14821.49
444.568	14700.66
444.774	14772.34
444.981	14909.55
445.187	15364.2
445.394	16029.79
445.6	15927.39
445.807	17596.49
446.013	16691.29
446.22	17262.67
446.426	17668.17
446.633	17836.1
446.839	18481.21
447.046	17555.53
447.252	18694.2
447.459	18421.82
447.665	18749.5
447.871	19300.4
448.078	20351.01
448.284	19195.95
448.491	19896.36
448.697	20676.63
448.903	20992.02
449.11	20918.29
449.316	20557.85
449.522	21080.08
449.728	21522.44
449.935	21702.67
450.141	21727.24
450.347	22116.36
450.553	21622.8
450.76	22163.46
450.966	22556.67
451.172	22267.91
451.378	22964.21
451.584	22272
451.791	22953.98
451.997	23070.71
452.203	23218.16
452.409	23345.14
452.615	23199.73
452.821	22216.71
453.027	22056.96
453.233	23400.43
453.44	22554.62
453.646	22783.99
453.852	22581.24
454.058	23328.75
454.264	22200.32
454.47	22743.03
454.676	22190.08
454.882	23048.18
455.088	20838.42
455.294	21366.8
455.5	21669.9
455.705	21878.79
455.911	21192.72
456.117	20727.83
456.323	20133.92
456.529	19497
456.735	20111.39
456.941	19806.25
457.147	19310.64
457.352	18681.91
457.558	18522.17
457.764	18716.73
457.97	18165.82
458.176	17721.41
458.381	17821.77
458.587	16896.08
458.793	16998.48
458.999	16021.6
459.204	17190.99
459.41	16648.28
459.616	15667.3
459.821	15978.59
460.027	15356.01
460.233	15452.27
460.438	14411.9
460.644	14415.99
460.85	13885.57
461.055	13688.96
461.261	13787.27
461.466	12669.08
461.672	12458.14
461.878	13127.82
462.083	12406.94
462.289	12054.69
462.494	12130.46
462.7	11567.27
462.905	11202.73
463.111	11423.91
463.316	11651.24
463.522	11333.8
463.727	11407.53
463.932	11301.03
464.138	11137.2
464.343	11053.23
464.549	10965.17
464.754	11204.78
464.959	11208.87
465.165	11100.33
465.37	10543.28
465.575	10549.43
465.781	10903.73
465.986	10963.12
466.191	10399.93
466.397	10307.77
466.602	9654.47
466.807	10070.2
467.012	9973.95
467.218	10199.23
467.423	9898.17
467.628	9951.42
467.833	10412.21
468.038	9941.18
468.244	9652.42
468.449	9988.28
468.654	9752.77
468.859	9550.02
469.064	9564.36
469.269	9109.71
469.474	9394.37
469.679	9558.21
469.885	9273.54
470.09	9334.98
470.295	9443.53
470.5	9179.34
470.705	9169.1
470.91	9103.56
471.115	8909.01
471.32	8884.43
471.525	9066.7
471.73	8927.44
471.935	8585.43
472.139	8644.82
472.344	8560.85
472.549	8599.76
472.754	8278.23
472.959	8075.48
473.164	8112.35
473.369	7829.73
473.574	8177.88
473.778	8181.98
473.983	8048.86
474.188	8040.67
474.393	7684.32
474.598	7805.15
474.802	7735.52
475.007	7604.45
475.212	7735.52
475.417	7362.79
475.621	7289.06
475.826	7276.77
476.031	7108.84
476.235	6891.76
476.44	7303.4
476.645	6959.34
476.849	7047.4
477.054	6889.71
477.259	6918.38
477.463	6852.84
477.668	6580.46
477.872	6707.44
478.077	6519.03
478.282	6428.92
478.486	6551.79
478.691	6437.11
478.895	6439.16
479.1	6285.56
479.304	6234.36
479.509	6238.45
479.713	6332.66
479.918	5988.6
480.122	6103.29
480.326	6207.73
480.531	6203.64
480.735	5970.17
480.94	6088.95
481.144	6080.76
481.348	5853.44
481.553	5957.88
481.757	5816.57
481.961	5824.76
482.166	5998.84
482.37	5839.1
482.574	5812.48
482.778	5882.11
482.983	6054.14
483.187	5800.19
483.391	5892.35
483.595	5843.2
483.8	5722.37
484.004	5841.15
484.208	6041.85
484.412	5937.4
484.616	5820.67
484.821	5736.7
485.025	5771.52
485.229	5783.81
485.433	5822.72
485.637	5914.88
485.841	5689.6
486.045	5787.9
486.249	5783.81
486.453	5816.57
486.657	5787.9
486.861	5902.59
487.065	5595.39
487.269	5814.52
487.473	5712.13
487.677	5863.68
487.881	6029.56
488.085	5830.91
488.289	5902.59
488.493	5642.5
488.697	5751.04
488.901	5902.59
489.105	5806.33
489.309	5779.71
489.512	5873.92
489.716	5982.46
489.92	6029.56
490.124	5961.98
490.328	6074.62
490.531	5777.66
490.735	5890.3
490.939	6131.96
491.143	6050.04
491.346	5945.59
491.55	5900.54
491.754	6027.51
491.958	6099.19
492.161	6203.64
492.365	6250.74
492.569	6177.02
492.772	6205.69
492.976	6170.87
493.18	6131.96
493.383	6244.6
493.587	6238.45
493.79	6465.78
493.994	6084.86
494.197	6363.38
494.401	6539.51
494.605	6340.85
494.808	6572.27
495.012	6533.36
495.215	6719.73
495.419	6512.88
495.622	6713.58
495.825	6803.69
496.029	6764.78
496.232	6846.7
496.436	6738.16
496.639	6977.77
496.843	6975.72
497.046	7006.44
497.249	7192.81
497.453	7196.9
497.656	7368.93
497.859	7211.24
498.063	7473.38
498.266	7530.72
498.469	7727.33
498.673	7641.31
498.876	7637.22
499.079	7706.85
499.282	7653.6
499.485	8098.01
499.689	7897.31
499.892	8300.76
500.095	8241.37
500.298	8417.49
500.501	8071.39
500.705	8507.6
500.908	8442.07
501.111	8630.48
501.314	8970.44
501.517	8927.44
501.72	8917.2
501.923	8646.87
502.126	9064.65
502.329	9259.21
502.532	9126.09
502.735	9468.1
502.938	9470.15
503.141	9351.37
503.344	9627.84
503.547	9760.96
503.75	9808.06
503.953	9955.52
504.156	10154.17
504.359	10268.86
504.562	10148.03
504.765	10467.51
504.968	10526.9
505.17	10621.11
505.373	10735.79
505.576	10995.89
505.779	11016.37
505.982	11182.25
506.185	11116.72
506.387	11428.01
506.59	11559.08
506.793	11575.46
506.996	11622.56
507.198	12083.36
507.401	11718.82
507.604	11927.71
507.807	12365.98
508.009	12228.76
508.212	12255.39
508.415	12392.6
508.617	12796.05
508.82	12847.25
509.022	12677.27
509.225	13166.73
509.428	13181.07
509.63	13215.88
509.833	13320.33
510.035	13863.04
510.238	13611.14
510.44	13633.67
510.643	14022.78
510.845	14114.94
511.048	14012.54
511.25	14229.63
511.453	14291.07
511.655	14983.28
511.858	14788.72
512.06	14917.75
512.262	15206.51
512.465	15061.1
512.667	15331.44
512.87	15415.4
513.072	15562.86
513.274	15788.13
513.477	15954.02
513.679	16046.18
513.881	16410.71
514.084	16459.87
514.286	16314.46
514.488	16750.68
514.69	16969.81
514.893	17096.78
515.095	17158.22
515.297	17291.34
515.499	17412.17
515.701	17764.42
515.904	17645.64
516.106	17791.05
516.308	18206.78
516.51	18356.29
516.712	18131.01
516.914	18786.36
517.116	19013.68
517.318	19073.07
517.52	18870.33
517.722	19046.45
517.925	19560.49
518.127	19732.52
518.329	19617.83
518.531	19724.33
518.733	20103.2
518.935	20318.24
519.136	20334.62
519.338	20793.37
519.54	20883.48
519.742	21131.28
519.944	21141.52
520.146	21381.14
520.348	21714.95
520.55	21483.53
520.752	21938.18
520.954	22548.48
521.155	22050.82
521.357	22454.27
521.559	22464.51
521.761	22994.93
521.963	22964.21
522.164	23107.57
522.366	23300.08
522.568	23175.16
522.77	23584.75
522.971	23877.61
523.173	23891.94
523.375	23986.15
523.576	24111.08
523.778	24129.51
523.98	24678.36
524.181	24475.62
524.383	24659.93
524.584	25159.64
524.786	24887.26
524.988	24965.08
525.189	25409.49
525.391	25591.76
525.592	25673.68
525.794	25970.63
525.995	25747.4
526.197	25995.21
526.398	25894.86
526.6	26214.34
526.801	26324.93
527.003	26447.81
527.204	26845.12
527.406	26695.61
527.607	26832.83
527.808	26965.95
528.01	26859.45
528.211	26765.24
528.412	27606.96
528.614	27705.26
528.815	27398.07
529.016	28272.55
529.218	27613.1
529.419	27664.3
529.62	27357.11
529.822	27865
530.023	27606.96
530.224	27834.28
530.425	28032.94
530.626	27705.26
530.828	27883.44
531.029	28499.87
531.23	28266.41
531.431	28258.21
531.632	28180.39
531.833	28401.57
532.035	28460.96
532.236	28235.69
532.437	28540.83
532.638	28327.85
532.839	28637.09
533.04	28829.6
533.241	28213.16
533.442	29228.95
533.643	28731.29
533.844	28764.06
534.045	29079.45
534.246	28823.45
534.447	28968.86
534.648	29065.11
534.849	29233.05
535.05	28833.69
535.251	28888.99
535.451	28815.26
535.652	28975
535.853	29073.31
536.054	29144.98
536.255	29179.8
536.456	28917.66
536.657	29026.2
536.857	29007.77
537.058	28768.16
537.259	29222.81
537.46	29206.42
537.66	28839.84
537.861	29114.27
538.062	29050.78
538.263	29276.05
538.463	29296.53
538.664	28977.05
538.865	29196.18
539.065	29370.26
539.266	28972.96
539.466	28948.38
539.667	28882.84
539.868	29411.22
540.068	29020.06
540.269	29302.68
540.469	29251.48
540.67	28874.65
540.87	29079.45
541.071	28934.04
541.271	29224.86
541.472	29239.19
541.672	28925.85
541.873	29210.52
542.073	28813.21
542.274	29136.79
542.474	29116.31
542.675	29140.89
542.875	29378.45
543.075	29337.49
543.276	28665.76
543.476	29222.81
543.676	28682.14
543.877	29325.21
544.077	29147.03
544.277	28800.93
544.478	28960.67
544.678	29149.08
544.878	28841.89
545.078	29144.98
545.279	28997.53
545.479	29228.95
545.679	29140.89
545.879	28870.56
546.079	29124.5
546.28	28723.1
546.48	28905.37
546.68	28864.41
546.88	28919.71
547.08	29104.03
547.28	28868.51
547.48	28544.93
547.68	28995.48
547.88	28845.98
548.081	29257.62
548.281	28690.34
548.481	28540.83
548.681	29147.03
548.881	28921.76
549.081	28989.34
549.28	28606.37
549.48	29280.15
549.68	28983.2
549.88	29079.45
550.08	28854.17
550.28	29192.09
550.48	28456.87
550.68	29003.67
550.88	28536.74
551.08	28831.65
551.279	28661.66
551.479	28596.13
551.679	28835.74
551.879	28852.13
552.079	28989.34
552.278	28886.94
552.478	28741.53
552.678	28301.22
552.878	28940.19
553.077	28387.24
553.277	28460.96
553.477	28845.98
553.676	28546.98
553.876	28452.77
554.076	28618.66
554.275	28594.08
554.475	28290.98
554.674	28759.97
554.874	28927.9
555.074	28385.19
555.273	28508.07
555.473	28516.26
555.672	28465.06
555.872	28626.85
556.071	28317.61
556.271	28622.75
556.47	28411.81
556.67	28114.86
556.869	27981.74
557.068	28143.53
557.268	28092.33
557.467	28104.62
557.667	27967.4
557.866	28063.66
558.065	28129.19
558.265	27848.62
558.464	27830.19
558.663	28153.77
558.863	27477.94
559.062	28090.28
559.261	27262.9
559.461	27811.76
559.66	27490.23
559.859	27277.24
560.058	27580.34
560.258	27862.96
560.457	27172.79
560.656	27709.36
560.855	27754.41
561.054	27105.21
561.253	27232.18
561.453	26972.09
561.652	27195.32
561.851	27248.57
562.05	27027.38
562.249	26689.47
562.448	27183.03
562.647	27000.76
562.846	26795.96
563.045	27017.15
563.244	26642.37
563.443	26945.47
563.642	26513.34
563.841	26437.57
564.04	26599.36
564.239	27054.01
564.438	26613.7
564.637	26357.7
564.836	26292.16
565.035	26177.48
565.234	26310.6
565.432	26089.42
565.631	26347.46
565.83	26048.46
566.029	26046.41
566.228	26050.5
566.427	25626.57
566.625	25788.36
566.824	25397.2
567.023	25669.58
567.222	25249.75
567.42	25552.85
567.619	25216.98
567.818	25290.71
568.016	25206.74
568.215	25472.98
568.414	25196.5
568.612	25425.87
568.811	25022.42
569.01	24772.57
569.208	24428.51
569.407	24913.88
569.605	24299.49
569.804	24690.65
570.002	24489.95
570.201	24571.87
570.4	24389.6
570.598	24115.17
570.797	24111.08
570.995	24061.93
571.193	23937
571.392	24137.7
571.59	23893.99
571.789	23668.72
571.987	24063.97
572.186	23967.72
572.384	23599.09
572.582	23668.72
572.781	23709.68
572.979	23287.79
573.177	23304.18
573.376	23343.09
573.574	23437.3
573.772	22990.84
573.971	23222.26
574.169	23033.85
574.367	22523.9
574.565	23076.85
574.763	22800.38
574.962	22861.82
575.16	22429.7
575.358	22984.69
575.556	22392.83
575.754	22843.38
575.952	22325.25
576.151	22708.22
576.349	22138.88
576.547	22136.84
576.745	22403.07
576.943	22087.68
577.141	22136.84
577.339	22288.39
577.537	22097.92
577.735	21839.88
577.933	21667.85
578.131	21776.39
578.329	21555.21
578.527	21434.38
578.725	21405.71
578.923	21803.02
579.121	21377.04
579.319	21561.36
579.516	21491.73
579.714	21483.53
579.912	21268.5
580.11	20975.64
580.308	21069.84
580.506	21194.77
580.704	20934.68
580.901	21245.97
581.099	21088.28
581.297	20809.75
581.495	20574.24
581.692	20834.33
581.89	20467.74
582.088	20551.71
582.285	20480.03
582.483	20607
582.681	20463.65
582.878	20344.86
583.076	20015.14
583.274	20353.05
583.471	19972.13
583.669	19992.61
583.866	19988.52
584.064	19853.35
584.262	20025.38
584.459	19843.11
584.657	19699.75
584.854	19994.66
585.052	19558.44
585.249	19929.13
585.447	19828.77
585.644	19556.39
585.841	19470.38
586.039	19505.2
586.236	19296.3
586.434	19396.65
586.631	19050.55
586.828	19220.53
587.026	19308.59
587.223	19060.79
587.42	18976.82
587.618	19187.76
587.815	18952.24
588.012	18972.72
588.21	18614.33
588.407	19138.61
588.604	18698.3
588.801	18649.14
588.999	18669.62
589.196	18497.6
589.393	18384.96
589.59	18247.74
589.787	18581.56
589.984	18313.28
590.182	18278.46
590.379	18403.39
590.576	18024.51
590.773	18071.62
590.97	18032.71
591.167	18153.54
591.364	18012.23
591.561	17739.85
591.758	17977.41
591.955	17578.06
592.152	17999.94
592.349	17662.02
592.546	17565.77
592.743	17680.46
592.94	17285.2
593.137	17641.54
593.334	17614.92
593.531	17385.55
593.727	17309.77
593.924	17467.47
594.121	17021.01
594.318	17303.63
594.515	17072.21
594.712	17373.26
594.908	17197.13
595.105	17033.3
595.302	16762.97
595.499	16816.21
595.696	16930.9
595.892	16853.08
596.089	16885.84
596.286	16771.16
596.482	16515.16
596.679	16787.54
596.876	16717.91
597.072	16621.66
597.269	16488.54
597.466	16347.23
597.662	16369.76
597.859	16330.84
598.055	16363.61
598.252	16480.35
598.448	16310.36
598.645	16119.9
598.841	16027.74
599.038	16042.08
599.234	16124
599.431	15886.43
599.627	15927.39
599.824	16095.33
600.02	15675.49
600.217	15812.71
600.413	15519.85
600.609	15482.99
600.806	15372.39
601.002	15511.66
601.198	15677.54
601.395	15384.68
601.591	15476.84
601.787	15448.17
601.984	15048.82
602.18	15386.73
602.376	15114.35
602.572	15153.26
602.769	15057.01
602.965	14866.55
603.161	15024.24
603.357	15108.21
603.553	14893.17
603.75	14819.44
603.946	14655.61
604.142	14790.77
604.338	14571.64
604.534	14669.94
604.73	14841.97
604.926	14559.35
605.122	14641.27
605.318	14473.34
605.514	14612.6
605.71	14479.48
605.906	14254.2
606.102	14235.77
606.298	14135.42
606.494	14352.51
606.69	14323.83
606.886	14356.6
607.082	14137.47
607.278	14221.44
607.474	13844.61
607.67	14139.52
607.866	13912.19
608.062	14176.38
608.257	13873.28
608.453	13801.6
608.649	13924.48
608.845	13863.04
609.041	13955.2
609.236	13971.58
609.432	13719.68
609.628	13596.81
609.824	13824.13
610.019	13564.04
610.215	13392.01
610.411	13721.73
610.606	13488.26
610.802	13408.39
610.998	13394.06
611.193	13412.49
611.389	13410.44
611.584	13336.71
611.78	13369.48
611.976	13490.31
612.171	13469.83
612.367	13174.92
612.562	13013.13
612.758	13039.76
612.953	13215.88
613.149	13322.38
613.344	13164.68
613.539	13172.88
613.735	13068.43
613.93	13320.33
614.126	13093.01
614.321	13219.98
614.517	12873.87
614.712	12994.7
614.907	12884.11
615.103	13174.92
615.298	12738.71
615.493	12904.59
615.688	12761.23
615.884	13172.88
616.079	12691.6
616.274	12740.75
616.47	12849.3
616.665	12816.53
616.86	12578.97
617.055	12744.85
617.25	12542.1
617.445	12703.89
617.641	12533.91
617.836	12771.47
618.031	12495
618.226	12771.47
618.421	12535.96
618.616	12554.39
618.811	12406.94
619.006	12251.29
619.201	12071.07
619.396	12085.4
619.591	11843.74
619.786	12044.45
619.981	11853.98
620.176	12054.69
620.371	12216.47
620.566	12071.07
620.761	11921.57
620.956	11851.94
621.151	11557.03
621.346	11792.55
621.541	11767.97
621.735	11954.33
621.93	11595.94
622.125	11597.99
622.32	11391.14
622.515	11587.75
622.709	11561.12
622.904	11430.05
623.099	11161.77
623.294	11284.65
623.488	11024.56
623.683	11262.12
623.878	10830
624.072	10877.1
624.267	10834.1
624.462	10735.79
624.656	10705.07
624.851	10854.58
625.046	10707.12
625.24	10516.66
625.435	10526.9
625.629	10535.09
625.824	10408.12
626.018	10307.77
626.213	10313.91
626.407	10377.4
626.602	10154.17
626.796	10154.17
626.991	10201.27
627.185	9955.52
627.38	9984.19
627.574	9838.78
627.768	9846.98
627.963	9836.74
628.157	9707.71
628.352	9607.36
628.546	9709.76
628.74	9574.6
628.935	9531.59
629.129	9543.88
629.323	9500.87
629.517	9363.65
629.712	9406.66
629.906	9246.92
630.1	9144.52
630.294	9248.97
630.489	9224.39
630.683	9162.95
630.877	9070.79
631.071	8904.91
631.265	9115.85
631.459	8792.27
631.653	8782.03
631.848	9009.36
632.042	8909.01
632.236	8847.57
632.43	8618.19
632.624	8794.32
632.818	8591.57
633.012	8698.06
633.206	8601.81
633.4	8632.53
633.594	8425.68
633.788	8425.68
633.982	8423.64
634.176	8319.19
634.369	8249.56
634.563	8237.27
634.757	8208.6
634.951	8145.11
635.145	8315.09
635.339	8087.77
635.533	7921.88
635.726	7936.22
635.92	7864.54
636.114	7968.99
636.308	7950.56
636.501	7784.67
636.695	7995.61
636.889	7930.08
637.083	7698.66
637.276	7592.16
637.47	7614.69
637.664	7561.44
637.857	7735.52
638.051	7448.8
638.244	7571.68
638.438	7471.33
638.632	7307.49
638.825	7293.16
639.019	7282.92
639.212	7225.58
639.406	7239.91
639.599	7051.5
639.793	7274.73
639.986	7082.22
640.18	7090.41
640.373	6963.44
640.567	7043.31
640.76	6918.38
640.954	6813.93
641.147	6854.89
641.34	6768.88
641.534	6834.41
641.727	6916.33
641.92	6826.22
642.114	6537.46
642.307	6684.91
642.5	6695.15
642.694	6471.92
642.887	6527.22
643.08	6553.84
643.273	6435.06
643.467	6514.93
643.66	6326.52
643.853	6406.39
644.046	6449.39
644.239	6408.44
644.432	6228.21
644.626	6232.31
644.819	6168.82
645.012	6220.02
645.205	6121.72
645.398	6072.57
645.591	6097.14
645.784	6017.27
645.977	5882.11
646.17	5916.92
646.363	6234.36
646.556	5955.83
646.749	5832.96
646.942	6007.03
647.135	5761.28
647.328	6009.08
647.521	5822.72
647.714	5751.04
647.907	5699.84
648.099	5632.26
648.292	5716.22
648.485	5646.59
648.678	5599.49
648.871	5597.44
649.064	5478.66
649.256	5478.66
649.449	5390.6
649.642	5357.83
649.835	5456.13
650.027	5257.48
650.22	5351.68
650.413	5374.21
650.605	5386.5
650.798	5357.83
650.991	5292.29
651.183	5251.33
651.376	5224.71
651.568	5138.69
651.761	5261.57
651.954	5054.73
652.146	4913.42
652.339	5040.39
652.531	5120.26
652.724	5099.78
652.916	4946.19
653.109	4780.3
653.301	5026.06
653.494	5128.46
653.686	4718.86
653.879	4874.51
654.071	4819.21
654.263	4880.65
654.456	4716.81
654.648	4712.72
654.84	4722.96
655.033	4770.06
655.225	4759.82
655.417	4714.77
655.61	4696.33
655.802	4858.12
655.994	4579.6
656.186	4598.03
656.379	4516.11
656.571	4413.71
656.763	4571.41
656.955	4534.54
657.148	4432.15
657.34	4337.94
657.532	4362.51
657.724	4432.15
657.916	4512.02
658.108	4442.39
658.3	4430.1
658.492	4233.49
658.684	4329.75
658.876	4331.8
659.068	4247.83
659.26	4329.75
659.452	4247.83
659.644	4094.23
659.836	4172.05
660.028	4149.53
660.22	4133.14
660.412	4213.01
660.604	4116.76
660.796	4034.84
660.988	4104.47
661.18	4030.74
661.372	4034.84
661.563	3922.2
661.755	3959.06
661.947	3946.78
662.139	3914.01
662.331	3803.42
662.522	3860.76
662.714	3799.32
662.906	3948.83
663.097	3924.25
663.289	3881.24
663.481	3703.07
663.673	3621.15
663.864	3875.1
664.056	3733.79
664.247	3733.79
664.439	3762.46
664.631	3694.88
664.822	3668.25
665.014	3629.34
665.205	3784.99
665.397	3653.92
665.588	3563.81
665.78	3610.91
665.971	3531.04
666.163	3514.66
666.354	3473.7
666.546	3582.24
666.737	3485.98
666.929	3475.74
667.12	3502.37
667.311	3453.22
667.503	3342.63
667.694	3418.4
667.885	3424.55
668.077	3502.37
668.268	3395.87
668.459	3416.35
668.651	3397.92
668.842	3291.43
669.033	3418.4
669.224	3250.47
669.416	3367.2
669.607	3350.82
669.798	3303.71
669.989	3289.38
670.18	3232.04
670.371	3223.84
670.563	3352.87
670.754	3170.6
670.945	3406.11
671.136	3166.5
671.327	3213.6
671.518	3197.22
671.709	3158.31
671.9	3191.08
672.091	3301.67
672.282	3148.07
672.473	3166.5
672.664	3092.77
672.855	3191.08
673.046	3191.08
673.237	3203.36
673.428	3111.21
673.619	3084.58
673.809	2976.04
674	3111.21
674.191	3162.41
674.382	3090.73
674.573	3049.77
674.764	3121.45
674.954	3146.02
675.145	2924.84
675.336	3021.1
675.527	2973.99
675.717	3084.58
675.908	3035.43
676.099	3043.62
676.289	2949.42
676.48	3008.81
676.671	3004.71
676.861	3078.44
677.052	2994.47
677.243	3162.41
677.433	2955.56
677.624	2965.8
677.814	2986.28
678.005	2963.75
678.195	2965.8
678.386	2939.18
678.576	2877.74
678.767	2959.66
678.957	2957.61
679.148	2949.42
679.338	3017
679.529	2980.14
679.719	2869.55
679.909	2875.69
680.1	2918.7
680.29	3057.96
680.481	2914.6
680.671	2924.84
680.861	2908.46
681.052	2916.65
681.242	2804.01
681.432	2795.82
681.622	2912.55
681.813	2871.59
682.003	2906.41
682.193	2826.54
682.383	2920.74
682.573	2906.41
682.764	2896.17
682.954	2842.92
683.144	2902.31
683.334	2806.06
683.524	2761
683.714	2883.88
683.904	2824.49
684.094	2865.45
684.284	2810.15
684.474	2892.07
684.664	2855.21
684.854	2826.54
685.044	2773.29
685.234	2857.26
685.424	2728.24
685.614	2857.26
685.804	2773.29
685.994	2885.93
686.184	2734.38
686.374	2787.63
686.564	2877.74
686.753	2697.52
686.943	2588.97
687.133	2722.09
687.323	2709.8
687.513	2658.6
687.702	2629.93
687.892	2670.89
688.082	2672.94
688.272	2674.99
688.461	2586.93
688.651	2609.45
688.841	2679.08
689.03	2683.18
689.22	2570.54
689.41	2625.84
689.599	2668.84
689.789	2595.12
689.979	2556.21
690.168	2507.06
690.358	2572.59
690.547	2474.29
690.737	2509.1
690.926	2509.1
691.116	2423.09
691.305	2453.81
691.495	2462
691.684	2353.46
691.874	2472.24
692.063	2351.41
692.252	2394.42
692.442	2421.04
692.631	2437.42
692.82	2423.09
693.01	2498.86
693.199	2308.4
693.388	2361.65
693.578	2326.83
693.767	2437.42
693.956	2296.11
694.146	2269.49
694.335	2396.46
694.524	2388.27
694.713	2253.11
694.902	2408.75
695.092	2330.93
695.281	2261.3
695.47	2421.04
695.659	2249.01
695.848	2310.45
696.037	2263.35
696.226	2306.35
696.415	2253.11
696.604	2326.83
696.793	2289.97
696.982	2341.17
697.171	2251.06
697.36	2386.22
697.549	2222.39
697.738	2285.87
697.927	2171.19
698.116	2224.44
698.305	2269.49
698.494	2281.78
698.683	2148.66
698.872	2265.39
699.061	2240.82
699.25	2271.54
699.438	2275.63
699.627	2320.69
699.816	2255.15
700.005	2113.85
700.193	2165.04
700.382	2197.81
700.571	2206
700.76	2234.68
700.948	2208.05
701.137	2167.09
701.326	2285.87
701.514	2201.91
701.703	2244.92
701.892	2220.34
702.08	2249.01
702.269	2163
702.457	2208.05
702.646	2259.25
702.834	2249.01
703.023	2175.28
703.212	2249.01
703.4	2230.58
703.589	2177.33
703.777	2298.16
703.965	2130.23
704.154	2257.2
704.342	2126.13
704.531	2181.43
704.719	2238.77
704.907	2203.96
705.096	2175.28
705.284	2277.68
705.472	2296.11
705.661	2183.48
705.849	2175.28
706.037	2216.24
706.226	2185.52
706.414	2283.83
706.602	2208.05
706.79	2238.77
706.979	2222.39
707.167	2240.82
707.355	2218.29
707.543	2249.01
707.731	2191.67
707.919	2369.84
708.107	2150.71
708.296	2150.71
708.484	2349.36
708.672	2265.39
708.86	2261.3
709.048	2306.35
709.236	2214.2
709.424	2287.92
709.612	2240.82
709.8	2148.66
709.988	2249.01
710.176	2244.92
710.364	2322.74
710.551	2228.53
710.739	2177.33
710.927	2257.2
711.115	2304.31
711.303	2253.11
711.491	2261.3
711.679	2236.72
711.866	2232.63
712.054	2206
712.242	2306.35
712.43	2279.73
712.617	2177.33
712.805	2275.63
712.993	2111.8
713.181	2240.82
713.368	2195.76
713.556	2244.92
713.744	2236.72
713.931	2242.87
714.119	2228.53
714.306	2242.87
714.494	2267.44
714.682	2212.15
714.869	2271.54
715.057	2277.68
715.244	2302.26
715.432	2285.87
715.619	2267.44
715.807	2378.03
715.994	2322.74
716.182	2279.73
716.369	2267.44
716.556	2218.29
716.744	2228.53
716.931	2208.05
717.119	2396.46
717.306	2294.07
717.493	2232.63
717.681	2226.48
717.868	2183.48
718.055	2384.18
718.242	2337.07
718.43	2142.52
718.617	2236.72
718.804	2265.39
718.991	2355.51
719.179	2306.35
719.366	2378.03
719.553	2273.59
719.74	2318.64
719.927	2466.1
720.114	2359.6
720.301	2257.2
720.488	2357.55
720.676	2335.03
720.863	2296.11
721.05	2265.39
721.237	2298.16
721.424	2328.88
721.611	2332.98
721.798	2408.75
721.985	2306.35
722.172	2335.03
722.358	2421.04
722.545	2335.03
722.732	2388.27
722.919	2382.13
723.106	2314.55
723.293	2398.51
723.48	2402.61
723.667	2347.31
723.853	2318.64
724.04	2402.61
724.227	2249.01
724.414	2324.79
724.6	2345.27
724.787	2373.94
724.974	2384.18
725.161	2312.5
725.347	2308.4
725.534	2398.51
725.72	2347.31
725.907	2324.79
726.094	2517.29
726.28	2355.51
726.467	2357.55
726.653	2386.22
726.84	2361.65
727.027	2375.99
727.213	2394.42
727.4	2466.1
727.586	2345.27
727.773	2392.37
727.959	2339.12
728.145	2357.55
728.332	2406.7
728.518	2457.9
728.705	2380.08
728.891	2412.85
729.077	2408.75
729.264	2400.56
729.45	2421.04
729.636	2423.09
729.823	2337.07
730.009	2513.2
730.195	2394.42
730.382	2449.71
730.568	2490.67
730.754	2427.18
730.94	2464.05
731.126	2357.55
731.313	2470.19
731.499	2437.42
731.685	2443.57
731.871	2318.64
732.057	2439.47
732.243	2513.2
732.429	2386.22
732.615	2478.38
732.801	2423.09
732.987	2357.55
733.173	2531.63
733.359	2435.38
733.545	2443.57
733.731	2392.37
733.917	2494.77
734.103	2435.38
734.289	2586.93
734.475	2414.9
734.661	2511.15
734.847	2517.29
735.033	2517.29
735.219	2400.56
735.404	2525.49
735.59	2423.09
735.776	2398.51
735.962	2519.34
736.148	2472.24
736.333	2521.39
736.519	2287.92
736.705	2488.62
736.89	2263.35
737.076	2447.66
737.262	2490.67
737.447	2335.03
737.633	2427.18
737.819	2396.46
738.004	2404.66
738.19	2496.82
738.375	2316.59
738.561	2548.01
738.747	2277.68
738.932	2361.65
739.118	2451.76
739.303	2375.99
739.489	2378.03
739.674	2517.29
739.859	2414.9
740.045	2246.96
740.23	2263.35
740.416	2343.22
740.601	2437.42
740.786	2406.7
740.972	2263.35
741.157	2320.69
741.342	2267.44
741.528	2271.54
741.713	2298.16
741.898	2238.77
742.084	2214.2
742.269	2394.42
742.454	2373.94
742.639	2355.51
742.824	2404.66
743.01	2343.22
743.195	2273.59
743.38	2322.74
743.565	2263.35
743.75	2214.2
743.935	2300.21
744.12	2238.77
744.305	2163
744.49	2242.87
744.675	2230.58
744.86	2251.06
745.045	2199.86
745.23	2158.9
745.415	2128.18
745.6	2214.2
745.785	2179.38
745.97	2206
746.155	2160.95
746.34	2224.44
746.525	2038.07
746.71	2097.46
746.895	2038.07
747.079	2093.37
747.264	2013.49
747.449	2054.45
747.634	2015.54
747.819	2109.75
748.003	2070.84
748.188	2015.54
748.373	2019.64
748.557	1997.11
748.742	2095.41
748.927	2023.73
749.111	1919.29
749.296	2015.54
749.481	2038.07
749.665	1866.04
749.85	1802.55
750.034	1904.95
750.219	1896.76
750.404	1820.99
750.588	1876.28
750.773	1849.66
750.957	1915.19
751.141	1784.12
751.326	1769.79
751.51	1745.21
751.695	1777.98
751.879	1765.69
752.064	1706.3
752.248	1726.78
752.432	1843.51
752.617	1741.11
752.801	1820.99
752.985	1716.54
753.17	1685.82
753.354	1745.21
753.538	1700.16
753.722	1683.77
753.907	1667.39
754.091	1648.96
754.275	1628.48
754.459	1560.89
754.643	1732.92
754.828	1462.59
755.012	1550.65
755.196	1644.86
755.38	1567.04
755.564	1610.04
755.748	1538.37
755.932	1593.66
756.116	1513.79
756.3	1358.14
756.484	1569.09
756.668	1526.08
756.852	1505.6
757.036	1521.98
757.22	1423.68
757.404	1352
757.588	1499.45
757.772	1458.5
757.956	1472.83
758.14	1474.88
758.323	1331.52
758.507	1448.26
758.691	1362.24
758.875	1352
759.059	1390.91
759.242	1300.8
759.426	1278.27
759.61	1347.9
759.794	1401.15
759.977	1329.47
760.161	1366.34
760.345	1341.76
760.528	1290.56
760.712	1251.65
760.895	1306.95
761.079	1425.73
761.263	1296.71
761.446	1253.7
761.63	1290.56
761.813	1300.8
761.997	1149.25
762.18	1159.49
762.364	1253.7
762.547	1153.35
762.731	1190.21
762.914	1202.5
763.098	1225.03
763.281	1261.89
763.464	1128.77
763.648	1141.06
763.831	1143.11
764.015	1186.12
764.198	1175.88
764.381	1089.86
764.564	1126.72
764.748	1165.64
764.931	1155.4
765.114	1141.06
765.297	1028.42
765.481	1167.68
765.664	1155.4
765.847	1069.38
766.03	1071.43
766.213	1044.81
766.397	1126.72
766.58	1012.04
766.763	1175.88
766.946	1083.72
767.129	1077.57
767.312	1016.13
767.495	1022.28
767.678	985.41
767.861	1124.68
768.044	1132.87
768.227	1151.3
768.41	1034.57
768.593	1098.05
768.776	1044.81
768.959	1104.2
769.142	946.5
769.324	1014.09
769.507	1055.05
769.69	995.65
769.873	981.32
770.056	930.12
770.239	944.45
770.421	987.46
770.604	1024.33
770.787	913.74
770.97	915.78
771.152	960.84
771.335	1014.09
771.518	921.93
771.7	954.69
771.883	981.32
772.066	874.82
772.248	909.64
772.431	895.3
772.613	856.39
772.796	897.35
772.978	899.4
773.161	944.45
773.343	850.25
773.526	815.43
773.708	915.78
773.891	840.01
774.073	850.25
774.256	868.68
774.438	903.5
774.621	893.26
774.803	840.01
774.985	819.53
775.168	766.28
775.35	815.43
775.532	895.3
775.715	819.53
775.897	821.58
776.079	850.25
776.261	788.81
776.444	745.8
776.626	733.51
776.808	749.9
776.99	700.75
777.173	831.82
777.355	844.1
777.537	694.6
777.719	784.71
777.901	663.88
778.083	715.08
778.265	702.79
778.447	672.08
778.629	655.69
778.811	758.09
778.993	735.56
779.175	610.64
779.357	682.31
779.539	647.5
779.721	676.17
779.903	620.88
780.085	686.41
780.267	518.48
780.449	614.73
780.631	598.35
780.812	643.4
780.994	700.75
781.176	590.16
781.358	655.69
781.54	629.07
781.721	483.66
781.903	612.68
782.085	594.25
782.267	616.78
782.448	645.45
782.63	612.68
782.812	557.39
782.993	645.45
783.175	594.25
783.357	543.05
783.538	538.96
783.72	491.85
783.901	508.24
784.083	500.05
784.264	561.48
784.446	465.23
784.627	559.44
784.809	520.53
784.99	500.05
785.172	504.14
785.353	584.01
785.535	541.01
785.716	469.33
785.897	442.7
786.079	512.33
786.26	500.05
786.441	520.53
786.623	477.52
786.804	424.27
786.985	498
787.167	514.38
787.348	534.86
787.529	362.83
787.71	489.81
787.891	448.85
788.073	391.5
788.254	446.8
788.435	440.65
788.616	430.41
788.797	395.6
788.978	426.32
789.159	440.65
789.34	461.13
789.522	426.32
789.703	469.33
789.884	397.65
790.065	407.89
790.246	411.98
790.427	389.46
790.607	428.37
790.788	428.37
790.969	440.65
791.15	409.94
791.331	416.08
791.512	385.36
791.693	393.55
791.874	391.5
792.054	373.07
792.235	379.22
792.416	336.21
792.597	377.17
792.778	319.82
792.958	373.07
793.139	401.74
793.32	424.27
793.5	340.3
793.681	346.45
793.862	397.65
794.042	309.58
794.223	332.11
794.404	379.22
794.584	332.11
794.765	342.35
794.945	340.3
795.126	399.7
795.306	242
795.487	346.45
795.667	287.06
795.848	348.5
796.028	368.98
796.209	289.1
796.389	305.49
796.57	239.95
796.75	299.34
796.93	244.05
797.111	287.06
797.291	233.81
797.471	272.72
797.652	299.34
797.832	252.24
798.012	342.35
798.192	297.3
798.373	262.48
798.553	231.76
798.733	317.78
798.913	260.43
799.093	274.77
799.274	307.54
799.454	201.04
799.634	270.67
799.814	368.98
799.994	184.66
800.174	239.95
800.354	213.33
800.534	297.3
800.714	305.49
800.894	252.24
801.074	252.24
801.254	252.24
801.434	270.67
801.614	246.1
801.794	254.29
801.974	727.37
802.154	164.18
802.334	158.03
802.514	256.34
802.693	262.48
802.873	209.23
803.053	205.14
803.233	221.52
803.413	242
803.592	219.47
803.772	182.61
803.952	178.51
804.131	201.04
804.311	278.87
804.491	293.2
804.67	162.13
804.85	276.82
805.03	264.53
805.209	252.24
805.389	266.58
805.568	194.9
805.748	256.34
805.928	258.39
806.107	147.8
806.287	223.57
806.466	254.29
806.646	207.19
806.825	229.71
807.004	184.66
807.184	209.23
807.363	287.06
807.543	227.67
807.722	151.89
807.901	254.29
808.081	285.01
808.26	164.18
808.439	153.94
808.619	168.27
808.798	162.13
808.977	211.28
809.156	219.47
809.336	78.16
809.515	276.82
809.694	203.09
809.873	233.81
810.052	123.22
810.231	168.27
810.411	151.89
810.59	143.7
810.769	239.95
810.948	170.32
811.127	186.71
811.306	217.43
811.485	227.67
811.664	166.23
811.843	162.13
812.022	133.46
812.201	162.13
812.38	145.75
812.559	174.42
812.737	90.45
812.916	235.86
813.095	192.85
813.274	170.32
813.453	158.03
813.632	196.95
813.811	205.14
813.989	147.8
814.168	178.51
814.347	102.74
814.526	151.89
814.704	174.42
814.883	276.82
815.062	162.13
815.24	155.99
815.419	106.84
815.598	201.04
815.776	207.19
815.955	131.41
816.133	106.84
816.312	176.47
816.49	170.32
816.669	186.71
816.847	168.27
817.026	123.22
817.204	149.84
817.383	129.36
817.561	131.41
817.74	180.56
817.918	98.64
818.097	108.88
818.275	149.84
818.453	153.94
818.632	153.94
818.81	108.88
818.988	121.17
819.167	123.22
819.345	178.51
819.523	145.75
819.701	207.19
819.879	180.56
820.058	119.12
820.236	141.65
820.414	164.18
820.592	96.6
820.77	141.65
820.948	104.79
821.127	72.02
821.305	67.92
821.483	121.17
821.661	108.88
821.839	106.84
822.017	141.65
822.195	145.75
822.373	123.22
822.551	115.03
822.729	108.88
822.907	98.64
823.085	106.84
823.262	117.08
823.44	88.4
823.618	160.08
823.796	102.74
823.974	155.99
824.152	184.66
824.329	108.88
824.507	49.49
824.685	135.51
824.863	115.03
825.04	100.69
825.218	155.99
825.396	88.4
825.574	149.84
825.751	170.32
825.929	170.32
826.107	65.88
826.284	137.56
826.462	94.55
826.639	155.99
826.817	45.4
826.994	143.7
827.172	49.49
827.349	123.22
827.527	110.93
827.704	86.36
827.882	186.71
828.059	106.84
828.237	51.54
828.414	168.27
828.591	112.98
828.769	100.69
828.946	53.59
829.124	57.68
829.301	141.65
829.478	129.36
829.655	123.22
829.833	112.98
830.01	74.07
830.187	53.59
830.364	74.07
830.542	59.73
830.719	121.17
830.896	74.07
831.073	78.16
831.25	67.92
831.427	86.36
831.604	125.27
831.782	14.68
831.959	82.26
832.136	80.21
832.313	59.73
832.49	4.44
832.667	57.68
832.844	37.2
833.021	133.46
833.198	92.5
833.374	74.07
833.551	-5.8
833.728	31.06
833.905	125.27
834.082	57.68
834.259	72.02
834.436	74.07
834.612	12.63
834.789	41.3
834.966	69.97
835.143	100.69
835.319	31.06
835.496	102.74
835.673	55.64
835.85	78.16
836.026	92.5
836.203	49.49
836.38	90.45
836.556	61.78
836.733	10.58
836.909	139.6
837.086	84.31
837.262	104.79
837.439	86.36
837.616	98.64
837.792	90.45
837.968	63.83
838.145	14.68
838.321	12.63
838.498	149.84
838.674	194.9
838.851	125.27
839.027	102.74
839.203	26.96
839.38	57.68
839.556	10.58
839.732	119.12
839.909	-16.04
840.085	78.16
840.261	26.96
840.437	74.07
840.614	53.59
840.79	135.51
840.966	98.64
841.142	100.69
841.318	14.68
841.494	76.12
841.671	88.4
841.847	129.36
842.023	57.68
842.199	47.44
842.375	18.77
842.551	63.83
842.727	76.12
842.903	110.93
843.079	24.92
843.255	147.8
843.431	106.84
843.607	145.75
843.783	24.92
843.959	57.68
844.134	-7.85
844.31	125.27
844.486	24.92
844.662	78.16
844.838	96.6
845.013	22.87
845.189	49.49
845.365	47.44
845.541	22.87
845.716	41.3
845.892	10.58
846.068	6.49
846.244	80.21
846.419	133.46
846.595	-24.23
846.77	59.73
846.946	49.49
847.122	74.07
847.297	20.82
847.473	57.68
847.648	-36.52
847.824	53.59
847.999	43.35
848.175	33.11
848.35	65.88
848.526	57.68
848.701	133.46
848.876	72.02
849.052	18.77
849.227	123.22
849.403	-5.8
849.578	76.12
849.753	57.68
849.929	72.02
850.104	24.92
850.279	53.59
850.454	96.6
850.63	43.35
850.805	8.53
850.98	20.82
851.155	41.3
851.33	31.06
851.505	-32.43
851.681	67.92
851.856	-7.85
852.031	72.02
852.206	47.44
852.381	29.01
852.556	94.55
852.731	61.78
852.906	65.88
853.081	37.2
853.256	24.92
853.431	65.88
853.606	8.53
853.781	35.16
853.956	45.4
854.131	63.83
854.305	65.88
854.48	43.35
854.655	-36.52
854.83	-18.09
855.005	94.55
855.18	-7.85
855.354	102.74
855.529	76.12
855.704	35.16
855.879	22.87
856.053	12.63
856.228	61.78
856.403	20.82
856.577	14.68
856.752	6.49
856.926	43.35
857.101	49.49
857.276	72.02
857.45	45.4
857.625	29.01
857.799	41.3
857.974	82.26
858.148	-24.23
858.323	-13.99
858.497	86.36
858.672	-3.75
858.846	80.21
859.02	53.59
859.195	51.54
859.369	55.64
859.543	-61.1
859.718	14.68
859.892	0.34
860.066	22.87
860.241	41.3
860.415	6.49
860.589	18.77
860.763	-5.8
860.938	16.73
861.112	127.32
861.286	-5.8
861.46	6.49
861.634	4.44
861.808	78.16
861.982	47.44
862.157	55.64
862.331	24.92
862.505	49.49
862.679	49.49
862.853	20.82
863.027	24.92
863.201	6.49
863.375	4.44
863.549	84.31
863.722	20.82
863.896	72.02
864.07	51.54
864.244	35.16
864.418	-9.9
864.592	82.26
864.766	45.4
864.939	104.79
865.113	2.39
865.287	80.21
865.461	37.2
865.634	-5.8
865.808	29.01
865.982	55.64
866.156	39.25
866.329	61.78
866.503	6.49
866.676	129.36
866.85	-46.76
867.024	41.3
867.197	31.06
867.371	80.21
867.544	12.63
867.718	16.73
867.891	94.55
868.065	41.3
868.238	37.2
868.412	-3.75
868.585	10.58
868.759	-54.95
868.932	6.49
869.105	72.02
869.279	-18.09
869.452	90.45
869.625	6.49
869.799	65.88
869.972	-26.28
870.145	-20.14
870.319	-1.71
870.492	31.06
870.665	8.53
870.838	-24.23
871.011	-1.71
871.185	16.73
871.358	-5.8
871.531	26.96
871.704	-16.04
871.877	10.58
872.05	-11.95
872.223	-7.85
872.396	10.58
872.569	-26.28
872.742	6.49
872.915	41.3
873.088	69.97
873.261	-52.91
873.434	57.68
873.607	-3.75
873.78	-18.09
873.953	14.68
874.126	-16.04
874.299	65.88
874.471	-7.85
874.644	98.64
874.817	0.34
874.99	63.83
875.163	12.63
875.335	-59.05
875.508	33.11
875.681	-5.8
875.853	-34.47
876.026	51.54
876.199	51.54
876.371	26.96
876.544	45.4
876.717	61.78
876.889	22.87
877.062	2.39
877.234	33.11
877.407	41.3
877.579	-7.85
877.752	55.64
877.924	-22.19
878.097	43.35
878.269	16.73
878.442	53.59
878.614	20.82
878.786	6.49
878.959	16.73
879.131	-16.04
879.303	-3.75
879.476	22.87
879.648	94.55
879.82	47.44
879.993	-44.71
880.165	18.77
880.337	-46.76
880.509	12.63
880.681	-3.75
880.854	41.3
881.026	12.63
881.198	-11.95
881.37	-28.33
881.542	4.44
881.714	-44.71
881.886	4.44
882.058	24.92
882.23	-1.71
882.402	37.2
882.574	26.96
882.746	74.07
882.918	55.64
883.09	20.82
883.262	-3.75
883.434	8.53
883.606	33.11
883.778	33.11
883.95	-16.04
884.122	-28.33
884.293	74.07
884.465	-40.62
884.637	94.55
884.809	0.34
884.98	35.16
885.152	-16.04
885.324	94.55
885.496	-48.81
885.667	-30.38
885.839	57.68
886.011	-5.8
886.182	33.11
886.354	69.97
886.525	4.44
886.697	-52.91
886.869	-63.15
887.04	33.11
887.212	-22.19
887.383	59.73
887.555	29.01
887.726	39.25
887.897	-50.86
888.069	-40.62
888.24	35.16
888.412	72.02
888.583	18.77
888.754	12.63
888.926	12.63
889.097	-28.33
889.268	6.49
889.44	10.58
889.611	43.35
889.782	12.63
889.953	-1.71
890.125	37.2
890.296	51.54
890.467	-22.19
890.638	49.49
890.809	31.06
890.98	-7.85
891.151	22.87
891.323	-20.14
891.494	45.4
891.665	45.4
891.836	-1.71
892.007	0.34
892.178	-18.09
892.349	33.11
892.52	2.39
892.691	65.88
892.862	43.35
893.032	-63.15
893.203	-9.9
893.374	-11.95
893.545	39.25
893.716	18.77
893.887	61.78
894.057	78.16
894.228	24.92
894.399	12.63
894.57	-1.71
894.74	-34.47
894.911	69.97
895.082	35.16
895.253	29.01
895.423	10.58
895.594	6.49
895.764	-3.75
895.935	20.82
896.106	63.83
896.276	0.34
896.447	-32.43
896.617	24.92
896.788	-13.99
896.958	74.07
897.129	69.97
897.299	47.44
897.47	57.68
897.64	-22.19
897.81	45.4
897.981	63.83
898.151	-5.8
898.322	39.25
898.492	6.49
898.662	41.3
898.832	-16.04
899.003	8.53
899.173	88.4
899.343	67.92
899.513	-16.04
