Data from USB4F104151__69__11-45-25-648.txt Node

Date: Fri Mar 14 11:45:25 EDT 2025
User: louis
Spectrometer: USB4F10415
Trigger mode: 4
Integration Time (sec): 2.000000E-2
Scans to average: 1
Electric dark correction enabled: true
Nonlinearity correction enabled: false
Boxcar width: 0
XAxis mode: Wavelengths
Number of Pixels in Spectrum: 3648
>>>>>Begin Spectral Data<<<<<
178.204	-151.89
178.424	-151.89
178.644	-151.89
178.864	-65.88
179.084	-125.27
179.304	26.28
179.524	-0.34
179.744	-16.73
179.964	7.85
180.184	32.43
180.404	44.71
180.624	-14.68
180.844	-4.44
181.064	-45.4
181.283	30.38
181.503	-76.12
181.723	16.04
181.943	16.04
182.163	52.91
182.383	30.38
182.602	57
182.822	97.96
183.042	16.04
183.262	36.52
183.482	-18.77
183.701	-10.58
183.921	52.91
184.141	-59.73
184.361	-67.92
184.58	-29.01
184.8	-33.11
185.02	-14.68
185.239	157.35
185.459	-26.96
185.679	52.91
185.898	-12.63
186.118	54.95
186.338	11.95
186.557	63.15
186.777	-8.53
186.997	-29.01
187.216	44.71
187.436	26.28
187.655	5.8
187.875	-37.2
188.095	5.8
188.314	28.33
188.534	-4.44
188.753	75.43
188.973	16.04
189.192	102.06
189.412	36.52
189.631	95.91
189.851	24.23
190.07	-26.96
190.29	-80.21
190.509	77.48
190.729	22.19
190.948	93.87
191.168	108.2
191.387	36.52
191.607	16.04
191.826	3.75
192.045	-6.49
192.265	36.52
192.484	22.19
192.704	44.71
192.923	32.43
193.142	71.34
193.362	18.09
193.581	44.71
193.8	77.48
194.02	42.67
194.239	13.99
194.458	38.57
194.678	52.91
194.897	30.38
195.116	69.29
195.335	114.34
195.555	93.87
195.774	42.67
195.993	65.19
196.212	-47.44
196.432	3.75
196.651	32.43
196.87	-61.78
197.089	57
197.308	-33.11
197.528	28.33
197.747	7.85
197.966	22.19
198.185	73.39
198.404	46.76
198.623	-39.25
198.842	16.04
199.062	32.43
199.281	42.67
199.5	69.29
199.719	13.99
199.938	11.95
200.157	7.85
200.376	-8.53
200.595	-8.53
200.814	3.75
201.033	-41.3
201.252	52.91
201.471	28.33
201.69	54.95
201.909	26.28
202.128	-4.44
202.347	-0.34
202.566	-14.68
202.785	1.71
203.004	61.1
203.223	40.62
203.442	7.85
203.661	-24.92
203.879	5.8
204.098	28.33
204.317	9.9
204.536	5.8
204.755	13.99
204.974	16.04
205.193	22.19
205.411	81.58
205.63	36.52
205.849	36.52
206.068	18.09
206.287	59.05
206.505	-10.58
206.724	9.9
206.943	-31.06
207.162	-14.68
207.381	40.62
207.599	67.24
207.818	-2.39
208.037	7.85
208.255	-37.2
208.474	50.86
208.693	-8.53
208.911	40.62
209.13	16.04
209.349	67.24
209.567	-2.39
209.786	81.58
210.005	46.76
210.223	38.57
210.442	18.09
210.661	22.19
210.879	22.19
211.098	46.76
211.316	18.09
211.535	-18.77
211.753	32.43
211.972	3.75
212.191	61.1
212.409	5.8
212.628	73.39
212.846	-16.73
213.065	18.09
213.283	95.91
213.502	79.53
213.72	28.33
213.938	-10.58
214.157	59.05
214.375	7.85
214.594	52.91
214.812	16.04
215.031	13.99
215.249	24.23
215.467	-24.92
215.686	44.71
215.904	57
216.122	54.95
216.341	-39.25
216.559	44.71
216.778	1.71
216.996	120.49
217.214	36.52
217.432	-33.11
217.651	16.04
217.869	-24.92
218.087	-12.63
218.306	1.71
218.524	48.81
218.742	5.8
218.96	-10.58
219.179	18.09
219.397	26.28
219.615	-0.34
219.833	93.87
220.051	61.1
220.27	52.91
220.488	36.52
220.706	69.29
220.924	26.28
221.142	116.39
221.36	32.43
221.578	36.52
221.796	22.19
222.015	-22.87
222.233	-20.82
222.451	-31.06
222.669	50.86
222.887	-6.49
223.105	-6.49
223.323	-4.44
223.541	-86.36
223.759	-22.87
223.977	5.8
224.195	16.04
224.413	24.23
224.631	-16.73
224.849	61.1
225.067	75.43
225.285	50.86
225.503	28.33
225.721	-4.44
225.939	34.47
226.157	3.75
226.375	110.25
226.592	28.33
226.81	-51.54
227.028	-4.44
227.246	81.58
227.464	-12.63
227.682	42.67
227.9	-10.58
228.117	50.86
228.335	38.57
228.553	9.9
228.771	11.95
228.989	65.19
229.206	-18.77
229.424	44.71
229.642	1.71
229.86	-4.44
230.077	22.19
230.295	-22.87
230.513	81.58
230.731	24.23
230.948	102.06
231.166	110.25
231.384	67.24
231.601	50.86
231.819	48.81
232.037	24.23
232.254	-8.53
232.472	20.14
232.689	48.81
232.907	122.54
233.125	-20.82
233.342	3.75
233.56	20.14
233.777	34.47
233.995	13.99
234.213	48.81
234.43	-6.49
234.648	32.43
234.865	-10.58
235.083	44.71
235.3	46.76
235.518	28.33
235.735	83.63
235.953	34.47
236.17	-8.53
236.388	50.86
236.605	9.9
236.822	87.72
237.04	-59.73
237.257	38.57
237.475	34.47
237.692	11.95
237.909	-10.58
238.127	59.05
238.344	48.81
238.562	16.04
238.779	34.47
238.996	16.04
239.214	48.81
239.431	36.52
239.648	42.67
239.865	69.29
240.083	34.47
240.3	-2.39
240.517	7.85
240.735	-8.53
240.952	-88.4
241.169	34.47
241.386	13.99
241.603	32.43
241.821	18.09
242.038	81.58
242.255	20.14
242.472	36.52
242.689	18.09
242.907	38.57
243.124	16.04
243.341	52.91
243.558	59.05
243.775	-49.49
243.992	32.43
244.209	28.33
244.426	7.85
244.643	38.57
244.86	16.04
245.078	11.95
245.295	50.86
245.512	57
245.729	63.15
245.946	-2.39
246.163	26.28
246.38	-31.06
246.597	30.38
246.814	85.67
247.031	22.19
247.248	3.75
247.464	77.48
247.681	30.38
247.898	-6.49
248.115	48.81
248.332	63.15
248.549	89.77
248.766	52.91
248.983	65.19
249.2	34.47
249.417	54.95
249.633	32.43
249.85	40.62
250.067	59.05
250.284	44.71
250.501	24.23
250.717	63.15
250.934	-24.92
251.151	-4.44
251.368	44.71
251.585	36.52
251.801	22.19
252.018	1.71
252.235	-0.34
252.451	-18.77
252.668	-37.2
252.885	32.43
253.102	-55.64
253.318	65.19
253.535	20.14
253.752	69.29
253.968	110.25
254.185	-10.58
254.401	-0.34
254.618	67.24
254.835	1.71
255.051	112.3
255.268	3.75
255.484	83.63
255.701	42.67
255.917	30.38
256.134	13.99
256.351	112.3
256.567	-51.54
256.784	1.71
257	-18.77
257.217	93.87
257.433	22.19
257.65	32.43
257.866	28.33
258.082	-4.44
258.299	40.62
258.515	77.48
258.732	28.33
258.948	16.04
259.165	3.75
259.381	-6.49
259.597	13.99
259.814	52.91
260.03	9.9
260.246	95.91
260.463	120.49
260.679	40.62
260.895	-10.58
261.112	9.9
261.328	-61.78
261.544	24.23
261.761	1.71
261.977	13.99
262.193	22.19
262.409	13.99
262.626	54.95
262.842	30.38
263.058	-45.4
263.274	38.57
263.49	-0.34
263.707	-29.01
263.923	-6.49
264.139	-20.82
264.355	36.52
264.571	9.9
264.787	40.62
265.004	54.95
265.22	-16.73
265.436	-8.53
265.652	-26.96
265.868	22.19
266.084	-12.63
266.3	16.04
266.516	-26.96
266.732	85.67
266.948	13.99
267.164	18.09
267.38	67.24
267.596	44.71
267.812	40.62
268.028	5.8
268.244	-2.39
268.46	52.91
268.676	44.71
268.892	89.77
269.108	34.47
269.324	57
269.54	-18.77
269.756	87.72
269.972	22.19
270.188	-6.49
270.403	89.77
270.619	77.48
270.835	40.62
271.051	28.33
271.267	-74.07
271.483	42.67
271.698	81.58
271.914	42.67
272.13	32.43
272.346	1.71
272.562	11.95
272.777	75.43
272.993	-45.4
273.209	65.19
273.425	81.58
273.64	32.43
273.856	26.28
274.072	9.9
274.287	-4.44
274.503	73.39
274.719	24.23
274.934	32.43
275.15	-8.53
275.366	46.76
275.581	-63.83
275.797	-24.92
276.012	-10.58
276.228	42.67
276.444	61.1
276.659	42.67
276.875	3.75
277.09	81.58
277.306	-16.73
277.521	32.43
277.737	67.24
277.952	-6.49
278.168	-29.01
278.383	30.38
278.599	-55.64
278.814	9.9
279.03	-29.01
279.245	83.63
279.461	24.23
279.676	11.95
279.892	-10.58
280.107	100.01
280.322	61.1
280.538	-4.44
280.753	-22.87
280.969	20.14
281.184	59.05
281.399	97.96
281.615	48.81
281.83	57
282.045	16.04
282.26	-0.34
282.476	65.19
282.691	11.95
282.906	91.82
283.122	-20.82
283.337	-26.96
283.552	97.96
283.767	-8.53
283.983	40.62
284.198	16.04
284.413	57
284.628	32.43
284.843	30.38
285.058	93.87
285.274	18.09
285.489	-22.87
285.704	7.85
285.919	-8.53
286.134	71.34
286.349	7.85
286.564	30.38
286.779	9.9
286.995	-8.53
287.21	-69.97
287.425	67.24
287.64	18.09
287.855	54.95
288.07	20.14
288.285	52.91
288.5	48.81
288.715	7.85
288.93	32.43
289.145	-6.49
289.36	93.87
289.575	30.38
289.79	32.43
290.004	71.34
290.219	122.54
290.434	7.85
290.649	16.04
290.864	-10.58
291.079	5.8
291.294	-0.34
291.509	-14.68
291.724	59.05
291.938	-20.82
292.153	91.82
292.368	20.14
292.583	38.57
292.798	40.62
293.012	-6.49
293.227	-16.73
293.442	-4.44
293.657	-20.82
293.871	-0.34
294.086	16.04
294.301	3.75
294.516	71.34
294.73	24.23
294.945	-53.59
295.16	54.95
295.374	65.19
295.589	79.53
295.804	36.52
296.018	38.57
296.233	36.52
296.447	61.1
296.662	-2.39
296.877	24.23
297.091	34.47
297.306	81.58
297.52	24.23
297.735	85.67
297.949	-0.34
298.164	42.67
298.378	32.43
298.593	67.24
298.807	28.33
299.022	-37.2
299.236	32.43
299.451	36.52
299.665	-6.49
299.88	22.19
300.094	-10.58
300.309	28.33
300.523	20.14
300.737	48.81
300.952	18.09
301.166	57
301.381	-45.4
301.595	-2.39
301.809	59.05
302.024	-18.77
302.238	100.01
302.452	9.9
302.667	7.85
302.881	-18.77
303.095	61.1
303.309	32.43
303.524	24.23
303.738	7.85
303.952	26.28
304.166	75.43
304.381	9.9
304.595	52.91
304.809	-0.34
305.023	-6.49
305.237	5.8
305.452	-2.39
305.666	67.24
305.88	34.47
306.094	28.33
306.308	50.86
306.522	34.47
306.736	30.38
306.95	44.71
307.164	57
307.379	40.62
307.593	1.71
307.807	40.62
308.021	52.91
308.235	79.53
308.449	-12.63
308.663	22.19
308.877	54.95
309.091	5.8
309.305	65.19
309.519	67.24
309.733	57
309.947	32.43
310.161	38.57
310.374	42.67
310.588	30.38
310.802	54.95
311.016	44.71
311.23	24.23
311.444	44.71
311.658	30.38
311.872	54.95
312.085	34.47
312.299	-10.58
312.513	91.82
312.727	18.09
312.941	-39.25
313.154	-8.53
313.368	93.87
313.582	57
313.796	-35.16
314.009	67.24
314.223	128.68
314.437	-2.39
314.651	32.43
314.864	-0.34
315.078	-22.87
315.292	34.47
315.505	57
315.719	16.04
315.933	59.05
316.146	-33.11
316.36	57
316.573	61.1
316.787	69.29
317.001	67.24
317.214	75.43
317.428	11.95
317.641	50.86
317.855	3.75
318.068	18.09
318.282	52.91
318.495	40.62
318.709	77.48
318.922	48.81
319.136	106.15
319.349	87.72
319.563	-4.44
319.776	-4.44
319.99	42.67
320.203	75.43
320.417	89.77
320.63	-12.63
320.843	54.95
321.057	85.67
321.27	87.72
321.483	48.81
321.697	52.91
321.91	52.91
322.124	52.91
322.337	73.39
322.55	100.01
322.763	44.71
322.977	-14.68
323.19	-37.2
323.403	75.43
323.617	54.95
323.83	126.63
324.043	-61.78
324.256	38.57
324.469	24.23
324.683	57
324.896	5.8
325.109	81.58
325.322	59.05
325.535	69.29
325.748	40.62
325.962	7.85
326.175	-45.4
326.388	77.48
326.601	63.15
326.814	-24.92
327.027	7.85
327.24	34.47
327.453	46.76
327.666	-0.34
327.879	69.29
328.092	40.62
328.305	134.82
328.518	50.86
328.731	5.8
328.944	-4.44
329.157	22.19
329.37	50.86
329.583	75.43
329.796	71.34
330.009	48.81
330.222	108.2
330.435	44.71
330.648	52.91
330.861	57
331.073	-29.01
331.286	-6.49
331.499	57
331.712	52.91
331.925	9.9
332.138	-14.68
332.35	128.68
332.563	1.71
332.776	18.09
332.989	5.8
333.202	-12.63
333.414	46.76
333.627	73.39
333.84	104.11
334.053	44.71
334.265	5.8
334.478	69.29
334.691	9.9
334.903	20.14
335.116	-8.53
335.329	44.71
335.541	79.53
335.754	79.53
335.966	-35.16
336.179	91.82
336.392	46.76
336.604	57
336.817	79.53
337.029	32.43
337.242	61.1
337.454	20.14
337.667	-37.2
337.88	28.33
338.092	46.76
338.305	112.3
338.517	36.52
338.729	79.53
338.942	65.19
339.154	57
339.367	57
339.579	22.19
339.792	-8.53
340.004	63.15
340.217	-26.96
340.429	3.75
340.641	30.38
340.854	69.29
341.066	16.04
341.278	77.48
341.491	-8.53
341.703	71.34
341.915	-33.11
342.128	97.96
342.34	57
342.552	36.52
342.764	11.95
342.977	93.87
343.189	67.24
343.401	63.15
343.613	-53.59
343.826	-0.34
344.038	71.34
344.25	28.33
344.462	-2.39
344.674	44.71
344.886	77.48
345.099	-0.34
345.311	40.62
345.523	71.34
345.735	26.28
345.947	34.47
346.159	32.43
346.371	116.39
346.583	-59.73
346.795	95.91
347.007	52.91
347.219	32.43
347.431	3.75
347.643	124.58
347.855	-18.77
348.067	34.47
348.279	24.23
348.491	57
348.703	-14.68
348.915	40.62
349.127	1.71
349.339	52.91
349.551	20.14
349.763	63.15
349.975	40.62
350.187	48.81
350.399	89.77
350.61	85.67
350.822	16.04
351.034	63.15
351.246	100.01
351.458	69.29
351.669	-18.77
351.881	120.49
352.093	32.43
352.305	-2.39
352.517	11.95
352.728	20.14
352.94	46.76
353.152	46.76
353.363	81.58
353.575	77.48
353.787	93.87
353.999	83.63
354.21	136.87
354.422	102.06
354.633	22.19
354.845	32.43
355.057	-12.63
355.268	61.1
355.48	1.71
355.692	-8.53
355.903	24.23
356.115	81.58
356.326	73.39
356.538	71.34
356.749	34.47
356.961	-6.49
357.172	-8.53
357.384	97.96
357.595	79.53
357.807	34.47
358.018	59.05
358.23	52.91
358.441	71.34
358.653	69.29
358.864	54.95
359.075	67.24
359.287	32.43
359.498	93.87
359.709	38.57
359.921	97.96
360.132	44.71
360.344	-2.39
360.555	40.62
360.766	91.82
360.977	65.19
361.189	18.09
361.4	-16.73
361.611	54.95
361.823	3.75
362.034	145.06
362.245	24.23
362.456	50.86
362.667	106.15
362.879	61.1
363.09	57
363.301	40.62
363.512	-8.53
363.723	54.95
363.935	36.52
364.146	69.29
364.357	44.71
364.568	63.15
364.779	20.14
364.99	136.87
365.201	7.85
365.412	108.2
365.623	5.8
365.834	77.48
366.045	50.86
366.256	52.91
366.467	95.91
366.678	20.14
366.889	112.3
367.1	48.81
367.311	30.38
367.522	50.86
367.733	75.43
367.944	69.29
368.155	11.95
368.366	95.91
368.577	22.19
368.788	67.24
368.999	-20.82
369.209	71.34
369.42	100.01
369.631	104.11
369.842	-0.34
370.053	3.75
370.264	46.76
370.474	71.34
370.685	79.53
370.896	-0.34
371.107	136.87
371.317	108.2
371.528	-24.92
371.739	54.95
371.95	102.06
372.16	77.48
372.371	44.71
372.582	93.87
372.792	77.48
373.003	116.39
373.214	61.1
373.424	44.71
373.635	52.91
373.846	18.09
374.056	22.19
374.267	61.1
374.477	-31.06
374.688	93.87
374.898	77.48
375.109	38.57
375.319	97.96
375.53	61.1
375.74	36.52
375.951	61.1
376.161	136.87
376.372	28.33
376.582	22.19
376.793	97.96
377.003	-26.96
377.214	3.75
377.424	83.63
377.635	13.99
377.845	50.86
378.055	50.86
378.266	13.99
378.476	44.71
378.686	-29.01
378.897	44.71
379.107	18.09
379.317	102.06
379.528	50.86
379.738	73.39
379.948	-0.34
380.158	83.63
380.369	48.81
380.579	40.62
380.789	48.81
380.999	81.58
381.21	52.91
381.42	136.87
381.63	32.43
381.84	48.81
382.05	116.39
382.261	50.86
382.471	112.3
382.681	52.91
382.891	63.15
383.101	77.48
383.311	-8.53
383.521	36.52
383.731	-10.58
383.941	20.14
384.151	63.15
384.361	116.39
384.571	3.75
384.781	22.19
384.991	89.77
385.201	91.82
385.411	1.71
385.621	46.76
385.831	79.53
386.041	134.82
386.251	-39.25
386.461	120.49
386.671	67.24
386.881	97.96
387.091	-12.63
387.301	83.63
387.511	153.26
387.72	48.81
387.93	77.48
388.14	108.2
388.35	48.81
388.56	61.1
388.769	24.23
388.979	108.2
389.189	108.2
389.399	83.63
389.609	48.81
389.818	93.87
390.028	61.1
390.238	120.49
390.447	65.19
390.657	34.47
390.867	100.01
391.076	93.87
391.286	50.86
391.496	85.67
391.705	93.87
391.915	157.35
392.125	36.52
392.334	32.43
392.544	114.34
392.753	52.91
392.963	52.91
393.172	52.91
393.382	46.76
393.591	126.63
393.801	61.1
394.01	147.11
394.22	100.01
394.429	54.95
394.639	114.34
394.848	32.43
395.058	44.71
395.267	132.78
395.477	102.06
395.686	63.15
395.895	65.19
396.105	93.87
396.314	85.67
396.524	140.97
396.733	85.67
396.942	181.93
397.152	73.39
397.361	104.11
397.57	118.44
397.78	71.34
397.989	114.34
398.198	149.16
398.407	57
398.617	57
398.826	104.11
399.035	57
399.244	87.72
399.453	143.02
399.663	108.2
399.872	69.29
400.081	102.06
400.29	171.69
400.499	134.82
400.708	106.15
400.917	38.57
401.127	130.73
401.336	75.43
401.545	183.98
401.754	52.91
401.963	102.06
402.172	122.54
402.381	202.41
402.59	124.58
402.799	179.88
403.008	159.4
403.217	171.69
403.426	161.45
403.635	69.29
403.844	118.44
404.053	173.74
404.262	126.63
404.471	128.68
404.68	171.69
404.888	204.46
405.097	110.25
405.306	151.21
405.515	241.32
405.724	183.98
405.933	192.17
406.142	194.22
406.35	247.46
406.559	231.08
406.768	173.74
406.977	212.65
407.185	171.69
407.394	175.78
407.603	237.22
407.812	245.41
408.02	233.13
408.229	265.89
408.438	233.13
408.646	302.76
408.855	296.61
409.064	345.77
409.272	313
409.481	315.05
409.69	378.53
409.898	349.86
410.107	376.48
410.315	341.67
410.524	380.58
410.733	396.96
410.941	349.86
411.15	368.29
411.358	435.88
411.567	491.17
411.775	493.22
411.984	466.6
412.192	556.71
412.401	566.95
412.609	560.8
412.818	612
413.026	538.27
413.234	550.56
413.443	542.37
413.651	685.73
413.86	652.96
414.068	671.39
414.276	687.78
414.485	736.93
414.693	720.54
414.901	798.37
415.11	847.52
415.318	822.94
415.526	769.69
415.734	718.5
415.943	888.48
416.151	921.24
416.359	958.11
416.567	1072.79
416.776	951.96
416.984	1111.71
417.192	1162.9
417.4	1224.34
417.608	1236.63
417.817	1222.3
418.025	1253.02
418.233	1326.74
418.441	1304.21
418.649	1379.99
418.857	1566.35
419.065	1549.97
419.273	1515.16
419.481	1631.89
419.689	1676.95
419.897	1740.43
420.105	1816.21
420.313	1840.78
420.521	1869.45
420.729	1881.74
420.937	1953.42
421.145	2078.35
421.353	2203.27
421.561	2229.9
421.769	2295.43
421.977	2399.88
422.185	2365.06
422.393	2489.99
422.601	2584.2
422.809	2629.25
423.017	2741.89
423.224	2778.75
423.432	2809.47
423.64	2956.93
423.848	3108.48
424.056	3190.39
424.263	3350.14
424.471	3419.77
424.679	3458.68
424.887	3593.84
425.094	3624.56
425.302	3571.32
425.51	3841.65
425.718	3898.99
425.925	4093.55
426.133	4251.24
426.341	4378.22
426.548	4550.25
426.756	4636.26
426.964	4693.6
427.171	4855.39
427.379	4992.61
427.586	5244.51
427.794	5269.08
428.001	5430.87
428.209	5762.64
428.417	5574.23
428.624	6080.08
428.832	6112.85
429.039	6184.52
429.247	6133.33
429.454	6616.65
429.662	6909.51
429.869	6540.87
430.076	7247.42
430.284	6815.3
430.491	7239.23
430.699	7476.79
430.906	7695.93
431.114	7671.35
431.321	7996.98
431.528	8113.71
431.736	8476.2
431.943	8969.76
432.15	8799.78
432.358	8807.97
432.565	9344.54
432.772	9405.98
432.979	9991.7
433.187	10069.52
433.394	10098.19
433.601	10853.89
433.808	10794.5
434.016	10812.93
434.223	11109.89
434.43	11945.46
434.637	11582.97
434.844	12332.53
435.052	12609
435.259	12445.16
435.466	12686.83
435.673	12385.77
435.88	13262.3
436.087	14097.88
436.294	14138.83
436.501	13745.62
436.708	14159.31
436.915	14261.71
437.122	14927.3
437.329	15304.13
437.537	15685.05
437.743	15947.19
437.95	15683
438.157	16514.48
438.364	17028.52
438.571	17206.69
438.778	17135.01
438.985	18779.53
439.192	18038.17
439.399	18673.04
439.606	18437.52
439.813	19379.59
440.02	20352.37
440.227	20157.82
440.433	19797.37
440.64	20561.26
440.847	20354.42
441.054	20686.19
441.261	22000.99
441.467	22037.85
441.674	22478.16
441.881	23135.56
442.088	23164.23
442.294	23004.49
442.501	23532.87
442.708	24065.34
442.914	25021.74
443.121	26096.92
443.328	25437.48
443.534	27053.33
443.741	26404.12
443.948	26035.49
444.154	28056.83
444.361	27809.03
444.568	28036.35
444.774	27733.25
444.981	28366.07
445.187	28894.45
445.394	30291.16
445.6	30016.74
445.807	32887.99
446.013	31405.26
446.22	31900.87
446.426	33383.6
446.633	33557.67
446.839	34788.5
447.046	33344.69
447.252	34878.61
447.459	34843.8
447.665	34778.26
447.871	36512.89
448.078	37708.91
448.284	36107.4
448.491	37096.56
448.697	38589.53
448.903	39380.05
449.11	39328.85
449.316	38726.75
449.522	39187.54
449.728	40627.26
449.935	41192.5
450.141	40934.46
450.347	41253.94
450.553	40551.49
450.76	41358.39
450.966	42312.74
451.172	41600.05
451.378	42521.63
451.584	41808.94
451.791	42945.56
451.997	42902.56
452.203	43602.96
452.409	43592.72
452.615	43490.32
452.821	41552.94
453.027	41413.68
453.233	43672.59
453.44	42021.93
453.646	42761.25
453.852	42738.72
454.058	43330.58
454.264	41481.27
454.47	42527.78
454.676	41940.01
454.882	43074.59
455.088	39343.19
455.294	39781.45
455.5	40485.95
455.705	40899.64
455.911	39621.71
456.117	38646.88
456.323	37760.11
456.529	36084.87
456.735	37434.48
456.941	36863.1
457.147	35970.18
457.352	35028.12
457.558	34655.39
457.764	34858.13
457.97	34120.87
458.176	33426.6
458.381	33328.3
458.587	31655.11
458.793	31749.32
458.999	29965.54
459.204	32550.07
459.41	31542.47
459.616	29211.88
459.821	29187.31
460.027	29428.97
460.233	28714.23
460.438	27411.72
460.644	27438.34
460.85	26408.22
461.055	26187.04
461.261	25877.79
461.466	24046.91
461.672	23168.33
461.878	24829.23
462.083	23278.92
462.289	22840.65
462.494	22560.08
462.7	21658.98
462.905	21081.45
463.111	21669.22
463.316	21695.84
463.522	21357.92
463.727	21386.6
463.932	21200.23
464.138	21144.94
464.343	21210.47
464.549	20335.99
464.754	21052.78
464.959	21126.5
465.165	20837.74
465.37	19987.83
465.575	19408.26
465.781	20149.62
465.986	20245.88
466.191	19770.75
466.397	18933.13
466.602	18324.88
466.807	19008.9
467.012	19088.78
467.218	19064.2
467.423	18744.72
467.628	18730.38
467.833	19600.77
468.038	18957.71
468.244	18251.16
468.449	18947.47
468.654	18443.67
468.859	18414.99
469.064	18195.86
469.269	17618.33
469.474	17554.85
469.679	17767.84
469.885	17231.27
470.09	17540.51
470.295	17591.71
470.5	17149.35
470.705	17528.22
470.91	16596.4
471.115	16502.19
471.32	17108.39
471.525	16903.59
471.73	16580.01
471.935	16373.17
472.139	15734.2
472.344	16051.64
472.549	15932.86
472.754	15859.13
472.959	15656.38
473.164	15091.14
473.369	14861.77
473.574	15173.06
473.778	15111.62
473.983	15220.16
474.188	14790.09
474.393	14501.33
474.598	14394.83
474.802	14106.07
475.007	14134.74
475.212	14321.1
475.417	13729.24
475.621	13764.06
475.826	13721.05
476.031	13487.58
476.235	13135.33
476.44	13501.92
476.645	13217.25
476.849	13082.08
477.054	13196.77
477.259	12871.14
477.463	12942.82
477.668	12451.31
477.872	12754.41
478.077	12289.52
478.282	12146.16
478.486	11961.84
478.691	11998.71
478.895	11972.08
479.1	11939.32
479.304	11722.23
479.509	11351.55
479.713	11722.23
479.918	11509.24
480.122	11343.36
480.326	11390.46
480.531	11451.9
480.735	11269.63
480.94	11283.97
481.144	11515.39
481.348	10857.99
481.553	11187.71
481.757	11021.83
481.961	11013.63
482.166	11451.9
482.37	11019.78
482.574	10767.88
482.778	10923.52
482.983	11300.35
483.187	11081.22
483.391	11054.59
483.595	10974.72
483.8	10839.56
484.004	10874.37
484.208	10972.68
484.412	10753.54
484.616	11034.11
484.821	10944
485.025	10923.52
485.229	11185.66
485.433	10993.15
485.637	10880.52
485.841	10853.89
486.045	10724.87
486.249	11152.9
486.453	10704.39
486.657	10956.29
486.861	11079.17
487.065	10681.86
487.269	10784.26
487.473	10714.63
487.677	10849.8
487.881	11118.08
488.085	10690.06
488.289	11220.48
488.493	10673.67
488.697	10997.25
488.901	11197.95
489.105	11032.07
489.309	10837.51
489.512	10917.38
489.716	10911.24
489.92	10989.06
490.124	10874.37
490.328	11390.46
490.531	11187.71
490.735	11240.96
490.939	11292.16
491.143	11156.99
491.346	11224.58
491.55	11576.83
491.754	11408.89
491.958	11490.81
492.161	11306.49
492.365	11472.38
492.569	11462.14
492.772	11519.48
492.976	11656.7
493.18	11476.48
493.383	11814.39
493.587	11951.6
493.79	11963.89
493.994	11818.49
494.197	12025.33
494.401	12226.03
494.605	12131.83
494.808	12355.05
495.012	12066.29
495.215	12209.65
495.419	12496.36
495.622	12457.45
495.825	12746.22
496.029	12535.28
496.232	13118.95
496.436	12809.7
496.639	13245.92
496.843	12922.34
497.046	13350.37
497.249	13497.82
497.453	13327.84
497.656	13522.4
497.859	13602.27
498.063	13942.23
498.266	14034.39
498.469	13999.57
498.673	14267.86
498.876	14118.36
499.079	14605.77
499.282	14654.92
499.485	15007.17
499.689	14992.84
499.892	15263.17
500.095	15111.62
500.298	15529.41
500.501	15418.82
500.705	15926.71
500.908	16143.8
501.111	16004.53
501.314	16328.11
501.517	16520.62
501.72	16598.45
501.923	16508.33
502.126	17151.4
502.329	17438.11
502.532	17497.5
502.735	17692.06
502.938	17581.47
503.141	17980.82
503.344	18138.52
503.547	18103.7
503.75	18464.14
503.953	18816.4
504.156	18738.57
504.359	18908.55
504.562	19174.79
504.765	19457.41
504.968	19735.93
505.17	20059.51
505.373	19977.59
505.576	20751.73
505.779	20348.28
505.982	20532.59
506.185	20710.77
506.387	20966.76
506.59	21263.72
506.793	21871.96
506.996	21691.74
507.198	22256.98
507.401	22138.2
507.604	22117.72
507.807	22889.81
508.009	22719.82
508.212	22873.42
508.415	23176.52
508.617	23385.41
508.82	23649.6
509.022	23567.68
509.225	24075.58
509.428	24358.2
509.63	24528.18
509.833	24837.42
510.035	25115.95
510.238	25240.87
510.44	25670.95
510.643	25890.08
510.845	26051.87
511.048	25988.38
511.25	26219.8
511.453	26305.82
511.655	27354.38
511.858	27006.22
512.06	27278.6
512.262	27391.24
512.465	27815.17
512.667	28398.84
512.87	28314.87
513.072	28482.81
513.274	28820.72
513.477	29021.42
513.679	29603.05
513.881	29791.46
514.084	30293.21
514.286	29943.01
514.488	30139.61
514.69	30827.73
514.893	31048.91
515.095	31190.22
515.297	31085.78
515.499	31640.78
515.701	31950.02
515.904	32236.73
516.106	32771.25
516.308	32619.7
516.51	33219.76
516.712	33481.9
516.914	33627.31
517.116	34038.95
517.318	34428.06
517.52	34350.24
517.722	34452.64
517.925	35069.08
518.127	35640.46
518.329	35464.33
518.531	35603.6
518.733	36078.72
518.935	36447.36
519.136	36529.28
519.338	37186.68
519.54	37233.78
519.742	37289.07
519.944	37397.62
520.146	38323.3
520.348	38108.26
520.55	38745.18
520.752	38546.53
520.954	39590.99
521.155	39079
521.357	39717.96
521.559	39951.43
521.761	40512.58
521.963	40338.5
522.164	40764.48
522.366	40793.15
522.568	40924.22
522.77	41550.9
522.971	42083.37
523.173	41608.24
523.375	41948.2
523.576	42015.79
523.778	42179.62
523.98	42693.66
524.181	42722.33
524.383	43314.2
524.584	43324.44
524.786	43480.08
524.988	43727.89
525.189	43981.84
525.391	44262.41
525.592	44379.14
525.794	44803.07
525.995	44690.43
526.197	44651.52
526.398	44946.43
526.6	45292.54
526.801	45335.54
527.003	45429.75
527.204	45640.69
527.406	45986.8
527.607	45984.75
527.808	46668.77
528.01	45452.28
528.211	46396.39
528.412	47297.5
528.614	46511.08
528.815	46902.24
529.016	47395.8
529.218	46418.92
529.419	46898.14
529.62	47148
529.822	46928.86
530.023	47336.41
530.224	47234.01
530.425	47533.01
530.626	47068.12
530.828	47182.81
531.029	48161.74
531.23	47889.36
531.431	47698.9
531.632	48067.53
531.833	48237.51
532.035	47938.51
532.236	47821.78
532.437	48350.15
532.638	47965.13
532.839	48702.4
533.04	48485.32
533.241	47889.36
533.442	48882.62
533.643	48315.34
533.844	48663.49
534.045	48665.54
534.246	47977.42
534.447	48475.08
534.648	48450.5
534.849	48526.28
535.05	48190.41
535.251	48432.07
535.451	48231.37
535.652	48763.84
535.853	48374.73
536.054	48802.75
536.255	48710.6
536.456	47954.89
536.657	49343.42
536.857	48384.97
537.058	48301
537.259	48671.68
537.46	49071.04
537.66	48624.58
537.861	48651.2
538.062	48188.36
538.263	48790.47
538.463	48624.58
538.664	48370.63
538.865	48712.64
539.065	48616.39
539.266	48194.51
539.466	48761.79
539.667	48088.01
539.868	48597.96
540.068	48688.07
540.269	48643.01
540.469	48950.21
540.67	48436.17
540.87	48927.68
541.071	48176.08
541.271	48430.02
541.472	48540.61
541.672	48135.12
541.873	48112.59
542.073	47629.27
542.274	48964.54
542.474	48002
542.675	47915.98
542.875	48583.62
543.075	48565.19
543.276	47627.22
543.476	48645.06
543.676	47981.52
543.877	48737.22
544.077	48180.17
544.277	47854.54
544.478	48047.05
544.678	48018.38
544.878	48358.34
545.078	48516.04
545.279	47668.18
545.479	47778.77
545.679	48094.16
545.879	48245.71
546.079	47930.32
546.28	47748.05
546.48	47686.61
546.68	48202.7
546.88	48133.07
547.08	48174.03
547.28	47672.28
547.48	47746
547.68	48106.44
547.88	47461.33
548.081	48028.62
548.281	47973.33
548.481	47494.1
548.681	48135.12
548.881	48049.1
549.081	47520.73
549.28	47977.42
549.48	48341.96
549.68	47815.63
549.88	48475.08
550.08	47199.19
550.28	47758.29
550.48	47897.55
550.68	48145.36
550.88	47510.49
551.08	47565.78
551.279	47809.49
551.479	47578.07
551.679	47807.44
551.879	47281.11
552.079	47967.18
552.278	47844.3
552.478	47612.88
552.678	47608.79
552.878	47782.87
553.077	47598.55
553.277	47410.14
553.477	47758.29
553.676	47326.17
553.876	47363.03
554.076	47256.54
554.275	47256.54
554.475	46930.91
554.674	47494.1
554.874	47688.66
555.074	46951.39
555.273	47158.24
555.473	47291.35
555.672	46851.04
555.872	47100.89
556.071	46781.41
556.271	47076.32
556.47	47012.83
556.67	46715.87
556.869	46670.82
557.068	46951.39
557.268	46674.91
557.467	46885.86
557.667	46711.78
557.866	46609.38
558.065	46380.01
558.265	46388.2
558.464	46244.84
558.663	46455.78
558.863	46056.43
559.062	46816.22
559.261	45519.86
559.461	46277.61
559.66	45607.92
559.859	46279.66
560.058	45499.38
560.258	46250.98
560.457	45775.86
560.656	45691.89
560.855	45663.22
561.054	45958.13
561.253	45896.69
561.453	45560.82
561.652	45704.18
561.851	45843.44
562.05	45216.76
562.249	44938.24
562.448	45351.93
562.647	45163.51
562.846	45167.61
563.045	44848.13
563.244	44481.54
563.443	45229.05
563.642	44712.96
563.841	44764.16
564.04	44616.71
564.239	45405.17
564.438	44233.74
564.637	45083.64
564.836	44452.87
565.035	44207.11
565.234	44495.88
565.432	44205.06
565.631	44166.15
565.83	43947.02
566.029	43959.31
566.228	43791.37
566.427	43750.42
566.625	43557.91
566.824	43263
567.023	43590.67
567.222	42873.88
567.42	43822.09
567.619	43414.55
567.818	43275.29
568.016	43287.57
568.215	43918.35
568.414	43004.95
568.612	43320.34
568.811	42519.59
569.01	42802.21
569.208	42380.32
569.407	42984.47
569.605	42239.01
569.804	42726.43
570.002	42122.28
570.201	42546.21
570.4	41983.02
570.598	41968.68
570.797	42050.6
570.995	41862.19
571.193	41466.93
571.392	41854
571.59	41878.57
571.789	41407.54
571.987	41419.83
572.186	41608.24
572.384	41061.43
572.582	41540.66
572.781	41239.61
572.979	40969.27
573.177	40864.83
573.376	41542.7
573.574	40598.59
573.772	40948.79
573.971	40434.75
574.169	40137.8
574.367	39930.95
574.565	40778.81
574.763	40279.11
574.962	40479.81
575.16	39851.08
575.358	40123.46
575.556	39791.69
575.754	39957.58
575.952	39490.64
576.151	39560.27
576.349	39318.61
576.547	39638.09
576.745	39492.69
576.943	39199.83
577.141	38876.25
577.339	39109.72
577.537	39142.49
577.735	38868.06
577.933	38763.61
578.131	38841.43
578.329	38474.85
578.527	38288.48
578.725	38040.68
578.923	38024.29
579.121	38456.42
579.319	38202.47
579.516	38544.48
579.714	38026.34
579.912	37893.22
580.11	38098.02
580.308	37686.38
580.506	38022.25
580.704	37043.32
580.901	37680.24
581.099	37739.63
581.297	37088.37
581.495	37026.93
581.692	37360.75
581.89	36881.53
582.088	37166.2
582.285	36840.57
582.483	36684.92
582.681	36789.37
582.878	36703.35
583.076	36185.22
583.274	37155.96
583.471	36482.17
583.669	36332.67
583.866	36078.72
584.064	35918.98
584.262	35587.21
584.459	36535.42
584.657	35820.68
584.854	35861.64
585.052	35218.58
585.249	35480.72
585.447	35708.04
585.644	35196.05
585.841	35314.83
586.039	35478.67
586.236	34895
586.434	35067.03
586.631	34866.33
586.828	34987.16
587.026	34897.05
587.223	34706.59
587.42	34567.32
587.618	34608.28
587.815	34354.33
588.012	34100.39
588.21	34124.96
588.407	34485.4
588.604	33838.25
588.801	33768.62
588.999	33959.08
589.196	34129.06
589.393	34045.09
589.59	33524.91
589.787	33285.29
589.984	33428.65
590.182	33350.83
590.379	33359.02
590.576	33135.79
590.773	33316.01
590.97	33017.01
591.167	32789.69
591.364	32490.68
591.561	32724.15
591.758	32402.62
591.955	32609.47
592.152	32294.08
592.349	32433.34
592.546	32206.02
592.743	32597.18
592.94	31806.66
593.137	32017.6
593.334	31900.87
593.531	31456.46
593.727	31608.01
593.924	31560.91
594.121	31560.91
594.318	31853.76
594.515	31175.89
594.712	31292.62
594.908	31171.79
595.105	31462.6
595.302	30571.74
595.499	31290.57
595.696	30612.7
595.892	30758.1
596.089	30649.56
596.286	30854.36
596.482	30504.15
596.679	30291.16
596.876	30438.62
597.072	30196.96
597.269	30233.82
597.466	30092.51
597.662	30078.18
597.859	30088.42
598.055	30049.5
598.252	29613.29
598.448	29400.3
598.645	29660.39
598.841	29435.11
599.038	29078.77
599.234	29732.07
599.431	29177.07
599.627	28949.74
599.824	28966.13
600.02	28634.36
600.217	28790
600.413	28785.91
600.609	28632.31
600.806	28626.17
601.002	28626.17
601.198	28404.99
601.395	28247.29
601.591	27950.34
601.787	28433.66
601.984	27892.99
602.18	28351.74
602.376	27979.01
602.572	27931.9
602.769	28032.25
602.965	27677.96
603.161	27872.51
603.357	27454.73
603.553	27620.61
603.75	27444.49
603.946	27174.16
604.142	27831.55
604.338	27084.05
604.534	26895.63
604.73	26895.63
604.926	26879.25
605.122	27440.39
605.318	26934.54
605.514	26889.49
605.71	26649.88
605.906	26361.11
606.102	26377.5
606.298	26561.81
606.494	26684.69
606.69	26393.88
606.886	26494.23
607.082	26012.96
607.278	26338.58
607.474	25931.04
607.67	26549.53
607.866	25660.71
608.062	26031.39
608.257	25830.69
608.453	25748.77
608.649	25918.75
608.845	25869.6
609.041	25820.45
609.236	25728.29
609.432	25478.44
609.628	25472.29
609.824	25505.06
610.019	25115.95
610.215	25421.09
610.411	25580.84
610.606	25255.21
610.802	25474.34
610.998	25236.78
611.193	25259.31
611.389	25150.76
611.584	25185.58
611.78	25054.51
611.976	24984.88
612.171	25036.08
612.367	24921.39
612.562	24737.07
612.758	24503.6
612.953	24309.05
613.149	24433.97
613.344	24339.77
613.539	24825.14
613.735	24669.49
613.93	24657.2
614.126	24458.55
614.321	24421.69
614.517	24462.65
614.712	24327.48
614.907	24102.2
615.103	24374.58
615.298	23928.13
615.493	24495.41
615.688	23792.96
615.884	24714.55
616.079	23670.08
616.274	23831.87
616.47	23876.93
616.665	23770.43
616.86	23536.96
617.055	23790.91
617.25	23928.13
617.445	23600.45
617.641	23422.28
617.836	23633.22
618.031	23491.91
618.226	23604.55
618.421	23307.59
618.616	23549.25
618.811	23012.68
619.006	23256.39
619.201	22820.17
619.396	23258.44
619.591	22525.27
619.786	22803.79
619.981	22787.41
620.176	22662.48
620.371	22730.06
620.566	22394.2
620.761	22156.63
620.956	22437.2
621.151	22031.71
621.346	21867.87
621.541	21968.22
621.735	22338.9
621.93	21753.18
622.125	21665.12
622.32	21331.3
622.515	21562.72
622.709	21261.67
622.904	21405.03
623.099	21161.32
623.294	21212.52
623.488	20872.56
623.683	20751.73
623.878	20622.7
624.072	20741.49
624.267	20456.82
624.462	20473.2
624.656	20151.67
624.851	20428.15
625.046	20100.47
625.24	19838.33
625.435	19580.29
625.629	19948.92
625.824	19686.78
626.018	19705.21
626.213	19299.72
626.407	19453.31
626.602	19082.63
626.796	19699.07
626.991	19195.27
627.185	19088.78
627.38	18732.43
627.574	18605.45
627.768	18529.68
627.963	18492.82
628.157	18580.88
628.352	18363.79
628.546	18228.63
628.74	18136.47
628.935	17839.51
629.129	18107.8
629.323	17761.69
629.517	17810.84
629.712	17816.99
629.906	17792.41
630.1	17182.12
630.294	17401.25
630.489	17223.08
630.683	17450.4
630.877	17051.05
631.071	17044.9
631.265	16915.88
631.459	16735.66
631.653	17005.99
631.848	16893.35
632.042	16598.45
632.236	16752.04
632.43	16475.57
632.624	16186.8
632.818	16231.86
633.012	16125.36
633.206	16434.61
633.4	16205.24
633.594	15680.96
633.788	15975.86
633.982	15830.46
634.176	15785.4
634.369	15631.8
634.563	15437.25
634.757	15683
634.951	15269.31
635.145	15443.39
635.339	15427.01
635.533	15152.58
635.726	15074.76
635.92	14890.44
636.114	15027.65
636.308	14939.59
636.501	14945.73
636.695	14638.54
636.889	14837.19
637.083	14484.94
637.276	14239.19
637.47	14505.42
637.664	14280.14
637.857	14409.17
638.051	14269.9
638.244	14208.47
638.438	14079.44
638.632	14024.15
638.825	13764.06
639.019	13905.37
639.212	13673.95
639.406	13725.15
639.599	13538.78
639.793	13788.63
639.986	13311.46
640.18	13420
640.373	13653.47
640.567	13108.71
640.76	13250.02
640.954	13250.02
641.147	13090.27
641.34	13067.75
641.534	12926.44
641.727	12795.37
641.92	12744.17
642.114	12572.14
642.307	12815.85
642.5	12627.43
642.694	12389.87
642.887	12541.42
643.08	12549.61
643.273	12316.14
643.467	12271.09
643.66	12254.7
643.853	12158.45
644.046	12146.16
644.239	12097.01
644.432	11886.07
644.626	11933.17
644.819	11591.16
645.012	11828.73
645.205	11898.36
645.398	11542.01
645.591	11462.14
645.784	11548.15
645.977	11365.89
646.17	11392.51
646.363	11240.96
646.556	11107.84
646.749	11251.2
646.942	11228.67
647.135	10987.01
647.328	11075.07
647.521	10976.77
647.714	10894.85
647.907	10860.04
648.099	10810.89
648.292	10839.56
648.485	10853.89
648.678	10798.6
648.871	10817.03
649.064	10489.35
649.256	10565.13
649.449	10479.11
649.642	10319.37
649.835	10360.33
650.027	10389
650.22	10290.7
650.413	10231.31
650.605	10104.34
650.798	10094.1
650.991	10288.65
651.183	9922.07
651.376	10030.61
651.568	9862.68
651.761	9971.22
651.954	9817.62
652.146	9776.66
652.339	9715.22
652.531	9522.71
652.724	9547.29
652.916	9494.04
653.109	9371.16
653.301	9444.89
653.494	9424.41
653.686	9424.41
653.879	9233.95
654.071	9307.68
654.263	9072.16
654.456	9063.97
654.648	9342.49
654.84	8998.43
655.033	8982.05
655.225	8840.74
655.417	8939.04
655.61	9025.06
655.802	8963.62
655.994	8742.44
656.186	8857.12
656.379	8685.09
656.571	8558.12
656.763	8418.86
656.955	8590.89
657.148	8525.35
657.34	8408.62
657.532	8388.14
657.724	8373.8
657.916	8334.89
658.108	8293.93
658.3	8295.98
658.492	8367.66
658.684	8273.45
658.876	8123.95
659.068	7962.16
659.26	8140.33
659.452	8021.55
659.644	7966.26
659.836	7751.22
660.028	8064.56
660.22	7683.64
660.412	7833.14
660.604	7648.82
660.796	7675.45
660.988	7628.34
661.18	7429.69
661.372	7593.53
661.563	7697.97
661.755	7317.05
661.947	7474.74
662.139	7505.46
662.331	7521.85
662.522	7423.55
662.714	7226.94
662.906	7265.85
663.097	7421.5
663.289	7302.72
663.481	7093.82
663.673	7108.16
663.864	7169.6
664.056	6972.99
664.247	7036.48
664.439	6985.28
664.631	7147.07
664.822	6940.22
665.014	6940.22
665.205	6774.34
665.397	6768.2
665.588	6747.72
665.78	6817.35
665.971	6680.13
666.163	6764.1
666.354	6702.66
666.546	6557.25
666.737	6770.24
666.929	6655.56
667.12	6555.21
667.311	6499.91
667.503	6362.7
667.694	6481.48
667.885	6446.66
668.077	6485.58
668.268	6340.17
668.459	6200.91
668.651	6127.18
668.842	6307.4
669.033	6137.42
669.224	6250.06
669.416	6225.48
669.607	6270.54
669.798	6067.79
669.989	6143.56
670.18	6075.98
670.371	6057.55
670.563	6047.31
670.754	6116.94
670.945	5926.48
671.136	5920.34
671.327	5856.85
671.518	5906
671.709	5928.53
671.9	5924.43
672.091	5783.12
672.282	5713.49
672.473	5705.3
672.664	5776.98
672.855	5652.05
673.046	5643.86
673.237	5725.78
673.428	5666.39
673.619	5623.38
673.809	5588.57
674	5580.37
674.191	5563.99
674.382	5471.83
674.573	5553.75
674.764	5475.93
674.954	5473.88
675.145	5381.72
675.336	5430.87
675.527	5430.87
675.717	5404.25
675.908	5312.09
676.099	5373.53
676.289	5391.96
676.48	5353.05
676.671	5373.53
676.861	5211.74
677.052	5254.75
677.243	5332.57
677.433	5037.66
677.624	5326.43
677.814	5142.11
678.005	5293.66
678.195	5195.36
678.386	5181.02
678.576	5103.2
678.767	5115.48
678.957	5105.24
679.148	5099.1
679.338	5017.18
679.529	5086.81
679.719	5041.76
679.909	4834.91
680.1	4886.11
680.29	5006.94
680.481	4937.31
680.671	5070.43
680.861	4902.5
681.052	4857.44
681.242	4822.63
681.432	5008.99
681.622	4830.82
681.813	4849.25
682.003	4746.85
682.193	4869.73
682.383	4869.73
682.573	4703.84
682.764	4851.3
682.954	4779.62
683.144	4865.63
683.334	4677.22
683.524	4830.82
683.714	4679.27
683.904	4623.97
684.094	4613.73
684.284	4568.68
684.474	4714.08
684.664	4632.16
684.854	4675.17
685.044	4615.78
685.234	4494.95
685.424	4621.92
685.614	4441.7
685.804	4507.24
685.994	4372.07
686.184	4554.34
686.374	4427.37
686.564	4370.02
686.753	4331.11
686.943	4462.18
687.133	4345.45
687.323	4310.63
687.513	4316.78
687.702	4380.26
687.892	4288.11
688.082	4243.05
688.272	4243.05
688.461	4226.67
688.651	4181.61
688.841	4208.23
689.03	4173.42
689.22	4179.56
689.41	4103.79
689.599	4200.04
689.789	4079.21
689.979	4142.7
690.168	4085.36
690.358	4148.84
690.547	4075.12
690.737	3901.04
690.926	4062.83
691.116	3921.52
691.305	4005.49
691.495	3933.81
691.684	3833.46
691.874	3950.19
692.063	4025.97
692.252	3847.79
692.442	3796.59
692.631	3776.11
692.82	3913.33
693.01	3679.86
693.199	3833.46
693.388	3763.83
693.578	3794.54
693.767	3860.08
693.956	3645.04
694.146	3573.36
694.335	3636.85
694.524	3567.22
694.713	3655.28
694.902	3524.21
695.092	3579.51
695.281	3524.21
695.47	3579.51
695.659	3513.97
695.848	3438.2
696.037	3624.56
696.226	3513.97
696.415	3487.35
696.604	3657.33
696.793	3550.84
696.982	3477.11
697.171	3532.4
697.36	3511.93
697.549	3532.4
697.738	3497.59
697.927	3329.66
698.116	3319.42
698.305	3456.63
698.494	3518.07
698.683	3542.64
698.872	3294.84
699.061	3387
699.25	3470.97
699.438	3503.73
699.627	3407.48
699.816	3419.77
700.005	3401.33
700.193	3231.35
700.382	3276.41
700.571	3337.85
700.76	3282.55
700.948	3182.2
701.137	3255.93
701.326	3393.14
701.514	3286.65
701.703	3321.46
701.892	3440.25
702.08	3378.81
702.269	3319.42
702.457	3270.26
702.646	3208.83
702.834	3294.84
703.023	3204.73
703.212	3266.17
703.4	3161.72
703.589	3249.79
703.777	3370.62
703.965	3239.55
704.154	3300.98
704.342	3251.83
704.531	3288.7
704.719	3200.63
704.907	3194.49
705.096	3225.21
705.284	3221.11
705.472	3229.31
705.661	3163.77
705.849	3137.15
706.037	3257.98
706.226	3204.73
706.414	3083.9
706.602	3092.09
706.79	3245.69
706.979	3217.02
707.167	3178.11
707.355	3174.01
707.543	3141.24
707.731	3233.4
707.919	3186.3
708.107	3135.1
708.296	3071.61
708.484	3075.71
708.672	3063.42
708.86	3088
709.048	3073.66
709.236	3120.76
709.424	3161.72
709.612	3104.38
709.8	3018.36
709.988	3063.42
710.176	3147.39
710.364	3098.24
710.551	2987.65
710.739	3075.71
710.927	3055.23
711.115	3016.32
711.303	3094.14
711.491	3057.28
711.679	3036.8
711.866	3124.86
712.054	3014.27
712.242	2995.84
712.43	3040.89
712.617	3049.08
712.805	2977.41
712.993	2999.93
713.181	3032.7
713.368	2924.16
713.556	3219.07
713.744	2979.45
713.931	3124.86
714.119	3165.82
714.306	2956.93
714.494	2924.16
714.682	3022.46
714.869	2983.55
715.057	3106.43
715.244	3051.13
715.432	2989.69
715.619	2881.15
715.807	3040.89
715.994	2979.45
716.182	3028.6
716.369	3112.57
716.556	2993.79
716.744	3001.98
716.931	2905.73
717.119	3044.99
717.306	3079.8
717.493	2893.44
717.681	2971.26
717.868	3075.71
718.055	3028.6
718.242	2993.79
718.43	2979.45
718.617	2875.01
718.804	2793.09
718.991	2985.6
719.179	2973.31
719.366	2879.1
719.553	2961.02
719.74	2905.73
719.927	2928.25
720.114	2928.25
720.301	2971.26
720.488	2776.7
720.676	2928.25
720.863	2991.74
721.05	2997.88
721.237	2924.16
721.424	2915.97
721.611	2987.65
721.798	2913.92
721.985	2963.07
722.172	2895.49
722.358	3063.42
722.545	2891.39
722.732	2918.01
722.919	2936.45
723.106	2834.05
723.293	2793.09
723.48	3049.08
723.667	2832
723.853	2891.39
724.04	2870.91
724.227	2801.28
724.414	2848.38
724.6	2885.25
724.787	2842.24
724.974	2821.76
725.161	2866.81
725.347	2848.38
725.534	2905.73
725.72	2813.57
725.907	2872.96
726.094	2918.01
726.28	2952.83
726.467	2958.97
726.653	2938.49
726.84	2834.05
727.027	2985.6
727.213	2893.44
727.4	2971.26
727.586	2891.39
727.773	2946.69
727.959	2856.58
728.145	2913.92
728.332	2920.06
728.518	2883.2
728.705	2891.39
728.891	2926.21
729.077	2938.49
729.264	2973.31
729.45	2907.77
729.636	2979.45
729.823	3028.6
730.009	3026.56
730.195	2928.25
730.382	2920.06
730.568	2950.78
730.754	3001.98
730.94	2965.12
731.126	2981.5
731.313	3053.18
731.499	2963.07
731.685	2932.35
731.871	2883.2
732.057	3006.08
732.243	2965.12
732.429	2858.62
732.615	2887.29
732.801	2848.38
732.987	2875.01
733.173	2848.38
733.359	2958.97
733.545	2922.11
733.731	2899.58
733.917	2928.25
734.103	2997.88
734.289	2915.97
734.475	2803.33
734.661	2715.27
734.847	2866.81
735.033	2891.39
735.219	3047.04
735.404	2737.79
735.59	2684.55
735.776	3018.36
735.962	2944.64
736.148	2877.05
736.333	2844.29
736.519	2788.99
736.705	2836.1
736.89	2887.29
737.076	2877.05
737.262	2795.14
737.447	2807.42
737.633	2791.04
737.819	2778.75
738.004	2723.46
738.19	2842.24
738.375	2801.28
738.561	2866.81
738.747	2799.23
738.932	2756.22
739.118	2797.18
739.303	2739.84
739.489	2836.1
739.674	2766.46
739.859	2698.88
740.045	2643.59
740.23	2807.42
740.416	2672.26
740.601	2817.66
740.786	2698.88
740.972	2733.7
741.157	2641.54
741.342	2735.74
741.528	2743.94
741.713	2786.94
741.898	2645.63
742.084	2678.4
742.269	2631.3
742.454	2733.7
742.639	2731.65
742.824	2676.35
743.01	2645.63
743.195	2721.41
743.38	2557.57
743.565	2635.39
743.75	2707.07
743.935	2625.15
744.12	2612.87
744.305	2563.72
744.49	2631.3
744.675	2555.52
744.86	2565.76
745.045	2489.99
745.23	2555.52
745.415	2444.93
745.6	2557.57
745.785	2393.73
745.97	2670.21
746.155	2420.36
746.34	2502.28
746.525	2408.07
746.71	2461.32
746.895	2449.03
747.079	2424.45
747.264	2420.36
747.449	2418.31
747.634	2315.91
747.819	2416.26
748.003	2342.53
748.188	2348.68
748.373	2379.4
748.557	2348.68
748.742	2254.47
748.927	2332.3
749.111	2262.66
749.296	2260.62
749.481	2260.62
749.665	2217.61
749.85	2178.7
750.034	2143.88
750.219	2174.6
750.404	2199.18
750.588	2125.45
750.773	2070.16
750.957	2193.03
751.141	2145.93
751.326	2158.22
751.51	2064.01
751.695	1998.48
751.879	2047.63
752.064	2008.72
752.248	1996.43
752.432	1959.56
752.617	1973.9
752.801	2059.92
752.985	2068.11
753.17	1945.23
753.354	1996.43
753.538	2018.96
753.722	1957.52
753.907	1916.56
754.091	1822.35
754.275	1853.07
754.459	1896.08
754.643	1859.21
754.828	1900.17
755.012	1740.43
755.196	1754.77
755.38	1734.29
755.564	1765.01
755.748	1754.77
755.932	1889.93
756.116	1758.86
756.3	1812.11
756.484	1693.33
756.668	1695.38
756.852	1717.9
757.036	1631.89
757.22	1633.94
757.404	1631.89
757.588	1627.79
757.772	1695.38
757.956	1773.2
758.14	1775.25
758.323	1693.33
758.507	1599.12
758.691	1656.47
758.875	1607.31
759.059	1603.22
759.242	1527.44
759.426	1488.53
759.61	1488.53
759.794	1617.55
759.977	1492.63
760.161	1545.88
760.345	1549.97
760.528	1549.97
760.712	1466
760.895	1547.92
761.079	1484.44
761.263	1498.77
761.446	1527.44
761.63	1361.56
761.813	1513.11
761.997	1402.52
762.18	1486.48
762.364	1447.57
762.547	1472.15
762.731	1390.23
762.914	1443.48
763.098	1326.74
763.281	1326.74
763.464	1386.13
763.648	1355.41
763.831	1363.61
764.015	1339.03
764.198	1341.08
764.381	1365.65
764.564	1355.41
764.748	1336.98
764.931	1365.65
765.114	1302.17
765.297	1377.94
765.481	1330.84
765.664	1308.31
765.847	1359.51
766.03	1304.21
766.213	1232.54
766.397	1326.74
766.58	1308.31
766.763	1312.41
766.946	1226.39
767.129	1281.69
767.312	1349.27
767.495	1148.57
767.678	1210.01
767.861	1236.63
768.044	1310.36
768.227	1160.86
768.41	1234.58
768.593	1156.76
768.776	1228.44
768.959	1132.19
769.142	1210.01
769.324	1156.76
769.507	1164.95
769.69	1115.8
769.873	1136.28
770.056	1164.95
770.239	1175.19
770.421	1173.14
770.604	1148.57
770.787	1134.23
770.97	1052.31
771.152	1058.46
771.335	1035.93
771.518	1080.99
771.7	1009.31
771.883	1126.04
772.066	1148.57
772.248	1128.09
772.431	1013.4
772.613	1123.99
772.796	1089.18
772.978	1187.48
773.161	1025.69
773.343	966.3
773.526	958.11
773.708	1054.36
773.891	1111.71
774.073	1074.84
774.256	1064.6
774.438	984.73
774.621	1072.79
774.803	1001.12
774.985	1052.31
775.168	908.96
775.35	908.96
775.532	988.83
775.715	964.25
775.897	960.16
776.079	917.15
776.261	929.44
776.444	911
776.626	917.15
776.808	894.62
776.99	872.09
777.173	915.1
777.355	911
777.537	978.59
777.719	845.47
777.901	900.76
778.083	779.93
778.265	855.71
778.447	868
778.629	761.5
778.811	779.93
778.993	720.54
779.175	794.27
779.357	855.71
779.539	790.17
779.721	806.56
779.903	792.22
780.085	784.03
780.267	755.36
780.449	827.04
780.631	810.65
780.812	738.98
780.994	734.88
781.176	728.74
781.358	710.3
781.54	753.31
781.721	786.08
781.903	720.54
782.085	765.6
782.267	745.12
782.448	734.88
782.63	716.45
782.812	765.6
782.993	734.88
783.175	675.49
783.357	642.72
783.538	673.44
783.72	638.62
783.901	708.26
784.083	628.39
784.264	638.62
784.446	605.86
784.627	593.57
784.809	673.44
784.99	562.85
785.172	593.57
785.353	616.1
785.535	603.81
785.716	650.91
785.897	546.47
786.079	583.33
786.26	558.75
786.441	523.94
786.623	554.66
786.804	630.43
786.985	548.51
787.167	579.23
787.348	515.75
787.529	593.57
787.71	560.8
787.891	505.51
788.073	505.51
788.254	536.23
788.435	573.09
788.616	489.12
788.797	458.4
788.978	474.79
789.159	487.08
789.34	566.95
789.522	491.17
789.703	497.32
789.884	452.26
790.065	507.55
790.246	499.36
790.427	462.5
790.607	491.17
790.788	573.09
790.969	480.93
791.15	448.16
791.331	444.07
791.512	403.11
791.693	468.64
791.874	523.94
792.054	456.36
792.235	482.98
792.416	425.64
792.597	456.36
792.778	396.96
792.958	464.55
793.139	425.64
793.32	466.6
793.5	423.59
793.681	374.44
793.862	409.25
794.042	409.25
794.223	392.87
794.404	427.68
794.584	401.06
794.765	425.64
794.945	372.39
795.126	431.78
795.306	415.4
795.487	343.72
795.667	384.68
795.848	368.29
796.028	304.81
796.209	429.73
796.389	425.64
796.57	278.18
796.75	368.29
796.93	378.53
797.111	224.94
797.291	382.63
797.471	351.91
797.652	261.8
797.832	329.38
798.012	378.53
798.192	269.99
798.373	339.62
798.553	392.87
798.733	372.39
798.913	358.05
799.093	331.43
799.274	321.19
799.454	341.67
799.634	394.92
799.814	341.67
799.994	401.06
800.174	442.02
800.354	351.91
800.534	288.42
800.714	274.09
800.894	251.56
801.074	331.43
801.254	335.53
801.434	306.85
801.614	284.33
801.794	300.71
801.974	704.16
802.154	220.84
802.334	243.37
802.514	255.65
802.693	329.38
802.873	267.94
803.053	282.28
803.233	308.9
803.413	368.29
803.592	339.62
803.772	204.46
803.952	278.18
804.131	269.99
804.311	278.18
804.491	269.99
804.67	286.37
804.85	265.89
805.03	296.61
805.209	317.09
805.389	304.81
805.568	171.69
805.748	233.13
805.928	325.29
806.107	288.42
806.287	306.85
806.466	269.99
806.646	251.56
806.825	286.37
807.004	224.94
807.184	290.47
807.363	286.37
807.543	259.75
807.722	298.66
807.901	188.07
808.081	235.18
808.26	247.46
808.439	175.78
808.619	272.04
808.798	226.98
808.977	222.89
809.156	231.08
809.336	229.03
809.515	272.04
809.694	128.68
809.873	296.61
810.052	222.89
810.231	241.32
810.411	241.32
810.59	272.04
810.769	337.57
810.948	278.18
811.127	179.88
811.306	249.51
811.485	202.41
811.664	237.22
811.843	208.55
812.022	241.32
812.201	163.5
812.38	235.18
812.559	231.08
812.737	155.3
812.916	274.09
813.095	181.93
813.274	179.88
813.453	181.93
813.632	202.41
813.811	173.74
813.989	202.41
814.168	200.36
814.347	218.79
814.526	202.41
814.704	194.22
814.883	188.07
815.062	192.17
815.24	171.69
815.419	216.74
815.598	179.88
815.776	130.73
815.955	145.06
816.133	126.63
816.312	132.78
816.49	153.26
816.669	173.74
816.847	265.89
817.026	263.85
817.204	161.45
817.383	261.8
817.561	155.3
817.74	181.93
817.918	249.51
818.097	212.65
818.275	190.12
818.453	208.55
818.632	130.73
818.81	116.39
818.988	216.74
819.167	183.98
819.345	194.22
819.523	161.45
819.701	179.88
819.879	200.36
820.058	120.49
820.236	147.11
820.414	229.03
820.592	165.54
820.77	97.96
820.948	122.54
821.127	126.63
821.305	183.98
821.483	79.53
821.661	138.92
821.839	200.36
822.017	124.58
822.195	140.97
822.373	138.92
822.551	85.67
822.729	206.5
822.907	100.01
823.085	89.77
823.262	87.72
823.44	202.41
823.618	100.01
823.796	194.22
823.974	177.83
824.152	143.02
824.329	97.96
824.507	194.22
824.685	175.78
824.863	210.6
825.04	89.77
825.218	130.73
825.396	97.96
825.574	110.25
825.751	100.01
825.929	155.3
826.107	147.11
826.284	175.78
826.462	65.19
826.639	110.25
826.817	108.2
826.994	149.16
827.172	77.48
827.349	159.4
827.527	143.02
827.704	83.63
827.882	116.39
828.059	143.02
828.237	95.91
828.414	97.96
828.591	44.71
828.769	11.95
828.946	151.21
829.124	128.68
829.301	134.82
829.478	126.63
829.655	159.4
829.833	204.46
830.01	126.63
830.187	122.54
830.364	122.54
830.542	81.58
830.719	67.24
830.896	118.44
831.073	89.77
831.25	59.05
831.427	136.87
831.604	106.15
831.782	106.15
831.959	30.38
832.136	89.77
832.313	57
832.49	122.54
832.667	208.55
832.844	50.86
833.021	38.57
833.198	136.87
833.374	112.3
833.551	110.25
833.728	69.29
833.905	114.34
834.082	48.81
834.259	-8.53
834.436	138.92
834.612	102.06
834.789	136.87
834.966	73.39
835.143	132.78
835.319	54.95
835.496	157.35
835.673	57
835.85	100.01
836.026	161.45
836.203	149.16
836.38	126.63
836.556	93.87
836.733	22.19
836.909	157.35
837.086	95.91
837.262	57
837.439	32.43
837.616	71.34
837.792	89.77
837.968	104.11
838.145	65.19
838.321	89.77
838.498	61.1
838.674	118.44
838.851	91.82
839.027	48.81
839.203	24.23
839.38	175.78
839.556	61.1
839.732	130.73
839.909	28.33
840.085	106.15
840.261	79.53
840.437	79.53
840.614	140.97
840.79	52.91
840.966	30.38
841.142	69.29
841.318	67.24
841.494	106.15
841.671	54.95
841.847	61.1
842.023	50.86
842.199	159.4
842.375	32.43
842.551	24.23
842.727	-12.63
842.903	65.19
843.079	61.1
843.255	59.05
843.431	120.49
843.607	167.59
843.783	9.9
843.959	75.43
844.134	54.95
844.31	63.15
844.486	83.63
844.662	1.71
844.838	114.34
845.013	71.34
845.189	30.38
845.365	102.06
845.541	63.15
845.716	65.19
845.892	13.99
846.068	-14.68
846.244	-33.11
846.419	79.53
846.595	16.04
846.77	26.28
846.946	11.95
847.122	73.39
847.297	61.1
847.473	65.19
847.648	67.24
847.824	134.82
847.999	24.23
848.175	11.95
848.35	57
848.526	36.52
848.701	91.82
848.876	5.8
849.052	69.29
849.227	79.53
849.403	110.25
849.578	87.72
849.753	104.11
849.929	77.48
850.104	18.09
850.279	110.25
850.454	87.72
850.63	54.95
850.805	24.23
850.98	59.05
851.155	3.75
851.33	50.86
851.505	22.19
851.681	124.58
851.856	11.95
852.031	5.8
852.206	46.76
852.381	59.05
852.556	114.34
852.731	89.77
852.906	9.9
853.081	-4.44
853.256	73.39
853.431	9.9
853.606	46.76
853.781	73.39
853.956	-31.06
854.131	102.06
854.305	59.05
854.48	-0.34
854.655	38.57
854.83	63.15
855.005	7.85
855.18	36.52
855.354	1.71
855.529	40.62
855.704	50.86
855.879	85.67
856.053	24.23
856.228	-2.39
856.403	63.15
856.577	50.86
856.752	-6.49
856.926	24.23
857.101	38.57
857.276	-78.16
857.45	-4.44
857.625	61.1
857.799	32.43
857.974	40.62
858.148	63.15
858.323	54.95
858.497	-2.39
858.672	38.57
858.846	3.75
859.02	32.43
859.195	-37.2
859.369	28.33
859.543	38.57
859.718	63.15
859.892	18.09
860.066	22.19
860.241	24.23
860.415	54.95
860.589	-31.06
860.763	24.23
860.938	3.75
861.112	28.33
861.286	44.71
861.46	61.1
861.634	-18.77
861.808	38.57
861.982	61.1
862.157	7.85
862.331	-45.4
862.505	-10.58
862.679	-10.58
862.853	73.39
863.027	26.28
863.201	59.05
863.375	3.75
863.549	63.15
863.722	61.1
863.896	79.53
864.07	50.86
864.244	-0.34
864.418	75.43
864.592	1.71
864.766	13.99
864.939	83.63
865.113	-24.92
865.287	26.28
865.461	3.75
865.634	-8.53
865.808	-39.25
865.982	42.67
866.156	-14.68
866.329	38.57
866.503	-8.53
866.676	1.71
866.85	-4.44
867.024	52.91
867.197	108.2
867.371	46.76
867.544	-49.49
867.718	-41.3
867.891	54.95
868.065	-6.49
868.238	11.95
868.412	9.9
868.585	-41.3
868.759	24.23
868.932	57
869.105	34.47
869.279	9.9
869.452	30.38
869.625	-49.49
869.799	28.33
869.972	-4.44
870.145	11.95
870.319	22.19
870.492	65.19
870.665	9.9
870.838	13.99
871.011	3.75
871.185	-53.59
871.358	22.19
871.531	7.85
871.704	52.91
871.877	73.39
872.05	1.71
872.223	75.43
872.396	61.1
872.569	-57.68
872.742	-14.68
872.915	63.15
873.088	28.33
873.261	-14.68
873.434	18.09
873.607	-4.44
873.78	32.43
873.953	-41.3
874.126	-18.77
874.299	81.58
874.471	28.33
874.644	24.23
874.817	32.43
874.99	52.91
875.163	-12.63
875.335	42.67
875.508	-12.63
875.681	77.48
875.853	-24.92
876.026	34.47
876.199	-0.34
876.371	-59.73
876.544	20.14
876.717	61.1
876.889	-6.49
877.062	36.52
877.234	26.28
877.407	24.23
877.579	-53.59
877.752	48.81
877.924	20.14
878.097	-22.87
878.269	57
878.442	-24.92
878.614	38.57
878.786	24.23
878.959	7.85
879.131	57
879.303	-24.92
879.476	28.33
879.648	73.39
879.82	-55.64
879.993	-33.11
880.165	102.06
880.337	-12.63
880.509	75.43
880.681	-92.5
880.854	34.47
881.026	48.81
881.198	32.43
881.37	-16.73
881.542	52.91
881.714	16.04
881.886	-10.58
882.058	24.23
882.23	40.62
882.402	-0.34
882.574	-69.97
882.746	36.52
882.918	-12.63
883.09	95.91
883.262	46.76
883.434	22.19
883.606	-6.49
883.778	-18.77
883.95	-0.34
884.122	79.53
884.293	-8.53
884.465	26.28
884.637	69.29
884.809	20.14
884.98	42.67
885.152	-8.53
885.324	46.76
885.496	-16.73
885.667	-55.64
885.839	20.14
886.011	34.47
886.182	-16.73
886.354	-14.68
886.525	54.95
886.697	-10.58
886.869	59.05
887.04	28.33
887.212	46.76
887.383	63.15
887.555	73.39
887.726	46.76
887.897	7.85
888.069	9.9
888.24	34.47
888.412	73.39
888.583	5.8
888.754	28.33
888.926	-51.54
889.097	-26.96
889.268	9.9
889.44	-18.77
889.611	-0.34
889.782	-41.3
889.953	-8.53
890.125	-14.68
890.296	-14.68
890.467	-6.49
890.638	5.8
890.809	-4.44
890.98	-45.4
891.151	-14.68
891.323	44.71
891.494	-8.53
891.665	-22.87
891.836	22.19
892.007	54.95
892.178	77.48
892.349	-61.78
892.52	42.67
892.691	-20.82
892.862	52.91
893.032	-14.68
893.203	16.04
893.374	40.62
893.545	-37.2
893.716	5.8
893.887	-35.16
894.057	-57.68
894.228	26.28
894.399	-8.53
894.57	59.05
894.74	-39.25
894.911	-47.44
895.082	-39.25
895.253	32.43
895.423	-12.63
895.594	26.28
895.764	52.91
895.935	18.09
896.106	11.95
896.276	38.57
896.447	81.58
896.617	20.14
896.788	24.23
896.958	1.71
897.129	-33.11
897.299	-37.2
897.47	-37.2
897.64	-35.16
897.81	-18.77
897.981	87.72
898.151	-14.68
898.322	48.81
898.492	3.75
898.662	-20.82
898.832	26.28
899.003	1.71
899.173	16.04
899.343	44.71
899.513	-10.58
