Data from USB4F104151__36__11-44-56-631.txt Node

Date: Fri Mar 14 11:44:56 EDT 2025
User: louis
Spectrometer: USB4F10415
Trigger mode: 4
Integration Time (sec): 2.000000E-2
Scans to average: 1
Electric dark correction enabled: true
Nonlinearity correction enabled: false
Boxcar width: 0
XAxis mode: Wavelengths
Number of Pixels in Spectrum: 3648
>>>>>Begin Spectral Data<<<<<
178.204	-120.66
178.424	-120.66
178.644	-120.66
178.864	-124.76
179.084	-46.93
179.304	-8.02
179.524	-14.17
179.744	-3.93
179.964	-48.98
180.184	22.7
180.404	-28.5
180.624	-14.17
180.844	34.99
181.064	-16.21
181.283	-8.02
181.503	84.14
181.723	0.17
181.943	-40.79
182.163	24.75
182.383	-34.64
182.602	77.99
182.822	84.14
183.042	16.55
183.262	59.56
183.482	14.51
183.701	14.51
183.921	69.8
184.141	67.75
184.361	28.84
184.58	-42.84
184.8	65.71
185.02	32.94
185.239	-44.88
185.459	22.7
185.679	92.33
185.898	-26.45
186.118	-51.03
186.338	6.31
186.557	28.84
186.777	84.14
186.997	28.84
187.216	57.51
187.436	-30.55
187.655	47.27
187.875	32.94
188.095	-51.03
188.314	6.31
188.534	-26.45
188.753	98.47
188.973	32.94
189.192	16.55
189.412	-40.79
189.631	24.75
189.851	2.22
190.07	-24.4
190.29	34.99
190.509	61.61
190.729	-36.69
190.948	98.47
191.168	63.66
191.387	-14.17
191.607	-34.64
191.826	90.28
192.045	14.51
192.265	16.55
192.484	20.65
192.704	6.31
192.923	-1.88
193.142	73.9
193.362	63.66
193.581	53.42
193.8	32.94
194.02	-8.02
194.239	28.84
194.458	18.6
194.678	0.17
194.897	51.37
195.116	73.9
195.335	71.85
195.555	0.17
195.774	22.7
195.993	-1.88
196.212	57.51
196.432	80.04
196.651	57.51
196.87	41.13
197.089	69.8
197.308	-30.55
197.528	-8.02
197.747	39.08
197.966	-8.02
198.185	53.42
198.404	47.27
198.623	-44.88
198.842	43.18
199.062	59.56
199.281	143.53
199.5	37.03
199.719	-1.88
199.938	71.85
200.157	16.55
200.376	94.38
200.595	24.75
200.814	10.41
201.033	45.23
201.252	37.03
201.471	61.61
201.69	98.47
201.909	-5.97
202.128	59.56
202.347	41.13
202.566	18.6
202.785	-1.88
203.004	-28.5
203.223	28.84
203.442	59.56
203.661	88.23
203.879	45.23
204.098	65.71
204.317	51.37
204.536	39.08
204.755	61.61
204.974	53.42
205.193	49.32
205.411	41.13
205.63	28.84
205.849	16.55
206.068	24.75
206.287	59.56
206.505	24.75
206.724	6.31
206.943	45.23
207.162	-8.02
207.381	37.03
207.599	16.55
207.818	14.51
208.037	53.42
208.255	4.27
208.474	-3.93
208.693	-26.45
208.911	57.51
209.13	57.51
209.349	30.89
209.567	6.31
209.786	63.66
210.005	65.71
210.223	32.94
210.442	-24.4
210.661	6.31
210.879	12.46
211.098	-1.88
211.316	6.31
211.535	16.55
211.753	41.13
211.972	24.75
212.191	84.14
212.409	-12.12
212.628	-8.02
212.846	16.55
213.065	-1.88
213.283	45.23
213.502	55.47
213.72	-12.12
213.938	30.89
214.157	39.08
214.375	12.46
214.594	-12.12
214.812	51.37
215.031	2.22
215.249	69.8
215.467	6.31
215.686	30.89
215.904	16.55
216.122	37.03
216.341	39.08
216.559	49.32
216.778	30.89
216.996	24.75
217.214	-18.26
217.432	-3.93
217.651	8.36
217.869	100.52
218.087	-32.6
218.306	-42.84
218.524	69.8
218.742	18.6
218.96	-12.12
219.179	-26.45
219.397	-12.12
219.615	61.61
219.833	45.23
220.051	-34.64
220.27	65.71
220.488	61.61
220.706	-12.12
220.924	51.37
221.142	57.51
221.36	-12.12
221.578	28.84
221.796	10.41
222.015	84.14
222.233	30.89
222.451	20.65
222.669	4.27
222.887	88.23
223.105	39.08
223.323	32.94
223.541	28.84
223.759	37.03
223.977	75.95
224.195	-1.88
224.413	88.23
224.631	69.8
224.849	47.27
225.067	14.51
225.285	30.89
225.503	34.99
225.721	45.23
225.939	-36.69
226.157	-1.88
226.375	86.19
226.592	26.79
226.81	20.65
227.028	102.57
227.246	34.99
227.464	-26.45
227.682	73.9
227.9	-26.45
228.117	10.41
228.335	41.13
228.553	41.13
228.771	45.23
228.989	32.94
229.206	34.99
229.424	32.94
229.642	30.89
229.86	34.99
230.077	-40.79
230.295	32.94
230.513	112.81
230.731	84.14
230.948	-14.17
231.166	61.61
231.384	28.84
231.601	26.79
231.819	88.23
232.037	-12.12
232.254	20.65
232.472	0.17
232.689	55.47
232.907	75.95
233.125	4.27
233.342	39.08
233.56	12.46
233.777	39.08
233.995	30.89
234.213	77.99
234.43	43.18
234.648	10.41
234.865	63.66
235.083	45.23
235.3	28.84
235.518	-20.31
235.735	84.14
235.953	45.23
236.17	34.99
236.388	32.94
236.605	20.65
236.822	34.99
237.04	86.19
237.257	24.75
237.475	6.31
237.692	100.52
237.909	-5.97
238.127	28.84
238.344	47.27
238.562	41.13
238.779	-28.5
238.996	6.31
239.214	69.8
239.431	37.03
239.648	98.47
239.865	24.75
240.083	-16.21
240.3	114.86
240.517	12.46
240.735	-8.02
240.952	14.51
241.169	55.47
241.386	8.36
241.603	-26.45
241.821	28.84
242.038	20.65
242.255	67.75
242.472	22.7
242.689	71.85
242.907	24.75
243.124	-16.21
243.341	59.56
243.558	0.17
243.775	47.27
243.992	-40.79
244.209	41.13
244.426	73.9
244.643	39.08
244.86	10.41
245.078	69.8
245.295	12.46
245.512	28.84
245.729	51.37
245.946	112.81
246.163	30.89
246.38	61.61
246.597	-42.84
246.814	28.84
247.031	73.9
247.248	88.23
247.464	45.23
247.681	-40.79
247.898	45.23
248.115	34.99
248.332	61.61
248.549	49.32
248.766	-10.07
248.983	63.66
249.2	65.71
249.417	39.08
249.633	2.22
249.85	34.99
250.067	73.9
250.284	30.89
250.501	2.22
250.717	14.51
250.934	28.84
251.151	37.03
251.368	-10.07
251.585	84.14
251.801	16.55
252.018	59.56
252.235	53.42
252.451	53.42
252.668	51.37
252.885	55.47
253.102	59.56
253.318	55.47
253.535	-38.74
253.752	-3.93
253.968	10.41
254.185	20.65
254.401	4.27
254.618	12.46
254.835	139.43
255.051	8.36
255.268	-1.88
255.484	12.46
255.701	51.37
255.917	47.27
256.134	10.41
256.351	37.03
256.567	39.08
256.784	61.61
257	16.55
257.217	-3.93
257.433	37.03
257.65	129.19
257.866	55.47
258.082	65.71
258.299	8.36
258.515	43.18
258.732	-16.21
258.948	67.75
259.165	61.61
259.381	8.36
259.597	73.9
259.814	41.13
260.03	12.46
260.246	125.1
260.463	16.55
260.679	112.81
260.895	-12.12
261.112	39.08
261.328	61.61
261.544	-10.07
261.761	53.42
261.977	45.23
262.193	61.61
262.409	65.71
262.626	2.22
262.842	43.18
263.058	18.6
263.274	57.51
263.49	34.99
263.707	129.19
263.923	-53.08
264.139	-28.5
264.355	45.23
264.571	71.85
264.787	57.51
265.004	41.13
265.22	-42.84
265.436	28.84
265.652	0.17
265.868	2.22
266.084	47.27
266.3	10.41
266.516	-20.31
266.732	-5.97
266.948	6.31
267.164	8.36
267.38	90.28
267.596	43.18
267.812	82.09
268.028	16.55
268.244	24.75
268.46	20.65
268.676	37.03
268.892	2.22
269.108	-3.93
269.324	51.37
269.54	-10.07
269.756	65.71
269.972	41.13
270.188	49.32
270.403	10.41
270.619	75.95
270.835	26.79
271.051	10.41
271.267	8.36
271.483	82.09
271.698	75.95
271.914	22.7
272.13	90.28
272.346	-16.21
272.562	57.51
272.777	106.67
272.993	133.29
273.209	75.95
273.425	32.94
273.64	63.66
273.856	127.14
274.072	-42.84
274.287	-3.93
274.503	-3.93
274.719	106.67
274.934	45.23
275.15	10.41
275.366	133.29
275.581	-5.97
275.797	59.56
276.012	-3.93
276.228	37.03
276.444	51.37
276.659	-8.02
276.875	-5.97
277.09	53.42
277.306	53.42
277.521	102.57
277.737	37.03
277.952	34.99
278.168	55.47
278.383	14.51
278.599	41.13
278.814	-12.12
279.03	6.31
279.245	71.85
279.461	2.22
279.676	69.8
279.892	45.23
280.107	-26.45
280.322	43.18
280.538	82.09
280.753	-14.17
280.969	98.47
281.184	-3.93
281.399	59.56
281.615	0.17
281.83	51.37
282.045	73.9
282.26	16.55
282.476	34.99
282.691	57.51
282.906	-59.22
283.122	30.89
283.337	12.46
283.552	53.42
283.767	0.17
283.983	77.99
284.198	-22.36
284.413	28.84
284.628	-40.79
284.843	32.94
285.058	45.23
285.274	-10.07
285.489	59.56
285.704	4.27
285.919	14.51
286.134	-12.12
286.349	39.08
286.564	8.36
286.779	57.51
286.995	16.55
287.21	-12.12
287.425	75.95
287.64	-10.07
287.855	-1.88
288.07	86.19
288.285	45.23
288.5	32.94
288.715	51.37
288.93	102.57
289.145	0.17
289.36	-16.21
289.575	-5.97
289.79	67.75
290.004	20.65
290.219	-12.12
290.434	114.86
290.649	51.37
290.864	-40.79
291.079	51.37
291.294	53.42
291.509	34.99
291.724	98.47
291.938	32.94
292.153	100.52
292.368	37.03
292.583	65.71
292.798	49.32
293.012	69.8
293.227	-14.17
293.442	18.6
293.657	77.99
293.871	32.94
294.086	32.94
294.301	71.85
294.516	65.71
294.73	20.65
294.945	67.75
295.16	55.47
295.374	65.71
295.589	47.27
295.804	34.99
296.018	69.8
296.233	51.37
296.447	-1.88
296.662	-20.31
296.877	39.08
297.091	30.89
297.306	0.17
297.52	34.99
297.735	49.32
297.949	61.61
298.164	63.66
298.378	41.13
298.593	49.32
298.807	20.65
299.022	47.27
299.236	-12.12
299.451	39.08
299.665	49.32
299.88	69.8
300.094	41.13
300.309	4.27
300.523	63.66
300.737	59.56
300.952	47.27
301.166	61.61
301.381	-5.97
301.595	86.19
301.809	-24.4
302.024	75.95
302.238	30.89
302.452	47.27
302.667	28.84
302.881	-16.21
303.095	69.8
303.309	20.65
303.524	-81.75
303.738	37.03
303.952	49.32
304.166	65.71
304.381	39.08
304.595	116.9
304.809	-46.93
305.023	49.32
305.237	20.65
305.452	75.95
305.666	43.18
305.88	47.27
306.094	67.75
306.308	20.65
306.522	-34.64
306.736	55.47
306.95	20.65
307.164	2.22
307.379	65.71
307.593	116.9
307.807	-40.79
308.021	53.42
308.235	49.32
308.449	55.47
308.663	90.28
308.877	24.75
309.091	20.65
309.305	55.47
309.519	-18.26
309.733	20.65
309.947	12.46
310.161	18.6
310.374	30.89
310.588	-12.12
310.802	37.03
311.016	75.95
311.23	59.56
311.444	65.71
311.658	43.18
311.872	92.33
312.085	24.75
312.299	34.99
312.513	82.09
312.727	69.8
312.941	47.27
313.154	45.23
313.368	20.65
313.582	-46.93
313.796	12.46
314.009	84.14
314.223	32.94
314.437	61.61
314.651	47.27
314.864	57.51
315.078	53.42
315.292	22.7
315.505	18.6
315.719	34.99
315.933	69.8
316.146	43.18
316.36	51.37
316.573	82.09
316.787	34.99
317.001	43.18
317.214	57.51
317.428	22.7
317.641	8.36
317.855	22.7
318.068	47.27
318.282	61.61
318.495	61.61
318.709	30.89
318.922	80.04
319.136	100.52
319.349	84.14
319.563	-30.55
319.776	-12.12
319.99	34.99
320.203	34.99
320.417	-26.45
320.63	102.57
320.843	77.99
321.057	84.14
321.27	86.19
321.483	61.61
321.697	59.56
321.91	-12.12
322.124	16.55
322.337	98.47
322.55	18.6
322.763	49.32
322.977	51.37
323.19	61.61
323.403	-18.26
323.617	30.89
323.83	39.08
324.043	10.41
324.256	28.84
324.469	22.7
324.683	55.47
324.896	114.86
325.109	4.27
325.322	-18.26
325.535	12.46
325.748	10.41
325.962	43.18
326.175	53.42
326.388	55.47
326.601	37.03
326.814	69.8
327.027	18.6
327.24	49.32
327.453	-51.03
327.666	67.75
327.879	22.7
328.092	82.09
328.305	-3.93
328.518	55.47
328.731	-22.36
328.944	34.99
329.157	-32.6
329.37	-3.93
329.583	47.27
329.796	69.8
330.009	24.75
330.222	65.71
330.435	65.71
330.648	57.51
330.861	45.23
331.073	-1.88
331.286	65.71
331.499	-10.07
331.712	16.55
331.925	28.84
332.138	71.85
332.35	98.47
332.563	-16.21
332.776	53.42
332.989	-12.12
333.202	71.85
333.414	20.65
333.627	51.37
333.84	8.36
334.053	-22.36
334.265	57.51
334.478	45.23
334.691	32.94
334.903	121
335.116	34.99
335.329	84.14
335.541	43.18
335.754	49.32
335.966	-22.36
336.179	6.31
336.392	28.84
336.604	59.56
336.817	53.42
337.029	28.84
337.242	63.66
337.454	98.47
337.667	-24.4
337.88	47.27
338.092	6.31
338.305	51.37
338.517	94.38
338.729	-5.97
338.942	10.41
339.154	26.79
339.367	24.75
339.579	43.18
339.792	4.27
340.004	75.95
340.217	37.03
340.429	-12.12
340.641	24.75
340.854	12.46
341.066	16.55
341.278	75.95
341.491	18.6
341.703	55.47
341.915	34.99
342.128	86.19
342.34	61.61
342.552	12.46
342.764	37.03
342.977	12.46
343.189	88.23
343.401	32.94
343.613	10.41
343.826	65.71
344.038	-28.5
344.25	22.7
344.462	45.23
344.674	41.13
344.886	55.47
345.099	39.08
345.311	14.51
345.523	69.8
345.735	55.47
345.947	14.51
346.159	26.79
346.371	53.42
346.583	100.52
346.795	55.47
347.007	49.32
347.219	43.18
347.431	16.55
347.643	47.27
347.855	110.76
348.067	28.84
348.279	-20.31
348.491	4.27
348.703	65.71
348.915	73.9
349.127	77.99
349.339	69.8
349.551	14.51
349.763	77.99
349.975	77.99
350.187	55.47
350.399	106.67
350.61	6.31
350.822	28.84
351.034	55.47
351.246	10.41
351.458	71.85
351.669	16.55
351.881	67.75
352.093	0.17
352.305	121
352.517	65.71
352.728	121
352.94	65.71
353.152	71.85
353.363	-1.88
353.575	118.95
353.787	4.27
353.999	94.38
354.21	32.94
354.422	26.79
354.633	-10.07
354.845	34.99
355.057	49.32
355.268	67.75
355.48	90.28
355.692	26.79
355.903	10.41
356.115	75.95
356.326	14.51
356.538	59.56
356.749	49.32
356.961	53.42
357.172	32.94
357.384	37.03
357.595	90.28
357.807	84.14
358.018	16.55
358.23	32.94
358.441	118.95
358.653	73.9
358.864	6.31
359.075	28.84
359.287	10.41
359.498	77.99
359.709	88.23
359.921	32.94
360.132	41.13
360.344	69.8
360.555	51.37
360.766	94.38
360.977	30.89
361.189	106.67
361.4	12.46
361.611	57.51
361.823	73.9
362.034	49.32
362.245	102.57
362.456	32.94
362.667	30.89
362.879	49.32
363.09	88.23
363.301	49.32
363.512	77.99
363.723	45.23
363.935	53.42
364.146	77.99
364.357	37.03
364.568	71.85
364.779	16.55
364.99	-61.27
365.201	106.67
365.412	24.75
365.623	-36.69
365.834	86.19
366.045	94.38
366.256	94.38
366.467	94.38
366.678	32.94
366.889	4.27
367.1	39.08
367.311	37.03
367.522	-36.69
367.733	26.79
367.944	77.99
368.155	63.66
368.366	73.9
368.577	12.46
368.788	61.61
368.999	96.43
369.209	100.52
369.42	75.95
369.631	67.75
369.842	20.65
370.053	6.31
370.264	92.33
370.474	57.51
370.685	104.62
370.896	-16.21
371.107	118.95
371.317	63.66
371.528	61.61
371.739	28.84
371.95	77.99
372.16	47.27
372.371	-44.88
372.582	32.94
372.792	86.19
373.003	88.23
373.214	39.08
373.424	45.23
373.635	6.31
373.846	73.9
374.056	86.19
374.267	57.51
374.477	16.55
374.688	-28.5
374.898	30.89
375.109	-5.97
375.319	77.99
375.53	30.89
375.74	63.66
375.951	88.23
376.161	45.23
376.372	127.14
376.582	34.99
376.793	55.47
377.003	80.04
377.214	67.75
377.424	43.18
377.635	53.42
377.845	73.9
378.055	133.29
378.266	84.14
378.476	41.13
378.686	143.53
378.897	16.55
379.107	28.84
379.317	75.95
379.528	71.85
379.738	108.71
379.948	67.75
380.158	6.31
380.369	37.03
380.579	106.67
380.789	-22.36
380.999	-48.98
381.21	16.55
381.42	106.67
381.63	47.27
381.84	18.6
382.05	55.47
382.261	67.75
382.471	18.6
382.681	47.27
382.891	96.43
383.101	108.71
383.311	63.66
383.521	69.8
383.731	4.27
383.941	73.9
384.151	8.36
384.361	-1.88
384.571	110.76
384.781	80.04
384.991	98.47
385.201	30.89
385.411	108.71
385.621	28.84
385.831	49.32
386.041	67.75
386.251	65.71
386.461	30.89
386.671	59.56
386.881	57.51
387.091	69.8
387.301	37.03
387.511	61.61
387.72	178.34
387.93	53.42
388.14	77.99
388.35	24.75
388.56	96.43
388.769	125.1
388.979	57.51
389.189	-12.12
389.399	4.27
389.609	63.66
389.818	84.14
390.028	108.71
390.238	168.1
390.447	47.27
390.657	49.32
390.867	86.19
391.076	59.56
391.286	84.14
391.496	53.42
391.705	2.22
391.915	67.75
392.125	67.75
392.334	20.65
392.544	-8.02
392.753	104.62
392.963	110.76
393.172	53.42
393.382	-14.17
393.591	123.05
393.801	61.61
394.01	32.94
394.22	88.23
394.429	125.1
394.639	51.37
394.848	102.57
395.058	153.77
395.267	131.24
395.477	24.75
395.686	116.9
395.895	94.38
396.105	108.71
396.314	86.19
396.524	96.43
396.733	51.37
396.942	116.9
397.152	84.14
397.361	110.76
397.57	94.38
397.78	94.38
397.989	106.67
398.198	59.56
398.407	112.81
398.617	86.19
398.826	104.62
399.035	49.32
399.244	127.14
399.453	90.28
399.663	47.27
399.872	84.14
400.081	30.89
400.29	114.86
400.499	41.13
400.708	80.04
400.917	80.04
401.127	86.19
401.336	118.95
401.545	108.71
401.754	139.43
401.963	200.87
402.172	114.86
402.381	110.76
402.59	159.91
402.799	121
403.008	92.33
403.217	114.86
403.426	86.19
403.635	61.61
403.844	114.86
404.053	106.67
404.262	161.96
404.471	180.39
404.68	139.43
404.888	147.62
405.097	135.34
405.306	90.28
405.515	170.15
405.724	121
405.933	147.62
406.142	141.48
406.35	161.96
406.559	250.02
406.768	168.1
406.977	137.38
407.185	215.21
407.394	178.34
407.603	211.11
407.812	141.48
408.02	254.12
408.229	168.1
408.438	172.2
408.646	217.26
408.855	221.35
409.064	243.88
409.272	243.88
409.481	301.22
409.69	200.87
409.898	293.03
410.107	290.98
410.315	274.6
410.524	282.79
410.733	354.47
410.941	295.08
411.15	403.62
411.358	377
411.567	370.85
411.775	336.04
411.984	340.13
412.192	424.1
412.401	329.89
412.609	446.63
412.818	424.1
413.026	444.58
413.234	471.2
413.443	438.44
413.651	436.39
413.86	501.92
414.068	567.46
414.276	565.41
414.485	475.3
414.693	585.89
414.901	682.14
415.11	686.24
415.318	628.9
415.526	684.19
415.734	712.86
415.943	780.45
416.151	766.11
416.359	751.78
416.567	692.38
416.776	745.63
416.984	815.26
417.192	893.09
417.4	913.56
417.608	839.84
417.817	831.65
418.025	893.09
418.233	987.29
418.441	1003.68
418.649	1063.07
418.857	1079.45
419.065	1073.31
419.273	1040.54
419.481	1134.75
419.689	1153.18
419.897	1259.67
420.105	1327.25
420.313	1413.27
420.521	1380.5
420.729	1382.55
420.937	1429.65
421.145	1396.89
421.353	1710.22
421.561	1798.29
421.769	1683.6
421.977	1777.81
422.185	1659.03
422.393	1765.52
422.601	2015.37
422.809	1962.12
423.017	1994.89
423.224	1929.36
423.432	2244.74
423.64	2091.15
423.848	2281.61
424.056	2359.43
424.263	2392.2
424.471	2359.43
424.679	2658.43
424.887	2693.25
425.094	2633.86
425.302	2797.7
425.51	2793.6
425.718	3008.64
425.925	2992.25
426.133	3012.73
426.341	3213.43
426.548	3373.18
426.756	3352.7
426.964	3414.13
427.171	3563.64
427.379	3682.42
427.586	3766.39
427.794	4010.09
428.001	4059.24
428.209	4251.75
428.417	4153.45
428.624	4499.56
428.832	4415.59
429.039	4419.69
429.247	4378.73
429.454	4964.45
429.662	5120.09
429.869	5001.31
430.076	5328.99
430.284	5148.76
430.491	5154.91
430.699	5521.49
430.906	5568.6
431.114	5720.15
431.321	5881.94
431.528	6051.92
431.736	6371.4
431.943	6709.32
432.15	6342.73
432.358	6576.2
432.565	6758.47
432.772	6844.48
432.979	7221.31
433.187	7276.6
433.394	7340.09
433.601	7829.56
433.808	8034.35
434.016	7700.53
434.223	8296.49
434.43	8634.41
434.637	8546.34
434.844	9066.53
435.052	9222.17
435.259	9107.49
435.466	9295.9
435.673	9142.3
435.88	9601.05
436.087	10127.38
436.294	10119.18
436.501	10180.62
436.708	10197.01
436.915	10749.96
437.122	10885.12
437.329	10991.62
437.537	11266.05
437.743	11571.19
437.95	11640.83
438.157	12050.42
438.364	12593.13
438.571	12517.36
438.778	12447.72
438.985	13701.08
439.192	13162.47
439.399	13555.68
439.606	13168.61
439.813	13963.22
440.02	14684.11
440.227	14630.86
440.433	14385.1
440.64	14852.04
440.847	15114.18
441.054	15214.53
441.261	16140.21
441.467	15996.85
441.674	16345.01
441.881	17022.89
442.088	16789.42
442.294	16721.84
442.501	17223.59
442.708	17739.68
442.914	18368.4
443.121	19212.17
443.328	18460.56
443.534	19593.09
443.741	19027.85
443.948	19089.29
444.154	20572.02
444.361	20176.76
444.568	20244.34
444.774	20453.23
444.981	20592.5
445.187	21286.76
445.394	22091.61
445.6	21673.82
445.807	24090.43
446.013	22935.37
446.22	23304.01
446.426	24131.39
446.633	24430.39
446.839	25175.85
447.046	24106.81
447.252	25579.3
447.459	25513.77
447.665	25591.59
447.871	26965.78
448.078	27866.88
448.284	26533.65
448.491	27215.63
448.697	28270.33
448.903	28903.15
449.11	28649.21
449.316	28262.14
449.522	29038.32
449.728	29478.63
449.935	29390.57
450.141	29683.43
450.347	30119.65
450.553	29476.58
450.76	30078.69
450.966	30834.39
451.172	30220
451.378	31471.31
451.584	30803.67
451.791	31354.57
451.997	30893.78
452.203	31604.42
452.409	31608.52
452.615	31790.79
452.821	30627.54
453.027	30443.23
453.233	31637.19
453.44	30813.91
453.646	30607.06
453.852	30799.57
454.058	31168.21
454.264	30562.01
454.47	31180.49
454.676	30095.07
454.882	31381.2
455.088	28788.47
455.294	29169.39
455.5	29703.91
455.705	29761.25
455.911	28555
456.117	27762.44
456.323	27549.45
456.529	26513.17
456.735	27531.01
456.941	26742.55
457.147	26318.62
457.352	25288.49
457.558	24960.81
457.764	25622.31
457.97	24751.92
458.176	24123.19
458.381	24485.69
458.587	23177.03
458.793	22945.61
458.999	21874.52
459.204	23242.57
459.41	22900.56
459.616	21421.92
459.821	21428.07
460.027	21231.46
460.233	20836.2
460.438	19621.76
460.644	19826.56
460.85	19050.38
461.055	18519.95
461.261	18925.45
461.466	17305.51
461.672	16924.58
461.878	17962.9
462.083	16910.25
462.289	16517.04
462.494	16392.11
462.7	15609.79
462.905	15286.21
463.111	15744.95
463.316	15923.13
463.522	15392.7
463.727	15400.9
463.932	15654.84
464.138	15155.14
464.343	15235.01
464.549	14925.77
464.754	15450.05
464.959	14958.53
465.165	14995.4
465.37	14389.2
465.575	14122.96
465.781	14698.44
465.986	14618.57
466.191	13959.13
466.397	14067.67
466.602	13271.01
466.807	13670.36
467.012	13567.96
467.218	13522.91
467.423	13404.13
467.628	13553.63
467.833	14381.01
468.038	13557.72
468.244	13228
468.449	13608.92
468.654	13184.99
468.859	13234.14
469.064	12947.43
469.269	12718.06
469.474	12648.43
469.679	13051.88
469.885	12576.75
470.09	12722.15
470.295	12492.78
470.5	12470.25
470.705	12390.38
470.91	12251.12
471.115	11978.74
471.32	12161.01
471.525	12029.94
471.73	11964.4
471.935	11898.87
472.139	11350.01
472.344	11702.26
472.549	11517.95
472.754	11409.4
472.959	11040.77
473.164	10625.03
473.369	10727.43
473.574	11268.09
473.778	11077.63
473.983	11104.26
474.188	10850.31
474.393	10448.91
474.598	10453
474.802	10244.11
475.007	10385.42
475.212	10326.03
475.417	10049.55
475.621	9926.68
475.826	9828.37
476.031	9922.58
476.235	9742.36
476.44	9748.5
476.645	9353.24
476.849	9404.44
477.054	9146.4
477.259	9187.36
477.463	9232.41
477.668	8917.03
477.872	9039.9
478.077	8837.16
478.282	8642.6
478.486	8671.27
478.691	8575.02
478.895	8476.71
479.1	8579.11
479.304	8532.01
479.509	8239.15
479.713	8577.06
479.918	8161.33
480.122	8179.76
480.326	8347.69
480.531	8378.41
480.735	7991.34
480.94	7931.95
481.144	8400.94
481.348	7893.04
481.553	8020.02
481.757	7860.27
481.961	7878.71
482.166	8083.5
482.37	8052.78
482.574	7807.03
482.778	7856.18
482.983	8042.54
483.187	7868.47
483.391	7981.1
483.595	7911.47
483.8	7847.99
484.004	7936.05
484.208	8083.5
484.412	7809.08
484.616	8020.02
484.821	7790.64
485.025	7960.63
485.229	7909.43
485.433	7991.34
485.637	7985.2
485.841	7718.96
486.045	7952.43
486.249	7790.64
486.453	7784.5
486.657	7852.08
486.861	7911.47
487.065	7669.81
487.269	7952.43
487.473	7761.97
487.677	7895.09
487.881	7854.13
488.085	7680.05
488.289	7819.32
488.493	7825.46
488.697	7929.91
488.901	7899.19
489.105	7925.81
489.309	7956.53
489.512	7981.1
489.716	8001.58
489.92	8089.65
490.124	7940.15
490.328	8351.79
490.531	7983.15
490.735	7909.43
490.939	8255.53
491.143	7985.2
491.346	8001.58
491.55	8167.47
491.754	8118.32
491.958	8376.36
492.161	8282.16
492.365	8333.36
492.569	8271.92
492.772	8210.48
492.976	8278.06
493.18	8419.37
493.383	8419.37
493.587	8718.37
493.79	8632.36
493.994	8466.47
494.197	8601.64
494.401	8697.89
494.605	8583.21
494.808	8888.36
495.012	8679.46
495.215	8939.55
495.419	8902.69
495.622	9017.38
495.825	9087.01
496.029	9187.36
496.232	9291.8
496.436	9197.6
496.639	9472.03
496.843	9455.64
497.046	9506.84
497.249	9644.06
497.453	9691.16
497.656	9873.43
497.859	9844.76
498.063	9932.82
498.266	10156.05
498.469	10227.73
498.673	10307.6
498.876	10291.21
499.079	10502.15
499.282	10293.26
499.485	10567.69
499.689	10803.21
499.892	10995.71
500.095	10893.32
500.298	11462.65
500.501	11249.66
500.705	11517.95
500.908	11507.71
501.111	11763.7
501.314	11560.95
501.517	11839.48
501.72	11847.67
501.923	12072.95
502.126	12437.48
502.329	12599.27
502.532	12546.03
502.735	12232.69
502.938	12726.25
503.141	12914.66
503.344	13041.64
503.547	12951.53
503.75	13166.56
503.953	13281.25
504.156	13574.11
504.359	13598.68
504.562	13623.26
504.765	13862.87
504.968	14092.24
505.17	14282.7
505.373	14360.53
505.576	14708.68
505.779	14757.83
505.982	14653.39
506.185	15034.31
506.387	15359.94
506.59	15245.25
506.793	15675.32
506.996	15562.69
507.198	16052.15
507.401	15980.47
507.604	16035.77
507.807	16388.02
508.009	16369.58
508.212	16709.55
508.415	16670.64
508.617	16920.49
508.82	16973.74
509.022	16900.01
509.225	17301.41
509.428	17678.24
509.63	17502.11
509.833	17780.64
510.035	18067.35
510.238	18294.68
510.44	18333.59
510.643	18657.17
510.845	18702.22
511.048	18501.52
511.25	19066.76
511.453	19185.54
511.655	19818.36
511.858	19447.68
512.06	19556.22
512.262	19892.09
512.465	19842.94
512.667	20219.77
512.87	20369.27
513.072	20682.61
513.274	20907.88
513.477	21084.01
513.679	21096.3
513.881	21565.28
514.084	21485.41
514.286	21575.52
514.488	21909.34
514.69	22460.24
514.893	22404.95
515.095	22431.57
515.297	23064.39
515.499	22749.01
515.701	22978.38
515.904	23230.28
516.106	23486.28
516.308	23699.27
516.51	24004.41
516.712	24172.35
516.914	24180.54
517.116	24555.32
517.318	24719.15
517.52	24706.87
517.722	24866.61
517.925	25347.88
518.127	25437.99
518.329	26171.16
518.531	25491.24
518.733	25866.02
518.935	26132.25
519.136	26033.95
519.338	26699.54
519.54	26795.79
519.742	27090.7
519.944	27412.23
520.146	27600.65
520.348	27842.31
520.55	28032.77
520.752	28049.15
520.954	28409.59
521.155	28337.91
521.357	28579.57
521.559	28804.85
521.761	29175.53
521.963	29257.45
522.164	29374.19
522.366	29511.4
522.568	29763.3
522.77	29912.8
522.971	30308.06
523.173	30011.1
523.375	30396.12
523.576	30461.66
523.778	30688.98
523.98	31008.47
524.181	31219.41
524.383	31366.86
524.584	31456.97
524.786	31399.63
524.988	31604.42
525.189	31844.04
525.391	32122.56
525.592	32138.94
525.794	32429.76
525.995	32095.94
526.197	32671.42
526.398	33091.25
526.6	32964.28
526.801	33105.59
527.003	33451.69
527.204	32972.47
527.406	33578.67
527.607	33265.33
527.808	33859.24
528.01	33314.48
528.211	33609.39
528.412	34014.88
528.614	34162.34
528.815	33836.71
529.016	34244.26
529.218	34338.46
529.419	34379.42
529.62	34449.05
529.822	34098.85
530.023	34530.97
530.224	34317.98
530.425	34621.08
530.626	34463.39
530.828	34668.19
531.029	34963.09
531.23	35147.41
531.431	34872.98
531.632	34791.06
531.833	34942.61
532.035	34965.14
532.236	34743.96
532.437	35522.19
532.638	35002
532.839	35241.62
533.04	35157.65
533.241	34909.85
533.442	35495.57
533.643	35417.74
533.844	35317.39
534.045	35665.55
534.246	35325.58
534.447	35708.55
534.648	35585.68
534.849	35581.58
535.05	35440.27
535.251	35473.04
535.451	35423.89
535.652	35397.26
535.853	35563.15
536.054	35585.68
536.255	35370.64
536.456	35180.18
536.657	35806.86
536.857	35628.68
537.058	35122.83
537.259	35389.07
537.46	35526.28
537.66	35384.97
537.861	35597.96
538.062	35309.2
538.263	35698.31
538.463	35626.64
538.664	35636.87
538.865	35292.82
539.065	35739.27
539.266	35292.82
539.466	36161.15
539.667	35350.16
539.868	35939.97
540.068	35350.16
540.269	35661.45
540.469	35503.76
540.67	35241.62
540.87	35301.01
541.071	35174.03
541.271	35622.54
541.472	35325.58
541.672	35305.1
541.873	35501.71
542.073	34965.14
542.274	35720.84
542.474	35284.62
542.675	35167.89
542.875	35561.1
543.075	35366.54
543.276	35131.03
543.476	35829.38
543.676	35268.24
543.877	35116.69
544.077	35315.34
544.277	35282.58
544.478	35286.67
544.678	35382.93
544.878	35280.53
545.078	35401.36
545.279	35157.65
545.479	34932.37
545.679	35313.3
545.879	34924.18
546.079	35403.41
546.28	35071.64
546.48	34971.29
546.68	35071.64
546.88	35456.65
547.08	35118.74
547.28	35137.17
547.48	34938.52
547.68	35032.72
547.88	34170.53
548.081	35255.95
548.281	35120.79
548.481	34543.26
548.681	35550.86
548.881	34832.02
549.081	34885.27
549.28	34539.16
549.48	35133.07
549.68	34762.39
549.88	35233.43
550.08	34827.93
550.28	35010.2
550.48	34639.51
550.68	34995.86
550.88	34711.19
551.08	35137.17
551.279	34987.67
551.479	34475.68
551.679	34817.69
551.879	34752.15
552.079	35063.44
552.278	34340.51
552.478	34762.39
552.678	34670.23
552.878	34868.89
553.077	34942.61
553.277	34557.6
553.477	35030.68
553.676	34621.08
553.876	34721.43
554.076	34592.41
554.275	34776.73
554.475	34528.92
554.674	34383.52
554.874	34244.26
555.074	34461.34
555.273	34713.24
555.473	34332.32
555.672	34188.96
555.872	34281.12
556.071	34635.42
556.271	34410.14
556.47	34309.79
556.67	33904.29
556.869	34188.96
557.068	34444.96
557.268	33697.45
557.467	34047.65
557.667	33623.72
557.866	33695.4
558.065	33803.94
558.265	33676.97
558.464	33734.31
558.663	34090.66
558.863	33441.45
559.062	34080.42
559.261	33494.7
559.461	33978.02
559.66	33375.92
559.859	33437.36
560.058	33445.55
560.258	33314.48
560.457	33064.63
560.656	33599.15
560.855	33248.94
561.054	33076.91
561.253	33076.91
561.453	33562.28
561.652	33081.01
561.851	33083.06
562.05	32749.24
562.249	32530.11
562.448	33089.2
562.647	32954.04
562.846	33064.63
563.045	32652.98
563.244	32552.63
563.443	33191.6
563.642	32452.28
563.841	32849.59
564.04	32222.91
564.239	32401.08
564.438	32057.03
564.637	32489.15
564.836	32165.57
565.035	32159.42
565.234	31905.48
565.432	31973.06
565.631	31739.59
565.83	31688.39
566.029	31479.5
566.228	31958.72
566.427	31495.88
566.625	31262.41
566.824	31106.77
567.023	31710.92
567.222	30959.31
567.42	31680.2
567.619	31162.06
567.818	31168.21
568.016	31057.62
568.215	31127.25
568.414	30899.92
568.612	30983.89
568.811	30820.05
569.01	30783.19
569.208	30559.96
569.407	30662.36
569.605	30306.01
569.804	30983.89
570.002	30490.33
570.201	30613.21
570.4	30078.69
570.598	30308.06
570.797	30029.54
570.995	30050.02
571.193	29710.05
571.392	30203.61
571.59	29808.36
571.789	29947.62
571.987	29951.71
572.186	29439.72
572.384	29394.67
572.582	29775.59
572.781	29810.4
572.979	29212.4
573.177	29388.52
573.376	29458.15
573.574	28903.15
573.772	29222.64
573.971	29015.79
574.169	28747.51
574.367	28815.09
574.565	29122.29
574.763	28757.75
574.962	28587.77
575.16	28534.52
575.358	28362.49
575.556	28083.97
575.754	28522.23
575.952	28622.58
576.151	28088.06
576.349	27887.36
576.547	28030.72
576.745	27895.55
576.943	28237.56
577.141	28000
577.339	27983.62
577.537	27617.03
577.735	27475.72
577.933	27614.98
578.131	27477.77
578.329	27705.09
578.527	27154.19
578.725	27465.48
578.923	27320.07
579.121	27250.44
579.319	27213.58
579.516	27234.06
579.714	26896.14
579.912	27119.37
580.11	26937.1
580.308	26638.1
580.506	26666.77
580.704	26740.5
580.901	26801.94
581.099	26672.92
581.297	26666.77
581.495	26392.34
581.692	26441.5
581.89	26019.61
582.088	26593.04
582.285	26017.57
582.483	26435.35
582.681	26068.76
582.878	25712.42
583.076	25884.45
583.274	26199.83
583.471	25556.77
583.669	25597.73
583.866	25655.08
584.064	25722.66
584.262	25181.99
584.459	25677.6
584.657	25274.15
584.854	25708.32
585.052	24971.05
585.249	25218.86
585.447	25268.01
585.644	25165.61
585.841	24792.88
586.039	25241.39
586.236	24958.77
586.434	24713.01
586.631	24616.76
586.828	24528.69
587.026	24704.82
587.223	24706.87
587.42	24364.85
587.618	24391.48
587.815	24340.28
588.012	24078.14
588.21	23791.42
588.407	24135.48
588.604	23936.83
588.801	23981.88
588.999	23961.41
589.196	24145.72
589.393	23719.74
589.59	23605.06
589.787	23772.99
589.984	23560
590.182	23258.95
590.379	23320.39
590.576	23091.02
590.773	23564.1
590.97	23197.51
591.167	23598.91
591.364	22800.21
591.561	23179.08
591.758	22763.34
591.955	22908.75
592.152	23093.07
592.349	22507.35
592.546	22966.09
592.743	23017.29
592.94	22425.43
593.137	22441.81
593.334	22439.76
593.531	22331.22
593.727	22396.76
593.924	22421.33
594.121	22165.34
594.318	22626.13
594.515	22255.45
594.712	22183.77
594.908	22087.51
595.105	21878.62
595.302	21786.46
595.499	22017.88
595.696	21643.1
595.892	21534.56
596.089	21759.84
596.286	21520.23
596.482	21227.37
596.679	21366.63
596.876	21399.4
597.072	21460.84
597.269	21208.94
597.466	21096.3
597.662	21411.68
597.859	20907.88
598.055	21032.81
598.252	20809.58
598.448	20789.1
598.645	20891.5
598.841	20795.25
599.038	20801.39
599.234	20805.49
599.431	20408.18
599.627	20076.41
599.824	20537.2
600.02	20213.62
600.217	20150.14
600.413	19961.72
600.609	19908.47
600.806	19978.11
601.002	20428.66
601.198	19853.18
601.395	19998.59
601.591	19933.05
601.787	19750.78
601.984	19591.04
602.18	20227.96
602.376	19816.32
602.572	19634.05
602.769	19535.74
602.965	19509.12
603.161	19400.58
603.357	19126.15
603.553	19109.77
603.75	19238.79
603.946	19222.41
604.142	19156.87
604.338	19003.27
604.534	18972.55
604.73	18759.56
604.926	18800.52
605.122	18913.16
605.318	18997.13
605.514	18837.39
605.71	18616.21
605.906	18487.18
606.102	18548.62
606.298	18745.23
606.494	18435.99
606.69	18524.05
606.886	18417.55
607.082	18130.84
607.278	18378.64
607.474	18274.2
607.67	18266
607.866	17846.17
608.062	18460.56
608.257	18220.95
608.453	17790.88
608.649	17993.62
608.845	17854.36
609.041	18104.21
609.236	17930.14
609.432	17624.99
609.628	17645.47
609.824	17885.08
610.019	17780.64
610.215	17768.35
610.411	17807.26
610.606	17641.37
610.802	17745.82
610.998	17432.48
611.193	17629.09
611.389	17631.13
611.584	17260.45
611.78	17305.51
611.976	17317.79
612.171	17434.53
612.367	17393.57
612.562	17252.26
612.758	17133.48
612.953	17164.2
613.149	17268.64
613.344	16996.26
613.539	17018.79
613.735	17145.77
613.93	17248.16
614.126	16940.97
614.321	17092.52
614.517	16973.74
614.712	17059.75
614.907	16867.24
615.103	16768.94
615.298	16908.2
615.493	16930.73
615.688	16721.84
615.884	16977.83
616.079	16410.54
616.274	16666.54
616.47	16601.01
616.665	16596.91
616.86	16658.35
617.055	16623.53
617.25	16334.77
617.445	16732.08
617.641	16117.68
617.836	16453.55
618.031	16033.72
618.226	16258.99
618.421	16054.2
618.616	16207.8
618.811	15884.22
619.006	16068.53
619.201	15794.11
619.396	15589.31
619.591	15632.32
619.786	16023.48
619.981	15626.17
620.176	15923.13
620.371	15513.53
620.566	15808.44
620.761	15439.81
620.956	15546.3
621.151	15228.87
621.346	15480.77
621.541	15173.57
621.735	15486.91
621.93	14790.6
622.125	14936.01
622.32	14749.64
622.515	14907.34
622.709	14790.6
622.904	14786.51
623.099	14618.57
623.294	14559.18
623.488	14325.71
623.683	14813.13
623.878	14499.79
624.072	14223.31
624.267	14237.65
624.462	14063.57
624.656	14069.72
624.851	14032.85
625.046	13789.14
625.24	13977.56
625.435	13737.95
625.629	13819.86
625.824	13813.72
626.018	13537.24
626.213	13307.87
626.407	13500.38
626.602	13152.23
626.796	13266.91
626.991	13135.84
627.185	13164.51
627.38	12963.81
627.574	13119.46
627.768	12787.69
627.963	12935.14
628.157	12728.3
628.352	12842.98
628.546	12660.71
628.74	12578.79
628.935	12464.11
629.129	12453.87
629.323	12302.32
629.517	12232.69
629.712	12247.02
629.906	12363.76
630.1	11880.44
630.294	12089.33
630.489	12062.71
630.683	12118
630.877	11765.75
631.071	11888.63
631.265	11653.11
631.459	11679.74
631.653	11771.9
631.848	11628.54
632.042	11491.32
632.236	11665.4
632.43	11423.74
632.624	11454.46
632.818	11280.38
633.012	11126.78
633.206	11202.56
633.4	11231.23
633.594	10815.49
633.788	11165.7
633.982	11042.82
634.176	11055.11
634.369	10735.62
634.563	10704.9
634.757	10694.66
634.951	10784.77
635.145	10780.68
635.339	10608.65
635.533	10579.98
635.726	10377.23
635.92	10258.45
636.114	10479.63
636.308	10278.93
636.501	10260.49
636.695	10203.15
636.889	10229.77
637.083	10084.37
637.276	10082.32
637.47	10143.76
637.664	10029.07
637.857	9846.8
638.051	9875.48
638.244	9918.48
638.438	9623.58
638.632	9529.37
638.825	9611.29
639.019	9592.86
639.212	9488.41
639.406	9490.46
639.599	9441.31
639.793	9347.1
639.986	9238.56
640.18	9451.55
640.373	9224.22
640.567	9117.73
640.76	9127.97
640.954	9039.9
641.147	8982.56
641.34	9056.29
641.534	8941.6
641.727	8921.12
641.92	8986.66
642.114	8792.1
642.307	8740.9
642.5	8783.91
642.694	8624.17
642.887	8734.76
643.08	8624.17
643.273	8486.95
643.467	8472.62
643.66	8335.4
643.853	8435.75
644.046	8267.82
644.239	8501.29
644.432	8382.51
644.626	8214.57
644.819	8112.17
645.012	8146.99
645.205	7977.01
645.398	8054.83
645.591	7850.03
645.784	8138.8
645.977	8079.41
646.17	8003.63
646.363	7878.71
646.556	7792.69
646.749	7862.32
646.942	7794.74
647.135	7688.25
647.328	7569.46
647.521	7612.47
647.714	7575.61
647.907	7540.79
648.099	7518.26
648.292	7460.92
648.485	7241.79
648.678	7553.08
648.871	7317.56
649.064	7471.16
649.256	7172.16
649.449	7237.69
649.642	7221.31
649.835	7174.21
650.027	7061.57
650.22	7108.67
650.413	7139.39
650.605	7055.42
650.798	7028.8
650.991	7032.9
651.183	7022.66
651.376	6809.67
651.568	6998.08
651.761	6735.94
651.954	6737.99
652.146	6735.94
652.339	6830.15
652.531	6631.49
652.724	6711.36
652.916	6596.68
653.109	6565.96
653.301	6479.94
653.494	6514.76
653.686	6461.51
653.879	6305.87
654.071	6426.7
654.263	6404.17
654.456	6262.86
654.648	6180.94
654.84	6189.13
655.033	6226
655.225	6185.04
655.417	6203.47
655.61	6244.43
655.802	6170.7
655.994	6033.49
656.186	6058.06
656.379	5951.57
656.571	5972.05
656.763	5953.62
656.955	5992.53
657.148	5906.51
657.34	6023.25
657.532	5902.42
657.724	5863.51
657.916	5822.55
658.108	5734.48
658.3	5658.71
658.492	5552.21
658.684	5705.81
658.876	5685.33
659.068	5578.84
659.26	5507.16
659.452	5584.98
659.644	5591.13
659.836	5550.17
660.028	5480.54
660.22	5406.81
660.412	5367.9
660.604	5507.16
660.796	5417.05
660.988	5429.34
661.18	5355.61
661.372	5320.79
661.563	5326.94
661.755	5113.95
661.947	5146.72
662.139	5183.58
662.331	5206.11
662.522	5083.23
662.714	5009.5
662.906	5103.71
663.097	4974.69
663.289	5005.41
663.481	4984.93
663.673	4919.39
663.864	4864.1
664.056	4855.9
664.247	5003.36
664.439	4743.27
664.631	4860
664.822	4894.82
665.014	4816.99
665.205	4761.7
665.397	4735.07
665.588	4718.69
665.78	4538.47
665.971	4759.65
666.163	4679.78
666.354	4681.83
666.546	4622.44
666.737	4507.75
666.929	4616.29
667.12	4565.09
667.311	4552.81
667.503	4546.66
667.694	4499.56
667.885	4454.5
668.077	4446.31
668.268	4325.48
668.459	4311.14
668.651	4360.3
668.842	4368.49
669.033	4311.14
669.224	4126.83
669.416	4360.3
669.607	4292.71
669.798	4200.55
669.989	4288.62
670.18	4360.3
670.371	4216.94
670.563	4305
670.754	4225.13
670.945	4173.93
671.136	4141.16
671.327	4118.64
671.518	4178.03
671.709	4102.25
671.9	4147.31
672.091	4192.36
672.282	4055.15
672.473	4059.24
672.664	4028.53
672.855	3889.26
673.046	4053.1
673.237	4077.68
673.428	3891.31
673.619	4053.1
673.809	3928.17
674	3979.37
674.191	3958.89
674.382	3940.46
674.573	3862.64
674.764	3819.63
674.954	3881.07
675.145	3895.41
675.336	3829.87
675.527	3782.77
675.717	3678.32
675.908	3899.5
676.099	3844.21
676.289	3686.51
676.48	3745.91
676.671	3743.86
676.861	3706.99
677.052	3575.92
677.243	3684.47
677.433	3825.78
677.624	3717.23
677.814	3698.8
678.005	3655.79
678.195	3674.23
678.386	3698.8
678.576	3637.36
678.767	3543.16
678.957	3690.61
679.148	3698.8
679.338	3496.05
679.529	3573.88
679.719	3625.08
679.909	3637.36
680.1	3690.61
680.29	3577.97
680.481	3543.16
680.671	3594.36
680.861	3412.09
681.052	3430.52
681.242	3549.3
681.432	3469.43
681.622	3514.49
681.813	3547.25
682.003	3510.39
682.193	3334.26
682.383	3504.25
682.573	3518.58
682.764	3362.94
682.954	3326.07
683.144	3453.05
683.334	3448.95
683.524	3491.96
683.714	3256.44
683.904	3326.07
684.094	3348.6
684.284	3360.89
684.474	3387.51
684.664	3498.1
684.854	3319.93
685.044	3330.17
685.234	3410.04
685.424	3334.26
685.614	3315.83
685.804	3264.63
685.994	3295.35
686.184	3238.01
686.374	3371.13
686.564	3276.92
686.753	3321.98
686.943	3235.96
687.133	3244.15
687.323	3227.77
687.513	3182.71
687.702	3111.04
687.892	3149.95
688.082	3250.3
688.272	3197.05
688.461	3090.56
688.651	2963.58
688.841	3057.79
689.03	3063.93
689.22	2910.33
689.41	3047.55
689.599	2955.39
689.789	2990.21
689.979	3059.84
690.168	2975.87
690.358	2990.21
690.547	2947.2
690.737	3049.6
690.926	2773.12
691.116	2865.28
691.305	2918.53
691.495	2850.94
691.684	2789.5
691.874	2975.87
692.063	2928.77
692.252	2848.9
692.442	2783.36
692.631	2801.79
692.82	2793.6
693.01	2760.83
693.199	2766.98
693.388	2683.01
693.578	2652.29
693.767	2773.12
693.956	2711.68
694.146	2748.54
694.335	2771.07
694.524	2560.13
694.713	2695.3
694.902	2750.59
695.092	2652.29
695.281	2646.15
695.47	2597
695.659	2607.23
695.848	2617.47
696.037	2633.86
696.226	2592.9
696.415	2515.08
696.604	2609.28
696.793	2490.5
696.982	2680.96
697.171	2564.23
697.36	2637.95
697.549	2336.9
697.738	2470.02
697.927	2465.93
698.116	2521.22
698.305	2367.62
698.494	2377.86
698.683	2553.99
698.872	2531.46
699.061	2392.2
699.25	2539.65
699.438	2433.16
699.627	2371.72
699.816	2484.36
700.005	2568.32
700.193	2451.59
700.382	2482.31
700.571	2517.12
700.76	2531.46
700.948	2431.11
701.137	2396.29
701.326	2394.25
701.514	2451.59
701.703	2443.4
701.892	2392.2
702.08	2371.72
702.269	2500.74
702.457	2379.91
702.646	2431.11
702.834	2424.97
703.023	2363.53
703.212	2420.87
703.4	2457.73
703.589	2433.16
703.777	2402.44
703.965	2482.31
704.154	2453.64
704.342	2408.58
704.531	2345.09
704.719	2297.99
704.907	2424.97
705.096	2269.32
705.284	2422.92
705.472	2384.01
705.661	2443.4
705.849	2379.91
706.037	2357.38
706.226	2373.77
706.414	2367.62
706.602	2349.19
706.79	2400.39
706.979	2291.85
707.167	2371.72
707.355	2314.38
707.543	2365.57
707.731	2349.19
707.919	2404.49
708.107	2322.57
708.296	2257.03
708.484	2308.23
708.672	2474.12
708.86	2429.06
709.048	2310.28
709.236	2338.95
709.424	2338.95
709.612	2334.86
709.8	2246.79
709.988	2361.48
710.176	2459.78
710.364	2349.19
710.551	2371.72
710.739	2375.81
710.927	2310.28
711.115	2324.62
711.303	2287.75
711.491	2386.05
711.679	2381.96
711.866	2336.9
712.054	2338.95
712.242	2306.18
712.43	2494.6
712.617	2236.55
712.805	2390.15
712.993	2347.14
713.181	2279.56
713.368	2474.12
713.556	2449.54
713.744	2363.53
713.931	2363.53
714.119	2373.77
714.306	2291.85
714.494	2199.69
714.682	2306.18
714.869	2259.08
715.057	2396.29
715.244	2324.62
715.432	2402.44
715.619	2433.16
715.807	2375.81
715.994	2441.35
716.182	2404.49
716.369	2394.25
716.556	2377.86
716.744	2361.48
716.931	2347.14
717.119	2379.91
717.306	2324.62
717.493	2304.14
717.681	2386.05
717.868	2441.35
718.055	2400.39
718.242	2302.09
718.43	2369.67
718.617	2476.16
718.804	2363.53
718.991	2420.87
719.179	2418.82
719.366	2424.97
719.553	2361.48
719.74	2320.52
719.927	2269.32
720.114	2308.23
720.301	2349.19
720.488	2388.1
720.676	2379.91
720.863	2408.58
721.05	2416.77
721.237	2476.16
721.424	2314.38
721.611	2398.34
721.798	2304.14
721.985	2437.25
722.172	2406.53
722.358	2402.44
722.545	2334.86
722.732	2521.22
722.919	2293.9
723.106	2406.53
723.293	2369.67
723.48	2414.73
723.667	2246.79
723.853	2351.24
724.04	2429.06
724.227	2404.49
724.414	2467.97
724.6	2338.95
724.787	2338.95
724.974	2330.76
725.161	2336.9
725.347	2336.9
725.534	2390.15
725.72	2416.77
725.907	2365.57
726.094	2400.39
726.28	2379.91
726.467	2367.62
726.653	2437.25
726.84	2330.76
727.027	2416.77
727.213	2289.8
727.4	2519.17
727.586	2449.54
727.773	2484.36
727.959	2500.74
728.145	2310.28
728.332	2453.64
728.518	2461.83
728.705	2480.26
728.891	2324.62
729.077	2515.08
729.264	2357.38
729.45	2390.15
729.636	2443.4
729.823	2435.21
730.009	2498.69
730.195	2371.72
730.382	2453.64
730.568	2414.73
730.754	2541.7
730.94	2463.88
731.126	2359.43
731.313	2474.12
731.499	2461.83
731.685	2535.56
731.871	2515.08
732.057	2601.09
732.243	2515.08
732.429	2439.3
732.615	2441.35
732.801	2381.96
732.987	2449.54
733.173	2431.11
733.359	2381.96
733.545	2494.6
733.731	2400.39
733.917	2500.74
734.103	2465.93
734.289	2564.23
734.475	2418.82
734.661	2414.73
734.847	2433.16
735.033	2453.64
735.219	2418.82
735.404	2539.65
735.59	2408.58
735.776	2341
735.962	2496.64
736.148	2463.88
736.333	2564.23
736.519	2445.45
736.705	2506.88
736.89	2498.69
737.076	2359.43
737.262	2394.25
737.447	2441.35
737.633	2470.02
737.819	2384.01
738.004	2439.3
738.19	2347.14
738.375	2445.45
738.561	2429.06
738.747	2484.36
738.932	2433.16
739.118	2472.07
739.303	2527.36
739.489	2457.73
739.674	2384.01
739.859	2377.86
740.045	2435.21
740.23	2408.58
740.416	2242.7
740.601	2347.14
740.786	2365.57
740.972	2345.09
741.157	2504.84
741.342	2277.51
741.528	2351.24
741.713	2467.97
741.898	2330.76
742.084	2420.87
742.269	2306.18
742.454	2287.75
742.639	2336.9
742.824	2320.52
743.01	2386.05
743.195	2248.84
743.38	2341
743.565	2283.66
743.75	2353.29
743.935	2326.66
744.12	2269.32
744.305	2338.95
744.49	2220.17
744.675	2222.22
744.86	2058.38
745.045	2240.65
745.23	2230.41
745.415	2203.79
745.6	2181.26
745.785	2171.02
745.97	2173.07
746.155	2218.12
746.34	2105.48
746.525	2015.37
746.71	2216.07
746.895	2189.45
747.079	2107.53
747.264	2003.08
747.449	2087.05
747.634	2105.48
747.819	1984.65
748.003	1986.7
748.188	2017.42
748.373	2099.34
748.557	2023.56
748.742	2025.61
748.927	2138.25
749.111	1937.55
749.296	2015.37
749.481	1962.12
749.665	2050.19
749.85	1915.02
750.034	1929.36
750.219	1929.36
750.404	1931.41
750.588	1876.11
750.773	1972.36
750.957	1902.73
751.141	1745.04
751.326	1890.45
751.51	1906.83
751.695	1841.29
751.879	1783.95
752.064	1929.36
752.248	1849.49
752.432	1874.06
752.617	1808.53
752.801	1728.66
752.985	1691.79
753.17	1706.13
753.354	1728.66
753.538	1738.9
753.722	1693.84
753.907	1654.93
754.091	1671.31
754.275	1667.22
754.459	1589.39
754.643	1638.55
754.828	1521.81
755.012	1656.98
755.196	1597.59
755.38	1642.64
755.564	1581.2
755.748	1605.78
755.932	1689.74
756.116	1577.11
756.3	1532.05
756.484	1611.92
756.668	1456.28
756.852	1579.15
757.036	1450.13
757.22	1499.28
757.404	1503.38
757.588	1509.52
757.772	1583.25
757.956	1409.17
758.14	1394.84
758.323	1362.07
758.507	1482.9
758.691	1384.6
758.875	1376.41
759.059	1321.11
759.242	1349.78
759.426	1374.36
759.61	1306.77
759.794	1327.25
759.977	1360.02
760.161	1388.69
760.345	1327.25
760.528	1349.78
760.712	1298.58
760.895	1347.73
761.079	1296.53
761.263	1321.11
761.446	1278.1
761.63	1331.35
761.813	1335.45
761.997	1366.17
762.18	1179.8
762.364	1269.91
762.547	1183.9
762.731	1212.57
762.914	1216.66
763.098	1212.57
763.281	1276.06
763.464	1220.76
763.648	1278.1
763.831	1243.29
764.015	1241.24
764.198	1161.37
764.381	1179.8
764.564	1095.83
764.748	1144.99
764.931	1218.71
765.114	1185.94
765.297	1220.76
765.481	1206.42
765.664	1144.99
765.847	1136.79
766.03	1144.99
766.213	1134.75
766.397	1138.84
766.58	1128.6
766.763	1202.33
766.946	1112.22
767.129	1067.16
767.312	1061.02
767.495	1167.51
767.678	1149.08
767.861	1067.16
768.044	1114.27
768.227	1073.31
768.41	981.15
768.593	1015.96
768.776	972.96
768.959	1073.31
769.142	1128.6
769.324	1024.16
769.507	999.58
769.69	993.44
769.873	1030.3
770.056	1056.92
770.239	1077.4
770.421	968.86
770.604	913.56
770.787	979.1
770.97	1013.92
771.152	927.9
771.335	1058.97
771.518	1052.83
771.7	1020.06
771.883	970.91
772.066	921.76
772.248	1038.49
772.431	1007.77
772.613	962.72
772.796	962.72
772.978	864.41
773.161	1067.16
773.343	934.04
773.526	897.18
773.708	929.95
773.891	952.48
774.073	862.37
774.256	975
774.438	962.72
774.621	864.41
774.803	860.32
774.985	753.82
775.168	897.18
775.35	868.51
775.532	823.45
775.715	833.69
775.897	860.32
776.079	827.55
776.261	948.38
776.444	741.54
776.626	872.61
776.808	747.68
776.99	743.58
777.173	702.62
777.355	802.97
777.537	825.5
777.719	839.84
777.901	721.06
778.083	788.64
778.265	731.3
778.447	743.58
778.629	794.78
778.811	710.82
778.993	682.14
779.175	704.67
779.357	762.02
779.539	614.56
779.721	637.09
779.903	692.38
780.085	702.62
780.267	731.3
780.449	682.14
780.631	645.28
780.812	692.38
780.994	651.42
781.176	682.14
781.358	602.27
781.54	661.66
781.721	673.95
781.903	620.71
782.085	710.82
782.267	655.52
782.448	649.38
782.63	610.47
782.812	573.6
782.993	598.18
783.175	581.79
783.357	618.66
783.538	673.95
783.72	563.36
783.901	602.27
784.083	592.03
784.264	553.12
784.446	549.03
784.627	567.46
784.809	573.6
784.99	612.51
785.172	549.03
785.353	473.25
785.535	522.4
785.716	579.75
785.897	489.64
786.079	499.88
786.26	508.07
786.441	450.72
786.623	485.54
786.804	528.55
786.985	520.35
787.167	518.31
787.348	438.44
787.529	514.21
787.71	551.07
787.891	512.16
788.073	467.11
788.254	477.35
788.435	465.06
788.616	428.2
788.797	389.28
788.978	487.59
789.159	405.67
789.34	497.83
789.522	413.86
789.703	473.25
789.884	422.05
790.065	426.15
790.246	487.59
790.427	366.76
790.607	434.34
790.788	385.19
790.969	368.81
791.15	405.67
791.331	417.96
791.512	393.38
791.693	356.52
791.874	432.29
792.054	381.09
792.235	428.2
792.416	354.47
792.597	381.09
792.778	391.33
792.958	379.04
793.139	432.29
793.32	360.61
793.5	370.85
793.681	420
793.862	366.76
794.042	352.42
794.223	348.33
794.404	348.33
794.584	364.71
794.765	327.85
794.945	364.71
795.126	309.41
795.306	348.33
795.487	348.33
795.667	352.42
795.848	329.89
796.028	340.13
796.209	321.7
796.389	311.46
796.57	319.65
796.75	301.22
796.93	323.75
797.111	319.65
797.291	362.66
797.471	266.41
797.652	329.89
797.832	311.46
798.012	370.85
798.192	233.64
798.373	344.23
798.553	321.7
798.733	358.57
798.913	278.69
799.093	282.79
799.274	317.61
799.454	282.79
799.634	254.12
799.814	303.27
799.994	237.74
800.174	254.12
800.354	274.6
800.534	352.42
800.714	221.35
800.894	252.07
801.074	364.71
801.254	262.31
801.434	301.22
801.614	290.98
801.794	264.36
801.974	635.04
802.154	245.93
802.334	299.17
802.514	207.02
802.693	264.36
802.873	329.89
803.053	243.88
803.233	225.45
803.413	237.74
803.592	272.55
803.772	280.74
803.952	323.75
804.131	221.35
804.311	260.26
804.491	374.95
804.67	225.45
804.85	225.45
805.03	252.07
805.209	276.65
805.389	250.02
805.568	209.06
805.748	268.45
805.928	166.06
806.107	270.5
806.287	256.17
806.466	178.34
806.646	264.36
806.825	190.63
807.004	233.64
807.184	229.54
807.363	286.89
807.543	170.15
807.722	243.88
807.901	268.45
808.081	168.1
808.26	170.15
808.439	268.45
808.619	204.97
808.798	229.54
808.977	170.15
809.156	264.36
809.336	135.34
809.515	260.26
809.694	209.06
809.873	153.77
810.052	219.3
810.231	123.05
810.411	229.54
810.59	272.55
810.769	147.62
810.948	196.78
811.127	166.06
811.306	229.54
811.485	239.78
811.664	123.05
811.843	114.86
812.022	202.92
812.201	149.67
812.38	235.69
812.559	221.35
812.737	192.68
812.916	202.92
813.095	176.3
813.274	190.63
813.453	133.29
813.632	75.95
813.811	157.86
813.989	194.73
814.168	231.59
814.347	137.38
814.526	190.63
814.704	192.68
814.883	147.62
815.062	155.82
815.24	159.91
815.419	157.86
815.598	159.91
815.776	182.44
815.955	204.97
816.133	92.33
816.312	170.15
816.49	96.43
816.669	190.63
816.847	213.16
817.026	135.34
817.204	133.29
817.383	241.83
817.561	151.72
817.74	188.58
817.918	153.77
818.097	143.53
818.275	112.81
818.453	161.96
818.632	170.15
818.81	178.34
818.988	170.15
819.167	180.39
819.345	166.06
819.523	112.81
819.701	190.63
819.879	75.95
820.058	139.43
820.236	143.53
820.414	174.25
820.592	121
820.77	82.09
820.948	133.29
821.127	106.67
821.305	215.21
821.483	80.04
821.661	184.49
821.839	176.3
822.017	96.43
822.195	172.2
822.373	155.82
822.551	188.58
822.729	153.77
822.907	145.58
823.085	123.05
823.262	59.56
823.44	108.71
823.618	104.62
823.796	84.14
823.974	149.67
824.152	186.54
824.329	94.38
824.507	127.14
824.685	106.67
824.863	207.02
825.04	161.96
825.218	145.58
825.396	131.24
825.574	155.82
825.751	176.3
825.929	207.02
826.107	149.67
826.284	49.32
826.462	116.9
826.639	110.76
826.817	104.62
826.994	116.9
827.172	131.24
827.349	147.62
827.527	121
827.704	82.09
827.882	92.33
828.059	116.9
828.237	116.9
828.414	145.58
828.591	100.52
828.769	133.29
828.946	55.47
829.124	139.43
829.301	123.05
829.478	98.47
829.655	77.99
829.833	96.43
830.01	86.19
830.187	139.43
830.364	155.82
830.542	116.9
830.719	172.2
830.896	133.29
831.073	49.32
831.25	198.82
831.427	112.81
831.604	106.67
831.782	75.95
831.959	149.67
832.136	75.95
832.313	207.02
832.49	80.04
832.667	166.06
832.844	41.13
833.021	92.33
833.198	84.14
833.374	84.14
833.551	118.95
833.728	84.14
833.905	80.04
834.082	-1.88
834.259	73.9
834.436	133.29
834.612	73.9
834.789	127.14
834.966	80.04
835.143	12.46
835.319	102.57
835.496	75.95
835.673	106.67
835.85	139.43
836.026	98.47
836.203	143.53
836.38	63.66
836.556	112.81
836.733	94.38
836.909	116.9
837.086	84.14
837.262	108.71
837.439	57.51
837.616	80.04
837.792	51.37
837.968	73.9
838.145	0.17
838.321	166.06
838.498	59.56
838.674	92.33
838.851	69.8
839.027	71.85
839.203	65.71
839.38	112.81
839.556	84.14
839.732	73.9
839.909	63.66
840.085	108.71
840.261	82.09
840.437	41.13
840.614	-1.88
840.79	100.52
840.966	123.05
841.142	75.95
841.318	110.76
841.494	63.66
841.671	45.23
841.847	75.95
842.023	75.95
842.199	90.28
842.375	110.76
842.551	59.56
842.727	106.67
842.903	102.57
843.079	-1.88
843.255	65.71
843.431	49.32
843.607	139.43
843.783	110.76
843.959	34.99
844.134	71.85
844.31	34.99
844.486	45.23
844.662	24.75
844.838	73.9
845.013	51.37
845.189	20.65
845.365	75.95
845.541	67.75
845.716	51.37
845.892	96.43
846.068	47.27
846.244	6.31
846.419	63.66
846.595	102.57
846.77	41.13
846.946	139.43
847.122	34.99
847.297	41.13
847.473	106.67
847.648	16.55
847.824	82.09
847.999	65.71
848.175	94.38
848.35	110.76
848.526	82.09
848.701	159.91
848.876	143.53
849.052	30.89
849.227	8.36
849.403	28.84
849.578	102.57
849.753	30.89
849.929	86.19
850.104	12.46
850.279	18.6
850.454	86.19
850.63	69.8
850.805	65.71
850.98	57.51
851.155	102.57
851.33	-12.12
851.505	-18.26
851.681	32.94
851.856	57.51
852.031	69.8
852.206	77.99
852.381	32.94
852.556	43.18
852.731	59.56
852.906	157.86
853.081	53.42
853.256	28.84
853.431	32.94
853.606	14.51
853.781	26.79
853.956	45.23
854.131	39.08
854.305	49.32
854.48	6.31
854.655	45.23
854.83	82.09
855.005	30.89
855.18	84.14
855.354	34.99
855.529	67.75
855.704	80.04
855.879	22.7
856.053	24.75
856.228	57.51
856.403	71.85
856.577	114.86
856.752	10.41
856.926	127.14
857.101	100.52
857.276	-5.97
857.45	65.71
857.625	37.03
857.799	51.37
857.974	102.57
858.148	41.13
858.323	98.47
858.497	2.22
858.672	16.55
858.846	8.36
859.02	61.61
859.195	43.18
859.369	37.03
859.543	2.22
859.718	51.37
859.892	73.9
860.066	32.94
860.241	59.56
860.415	90.28
860.589	67.75
860.763	14.51
860.938	-8.02
861.112	8.36
861.286	41.13
861.46	8.36
861.634	45.23
861.808	41.13
861.982	73.9
862.157	43.18
862.331	22.7
862.505	45.23
862.679	-44.88
862.853	24.75
863.027	55.47
863.201	-18.26
863.375	12.46
863.549	65.71
863.722	0.17
863.896	49.32
864.07	-28.5
864.244	10.41
864.418	24.75
864.592	28.84
864.766	51.37
864.939	39.08
865.113	-34.64
865.287	43.18
865.461	28.84
865.634	24.75
865.808	59.56
865.982	32.94
866.156	41.13
866.329	37.03
866.503	-28.5
866.676	65.71
866.85	73.9
867.024	-38.74
867.197	24.75
867.371	49.32
867.544	34.99
867.718	0.17
867.891	-40.79
868.065	67.75
868.238	39.08
868.412	63.66
868.585	90.28
868.759	14.51
868.932	10.41
869.105	-20.31
869.279	12.46
869.452	10.41
869.625	80.04
869.799	-1.88
869.972	-22.36
870.145	20.65
870.319	4.27
870.492	59.56
870.665	-65.36
870.838	34.99
871.011	67.75
871.185	-10.07
871.358	47.27
871.531	16.55
871.704	0.17
871.877	-22.36
872.05	49.32
872.223	-106.32
872.396	-10.07
872.569	61.61
872.742	16.55
872.915	30.89
873.088	26.79
873.261	-12.12
873.434	51.37
873.607	-32.6
873.78	45.23
873.953	4.27
874.126	77.99
874.299	-10.07
874.471	55.47
874.644	65.71
874.817	-1.88
874.99	77.99
875.163	28.84
875.335	2.22
875.508	-77.65
875.681	106.67
875.853	2.22
876.026	20.65
876.199	104.62
876.371	96.43
876.544	2.22
876.717	84.14
876.889	133.29
877.062	34.99
877.234	41.13
877.407	-69.46
877.579	51.37
877.752	49.32
877.924	-3.93
878.097	143.53
878.269	-8.02
878.442	-10.07
878.614	71.85
878.786	-3.93
878.959	-8.02
879.131	-22.36
879.303	28.84
879.476	32.94
879.648	32.94
879.82	55.47
879.993	45.23
880.165	69.8
880.337	-57.17
880.509	84.14
880.681	-1.88
880.854	-34.64
881.026	-22.36
881.198	82.09
881.37	49.32
881.542	28.84
881.714	-12.12
881.886	55.47
882.058	28.84
882.23	53.42
882.402	88.23
882.574	-26.45
882.746	16.55
882.918	94.38
883.09	71.85
883.262	94.38
883.434	28.84
883.606	-8.02
883.778	24.75
883.95	41.13
884.122	-40.79
884.293	41.13
884.465	24.75
884.637	47.27
884.809	-10.07
884.98	43.18
885.152	8.36
885.324	26.79
885.496	-10.07
885.667	49.32
885.839	10.41
886.011	22.7
886.182	4.27
886.354	32.94
886.525	49.32
886.697	34.99
886.869	-12.12
887.04	-14.17
887.212	51.37
887.383	116.9
887.555	-8.02
887.726	6.31
887.897	14.51
888.069	28.84
888.24	30.89
888.412	49.32
888.583	2.22
888.754	-16.21
888.926	-5.97
889.097	114.86
889.268	28.84
889.44	6.31
889.611	-44.88
889.782	-20.31
889.953	-16.21
890.125	71.85
890.296	34.99
890.467	34.99
890.638	20.65
890.809	-24.4
890.98	10.41
891.151	-40.79
891.323	6.31
891.494	30.89
891.665	39.08
891.836	-3.93
892.007	90.28
892.178	63.66
892.349	51.37
892.52	49.32
892.691	-57.17
892.862	49.32
893.032	0.17
893.203	53.42
893.374	0.17
893.545	51.37
893.716	34.99
893.887	86.19
894.057	20.65
894.228	-8.02
894.399	65.71
894.57	73.9
894.74	2.22
894.911	-24.4
895.082	-1.88
895.253	41.13
895.423	24.75
895.594	14.51
895.764	-65.36
895.935	41.13
896.106	-1.88
896.276	4.27
896.447	6.31
896.617	14.51
896.788	6.31
896.958	94.38
897.129	-28.5
897.299	22.7
897.47	12.46
897.64	20.65
897.81	16.55
897.981	45.23
898.151	12.46
898.322	90.28
898.492	104.62
898.662	-59.22
898.832	22.7
899.003	24.75
899.173	0.17
899.343	39.08
899.513	-67.41
