Data from USB4F104151__53__11-45-12-218.txt Node

Date: Fri Mar 14 11:45:12 EDT 2025
User: louis
Spectrometer: USB4F10415
Trigger mode: 4
Integration Time (sec): 2.000000E-2
Scans to average: 1
Electric dark correction enabled: true
Nonlinearity correction enabled: false
Boxcar width: 0
XAxis mode: Wavelengths
Number of Pixels in Spectrum: 3648
>>>>>Begin Spectral Data<<<<<
178.204	-31.74
178.424	-31.74
178.644	-31.74
178.864	-119.81
179.084	-56.32
179.304	1.02
179.524	-23.55
179.744	15.36
179.964	-15.36
180.184	9.22
180.404	23.55
180.624	-44.03
180.844	95.23
181.064	5.12
181.283	-58.37
181.503	3.07
181.723	-11.26
181.943	-3.07
182.163	-44.03
182.383	15.36
182.602	60.42
182.822	35.84
183.042	15.36
183.262	-35.84
183.482	41.98
183.701	-21.5
183.921	25.6
184.141	54.27
184.361	11.26
184.58	62.46
184.8	-74.75
185.02	-17.41
185.239	66.56
185.459	15.36
185.679	1.02
185.898	-111.61
186.118	11.26
186.338	9.22
186.557	31.74
186.777	-37.89
186.997	-13.31
187.216	-52.22
187.436	107.52
187.655	-21.5
187.875	74.75
188.095	-46.08
188.314	1.02
188.534	9.22
188.753	-5.12
188.973	-17.41
189.192	-70.65
189.412	138.24
189.631	41.98
189.851	-17.41
190.07	3.07
190.29	25.6
190.509	72.7
190.729	11.26
190.948	117.76
191.168	3.07
191.387	5.12
191.607	-27.65
191.826	54.27
192.045	31.74
192.265	15.36
192.484	35.84
192.704	-31.74
192.923	-89.09
193.142	25.6
193.362	7.17
193.581	44.03
193.8	-17.41
194.02	-5.12
194.239	-35.84
194.458	37.89
194.678	58.37
194.897	-27.65
195.116	-19.46
195.335	87.04
195.555	1.02
195.774	11.26
195.993	21.5
196.212	21.5
196.432	-23.55
196.651	41.98
196.87	7.17
197.089	80.89
197.308	19.46
197.528	37.89
197.747	60.42
197.966	41.98
198.185	9.22
198.404	19.46
198.623	-21.5
198.842	15.36
199.062	35.84
199.281	13.31
199.5	-3.07
199.719	-37.89
199.938	44.03
200.157	68.61
200.376	41.98
200.595	25.6
200.814	21.5
201.033	3.07
201.252	-15.36
201.471	-52.22
201.69	7.17
201.909	23.55
202.128	84.99
202.347	-72.7
202.566	-27.65
202.785	-13.31
203.004	17.41
203.223	70.65
203.442	-3.07
203.661	21.5
203.879	-5.12
204.098	19.46
204.317	-31.74
204.536	93.18
204.755	39.94
204.974	60.42
205.193	74.75
205.411	66.56
205.63	1.02
205.849	35.84
206.068	33.79
206.287	21.5
206.505	68.61
206.724	-41.98
206.943	-1.02
207.162	-13.31
207.381	-23.55
207.599	-17.41
207.818	64.51
208.037	-19.46
208.255	-64.51
208.474	-46.08
208.693	-1.02
208.911	-5.12
209.13	46.08
209.349	29.7
209.567	-15.36
209.786	-41.98
210.005	48.13
210.223	99.33
210.442	15.36
210.661	64.51
210.879	7.17
211.098	50.18
211.316	15.36
211.535	44.03
211.753	-84.99
211.972	74.75
212.191	-58.37
212.409	15.36
212.628	-52.22
212.846	-60.42
213.065	17.41
213.283	-17.41
213.502	-50.18
213.72	-19.46
213.938	68.61
214.157	29.7
214.375	31.74
214.594	17.41
214.812	9.22
215.031	46.08
215.249	-33.79
215.467	-9.22
215.686	95.23
215.904	1.02
216.122	-27.65
216.341	-7.17
216.559	3.07
216.778	54.27
216.996	62.46
217.214	31.74
217.432	-39.94
217.651	48.13
217.869	15.36
218.087	-5.12
218.306	-11.26
218.524	-25.6
218.742	-11.26
218.96	21.5
219.179	48.13
219.397	39.94
219.615	52.22
219.833	89.09
220.051	31.74
220.27	50.18
220.488	25.6
220.706	5.12
220.924	29.7
221.142	-41.98
221.36	50.18
221.578	-9.22
221.796	-13.31
222.015	-68.61
222.233	19.46
222.451	119.81
222.669	-17.41
222.887	23.55
223.105	25.6
223.323	64.51
223.541	33.79
223.759	27.65
223.977	17.41
224.195	15.36
224.413	62.46
224.631	37.89
224.849	19.46
225.067	33.79
225.285	-1.02
225.503	9.22
225.721	-7.17
225.939	25.6
226.157	-11.26
226.375	44.03
226.592	-125.95
226.81	-17.41
227.028	17.41
227.246	41.98
227.464	-3.07
227.682	64.51
227.9	-21.5
228.117	3.07
228.335	-21.5
228.553	13.31
228.771	-15.36
228.989	13.31
229.206	-11.26
229.424	17.41
229.642	-7.17
229.86	89.09
230.077	44.03
230.295	13.31
230.513	5.12
230.731	-33.79
230.948	-39.94
231.166	27.65
231.384	-64.51
231.601	17.41
231.819	35.84
232.037	-3.07
232.254	-60.42
232.472	-52.22
232.689	-44.03
232.907	70.65
233.125	29.7
233.342	-1.02
233.56	-15.36
233.777	29.7
233.995	-3.07
234.213	109.57
234.43	-11.26
234.648	15.36
234.865	-27.65
235.083	-23.55
235.3	31.74
235.518	74.75
235.735	46.08
235.953	-3.07
236.17	46.08
236.388	-5.12
236.605	25.6
236.822	13.31
237.04	58.37
237.257	-23.55
237.475	-9.22
237.692	-56.32
237.909	11.26
238.127	-31.74
238.344	50.18
238.562	31.74
238.779	-13.31
238.996	5.12
239.214	74.75
239.431	41.98
239.648	-3.07
239.865	19.46
240.083	5.12
240.3	48.13
240.517	13.31
240.735	9.22
240.952	111.61
241.169	9.22
241.386	-11.26
241.603	-33.79
241.821	-56.32
242.038	1.02
242.255	-3.07
242.472	31.74
242.689	-23.55
242.907	46.08
243.124	-13.31
243.341	44.03
243.558	1.02
243.775	11.26
243.992	-31.74
244.209	-39.94
244.426	48.13
244.643	-5.12
244.86	46.08
245.078	13.31
245.295	13.31
245.512	-50.18
245.729	-13.31
245.946	35.84
246.163	3.07
246.38	39.94
246.597	-21.5
246.814	35.84
247.031	13.31
247.248	-15.36
247.464	46.08
247.681	13.31
247.898	66.56
248.115	25.6
248.332	-44.03
248.549	60.42
248.766	-21.5
248.983	17.41
249.2	56.32
249.417	-25.6
249.633	23.55
249.85	21.5
250.067	11.26
250.284	82.94
250.501	3.07
250.717	33.79
250.934	7.17
251.151	-11.26
251.368	-15.36
251.585	15.36
251.801	-7.17
252.018	-5.12
252.235	70.65
252.451	13.31
252.668	41.98
252.885	15.36
253.102	70.65
253.318	27.65
253.535	82.94
253.752	29.7
253.968	7.17
254.185	-3.07
254.401	-25.6
254.618	-11.26
254.835	-31.74
255.051	27.65
255.268	-13.31
255.484	41.98
255.701	-31.74
255.917	33.79
256.134	-87.04
256.351	23.55
256.567	64.51
256.784	5.12
257	23.55
257.217	31.74
257.433	-7.17
257.65	60.42
257.866	56.32
258.082	-23.55
258.299	-68.61
258.515	19.46
258.732	-64.51
258.948	-50.18
259.165	-13.31
259.381	-21.5
259.597	3.07
259.814	-15.36
260.03	-25.6
260.246	-27.65
260.463	48.13
260.679	72.7
260.895	-31.74
261.112	-1.02
261.328	31.74
261.544	-27.65
261.761	64.51
261.977	31.74
262.193	50.18
262.409	41.98
262.626	-23.55
262.842	-23.55
263.058	-19.46
263.274	-1.02
263.49	5.12
263.707	64.51
263.923	64.51
264.139	-3.07
264.355	-27.65
264.571	50.18
264.787	62.46
265.004	52.22
265.22	37.89
265.436	-25.6
265.652	33.79
265.868	31.74
266.084	17.41
266.3	-19.46
266.516	35.84
266.732	9.22
266.948	-44.03
267.164	17.41
267.38	27.65
267.596	62.46
267.812	7.17
268.028	-37.89
268.244	-25.6
268.46	5.12
268.676	21.5
268.892	-19.46
269.108	7.17
269.324	-37.89
269.54	-37.89
269.756	-13.31
269.972	-5.12
270.188	-3.07
270.403	15.36
270.619	1.02
270.835	25.6
271.051	46.08
271.267	46.08
271.483	-31.74
271.698	-31.74
271.914	64.51
272.13	-1.02
272.346	-54.27
272.562	46.08
272.777	-17.41
272.993	72.7
273.209	19.46
273.425	70.65
273.64	-23.55
273.856	50.18
274.072	7.17
274.287	39.94
274.503	-9.22
274.719	37.89
274.934	76.8
275.15	-19.46
275.366	-29.7
275.581	54.27
275.797	48.13
276.012	5.12
276.228	25.6
276.444	31.74
276.659	64.51
276.875	13.31
277.09	87.04
277.306	58.37
277.521	54.27
277.737	21.5
277.952	23.55
278.168	-44.03
278.383	60.42
278.599	-23.55
278.814	1.02
279.03	33.79
279.245	13.31
279.461	-23.55
279.676	99.33
279.892	7.17
280.107	27.65
280.322	3.07
280.538	-23.55
280.753	39.94
280.969	27.65
281.184	-48.13
281.399	27.65
281.615	-17.41
281.83	-21.5
282.045	60.42
282.26	-31.74
282.476	-1.02
282.691	17.41
282.906	-13.31
283.122	21.5
283.337	-7.17
283.552	-5.12
283.767	35.84
283.983	-13.31
284.198	15.36
284.413	35.84
284.628	9.22
284.843	-27.65
285.058	33.79
285.274	74.75
285.489	5.12
285.704	37.89
285.919	48.13
286.134	9.22
286.349	-29.7
286.564	15.36
286.779	58.37
286.995	7.17
287.21	3.07
287.425	103.42
287.64	-3.07
287.855	76.8
288.07	7.17
288.285	-3.07
288.5	-5.12
288.715	-58.37
288.93	17.41
289.145	31.74
289.36	-23.55
289.575	5.12
289.79	-37.89
290.004	54.27
290.219	-60.42
290.434	97.28
290.649	-48.13
290.864	-52.22
291.079	-7.17
291.294	-13.31
291.509	-19.46
291.724	-29.7
291.938	15.36
292.153	-5.12
292.368	82.94
292.583	33.79
292.798	11.26
293.012	-5.12
293.227	29.7
293.442	48.13
293.657	48.13
293.871	17.41
294.086	27.65
294.301	37.89
294.516	91.13
294.73	13.31
294.945	-11.26
295.16	13.31
295.374	-9.22
295.589	-7.17
295.804	-17.41
296.018	35.84
296.233	21.5
296.447	44.03
296.662	-29.7
296.877	50.18
297.091	105.47
297.306	13.31
297.52	-25.6
297.735	-7.17
297.949	21.5
298.164	41.98
298.378	5.12
298.593	11.26
298.807	31.74
299.022	-15.36
299.236	64.51
299.451	-3.07
299.665	-29.7
299.88	-27.65
300.094	44.03
300.309	21.5
300.523	-72.7
300.737	52.22
300.952	17.41
301.166	107.52
301.381	-60.42
301.595	13.31
301.809	17.41
302.024	-3.07
302.238	50.18
302.452	23.55
302.667	76.8
302.881	64.51
303.095	13.31
303.309	54.27
303.524	-31.74
303.738	-76.8
303.952	-27.65
304.166	29.7
304.381	-74.75
304.595	29.7
304.809	23.55
305.023	54.27
305.237	52.22
305.452	31.74
305.666	46.08
305.88	5.12
306.094	41.98
306.308	11.26
306.522	109.57
306.736	-46.08
306.95	89.09
307.164	50.18
307.379	7.17
307.593	25.6
307.807	33.79
308.021	-21.5
308.235	25.6
308.449	21.5
308.663	-82.94
308.877	19.46
309.091	39.94
309.305	60.42
309.519	-46.08
309.733	66.56
309.947	52.22
310.161	-9.22
310.374	60.42
310.588	82.94
310.802	33.79
311.016	31.74
311.23	13.31
311.444	1.02
311.658	-23.55
311.872	50.18
312.085	-5.12
312.299	93.18
312.513	27.65
312.727	-17.41
312.941	-48.13
313.154	56.32
313.368	50.18
313.582	-17.41
313.796	1.02
314.009	44.03
314.223	93.18
314.437	54.27
314.651	-31.74
314.864	-5.12
315.078	-44.03
315.292	-27.65
315.505	5.12
315.719	101.37
315.933	-11.26
316.146	1.02
316.36	-25.6
316.573	13.31
316.787	19.46
317.001	21.5
317.214	-13.31
317.428	-1.02
317.641	11.26
317.855	41.98
318.068	-27.65
318.282	-23.55
318.495	-19.46
318.709	17.41
318.922	-15.36
319.136	29.7
319.349	-11.26
319.563	-39.94
319.776	52.22
319.99	-1.02
320.203	74.75
320.417	5.12
320.63	-27.65
320.843	25.6
321.057	5.12
321.27	68.61
321.483	-1.02
321.697	39.94
321.91	46.08
322.124	-3.07
322.337	31.74
322.55	-13.31
322.763	-5.12
322.977	29.7
323.19	-41.98
323.403	-27.65
323.617	107.52
323.83	60.42
324.043	56.32
324.256	80.89
324.469	-17.41
324.683	105.47
324.896	-3.07
325.109	-9.22
325.322	-21.5
325.535	-29.7
325.748	29.7
325.962	13.31
326.175	66.56
326.388	-1.02
326.601	-3.07
326.814	66.56
327.027	19.46
327.24	39.94
327.453	-5.12
327.666	39.94
327.879	-54.27
328.092	44.03
328.305	-23.55
328.518	64.51
328.731	-21.5
328.944	56.32
329.157	41.98
329.37	64.51
329.583	-39.94
329.796	21.5
330.009	-1.02
330.222	-23.55
330.435	58.37
330.648	84.99
330.861	84.99
331.073	-3.07
331.286	-23.55
331.499	39.94
331.712	58.37
331.925	-19.46
332.138	21.5
332.35	31.74
332.563	25.6
332.776	56.32
332.989	78.85
333.202	-17.41
333.414	21.5
333.627	76.8
333.84	-5.12
334.053	-19.46
334.265	87.04
334.478	5.12
334.691	7.17
334.903	39.94
335.116	-7.17
335.329	-52.22
335.541	95.23
335.754	27.65
335.966	33.79
336.179	-13.31
336.392	68.61
336.604	-9.22
336.817	9.22
337.029	29.7
337.242	41.98
337.454	25.6
337.667	80.89
337.88	9.22
338.092	25.6
338.305	1.02
338.517	68.61
338.729	23.55
338.942	117.76
339.154	-27.65
339.367	7.17
339.579	-46.08
339.792	41.98
340.004	1.02
340.217	70.65
340.429	39.94
340.641	21.5
340.854	23.55
341.066	50.18
341.278	5.12
341.491	56.32
341.703	84.99
341.915	-21.5
342.128	27.65
342.34	46.08
342.552	31.74
342.764	76.8
342.977	-66.56
343.189	48.13
343.401	44.03
343.613	-9.22
343.826	-21.5
344.038	9.22
344.25	15.36
344.462	25.6
344.674	46.08
344.886	35.84
345.099	91.13
345.311	76.8
345.523	31.74
345.735	-31.74
345.947	54.27
346.159	27.65
346.371	39.94
346.583	11.26
346.795	41.98
347.007	1.02
347.219	-39.94
347.431	82.94
347.643	89.09
347.855	13.31
348.067	-21.5
348.279	5.12
348.491	60.42
348.703	27.65
348.915	-50.18
349.127	17.41
349.339	37.89
349.551	-11.26
349.763	76.8
349.975	-9.22
350.187	66.56
350.399	111.61
350.61	156.67
350.822	9.22
351.034	66.56
351.246	11.26
351.458	41.98
351.669	29.7
351.881	19.46
352.093	17.41
352.305	91.13
352.517	82.94
352.728	46.08
352.94	70.65
353.152	-11.26
353.363	11.26
353.575	44.03
353.787	103.42
353.999	1.02
354.21	78.85
354.422	60.42
354.633	1.02
354.845	60.42
355.057	-5.12
355.268	107.52
355.48	39.94
355.692	-33.79
355.903	5.12
356.115	15.36
356.326	3.07
356.538	31.74
356.749	-17.41
356.961	46.08
357.172	48.13
357.384	41.98
357.595	-23.55
357.807	3.07
358.018	-3.07
358.23	1.02
358.441	101.37
358.653	99.33
358.864	-7.17
359.075	-5.12
359.287	56.32
359.498	-7.17
359.709	19.46
359.921	7.17
360.132	25.6
360.344	13.31
360.555	-1.02
360.766	68.61
360.977	17.41
361.189	91.13
361.4	56.32
361.611	-13.31
361.823	52.22
362.034	37.89
362.245	-27.65
362.456	-37.89
362.667	39.94
362.879	25.6
363.09	91.13
363.301	60.42
363.512	3.07
363.723	3.07
363.935	52.22
364.146	62.46
364.357	-7.17
364.568	-46.08
364.779	-7.17
364.99	29.7
365.201	54.27
365.412	68.61
365.623	-35.84
365.834	89.09
366.045	39.94
366.256	39.94
366.467	5.12
366.678	66.56
366.889	37.89
367.1	54.27
367.311	-1.02
367.522	-3.07
367.733	80.89
367.944	37.89
368.155	82.94
368.366	29.7
368.577	54.27
368.788	76.8
368.999	29.7
369.209	-25.6
369.42	95.23
369.631	72.7
369.842	52.22
370.053	-29.7
370.264	66.56
370.474	-46.08
370.685	31.74
370.896	37.89
371.107	25.6
371.317	-27.65
371.528	17.41
371.739	70.65
371.95	31.74
372.16	93.18
372.371	37.89
372.582	23.55
372.792	-17.41
373.003	-3.07
373.214	27.65
373.424	84.99
373.635	93.18
373.846	91.13
374.056	15.36
374.267	21.5
374.477	31.74
374.688	15.36
374.898	54.27
375.109	107.52
375.319	39.94
375.53	-52.22
375.74	31.74
375.951	11.26
376.161	62.46
376.372	58.37
376.582	64.51
376.793	41.98
377.003	1.02
377.214	13.31
377.424	37.89
377.635	-44.03
377.845	21.5
378.055	113.66
378.266	13.31
378.476	89.09
378.686	35.84
378.897	46.08
379.107	-31.74
379.317	37.89
379.528	60.42
379.738	87.04
379.948	11.26
380.158	58.37
380.369	37.89
380.579	23.55
380.789	-11.26
380.999	121.85
381.21	78.85
381.42	39.94
381.63	17.41
381.84	41.98
382.05	-9.22
382.261	82.94
382.471	27.65
382.681	-39.94
382.891	46.08
383.101	-19.46
383.311	91.13
383.521	15.36
383.731	70.65
383.941	46.08
384.151	52.22
384.361	64.51
384.571	-54.27
384.781	78.85
384.991	46.08
385.201	103.42
385.411	50.18
385.621	111.61
385.831	41.98
386.041	76.8
386.251	44.03
386.461	41.98
386.671	97.28
386.881	-35.84
387.091	31.74
387.301	93.18
387.511	48.13
387.72	33.79
387.93	72.7
388.14	9.22
388.35	-13.31
388.56	84.99
388.769	56.32
388.979	80.89
389.189	-52.22
389.399	136.19
389.609	41.98
389.818	33.79
390.028	80.89
390.238	31.74
390.447	35.84
390.657	19.46
390.867	9.22
391.076	-5.12
391.286	91.13
391.496	35.84
391.705	80.89
391.915	80.89
392.125	21.5
392.334	50.18
392.544	87.04
392.753	27.65
392.963	9.22
393.172	87.04
393.382	48.13
393.591	70.65
393.801	-31.74
394.01	82.94
394.22	39.94
394.429	48.13
394.639	46.08
394.848	119.81
395.058	95.23
395.267	125.95
395.477	50.18
395.686	60.42
395.895	52.22
396.105	156.67
396.314	-5.12
396.524	152.57
396.733	27.65
396.942	93.18
397.152	78.85
397.361	84.99
397.57	70.65
397.78	138.24
397.989	-3.07
398.198	66.56
398.407	97.28
398.617	107.52
398.826	66.56
399.035	103.42
399.244	23.55
399.453	68.61
399.663	74.75
399.872	87.04
400.081	29.7
400.29	117.76
400.499	72.7
400.708	185.34
400.917	58.37
401.127	78.85
401.336	87.04
401.545	158.72
401.754	152.57
401.963	168.96
402.172	138.24
402.381	136.19
402.59	41.98
402.799	152.57
403.008	189.44
403.217	107.52
403.426	89.09
403.635	95.23
403.844	97.28
404.053	134.14
404.262	87.04
404.471	234.49
404.68	76.8
404.888	142.33
405.097	107.52
405.306	125.95
405.515	128
405.724	125.95
405.933	128
406.142	189.44
406.35	132.09
406.559	183.29
406.768	257.02
406.977	252.92
407.185	152.57
407.394	185.34
407.603	138.24
407.812	220.16
408.02	121.85
408.229	179.2
408.438	220.16
408.646	232.44
408.855	281.6
409.064	259.07
409.272	234.49
409.481	306.17
409.69	228.35
409.898	275.45
410.107	328.7
410.315	324.6
410.524	297.98
410.733	343.03
410.941	310.27
411.15	316.41
411.358	367.61
411.567	377.85
411.775	314.36
411.984	486.39
412.192	449.53
412.401	369.66
412.609	441.34
412.818	435.19
413.026	513.02
413.234	410.62
413.443	494.58
413.651	525.3
413.86	590.84
414.068	576.5
414.276	584.7
414.485	623.61
414.693	629.75
414.901	748.53
415.11	676.85
415.318	740.34
415.526	766.96
415.734	687.09
415.943	723.96
416.151	754.68
416.359	816.12
416.567	828.4
416.776	852.98
416.984	875.51
417.192	922.61
417.4	895.99
417.608	977.91
417.817	1078.26
418.025	1160.17
418.233	1197.04
418.441	1186.8
418.649	1176.56
418.857	1184.75
419.065	1258.48
419.273	1299.44
419.481	1278.96
419.689	1319.92
419.897	1493.99
420.105	1508.33
420.313	1500.14
420.521	1688.55
420.729	1590.25
420.937	1651.69
421.145	1801.19
421.353	1899.49
421.561	1985.51
421.769	1960.93
421.977	1981.41
422.185	1971.17
422.393	2169.82
422.601	2233.31
422.809	2188.25
423.017	2329.56
423.224	2464.73
423.432	2376.67
423.64	2534.36
423.848	2776.02
424.056	2638.81
424.263	2802.65
424.471	2786.26
424.679	2921.43
424.887	3075.03
425.094	3081.17
425.302	3216.33
425.51	3318.73
425.718	3322.83
425.925	3492.81
426.133	3523.53
426.341	3621.83
426.548	3892.16
426.756	3879.88
426.964	3990.47
427.171	4176.83
427.379	4363.2
427.586	4385.73
427.794	4682.68
428.001	4686.78
428.209	5100.47
428.417	4645.82
428.624	5149.62
428.832	5168.05
429.039	5235.63
429.247	5159.86
429.454	5581.74
429.662	6020
429.869	5557.16
430.076	6052.77
430.284	5917.61
430.491	6183.84
430.699	6527.9
430.906	6472.61
431.114	6579.1
431.321	7142.29
431.528	6927.25
431.736	7388.05
431.943	7592.84
432.15	7439.25
432.358	7642
432.565	7818.12
432.772	7916.42
432.979	8350.59
433.187	8588.16
433.394	8502.14
433.601	9194.36
433.808	9038.71
434.016	8940.41
434.223	9487.22
434.43	10021.74
434.637	9866.09
434.844	10570.59
435.052	10842.97
435.259	10720.09
435.466	10599.26
435.673	10662.75
435.88	11371.35
436.087	11952.97
436.294	11946.83
436.501	11455.31
436.708	11785.04
436.915	12290.88
437.122	12866.36
437.329	12927.8
437.537	13181.75
437.743	13447.99
437.95	13235
438.157	13916.97
438.364	14383.91
438.571	14459.68
438.778	14674.72
438.985	15772.43
439.192	15215.38
439.399	15530.77
439.606	15401.75
439.813	16233.22
440.02	17173.24
440.227	16712.45
440.433	16702.21
440.64	17378.04
440.847	17292.02
441.054	17683.19
441.261	18846.43
441.467	18537.19
441.674	19081.95
441.881	19712.72
442.088	19548.89
442.294	19208.92
442.501	19927.76
442.708	20470.47
442.914	21291.71
443.121	21801.65
443.328	21222.08
443.534	23200.41
443.741	22370.99
443.948	22076.08
444.154	23810.71
444.361	23229.09
444.568	23454.36
444.774	23564.95
444.981	23941.78
445.187	24664.71
445.394	25643.64
445.6	24920.71
445.807	27771.48
446.013	26432.11
446.22	27017.83
446.426	28084.82
446.633	27970.13
446.839	29405.76
447.046	27652.7
447.252	29510.21
447.459	29841.98
447.665	29182.53
447.871	30888.49
448.078	32141.85
448.284	30612.01
448.491	31595.04
448.697	33059.34
448.903	33237.51
449.11	33544.7
449.316	32850.44
449.522	33585.66
449.728	34198.01
449.935	34789.87
450.141	34666.99
450.347	35510.75
450.553	34329.08
450.76	34949.61
450.966	35764.7
451.172	35590.62
451.378	36381.14
451.584	35551.71
451.791	36313.56
451.997	36434.39
452.203	36766.16
452.409	36825.55
452.615	36725.2
452.821	35162.6
453.027	35015.15
453.233	36657.62
453.44	35451.36
453.646	36086.23
453.852	36198.87
454.058	36633.04
454.264	35332.58
454.47	36317.65
454.676	35125.74
454.882	36370.9
455.088	33270.28
455.294	33819.13
455.5	34208.25
455.705	34806.25
455.911	33776.12
456.117	32823.82
456.323	32537.1
456.529	30868.01
456.735	31715.87
456.941	31339.04
457.147	30894.63
457.352	29966.9
457.558	29227.59
457.764	29416
457.97	29119.04
458.176	28377.68
458.381	28435.02
458.587	26645.1
458.793	26595.95
458.999	25772.66
459.204	27429.47
459.41	26440.3
459.616	24748.68
459.821	24898.18
460.027	24726.15
460.233	23978.64
460.438	22942.37
460.644	23161.5
460.85	22092.46
461.055	21775.03
461.261	21701.3
461.466	20327.11
461.672	19804.88
461.878	20949.7
462.083	19598.04
462.289	19245.79
462.494	19096.28
462.7	18250.47
462.905	17513.2
463.111	18428.65
463.316	18371.3
463.522	17873.65
463.727	17836.78
463.932	17849.07
464.138	18070.25
464.343	17412.85
464.549	17439.48
464.754	17812.21
464.959	17699.57
465.165	17636.08
465.37	16780.03
465.575	16546.56
465.781	17365.75
465.986	17138.43
466.191	16431.88
466.397	16087.82
466.602	15747.86
466.807	16007.95
467.012	15934.22
467.218	15717.14
467.423	15555.35
467.628	15864.59
467.833	16478.98
468.038	16016.14
468.244	15383.32
468.449	15813.39
468.654	15366.93
468.859	15432.47
469.064	15334.17
469.269	14637.86
469.474	14648.1
469.679	15029.02
469.885	14730.02
470.09	14883.61
470.295	14865.18
470.5	14453.54
470.705	14439.2
470.91	14402.34
471.115	13992.75
471.32	14187.3
471.525	14105.38
471.73	13929.26
471.935	13603.63
472.139	13263.67
472.344	13425.46
472.549	13427.51
472.754	12993.34
472.959	13130.55
473.164	12573.5
473.369	12596.03
473.574	12952.38
473.778	12837.69
473.983	12761.92
474.188	12735.29
474.393	12090.18
474.598	12241.73
474.802	12108.62
475.007	11862.86
475.212	11842.38
475.417	11373.39
475.621	11477.84
475.826	11496.27
476.031	11291.48
476.235	11207.51
476.44	11252.56
476.645	11072.34
476.849	10916.7
477.054	10779.48
477.259	10806.11
477.463	10648.41
477.668	10539.87
477.872	10433.38
478.077	10453.86
478.282	10154.85
478.486	10195.81
478.691	10070.89
478.895	9997.16
479.1	9968.49
479.304	9892.71
479.509	9540.46
479.713	9757.55
479.918	9610.09
480.122	9571.18
480.326	9712.49
480.531	9735.02
480.735	9575.28
480.94	9513.84
481.144	9825.13
481.348	9259.89
481.553	9368.43
481.757	9171.83
481.961	9350
482.166	9282.42
482.37	9395.06
482.574	9132.92
482.778	9282.42
482.983	9468.78
483.187	9216.88
483.391	9266.03
483.595	9259.89
483.8	9132.92
484.004	9263.99
484.208	9343.86
484.412	9151.35
484.616	9200.5
484.821	9292.66
485.025	8872.82
485.229	9352.05
485.433	9216.88
485.637	9042.81
485.841	9198.45
486.045	9155.44
486.249	9184.12
486.453	8901.5
486.657	9188.21
486.861	9169.78
487.065	8870.78
487.269	9268.08
487.473	8823.67
487.677	9083.77
487.881	9419.63
488.085	9229.17
488.289	9055.09
488.493	9159.54
488.697	9280.37
488.901	9177.97
489.105	9116.53
489.309	9362.29
489.512	9120.63
489.716	9171.83
489.92	9263.99
490.124	9321.33
490.328	9393.01
490.531	9139.06
490.735	9210.74
490.939	9446.26
491.143	9247.6
491.346	9409.39
491.55	9618.29
491.754	9552.75
491.958	9585.52
492.161	9603.95
492.365	9642.86
492.569	9587.57
492.772	9786.22
492.976	9812.84
493.18	9788.27
493.383	9769.83
493.587	9788.27
493.79	10107.75
493.994	9716.59
494.197	10015.59
494.401	10142.57
494.605	10169.19
494.808	10267.49
495.012	10232.68
495.215	10449.76
495.419	10195.81
495.622	10404.71
495.825	10861.4
496.029	10591.07
496.232	10910.55
496.436	10797.92
496.639	11072.34
496.843	11223.89
497.046	11203.41
497.249	11098.97
497.453	11332.44
497.656	11443.03
497.859	11600.72
498.063	11739.98
498.266	11780.94
498.469	11639.63
498.673	12145.48
498.876	12127.05
499.079	12053.32
499.282	12198.73
499.485	12495.68
499.689	12563.26
499.892	12837.69
500.095	12643.14
500.298	13095.74
500.501	12880.7
500.705	13335.35
500.908	13159.22
501.111	13536.05
501.314	13701.93
501.517	13785.9
501.72	13974.31
501.923	13902.64
502.126	14222.12
502.329	14465.83
502.532	14385.96
502.735	14758.69
502.938	14820.13
503.141	14867.23
503.344	15063.83
503.547	15129.37
503.75	15348.5
503.953	15491.86
504.156	15717.14
504.359	16089.87
504.562	16048.91
504.765	16544.52
504.968	16573.19
505.17	16540.42
505.373	16681.73
505.576	17195.77
505.779	17148.67
505.982	17298.17
506.185	17570.55
506.387	17881.84
506.59	17769.2
506.793	18307.82
506.996	18053.87
507.198	18522.85
507.401	18418.41
507.604	18615.01
507.807	19278.55
508.009	19229.4
508.212	19305.18
508.415	19319.51
508.617	19729.11
508.82	19745.49
509.022	19747.54
509.225	20355.79
509.428	20556.49
509.63	20525.77
509.833	20521.67
510.035	21248.7
510.238	20935.36
510.44	21064.38
510.643	21707.44
510.845	22045.36
511.048	21818.04
511.25	22078.13
511.453	22104.75
511.655	23095.97
511.858	22825.64
512.06	22960.8
512.262	22899.36
512.465	23399.07
512.667	23497.37
512.87	23751.32
513.072	23526.04
513.274	24205.97
513.477	24693.38
513.679	24701.58
513.881	24789.64
514.084	25148.03
514.286	25176.7
514.488	25225.86
514.69	25836.15
514.893	25977.46
515.095	26147.44
515.297	26352.24
515.499	26563.18
515.701	26575.47
515.904	27101.79
516.106	27335.26
516.308	27419.23
516.51	27830.87
516.712	28054.1
516.914	28054.1
517.116	28398.16
517.318	28512.84
517.52	28645.96
517.722	28412.49
517.925	29217.35
518.127	29319.74
518.329	29643.32
518.531	29454.91
518.733	30104.12
518.935	30450.22
519.136	30382.64
519.338	30886.44
519.54	31058.47
519.742	31279.65
519.944	31502.88
520.146	31812.12
520.348	31812.12
520.55	32299.54
520.752	32578.06
520.954	33180.17
521.155	32905.74
521.357	33085.96
521.559	33004.04
521.761	33833.47
521.963	33536.51
522.164	33710.59
522.366	34083.32
522.568	34279.92
522.77	34689.52
522.971	34724.33
523.173	34716.14
523.375	35217.89
523.576	35267.05
523.778	35236.33
523.98	35846.62
524.181	35662.3
524.383	35858.91
524.584	36055.51
524.786	36317.65
524.988	36137.43
525.189	36991.44
525.391	36727.25
525.592	37341.64
525.794	37325.25
525.995	37272.01
526.197	37657.03
526.398	37814.72
526.6	37978.56
526.801	37970.36
527.003	38197.69
527.204	37784
527.406	38214.07
527.607	38142.39
527.808	38617.52
528.01	38230.46
528.211	38652.34
528.412	39063.98
528.614	38939.05
528.815	39242.15
529.016	39276.97
529.218	39092.65
529.419	38922.67
529.62	39193
529.822	39295.4
530.023	39502.25
530.224	39514.53
530.425	39383.46
530.626	39324.07
530.828	39375.27
531.029	40569.24
531.23	39580.07
531.431	39709.09
531.632	39635.36
531.833	40196.51
532.035	39803.3
532.236	40094.11
532.437	40155.55
532.638	39930.27
532.839	40303
533.04	40245.66
533.241	39856.54
533.442	41060.75
533.643	40464.79
533.844	40530.33
534.045	40741.27
534.246	40069.53
534.447	40497.56
534.648	40047
534.849	40128.92
535.05	40081.82
535.251	40640.92
535.451	40548.76
535.652	40501.65
535.853	40556.95
536.054	40710.55
536.255	40812.95
536.456	40223.13
536.657	40905.1
536.857	40208.79
537.058	40370.58
537.259	40544.66
537.46	40468.89
537.66	40411.54
537.861	40606.1
538.062	40157.6
538.263	40968.59
538.463	40315.29
538.664	40300.95
538.865	40647.06
539.065	40640.92
539.266	40126.88
539.466	40718.74
539.667	39846.3
539.868	41013.65
540.068	40733.07
540.269	40401.3
540.469	40688.02
540.67	40348.06
540.87	40303
541.071	40438.17
541.271	40714.64
541.472	40329.62
541.672	40612.24
541.873	40022.43
542.073	39993.76
542.274	40384.92
542.474	40538.52
542.675	39801.25
542.875	41107.85
543.075	40018.33
543.276	39995.81
543.476	40356.25
543.676	40341.91
543.877	40317.34
544.077	40468.89
544.277	39911.84
544.478	40212.89
544.678	40241.56
544.878	39825.82
545.078	40051.1
545.279	39635.36
545.479	40126.88
545.679	40233.37
545.879	40047
546.079	40245.66
546.28	40378.78
546.48	39791.01
546.68	40364.44
546.88	39831.97
547.08	39981.47
547.28	39649.7
547.48	39553.44
547.68	40059.29
547.88	39610.79
548.081	40026.53
548.281	39954.85
548.481	40118.68
548.681	39827.87
548.881	39917.98
549.081	39985.57
549.28	39739.81
549.48	40112.54
549.68	39643.56
549.88	40475.03
550.08	39860.64
550.28	40008.09
550.48	39694.75
550.68	39971.23
550.88	39784.86
551.08	39702.95
551.279	39963.04
551.479	39510.44
551.679	39932.32
551.879	39438.76
552.079	39709.09
552.278	39401.89
552.478	39672.23
552.678	39676.32
552.878	39887.26
553.077	39668.13
553.277	39371.18
553.477	39733.67
553.676	39438.76
553.876	39543.2
554.076	39397.8
554.275	39291.3
554.475	39172.52
554.674	39408.04
554.874	39324.07
555.074	39035.31
555.273	39330.22
555.473	39551.4
555.672	38828.46
555.872	39217.58
556.071	39512.49
556.271	39395.75
556.47	39201.19
556.67	38560.18
556.869	38857.14
557.068	39381.42
557.268	38613.43
557.467	38789.55
557.667	39018.92
557.866	38812.08
558.065	38832.56
558.265	38822.32
558.464	38717.87
558.663	38775.22
558.863	37931.45
559.062	38767.02
559.261	38414.77
559.461	38730.16
559.66	38332.86
559.859	38400.44
560.058	37980.6
560.258	38326.71
560.457	37824.96
560.656	38199.74
560.855	37644.74
561.054	38025.66
561.253	37743.04
561.453	38005.18
561.652	37806.53
561.851	38111.67
562.05	37603.78
562.249	37552.58
562.448	37775.81
562.647	37605.83
562.846	37489.09
563.045	37571.01
563.244	37278.15
563.443	37839.29
563.642	37134.79
563.841	37366.21
564.04	37038.54
564.239	37378.5
564.438	37169.61
564.637	37102.03
564.836	36850.13
565.035	36633.04
565.234	37099.98
565.432	36878.8
565.631	36737.49
565.83	36649.42
566.029	36383.19
566.228	36100.57
566.427	36456.92
566.625	36428.24
566.824	35719.65
567.023	36659.66
567.222	35494.37
567.42	36598.23
567.619	35647.97
567.818	35811.81
568.016	35721.69
568.215	35848.67
568.414	35965.4
568.612	36334.04
568.811	35484.13
569.01	35854.81
569.208	35387.88
569.407	35592.67
569.605	35101.16
569.804	35437.03
570.002	34714.09
570.201	34978.28
570.4	34562.54
570.598	34535.92
570.797	34646.51
570.995	34693.61
571.193	34191.86
571.392	34955.75
571.59	34404.85
571.789	34613.74
571.987	34470.39
572.186	34230.77
572.384	34025.98
572.582	34423.28
572.781	34456.05
572.979	33755.64
573.177	33937.91
573.376	34171.38
573.574	33774.08
573.772	33665.53
573.971	33622.53
574.169	33591.81
574.367	33354.24
574.565	33249.8
574.763	33559.04
574.962	33337.86
575.16	32801.29
575.358	33114.63
575.556	32852.49
575.754	33171.97
575.952	32571.92
576.151	33126.92
576.349	32481.81
576.547	32655.89
576.745	32573.97
576.943	32520.72
577.141	32252.44
577.339	32629.26
577.537	32188.95
577.735	32262.68
577.933	32016.92
578.131	32287.25
578.329	31777.31
578.527	31521.31
578.725	31896.09
578.923	31664.67
579.121	31613.47
579.319	31558.17
579.516	31592.99
579.714	31404.58
579.912	31478.3
580.11	31230.5
580.308	31455.78
580.506	30857.77
580.704	30831.15
580.901	30994.98
581.099	30964.26
581.297	30835.24
581.495	30802.47
581.692	31091.24
581.89	30587.44
582.088	30704.17
582.285	30294.58
582.483	30698.03
582.681	30519.85
582.878	30374.45
583.076	30186.04
583.274	30472.75
583.471	29663.8
583.669	30157.36
583.866	30046.77
584.064	30016.05
584.262	29631.04
584.459	29856.31
584.657	29622.84
584.854	29786.68
585.052	29168.19
585.249	29360.7
585.447	29385.28
585.644	29119.04
585.841	29280.83
586.039	29078.08
586.236	28643.91
586.434	28856.9
586.631	28660.3
586.828	28885.58
587.026	28607.05
587.223	29108.8
587.42	28639.82
587.618	28643.91
587.815	28023.38
588.012	28166.74
588.21	28439.12
588.407	28379.73
588.604	27877.97
588.801	28000.85
588.999	27804.25
589.196	28103.25
589.393	27832.92
589.59	27798.1
589.787	27695.71
589.984	27320.93
590.182	27314.78
590.379	27372.13
590.576	27169.38
590.773	27277.92
590.97	27116.13
591.167	27357.79
591.364	27118.18
591.561	26948.2
591.758	26718.82
591.955	26833.51
592.152	26688.1
592.349	26608.23
592.546	26638.95
592.743	26430.06
592.94	26446.44
593.137	26464.88
593.334	26509.93
593.531	25920.12
593.727	26442.35
593.924	26335.85
594.121	25920.12
594.318	26253.94
594.515	25932.4
594.712	25977.46
594.908	25621.11
595.105	25809.53
595.302	25502.33
595.499	25772.66
595.696	25270.91
595.892	25406.08
596.089	25424.51
596.286	25533.05
596.482	25111.17
596.679	25182.85
596.876	25127.55
597.072	24994.43
597.269	24754.82
597.466	24593.03
597.662	24713.86
597.859	24851.08
598.055	24529.55
598.252	24484.49
598.448	24435.34
598.645	24609.42
598.841	24216.21
599.038	24351.37
599.234	23954.07
599.431	23757.46
599.627	23798.42
599.824	24025.75
600.02	23866
600.217	24074.9
600.413	23691.93
600.609	23884.44
600.806	23675.54
601.002	23798.42
601.198	23532.18
601.395	23591.58
601.591	23022.24
601.787	23388.83
601.984	23143.07
602.18	23337.63
602.376	23077.54
602.572	22950.56
602.769	22909.6
602.965	22776.48
603.161	22856.36
603.357	22579.88
603.553	22909.6
603.75	22686.37
603.946	22379.18
604.142	22491.82
604.338	21797.56
604.534	22471.34
604.73	22207.15
604.926	22121.13
605.122	22235.82
605.318	22096.56
605.514	22057.65
605.71	21981.87
605.906	21844.66
606.102	22100.65
606.298	21512.89
606.494	21836.47
606.69	21865.14
606.886	21883.57
607.082	21256.89
607.278	21867.19
607.474	21119.68
607.67	21424.83
607.866	21377.72
608.062	21605.05
608.257	21222.08
608.453	21088.96
608.649	21535.42
608.845	21060.29
609.041	21297.85
609.236	21199.55
609.432	21050.05
609.628	21152.45
609.824	20923.07
610.019	20679.36
610.215	21131.97
610.411	20878.02
610.606	20863.68
610.802	20689.6
610.998	20904.64
611.193	20488.9
611.389	20339.4
611.584	20429.51
611.78	20216.52
611.976	20419.27
612.171	20564.68
612.367	20472.52
612.562	20159.18
612.758	19954.38
612.953	20363.98
613.149	20142.8
613.344	20056.78
613.539	20376.27
613.735	20165.32
613.93	19991.25
614.126	20073.17
614.321	20140.75
614.517	19876.56
614.712	20187.85
614.907	20130.51
615.103	20052.69
615.298	19745.49
615.493	19749.59
615.688	19485.4
615.884	20038.35
616.079	19397.34
616.274	19737.3
616.47	19774.16
616.665	19669.72
616.86	19606.23
617.055	19663.57
617.25	19481.3
617.445	19362.52
617.641	19176.16
617.836	19366.62
618.031	19307.23
618.226	19372.76
618.421	19141.34
618.616	19204.83
618.811	19049.18
619.006	19051.23
619.201	18993.89
619.396	19049.18
619.591	18623.2
619.786	18940.64
619.981	18625.25
620.176	18850.53
620.371	18447.08
620.566	18703.07
620.761	18283.24
620.956	18189.03
621.151	18166.51
621.346	18336.49
621.541	17939.18
621.735	18086.64
621.93	17715.95
622.125	17939.18
622.32	17398.52
622.515	17650.42
622.709	17513.2
622.904	17722.1
623.099	17345.27
623.294	17384.18
623.488	17005.31
623.683	17167.1
623.878	17042.17
624.072	16745.22
624.267	16816.9
624.462	16548.61
624.656	16712.45
624.851	16554.76
625.046	16313.1
625.24	16493.32
625.435	16349.96
625.629	16257.8
625.824	16155.4
626.018	16362.25
626.213	15725.33
626.407	16116.49
626.602	15962.89
626.796	15811.34
626.991	15665.94
627.185	15534.87
627.38	15397.65
627.574	15328.02
627.768	15192.86
627.963	15196.95
628.157	15069.98
628.352	15252.25
628.546	14709.54
628.74	15037.21
628.935	14764.83
629.129	14791.45
629.323	14646.05
629.517	14627.62
629.712	14521.12
629.906	14371.62
630.1	14201.64
630.294	14254.89
630.489	13896.49
630.683	14203.69
630.877	14007.08
631.071	13853.48
631.265	14021.42
631.459	13861.68
631.653	13880.11
631.848	13814.57
632.042	13544.24
632.236	13632.3
632.43	13327.16
632.624	13554.48
632.818	13271.86
633.012	12972.86
633.206	13273.91
633.4	13259.57
633.594	12901.18
633.788	12968.76
633.982	12985.15
634.176	12938.04
634.369	12860.22
634.563	12704.57
634.757	12696.38
634.951	12587.84
635.145	12477.25
635.339	12862.27
635.533	12589.89
635.726	12452.67
635.92	12149.57
636.114	12235.59
636.308	11969.35
636.501	12131.14
636.695	12196.68
636.889	11932.49
637.083	11963.21
637.276	11832.14
637.47	11854.67
637.664	11690.83
637.857	11909.96
638.051	11604.81
638.244	11637.58
638.438	11516.75
638.632	11662.16
638.825	11213.65
639.019	11256.66
639.212	11393.87
639.406	11230.04
639.599	11264.85
639.793	11232.08
639.986	10959.7
640.18	10902.36
640.373	10914.65
640.567	10877.79
640.76	10914.65
640.954	10804.06
641.147	10593.12
641.34	10586.97
641.534	10777.44
641.727	10560.35
641.92	10498.91
642.114	10433.38
642.307	10330.98
642.5	10199.91
642.694	10408.8
642.887	10208.1
643.08	10206.05
643.273	10193.76
643.467	10165.09
643.66	10005.35
643.853	10083.17
644.046	10113.89
644.239	9976.68
644.432	9749.36
644.626	9751.4
644.819	9763.69
645.012	9655.15
645.205	9632.62
645.398	9544.56
645.591	9554.8
645.784	9481.07
645.977	9472.88
646.17	9253.75
646.363	9302.9
646.556	9388.91
646.749	9280.37
646.942	9247.6
647.135	9175.92
647.328	9337.71
647.521	9044.85
647.714	8895.35
647.907	8838.01
648.099	8934.26
648.292	8866.68
648.485	9016.18
648.678	8565.63
648.871	8770.43
649.064	8835.96
649.256	8549.25
649.449	8590.2
649.642	8491.9
649.835	8450.94
650.027	8452.99
650.22	8403.84
650.413	8283.01
650.605	8270.72
650.798	8360.83
650.991	8121.22
651.183	8291.2
651.376	8242.05
651.568	8090.5
651.761	8190.85
651.954	7998.34
652.146	7885.7
652.339	8004.49
652.531	8022.92
652.724	7781.26
652.916	7773.07
653.109	7807.88
653.301	7928.71
653.494	7771.02
653.686	7500.69
653.879	7674.76
654.071	7570.32
654.263	7584.65
654.456	7494.54
654.648	7402.38
654.84	7336.85
655.033	7195.54
655.225	7150.48
655.417	7222.16
655.61	7310.22
655.802	7252.88
655.994	7130
656.186	7256.98
656.379	7043.99
656.571	7021.46
656.763	7134.1
656.955	7035.8
657.148	6982.55
657.34	7011.22
657.532	6847.38
657.724	6837.14
657.916	6824.86
658.108	6742.94
658.3	6757.27
658.492	6835.1
658.684	6634.39
658.876	6593.44
659.068	6593.44
659.26	6443.93
659.452	6351.78
659.644	6546.33
659.836	6632.35
660.028	6384.54
660.22	6568.86
660.412	6280.1
660.604	6411.17
660.796	6419.36
660.988	6511.52
661.18	6257.57
661.372	6042.53
661.563	6138.79
661.755	6116.26
661.947	6116.26
662.139	6222.75
662.331	6149.03
662.522	5968.8
662.714	5899.17
662.906	5819.3
663.097	6155.17
663.289	5890.98
663.481	5884.84
663.673	5768.1
663.864	5811.11
664.056	5845.93
664.247	5700.52
664.439	5612.46
664.631	5706.66
664.822	5776.3
665.014	5817.26
665.205	5702.57
665.397	5546.92
665.588	5639.08
665.78	5522.35
665.971	5505.96
666.163	5587.88
666.354	5548.97
666.546	5526.44
666.737	5446.57
666.929	5284.78
667.12	5481.39
667.311	5434.29
667.503	5233.58
667.694	5342.13
667.885	5299.12
668.077	5276.59
668.268	5219.25
668.459	5284.78
668.651	5071.79
668.842	5233.58
669.033	5059.51
669.224	4977.59
669.416	5022.64
669.607	5065.65
669.798	4924.34
669.989	5104.56
670.18	4860.85
670.371	4985.78
670.563	5030.84
670.754	5120.95
670.945	4957.11
671.136	4895.67
671.327	4832.18
671.518	4987.83
671.709	4783.03
671.9	4760.5
672.091	4860.85
672.282	4789.17
672.473	4817.85
672.664	4772.79
672.855	4727.74
673.046	4705.21
673.237	4770.74
673.428	4690.87
673.619	4707.26
673.809	4563.9
674	4563.9
674.191	4496.32
674.382	4469.69
674.573	4621.24
674.764	4557.75
674.954	4524.99
675.145	4570.04
675.336	4486.08
675.527	4490.17
675.717	4504.51
675.908	4486.08
676.099	4500.41
676.289	4338.62
676.48	4451.26
676.671	4207.55
676.861	4385.73
677.052	4375.49
677.243	4250.56
677.433	4260.8
677.624	4393.92
677.814	4424.64
678.005	4287.42
678.195	4182.98
678.386	4260.8
678.576	4176.83
678.767	4084.67
678.957	4209.6
679.148	4189.12
679.338	4228.03
679.529	4195.26
679.719	4033.47
679.909	4293.57
680.1	4133.82
680.29	4187.07
680.481	4146.11
680.671	4137.92
680.861	4060.1
681.052	4004.8
681.242	4182.98
681.432	3974.08
681.622	3937.22
681.813	4015.04
682.003	4096.96
682.193	3957.7
682.383	4107.2
682.573	4041.67
682.764	3906.5
682.954	3853.25
683.144	3972.04
683.334	3908.55
683.524	3933.12
683.714	3781.57
683.904	3871.68
684.094	3886.02
684.284	3744.71
684.474	3947.46
684.664	3808.2
684.854	3959.75
685.044	3783.62
685.234	3898.31
685.424	3812.29
685.614	3904.45
685.804	3757
685.994	3689.42
686.184	3623.88
686.374	3646.41
686.564	3699.66
686.753	3789.77
686.943	3742.66
687.133	3736.52
687.323	3677.13
687.513	3617.74
687.702	3718.09
687.892	3546.06
688.082	3675.08
688.272	3673.03
688.461	3441.61
688.651	3548.11
688.841	3544.01
689.03	3363.79
689.22	3431.37
689.41	3462.09
689.599	3433.42
689.789	3517.39
689.979	3316.69
690.168	3386.32
690.358	3429.32
690.547	3328.97
690.737	3339.21
690.926	3339.21
691.116	3378.12
691.305	3298.25
691.495	3273.68
691.684	3263.44
691.874	3218.38
692.063	3218.38
692.252	3144.66
692.442	3152.85
692.631	3351.5
692.82	3195.86
693.01	3226.57
693.199	3152.85
693.388	3111.89
693.578	3042.26
693.767	3204.05
693.956	3232.72
694.146	2956.24
694.335	2995.15
694.524	3038.16
694.713	3077.07
694.902	3060.69
695.092	3007.44
695.281	3138.51
695.47	2954.19
695.659	3013.59
695.848	2948.05
696.037	2999.25
696.226	2956.24
696.415	2923.48
696.604	3072.98
696.793	2837.46
696.982	2804.69
697.171	2870.23
697.36	2966.48
697.549	2880.47
697.738	2773.97
697.927	2935.76
698.116	2937.81
698.305	2804.69
698.494	2841.56
698.683	2859.99
698.872	2800.6
699.061	2833.36
699.25	2843.6
699.438	2862.04
699.627	2853.84
699.816	2874.32
700.005	2751.45
700.193	2642.9
700.382	2890.71
700.571	2700.25
700.76	2743.25
700.948	2710.49
701.137	2683.86
701.326	2751.45
701.514	2653.14
701.703	2794.45
701.892	2747.35
702.08	2708.44
702.269	2716.63
702.457	2618.33
702.646	2712.53
702.834	2780.12
703.023	2634.71
703.212	2632.66
703.4	2755.54
703.589	2618.33
703.777	2800.6
703.965	2612.18
704.154	2735.06
704.342	2667.48
704.531	2741.21
704.719	2692.05
704.907	2597.85
705.096	2515.93
705.284	2620.38
705.472	2647
705.661	2546.65
705.849	2741.21
706.037	2642.9
706.226	2530.27
706.414	2659.29
706.602	2573.27
706.79	2683.86
706.979	2620.38
707.167	2671.58
707.355	2687.96
707.543	2618.33
707.731	2626.52
707.919	2536.41
708.107	2628.57
708.296	2614.23
708.484	2585.56
708.672	2634.71
708.86	2628.57
709.048	2610.14
709.236	2624.47
709.424	2698.2
709.612	2640.86
709.8	2536.41
709.988	2610.14
710.176	2563.03
710.364	2624.47
710.551	2532.31
710.739	2507.74
710.927	2548.7
711.115	2579.42
711.303	2653.14
711.491	2526.17
711.679	2532.31
711.866	2743.25
712.054	2511.83
712.242	2692.05
712.43	2612.18
712.617	2597.85
712.805	2577.37
712.993	2640.86
713.181	2456.54
713.368	2597.85
713.556	2599.9
713.744	2466.78
713.931	2708.44
714.119	2702.29
714.306	2520.03
714.494	2515.93
714.682	2603.99
714.869	2489.31
715.057	2622.42
715.244	2626.52
715.432	2540.51
715.619	2579.42
715.807	2575.32
715.994	2579.42
716.182	2548.7
716.369	2501.59
716.556	2548.7
716.744	2421.72
716.931	2528.22
717.119	2712.53
717.306	2479.07
717.493	2542.55
717.681	2481.11
717.868	2728.92
718.055	2606.04
718.242	2493.4
718.43	2538.46
718.617	2495.45
718.804	2608.09
718.991	2520.03
719.179	2419.68
719.366	2571.22
719.553	2599.9
719.74	2546.65
719.927	2522.07
720.114	2546.65
720.301	2522.07
720.488	2401.24
720.676	2436.06
720.863	2608.09
721.05	2599.9
721.237	2522.07
721.424	2517.98
721.611	2558.94
721.798	2573.27
721.985	2460.63
722.172	2450.39
722.358	2520.03
722.545	2630.62
722.732	2526.17
722.919	2606.04
723.106	2511.83
723.293	2546.65
723.48	2575.32
723.667	2577.37
723.853	2509.79
724.04	2495.45
724.227	2470.87
724.414	2597.85
724.6	2450.39
724.787	2595.8
724.974	2501.59
725.161	2606.04
725.347	2558.94
725.534	2522.07
725.72	2540.51
725.907	2507.74
726.094	2620.38
726.28	2497.5
726.467	2589.66
726.653	2409.44
726.84	2462.68
727.027	2571.22
727.213	2470.87
727.4	2526.17
727.586	2567.13
727.773	2560.98
727.959	2515.93
728.145	2630.62
728.332	2479.07
728.518	2470.87
728.705	2640.86
728.891	2581.46
729.077	2458.59
729.264	2567.13
729.45	2544.6
729.636	2685.91
729.823	2544.6
730.009	2548.7
730.195	2655.19
730.382	2663.38
730.568	2573.27
730.754	2542.55
730.94	2700.25
731.126	2552.79
731.313	2612.18
731.499	2542.55
731.685	2595.8
731.871	2526.17
732.057	2696.15
732.243	2558.94
732.429	2499.55
732.615	2567.13
732.801	2485.21
732.987	2556.89
733.173	2622.42
733.359	2644.95
733.545	2681.82
733.731	2667.48
733.917	2659.29
734.103	2493.4
734.289	2599.9
734.475	2481.11
734.661	2524.12
734.847	2507.74
735.033	2683.86
735.219	2474.97
735.404	2616.28
735.59	2552.79
735.776	2655.19
735.962	2550.75
736.148	2730.97
736.333	2569.18
736.519	2649.05
736.705	2532.31
736.89	2587.61
737.076	2634.71
737.262	2636.76
737.447	2515.93
737.633	2485.21
737.819	2522.07
738.004	2632.66
738.19	2448.35
738.375	2573.27
738.561	2597.85
738.747	2624.47
738.932	2614.23
739.118	2548.7
739.303	2495.45
739.489	2614.23
739.674	2460.63
739.859	2499.55
740.045	2593.75
740.23	2560.98
740.416	2468.83
740.601	2538.46
740.786	2520.03
740.972	2520.03
741.157	2442.2
741.342	2493.4
741.528	2333.66
741.713	2626.52
741.898	2456.54
742.084	2499.55
742.269	2419.68
742.454	2288.61
742.639	2399.2
742.824	2560.98
743.01	2472.92
743.195	2431.96
743.38	2446.3
743.565	2307.04
743.75	2337.76
743.935	2317.28
744.12	2479.07
744.305	2366.43
744.49	2317.28
744.675	2329.56
744.86	2259.93
745.045	2405.34
745.23	2421.72
745.415	2333.66
745.6	2358.24
745.785	2253.79
745.97	2280.41
746.155	2249.69
746.34	2296.8
746.525	2270.17
746.71	2302.94
746.895	2212.83
747.079	2225.12
747.264	2116.58
747.449	2237.41
747.634	2143.2
747.819	2200.54
748.003	2198.49
748.188	2116.58
748.373	2122.72
748.557	2048.99
748.742	2069.47
748.927	2012.13
749.111	2071.52
749.296	2126.82
749.481	2096.1
749.665	2053.09
749.85	2044.9
750.034	2071.52
750.219	2001.89
750.404	1934.31
750.588	1997.79
750.773	1879.01
750.957	1962.98
751.141	1919.97
751.326	1938.4
751.51	1907.68
751.695	1932.26
751.879	1913.83
752.064	1907.68
752.248	1907.68
752.432	1868.77
752.617	1946.59
752.801	1856.48
752.985	1725.41
753.17	1725.41
753.354	1827.81
753.538	1827.81
753.722	1786.85
753.907	1686.5
754.091	1817.57
754.275	1709.03
754.459	1725.41
754.643	1739.75
754.828	1762.28
755.012	1704.93
755.196	1655.78
755.38	1633.26
755.564	1590.25
755.748	1682.41
755.932	1663.97
756.116	1653.73
756.3	1598.44
756.484	1580.01
756.668	1518.57
756.852	1528.81
757.036	1623.02
757.22	1512.42
757.404	1455.08
757.588	1571.82
757.772	1481.71
757.956	1477.61
758.14	1487.85
758.323	1522.66
758.507	1541.1
758.691	1459.18
758.875	1549.29
759.059	1453.03
759.242	1483.75
759.426	1537
759.61	1426.41
759.794	1381.35
759.977	1371.12
760.161	1473.51
760.345	1457.13
760.528	1436.65
760.712	1350.64
760.895	1403.88
761.079	1367.02
761.263	1352.68
761.446	1238
761.63	1246.19
761.813	1389.55
761.997	1297.39
762.18	1317.87
762.364	1254.38
762.547	1194.99
762.731	1334.25
762.914	1192.94
763.098	1305.58
763.281	1227.76
763.464	1250.28
763.648	1287.15
763.831	1244.14
764.015	1240.05
764.198	1278.96
764.381	1248.24
764.564	1250.28
764.748	1264.62
764.931	1190.89
765.114	1176.56
765.297	1242.09
765.481	1211.37
765.664	1201.13
765.847	1121.26
766.03	1242.09
766.213	1270.76
766.397	1119.21
766.58	1156.08
766.763	1272.81
766.946	1135.6
767.129	1207.28
767.312	1063.92
767.495	1094.64
767.678	1172.46
767.861	1133.55
768.044	1135.6
768.227	1104.88
768.41	1168.37
768.593	1125.36
768.776	1135.6
768.959	1133.55
769.142	1096.69
769.324	936.95
769.507	1141.74
769.69	1108.98
769.873	1104.88
770.056	1113.07
770.239	1145.84
770.421	1104.88
770.604	1035.25
770.787	1108.98
770.97	1098.74
771.152	1029.1
771.335	1016.82
771.518	926.71
771.7	1029.1
771.883	1018.86
772.066	881.65
772.248	1010.67
772.431	1117.17
772.613	953.33
772.796	1020.91
772.978	982
773.161	1022.96
773.343	887.79
773.526	934.9
773.708	957.43
773.891	809.97
774.073	922.61
774.256	961.52
774.438	1025.01
774.621	922.61
774.803	855.03
774.985	941.04
775.168	883.7
775.35	793.59
775.532	883.7
775.715	918.51
775.897	848.88
776.079	766.96
776.261	840.69
776.444	820.21
776.626	852.98
776.808	879.6
776.99	801.78
777.173	758.77
777.355	803.83
777.537	900.08
777.719	830.45
777.901	834.55
778.083	834.55
778.265	797.68
778.447	807.92
778.629	699.38
778.811	779.25
778.993	703.48
779.175	820.21
779.357	764.92
779.539	693.24
779.721	738.29
779.903	769.01
780.085	707.57
780.267	709.62
780.449	736.24
780.631	726
780.812	693.24
780.994	695.29
781.176	674.81
781.358	627.7
781.54	646.13
781.721	762.87
781.903	621.56
782.085	683
782.267	594.93
782.448	615.41
782.63	719.86
782.812	650.23
782.993	646.13
783.175	570.36
783.357	574.46
783.538	656.37
783.72	607.22
783.901	588.79
784.083	566.26
784.264	594.93
784.446	586.74
784.627	605.17
784.809	582.65
784.99	609.27
785.172	543.74
785.353	494.58
785.535	562.17
785.716	570.36
785.897	506.87
786.079	549.88
786.26	523.26
786.441	523.26
786.623	480.25
786.804	478.2
786.985	504.82
787.167	463.86
787.348	556.02
787.529	601.08
787.71	545.78
787.891	472.06
788.073	513.02
788.254	455.67
788.435	480.25
788.616	418.81
788.797	480.25
788.978	484.34
789.159	498.68
789.34	379.9
789.522	412.67
789.703	429.05
789.884	455.67
790.065	465.91
790.246	441.34
790.427	412.67
790.607	451.58
790.788	435.19
790.969	418.81
791.15	404.47
791.331	363.51
791.512	361.47
791.693	453.63
791.874	445.43
792.054	416.76
792.235	388.09
792.416	381.95
792.597	447.48
792.778	386.04
792.958	431.1
793.139	414.71
793.32	355.32
793.5	347.13
793.681	336.89
793.862	349.18
794.042	400.38
794.223	295.93
794.404	357.37
794.584	343.03
794.765	359.42
794.945	349.18
795.126	349.18
795.306	312.32
795.487	371.71
795.667	326.65
795.848	406.52
796.028	332.79
796.209	349.18
796.389	310.27
796.57	289.79
796.75	306.17
796.93	285.69
797.111	269.31
797.291	302.08
797.471	353.27
797.652	347.13
797.832	295.93
798.012	357.37
798.192	318.46
798.373	308.22
798.553	265.21
798.733	340.99
798.913	300.03
799.093	173.05
799.274	312.32
799.454	281.6
799.634	281.6
799.814	291.84
799.994	326.65
800.174	242.68
800.354	222.2
800.534	314.36
800.714	302.08
800.894	322.56
801.074	269.31
801.254	234.49
801.434	308.22
801.614	244.73
801.794	273.4
801.974	617.46
802.154	224.25
802.334	193.53
802.514	220.16
802.693	283.64
802.873	234.49
803.053	302.08
803.233	259.07
803.413	250.88
803.592	326.65
803.772	181.25
803.952	179.2
804.131	257.02
804.311	330.75
804.491	250.88
804.67	171.01
804.85	244.73
805.03	218.11
805.209	263.16
805.389	279.55
805.568	238.59
805.748	211.96
805.928	230.4
806.107	287.74
806.287	230.4
806.466	203.77
806.646	175.1
806.825	236.54
807.004	189.44
807.184	152.57
807.363	152.57
807.543	142.33
807.722	166.91
807.901	197.63
808.081	211.96
808.26	193.53
808.439	252.92
808.619	222.2
808.798	209.92
808.977	173.05
809.156	203.77
809.336	232.44
809.515	173.05
809.694	173.05
809.873	224.25
810.052	183.29
810.231	179.2
810.411	146.43
810.59	150.53
810.769	199.68
810.948	150.53
811.127	185.34
811.306	189.44
811.485	228.35
811.664	193.53
811.843	166.91
812.022	113.66
812.201	214.01
812.38	148.48
812.559	97.28
812.737	271.36
812.916	154.62
813.095	54.27
813.274	177.15
813.453	168.96
813.632	250.88
813.811	185.34
813.989	197.63
814.168	146.43
814.347	168.96
814.526	158.72
814.704	156.67
814.883	175.1
815.062	222.2
815.24	232.44
815.419	140.29
815.598	152.57
815.776	109.57
815.955	175.1
816.133	111.61
816.312	162.81
816.49	162.81
816.669	162.81
816.847	181.25
817.026	173.05
817.204	148.48
817.383	132.09
817.561	171.01
817.74	154.62
817.918	136.19
818.097	158.72
818.275	119.81
818.453	109.57
818.632	138.24
818.81	189.44
818.988	168.96
819.167	195.58
819.345	105.47
819.523	66.56
819.701	99.33
819.879	211.96
820.058	140.29
820.236	203.77
820.414	105.47
820.592	111.61
820.77	121.85
820.948	105.47
821.127	109.57
821.305	201.72
821.483	91.13
821.661	113.66
821.839	29.7
822.017	144.38
822.195	103.42
822.373	187.39
822.551	128
822.729	115.71
822.907	142.33
823.085	160.77
823.262	97.28
823.44	150.53
823.618	33.79
823.796	66.56
823.974	99.33
824.152	46.08
824.329	99.33
824.507	134.14
824.685	111.61
824.863	111.61
825.04	35.84
825.218	113.66
825.396	72.7
825.574	72.7
825.751	84.99
825.929	123.9
826.107	105.47
826.284	107.52
826.462	46.08
826.639	50.18
826.817	132.09
826.994	132.09
827.172	25.6
827.349	76.8
827.527	21.5
827.704	87.04
827.882	146.43
828.059	148.48
828.237	95.23
828.414	121.85
828.591	74.75
828.769	89.09
828.946	-7.17
829.124	105.47
829.301	154.62
829.478	97.28
829.655	99.33
829.833	134.14
830.01	70.65
830.187	89.09
830.364	54.27
830.542	99.33
830.719	146.43
830.896	101.37
831.073	95.23
831.25	72.7
831.427	41.98
831.604	152.57
831.782	117.76
831.959	70.65
832.136	74.75
832.313	125.95
832.49	74.75
832.667	134.14
832.844	66.56
833.021	35.84
833.198	97.28
833.374	64.51
833.551	58.37
833.728	70.65
833.905	89.09
834.082	44.03
834.259	146.43
834.436	91.13
834.612	74.75
834.789	128
834.966	33.79
835.143	70.65
835.319	64.51
835.496	46.08
835.673	54.27
835.85	41.98
836.026	74.75
836.203	97.28
836.38	15.36
836.556	37.89
836.733	39.94
836.909	93.18
837.086	52.22
837.262	52.22
837.439	41.98
837.616	134.14
837.792	50.18
837.968	3.07
838.145	33.79
838.321	33.79
838.498	72.7
838.674	37.89
838.851	58.37
839.027	107.52
839.203	60.42
839.38	142.33
839.556	60.42
839.732	50.18
839.909	29.7
840.085	62.46
840.261	-11.26
840.437	-39.94
840.614	56.32
840.79	89.09
840.966	132.09
841.142	74.75
841.318	39.94
841.494	64.51
841.671	11.26
841.847	41.98
842.023	46.08
842.199	35.84
842.375	109.57
842.551	9.22
842.727	23.55
842.903	78.85
843.079	21.5
843.255	50.18
843.431	15.36
843.607	54.27
843.783	-11.26
843.959	48.13
844.134	91.13
844.31	9.22
844.486	19.46
844.662	9.22
844.838	64.51
845.013	5.12
845.189	54.27
845.365	46.08
845.541	62.46
845.716	11.26
845.892	134.14
846.068	-50.18
846.244	56.32
846.419	-11.26
846.595	-13.31
846.77	41.98
846.946	33.79
847.122	78.85
847.297	66.56
847.473	70.65
847.648	56.32
847.824	76.8
847.999	-35.84
848.175	78.85
848.35	31.74
848.526	82.94
848.701	-9.22
848.876	64.51
849.052	68.61
849.227	-5.12
849.403	5.12
849.578	78.85
849.753	9.22
849.929	31.74
850.104	-31.74
850.279	19.46
850.454	50.18
850.63	-23.55
850.805	33.79
850.98	44.03
851.155	-21.5
851.33	27.65
851.505	5.12
851.681	103.42
851.856	-7.17
852.031	-7.17
852.206	107.52
852.381	-54.27
852.556	1.02
852.731	72.7
852.906	84.99
853.081	60.42
853.256	-15.36
853.431	46.08
853.606	103.42
853.781	70.65
853.956	-5.12
854.131	23.55
854.305	121.85
854.48	9.22
854.655	19.46
854.83	17.41
855.005	-29.7
855.18	21.5
855.354	-15.36
855.529	64.51
855.704	-58.37
855.879	87.04
856.053	17.41
856.228	52.22
856.403	-5.12
856.577	31.74
856.752	50.18
856.926	64.51
857.101	-3.07
857.276	48.13
857.45	-11.26
857.625	91.13
857.799	84.99
857.974	-35.84
858.148	15.36
858.323	1.02
858.497	-37.89
858.672	70.65
858.846	21.5
859.02	-9.22
859.195	35.84
859.369	13.31
859.543	41.98
859.718	72.7
859.892	23.55
860.066	56.32
860.241	-7.17
860.415	48.13
860.589	56.32
860.763	58.37
860.938	15.36
861.112	-1.02
861.286	-39.94
861.46	-27.65
861.634	-19.46
861.808	74.75
861.982	50.18
862.157	-3.07
862.331	-17.41
862.505	29.7
862.679	-44.03
862.853	-11.26
863.027	37.89
863.201	9.22
863.375	-9.22
863.549	41.98
863.722	-11.26
863.896	50.18
864.07	7.17
864.244	21.5
864.418	-58.37
864.592	119.81
864.766	37.89
864.939	-37.89
865.113	13.31
865.287	21.5
865.461	41.98
865.634	-3.07
865.808	58.37
865.982	21.5
866.156	-23.55
866.329	-31.74
866.503	-1.02
866.676	9.22
866.85	-1.02
867.024	-7.17
867.197	-15.36
867.371	31.74
867.544	50.18
867.718	-35.84
867.891	19.46
868.065	-29.7
868.238	11.26
868.412	87.04
868.585	46.08
868.759	-15.36
868.932	-5.12
869.105	68.61
869.279	-44.03
869.452	39.94
869.625	31.74
869.799	9.22
869.972	19.46
870.145	-31.74
870.319	1.02
870.492	5.12
870.665	25.6
870.838	-19.46
871.011	-17.41
871.185	23.55
871.358	19.46
871.531	52.22
871.704	25.6
871.877	56.32
872.05	15.36
872.223	9.22
872.396	23.55
872.569	-35.84
872.742	-1.02
872.915	74.75
873.088	-17.41
873.261	-56.32
873.434	37.89
873.607	9.22
873.78	41.98
873.953	23.55
874.126	29.7
874.299	-1.02
874.471	13.31
874.644	-7.17
874.817	3.07
874.99	35.84
875.163	-91.13
875.335	11.26
875.508	-17.41
875.681	29.7
875.853	-15.36
876.026	48.13
876.199	-7.17
876.371	37.89
876.544	39.94
876.717	-11.26
876.889	-13.31
877.062	46.08
877.234	-74.75
877.407	3.07
877.579	-78.85
877.752	-19.46
877.924	41.98
878.097	56.32
878.269	-21.5
878.442	46.08
878.614	7.17
878.786	-9.22
878.959	-13.31
879.131	-17.41
879.303	-31.74
879.476	33.79
879.648	52.22
879.82	-103.42
879.993	13.31
880.165	41.98
880.337	-11.26
880.509	35.84
880.681	-87.04
880.854	-23.55
881.026	-9.22
881.198	158.72
881.37	31.74
881.542	1.02
881.714	-15.36
881.886	84.99
882.058	3.07
882.23	5.12
882.402	13.31
882.574	-5.12
882.746	13.31
882.918	80.89
883.09	115.71
883.262	-82.94
883.434	-17.41
883.606	11.26
883.778	11.26
883.95	-1.02
884.122	48.13
884.293	58.37
884.465	39.94
884.637	-17.41
884.809	-76.8
884.98	21.5
885.152	7.17
885.324	25.6
885.496	-64.51
885.667	-25.6
885.839	-84.99
886.011	76.8
886.182	-35.84
886.354	33.79
886.525	48.13
886.697	52.22
886.869	-60.42
887.04	15.36
887.212	-7.17
887.383	21.5
887.555	-15.36
887.726	-9.22
887.897	37.89
888.069	46.08
888.24	-44.03
888.412	-66.56
888.583	46.08
888.754	-3.07
888.926	3.07
889.097	23.55
889.268	-23.55
889.44	17.41
889.611	11.26
889.782	44.03
889.953	-68.61
890.125	-21.5
890.296	-31.74
890.467	19.46
890.638	-19.46
890.809	-15.36
890.98	-27.65
891.151	9.22
891.323	56.32
891.494	70.65
891.665	-25.6
891.836	9.22
892.007	7.17
892.178	23.55
892.349	50.18
892.52	-60.42
892.691	-9.22
892.862	-19.46
893.032	-25.6
893.203	39.94
893.374	31.74
893.545	27.65
893.716	-39.94
893.887	17.41
894.057	-25.6
894.228	-44.03
894.399	31.74
894.57	13.31
894.74	-23.55
894.911	-50.18
895.082	-25.6
895.253	-44.03
895.423	-5.12
895.594	54.27
895.764	-39.94
895.935	-21.5
896.106	-11.26
896.276	25.6
896.447	19.46
896.617	-27.65
896.788	9.22
896.958	-68.61
897.129	-15.36
897.299	-15.36
897.47	-70.65
897.64	3.07
897.81	-23.55
897.981	-17.41
898.151	-33.79
898.322	-46.08
898.492	89.09
898.662	-25.6
898.832	-5.12
899.003	3.07
899.173	74.75
899.343	-41.98
899.513	-87.04
