Data from USB4F104151__90__11-45-44-086.txt Node

Date: Fri Mar 14 11:45:44 EDT 2025
User: louis
Spectrometer: USB4F10415
Trigger mode: 4
Integration Time (sec): 2.000000E-2
Scans to average: 1
Electric dark correction enabled: true
Nonlinearity correction enabled: false
Boxcar width: 0
XAxis mode: Wavelengths
Number of Pixels in Spectrum: 3648
>>>>>Begin Spectral Data<<<<<
178.204	-22.02
178.424	-22.02
178.644	-22.02
178.864	-65.02
179.084	-48.64
179.304	10.75
179.524	35.33
179.744	12.8
179.964	-30.21
180.184	-65.02
180.404	-22.02
180.624	16.9
180.844	18.94
181.064	4.61
181.283	4.61
181.503	-17.92
181.723	31.23
181.943	8.7
182.163	61.95
182.383	-38.4
182.602	43.52
182.822	37.38
183.042	70.14
183.262	12.8
183.482	-5.63
183.701	18.94
183.921	20.99
184.141	2.56
184.361	107.01
184.58	-46.59
184.8	51.71
185.02	-1.54
185.239	-9.73
185.459	10.75
185.679	113.15
185.898	37.38
186.118	-71.17
186.338	84.48
186.557	12.8
186.777	-24.06
186.997	18.94
187.216	14.85
187.436	31.23
187.655	23.04
187.875	53.76
188.095	33.28
188.314	35.33
188.534	43.52
188.753	29.18
188.973	20.99
189.192	20.99
189.412	47.62
189.631	25.09
189.851	0.51
190.07	4.61
190.29	-5.63
190.509	98.81
190.729	6.66
190.948	64
191.168	72.19
191.387	84.48
191.607	6.66
191.826	66.05
192.045	45.57
192.265	57.86
192.484	78.33
192.704	16.9
192.923	51.71
193.142	160.25
193.362	72.19
193.581	86.53
193.8	43.52
194.02	23.04
194.239	129.53
194.458	49.66
194.678	-11.78
194.897	76.29
195.116	20.99
195.335	45.57
195.555	37.38
195.774	41.47
195.993	51.71
196.212	10.75
196.432	8.7
196.651	-17.92
196.87	29.18
197.089	16.9
197.308	14.85
197.528	23.04
197.747	-52.74
197.966	43.52
198.185	33.28
198.404	16.9
198.623	86.53
198.842	23.04
199.062	59.9
199.281	43.52
199.5	76.29
199.719	0.51
199.938	16.9
200.157	-13.82
200.376	-52.74
200.595	31.23
200.814	29.18
201.033	41.47
201.252	88.57
201.471	43.52
201.69	-30.21
201.909	70.14
202.128	0.51
202.347	-48.64
202.566	39.42
202.785	-5.63
203.004	55.81
203.223	43.52
203.442	61.95
203.661	-58.88
203.879	92.67
204.098	55.81
204.317	-24.06
204.536	-3.58
204.755	-26.11
204.974	45.57
205.193	0.51
205.411	72.19
205.63	55.81
205.849	47.62
206.068	92.67
206.287	49.66
206.505	4.61
206.724	96.77
206.943	68.09
207.162	59.9
207.381	76.29
207.599	41.47
207.818	-9.73
208.037	66.05
208.255	37.38
208.474	8.7
208.693	10.75
208.911	43.52
209.13	55.81
209.349	45.57
209.567	53.76
209.786	23.04
210.005	33.28
210.223	0.51
210.442	-48.64
210.661	78.33
210.879	-44.54
211.098	-5.63
211.316	-15.87
211.535	39.42
211.753	43.52
211.972	-36.35
212.191	-9.73
212.409	31.23
212.628	6.66
212.846	84.48
213.065	43.52
213.283	47.62
213.502	2.56
213.72	37.38
213.938	31.23
214.157	-15.87
214.375	84.48
214.594	31.23
214.812	-1.54
215.031	45.57
215.249	76.29
215.467	49.66
215.686	-38.4
215.904	51.71
216.122	59.9
216.341	125.44
216.559	51.71
216.778	51.71
216.996	-30.21
217.214	35.33
217.432	-19.97
217.651	31.23
217.869	6.66
218.087	29.18
218.306	41.47
218.524	57.86
218.742	2.56
218.96	57.86
219.179	43.52
219.397	57.86
219.615	109.05
219.833	74.24
220.051	-26.11
220.27	66.05
220.488	64
220.706	37.38
220.924	33.28
221.142	49.66
221.36	57.86
221.578	53.76
221.796	135.68
222.015	92.67
222.233	-1.54
222.451	53.76
222.669	20.99
222.887	-46.59
223.105	-32.26
223.323	-1.54
223.541	41.47
223.759	64
223.977	31.23
224.195	23.04
224.413	20.99
224.631	84.48
224.849	-50.69
225.067	64
225.285	-24.06
225.503	-5.63
225.721	-36.35
225.939	39.42
226.157	35.33
226.375	113.15
226.592	61.95
226.81	-1.54
227.028	20.99
227.246	80.38
227.464	29.18
227.682	72.19
227.9	-52.74
228.117	53.76
228.335	29.18
228.553	68.09
228.771	53.76
228.989	-9.73
229.206	43.52
229.424	35.33
229.642	66.05
229.86	29.18
230.077	14.85
230.295	-17.92
230.513	2.56
230.731	47.62
230.948	35.33
231.166	4.61
231.384	14.85
231.601	84.48
231.819	-3.58
232.037	41.47
232.254	51.71
232.472	107.01
232.689	-7.68
232.907	-1.54
233.125	47.62
233.342	16.9
233.56	43.52
233.777	-17.92
233.995	76.29
234.213	53.76
234.43	68.09
234.648	33.28
234.865	-30.21
235.083	70.14
235.3	25.09
235.518	12.8
235.735	84.48
235.953	29.18
236.17	59.9
236.388	27.14
236.605	96.77
236.822	82.43
237.04	92.67
237.257	31.23
237.475	-5.63
237.692	27.14
237.909	43.52
238.127	0.51
238.344	31.23
238.562	47.62
238.779	-24.06
238.996	18.94
239.214	27.14
239.431	59.9
239.648	-1.54
239.865	12.8
240.083	76.29
240.3	37.38
240.517	10.75
240.735	25.09
240.952	55.81
241.169	51.71
241.386	92.67
241.603	80.38
241.821	-7.68
242.038	51.71
242.255	14.85
242.472	35.33
242.689	10.75
242.907	37.38
243.124	-15.87
243.341	47.62
243.558	23.04
243.775	25.09
243.992	35.33
244.209	37.38
244.426	102.91
244.643	51.71
244.86	-5.63
245.078	29.18
245.295	53.76
245.512	2.56
245.729	-75.26
245.946	-22.02
246.163	55.81
246.38	49.66
246.597	57.86
246.814	4.61
247.031	39.42
247.248	-28.16
247.464	59.9
247.681	76.29
247.898	96.77
248.115	37.38
248.332	16.9
248.549	41.47
248.766	94.72
248.983	53.76
249.2	-5.63
249.417	-3.58
249.633	43.52
249.85	29.18
250.067	61.95
250.284	39.42
250.501	37.38
250.717	76.29
250.934	-13.82
251.151	45.57
251.368	84.48
251.585	68.09
251.801	-13.82
252.018	41.47
252.235	14.85
252.451	4.61
252.668	10.75
252.885	104.96
253.102	29.18
253.318	29.18
253.535	-30.21
253.752	59.9
253.968	92.67
254.185	86.53
254.401	82.43
254.618	39.42
254.835	25.09
255.051	84.48
255.268	68.09
255.484	92.67
255.701	-13.82
255.917	4.61
256.134	18.94
256.351	-9.73
256.567	6.66
256.784	90.62
257	49.66
257.217	96.77
257.433	35.33
257.65	61.95
257.866	70.14
258.082	-28.16
258.299	8.7
258.515	96.77
258.732	61.95
258.948	-7.68
259.165	76.29
259.381	-24.06
259.597	23.04
259.814	72.19
260.03	-32.26
260.246	25.09
260.463	14.85
260.679	59.9
260.895	31.23
261.112	-26.11
261.328	64
261.544	59.9
261.761	68.09
261.977	2.56
262.193	16.9
262.409	70.14
262.626	66.05
262.842	29.18
263.058	20.99
263.274	102.91
263.49	43.52
263.707	20.99
263.923	18.94
264.139	-26.11
264.355	49.66
264.571	18.94
264.787	31.23
265.004	57.86
265.22	-42.5
265.436	6.66
265.652	2.56
265.868	76.29
266.084	6.66
266.3	0.51
266.516	10.75
266.732	35.33
266.948	20.99
267.164	115.2
267.38	68.09
267.596	-15.87
267.812	84.48
268.028	66.05
268.244	-46.59
268.46	27.14
268.676	31.23
268.892	35.33
269.108	51.71
269.324	59.9
269.54	23.04
269.756	82.43
269.972	74.24
270.188	51.71
270.403	14.85
270.619	64
270.835	72.19
271.051	76.29
271.267	125.44
271.483	-19.97
271.698	53.76
271.914	23.04
272.13	8.7
272.346	59.9
272.562	-1.54
272.777	33.28
272.993	37.38
273.209	27.14
273.425	84.48
273.64	57.86
273.856	-44.54
274.072	-7.68
274.287	20.99
274.503	47.62
274.719	10.75
274.934	18.94
275.15	16.9
275.366	82.43
275.581	80.38
275.797	37.38
276.012	61.95
276.228	68.09
276.444	-32.26
276.659	94.72
276.875	27.14
277.09	109.05
277.306	43.52
277.521	-52.74
277.737	72.19
277.952	72.19
278.168	51.71
278.383	111.1
278.599	49.66
278.814	72.19
279.03	-28.16
279.245	70.14
279.461	74.24
279.676	-28.16
279.892	49.66
280.107	8.7
280.322	-30.21
280.538	20.99
280.753	61.95
280.969	39.42
281.184	2.56
281.399	90.62
281.615	45.57
281.83	10.75
282.045	4.61
282.26	29.18
282.476	8.7
282.691	25.09
282.906	64
283.122	27.14
283.337	18.94
283.552	23.04
283.767	64
283.983	23.04
284.198	57.86
284.413	72.19
284.628	-30.21
284.843	53.76
285.058	72.19
285.274	66.05
285.489	-32.26
285.704	80.38
285.919	-5.63
286.134	76.29
286.349	35.33
286.564	27.14
286.779	0.51
286.995	70.14
287.21	14.85
287.425	-7.68
287.64	16.9
287.855	14.85
288.07	10.75
288.285	59.9
288.5	8.7
288.715	72.19
288.93	49.66
289.145	8.7
289.36	82.43
289.575	80.38
289.79	51.71
290.004	37.38
290.219	72.19
290.434	43.52
290.649	43.52
290.864	12.8
291.079	12.8
291.294	109.05
291.509	-3.58
291.724	20.99
291.938	41.47
292.153	23.04
292.368	31.23
292.583	102.91
292.798	68.09
293.012	18.94
293.227	76.29
293.442	-28.16
293.657	-7.68
293.871	-28.16
294.086	80.38
294.301	61.95
294.516	133.63
294.73	59.9
294.945	33.28
295.16	45.57
295.374	92.67
295.589	59.9
295.804	-5.63
296.018	29.18
296.233	82.43
296.447	102.91
296.662	8.7
296.877	49.66
297.091	147.97
297.306	2.56
297.52	45.57
297.735	-22.02
297.949	51.71
298.164	64
298.378	31.23
298.593	39.42
298.807	-5.63
299.022	-15.87
299.236	31.23
299.451	86.53
299.665	88.57
299.88	0.51
300.094	33.28
300.309	10.75
300.523	35.33
300.737	64
300.952	-3.58
301.166	94.72
301.381	-17.92
301.595	37.38
301.809	98.81
302.024	20.99
302.238	53.76
302.452	70.14
302.667	-5.63
302.881	84.48
303.095	2.56
303.309	78.33
303.524	107.01
303.738	45.57
303.952	18.94
304.166	78.33
304.381	29.18
304.595	102.91
304.809	59.9
305.023	-24.06
305.237	78.33
305.452	51.71
305.666	88.57
305.88	55.81
306.094	100.86
306.308	131.58
306.522	14.85
306.736	59.9
306.95	45.57
307.164	23.04
307.379	59.9
307.593	45.57
307.807	-24.06
308.021	80.38
308.235	72.19
308.449	-3.58
308.663	-15.87
308.877	68.09
309.091	88.57
309.305	47.62
309.519	23.04
309.733	16.9
309.947	27.14
310.161	10.75
310.374	35.33
310.588	88.57
310.802	51.71
311.016	27.14
311.23	64
311.444	27.14
311.658	37.38
311.872	107.01
312.085	80.38
312.299	137.73
312.513	115.2
312.727	-22.02
312.941	10.75
313.154	49.66
313.368	49.66
313.582	37.38
313.796	74.24
314.009	74.24
314.223	-1.54
314.437	-19.97
314.651	78.33
314.864	117.25
315.078	-28.16
315.292	72.19
315.505	18.94
315.719	43.52
315.933	115.2
316.146	29.18
316.36	18.94
316.573	25.09
316.787	6.66
317.001	33.28
317.214	31.23
317.428	31.23
317.641	-9.73
317.855	61.95
318.068	-24.06
318.282	20.99
318.495	68.09
318.709	78.33
318.922	33.28
319.136	86.53
319.349	23.04
319.563	64
319.776	55.81
319.99	-15.87
320.203	0.51
320.417	47.62
320.63	92.67
320.843	64
321.057	16.9
321.27	47.62
321.483	29.18
321.697	55.81
321.91	98.81
322.124	-7.68
322.337	45.57
322.55	51.71
322.763	-15.87
322.977	72.19
323.19	10.75
323.403	-1.54
323.617	37.38
323.83	20.99
324.043	84.48
324.256	-9.73
324.469	-38.4
324.683	94.72
324.896	31.23
325.109	14.85
325.322	-7.68
325.535	45.57
325.748	59.9
325.962	80.38
326.175	18.94
326.388	92.67
326.601	47.62
326.814	-11.78
327.027	125.44
327.24	61.95
327.453	-26.11
327.666	70.14
327.879	51.71
328.092	127.49
328.305	47.62
328.518	76.29
328.731	-5.63
328.944	74.24
329.157	41.47
329.37	59.9
329.583	92.67
329.796	113.15
330.009	115.2
330.222	64
330.435	66.05
330.648	72.19
330.861	-15.87
331.073	27.14
331.286	27.14
331.499	51.71
331.712	23.04
331.925	70.14
332.138	10.75
332.35	27.14
332.563	10.75
332.776	117.25
332.989	113.15
333.202	-19.97
333.414	-50.69
333.627	39.42
333.84	-5.63
334.053	64
334.265	80.38
334.478	39.42
334.691	16.9
334.903	35.33
335.116	86.53
335.329	4.61
335.541	61.95
335.754	156.16
335.966	41.47
336.179	-7.68
336.392	23.04
336.604	31.23
336.817	-19.97
337.029	55.81
337.242	18.94
337.454	4.61
337.667	104.96
337.88	92.67
338.092	39.42
338.305	86.53
338.517	59.9
338.729	86.53
338.942	37.38
339.154	68.09
339.367	33.28
339.579	4.61
339.792	39.42
340.004	45.57
340.217	82.43
340.429	80.38
340.641	51.71
340.854	14.85
341.066	59.9
341.278	29.18
341.491	86.53
341.703	-38.4
341.915	43.52
342.128	86.53
342.34	27.14
342.552	12.8
342.764	72.19
342.977	49.66
343.189	53.76
343.401	-17.92
343.613	-15.87
343.826	74.24
344.038	2.56
344.25	14.85
344.462	47.62
344.674	39.42
344.886	18.94
345.099	47.62
345.311	4.61
345.523	41.47
345.735	-67.07
345.947	41.47
346.159	117.25
346.371	-24.06
346.583	12.8
346.795	51.71
347.007	23.04
347.219	-1.54
347.431	10.75
347.643	-11.78
347.855	94.72
348.067	33.28
348.279	49.66
348.491	-50.69
348.703	10.75
348.915	96.77
349.127	80.38
349.339	51.71
349.551	-34.3
349.763	37.38
349.975	98.81
350.187	64
350.399	37.38
350.61	10.75
350.822	-3.58
351.034	82.43
351.246	39.42
351.458	4.61
351.669	2.56
351.881	86.53
352.093	57.86
352.305	27.14
352.517	10.75
352.728	121.34
352.94	10.75
353.152	14.85
353.363	18.94
353.575	127.49
353.787	70.14
353.999	90.62
354.21	90.62
354.422	59.9
354.633	-11.78
354.845	70.14
355.057	127.49
355.268	14.85
355.48	55.81
355.692	88.57
355.903	35.33
356.115	74.24
356.326	27.14
356.538	61.95
356.749	2.56
356.961	72.19
357.172	29.18
357.384	-17.92
357.595	100.86
357.807	-65.02
358.018	25.09
358.23	78.33
358.441	37.38
358.653	31.23
358.864	10.75
359.075	119.29
359.287	100.86
359.498	102.91
359.709	10.75
359.921	31.23
360.132	78.33
360.344	-22.02
360.555	8.7
360.766	25.09
360.977	31.23
361.189	18.94
361.4	68.09
361.611	78.33
361.823	47.62
362.034	113.15
362.245	14.85
362.456	76.29
362.667	27.14
362.879	20.99
363.09	-15.87
363.301	16.9
363.512	131.58
363.723	45.57
363.935	-32.26
364.146	47.62
364.357	98.81
364.568	59.9
364.779	6.66
364.99	104.96
365.201	41.47
365.412	43.52
365.623	-36.35
365.834	51.71
366.045	14.85
366.256	43.52
366.467	8.7
366.678	23.04
366.889	25.09
367.1	-50.69
367.311	59.9
367.522	61.95
367.733	129.53
367.944	111.1
368.155	61.95
368.366	25.09
368.577	96.77
368.788	125.44
368.999	16.9
369.209	72.19
369.42	2.56
369.631	-7.68
369.842	78.33
370.053	55.81
370.264	23.04
370.474	16.9
370.685	2.56
370.896	29.18
371.107	64
371.317	6.66
371.528	10.75
371.739	78.33
371.95	37.38
372.16	82.43
372.371	27.14
372.582	90.62
372.792	94.72
373.003	45.57
373.214	43.52
373.424	43.52
373.635	25.09
373.846	72.19
374.056	33.28
374.267	-36.35
374.477	29.18
374.688	14.85
374.898	31.23
375.109	0.51
375.319	31.23
375.53	-28.16
375.74	96.77
375.951	-38.4
376.161	31.23
376.372	29.18
376.582	-30.21
376.793	33.28
377.003	47.62
377.214	55.81
377.424	70.14
377.635	78.33
377.845	25.09
378.055	6.66
378.266	6.66
378.476	55.81
378.686	18.94
378.897	96.77
379.107	39.42
379.317	86.53
379.528	25.09
379.738	74.24
379.948	-13.82
380.158	76.29
380.369	8.7
380.579	27.14
380.789	-24.06
380.999	133.63
381.21	74.24
381.42	57.86
381.63	20.99
381.84	16.9
382.05	29.18
382.261	33.28
382.471	55.81
382.681	49.66
382.891	127.49
383.101	119.29
383.311	72.19
383.521	74.24
383.731	51.71
383.941	135.68
384.151	82.43
384.361	31.23
384.571	86.53
384.781	96.77
384.991	74.24
385.201	98.81
385.411	107.01
385.621	12.8
385.831	20.99
386.041	55.81
386.251	31.23
386.461	29.18
386.671	61.95
386.881	2.56
387.091	76.29
387.301	64
387.511	-1.54
387.72	104.96
387.93	64
388.14	-50.69
388.35	16.9
388.56	74.24
388.769	-13.82
388.979	55.81
389.189	66.05
389.399	59.9
389.609	6.66
389.818	147.97
390.028	-3.58
390.238	74.24
390.447	47.62
390.657	51.71
390.867	84.48
391.076	66.05
391.286	98.81
391.496	68.09
391.705	4.61
391.915	59.9
392.125	59.9
392.334	53.76
392.544	102.91
392.753	76.29
392.963	82.43
393.172	74.24
393.382	20.99
393.591	39.42
393.801	51.71
394.01	107.01
394.22	115.2
394.429	45.57
394.639	61.95
394.848	98.81
395.058	12.8
395.267	41.47
395.477	139.77
395.686	104.96
395.895	88.57
396.105	133.63
396.314	64
396.524	53.76
396.733	8.7
396.942	102.91
397.152	78.33
397.361	141.82
397.57	70.14
397.78	35.33
397.989	66.05
398.198	55.81
398.407	18.94
398.617	98.81
398.826	43.52
399.035	76.29
399.244	84.48
399.453	184.83
399.663	68.09
399.872	104.96
400.081	133.63
400.29	156.16
400.499	45.57
400.708	98.81
400.917	137.73
401.127	39.42
401.336	107.01
401.545	100.86
401.754	82.43
401.963	145.92
402.172	94.72
402.381	68.09
402.59	59.9
402.799	147.97
403.008	98.81
403.217	164.35
403.426	123.39
403.635	109.05
403.844	121.34
404.053	68.09
404.262	111.1
404.471	139.77
404.68	109.05
404.888	59.9
405.097	176.64
405.306	121.34
405.515	109.05
405.724	66.05
405.933	82.43
406.142	86.53
406.35	147.97
406.559	152.06
406.768	166.4
406.977	168.45
407.185	123.39
407.394	143.87
407.603	102.91
407.812	90.62
408.02	154.11
408.229	152.06
408.438	131.58
408.646	152.06
408.855	201.21
409.064	279.04
409.272	147.97
409.481	213.5
409.69	180.73
409.898	164.35
410.107	254.46
410.315	246.27
410.524	215.55
410.733	176.64
410.941	295.42
411.15	231.93
411.358	297.47
411.567	285.18
411.775	227.84
411.984	350.71
412.192	385.53
412.401	289.28
412.609	322.04
412.818	307.71
413.026	305.66
413.234	307.71
413.443	313.85
413.651	358.91
413.86	371.19
414.068	463.35
414.276	461.3
414.485	395.77
414.693	432.63
414.901	455.16
415.11	455.16
415.318	451.07
415.526	487.93
415.734	498.17
415.943	588.28
416.151	504.31
416.359	479.74
416.567	498.17
416.776	653.81
416.984	600.57
417.192	653.81
417.4	616.95
417.608	641.53
417.817	664.05
418.025	670.2
418.233	698.87
418.441	741.88
418.649	735.73
418.857	860.66
419.065	893.43
419.273	801.27
419.481	854.51
419.689	907.76
419.897	915.95
420.105	1014.26
420.313	995.82
420.521	1026.54
420.729	1057.26
420.937	1073.65
421.145	1145.33
421.353	1186.29
421.561	1255.92
421.769	1266.16
421.977	1319.4
422.185	1235.44
422.393	1370.6
422.601	1505.77
422.809	1448.43
423.017	1475.05
423.224	1442.28
423.432	1520.1
423.64	1645.03
423.848	1735.14
424.056	1665.51
424.263	1769.96
424.471	1925.6
424.679	1937.89
424.887	1886.69
425.094	2019.81
425.302	1941.99
425.51	2073.06
425.718	2222.56
425.925	2236.89
426.133	2257.37
426.341	2318.81
426.548	2466.27
426.756	2427.35
426.964	2507.23
427.171	2542.04
427.379	2601.43
427.586	2800.09
427.794	2748.89
428.001	2935.25
428.209	3031.51
428.417	3121.62
428.624	3211.73
428.832	3250.64
429.039	3264.97
429.247	3244.49
429.454	3566.03
429.662	3811.78
429.869	3510.73
430.076	3654.09
430.284	3643.85
430.491	3901.89
430.699	4086.21
430.906	4196.8
431.114	4098.5
431.321	4190.66
431.528	4243.9
431.736	4696.5
431.943	4829.62
432.15	4733.37
432.358	4706.74
432.565	5130.67
432.772	4901.3
432.979	5380.53
433.187	5394.86
433.394	5388.72
433.601	5577.13
433.808	5767.59
434.016	5726.63
434.223	5884.33
434.43	6322.59
434.637	6212
434.844	6607.26
435.052	6783.38
435.259	6617.5
435.466	6633.88
435.673	6650.27
435.88	7047.57
436.087	7557.52
436.294	7612.81
436.501	7365.01
436.708	7448.97
436.915	7823.75
437.122	8096.13
437.329	8049.03
437.537	8255.87
437.743	8434.05
437.95	8249.73
438.157	8964.47
438.364	9161.08
438.571	9130.36
438.778	9165.17
438.985	9900.39
439.192	9734.51
439.399	9826.67
439.606	9591.15
439.813	10228.07
440.02	10604.89
440.227	10621.28
440.433	10457.44
440.64	10776.92
440.847	10791.26
441.054	11024.73
441.261	11917.64
441.467	11772.24
441.674	11999.56
441.881	12267.84
442.088	12273.99
442.294	11966.79
442.501	12435.78
442.708	12874.04
442.914	13203.77
443.121	13760.81
443.328	13523.25
443.534	14510.37
443.741	14108.97
443.948	13711.66
444.154	14901.53
444.361	14569.76
444.568	14776.61
444.774	14926.11
444.981	14973.21
445.187	15458.58
445.394	15913.23
445.6	15882.51
445.807	17383.67
446.013	16711.94
446.22	17092.86
446.426	17774.83
446.633	17662.19
446.839	18409.7
447.046	17873.14
447.252	18653.41
447.459	18729.19
447.665	18669.8
447.871	19355.86
448.078	20367.56
448.284	19329.24
448.491	19894.48
448.697	20713.67
448.903	21166.27
449.11	20902.08
449.316	20711.62
449.522	21205.18
449.728	21844.15
449.935	21858.48
450.141	21977.26
450.347	22282.41
450.553	21708.98
450.76	22016.18
450.966	22395.05
451.172	22298.8
451.378	23050.4
451.584	22595.75
451.791	23253.15
451.997	23031.97
452.203	23371.93
452.409	23394.46
452.615	23650.46
452.821	22124.72
453.027	22190.25
453.233	23322.78
453.44	22419.63
453.646	22470.83
453.852	22411.43
454.058	23382.17
454.264	22372.52
454.47	23015.58
454.676	22526.12
454.882	23038.11
455.088	20981.95
455.294	21639.35
455.5	21670.07
455.705	21975.22
455.911	21008.58
456.117	20627.65
456.323	20283.59
456.529	19333.34
456.735	20277.45
456.941	19538.13
457.147	19443.93
457.352	18563.3
457.558	18839.78
457.764	18747.62
457.97	18125.04
458.176	17940.72
458.381	17770.74
458.587	17203.45
458.793	16920.83
458.999	16167.18
459.204	17250.55
459.41	16765.18
459.616	15395.09
459.821	15589.65
460.027	15642.9
460.233	15085.85
460.438	14522.66
460.644	14799.13
460.85	14115.11
461.055	13699.37
461.261	13908.27
461.466	12882.24
461.672	12331.33
461.878	13431.09
462.083	12536.13
462.289	12292.42
462.494	12073.29
462.7	11518.29
462.905	11219.28
463.111	11598.16
463.316	11608.4
463.522	11325.78
463.727	11506
463.932	11202.9
464.138	11241.81
464.343	11303.25
464.549	10889.56
464.754	11448.66
464.959	11161.94
465.165	11178.33
465.37	10527.07
465.575	10332.51
465.781	10971.48
465.986	10811.74
466.191	10275.17
466.397	10084.71
466.602	9646.44
466.807	10309.99
467.012	10189.16
467.218	10099.05
467.423	9877.87
467.628	10004.84
467.833	10281.32
468.038	10019.18
468.244	9795.95
468.449	10352.99
468.654	9836.91
468.859	9879.91
469.064	9474.42
469.269	9240.95
469.474	9212.28
469.679	9597.29
469.885	9372.02
470.09	9527.66
470.295	9386.35
470.5	9011.57
470.705	9019.77
470.91	8917.37
471.115	8923.51
471.32	9038.2
471.525	9138.55
471.73	8888.7
471.935	8546.69
472.139	8493.44
472.344	8526.21
472.549	8397.18
472.754	8354.18
472.959	8204.67
473.164	8077.7
473.369	8008.07
473.574	8241.54
473.778	8196.48
473.983	8067.46
474.188	7993.73
474.393	7643.53
474.598	7537.04
474.802	7561.61
475.007	7539.08
475.212	7631.24
475.417	7375.25
475.621	7414.16
475.826	7315.86
476.031	7244.18
476.235	7014.8
476.44	7129.49
476.645	6848.92
476.849	7152.02
477.054	6883.73
477.259	6801.82
477.463	6838.68
477.668	6619.55
477.872	6654.36
478.077	6623.64
478.282	6379.93
478.486	6347.17
478.691	6468
478.895	6355.36
479.1	6308.26
479.304	6494.62
479.509	6236.58
479.713	6377.89
479.918	6068.64
480.122	6039.97
480.326	6099.36
480.531	6093.22
480.735	6091.17
480.94	5869.99
481.144	6160.8
481.348	5945.77
481.553	5978.53
481.757	5874.09
481.961	5996.96
482.166	5861.8
482.37	6046.12
482.574	5933.48
482.778	5718.44
482.983	6025.64
483.187	5863.85
483.391	5943.72
483.595	5960.1
483.8	5880.23
484.004	5831.08
484.208	5835.17
484.412	5960.1
484.616	5931.43
484.821	5921.19
485.025	5802.41
485.229	5923.24
485.433	5808.55
485.637	5904.81
485.841	5700.01
486.045	5835.17
486.249	6039.97
486.453	5861.8
486.657	5935.53
486.861	5898.66
487.065	5765.54
487.269	5798.31
487.473	5753.26
487.677	5892.52
487.881	5978.53
488.085	5847.46
488.289	5720.49
488.493	5579.18
488.697	5759.4
488.901	5929.38
489.105	5925.29
489.309	5982.63
489.512	5921.19
489.716	5898.66
489.92	5956.01
490.124	6001.06
490.328	6115.75
490.531	5896.61
490.735	5990.82
490.939	6015.4
491.143	6072.74
491.346	5988.77
491.55	6142.37
491.754	6044.07
491.958	6201.76
492.161	6013.35
492.365	6027.68
492.569	6070.69
492.772	6046.12
492.976	6304.16
493.18	6187.43
493.383	6181.28
493.587	6234.53
493.79	6320.54
493.994	6359.45
494.197	6500.76
494.401	6424.99
494.605	6435.23
494.808	6642.07
495.012	6627.74
495.215	6554.01
495.419	6666.65
495.622	6658.46
495.825	6693.27
496.029	6705.56
496.232	6797.72
496.436	6914.45
496.639	7119.25
496.843	7006.61
497.046	7299.47
497.249	7272.85
497.453	7358.86
497.656	7106.96
497.859	7362.96
498.063	7362.96
498.266	7627.15
498.469	7516.56
498.673	7756.17
498.876	7803.27
499.079	7786.89
499.282	7809.42
499.485	8104.32
499.689	7979.4
499.892	8085.89
500.095	8176
500.298	8245.63
500.501	8247.68
500.705	8495.49
500.908	8528.25
501.111	8817.02
501.314	8810.87
501.517	8759.67
501.72	8892.79
501.923	8941.94
502.126	9040.25
502.329	9193.84
502.532	9218.42
502.735	9161.08
502.938	9394.54
503.141	9519.47
503.344	9847.15
503.547	9640.3
503.75	10135.91
503.953	9918.82
504.156	10125.67
504.359	10312.03
504.562	10111.33
504.765	10490.21
504.968	10723.68
505.17	10559.84
505.373	10768.73
505.576	10840.41
505.779	11026.78
505.982	11073.88
506.185	11227.48
506.387	11274.58
506.59	11503.95
506.793	11575.63
506.996	11475.28
507.198	11870.54
507.401	11782.48
507.604	12044.62
507.807	12155.21
508.009	12450.11
508.212	12216.65
508.415	12616
508.617	12777.79
508.82	12865.85
509.022	12732.73
509.225	13248.82
509.428	13021.5
509.63	13246.77
509.833	13371.7
510.035	13515.06
510.238	13590.83
510.44	13887.79
510.643	13990.19
510.845	14115.11
511.048	14141.74
511.25	14309.67
511.453	14332.2
511.655	15001.88
511.858	14612.77
512.06	14842.14
512.262	15026.46
512.465	15104.28
512.667	15440.15
512.87	15646.99
513.072	15313.17
513.274	15882.51
513.477	16187.66
513.679	16285.96
513.881	16220.42
514.084	16595.2
514.286	16390.41
514.488	16587.01
514.69	16904.45
514.893	17287.42
515.095	17318.14
515.297	17225.98
515.499	17461.49
515.701	17615.09
515.904	17844.46
516.106	18047.21
516.308	18034.92
516.51	18057.45
516.712	18206.95
516.914	18561.25
517.116	18907.36
517.318	18720.99
517.52	19087.58
517.722	19292.38
517.925	19415.26
518.127	19683.54
518.329	19894.48
518.531	19718.36
518.733	20324.55
518.935	20361.42
519.136	20431.05
519.338	20633.8
519.54	20871.36
519.742	20889.79
519.944	21184.7
520.146	21153.98
520.348	21319.87
520.55	21708.98
520.752	21840.05
520.954	22159.53
521.155	22007.98
521.357	22347.95
521.559	22347.95
521.761	23117.98
521.963	22851.75
522.164	23054.5
522.366	23120.03
522.568	23447.71
522.77	23595.16
522.971	24144.02
523.173	23830.68
523.375	23908.5
523.576	24322.19
523.778	24055.95
523.98	24518.79
524.181	24782.98
524.383	24715.4
524.584	25325.69
524.786	25217.15
524.988	24998.02
525.189	25665.66
525.391	25798.77
525.592	25669.75
525.794	25714.81
525.995	25833.59
526.197	25933.94
526.398	26167.41
526.6	26060.91
526.801	26337.39
527.003	26849.38
527.204	26746.98
527.406	26814.57
527.607	26988.64
527.808	27002.98
528.01	26935.4
528.211	27080.8
528.412	27551.84
528.614	27582.56
528.815	27910.23
529.016	27734.1
529.218	27129.95
529.419	27820.12
529.62	27840.6
529.822	27773.02
530.023	27981.91
530.224	28061.78
530.425	28102.74
530.626	28196.95
530.828	27930.71
531.029	28391.5
531.23	28231.76
531.431	28221.52
531.632	28205.14
531.833	28414.03
532.035	28299.34
532.236	28532.81
532.437	28805.19
532.638	28667.98
532.839	28651.59
533.04	28725.32
533.241	28475.47
533.442	29055.04
533.643	28813.38
533.844	28934.21
534.045	28545.1
534.246	28753.99
534.447	29243.46
534.648	28729.42
534.849	29323.33
535.05	28846.15
535.251	28751.95
535.451	29007.94
535.652	29186.11
535.853	29190.21
536.054	29265.99
536.255	28997.7
536.456	28891.21
536.657	29560.89
536.857	28878.92
537.058	28993.61
537.259	29403.2
537.46	29208.64
537.66	28958.79
537.861	29126.72
538.062	28954.69
538.263	29304.9
538.463	28760.14
538.664	28991.56
538.865	29560.89
539.065	29186.11
539.266	28670.03
539.466	29200.45
539.667	28598.35
539.868	29274.18
540.068	28991.56
540.269	29216.83
540.469	29192.26
540.67	29327.42
540.87	28854.34
541.071	28801.1
541.271	29702.2
541.472	28872.78
541.672	29020.23
541.873	28913.73
542.073	28819.53
542.274	29401.15
542.474	29218.88
542.675	28893.26
542.875	29386.82
543.075	29222.98
543.276	28600.4
543.476	29141.06
543.676	29130.82
543.877	28958.79
544.077	28991.56
544.277	29079.62
544.478	29222.98
544.678	28979.27
544.878	28743.75
545.078	28909.64
545.279	28942.41
545.479	28811.34
545.679	29151.3
545.879	29337.66
546.079	29276.23
546.28	29087.81
546.48	28727.37
546.68	28985.41
546.88	29317.18
547.08	29290.56
547.28	28868.68
547.48	29071.43
547.68	28745.8
547.88	29147.2
548.081	29012.04
548.281	28977.22
548.481	28840.01
548.681	29053
548.881	28864.58
549.081	28610.64
549.28	28588.11
549.48	29059.14
549.68	28624.97
549.88	28964.93
550.08	28565.58
550.28	28948.55
550.48	29167.68
550.68	29173.83
550.88	28694.6
551.08	28899.4
551.279	29081.67
551.479	28624.97
551.679	28579.92
551.879	28768.33
552.079	28719.18
552.278	28788.81
552.478	28862.54
552.678	28969.03
552.878	28674.12
553.077	28504.14
553.277	28729.42
553.477	29280.32
553.676	28502.09
553.876	28670.03
554.076	28690.51
554.275	28510.28
554.475	28235.86
554.674	28571.72
554.874	28342.35
555.074	28481.61
555.273	28401.74
555.473	28674.12
555.672	28178.51
555.872	28330.06
556.071	28340.3
556.271	28710.99
556.47	28194.9
556.67	28047.44
556.869	28153.94
557.068	28311.63
557.268	27848.79
557.467	28166.23
557.667	28299.34
557.866	28354.64
558.065	28221.52
558.265	27850.84
558.464	27717.72
558.663	28045.4
558.863	27611.23
559.062	28137.55
559.261	27428.96
559.461	28080.21
559.66	27375.71
559.859	27742.3
560.058	27570.27
560.258	27465.82
560.457	27328.61
560.656	27943
560.855	27189.35
561.054	27254.88
561.253	27156.58
561.453	27375.71
561.652	27443.29
561.851	27381.85
562.05	26816.61
562.249	26765.42
562.448	26978.4
562.647	27136.1
562.846	26878.05
563.045	26992.74
563.244	26259.57
563.443	26957.92
563.642	26427.5
563.841	26888.29
564.04	26370.16
564.239	26697.83
564.438	26441.84
564.637	26499.18
564.836	26517.61
565.035	26097.78
565.234	26171.5
565.432	25944.18
565.631	26069.11
565.83	26071.15
566.029	25753.72
566.228	25659.51
566.427	26030.19
566.625	26022
566.824	25211.01
567.023	25417.85
567.222	25679.99
567.42	25759.86
567.619	25407.61
567.818	25286.78
568.016	25284.73
568.215	25159.81
568.414	25387.13
568.612	25346.17
568.811	25139.33
569.01	25088.13
569.208	24887.43
569.407	24879.24
569.605	24332.43
569.804	24754.31
570.002	24508.55
570.201	24674.44
570.4	24289.42
570.598	23969.94
570.797	24113.3
570.995	24275.09
571.193	23957.65
571.392	24039.57
571.59	24098.96
571.789	23834.77
571.987	23599.26
572.186	23830.68
572.384	23677.08
572.582	23808.15
572.781	23908.5
572.979	23189.66
573.177	23498.91
573.376	23531.67
573.574	23423.13
573.772	23150.75
573.971	23457.95
574.169	23040.16
574.367	23105.7
574.565	23173.28
574.763	22859.94
574.962	22786.21
575.16	22302.89
575.358	22962.34
575.556	22782.12
575.754	22851.75
575.952	22446.25
576.151	22917.28
576.349	22393
576.547	22225.07
576.745	22333.61
576.943	22485.16
577.141	22325.42
577.339	21969.07
577.537	22042.8
577.735	22007.98
577.933	21883.06
578.131	21797.04
578.329	21657.78
578.527	21645.49
578.725	21706.93
578.923	21604.53
579.121	21524.66
579.319	21274.81
579.516	21602.49
579.714	21401.79
579.912	21131.45
580.11	21139.65
580.308	21190.84
580.506	20910.27
580.704	20773.06
580.901	20969.66
581.099	21084.35
581.297	21067.97
581.495	20558.02
581.692	20908.22
581.89	20424.9
582.088	20721.86
582.285	20580.55
582.483	20754.63
582.681	20494.54
582.878	20476.1
583.076	20220.11
583.274	20410.57
583.471	20232.4
583.669	20095.18
583.866	20216.01
584.064	19943.63
584.262	19824.85
584.459	19775.7
584.657	19902.67
584.854	20162.76
585.052	19679.44
585.249	19632.34
585.447	19714.26
585.644	19575
585.841	19400.92
586.039	19521.75
586.236	19425.5
586.434	19501.27
586.631	19245.27
586.828	19488.98
587.026	19007.71
587.223	19646.68
587.42	19151.07
587.618	19089.63
587.815	18979.04
588.012	18774.24
588.21	18786.53
588.407	19120.35
588.604	18813.15
588.801	18542.82
588.999	18845.92
589.196	18696.42
589.393	18460.9
589.59	18391.27
589.787	18434.28
589.984	18428.13
590.182	18086.12
590.379	18344.17
590.576	18354.41
590.773	18223.34
590.97	17916.14
591.167	17969.39
591.364	17856.75
591.561	17979.63
591.758	18006.25
591.955	17660.15
592.152	17823.98
592.349	17490.17
592.546	17746.16
592.743	17801.46
592.94	17389.81
593.137	17502.45
593.334	17684.72
593.531	17553.65
593.727	17414.39
593.924	17484.02
594.121	17060.09
594.318	17211.64
594.515	17000.7
594.712	17275.13
594.908	17135.87
595.105	17316.09
595.302	16810.24
595.499	17117.43
595.696	16761.09
595.892	16582.91
596.089	16943.36
596.286	16689.41
596.482	16627.97
596.679	16730.37
596.876	16552.2
597.072	16429.32
597.269	16470.28
597.466	16328.97
597.662	16515.33
597.859	16210.18
598.055	16451.84
598.252	16253.19
598.448	16056.59
598.645	16136.46
598.841	16300.3
599.038	16099.59
599.234	16288.01
599.431	15909.13
599.627	15769.87
599.824	15884.56
600.02	15841.55
600.217	15995.15
600.413	15743.25
600.609	15763.73
600.806	15565.07
601.002	15599.89
601.198	15524.12
601.395	15415.57
601.591	15352.09
601.787	15286.55
601.984	15290.65
602.18	15442.2
602.376	15323.41
602.572	15116.57
602.769	15286.55
602.965	15077.66
603.161	15286.55
603.357	15229.21
603.553	15036.7
603.75	15003.93
603.946	14950.68
604.142	14971.16
604.338	14715.17
604.534	14674.21
604.73	14559.52
604.926	14788.89
605.122	14545.19
605.318	14504.23
605.514	14594.34
605.71	14416.16
605.906	14412.07
606.102	14278.95
606.298	14639.39
606.494	14305.57
606.69	14485.79
606.886	14332.2
607.082	14182.7
607.278	14407.97
607.474	14039.34
607.67	14137.64
607.866	13904.17
608.062	14430.5
608.257	13961.51
608.453	13869.36
608.649	13938.99
608.845	13789.49
609.041	13926.7
609.236	13936.94
609.432	13785.39
609.628	13928.75
609.824	13500.72
610.019	13676.85
610.215	13867.31
610.411	13586.74
610.606	13625.65
610.802	13601.07
610.998	13613.36
611.193	13437.23
611.389	13334.84
611.584	13408.56
611.78	13373.75
611.976	13347.12
612.171	13207.86
612.367	13300.02
612.562	13287.73
612.758	13416.76
612.953	13203.77
613.149	13504.82
613.344	13103.42
613.539	13295.93
613.735	13148.47
613.93	13099.32
614.126	13156.66
614.321	12937.53
614.517	13132.09
614.712	13064.5
614.907	13046.07
615.103	13132.09
615.298	13023.55
615.493	13068.6
615.688	12575.04
615.884	13037.88
616.079	12847.42
616.274	12736.83
616.47	12845.37
616.665	12978.49
616.86	12630.34
617.055	12699.97
617.25	12540.22
617.445	12667.2
617.641	12460.35
617.836	12816.7
618.031	12378.44
618.226	12831.04
618.421	12341.57
618.616	12685.63
618.811	12237.13
619.006	12360
619.201	12202.31
619.396	12460.35
619.591	12089.67
619.786	12237.13
619.981	11831.63
620.176	12081.48
620.371	11870.54
620.566	11950.41
620.761	11944.27
620.956	12011.85
621.151	11698.51
621.346	11716.94
621.541	11651.41
621.735	11643.21
621.93	11561.3
622.125	11610.45
622.32	11430.23
622.515	11465.04
622.709	11393.36
622.904	11325.78
623.099	11331.92
623.294	11405.65
623.488	11028.82
623.683	11188.57
623.878	10875.23
624.072	11114.84
624.267	10897.75
624.462	10957.14
624.656	10496.35
624.851	10879.32
625.046	10584.41
625.24	10518.88
625.435	10608.99
625.629	10496.35
625.824	10615.13
626.018	10477.92
626.213	10199.4
626.407	10469.73
626.602	10201.44
626.796	10264.93
626.991	10142.05
627.185	10195.3
627.38	10056.04
627.574	9924.97
627.768	9992.55
627.963	9695.6
628.157	9834.86
628.352	9804.14
628.546	9671.02
628.74	9894.25
628.935	9533.81
629.129	9513.33
629.323	9529.71
629.517	9468.27
629.712	9562.48
629.906	9304.43
630.1	9374.06
630.294	9144.69
630.489	9275.76
630.683	9128.31
630.877	9148.79
631.071	9177.46
631.265	9245.04
631.459	9136.5
631.653	8921.46
631.848	8976.76
632.042	8804.73
632.236	8907.13
632.43	8640.89
632.624	8716.67
632.818	8634.75
633.012	8515.97
633.206	8407.42
633.4	8731
633.594	8384.9
633.788	8272.26
633.982	8511.87
634.176	8259.97
634.369	8235.39
634.563	8249.73
634.757	8161.67
634.951	8284.55
635.145	8206.72
635.339	8130.95
635.533	7944.58
635.726	7999.88
635.92	7987.59
636.114	7831.94
636.308	7772.55
636.501	7960.97
636.695	7868.81
636.889	7737.74
637.083	7702.92
637.276	7750.03
637.47	7565.71
637.664	7502.22
637.857	7758.22
638.051	7405.97
638.244	7491.98
638.438	7565.71
638.632	7344.53
638.825	7387.54
639.019	7276.94
639.212	7207.31
639.406	7246.23
639.599	7203.22
639.793	7131.54
639.986	7066
640.18	7154.07
640.373	7127.44
640.567	6953.37
640.76	7004.57
640.954	6693.27
641.147	6900.12
641.34	6812.06
641.534	6803.86
641.727	6814.1
641.92	6803.86
642.114	6517.15
642.307	6654.36
642.5	6549.92
642.694	6601.12
642.887	6617.5
643.08	6570.4
643.273	6592.92
643.467	6371.74
643.66	6402.46
643.853	6236.58
644.046	6175.14
644.239	6322.59
644.432	6240.67
644.626	6347.17
644.819	6142.37
645.012	6146.47
645.205	6150.56
645.398	6181.28
645.591	6148.51
645.784	6218.15
645.977	6033.83
646.17	6013.35
646.363	6001.06
646.556	5966.24
646.749	5906.85
646.942	5767.59
647.135	5826.98
647.328	5693.87
647.521	5673.39
647.714	5820.84
647.907	5738.92
648.099	5806.5
648.292	5695.91
648.485	5523.88
648.678	5548.46
648.871	5450.16
649.064	5433.77
649.256	5556.65
649.449	5523.88
649.642	5573.03
649.835	5421.49
650.027	5470.64
650.22	5542.32
650.413	5245.36
650.605	5417.39
650.798	5317.04
650.991	5384.62
651.183	5267.89
651.376	5429.68
651.568	4958.64
651.761	5241.26
651.954	5265.84
652.146	4991.41
652.339	5054.9
652.531	5079.47
652.724	5218.74
652.916	4970.93
653.109	5030.32
653.301	5026.23
653.494	4964.79
653.686	4803
653.879	4925.88
654.071	4815.29
654.263	4837.81
654.456	4901.3
654.648	4800.95
654.84	4745.66
655.033	4772.28
655.225	4788.66
655.417	4647.35
655.61	4659.64
655.802	4633.02
655.994	4530.62
656.186	4561.34
656.379	4483.52
656.571	4524.47
656.763	4583.87
656.955	4520.38
657.148	4504
657.34	4440.51
657.532	4274.62
657.724	4442.56
657.916	4393.4
658.108	4291.01
658.3	4463.04
658.492	4368.83
658.684	4198.85
658.876	4295.1
659.068	4139.46
659.26	4186.56
659.452	4204.99
659.644	4235.71
659.836	4055.49
660.028	4078.02
660.22	4086.21
660.412	4217.28
660.604	4110.79
660.796	4018.63
660.988	3996.1
661.18	4041.15
661.372	3979.72
661.563	4012.48
661.755	3848.65
661.947	4020.67
662.139	3998.15
662.331	3840.45
662.522	3752.39
662.714	3766.73
662.906	3824.07
663.097	3875.27
663.289	3764.68
663.481	3791.3
663.673	3873.22
663.864	3633.61
664.056	3547.59
664.247	3649.99
664.439	3656.14
664.631	3586.51
664.822	3733.96
665.014	3574.22
665.205	3617.22
665.397	3578.31
665.588	3535.31
665.78	3551.69
665.971	3672.52
666.163	3574.22
666.354	3604.94
666.546	3488.2
666.737	3606.98
666.929	3535.31
667.12	3383.76
667.311	3568.07
667.503	3416.52
667.694	3387.85
667.885	3342.8
668.077	3484.11
668.268	3336.65
668.459	3463.63
668.651	3492.3
668.842	3404.24
669.033	3396.04
669.224	3346.89
669.416	3432.91
669.607	3334.61
669.798	3178.96
669.989	3324.37
670.18	3371.47
670.371	3293.65
670.563	3271.12
670.754	3244.49
670.945	3332.56
671.136	3232.21
671.327	3244.49
671.518	3138
671.709	3279.31
671.9	3232.21
672.091	3283.41
672.282	3371.47
672.473	3023.31
672.664	3164.62
672.855	3131.86
673.046	3158.48
673.237	3072.47
673.428	3162.58
673.619	3033.55
673.809	3127.76
674	3017.17
674.191	3041.75
674.382	2988.5
674.573	3082.7
674.764	3025.36
674.954	3140.05
675.145	3140.05
675.336	3068.37
675.527	3029.46
675.717	2959.83
675.908	2970.07
676.099	2890.2
676.289	3146.19
676.48	2920.92
676.671	2935.25
676.861	3074.51
677.052	2943.44
677.243	2896.34
677.433	2961.87
677.624	2998.74
677.814	3060.18
678.005	2968.02
678.195	2904.53
678.386	2996.69
678.576	2922.96
678.767	3025.36
678.957	2972.11
679.148	2968.02
679.338	3019.22
679.529	2996.69
679.719	3025.36
679.909	2900.44
680.1	2957.78
680.29	2972.11
680.481	2798.04
680.671	2859.48
680.861	2869.72
681.052	2904.53
681.242	2841.04
681.432	2892.24
681.622	2763.22
681.813	2820.56
682.003	2890.2
682.193	2902.48
682.383	2937.3
682.573	3070.42
682.764	2771.41
682.954	2886.1
683.144	2853.33
683.334	2914.77
683.524	2722.26
683.714	2841.04
683.904	2697.69
684.094	2898.39
684.284	3025.36
684.474	2941.4
684.664	2757.08
684.854	2814.42
685.044	2857.43
685.234	2744.79
685.424	2806.23
685.614	2795.99
685.804	2941.4
685.994	2748.89
686.184	2750.93
686.374	2824.66
686.564	2654.68
686.753	2707.93
686.943	2728.41
687.133	2734.55
687.323	2685.4
687.513	2677.21
687.702	2728.41
687.892	2591.19
688.082	2697.69
688.272	2726.36
688.461	2703.83
688.651	2685.4
688.841	2669.02
689.03	2578.9
689.22	2601.43
689.41	2603.48
689.599	2660.82
689.789	2525.66
689.979	2605.53
690.168	2525.66
690.358	2615.77
690.547	2560.47
690.737	2372.06
690.926	2544.09
691.116	2312.67
691.305	2570.71
691.495	2466.27
691.684	2458.07
691.874	2513.37
692.063	2458.07
692.252	2388.44
692.442	2449.88
692.631	2390.49
692.82	2394.59
693.01	2460.12
693.199	2380.25
693.388	2333.15
693.578	2361.82
693.767	2435.55
693.956	2304.48
694.146	2273.76
694.335	2255.33
694.524	2310.62
694.713	2214.37
694.902	2429.4
695.092	2300.38
695.281	2255.33
695.47	2253.28
695.659	2224.61
695.848	2230.75
696.037	2195.93
696.226	2320.86
696.415	2255.33
696.604	2200.03
696.793	2314.72
696.982	2218.46
697.171	2265.57
697.36	2275.81
697.549	2277.85
697.738	2208.22
697.927	2148.83
698.116	2238.94
698.305	2304.48
698.494	2249.18
698.683	2183.65
698.872	2245.09
699.061	2253.28
699.25	2191.84
699.438	2253.28
699.627	2191.84
699.816	2240.99
700.005	2134.5
700.193	2159.07
700.382	2177.5
700.571	2249.18
700.76	2310.62
700.948	2308.57
701.137	2238.94
701.326	2167.26
701.514	2255.33
701.703	2214.37
701.892	2249.18
702.08	2259.42
702.269	2226.65
702.457	2140.64
702.646	2292.19
702.834	2193.89
703.023	2292.19
703.212	2130.4
703.4	2202.08
703.589	2243.04
703.777	2275.81
703.965	2099.68
704.154	2249.18
704.342	2185.69
704.531	2251.23
704.719	2132.45
704.907	2249.18
705.096	2136.54
705.284	2243.04
705.472	2267.61
705.661	2279.9
705.849	2306.52
706.037	2257.37
706.226	2185.69
706.414	2216.41
706.602	2204.13
706.79	2255.33
706.979	2210.27
707.167	2234.85
707.355	2146.78
707.543	2234.85
707.731	2136.54
707.919	2214.37
708.107	2189.79
708.296	2167.26
708.484	2279.9
708.672	2122.21
708.86	2130.4
709.048	2173.41
709.236	2222.56
709.424	2355.68
709.612	2269.66
709.8	2202.08
709.988	2216.41
710.176	2228.7
710.364	2312.67
710.551	2308.57
710.739	2271.71
710.927	2243.04
711.115	2222.56
711.303	2144.74
711.491	2150.88
711.679	2269.66
711.866	2232.8
712.054	2363.87
712.242	2294.24
712.43	2273.76
712.617	2236.89
712.805	2271.71
712.993	2238.94
713.181	2263.52
713.368	2357.72
713.556	2324.96
713.744	2288.09
713.931	2255.33
714.119	2271.71
714.306	2359.77
714.494	2257.37
714.682	2302.43
714.869	2210.27
715.057	2304.48
715.244	2388.44
715.432	2224.61
715.619	2200.03
715.807	2304.48
715.994	2277.85
716.182	2322.91
716.369	2212.32
716.556	2318.81
716.744	2255.33
716.931	2374.11
717.119	2355.68
717.306	2236.89
717.493	2300.38
717.681	2318.81
717.868	2253.28
718.055	2372.06
718.242	2324.96
718.43	2327
718.617	2286.05
718.804	2394.59
718.991	2279.9
719.179	2251.23
719.366	2304.48
719.553	2324.96
719.74	2341.34
719.927	2298.33
720.114	2331.1
720.301	2357.72
720.488	2288.09
720.676	2394.59
720.863	2271.71
721.05	2300.38
721.237	2363.87
721.424	2408.92
721.611	2341.34
721.798	2357.72
721.985	2284
722.172	2367.96
722.358	2314.72
722.545	2357.72
722.732	2329.05
722.919	2363.87
723.106	2380.25
723.293	2361.82
723.48	2370.01
723.667	2441.69
723.853	2226.65
724.04	2415.07
724.227	2333.15
724.414	2324.96
724.6	2310.62
724.787	2339.29
724.974	2277.85
725.161	2374.11
725.347	2290.14
725.534	2329.05
725.72	2396.64
725.907	2304.48
726.094	2421.21
726.28	2339.29
726.467	2320.86
726.653	2367.96
726.84	2462.17
727.027	2433.5
727.213	2363.87
727.4	2374.11
727.586	2370.01
727.773	2370.01
727.959	2329.05
728.145	2402.78
728.332	2419.16
728.518	2408.92
728.705	2392.54
728.891	2447.83
729.077	2488.79
729.264	2306.52
729.45	2349.53
729.636	2390.49
729.823	2494.94
730.009	2324.96
730.195	2329.05
730.382	2357.72
730.568	2404.83
730.754	2431.45
730.94	2468.31
731.126	2499.03
731.313	2474.46
731.499	2496.99
731.685	2441.69
731.871	2333.15
732.057	2443.74
732.243	2458.07
732.429	2339.29
732.615	2445.79
732.801	2460.12
732.987	2470.36
733.173	2521.56
733.359	2535.9
733.545	2476.51
733.731	2451.93
733.917	2300.38
734.103	2476.51
734.289	2335.2
734.475	2431.45
734.661	2374.11
734.847	2331.1
735.033	2349.53
735.219	2408.92
735.404	2380.25
735.59	2439.64
735.776	2357.72
735.962	2337.24
736.148	2482.65
736.333	2429.4
736.519	2478.55
736.705	2345.44
736.89	2417.12
737.076	2388.44
737.262	2349.53
737.447	2345.44
737.633	2429.4
737.819	2482.65
738.004	2302.43
738.19	2232.8
738.375	2404.83
738.561	2398.68
738.747	2337.24
738.932	2288.09
739.118	2402.78
739.303	2386.4
739.489	2460.12
739.674	2419.16
739.859	2279.9
740.045	2427.35
740.23	2333.15
740.416	2386.4
740.601	2247.13
740.786	2447.83
740.972	2187.74
741.157	2240.99
741.342	2255.33
741.528	2345.44
741.713	2259.42
741.898	2298.33
742.084	2220.51
742.269	2257.37
742.454	2216.41
742.639	2249.18
742.824	2185.69
743.01	2247.13
743.195	2388.44
743.38	2193.89
743.565	2189.79
743.75	2224.61
743.935	2140.64
744.12	2224.61
744.305	2144.74
744.49	2134.5
744.675	2271.71
744.86	2081.25
745.045	2204.13
745.23	2169.31
745.415	2105.82
745.6	2216.41
745.785	2173.41
745.97	2126.3
746.155	2200.03
746.34	2071.01
746.525	2175.45
746.71	2136.54
746.895	2028
747.079	2085.34
747.264	2146.78
747.449	2050.53
747.634	2064.86
747.819	2105.82
748.003	1974.75
748.188	2040.29
748.373	2011.62
748.557	2032.1
748.742	2030.05
748.927	1944.03
749.111	1923.55
749.296	1903.07
749.481	1884.64
749.665	1890.79
749.85	1952.23
750.034	1796.58
750.219	1866.21
750.404	1925.6
750.588	1784.29
750.773	1812.96
750.957	1733.09
751.141	1769.96
751.326	1767.91
751.51	1855.97
751.695	1747.43
751.879	1755.62
752.064	1802.72
752.248	1812.96
752.432	1733.09
752.617	1735.14
752.801	1704.42
752.985	1698.28
753.17	1700.33
753.354	1704.42
753.538	1622.5
753.722	1595.88
753.907	1667.56
754.091	1638.89
754.275	1671.65
754.459	1677.8
754.643	1571.3
754.828	1591.78
755.012	1536.49
755.196	1577.45
755.38	1649.13
755.564	1614.31
755.748	1415.66
755.932	1606.12
756.116	1536.49
756.3	1593.83
756.484	1528.3
756.668	1466.86
756.852	1466.86
757.036	1479.15
757.22	1452.52
757.404	1364.46
757.588	1399.27
757.772	1389.03
757.956	1419.75
758.14	1552.87
758.323	1331.69
758.507	1372.65
758.691	1415.66
758.875	1378.79
759.059	1337.84
759.242	1444.33
759.426	1378.79
759.61	1419.75
759.794	1343.98
759.977	1339.88
760.161	1327.6
760.345	1266.16
760.528	1370.6
760.712	1286.64
760.895	1311.21
761.079	1339.88
761.263	1266.16
761.446	1243.63
761.63	1178.09
761.813	1270.25
761.997	1260.01
762.18	1202.67
762.364	1223.15
762.547	1169.9
762.731	1223.15
762.914	1120.75
763.098	1268.2
763.281	1065.46
763.464	1143.28
763.648	1133.04
763.831	1165.81
764.015	1231.34
764.198	1151.47
764.381	1135.09
764.564	1092.08
764.748	1055.22
764.931	1102.32
765.114	1124.85
765.297	1167.85
765.481	1051.12
765.664	1092.08
765.847	1071.6
766.03	1100.27
766.213	1083.89
766.397	1071.6
766.58	1206.77
766.763	1112.56
766.946	1096.18
767.129	1122.8
767.312	1051.12
767.495	1090.03
767.678	1124.85
767.861	1079.79
768.044	1083.89
768.227	1018.35
768.41	1024.5
768.593	954.87
768.776	1008.11
768.959	985.58
769.142	1030.64
769.324	1049.07
769.507	1040.88
769.69	1026.54
769.873	977.39
770.056	973.3
770.239	965.11
770.421	967.15
770.604	1094.13
770.787	995.82
770.97	963.06
771.152	895.47
771.335	950.77
771.518	967.15
771.7	1004.02
771.883	915.95
772.066	913.91
772.248	924.15
772.431	1051.12
772.613	920.05
772.796	881.14
772.978	874.99
773.161	942.58
773.343	905.71
773.526	877.04
773.708	885.23
773.891	819.7
774.073	901.62
774.256	954.87
774.438	877.04
774.621	862.71
774.803	918
774.985	803.32
775.168	911.86
775.35	797.17
775.532	793.08
775.715	831.99
775.897	788.98
776.079	815.6
776.261	799.22
776.444	877.04
776.626	791.03
776.808	725.49
776.99	772.6
777.173	739.83
777.355	807.41
777.537	844.28
777.719	764.4
777.901	752.12
778.083	793.08
778.265	717.3
778.447	735.73
778.629	719.35
778.811	666.1
778.993	715.25
779.175	709.11
779.357	768.5
779.539	670.2
779.721	625.14
779.903	672.25
780.085	668.15
780.267	698.87
780.449	639.48
780.631	674.29
780.812	674.29
780.994	629.24
781.176	709.11
781.358	668.15
781.54	643.57
781.721	537.08
781.903	580.09
782.085	565.75
782.267	604.66
782.448	596.47
782.63	625.14
782.812	561.66
782.993	567.8
783.175	526.84
783.357	551.42
783.538	604.66
783.72	547.32
783.901	506.36
784.083	600.57
784.264	528.89
784.446	543.22
784.627	530.94
784.809	565.75
784.99	475.64
785.172	532.98
785.353	508.41
785.535	487.93
785.716	436.73
785.897	420.35
786.079	430.59
786.26	506.36
786.441	467.45
786.623	487.93
786.804	438.78
786.985	526.84
787.167	471.54
787.348	414.2
787.529	541.18
787.71	539.13
787.891	463.35
788.073	442.87
788.254	414.2
788.435	520.7
788.616	461.3
788.797	408.06
788.978	457.21
789.159	539.13
789.34	377.34
789.522	389.63
789.703	467.45
789.884	403.96
790.065	375.29
790.246	410.11
790.427	453.11
790.607	408.06
790.788	416.25
790.969	418.3
791.15	461.3
791.331	375.29
791.512	487.93
791.693	442.87
791.874	367.1
792.054	426.49
792.235	375.29
792.416	424.44
792.597	371.19
792.778	379.39
792.958	373.24
793.139	307.71
793.32	354.81
793.5	391.67
793.681	348.67
793.862	309.76
794.042	379.39
794.223	313.85
794.404	387.58
794.584	342.52
794.765	233.98
794.945	301.56
795.126	399.87
795.306	356.86
795.487	274.94
795.667	289.28
795.848	371.19
796.028	258.56
796.209	344.57
796.389	279.04
796.57	299.52
796.75	336.38
796.93	350.71
797.111	285.18
797.291	338.43
797.471	279.04
797.652	322.04
797.832	211.45
798.012	334.33
798.192	313.85
798.373	279.04
798.553	252.41
798.733	344.57
798.913	266.75
799.093	299.52
799.274	260.6
799.454	344.57
799.634	311.8
799.814	334.33
799.994	285.18
800.174	305.66
800.354	285.18
800.534	279.04
800.714	295.42
800.894	209.4
801.074	252.41
801.254	301.56
801.434	274.94
801.614	276.99
801.794	315.9
801.974	694.77
802.154	258.56
802.334	238.08
802.514	305.66
802.693	293.37
802.873	307.71
803.053	227.84
803.233	223.74
803.413	264.7
803.592	225.79
803.772	240.12
803.952	164.35
804.131	305.66
804.311	303.61
804.491	293.37
804.67	305.66
804.85	276.99
805.03	215.55
805.209	338.43
805.389	303.61
805.568	227.84
805.748	266.75
805.928	229.88
806.107	270.84
806.287	281.08
806.466	182.78
806.646	158.21
806.825	166.4
807.004	223.74
807.184	246.27
807.363	276.99
807.543	281.08
807.722	201.21
807.901	152.06
808.081	174.59
808.26	156.16
808.439	172.54
808.619	238.08
808.798	188.93
808.977	123.39
809.156	231.93
809.336	225.79
809.515	205.31
809.694	174.59
809.873	145.92
810.052	213.5
810.231	227.84
810.411	213.5
810.59	229.88
810.769	176.64
810.948	238.08
811.127	115.2
811.306	190.97
811.485	168.45
811.664	236.03
811.843	174.59
812.022	223.74
812.201	176.64
812.38	131.58
812.559	190.97
812.737	229.88
812.916	104.96
813.095	213.5
813.274	125.44
813.453	121.34
813.632	143.87
813.811	223.74
813.989	176.64
814.168	233.98
814.347	100.86
814.526	168.45
814.704	201.21
814.883	176.64
815.062	125.44
815.24	180.73
815.419	186.88
815.598	270.84
815.776	182.78
815.955	178.69
816.133	152.06
816.312	207.36
816.49	170.49
816.669	68.09
816.847	127.49
817.026	162.3
817.204	168.45
817.383	88.57
817.561	170.49
817.74	111.1
817.918	221.69
818.097	147.97
818.275	195.07
818.453	154.11
818.632	219.64
818.81	133.63
818.988	98.81
819.167	115.2
819.345	221.69
819.523	117.25
819.701	160.25
819.879	152.06
820.058	109.05
820.236	150.01
820.414	172.54
820.592	186.88
820.77	150.01
820.948	150.01
821.127	66.05
821.305	123.39
821.483	82.43
821.661	150.01
821.839	104.96
822.017	113.15
822.195	178.69
822.373	78.33
822.551	72.19
822.729	117.25
822.907	76.29
823.085	141.82
823.262	141.82
823.44	107.01
823.618	145.92
823.796	107.01
823.974	121.34
824.152	51.71
824.329	82.43
824.507	90.62
824.685	64
824.863	49.66
825.04	145.92
825.218	70.14
825.396	84.48
825.574	207.36
825.751	86.53
825.929	145.92
826.107	162.3
826.284	94.72
826.462	174.59
826.639	109.05
826.817	90.62
826.994	102.91
827.172	150.01
827.349	119.29
827.527	182.78
827.704	184.83
827.882	51.71
828.059	176.64
828.237	55.81
828.414	145.92
828.591	107.01
828.769	109.05
828.946	94.72
829.124	137.73
829.301	154.11
829.478	145.92
829.655	115.2
829.833	2.56
830.01	92.67
830.187	121.34
830.364	76.29
830.542	57.86
830.719	156.16
830.896	86.53
831.073	72.19
831.25	115.2
831.427	88.57
831.604	158.21
831.782	111.1
831.959	90.62
832.136	121.34
832.313	125.44
832.49	43.52
832.667	92.67
832.844	68.09
833.021	133.63
833.198	158.21
833.374	88.57
833.551	66.05
833.728	82.43
833.905	35.33
834.082	174.59
834.259	154.11
834.436	78.33
834.612	96.77
834.789	133.63
834.966	78.33
835.143	82.43
835.319	72.19
835.496	68.09
835.673	20.99
835.85	121.34
836.026	158.21
836.203	117.25
836.38	139.77
836.556	31.23
836.733	35.33
836.909	117.25
837.086	117.25
837.262	86.53
837.439	94.72
837.616	25.09
837.792	88.57
837.968	74.24
838.145	-11.78
838.321	100.86
838.498	90.62
838.674	96.77
838.851	109.05
839.027	41.47
839.203	82.43
839.38	64
839.556	61.95
839.732	-3.58
839.909	111.1
840.085	100.86
840.261	41.47
840.437	121.34
840.614	76.29
840.79	74.24
840.966	45.57
841.142	64
841.318	74.24
841.494	113.15
841.671	61.95
841.847	55.81
842.023	72.19
842.199	27.14
842.375	68.09
842.551	80.38
842.727	25.09
842.903	72.19
843.079	41.47
843.255	61.95
843.431	92.67
843.607	143.87
843.783	27.14
843.959	154.11
844.134	37.38
844.31	43.52
844.486	152.06
844.662	80.38
844.838	100.86
845.013	53.76
845.189	135.68
845.365	107.01
845.541	64
845.716	70.14
845.892	104.96
846.068	57.86
846.244	41.47
846.419	55.81
846.595	29.18
846.77	-34.3
846.946	59.9
847.122	23.04
847.297	-15.87
847.473	117.25
847.648	33.28
847.824	78.33
847.999	6.66
848.175	35.33
848.35	100.86
848.526	150.01
848.701	70.14
848.876	137.73
849.052	66.05
849.227	49.66
849.403	-9.73
849.578	76.29
849.753	84.48
849.929	10.75
850.104	2.56
850.279	31.23
850.454	70.14
850.63	37.38
850.805	64
850.98	59.9
851.155	86.53
851.33	113.15
851.505	78.33
851.681	33.28
851.856	74.24
852.031	84.48
852.206	53.76
852.381	20.99
852.556	51.71
852.731	57.86
852.906	16.9
853.081	57.86
853.256	129.53
853.431	47.62
853.606	74.24
853.781	90.62
853.956	66.05
854.131	119.29
854.305	45.57
854.48	78.33
854.655	35.33
854.83	-24.06
855.005	-7.68
855.18	-1.54
855.354	104.96
855.529	10.75
855.704	57.86
855.879	41.47
856.053	-73.21
856.228	53.76
856.403	8.7
856.577	80.38
856.752	16.9
856.926	39.42
857.101	70.14
857.276	2.56
857.45	72.19
857.625	131.58
857.799	18.94
857.974	94.72
858.148	-48.64
858.323	39.42
858.497	66.05
858.672	35.33
858.846	-15.87
859.02	51.71
859.195	41.47
859.369	66.05
859.543	27.14
859.718	45.57
859.892	43.52
860.066	78.33
860.241	61.95
860.415	18.94
860.589	27.14
860.763	16.9
860.938	43.52
861.112	55.81
861.286	43.52
861.46	35.33
861.634	53.76
861.808	66.05
861.982	43.52
862.157	70.14
862.331	27.14
862.505	51.71
862.679	-34.3
862.853	82.43
863.027	-5.63
863.201	109.05
863.375	-11.78
863.549	66.05
863.722	-42.5
863.896	66.05
864.07	18.94
864.244	41.47
864.418	12.8
864.592	16.9
864.766	18.94
864.939	35.33
865.113	39.42
865.287	45.57
865.461	14.85
865.634	4.61
865.808	55.81
865.982	115.2
866.156	86.53
866.329	35.33
866.503	39.42
866.676	76.29
866.85	-9.73
867.024	10.75
867.197	39.42
867.371	66.05
867.544	4.61
867.718	49.66
867.891	2.56
868.065	14.85
868.238	-13.82
868.412	98.81
868.585	61.95
868.759	100.86
868.932	57.86
869.105	-7.68
869.279	35.33
869.452	45.57
869.625	78.33
869.799	29.18
869.972	12.8
870.145	80.38
870.319	4.61
870.492	-9.73
870.665	107.01
870.838	78.33
871.011	39.42
871.185	109.05
871.358	49.66
871.531	20.99
871.704	23.04
871.877	25.09
872.05	51.71
872.223	74.24
872.396	12.8
872.569	53.76
872.742	4.61
872.915	121.34
873.088	-15.87
873.261	57.86
873.434	66.05
873.607	39.42
873.78	55.81
873.953	37.38
874.126	20.99
874.299	-7.68
874.471	-69.12
874.644	-24.06
874.817	49.66
874.99	100.86
875.163	23.04
875.335	12.8
875.508	31.23
875.681	80.38
875.853	-13.82
876.026	14.85
876.199	137.73
876.371	18.94
876.544	35.33
876.717	37.38
876.889	18.94
877.062	74.24
877.234	-1.54
877.407	-15.87
877.579	47.62
877.752	43.52
877.924	25.09
878.097	-9.73
878.269	61.95
878.442	64
878.614	43.52
878.786	41.47
878.959	10.75
879.131	78.33
879.303	-50.69
879.476	41.47
879.648	-15.87
879.82	92.67
879.993	-3.58
880.165	-28.16
880.337	-58.88
880.509	27.14
880.681	-1.54
880.854	31.23
881.026	35.33
881.198	12.8
881.37	6.66
881.542	14.85
881.714	53.76
881.886	10.75
882.058	39.42
882.23	29.18
882.402	51.71
882.574	47.62
882.746	10.75
882.918	88.57
883.09	49.66
883.262	18.94
883.434	41.47
883.606	59.9
883.778	10.75
883.95	76.29
884.122	27.14
884.293	45.57
884.465	-19.97
884.637	64
884.809	2.56
884.98	27.14
885.152	16.9
885.324	27.14
885.496	-1.54
885.667	-40.45
885.839	-3.58
886.011	45.57
886.182	68.09
886.354	47.62
886.525	8.7
886.697	27.14
886.869	57.86
887.04	31.23
887.212	84.48
887.383	125.44
887.555	27.14
887.726	-1.54
887.897	55.81
888.069	80.38
888.24	76.29
888.412	33.28
888.583	20.99
888.754	37.38
888.926	2.56
889.097	49.66
889.268	27.14
889.44	31.23
889.611	-22.02
889.782	6.66
889.953	-7.68
890.125	14.85
890.296	20.99
890.467	4.61
890.638	-11.78
890.809	59.9
890.98	51.71
891.151	18.94
891.323	-11.78
891.494	-28.16
891.665	-7.68
891.836	49.66
892.007	53.76
892.178	49.66
892.349	-1.54
892.52	41.47
892.691	37.38
892.862	-5.63
893.032	-26.11
893.203	-19.97
893.374	-44.54
893.545	-28.16
893.716	-48.64
893.887	4.61
894.057	16.9
894.228	74.24
894.399	4.61
894.57	18.94
894.74	104.96
894.911	74.24
895.082	23.04
895.253	10.75
895.423	35.33
895.594	23.04
895.764	31.23
895.935	4.61
896.106	10.75
896.276	129.53
896.447	2.56
896.617	-40.45
896.788	12.8
896.958	66.05
897.129	4.61
897.299	-5.63
897.47	72.19
897.64	6.66
897.81	18.94
897.981	76.29
898.151	-69.12
898.322	6.66
898.492	35.33
898.662	-24.06
898.832	72.19
899.003	25.09
899.173	16.9
899.343	0.51
899.513	-26.11
