Data from USB4F104151__65__11-45-24-528.txt Node

Date: Fri Mar 14 11:45:24 EDT 2025
User: louis
Spectrometer: USB4F10415
Trigger mode: 4
Integration Time (sec): 2.000000E-2
Scans to average: 1
Electric dark correction enabled: true
Nonlinearity correction enabled: false
Boxcar width: 0
XAxis mode: Wavelengths
Number of Pixels in Spectrum: 3648
>>>>>Begin Spectral Data<<<<<
178.204	-78.16
178.424	-78.16
178.644	-78.16
178.864	26.28
179.084	-14.68
179.304	-45.4
179.524	13.99
179.744	-35.16
179.964	28.33
180.184	-45.4
180.404	42.67
180.624	-2.39
180.844	-37.2
181.064	-12.63
181.283	54.95
181.503	30.38
181.723	7.85
181.943	-6.49
182.163	16.04
182.383	-0.34
182.602	71.34
182.822	34.47
183.042	46.76
183.262	-29.01
183.482	-20.82
183.701	40.62
183.921	95.91
184.141	36.52
184.361	24.23
184.58	28.33
184.8	44.71
185.02	-4.44
185.239	40.62
185.459	28.33
185.679	52.91
185.898	-14.68
186.118	67.24
186.338	50.86
186.557	44.71
186.777	52.91
186.997	93.87
187.216	-55.64
187.436	77.48
187.655	36.52
187.875	77.48
188.095	-10.58
188.314	26.28
188.534	34.47
188.753	63.15
188.973	-26.96
189.192	-39.25
189.412	24.23
189.631	9.9
189.851	59.05
190.07	28.33
190.29	-4.44
190.509	20.14
190.729	36.52
190.948	59.05
191.168	97.96
191.387	63.15
191.607	26.28
191.826	116.39
192.045	-45.4
192.265	18.09
192.484	9.9
192.704	-2.39
192.923	22.19
193.142	83.63
193.362	5.8
193.581	57
193.8	22.19
194.02	-6.49
194.239	32.43
194.458	16.04
194.678	26.28
194.897	32.43
195.116	-2.39
195.335	30.38
195.555	46.76
195.774	-16.73
195.993	52.91
196.212	30.38
196.432	18.09
196.651	102.06
196.87	1.71
197.089	7.85
197.308	93.87
197.528	81.58
197.747	-41.3
197.966	54.95
198.185	16.04
198.404	3.75
198.623	-16.73
198.842	5.8
199.062	77.48
199.281	65.19
199.5	42.67
199.719	-4.44
199.938	42.67
200.157	69.29
200.376	75.43
200.595	42.67
200.814	59.05
201.033	30.38
201.252	63.15
201.471	-51.54
201.69	93.87
201.909	16.04
202.128	-16.73
202.347	26.28
202.566	-41.3
202.785	-4.44
203.004	-0.34
203.223	54.95
203.442	61.1
203.661	-0.34
203.879	40.62
204.098	63.15
204.317	22.19
204.536	67.24
204.755	57
204.974	102.06
205.193	75.43
205.411	42.67
205.63	28.33
205.849	57
206.068	36.52
206.287	1.71
206.505	-22.87
206.724	32.43
206.943	-26.96
207.162	5.8
207.381	44.71
207.599	28.33
207.818	38.57
208.037	44.71
208.255	77.48
208.474	28.33
208.693	24.23
208.911	42.67
209.13	-22.87
209.349	16.04
209.567	50.86
209.786	54.95
210.005	65.19
210.223	28.33
210.442	32.43
210.661	50.86
210.879	18.09
211.098	63.15
211.316	48.81
211.535	83.63
211.753	7.85
211.972	69.29
212.191	57
212.409	36.52
212.628	38.57
212.846	44.71
213.065	26.28
213.283	95.91
213.502	-24.92
213.72	22.19
213.938	-39.25
214.157	28.33
214.375	81.58
214.594	3.75
214.812	36.52
215.031	57
215.249	-24.92
215.467	11.95
215.686	69.29
215.904	52.91
216.122	24.23
216.341	106.15
216.559	54.95
216.778	93.87
216.996	63.15
217.214	13.99
217.432	44.71
217.651	5.8
217.869	38.57
218.087	57
218.306	11.95
218.524	30.38
218.742	1.71
218.96	11.95
219.179	36.52
219.397	3.75
219.615	-22.87
219.833	77.48
220.051	93.87
220.27	46.76
220.488	65.19
220.706	28.33
220.924	67.24
221.142	24.23
221.36	91.82
221.578	-6.49
221.796	-0.34
222.015	-29.01
222.233	18.09
222.451	85.67
222.669	-2.39
222.887	71.34
223.105	11.95
223.323	-8.53
223.541	34.47
223.759	-0.34
223.977	-14.68
224.195	38.57
224.413	22.19
224.631	22.19
224.849	52.91
225.067	79.53
225.285	16.04
225.503	-20.82
225.721	11.95
225.939	13.99
226.157	11.95
226.375	169.64
226.592	22.19
226.81	69.29
227.028	40.62
227.246	79.53
227.464	28.33
227.682	-37.2
227.9	18.09
228.117	89.77
228.335	32.43
228.553	16.04
228.771	1.71
228.989	104.11
229.206	81.58
229.424	30.38
229.642	40.62
229.86	48.81
230.077	18.09
230.295	61.1
230.513	-33.11
230.731	59.05
230.948	-14.68
231.166	13.99
231.384	-4.44
231.601	32.43
231.819	143.02
232.037	67.24
232.254	-49.49
232.472	28.33
232.689	77.48
232.907	36.52
233.125	18.09
233.342	42.67
233.56	16.04
233.777	50.86
233.995	87.72
234.213	69.29
234.43	-57.68
234.648	85.67
234.865	69.29
235.083	130.73
235.3	93.87
235.518	50.86
235.735	93.87
235.953	34.47
236.17	52.91
236.388	-67.92
236.605	48.81
236.822	38.57
237.04	40.62
237.257	50.86
237.475	-33.11
237.692	40.62
237.909	32.43
238.127	28.33
238.344	87.72
238.562	30.38
238.779	18.09
238.996	-2.39
239.214	32.43
239.431	118.44
239.648	11.95
239.865	52.91
240.083	67.24
240.3	-6.49
240.517	-4.44
240.735	97.96
240.952	57
241.169	69.29
241.386	-67.92
241.603	42.67
241.821	-29.01
242.038	59.05
242.255	59.05
242.472	61.1
242.689	50.86
242.907	32.43
243.124	16.04
243.341	-41.3
243.558	67.24
243.775	-18.77
243.992	26.28
244.209	97.96
244.426	81.58
244.643	77.48
244.86	1.71
245.078	81.58
245.295	126.63
245.512	30.38
245.729	44.71
245.946	61.1
246.163	48.81
246.38	-6.49
246.597	73.39
246.814	79.53
247.031	-49.49
247.248	40.62
247.464	34.47
247.681	3.75
247.898	57
248.115	24.23
248.332	75.43
248.549	100.01
248.766	44.71
248.983	71.34
249.2	18.09
249.417	132.78
249.633	69.29
249.85	40.62
250.067	77.48
250.284	91.82
250.501	1.71
250.717	89.77
250.934	9.9
251.151	85.67
251.368	-29.01
251.585	36.52
251.801	3.75
252.018	79.53
252.235	9.9
252.451	-8.53
252.668	-80.21
252.885	11.95
253.102	22.19
253.318	-18.77
253.535	1.71
253.752	9.9
253.968	5.8
254.185	50.86
254.401	65.19
254.618	3.75
254.835	40.62
255.051	104.11
255.268	24.23
255.484	44.71
255.701	-10.58
255.917	-12.63
256.134	18.09
256.351	52.91
256.567	26.28
256.784	11.95
257	-16.73
257.217	59.05
257.433	9.9
257.65	50.86
257.866	85.67
258.082	3.75
258.299	59.05
258.515	71.34
258.732	126.63
258.948	61.1
259.165	20.14
259.381	54.95
259.597	52.91
259.814	100.01
260.03	22.19
260.246	7.85
260.463	91.82
260.679	38.57
260.895	30.38
261.112	3.75
261.328	20.14
261.544	54.95
261.761	59.05
261.977	79.53
262.193	63.15
262.409	-6.49
262.626	61.1
262.842	179.88
263.058	44.71
263.274	79.53
263.49	59.05
263.707	-26.96
263.923	50.86
264.139	-8.53
264.355	93.87
264.571	34.47
264.787	11.95
265.004	-14.68
265.22	36.52
265.436	16.04
265.652	77.48
265.868	75.43
266.084	11.95
266.3	9.9
266.516	11.95
266.732	73.39
266.948	-0.34
267.164	-26.96
267.38	52.91
267.596	40.62
267.812	59.05
268.028	67.24
268.244	7.85
268.46	52.91
268.676	36.52
268.892	32.43
269.108	44.71
269.324	40.62
269.54	-6.49
269.756	40.62
269.972	18.09
270.188	5.8
270.403	38.57
270.619	52.91
270.835	128.68
271.051	20.14
271.267	32.43
271.483	83.63
271.698	48.81
271.914	-47.44
272.13	-8.53
272.346	59.05
272.562	7.85
272.777	1.71
272.993	67.24
273.209	40.62
273.425	52.91
273.64	30.38
273.856	28.33
274.072	42.67
274.287	20.14
274.503	48.81
274.719	34.47
274.934	44.71
275.15	38.57
275.366	34.47
275.581	18.09
275.797	7.85
276.012	48.81
276.228	30.38
276.444	32.43
276.659	102.06
276.875	73.39
277.09	106.15
277.306	-16.73
277.521	138.92
277.737	42.67
277.952	79.53
278.168	59.05
278.383	22.19
278.599	61.1
278.814	5.8
279.03	65.19
279.245	114.34
279.461	83.63
279.676	75.43
279.892	36.52
280.107	108.2
280.322	87.72
280.538	36.52
280.753	11.95
280.969	87.72
281.184	44.71
281.399	16.04
281.615	61.1
281.83	18.09
282.045	110.25
282.26	13.99
282.476	38.57
282.691	42.67
282.906	91.82
283.122	102.06
283.337	91.82
283.552	118.44
283.767	65.19
283.983	20.14
284.198	-14.68
284.413	1.71
284.628	59.05
284.843	3.75
285.058	52.91
285.274	32.43
285.489	22.19
285.704	108.2
285.919	16.04
286.134	38.57
286.349	61.1
286.564	18.09
286.779	106.15
286.995	75.43
287.21	77.48
287.425	38.57
287.64	61.1
287.855	65.19
288.07	-4.44
288.285	73.39
288.5	75.43
288.715	36.52
288.93	65.19
289.145	42.67
289.36	-0.34
289.575	7.85
289.79	30.38
290.004	79.53
290.219	46.76
290.434	59.05
290.649	-8.53
290.864	81.58
291.079	-0.34
291.294	1.71
291.509	5.8
291.724	61.1
291.938	34.47
292.153	65.19
292.368	57
292.583	11.95
292.798	5.8
293.012	91.82
293.227	32.43
293.442	36.52
293.657	42.67
293.871	73.39
294.086	38.57
294.301	63.15
294.516	11.95
294.73	38.57
294.945	32.43
295.16	-67.92
295.374	44.71
295.589	67.24
295.804	38.57
296.018	73.39
296.233	40.62
296.447	26.28
296.662	-10.58
296.877	50.86
297.091	32.43
297.306	87.72
297.52	3.75
297.735	46.76
297.949	65.19
298.164	65.19
298.378	-4.44
298.593	24.23
298.807	-41.3
299.022	20.14
299.236	57
299.451	32.43
299.665	46.76
299.88	50.86
300.094	40.62
300.309	71.34
300.523	52.91
300.737	61.1
300.952	83.63
301.166	-16.73
301.381	116.39
301.595	79.53
301.809	61.1
302.024	102.06
302.238	-4.44
302.452	65.19
302.667	5.8
302.881	61.1
303.095	95.91
303.309	20.14
303.524	-33.11
303.738	85.67
303.952	24.23
304.166	52.91
304.381	59.05
304.595	122.54
304.809	13.99
305.023	63.15
305.237	89.77
305.452	57
305.666	89.77
305.88	100.01
306.094	52.91
306.308	22.19
306.522	81.58
306.736	18.09
306.95	32.43
307.164	73.39
307.379	87.72
307.593	110.25
307.807	16.04
308.021	79.53
308.235	57
308.449	44.71
308.663	20.14
308.877	93.87
309.091	22.19
309.305	85.67
309.519	5.8
309.733	24.23
309.947	18.09
310.161	106.15
310.374	20.14
310.588	106.15
310.802	32.43
311.016	13.99
311.23	-4.44
311.444	48.81
311.658	5.8
311.872	54.95
312.085	28.33
312.299	65.19
312.513	28.33
312.727	69.29
312.941	-6.49
313.154	28.33
313.368	30.38
313.582	57
313.796	28.33
314.009	7.85
314.223	42.67
314.437	122.54
314.651	63.15
314.864	36.52
315.078	59.05
315.292	50.86
315.505	11.95
315.719	100.01
315.933	-35.16
316.146	32.43
316.36	89.77
316.573	77.48
316.787	22.19
317.001	-8.53
317.214	-18.77
317.428	120.49
317.641	22.19
317.855	38.57
318.068	65.19
318.282	28.33
318.495	75.43
318.709	110.25
318.922	106.15
319.136	77.48
319.349	3.75
319.563	-6.49
319.776	20.14
319.99	26.28
320.203	36.52
320.417	16.04
320.63	89.77
320.843	83.63
321.057	44.71
321.27	97.96
321.483	52.91
321.697	54.95
321.91	-16.73
322.124	97.96
322.337	77.48
322.55	5.8
322.763	112.3
322.977	22.19
323.19	79.53
323.403	100.01
323.617	48.81
323.83	89.77
324.043	46.76
324.256	93.87
324.469	24.23
324.683	-0.34
324.896	83.63
325.109	52.91
325.322	28.33
325.535	26.28
325.748	102.06
325.962	59.05
326.175	61.1
326.388	3.75
326.601	-10.58
326.814	81.58
327.027	69.29
327.24	89.77
327.453	-22.87
327.666	1.71
327.879	42.67
328.092	59.05
328.305	-6.49
328.518	126.63
328.731	38.57
328.944	-20.82
329.157	28.33
329.37	-33.11
329.583	59.05
329.796	61.1
330.009	-6.49
330.222	108.2
330.435	28.33
330.648	77.48
330.861	44.71
331.073	18.09
331.286	28.33
331.499	50.86
331.712	-4.44
331.925	26.28
332.138	-20.82
332.35	40.62
332.563	28.33
332.776	-4.44
332.989	26.28
333.202	83.63
333.414	-18.77
333.627	87.72
333.84	-0.34
334.053	18.09
334.265	44.71
334.478	40.62
334.691	18.09
334.903	26.28
335.116	11.95
335.329	42.67
335.541	100.01
335.754	59.05
335.966	5.8
336.179	13.99
336.392	-47.44
336.604	61.1
336.817	118.44
337.029	30.38
337.242	102.06
337.454	-6.49
337.667	-4.44
337.88	28.33
338.092	124.58
338.305	3.75
338.517	30.38
338.729	57
338.942	67.24
339.154	57
339.367	16.04
339.579	102.06
339.792	-20.82
340.004	52.91
340.217	65.19
340.429	5.8
340.641	30.38
340.854	36.52
341.066	16.04
341.278	67.24
341.491	54.95
341.703	75.43
341.915	73.39
342.128	69.29
342.34	81.58
342.552	54.95
342.764	83.63
342.977	54.95
343.189	61.1
343.401	104.11
343.613	-49.49
343.826	67.24
344.038	91.82
344.25	-6.49
344.462	-31.06
344.674	126.63
344.886	22.19
345.099	116.39
345.311	79.53
345.523	30.38
345.735	-18.77
345.947	114.34
346.159	44.71
346.371	-10.58
346.583	52.91
346.795	77.48
347.007	11.95
347.219	93.87
347.431	71.34
347.643	85.67
347.855	-6.49
348.067	46.76
348.279	89.77
348.491	69.29
348.703	81.58
348.915	24.23
349.127	44.71
349.339	26.28
349.551	63.15
349.763	81.58
349.975	91.82
350.187	63.15
350.399	73.39
350.61	38.57
350.822	75.43
351.034	79.53
351.246	48.81
351.458	87.72
351.669	22.19
351.881	54.95
352.093	16.04
352.305	122.54
352.517	116.39
352.728	11.95
352.94	52.91
353.152	38.57
353.363	7.85
353.575	85.67
353.787	106.15
353.999	5.8
354.21	97.96
354.422	75.43
354.633	59.05
354.845	-8.53
355.057	28.33
355.268	54.95
355.48	42.67
355.692	30.38
355.903	100.01
356.115	-6.49
356.326	63.15
356.538	71.34
356.749	36.52
356.961	102.06
357.172	16.04
357.384	-12.63
357.595	104.11
357.807	16.04
358.018	106.15
358.23	32.43
358.441	128.68
358.653	48.81
358.864	42.67
359.075	9.9
359.287	69.29
359.498	69.29
359.709	32.43
359.921	30.38
360.132	63.15
360.344	13.99
360.555	71.34
360.766	11.95
360.977	40.62
361.189	69.29
361.4	1.71
361.611	57
361.823	97.96
362.034	69.29
362.245	1.71
362.456	52.91
362.667	110.25
362.879	140.97
363.09	28.33
363.301	3.75
363.512	16.04
363.723	38.57
363.935	69.29
364.146	30.38
364.357	32.43
364.568	16.04
364.779	75.43
364.99	34.47
365.201	128.68
365.412	40.62
365.623	26.28
365.834	59.05
366.045	50.86
366.256	46.76
366.467	42.67
366.678	59.05
366.889	50.86
367.1	79.53
367.311	7.85
367.522	145.06
367.733	54.95
367.944	18.09
368.155	102.06
368.366	65.19
368.577	18.09
368.788	73.39
368.999	102.06
369.209	34.47
369.42	132.78
369.631	116.39
369.842	67.24
370.053	97.96
370.264	97.96
370.474	30.38
370.685	69.29
370.896	20.14
371.107	63.15
371.317	69.29
371.528	40.62
371.739	122.54
371.95	126.63
372.16	40.62
372.371	-18.77
372.582	34.47
372.792	83.63
373.003	97.96
373.214	-10.58
373.424	67.24
373.635	91.82
373.846	97.96
374.056	18.09
374.267	75.43
374.477	57
374.688	106.15
374.898	63.15
375.109	46.76
375.319	57
375.53	97.96
375.74	9.9
375.951	79.53
376.161	120.49
376.372	32.43
376.582	40.62
376.793	50.86
377.003	32.43
377.214	89.77
377.424	7.85
377.635	-0.34
377.845	46.76
378.055	34.47
378.266	63.15
378.476	106.15
378.686	46.76
378.897	63.15
379.107	102.06
379.317	69.29
379.528	61.1
379.738	65.19
379.948	16.04
380.158	87.72
380.369	75.43
380.579	69.29
380.789	28.33
380.999	81.58
381.21	100.01
381.42	190.12
381.63	5.8
381.84	128.68
382.05	97.96
382.261	24.23
382.471	9.9
382.681	59.05
382.891	100.01
383.101	22.19
383.311	3.75
383.521	40.62
383.731	114.34
383.941	85.67
384.151	57
384.361	118.44
384.571	110.25
384.781	128.68
384.991	65.19
385.201	75.43
385.411	34.47
385.621	59.05
385.831	42.67
386.041	59.05
386.251	38.57
386.461	11.95
386.671	-20.82
386.881	93.87
387.091	57
387.301	34.47
387.511	136.87
387.72	120.49
387.93	52.91
388.14	63.15
388.35	54.95
388.56	59.05
388.769	136.87
388.979	138.92
389.189	61.1
389.399	38.57
389.609	114.34
389.818	163.5
390.028	104.11
390.238	34.47
390.447	106.15
390.657	24.23
390.867	83.63
391.076	75.43
391.286	110.25
391.496	106.15
391.705	124.58
391.915	140.97
392.125	50.86
392.334	110.25
392.544	151.21
392.753	34.47
392.963	42.67
393.172	69.29
393.382	61.1
393.591	136.87
393.801	69.29
394.01	214.7
394.22	69.29
394.429	120.49
394.639	140.97
394.848	106.15
395.058	71.34
395.267	108.2
395.477	110.25
395.686	128.68
395.895	114.34
396.105	204.46
396.314	73.39
396.524	149.16
396.733	75.43
396.942	140.97
397.152	192.17
397.361	132.78
397.57	147.11
397.78	102.06
397.989	130.73
398.198	147.11
398.407	97.96
398.617	163.5
398.826	87.72
399.035	61.1
399.244	130.73
399.453	120.49
399.663	149.16
399.872	169.64
400.081	128.68
400.29	171.69
400.499	85.67
400.708	233.13
400.917	100.01
401.127	106.15
401.336	161.45
401.545	167.59
401.754	169.64
401.963	102.06
402.172	194.22
402.381	171.69
402.59	114.34
402.799	179.88
403.008	169.64
403.217	181.93
403.426	126.63
403.635	151.21
403.844	143.02
404.053	118.44
404.262	126.63
404.471	155.3
404.68	218.79
404.888	149.16
405.097	140.97
405.306	130.73
405.515	239.27
405.724	294.57
405.933	231.08
406.142	202.41
406.35	226.98
406.559	269.99
406.768	255.65
406.977	229.03
407.185	210.6
407.394	257.7
407.603	298.66
407.812	276.13
408.02	239.27
408.229	282.28
408.438	257.7
408.646	282.28
408.855	282.28
409.064	368.29
409.272	382.63
409.481	294.57
409.69	317.09
409.898	388.77
410.107	370.34
410.315	384.68
410.524	431.78
410.733	458.4
410.941	388.77
411.15	431.78
411.358	548.51
411.567	433.83
411.775	382.63
411.984	558.75
412.192	491.17
412.401	491.17
412.609	558.75
412.818	575.14
413.026	589.47
413.234	640.67
413.443	587.43
413.651	646.82
413.86	589.47
414.068	722.59
414.276	704.16
414.485	822.94
414.693	757.41
414.901	806.56
415.11	822.94
415.318	886.43
415.526	822.94
415.734	980.64
415.943	917.15
416.151	931.48
416.359	997.02
416.567	1062.55
416.776	1101.47
416.984	1203.86
417.192	1216.15
417.4	1119.9
417.608	1179.29
417.817	1132.19
418.025	1285.78
418.233	1314.45
418.441	1257.11
418.649	1420.95
418.857	1486.48
419.065	1527.44
419.273	1431.19
419.481	1619.6
419.689	1613.46
419.897	1625.75
420.105	1834.64
420.313	1812.11
420.521	1887.89
420.729	1951.37
420.937	2059.92
421.145	2121.35
421.353	2166.41
421.561	2227.85
421.769	2358.92
421.977	2481.8
422.185	2436.74
422.393	2569.86
422.601	2668.16
422.809	2719.36
423.017	2584.2
423.224	2739.84
423.432	3001.98
423.64	2965.12
423.848	3253.88
424.056	3090.04
424.263	3415.67
424.471	3378.81
424.679	3411.57
424.887	3812.98
425.094	3702.39
425.302	3649.14
425.51	3860.08
425.718	4126.32
425.925	3946.09
426.133	4154.99
426.341	4363.88
426.548	4636.26
426.756	4662.88
426.964	4773.47
427.171	5004.89
427.379	5097.05
427.586	5242.46
427.794	5293.66
428.001	5652.05
428.209	5854.8
428.417	5703.25
428.624	6143.56
428.832	6239.82
429.039	6063.69
429.247	6045.26
429.454	6854.21
429.662	7114.3
429.869	6610.5
430.076	7081.53
430.284	7063.1
430.491	7339.58
430.699	7505.46
430.906	7773.75
431.114	7730.74
431.321	7919.15
431.528	8267.31
431.736	8748.58
431.943	9121.31
432.15	8779.3
432.358	9014.82
432.565	9412.12
432.772	9379.36
432.979	10044.95
433.187	9987.6
433.394	10034.71
433.601	10810.89
433.808	10790.41
434.016	10892.8
434.223	11288.06
434.43	11787.77
434.637	11775.48
434.844	12242.42
435.052	12766.7
435.259	12602.86
435.466	12545.52
435.673	12459.5
435.88	13301.22
436.087	13972.95
436.294	14099.92
436.501	13856.22
436.708	14003.67
436.915	14411.21
437.122	15041.99
437.329	15267.27
437.537	15596.99
437.743	15674.81
437.95	15803.83
438.157	16635.31
438.364	16866.73
438.571	17223.08
438.778	17331.62
438.985	18785.68
439.192	18251.16
439.399	18779.53
439.606	18173.33
439.813	19283.33
440.02	20127.1
440.227	19948.92
440.433	19957.11
440.64	20471.15
440.847	20327.8
441.054	20866.41
441.261	22209.88
441.467	22017.37
441.674	22539.6
441.881	23371.08
442.088	23051.59
442.294	22883.66
442.501	23612.74
442.708	23962.94
442.914	24943.92
443.121	26201.37
443.328	25308.46
443.534	27249.93
443.741	26256.67
443.948	26225.95
444.154	28128.51
444.361	27940.1
444.568	27878.66
444.774	28228.86
444.981	28095.74
445.187	29062.38
445.394	30444.76
445.6	30180.57
445.807	32654.52
446.013	31395.02
446.22	32103.62
446.426	33246.38
446.633	33440.94
446.839	34399.39
447.046	33393.84
447.252	35017.88
447.459	34866.33
447.665	35122.32
447.871	36488.32
448.078	37680.24
448.284	36326.53
448.491	37266.55
448.697	38679.64
448.903	39414.87
449.11	39380.05
449.316	38452.32
449.522	39097.43
449.728	40899.64
449.935	40756.28
450.141	41145.4
450.347	41557.04
450.553	40264.77
450.76	41030.71
450.966	42282.02
451.172	42023.98
451.378	43142.17
451.584	41886.76
451.791	42845.21
451.997	42978.33
452.203	43392.02
452.409	43863.05
452.615	43693.07
452.821	41690.16
453.027	40977.47
453.233	43363.35
453.44	42167.34
453.646	42474.53
453.852	42703.9
454.058	42906.65
454.264	41882.67
454.47	42783.77
454.676	41940.01
454.882	43342.87
455.088	39576.65
455.294	40047.69
455.5	40639.55
455.705	41237.56
455.911	39470.16
456.117	39099.48
456.323	37940.33
456.529	36041.86
456.735	37901.42
456.941	36818.04
457.147	36041.86
457.352	35013.78
457.558	34720.92
457.764	34839.7
457.97	34374.81
458.176	33436.84
458.381	33219.76
458.587	32060.61
458.793	31872.2
458.999	30391.51
459.204	32443.58
459.41	31259.85
459.616	29490.41
459.821	29310.19
460.027	29469.93
460.233	28613.88
460.438	27327.75
460.644	27294.99
460.85	26281.24
461.055	25920.8
461.261	26029.34
461.466	23897.41
461.672	23092.55
461.878	25355.56
462.083	23211.34
462.289	23002.44
462.494	22412.63
462.7	21665.12
462.905	21110.12
463.111	21669.22
463.316	21859.68
463.522	21411.17
463.727	21439.84
463.932	21521.76
464.138	20962.67
464.343	21214.57
464.549	20612.46
464.754	21220.71
464.959	21009.77
465.165	21005.67
465.37	20051.32
465.575	19703.17
465.781	20516.21
465.986	20469.11
466.191	19664.25
466.397	19283.33
466.602	18294.16
466.807	19035.53
467.012	18900.36
467.218	19017.1
467.423	18527.63
467.628	18943.37
467.833	19500.42
468.038	18734.48
468.244	18199.96
468.449	18996.62
468.654	18296.21
468.859	18296.21
469.064	18185.62
469.269	17370.53
469.474	17610.14
469.679	17939.86
469.885	17321.38
470.09	17647.01
470.295	17554.85
470.5	17327.52
470.705	17151.4
470.91	16700.84
471.115	16760.23
471.32	16899.5
471.525	16727.47
471.73	16518.57
471.935	16166.32
472.139	16006.58
472.344	15982.01
472.549	15791.55
472.754	15736.25
472.959	15287.75
473.164	15011.27
473.369	15142.34
473.574	15525.31
473.778	15365.57
473.983	15150.53
474.188	15009.22
474.393	14587.34
474.598	14347.73
474.802	14349.78
475.007	14253.52
475.212	14124.5
475.417	13518.3
475.621	13839.83
475.826	13770.2
476.031	13635.03
476.235	13315.55
476.44	13526.49
476.645	13250.02
476.849	13170.15
477.054	13016.55
477.259	12740.07
477.463	12963.3
477.668	12656.11
477.872	12484.08
478.077	12318.19
478.282	12058.1
478.486	12082.67
478.691	11986.42
478.895	11972.08
479.1	11888.12
479.304	11918.84
479.509	11546.11
479.713	11853.3
479.918	11599.35
480.122	11367.93
480.326	11535.87
480.531	11365.89
480.735	11298.3
480.94	11292.16
481.144	11677.18
481.348	10972.68
481.553	11267.58
481.757	11005.44
481.961	11148.8
482.166	11329.02
482.37	11118.08
482.574	10939.91
482.778	10923.52
482.983	11177.47
483.187	11025.92
483.391	10958.34
483.595	11120.13
483.8	10864.13
484.004	11060.74
484.208	11214.34
484.412	10794.5
484.616	10817.03
484.821	11077.12
485.025	10819.08
485.229	11089.41
485.433	10761.73
485.637	11187.71
485.841	10941.96
486.045	10780.17
486.249	11095.55
486.453	10710.54
486.657	11097.6
486.861	11113.99
487.065	10681.86
487.269	11089.41
487.473	10712.58
487.677	11077.12
487.881	11030.02
488.085	10956.29
488.289	11105.79
488.493	10948.1
488.697	11109.89
488.901	11062.79
489.105	10927.62
489.309	11202.05
489.512	11103.75
489.716	10995.2
489.92	11232.77
490.124	11027.97
490.328	11394.56
490.531	11136.51
490.735	11032.07
490.939	11236.86
491.143	11212.29
491.346	11156.99
491.55	11365.89
491.754	11515.39
491.958	11331.07
492.161	11292.16
492.365	11810.29
492.569	11396.6
492.772	11546.11
492.976	11591.16
493.18	11572.73
493.383	11793.91
493.587	11867.64
493.79	11980.28
493.994	11884.02
494.197	12148.21
494.401	12097.01
494.605	12135.92
494.808	12246.51
495.012	12506.6
495.215	12310
495.419	12383.73
495.622	12238.32
495.825	12789.22
496.029	12547.56
496.232	12860.9
496.436	12860.9
496.639	13184.48
496.843	13080.04
497.046	13442.53
497.249	13653.47
497.453	13524.44
497.656	13467.1
497.859	13774.3
498.063	13938.13
498.266	14206.42
498.469	14142.93
498.673	14230.99
498.876	14403.02
499.079	14568.91
499.282	14826.95
499.485	14867.91
499.689	15158.72
499.892	15531.45
500.095	15281.6
500.298	15695.29
500.501	15474.11
500.705	15953.34
500.908	16168.37
501.111	15959.48
501.314	16332.21
501.517	16610.73
501.72	16616.88
501.923	16872.87
502.126	16909.74
502.329	17268.13
502.532	17251.75
502.735	17632.67
502.938	17560.99
503.141	17831.32
503.344	18183.57
503.547	18304.4
503.75	18363.79
503.953	18791.82
504.156	18783.63
504.359	18871.69
504.562	19068.3
504.765	19600.77
504.968	19594.62
505.17	19832.19
505.373	19803.52
505.576	20462.96
505.779	20276.6
505.982	20280.69
506.185	20956.52
506.387	20909.42
506.59	21028.2
506.793	21749.09
506.996	21495.14
507.198	22019.42
507.401	22197.59
507.604	22226.26
507.807	22650.19
508.009	22791.5
508.212	23029.07
508.415	23106.89
508.617	23496
508.82	23612.74
509.022	23426.37
509.225	24360.25
509.428	24149.31
509.63	24692.02
509.833	24818.99
510.035	25496.87
510.238	25302.31
510.44	25654.56
510.643	25949.47
510.845	26217.75
511.048	25957.66
511.25	26459.41
511.453	26758.42
511.655	27438.34
511.858	26862.86
512.06	27188.49
512.262	27616.52
512.465	27817.22
512.667	28341.5
512.87	28613.88
513.072	28366.07
513.274	29062.38
513.477	29099.25
513.679	29586.66
513.881	30160.09
514.084	30227.68
514.286	29938.91
514.488	30702.81
514.69	31007.95
514.893	30944.47
515.095	31184.08
515.297	31653.06
515.499	31845.57
515.701	31857.86
515.904	32562.36
516.106	32625.85
516.308	32638.14
516.51	33307.82
516.712	33133.75
516.914	33563.82
517.116	34383.01
517.318	34133.15
517.52	34493.6
517.722	34548.89
517.925	35144.85
518.127	35796.1
518.329	35515.53
518.531	35476.62
518.733	36449.41
518.935	36762.75
519.136	36590.72
519.338	37278.83
519.54	37407.86
519.742	37739.63
519.944	37586.03
520.146	38302.82
520.348	38311.01
520.55	38880.35
520.752	38628.45
520.954	39160.92
521.155	39058.52
521.357	39605.33
521.559	39988.3
521.761	40936.51
521.963	40201.29
522.164	40444.99
522.366	40668.22
522.568	41210.93
522.77	41487.41
522.971	42109.99
523.173	41917.48
523.375	42134.57
523.576	42359.84
523.778	42744.86
523.98	42681.38
524.181	43424.79
524.383	42853.4
524.584	43721.74
524.786	43908.11
524.988	43435.03
525.189	43834.38
525.391	44276.74
525.592	44405.77
525.794	44737.54
525.995	44389.38
526.197	44778.5
526.398	45138.94
526.6	45458.42
526.801	45638.64
527.003	45868.01
527.204	45515.76
527.406	45992.94
527.607	45671.41
527.808	46427.11
528.01	45577.2
528.211	45978.61
528.412	46922.72
528.614	46935.01
528.815	46924.77
529.016	47289.31
529.218	46894.05
529.419	47098.84
529.62	47365.08
529.822	47141.85
530.023	47055.84
530.224	47158.24
530.425	47027.17
530.626	47287.26
530.828	47080.41
531.029	48366.54
531.23	47653.84
531.431	47408.09
531.632	47963.09
531.833	48045.01
532.035	47502.29
532.236	48008.14
532.437	48315.34
532.638	47954.89
532.839	48059.34
533.04	49077.18
533.241	48280.52
533.442	48792.51
533.643	48315.34
533.844	48640.96
534.045	48661.44
534.246	48194.51
534.447	48436.17
534.648	48108.49
534.849	48309.19
535.05	48255.95
535.251	48485.32
535.451	48442.31
535.652	48763.84
535.853	48493.51
536.054	48370.63
536.255	48686.02
536.456	48497.61
536.657	48790.47
536.857	48366.54
537.058	48208.84
537.259	48880.58
537.46	48640.96
537.66	48485.32
537.861	48403.4
538.062	48462.79
538.263	48849.86
538.463	48167.88
538.664	48047.05
538.865	48669.64
539.065	48952.26
539.266	48292.81
539.466	48931.78
539.667	48493.51
539.868	48956.35
540.068	49005.5
540.269	48632.77
540.469	48870.34
540.67	48335.82
540.87	48487.37
541.071	48532.42
541.271	48563.14
541.472	48475.08
541.672	48157.64
541.873	48028.62
542.073	47954.89
542.274	48720.84
542.474	48223.18
542.675	48010.19
542.875	48442.31
543.075	47764.43
543.276	47633.36
543.476	48415.69
543.676	48374.73
543.877	48516.04
544.077	48477.13
544.277	48231.37
544.478	48264.14
544.678	48505.8
544.878	47750.1
545.078	48239.56
545.279	48010.19
545.479	47897.55
545.679	48346.06
545.879	48083.92
546.079	48186.32
546.28	48108.49
546.48	47698.9
546.68	47969.23
546.88	48088.01
547.08	47911.89
547.28	47952.85
547.48	47680.47
547.68	47797.2
547.88	47569.88
548.081	48638.92
548.281	48022.48
548.481	47702.99
548.681	47942.61
548.881	48219.08
549.081	48045.01
549.28	47692.75
549.48	47971.28
549.68	47797.2
549.88	48018.38
550.08	47860.69
550.28	47881.17
550.48	48049.1
550.68	48350.15
550.88	47502.29
551.08	47905.74
551.279	48065.49
551.479	47504.34
551.679	48014.29
551.879	47578.07
552.079	48190.41
552.278	47758.29
552.478	47780.82
552.678	47590.36
552.878	47666.13
553.077	47496.15
553.277	47123.42
553.477	47993.81
553.676	47518.68
553.876	47289.31
554.076	47576.02
554.275	47291.35
554.475	46826.46
554.674	47305.69
554.874	47524.82
555.074	46951.39
555.273	47588.31
555.473	47506.39
555.672	47148
555.872	47281.11
556.071	47285.21
556.271	47268.83
556.47	47295.45
556.67	46736.35
556.869	47004.64
557.068	47205.34
557.268	46457.83
557.467	46781.41
557.667	46318.57
557.866	46394.34
558.065	46081
558.265	46494.69
558.464	46355.43
558.663	46437.35
558.863	46076.91
559.062	46506.98
559.261	45943.79
559.461	46824.42
559.66	45587.44
559.859	46412.77
560.058	45775.86
560.258	46250.98
560.457	45415.41
560.656	46228.46
560.855	45628.4
561.054	46216.17
561.253	45118.46
561.453	45804.53
561.652	45771.76
561.851	45677.55
562.05	45728.75
562.249	45157.37
562.448	45769.71
562.647	45534.2
562.846	45095.93
563.045	45540.34
563.244	44884.99
563.443	45538.29
563.642	44295.17
563.841	44837.89
564.04	45087.74
564.239	45233.14
564.438	44348.42
564.637	44942.33
564.836	44901.37
565.035	44282.89
565.234	44555.27
565.432	44239.88
565.631	44016.65
565.83	44041.23
566.029	43904.01
566.228	43742.22
566.427	44098.57
566.625	43840.53
566.824	43459.6
567.023	43678.74
567.222	43387.92
567.42	44047.37
567.619	43412.5
567.818	43281.43
568.016	43039.77
568.215	43396.12
568.414	43023.39
568.612	43592.72
568.811	42708
569.01	42906.65
569.208	42578.98
569.407	42736.67
569.605	42374.18
569.804	42796.06
570.002	42064.94
570.201	42591.26
570.4	42079.27
570.598	42079.27
570.797	42148.9
570.995	42212.39
571.193	41235.51
571.392	42142.76
571.59	41894.96
571.789	41770.03
571.987	41272.37
572.186	41342
572.384	41067.58
572.582	41444.4
572.781	41694.25
572.979	40580.16
573.177	41268.28
573.376	41077.82
573.574	40827.96
573.772	40922.17
573.971	40797.24
574.169	40424.51
574.367	40262.72
574.565	40449.09
574.763	40451.14
574.962	40506.43
575.16	39967.82
575.358	40322.12
575.556	39613.52
575.754	40490.05
575.952	39523.41
576.151	40150.09
576.349	39543.89
576.547	39400.53
576.745	39758.92
576.943	39226.45
577.141	38999.13
577.339	39171.16
577.537	38886.49
577.735	38917.21
577.933	38360.16
578.131	38761.56
578.329	38843.48
578.527	38351.97
578.725	38618.21
578.923	38851.67
579.121	38335.59
579.319	38155.36
579.516	37960.81
579.714	38161.51
579.912	37672.04
580.11	37942.38
580.308	38059.11
580.506	37631.08
580.704	37661.8
580.901	37989.48
581.099	37823.59
581.297	37573.74
581.495	37440.62
581.692	37117.04
581.89	37145.72
582.088	37119.09
582.285	36691.07
582.483	37387.38
582.681	36926.58
582.878	36566.14
583.076	36295.81
583.274	36609.15
583.471	36164.74
583.669	36504.7
583.866	36172.93
584.064	36142.21
584.262	35708.04
584.459	36314.24
584.657	35771.53
584.854	35767.43
585.052	35527.82
585.249	35603.6
585.447	35685.51
585.644	35275.92
585.841	35513.48
586.039	35851.4
586.236	35157.14
586.434	35034.26
586.631	35275.92
586.828	35046.55
587.026	34682.01
587.223	34950.29
587.42	34296.99
587.618	34526.36
587.815	34260.13
588.012	34307.23
588.21	34251.94
588.407	34491.55
588.604	34231.46
588.801	34086.05
588.999	34006.18
589.196	33946.79
589.393	33690.79
589.59	33885.35
589.787	33500.33
589.984	33510.57
590.182	33119.41
590.379	33635.5
590.576	33066.16
590.773	32720.06
590.97	32941.24
591.167	33526.96
591.364	32601.27
591.561	32709.82
591.758	32588.99
591.955	32398.52
592.152	32675
592.349	32355.52
592.546	32423.1
592.743	32269.5
592.94	31851.72
593.137	31925.44
593.334	32285.89
593.531	31536.33
593.727	31960.26
593.924	31714.5
594.121	31552.71
594.318	31833.28
594.515	31255.76
594.712	31526.09
594.908	31278.29
595.105	31501.51
595.302	30862.55
595.499	31286.48
595.696	30831.83
595.892	30678.23
596.089	31024.34
596.286	30786.77
596.482	30459.1
596.679	30631.13
596.876	30594.26
597.072	30485.72
597.269	30477.53
597.466	29943.01
597.662	29967.59
597.859	30246.11
598.055	29961.44
598.252	29832.42
598.448	29799.65
598.645	29705.45
598.841	29250.8
599.038	29730.02
599.234	29502.7
599.431	29228.27
599.627	29025.52
599.824	29015.28
600.02	28826.87
600.217	28982.51
600.413	28587.25
600.609	28620.02
600.806	28630.26
601.002	29113.58
601.198	28644.6
601.395	28278.01
601.591	28589.3
601.787	28374.27
601.984	27981.06
602.18	28202.24
602.376	28087.55
602.572	27956.48
602.769	28028.16
602.965	27571.46
603.161	27858.18
603.357	27372.81
603.553	27424.01
603.75	27409.67
603.946	27340.04
604.142	27602.18
604.338	26895.63
604.534	27073.81
604.73	27178.25
604.926	26875.15
605.122	26852.62
605.318	26971.41
605.514	26561.81
605.71	26852.62
605.906	26557.72
606.102	26506.52
606.298	26434.84
606.494	26631.44
606.69	26344.73
606.886	26744.08
607.082	26019.1
607.278	26182.94
607.474	25793.83
607.67	26336.54
607.866	25814.3
608.062	26103.07
608.257	25863.46
608.453	25859.36
608.649	25834.78
608.845	25437.48
609.041	25881.89
609.236	25918.75
609.432	25531.69
609.628	25359.66
609.824	25560.36
610.019	25214.25
610.215	25156.91
610.411	25597.22
610.606	25204.01
610.802	25189.67
610.998	24886.57
611.193	25247.02
611.389	24986.93
611.584	25003.31
611.78	24749.36
611.976	25034.03
612.171	25201.96
612.367	24790.32
612.562	24745.27
612.758	24952.11
612.953	24683.83
613.149	24941.87
613.344	24560.95
613.539	24882.48
613.735	24778.03
613.93	24585.52
614.126	24446.26
614.321	24853.81
614.517	24319.29
614.712	24276.28
614.907	24309.05
615.103	24223.03
615.298	24307
615.493	24405.3
615.688	23665.99
615.884	24640.82
616.079	23928.13
616.274	24202.55
616.47	24202.55
616.665	23747.9
616.86	23821.63
617.055	23686.47
617.25	23737.66
617.445	23848.25
617.641	23407.94
617.836	23840.06
618.031	23504.2
618.226	23506.24
618.421	23405.89
618.616	23442.76
618.811	23168.33
619.006	23450.95
619.201	23092.55
619.396	22848.85
619.591	22682.96
619.786	22996.3
619.981	22472.02
620.176	22791.5
620.371	22551.89
620.566	22551.89
620.761	22445.4
620.956	22580.56
621.151	21968.22
621.346	22087
621.541	21962.08
621.735	22017.37
621.93	21804.38
622.125	21894.49
622.32	21325.16
622.515	21640.54
622.709	21398.88
622.904	21511.52
623.099	21300.58
623.294	21415.27
623.488	20972.91
623.683	20860.27
623.878	20542.83
624.072	20608.37
624.267	20718.96
624.462	20422
624.656	20514.16
624.851	20401.52
625.046	20288.89
625.24	20034.94
625.435	19975.55
625.629	19928.44
625.824	19920.25
626.018	19547.52
626.213	19264.9
626.407	19627.39
626.602	19144.07
626.796	19225.99
626.991	19244.42
627.185	19023.24
627.38	18640.27
627.574	18836.88
627.768	18394.51
627.963	18593.17
628.157	18302.36
628.352	18531.73
628.546	18085.27
628.74	18494.86
628.935	18087.32
629.129	17900.95
629.323	17974.68
629.517	17812.89
629.712	17556.89
629.906	17661.34
630.1	17438.11
630.294	17567.13
630.489	17249.7
630.683	17276.32
630.877	16983.46
631.071	16876.97
631.265	16870.83
631.459	17061.29
631.653	16696.75
631.848	17141.16
632.042	16704.94
632.236	16706.99
632.43	16340.4
632.624	16659.88
632.818	16278.96
633.012	16209.33
633.206	16178.61
633.4	16223.67
633.594	16000.44
633.788	15998.39
633.982	15941.05
634.176	15748.54
634.369	15723.96
634.563	15713.72
634.757	15556.03
634.951	15586.75
635.145	15508.93
635.339	15427.01
635.533	15175.11
635.726	15230.4
635.92	14964.17
636.114	15035.85
636.308	14683.59
636.501	14882.25
636.695	14806.47
636.889	14763.47
637.083	14667.21
637.276	14513.61
637.47	14362.06
637.664	14364.11
637.857	14230.99
638.051	14466.51
638.244	14046.68
638.438	14302.67
638.632	13993.43
638.825	13702.62
639.019	13942.23
639.212	13766.1
639.406	13878.74
639.599	13587.93
639.793	13860.31
639.986	13274.59
640.18	13465.05
640.373	13364.7
640.567	13327.84
640.76	13254.11
640.954	13129.19
641.147	12944.87
641.34	13034.98
641.534	13000.16
641.727	12953.06
641.92	12754.41
642.114	12801.51
642.307	12690.92
642.5	12639.72
642.694	12504.56
642.887	12475.88
643.08	12801.51
643.273	12479.98
643.467	12238.32
643.66	12228.08
643.853	12137.97
644.046	11912.69
644.239	12041.71
644.432	12156.4
644.626	11871.73
644.819	11908.6
645.012	11888.12
645.205	11974.13
645.398	11836.92
645.591	11533.82
645.784	11478.52
645.977	11533.82
646.17	11466.24
646.363	11257.34
646.556	11224.58
646.749	11159.04
646.942	11173.38
647.135	11048.45
647.328	11255.29
647.521	11087.36
647.714	10888.71
647.907	10898.95
648.099	10901
648.292	11027.97
648.485	10722.82
648.678	10747.4
648.871	10683.91
649.064	10731.01
649.256	10769.93
649.449	10552.84
649.642	10280.46
649.835	10380.81
650.027	10505.74
650.22	10223.12
650.413	10053.14
650.605	10157.58
650.798	9922.07
650.991	10100.24
651.183	9942.55
651.376	9895.44
651.568	9930.26
651.761	9887.25
651.954	9836.05
652.146	9694.74
652.339	9537.05
652.531	9725.46
652.724	9633.3
652.916	9412.12
653.109	9475.61
653.301	9465.37
653.494	9311.77
653.686	9260.57
653.879	9340.44
654.071	9242.14
654.263	9154.08
654.456	9403.93
654.648	9219.61
654.84	8910.37
655.033	8877.6
655.225	9074.21
655.417	8881.7
655.61	9059.87
655.802	8990.24
655.994	8857.12
656.186	8945.19
656.379	8642.09
656.571	8742.44
656.763	8656.42
656.955	8420.91
657.148	8482.35
657.34	8537.64
657.532	8363.56
657.724	8310.32
657.916	8445.48
658.108	8285.74
658.3	8160.81
658.492	8291.88
658.684	8312.36
658.876	8220.21
659.068	8144.43
659.26	7972.4
659.452	8128.05
659.644	7937.59
659.836	7925.3
660.028	7857.71
660.22	8009.26
660.412	7953.97
660.604	7743.03
660.796	7427.64
660.988	7855.67
661.18	7456.31
661.372	7605.81
661.563	7548.47
661.755	7515.7
661.947	7716.4
662.139	7415.35
662.331	7347.77
662.522	7296.57
662.714	7300.67
662.906	7425.59
663.097	7161.41
663.289	7048.77
663.481	7128.64
663.673	7118.4
663.864	7120.45
664.056	6960.7
664.247	6917.7
664.439	6909.51
664.631	7073.34
664.822	7009.86
665.014	6895.17
665.205	6819.39
665.397	6807.11
665.588	6751.81
665.78	6766.15
665.971	6723.14
666.163	6780.48
666.354	6803.01
666.546	6587.97
666.737	6673.99
666.929	6456.9
667.12	6477.38
667.311	6590.02
667.503	6524.49
667.694	6420.04
667.885	6463.05
668.077	6585.93
668.268	6370.89
668.459	6383.18
668.651	6446.66
668.842	6200.91
669.033	6295.11
669.224	6170.19
669.416	6114.89
669.607	6118.99
669.798	6125.13
669.989	6276.68
670.18	6086.22
670.371	6151.76
670.563	6102.61
670.754	6053.45
670.945	5906
671.136	6008.4
671.327	5885.52
671.518	6002.26
671.709	5899.86
671.9	5883.47
672.091	5940.82
672.282	5791.31
672.473	5795.41
672.664	5953.1
672.855	5756.5
673.046	5658.2
673.237	5676.63
673.428	5645.91
673.619	5678.68
673.809	5629.52
674	5703.25
674.191	5639.76
674.382	5385.82
674.573	5615.19
674.764	5553.75
674.954	5623.38
675.145	5303.9
675.336	5506.65
675.527	5310.04
675.717	5334.62
675.908	5320.28
676.099	5445.21
676.289	5428.82
676.48	5310.04
676.671	5246.55
676.861	5371.48
677.052	5246.55
677.243	5238.36
677.433	5285.47
677.624	5127.77
677.814	5117.53
678.005	5260.89
678.195	5148.25
678.386	5172.83
678.576	5076.57
678.767	5025.37
678.957	4984.41
679.148	5115.48
679.338	5045.85
679.529	4908.64
679.719	4978.27
679.909	4920.93
680.1	4963.93
680.29	5045.85
680.481	5002.85
680.671	5095
680.861	4976.22
681.052	5017.18
681.242	4896.35
681.432	4965.98
681.622	4894.3
681.813	4843.1
682.003	4877.92
682.193	4857.44
682.383	4922.98
682.573	4726.37
682.764	4730.47
682.954	4791.91
683.144	4722.27
683.334	4783.71
683.524	4638.31
683.714	4779.62
683.904	4720.23
684.094	4732.51
684.284	4585.06
684.474	4630.12
684.664	4529.77
684.854	4673.12
685.044	4566.63
685.234	4609.64
685.424	4574.82
685.614	4587.11
685.804	4456.04
685.994	4482.66
686.184	4525.67
686.374	4408.94
686.564	4476.52
686.753	4562.53
686.943	4435.56
687.133	4406.89
687.323	4302.44
687.513	4415.08
687.702	4433.51
687.892	4286.06
688.082	4281.96
688.272	4378.22
688.461	4378.22
688.651	4191.85
688.841	4208.23
689.03	4165.23
689.22	4234.86
689.41	4210.28
689.599	4185.71
689.789	4054.64
689.979	4152.94
690.168	4044.4
690.358	3935.85
690.547	4036.21
690.737	3927.66
690.926	4052.59
691.116	4005.49
691.305	3993.2
691.495	3917.42
691.684	3821.17
691.874	3939.95
692.063	3878.51
692.252	3964.53
692.442	3845.74
692.631	3743.35
692.82	3870.32
693.01	3772.02
693.199	3827.31
693.388	3729.01
693.578	3796.59
693.767	3780.21
693.956	3712.63
694.146	3675.76
694.335	3643
694.524	3741.3
694.713	3708.53
694.902	3638.9
695.092	3548.79
695.281	3542.64
695.47	3593.84
695.659	3653.23
695.848	3554.93
696.037	3552.88
696.226	3567.22
696.415	3501.69
696.604	3591.8
696.793	3542.64
696.982	3397.24
697.171	3448.44
697.36	3579.51
697.549	3493.49
697.738	3475.06
697.927	3489.4
698.116	3487.35
698.305	3362.42
698.494	3415.67
698.683	3458.68
698.872	3415.67
699.061	3329.66
699.25	3409.53
699.438	3350.14
699.627	3448.44
699.816	3534.45
700.005	3401.33
700.193	3421.81
700.382	3286.65
700.571	3307.13
700.76	3368.57
700.948	3364.47
701.137	3346.04
701.326	3280.5
701.514	3380.86
701.703	3253.88
701.892	3372.66
702.08	3395.19
702.269	3272.31
702.457	3298.94
702.646	3229.31
702.834	3210.87
703.023	3157.63
703.212	3257.98
703.4	3358.33
703.589	3217.02
703.777	3235.45
703.965	3227.26
704.154	3391.09
704.342	3133.05
704.531	3448.44
704.719	3169.91
704.907	3253.88
705.096	3157.63
705.284	3202.68
705.472	3288.7
705.661	3128.95
705.849	3204.73
706.037	3188.35
706.226	3206.78
706.414	3210.87
706.602	3155.58
706.79	2987.65
706.979	3147.39
707.167	3137.15
707.355	3237.5
707.543	3280.5
707.731	3120.76
707.919	3114.62
708.107	3116.67
708.296	3176.06
708.484	3036.8
708.672	3155.58
708.86	3192.44
709.048	3079.8
709.236	3147.39
709.424	3040.89
709.612	3096.19
709.8	3145.34
709.988	3061.37
710.176	3098.24
710.364	3176.06
710.551	2993.79
710.739	3065.47
710.927	3157.63
711.115	2938.49
711.303	3124.86
711.491	3165.82
711.679	3176.06
711.866	2979.45
712.054	3116.67
712.242	3036.8
712.43	3055.23
712.617	3094.14
712.805	3024.51
712.993	3047.04
713.181	3051.13
713.368	3106.43
713.556	3053.18
713.744	3030.65
713.931	3120.76
714.119	3079.8
714.306	3153.53
714.494	3034.75
714.682	2911.87
714.869	2918.01
715.057	3069.56
715.244	2981.5
715.432	3020.41
715.619	3047.04
715.807	3081.85
715.994	2901.63
716.182	2977.41
716.369	3016.32
716.556	3024.51
716.744	3001.98
716.931	2897.53
717.119	2997.88
717.306	3020.41
717.493	3092.09
717.681	2961.02
717.868	3063.42
718.055	2907.77
718.242	2942.59
718.43	2987.65
718.617	2954.88
718.804	2928.25
718.991	2932.35
719.179	2883.2
719.366	2885.25
719.553	2911.87
719.74	2936.45
719.927	2838.14
720.114	2973.31
720.301	2827.9
720.488	2879.1
720.676	2850.43
720.863	2954.88
721.05	3051.13
721.237	2780.8
721.424	2832
721.611	2938.49
721.798	2739.84
721.985	2832
722.172	2766.46
722.358	2926.21
722.545	2803.33
722.732	2963.07
722.919	2903.68
723.106	2817.66
723.293	2895.49
723.48	2860.67
723.667	2870.91
723.853	2827.9
724.04	2967.17
724.227	2997.88
724.414	2768.51
724.6	2829.95
724.787	2989.69
724.974	2805.38
725.161	2920.06
725.347	2903.68
725.534	2866.81
725.72	2956.93
725.907	2799.23
726.094	2885.25
726.28	2899.58
726.467	2721.41
726.653	2829.95
726.84	2918.01
727.027	2879.1
727.213	2801.28
727.4	2805.38
727.586	2997.88
727.773	2879.1
727.959	2944.64
728.145	2721.41
728.332	2969.21
728.518	2901.63
728.705	2854.53
728.891	2889.34
729.077	2918.01
729.264	2961.02
729.45	2889.34
729.636	2977.41
729.823	2784.9
730.009	2961.02
730.195	2885.25
730.382	2870.91
730.568	2842.24
730.754	2799.23
730.94	2844.29
731.126	2915.97
731.313	3024.51
731.499	2844.29
731.685	2915.97
731.871	2924.16
732.057	2956.93
732.243	3057.28
732.429	2844.29
732.615	2934.4
732.801	2862.72
732.987	2932.35
733.173	2958.97
733.359	2823.81
733.545	2930.3
733.731	2825.86
733.917	2842.24
734.103	2883.2
734.289	2811.52
734.475	2862.72
734.661	3010.17
734.847	2954.88
735.033	2838.14
735.219	2774.66
735.404	2875.01
735.59	2965.12
735.776	2848.38
735.962	2832
736.148	2922.11
736.333	2801.28
736.519	2805.38
736.705	2799.23
736.89	2776.7
737.076	2920.06
737.262	2848.38
737.447	2838.14
737.633	2760.32
737.819	2676.35
738.004	2813.57
738.19	2774.66
738.375	2821.76
738.561	2846.34
738.747	2684.55
738.932	2653.83
739.118	2918.01
739.303	2717.31
739.489	2741.89
739.674	2807.42
739.859	2786.94
740.045	2827.9
740.23	2780.8
740.416	2698.88
740.601	2719.36
740.786	2858.62
740.972	2711.17
741.157	2737.79
741.342	2702.98
741.528	2643.59
741.713	2633.35
741.898	2676.35
742.084	2780.8
742.269	2768.51
742.454	2676.35
742.639	2657.92
742.824	2625.15
743.01	2727.55
743.195	2633.35
743.38	2594.44
743.565	2643.59
743.75	2494.08
743.935	2637.44
744.12	2610.82
744.305	2465.41
744.49	2547.33
744.675	2635.39
744.86	2573.96
745.045	2555.52
745.23	2610.82
745.415	2506.37
745.6	2625.15
745.785	2489.99
745.97	2465.41
746.155	2381.45
746.34	2430.6
746.525	2420.36
746.71	2471.56
746.895	2367.11
747.079	2379.4
747.264	2346.63
747.449	2363.01
747.634	2332.3
747.819	2414.21
748.003	2385.54
748.188	2246.28
748.373	2379.4
748.557	2375.3
748.742	2244.23
748.927	2297.48
749.111	2197.13
749.296	2295.43
749.481	2252.42
749.665	2221.7
749.85	2107.02
750.034	2190.99
750.219	2072.2
750.404	2092.68
750.588	1998.48
750.773	2190.99
750.957	2172.55
751.141	2076.3
751.326	2057.87
751.51	2080.39
751.695	2006.67
751.879	2027.15
752.064	2147.98
752.248	2074.25
752.432	2035.34
752.617	2084.49
752.801	1951.37
752.985	2039.44
753.17	1980.04
753.354	1941.13
753.538	1949.32
753.722	1855.12
753.907	1912.46
754.091	1693.33
754.275	1932.94
754.459	1857.17
754.643	1828.49
754.828	1914.51
755.012	1881.74
755.196	1846.93
755.38	1826.45
755.564	1810.06
755.748	1869.45
755.932	1871.5
756.116	1711.76
756.3	1873.55
756.484	1713.81
756.668	1750.67
756.852	1595.03
757.036	1648.27
757.22	1758.86
757.404	1629.84
757.588	1701.52
757.772	1656.47
757.956	1609.36
758.14	1707.66
758.323	1527.44
758.507	1619.6
758.691	1609.36
758.875	1640.08
759.059	1586.83
759.242	1640.08
759.426	1640.08
759.61	1468.05
759.794	1590.93
759.977	1556.11
760.161	1525.4
760.345	1447.57
760.528	1535.64
760.712	1461.91
760.895	1470.1
761.079	1511.06
761.263	1396.37
761.446	1445.52
761.63	1453.72
761.813	1449.62
761.997	1488.53
762.18	1388.18
762.364	1392.28
762.547	1298.07
762.731	1506.96
762.914	1361.56
763.098	1410.71
763.281	1418.9
763.464	1382.04
763.648	1326.74
763.831	1427.09
764.015	1402.52
764.198	1296.02
764.381	1298.07
764.564	1390.23
764.748	1382.04
764.931	1281.69
765.114	1310.36
765.297	1324.69
765.481	1332.89
765.664	1298.07
765.847	1289.88
766.03	1336.98
766.213	1314.45
766.397	1318.55
766.58	1222.3
766.763	1308.31
766.946	1138.33
767.129	1093.27
767.312	1234.58
767.495	1224.34
767.678	1248.92
767.861	1177.24
768.044	1199.77
768.227	1216.15
768.41	1142.43
768.593	1214.1
768.776	1234.58
768.959	1195.67
769.142	1316.5
769.324	1277.59
769.507	1173.14
769.69	1152.67
769.873	1138.33
770.056	1181.34
770.239	1109.66
770.421	1160.86
770.604	1201.82
770.787	1156.76
770.97	1097.37
771.152	988.83
771.335	1076.89
771.518	1109.66
771.7	1109.66
771.883	1142.43
772.066	1076.89
772.248	1171.1
772.431	1109.66
772.613	1023.64
772.796	1117.85
772.978	1099.42
773.161	1076.89
773.343	1076.89
773.526	980.64
773.708	999.07
773.891	1027.74
774.073	1048.22
774.256	1023.64
774.438	1009.31
774.621	968.35
774.803	1062.55
774.985	1027.74
775.168	1007.26
775.35	976.54
775.532	970.4
775.715	968.35
775.897	865.95
776.079	857.76
776.261	931.48
776.444	884.38
776.626	939.68
776.808	894.62
776.99	898.72
777.173	902.81
777.355	976.54
777.537	872.09
777.719	880.29
777.901	904.86
778.083	880.29
778.265	863.9
778.447	804.51
778.629	827.04
778.811	929.44
778.993	837.28
779.175	847.52
779.357	839.33
779.539	747.17
779.721	796.32
779.903	829.09
780.085	792.22
780.267	691.87
780.449	775.84
780.631	702.11
780.812	829.09
780.994	767.65
781.176	650.91
781.358	773.79
781.54	839.33
781.721	751.26
781.903	788.13
782.085	665.25
782.267	695.97
782.448	675.49
782.63	779.93
782.812	642.72
782.993	618.15
783.175	720.54
783.357	669.34
783.538	624.29
783.72	644.77
783.901	636.58
784.083	646.82
784.264	722.59
784.446	632.48
784.627	663.2
784.809	695.97
784.99	595.62
785.172	698.02
785.353	544.42
785.535	581.28
785.716	648.86
785.897	568.99
786.079	585.38
786.26	634.53
786.441	595.62
786.623	609.95
786.804	609.95
786.985	554.66
787.167	523.94
787.348	573.09
787.529	487.08
787.71	458.4
787.891	511.65
788.073	566.95
788.254	564.9
788.435	532.13
788.616	521.89
788.797	499.36
788.978	495.27
789.159	546.47
789.34	523.94
789.522	517.79
789.703	454.31
789.884	540.32
790.065	528.03
790.246	568.99
790.427	472.74
790.607	482.98
790.788	517.79
790.969	497.32
791.15	507.55
791.331	503.46
791.512	431.78
791.693	376.48
791.874	523.94
792.054	501.41
792.235	466.6
792.416	394.92
792.597	394.92
792.778	462.5
792.958	380.58
793.139	466.6
793.32	470.69
793.5	403.11
793.681	396.96
793.862	345.77
794.042	411.3
794.223	366.25
794.404	386.72
794.584	386.72
794.765	448.16
794.945	401.06
795.126	435.88
795.306	503.46
795.487	321.19
795.667	343.72
795.848	396.96
796.028	409.25
796.209	392.87
796.389	446.12
796.57	347.81
796.75	399.01
796.93	423.59
797.111	347.81
797.291	331.43
797.471	378.53
797.652	325.29
797.832	300.71
798.012	435.88
798.192	290.47
798.373	392.87
798.553	349.86
798.733	274.09
798.913	450.21
799.093	417.44
799.274	339.62
799.454	351.91
799.634	417.44
799.814	382.63
799.994	290.47
800.174	317.09
800.354	382.63
800.534	282.28
800.714	419.49
800.894	347.81
801.074	396.96
801.254	269.99
801.434	280.23
801.614	370.34
801.794	269.99
801.974	755.36
802.154	317.09
802.334	306.85
802.514	257.7
802.693	237.22
802.873	269.99
803.053	292.52
803.233	280.23
803.413	259.75
803.592	300.71
803.772	294.57
803.952	292.52
804.131	278.18
804.311	233.13
804.491	306.85
804.67	224.94
804.85	263.85
805.03	261.8
805.209	276.13
805.389	253.61
805.568	259.75
805.748	306.85
805.928	364.2
806.107	259.75
806.287	245.41
806.466	278.18
806.646	306.85
806.825	224.94
807.004	206.5
807.184	218.79
807.363	265.89
807.543	233.13
807.722	294.57
807.901	198.31
808.081	310.95
808.26	210.6
808.439	218.79
808.619	325.29
808.798	198.31
808.977	200.36
809.156	233.13
809.336	243.37
809.515	372.39
809.694	235.18
809.873	288.42
810.052	222.89
810.231	253.61
810.411	183.98
810.59	249.51
810.769	200.36
810.948	298.66
811.127	208.55
811.306	220.84
811.485	214.7
811.664	200.36
811.843	161.45
812.022	233.13
812.201	231.08
812.38	239.27
812.559	257.7
812.737	179.88
812.916	190.12
813.095	245.41
813.274	212.65
813.453	274.09
813.632	304.81
813.811	284.33
813.989	231.08
814.168	214.7
814.347	167.59
814.526	130.73
814.704	239.27
814.883	245.41
815.062	122.54
815.24	241.32
815.419	259.75
815.598	272.04
815.776	243.37
815.955	231.08
816.133	224.94
816.312	231.08
816.49	157.35
816.669	145.06
816.847	245.41
817.026	224.94
817.204	196.26
817.383	169.64
817.561	110.25
817.74	136.87
817.918	167.59
818.097	163.5
818.275	126.63
818.453	257.7
818.632	220.84
818.81	132.78
818.988	112.3
819.167	206.5
819.345	214.7
819.523	120.49
819.701	188.07
819.879	206.5
820.058	116.39
820.236	190.12
820.414	222.89
820.592	134.82
820.77	155.3
820.948	206.5
821.127	138.92
821.305	192.17
821.483	171.69
821.661	163.5
821.839	196.26
822.017	171.69
822.195	188.07
822.373	159.4
822.551	186.02
822.729	44.71
822.907	114.34
823.085	85.67
823.262	155.3
823.44	155.3
823.618	147.11
823.796	159.4
823.974	132.78
824.152	120.49
824.329	106.15
824.507	175.78
824.685	208.55
824.863	130.73
825.04	104.11
825.218	177.83
825.396	165.54
825.574	204.46
825.751	108.2
825.929	132.78
826.107	159.4
826.284	153.26
826.462	97.96
826.639	95.91
826.817	77.48
826.994	169.64
827.172	147.11
827.349	204.46
827.527	89.77
827.704	169.64
827.882	138.92
828.059	147.11
828.237	71.34
828.414	143.02
828.591	149.16
828.769	106.15
828.946	143.02
829.124	93.87
829.301	126.63
829.478	128.68
829.655	136.87
829.833	65.19
830.01	81.58
830.187	126.63
830.364	91.82
830.542	132.78
830.719	97.96
830.896	149.16
831.073	147.11
831.25	173.74
831.427	165.54
831.604	143.02
831.782	132.78
831.959	91.82
832.136	79.53
832.313	73.39
832.49	67.24
832.667	192.17
832.844	57
833.021	110.25
833.198	120.49
833.374	183.98
833.551	120.49
833.728	140.97
833.905	134.82
834.082	114.34
834.259	200.36
834.436	153.26
834.612	163.5
834.789	120.49
834.966	61.1
835.143	136.87
835.319	77.48
835.496	163.5
835.673	118.44
835.85	73.39
836.026	108.2
836.203	116.39
836.38	118.44
836.556	73.39
836.733	52.91
836.909	87.72
837.086	91.82
837.262	93.87
837.439	20.14
837.616	118.44
837.792	48.81
837.968	120.49
838.145	69.29
838.321	130.73
838.498	138.92
838.674	124.58
838.851	128.68
839.027	46.76
839.203	93.87
839.38	116.39
839.556	106.15
839.732	116.39
839.909	67.24
840.085	100.01
840.261	63.15
840.437	44.71
840.614	52.91
840.79	151.21
840.966	22.19
841.142	61.1
841.318	155.3
841.494	97.96
841.671	126.63
841.847	13.99
842.023	22.19
842.199	181.93
842.375	136.87
842.551	26.28
842.727	81.58
842.903	102.06
843.079	32.43
843.255	157.35
843.431	116.39
843.607	57
843.783	59.05
843.959	52.91
844.134	136.87
844.31	87.72
844.486	83.63
844.662	65.19
844.838	77.48
845.013	89.77
845.189	100.01
845.365	93.87
845.541	63.15
845.716	77.48
845.892	26.28
846.068	65.19
846.244	69.29
846.419	69.29
846.595	83.63
846.77	100.01
846.946	65.19
847.122	65.19
847.297	46.76
847.473	93.87
847.648	50.86
847.824	69.29
847.999	36.52
848.175	85.67
848.35	73.39
848.526	140.97
848.701	9.9
848.876	59.05
849.052	48.81
849.227	36.52
849.403	65.19
849.578	50.86
849.753	38.57
849.929	147.11
850.104	48.81
850.279	122.54
850.454	48.81
850.63	95.91
850.805	54.95
850.98	93.87
851.155	93.87
851.33	85.67
851.505	48.81
851.681	40.62
851.856	89.77
852.031	18.09
852.206	-0.34
852.381	34.47
852.556	57
852.731	100.01
852.906	65.19
853.081	116.39
853.256	30.38
853.431	32.43
853.606	20.14
853.781	79.53
853.956	87.72
854.131	63.15
854.305	67.24
854.48	1.71
854.655	106.15
854.83	85.67
855.005	11.95
855.18	50.86
855.354	77.48
855.529	40.62
855.704	63.15
855.879	50.86
856.053	24.23
856.228	65.19
856.403	57
856.577	7.85
856.752	3.75
856.926	71.34
857.101	28.33
857.276	89.77
857.45	52.91
857.625	75.43
857.799	44.71
857.974	75.43
858.148	11.95
858.323	145.06
858.497	34.47
858.672	-4.44
858.846	97.96
859.02	61.1
859.195	65.19
859.369	50.86
859.543	40.62
859.718	44.71
859.892	34.47
860.066	32.43
860.241	69.29
860.415	-37.2
860.589	100.01
860.763	18.09
860.938	50.86
861.112	11.95
861.286	18.09
861.46	65.19
861.634	18.09
861.808	44.71
861.982	110.25
862.157	79.53
862.331	59.05
862.505	57
862.679	54.95
862.853	-18.77
863.027	-22.87
863.201	34.47
863.375	48.81
863.549	-43.35
863.722	54.95
863.896	34.47
864.07	54.95
864.244	-39.25
864.418	40.62
864.592	104.11
864.766	1.71
864.939	30.38
865.113	7.85
865.287	118.44
865.461	-4.44
865.634	20.14
865.808	-18.77
865.982	7.85
866.156	-53.59
866.329	-12.63
866.503	9.9
866.676	-0.34
866.85	42.67
867.024	-6.49
867.197	11.95
867.371	67.24
867.544	40.62
867.718	20.14
867.891	34.47
868.065	-0.34
868.238	20.14
868.412	36.52
868.585	1.71
868.759	11.95
868.932	16.04
869.105	3.75
869.279	1.71
869.452	-10.58
869.625	36.52
869.799	52.91
869.972	48.81
870.145	-6.49
870.319	69.29
870.492	75.43
870.665	-24.92
870.838	30.38
871.011	63.15
871.185	-20.82
871.358	11.95
871.531	-31.06
871.704	5.8
871.877	16.04
872.05	28.33
872.223	22.19
872.396	52.91
872.569	50.86
872.742	28.33
872.915	3.75
873.088	-22.87
873.261	13.99
873.434	34.47
873.607	36.52
873.78	44.71
873.953	5.8
874.126	38.57
874.299	65.19
874.471	83.63
874.644	-39.25
874.817	-22.87
874.99	63.15
875.163	3.75
875.335	20.14
875.508	71.34
875.681	16.04
875.853	38.57
876.026	1.71
876.199	-20.82
876.371	87.72
876.544	3.75
876.717	77.48
876.889	73.39
877.062	5.8
877.234	32.43
877.407	-12.63
877.579	24.23
877.752	59.05
877.924	38.57
878.097	3.75
878.269	-10.58
878.442	11.95
878.614	40.62
878.786	-18.77
878.959	-24.92
879.131	-16.73
879.303	-14.68
879.476	61.1
879.648	3.75
879.82	36.52
879.993	-24.92
880.165	-2.39
880.337	-26.96
880.509	-14.68
880.681	-29.01
880.854	67.24
881.026	40.62
881.198	65.19
881.37	52.91
881.542	57
881.714	48.81
881.886	40.62
882.058	-4.44
882.23	40.62
882.402	-6.49
882.574	-74.07
882.746	38.57
882.918	16.04
883.09	-8.53
883.262	36.52
883.434	7.85
883.606	9.9
883.778	-22.87
883.95	30.38
884.122	61.1
884.293	-6.49
884.465	-10.58
884.637	52.91
884.809	48.81
884.98	81.58
885.152	-45.4
885.324	-8.53
885.496	24.23
885.667	-35.16
885.839	-29.01
886.011	52.91
886.182	22.19
886.354	44.71
886.525	-51.54
886.697	40.62
886.869	-8.53
887.04	7.85
887.212	32.43
887.383	104.11
887.555	-2.39
887.726	40.62
887.897	9.9
888.069	-4.44
888.24	24.23
888.412	11.95
888.583	-57.68
888.754	-22.87
888.926	7.85
889.097	69.29
889.268	-24.92
889.44	50.86
889.611	-8.53
889.782	1.71
889.953	50.86
890.125	11.95
890.296	24.23
890.467	61.1
890.638	-16.73
890.809	-4.44
890.98	7.85
891.151	-22.87
891.323	20.14
891.494	1.71
891.665	24.23
891.836	11.95
892.007	-12.63
892.178	46.76
892.349	73.39
892.52	13.99
892.691	67.24
892.862	-29.01
893.032	-4.44
893.203	52.91
893.374	42.67
893.545	69.29
893.716	16.04
893.887	89.77
894.057	3.75
894.228	3.75
894.399	9.9
894.57	9.9
894.74	-59.73
894.911	3.75
895.082	-12.63
895.253	28.33
895.423	-0.34
895.594	18.09
895.764	32.43
895.935	28.33
896.106	-29.01
896.276	-6.49
896.447	-37.2
896.617	-4.44
896.788	-59.73
896.958	-20.82
897.129	46.76
897.299	13.99
897.47	-39.25
897.64	9.9
897.81	26.28
897.981	63.15
898.151	-35.16
898.322	9.9
898.492	-14.68
898.662	40.62
898.832	-35.16
899.003	9.9
899.173	118.44
899.343	5.8
899.513	40.62
