Data from USB4F104151__28__11-44-49-620.txt Node

Date: Fri Mar 14 11:44:49 EDT 2025
User: louis
Spectrometer: USB4F10415
Trigger mode: 4
Integration Time (sec): 2.000000E-2
Scans to average: 1
Electric dark correction enabled: true
Nonlinearity correction enabled: false
Boxcar width: 0
XAxis mode: Wavelengths
Number of Pixels in Spectrum: 3648
>>>>>Begin Spectral Data<<<<<
178.204	-28.67
178.424	-28.67
178.644	-28.67
178.864	-108.54
179.084	-108.54
179.304	2.05
179.524	-36.86
179.744	-30.72
179.964	36.86
180.184	-45.06
180.404	28.67
180.624	38.91
180.844	28.67
181.064	-20.48
181.283	2.05
181.503	-4.1
181.723	-0
181.943	32.77
182.163	77.82
182.383	-8.19
182.602	94.21
182.822	18.43
183.042	-2.05
183.262	14.34
183.482	-36.86
183.701	36.86
183.921	47.1
184.141	14.34
184.361	-0
184.58	-0
184.8	-26.62
185.02	14.34
185.239	16.38
185.459	28.67
185.679	69.63
185.898	49.15
186.118	47.1
186.338	38.91
186.557	71.68
186.777	55.3
186.997	-34.82
187.216	-32.77
187.436	-22.53
187.655	10.24
187.875	71.68
188.095	-34.82
188.314	81.92
188.534	75.77
188.753	-16.38
188.973	-8.19
189.192	69.63
189.412	28.67
189.631	10.24
189.851	53.25
190.07	30.72
190.29	16.38
190.509	-12.29
190.729	36.86
190.948	57.34
191.168	112.64
191.387	45.06
191.607	49.15
191.826	53.25
192.045	102.4
192.265	-8.19
192.484	-12.29
192.704	90.11
192.923	10.24
193.142	81.92
193.362	47.1
193.581	90.11
193.8	83.97
194.02	47.1
194.239	-8.19
194.458	-10.24
194.678	102.4
194.897	32.77
195.116	88.06
195.335	90.11
195.555	18.43
195.774	18.43
195.993	75.77
196.212	45.06
196.432	26.62
196.651	75.77
196.87	-14.34
197.089	-2.05
197.308	110.59
197.528	12.29
197.747	-8.19
197.966	38.91
198.185	4.1
198.404	28.67
198.623	6.14
198.842	73.73
199.062	38.91
199.281	59.39
199.5	14.34
199.719	12.29
199.938	12.29
200.157	-8.19
200.376	77.82
200.595	57.34
200.814	45.06
201.033	69.63
201.252	12.29
201.471	36.86
201.69	133.12
201.909	77.82
202.128	-0
202.347	-6.14
202.566	40.96
202.785	36.86
203.004	16.38
203.223	102.4
203.442	20.48
203.661	2.05
203.879	20.48
204.098	120.83
204.317	-6.14
204.536	47.1
204.755	-2.05
204.974	30.72
205.193	79.87
205.411	61.44
205.63	26.62
205.849	-45.06
206.068	69.63
206.287	-0
206.505	61.44
206.724	-14.34
206.943	-92.16
207.162	32.77
207.381	-65.54
207.599	47.1
207.818	6.14
208.037	71.68
208.255	-26.62
208.474	71.68
208.693	-0
208.911	57.34
209.13	92.16
209.349	108.54
209.567	102.4
209.786	47.1
210.005	4.1
210.223	63.49
210.442	-22.53
210.661	86.01
210.879	59.39
211.098	16.38
211.316	40.96
211.535	143.36
211.753	-12.29
211.972	-0
212.191	86.01
212.409	63.49
212.628	53.25
212.846	14.34
213.065	86.01
213.283	102.4
213.502	-55.3
213.72	30.72
213.938	47.1
214.157	92.16
214.375	59.39
214.594	-20.48
214.812	14.34
215.031	14.34
215.249	2.05
215.467	18.43
215.686	12.29
215.904	38.91
216.122	45.06
216.341	81.92
216.559	61.44
216.778	65.53
216.996	106.49
217.214	-36.86
217.432	47.1
217.651	57.34
217.869	30.72
218.087	30.72
218.306	36.86
218.524	63.49
218.742	12.29
218.96	26.62
219.179	-8.19
219.397	45.06
219.615	53.25
219.833	43.01
220.051	88.06
220.27	38.91
220.488	20.48
220.706	-26.62
220.924	94.21
221.142	55.3
221.36	63.49
221.578	28.67
221.796	47.1
222.015	96.25
222.233	51.2
222.451	102.4
222.669	18.43
222.887	-4.1
223.105	-4.1
223.323	-20.48
223.541	10.24
223.759	81.92
223.977	43.01
224.195	65.53
224.413	26.62
224.631	40.96
224.849	69.63
225.067	86.01
225.285	6.14
225.503	-8.19
225.721	-8.19
225.939	65.53
226.157	49.15
226.375	188.41
226.592	-18.43
226.81	32.77
227.028	-8.19
227.246	116.73
227.464	73.73
227.682	-4.1
227.9	-16.38
228.117	73.73
228.335	40.96
228.553	53.25
228.771	83.97
228.989	79.87
229.206	86.01
229.424	59.39
229.642	43.01
229.86	71.68
230.077	36.86
230.295	57.34
230.513	88.06
230.731	34.82
230.948	47.1
231.166	12.29
231.384	55.3
231.601	22.53
231.819	-22.53
232.037	-2.05
232.254	2.05
232.472	65.53
232.689	-40.96
232.907	40.96
233.125	73.73
233.342	24.58
233.56	59.39
233.777	43.01
233.995	57.34
234.213	43.01
234.43	26.62
234.648	14.34
234.865	96.25
235.083	96.25
235.3	88.06
235.518	118.78
235.735	112.64
235.953	51.2
236.17	-6.14
236.388	6.14
236.605	57.34
236.822	45.06
237.04	77.82
237.257	38.91
237.475	55.3
237.692	-0
237.909	65.53
238.127	-51.2
238.344	51.2
238.562	38.91
238.779	69.63
238.996	32.77
239.214	4.1
239.431	47.1
239.648	-16.38
239.865	81.92
240.083	81.92
240.3	-26.62
240.517	28.67
240.735	75.77
240.952	36.86
241.169	92.16
241.386	49.15
241.603	-16.38
241.821	16.38
242.038	88.06
242.255	26.62
242.472	71.68
242.689	49.15
242.907	57.34
243.124	69.63
243.341	28.67
243.558	16.38
243.775	-4.1
243.992	24.58
244.209	131.07
244.426	28.67
244.643	118.78
244.86	45.06
245.078	34.82
245.295	57.34
245.512	30.72
245.729	16.38
245.946	4.1
246.163	2.05
246.38	36.86
246.597	14.34
246.814	83.97
247.031	-24.58
247.248	14.34
247.464	65.53
247.681	-2.05
247.898	24.58
248.115	45.06
248.332	20.48
248.549	61.44
248.766	86.01
248.983	32.77
249.2	32.77
249.417	-20.48
249.633	69.63
249.85	34.82
250.067	34.82
250.284	32.77
250.501	49.15
250.717	83.97
250.934	63.49
251.151	36.86
251.368	20.48
251.585	38.91
251.801	45.06
252.018	2.05
252.235	79.87
252.451	32.77
252.668	22.53
252.885	47.1
253.102	20.48
253.318	12.29
253.535	55.3
253.752	4.1
253.968	63.49
254.185	-4.1
254.401	-8.19
254.618	34.82
254.835	16.38
255.051	65.53
255.268	67.58
255.484	24.58
255.701	65.53
255.917	-6.14
256.134	-0
256.351	151.55
256.567	-16.38
256.784	67.58
257	-4.1
257.217	67.58
257.433	98.3
257.65	43.01
257.866	96.25
258.082	51.2
258.299	26.62
258.515	98.3
258.732	18.43
258.948	83.97
259.165	-26.62
259.381	73.73
259.597	24.58
259.814	49.15
260.03	79.87
260.246	2.05
260.463	73.73
260.679	34.82
260.895	16.38
261.112	77.82
261.328	20.48
261.544	8.19
261.761	51.2
261.977	45.06
262.193	36.86
262.409	116.73
262.626	4.1
262.842	20.48
263.058	81.92
263.274	32.77
263.49	108.54
263.707	30.72
263.923	45.06
264.139	77.82
264.355	63.49
264.571	63.49
264.787	55.3
265.004	79.87
265.22	4.1
265.436	26.62
265.652	43.01
265.868	94.21
266.084	8.19
266.3	65.53
266.516	63.49
266.732	59.39
266.948	43.01
267.164	57.34
267.38	79.87
267.596	53.25
267.812	20.48
268.028	36.86
268.244	38.91
268.46	30.72
268.676	79.87
268.892	-10.24
269.108	28.67
269.324	12.29
269.54	55.3
269.756	88.06
269.972	-20.48
270.188	22.53
270.403	16.38
270.619	57.34
270.835	43.01
271.051	92.16
271.267	49.15
271.483	-8.19
271.698	-6.14
271.914	38.91
272.13	63.49
272.346	69.63
272.562	43.01
272.777	75.77
272.993	24.58
273.209	57.34
273.425	114.69
273.64	61.44
273.856	63.49
274.072	18.43
274.287	-14.34
274.503	-28.67
274.719	79.87
274.934	102.4
275.15	20.48
275.366	20.48
275.581	69.63
275.797	106.49
276.012	67.58
276.228	55.3
276.444	61.44
276.659	73.73
276.875	57.34
277.09	47.1
277.306	71.68
277.521	16.38
277.737	20.48
277.952	24.58
278.168	16.38
278.383	69.63
278.599	45.06
278.814	-2.05
279.03	96.25
279.245	51.2
279.461	94.21
279.676	67.58
279.892	36.86
280.107	49.15
280.322	20.48
280.538	24.58
280.753	53.25
280.969	32.77
281.184	20.48
281.399	88.06
281.615	-14.34
281.83	4.1
282.045	18.43
282.26	86.01
282.476	73.73
282.691	92.16
282.906	51.2
283.122	83.97
283.337	8.19
283.552	86.01
283.767	38.91
283.983	86.01
284.198	43.01
284.413	32.77
284.628	30.72
284.843	30.72
285.058	34.82
285.274	12.29
285.489	34.82
285.704	102.4
285.919	22.53
286.134	61.44
286.349	30.72
286.564	43.01
286.779	67.58
286.995	86.01
287.21	-55.3
287.425	18.43
287.64	28.67
287.855	6.14
288.07	69.63
288.285	98.3
288.5	6.14
288.715	100.35
288.93	61.44
289.145	59.39
289.36	36.86
289.575	71.68
289.79	92.16
290.004	10.24
290.219	28.67
290.434	75.77
290.649	40.96
290.864	-53.25
291.079	49.15
291.294	45.06
291.509	36.86
291.724	-16.38
291.938	-16.38
292.153	81.92
292.368	8.19
292.583	65.53
292.798	12.29
293.012	26.62
293.227	75.77
293.442	47.1
293.657	61.44
293.871	61.44
294.086	53.25
294.301	55.3
294.516	67.58
294.73	102.4
294.945	77.82
295.16	59.39
295.374	79.87
295.589	38.91
295.804	18.43
296.018	147.45
296.233	112.64
296.447	75.77
296.662	59.39
296.877	34.82
297.091	67.58
297.306	14.34
297.52	135.17
297.735	-8.19
297.949	30.72
298.164	47.1
298.378	79.87
298.593	-30.72
298.807	49.15
299.022	69.63
299.236	67.58
299.451	45.06
299.665	28.67
299.88	118.78
300.094	86.01
300.309	49.15
300.523	69.63
300.737	118.78
300.952	81.92
301.166	57.34
301.381	116.73
301.595	28.67
301.809	53.25
302.024	104.45
302.238	36.86
302.452	22.53
302.667	30.72
302.881	34.82
303.095	135.17
303.309	77.82
303.524	53.25
303.738	43.01
303.952	4.1
304.166	151.55
304.381	12.29
304.595	63.49
304.809	-67.58
305.023	4.1
305.237	34.82
305.452	38.91
305.666	2.05
305.88	124.93
306.094	-16.38
306.308	-32.77
306.522	94.21
306.736	67.58
306.95	-0
307.164	30.72
307.379	67.58
307.593	129.02
307.807	71.68
308.021	36.86
308.235	38.91
308.449	57.34
308.663	32.77
308.877	38.91
309.091	10.24
309.305	71.68
309.519	-20.48
309.733	139.26
309.947	-38.91
310.161	83.97
310.374	45.06
310.588	77.82
310.802	40.96
311.016	75.77
311.23	-20.48
311.444	30.72
311.658	73.73
311.872	71.68
312.085	8.19
312.299	77.82
312.513	-28.67
312.727	59.39
312.941	55.3
313.154	51.2
313.368	53.25
313.582	4.1
313.796	69.63
314.009	14.34
314.223	79.87
314.437	26.62
314.651	69.63
314.864	69.63
315.078	94.21
315.292	30.72
315.505	38.91
315.719	4.1
315.933	81.92
316.146	86.01
316.36	51.2
316.573	45.06
316.787	61.44
317.001	30.72
317.214	-2.05
317.428	-24.58
317.641	53.25
317.855	14.34
318.068	38.91
318.282	94.21
318.495	73.73
318.709	16.38
318.922	36.86
319.136	59.39
319.349	81.92
319.563	12.29
319.776	30.72
319.99	120.83
320.203	40.96
320.417	-0
320.63	77.82
320.843	28.67
321.057	59.39
321.27	59.39
321.483	47.1
321.697	63.49
321.91	104.45
322.124	49.15
322.337	-32.77
322.55	30.72
322.763	106.49
322.977	47.1
323.19	40.96
323.403	53.25
323.617	86.01
323.83	96.25
324.043	12.29
324.256	-8.19
324.469	77.82
324.683	92.16
324.896	14.34
325.109	106.49
325.322	26.62
325.535	32.77
325.748	100.35
325.962	-24.58
326.175	45.06
326.388	45.06
326.601	38.91
326.814	30.72
327.027	57.34
327.24	77.82
327.453	45.06
327.666	20.48
327.879	75.77
328.092	100.35
328.305	38.91
328.518	100.35
328.731	59.39
328.944	67.58
329.157	28.67
329.37	53.25
329.583	77.82
329.796	120.83
330.009	51.2
330.222	75.77
330.435	137.21
330.648	32.77
330.861	8.19
331.073	90.11
331.286	77.82
331.499	73.73
331.712	38.91
331.925	26.62
332.138	24.58
332.35	108.54
332.563	55.3
332.776	65.53
332.989	77.82
333.202	8.19
333.414	34.82
333.627	145.41
333.84	71.68
334.053	26.62
334.265	71.68
334.478	24.58
334.691	32.77
334.903	118.78
335.116	-22.53
335.329	79.87
335.541	26.62
335.754	131.07
335.966	-59.39
336.179	53.25
336.392	22.53
336.604	106.49
336.817	14.34
337.029	45.06
337.242	100.35
337.454	163.84
337.667	28.67
337.88	106.49
338.092	34.82
338.305	26.62
338.517	28.67
338.729	98.3
338.942	30.72
339.154	28.67
339.367	38.91
339.579	108.54
339.792	47.1
340.004	90.11
340.217	63.49
340.429	86.01
340.641	10.24
340.854	104.45
341.066	67.58
341.278	81.92
341.491	149.5
341.703	96.25
341.915	81.92
342.128	77.82
342.34	30.72
342.552	-16.38
342.764	90.11
342.977	-6.14
343.189	57.34
343.401	18.43
343.613	18.43
343.826	12.29
344.038	18.43
344.25	61.44
344.462	20.48
344.674	30.72
344.886	36.86
345.099	61.44
345.311	102.4
345.523	110.59
345.735	12.29
345.947	14.34
346.159	67.58
346.371	-0
346.583	102.4
346.795	102.4
347.007	36.86
347.219	57.34
347.431	47.1
347.643	69.63
347.855	32.77
348.067	145.41
348.279	40.96
348.491	-0
348.703	36.86
348.915	73.73
349.127	49.15
349.339	59.39
349.551	59.39
349.763	34.82
349.975	18.43
350.187	-20.48
350.399	77.82
350.61	75.77
350.822	34.82
351.034	28.67
351.246	12.29
351.458	14.34
351.669	118.78
351.881	69.63
352.093	51.2
352.305	36.86
352.517	65.53
352.728	102.4
352.94	6.14
353.152	-6.14
353.363	90.11
353.575	102.4
353.787	59.39
353.999	18.43
354.21	81.92
354.422	32.77
354.633	112.64
354.845	26.62
355.057	88.06
355.268	22.53
355.48	18.43
355.692	122.88
355.903	94.21
356.115	79.87
356.326	63.49
356.538	94.21
356.749	43.01
356.961	94.21
357.172	59.39
357.384	75.77
357.595	106.49
357.807	106.49
358.018	53.25
358.23	8.19
358.441	133.12
358.653	53.25
358.864	90.11
359.075	47.1
359.287	65.53
359.498	55.3
359.709	36.86
359.921	75.77
360.132	47.1
360.344	118.78
360.555	18.43
360.766	90.11
360.977	30.72
361.189	47.1
361.4	49.15
361.611	88.06
361.823	28.67
362.034	63.49
362.245	40.96
362.456	75.77
362.667	57.34
362.879	24.58
363.09	131.07
363.301	98.3
363.512	49.15
363.723	141.31
363.935	8.19
364.146	96.25
364.357	-0
364.568	43.01
364.779	30.72
364.99	165.89
365.201	86.01
365.412	55.3
365.623	24.58
365.834	34.82
366.045	57.34
366.256	47.1
366.467	77.82
366.678	32.77
366.889	75.77
367.1	30.72
367.311	51.2
367.522	22.53
367.733	75.77
367.944	92.16
368.155	83.97
368.366	98.3
368.577	55.3
368.788	65.53
368.999	92.16
369.209	83.97
369.42	108.54
369.631	114.69
369.842	106.49
370.053	98.3
370.264	71.68
370.474	69.63
370.685	61.44
370.896	116.73
371.107	102.4
371.317	63.49
371.528	79.87
371.739	75.77
371.95	61.44
372.16	86.01
372.371	28.67
372.582	77.82
372.792	30.72
373.003	149.5
373.214	71.68
373.424	100.35
373.635	71.68
373.846	45.06
374.056	159.74
374.267	34.82
374.477	83.97
374.688	81.92
374.898	110.59
375.109	40.96
375.319	73.73
375.53	100.35
375.74	81.92
375.951	-8.19
376.161	10.24
376.372	124.93
376.582	36.86
376.793	71.68
377.003	36.86
377.214	73.73
377.424	92.16
377.635	96.25
377.845	112.64
378.055	81.92
378.266	12.29
378.476	71.68
378.686	28.67
378.897	77.82
379.107	77.82
379.317	120.83
379.528	34.82
379.738	96.25
379.948	49.15
380.158	137.21
380.369	71.68
380.579	49.15
380.789	67.58
380.999	83.97
381.21	143.36
381.42	151.55
381.63	81.92
381.84	69.63
382.05	92.16
382.261	131.07
382.471	40.96
382.681	40.96
382.891	100.35
383.101	114.69
383.311	28.67
383.521	92.16
383.731	126.97
383.941	59.39
384.151	65.53
384.361	47.1
384.571	159.74
384.781	92.16
384.991	96.25
385.201	20.48
385.411	86.01
385.621	131.07
385.831	143.36
386.041	51.2
386.251	137.21
386.461	43.01
386.671	86.01
386.881	112.64
387.091	30.72
387.301	98.3
387.511	71.68
387.72	159.74
387.93	114.69
388.14	26.62
388.35	26.62
388.56	67.58
388.769	30.72
388.979	59.39
389.189	75.77
389.399	38.91
389.609	83.97
389.818	143.36
390.028	98.3
390.238	145.41
390.447	32.77
390.657	145.41
390.867	61.44
391.076	81.92
391.286	14.34
391.496	124.93
391.705	59.39
391.915	22.53
392.125	141.31
392.334	40.96
392.544	102.4
392.753	77.82
392.963	16.38
393.172	143.36
393.382	100.35
393.591	81.92
393.801	73.73
394.01	96.25
394.22	77.82
394.429	106.49
394.639	104.45
394.848	98.3
395.058	102.4
395.267	94.21
395.477	75.77
395.686	188.41
395.895	180.22
396.105	204.8
396.314	79.87
396.524	114.69
396.733	114.69
396.942	98.3
397.152	118.78
397.361	141.31
397.57	149.5
397.78	120.83
397.989	143.36
398.198	167.93
398.407	81.92
398.617	100.35
398.826	133.12
399.035	104.45
399.244	57.34
399.453	155.65
399.663	155.65
399.872	114.69
400.081	92.16
400.29	188.41
400.499	118.78
400.708	112.64
400.917	114.69
401.127	106.49
401.336	151.55
401.545	186.37
401.754	172.03
401.963	165.89
402.172	151.55
402.381	106.49
402.59	182.27
402.799	94.21
403.008	169.98
403.217	108.54
403.426	198.65
403.635	157.69
403.844	192.51
404.053	135.17
404.262	151.55
404.471	223.23
404.68	206.84
404.888	184.32
405.097	176.13
405.306	180.22
405.515	143.36
405.724	141.31
405.933	215.04
406.142	225.28
406.35	221.18
406.559	208.89
406.768	196.6
406.977	284.67
407.185	264.19
407.394	260.09
407.603	223.23
407.812	276.48
408.02	231.42
408.229	299
408.438	239.61
408.646	307.2
408.855	307.2
409.064	264.19
409.272	311.29
409.481	391.16
409.69	352.25
409.898	372.73
410.107	405.5
410.315	423.93
410.524	372.73
410.733	296.96
410.941	432.12
411.15	468.98
411.358	395.26
411.567	483.32
411.775	511.99
411.984	507.9
412.192	425.98
412.401	563.19
412.609	581.62
412.818	557.05
413.026	581.62
413.234	487.42
413.443	561.14
413.651	536.57
413.86	606.2
414.068	655.35
414.276	675.83
414.485	759.8
414.693	679.93
414.901	794.61
415.11	831.48
415.318	856.05
415.526	856.05
415.734	874.48
415.943	886.77
416.151	946.16
416.359	978.93
416.567	1021.94
416.776	985.07
416.984	989.17
417.192	1134.57
417.4	1101.81
417.608	1110
417.817	1185.77
418.025	1179.63
418.233	1277.93
418.441	1265.64
418.649	1411.05
418.857	1447.91
419.065	1433.58
419.273	1427.43
419.481	1540.07
419.689	1607.66
419.897	1699.81
420.105	1771.49
420.313	1736.68
420.521	1900.51
420.729	1873.89
420.937	1914.85
421.145	1941.47
421.353	2002.91
421.561	2066.4
421.769	2142.18
421.977	2244.57
422.185	2082.78
422.393	2379.74
422.601	2463.71
422.809	2547.67
423.017	2562.01
423.224	2750.42
423.432	2781.14
423.64	2795.48
423.848	2987.99
424.056	2897.88
424.263	3131.34
424.471	3164.11
424.679	3278.8
424.887	3448.78
425.094	3518.41
425.302	3532.75
425.51	3710.92
425.718	3731.4
425.925	3846.09
426.133	3991.49
426.341	4241.34
426.548	4243.39
426.756	4396.99
426.964	4431.8
427.171	4784.05
427.379	4820.92
427.586	4829.11
427.794	5181.36
428.001	5308.33
428.209	5517.23
428.417	5492.65
428.624	5818.28
428.832	5832.61
429.039	5803.94
429.247	5765.03
429.454	6379.42
429.662	6678.43
429.869	6377.37
430.076	6834.07
430.284	6541.21
430.491	6981.53
430.699	7348.11
430.906	7407.5
431.114	7448.46
431.321	7618.44
431.528	7667.59
431.736	8370.05
431.943	8591.23
432.15	8474.49
432.358	8339.33
432.565	8990.58
432.772	8857.46
432.979	9391.98
433.187	9422.7
433.394	9641.84
433.601	10219.36
433.808	10194.79
434.016	10260.32
434.223	10467.17
434.43	11208.53
434.637	11181.91
434.844	11540.3
435.052	12177.22
435.259	11845.45
435.466	12226.37
435.673	12076.87
435.88	12777.28
436.087	13319.99
436.294	13293.37
436.501	13074.23
436.708	13479.73
436.915	13651.76
437.122	14409.51
437.329	14313.25
437.537	15167.26
437.743	15077.15
437.95	14950.17
438.157	15775.5
438.364	16142.09
438.571	16303.88
438.778	16369.41
438.985	17678.07
439.192	16959.23
439.399	17905.39
439.606	17405.69
439.813	18173.67
440.02	19435.22
440.227	18943.71
440.433	19060.45
440.64	19334.87
440.847	19175.13
441.054	19939.02
441.261	21286.59
441.467	20776.64
441.674	21180.09
441.881	21896.88
442.088	22185.65
442.294	21771.96
442.501	22161.07
442.708	22675.11
442.914	23395.99
443.121	24624.78
443.328	24063.63
443.534	25560.7
443.741	25153.15
443.948	24512.14
444.154	26130.03
444.361	26062.45
444.568	26596.97
444.774	26859.11
444.981	26775.14
445.187	27713.11
445.394	29025.86
445.6	28773.96
445.807	31223.33
446.013	30178.87
446.22	30275.12
446.426	31278.63
446.633	31569.44
446.839	33025.54
447.046	31471.14
447.252	33662.46
447.459	33682.94
447.665	33318.4
447.871	34487.79
448.078	36029.91
448.284	34549.23
448.491	35474.91
448.697	36668.88
448.903	37352.9
449.11	37350.85
449.316	36500.95
449.522	37432.77
449.728	38419.89
449.935	38669.75
450.141	38604.21
450.347	39865.76
450.553	37963.2
450.76	38966.7
450.966	39998.88
451.172	39818.66
451.378	40740.24
451.584	39873.95
451.791	40666.52
451.997	40543.64
452.203	41141.64
452.409	41270.67
452.615	40938.9
452.821	39439.78
453.027	39220.65
453.233	41303.43
453.44	39749.03
453.646	39966.11
453.852	40109.47
454.058	40793.49
454.264	39687.59
454.47	40568.21
454.676	39402.92
454.882	40641.94
455.088	37246.41
455.294	37682.62
455.5	38686.13
455.705	38725.04
455.911	37133.77
456.117	36586.96
456.323	35816.93
456.529	34317.81
456.735	35651.04
456.941	34944.49
457.147	33857.02
457.352	33320.45
457.558	32196.12
457.764	32917
457.97	32364.05
458.176	31489.57
458.381	31303.2
458.587	29984.31
458.793	30074.42
458.999	28266.06
459.204	30469.68
459.41	29478.46
459.616	27526.75
459.821	27870.81
460.027	27604.57
460.233	26855.01
460.438	25405.05
460.644	26089.07
460.85	24895.11
461.055	24526.47
461.261	24479.37
461.466	22419.11
461.672	21907.12
461.878	23240.35
462.083	21690.04
462.289	21352.12
462.494	21128.89
462.7	20453.06
462.905	19762.9
463.111	20709.06
463.316	20514.5
463.522	20358.86
463.727	19971.79
463.932	20168.4
464.138	19887.82
464.343	19801.81
464.549	19128.03
464.754	19887.82
464.959	19685.08
465.165	19648.21
465.37	18714.34
465.575	18439.91
465.781	19121.88
465.986	19285.72
466.191	18333.42
466.397	18018.03
466.602	17067.77
466.807	17757.94
467.012	18005.74
467.218	17862.38
467.423	17700.59
467.628	17479.41
467.833	18149.1
468.038	17710.83
468.244	17372.92
468.449	17604.34
468.654	17123.07
468.859	17393.4
469.064	17215.23
469.269	16541.44
469.474	16641.79
469.679	16631.55
469.885	16539.4
470.09	16568.07
470.295	16353.03
470.5	16174.86
470.705	16520.96
470.91	15759.12
471.115	15724.3
471.32	15847.18
471.525	15941.39
471.73	15531.79
471.935	15294.23
472.139	14876.44
472.344	15056.67
472.549	14896.92
472.754	14827.29
472.959	14427.94
473.164	14346.02
473.369	14137.13
473.574	14571.3
473.778	14286.63
473.983	14145.32
474.188	13981.48
474.393	13586.22
474.598	13827.89
474.802	13535.03
475.007	13500.21
475.212	13291.32
475.417	12801.85
475.621	12939.07
475.826	12838.72
476.031	12537.66
476.235	12400.45
476.44	12685.12
476.645	12488.51
476.849	12543.81
477.054	12216.13
477.259	11853.64
477.463	11956.04
477.668	11530.06
477.872	11736.91
478.077	11792.2
478.282	11517.78
478.486	11296.6
478.691	11192.15
478.895	11167.57
479.1	11200.34
479.304	11229.01
479.509	10659.68
479.713	11040.6
479.918	10719.07
480.122	10567.52
480.326	10780.51
480.531	10813.27
480.735	10612.57
480.94	10565.47
481.144	10692.44
481.348	10370.91
481.553	10446.69
481.757	10233.7
481.961	10598.24
482.166	10616.67
482.37	10458.98
482.574	10184.55
482.778	10356.58
482.983	10698.59
483.187	10286.95
483.391	10467.17
483.595	10332
483.8	10166.12
484.004	10485.6
484.208	10381.15
484.412	10321.76
484.616	10297.19
484.821	10413.92
485.025	10178.4
485.229	10362.72
485.433	10166.12
485.637	10301.28
485.841	10194.79
486.045	10125.16
486.249	10026.85
486.453	10112.87
486.657	10428.26
486.861	10217.32
487.065	10116.97
487.269	10342.24
487.473	10080.1
487.677	10368.87
487.881	10532.7
488.085	10219.36
488.289	10258.28
488.493	10280.8
488.697	10393.44
488.901	10415.97
489.105	10237.8
489.309	10487.65
489.512	10549.09
489.716	10190.69
489.92	10381.15
490.124	10303.33
490.328	10307.43
490.531	10334.05
490.735	10491.74
490.939	10501.98
491.143	10516.32
491.346	10446.69
491.55	10598.24
491.754	10739.55
491.958	10899.29
492.161	10854.23
492.365	10893.15
492.569	10753.88
492.772	10725.21
492.976	10780.51
493.18	10913.63
493.383	11091.8
493.587	11155.29
493.79	11196.25
493.994	11034.46
494.197	11329.36
494.401	11364.18
494.605	11155.29
494.808	11597.65
495.012	11435.86
495.215	11589.46
495.419	11775.82
495.622	11618.13
495.825	11913.03
496.029	12089.16
496.232	12044.1
496.436	11847.5
496.639	12220.23
496.843	12552
497.046	12529.47
497.249	12640.06
497.453	12699.45
497.656	12738.37
497.859	13139.77
498.063	13145.91
498.266	13057.85
498.469	13324.08
498.673	13397.81
498.876	13666.1
499.079	13651.76
499.282	13510.45
499.485	13911.85
499.689	13842.22
499.892	14530.34
500.095	13979.43
500.298	14589.73
500.501	14466.85
500.705	15027.99
500.908	15091.48
501.111	15081.24
501.314	15187.74
501.517	15398.68
501.72	15732.5
501.923	15882
502.126	16191.24
502.329	16301.83
502.532	16226.06
502.735	16527.11
502.938	16586.5
503.141	16772.86
503.344	16881.41
503.547	17106.68
503.75	17342.2
503.953	17503.99
504.156	17712.88
504.359	17700.59
504.562	18083.56
504.765	18331.37
504.968	18374.38
505.17	18808.54
505.373	18847.46
505.576	19058.4
505.779	19230.43
505.982	19201.76
506.185	19699.41
506.387	19850.96
506.59	19934.93
506.793	20283.08
506.996	19908.3
507.198	20700.87
507.401	20764.36
507.604	20707.01
507.807	21055.17
508.009	21446.33
508.212	21249.72
508.415	21831.35
508.617	22001.33
508.82	22091.44
509.022	22058.67
509.225	22560.42
509.428	22544.04
509.63	23035.55
509.833	22879.91
510.035	23357.08
510.238	23543.45
510.44	23717.53
510.643	23957.14
510.845	24206.99
511.048	24159.89
511.25	24415.88
511.453	24829.57
511.655	25726.58
511.858	25147.01
512.06	25171.58
512.262	25685.62
512.465	25972.34
512.667	26492.52
512.87	26373.74
513.072	26314.35
513.274	26844.77
513.477	27369.05
513.679	27246.18
513.881	27745.88
514.084	27850.33
514.286	28044.88
514.488	28132.95
514.69	28884.55
514.893	28970.57
515.095	28825.16
515.297	29427.26
515.499	29271.62
515.701	29707.83
515.904	30350.9
516.106	30031.41
516.308	30471.73
516.51	31104.55
516.712	30858.79
516.914	31370.79
517.116	31413.79
517.318	31372.83
517.52	31804.95
517.722	32169.49
517.925	32407.06
518.127	32982.54
518.329	32767.5
518.531	32947.72
518.733	33584.64
518.935	33981.95
519.136	33830.4
519.338	34463.22
519.54	34502.13
519.742	34653.68
519.944	35007.98
520.146	35284.45
520.348	35558.88
520.55	35722.72
520.752	35507.68
520.954	36435.41
521.155	35943.9
521.357	36840.91
521.559	37410.25
521.761	37352.9
521.963	37502.4
522.164	37293.51
522.366	37520.84
522.568	37979.58
522.77	38374.84
522.971	38763.95
523.173	38712.75
523.375	39007.66
523.576	38809.01
523.778	38915.5
523.98	39740.83
524.181	39564.71
524.383	39802.27
524.584	40375.7
524.786	39871.9
524.988	40052.12
525.189	40572.31
525.391	40482.2
525.592	41088.4
525.794	41168.27
525.995	41516.42
526.197	41471.37
526.398	41442.7
526.6	41452.94
526.801	41651.59
527.003	41985.41
527.204	41880.96
527.406	42202.49
527.607	42173.82
527.808	42700.15
528.01	42112.38
528.211	42216.83
528.412	43674.98
528.614	42825.07
528.815	43214.19
529.016	43341.16
529.218	42808.69
529.419	43400.55
529.62	43070.83
529.822	43502.95
530.023	43375.98
530.224	43431.27
530.425	43722.08
530.626	43482.47
530.828	43171.18
531.029	44146.01
531.23	43445.61
531.431	43881.83
531.632	43724.13
531.833	44180.83
532.035	44158.3
532.236	43996.51
532.437	44035.42
532.638	44103.01
532.839	44332.38
533.04	44408.15
533.241	43947.36
533.442	44811.6
533.643	44490.07
533.844	44148.06
534.045	44309.85
534.246	44111.2
534.447	44305.76
534.648	44430.68
534.849	44518.74
535.05	44440.92
535.251	44182.88
535.451	43851.11
535.652	44549.46
535.853	44385.63
536.054	44524.89
536.255	44735.83
536.456	44313.95
536.657	45131.09
536.857	44455.26
537.058	44387.67
537.259	44846.42
537.46	44881.24
537.66	44303.71
537.861	44381.53
538.062	44221.79
538.263	44426.59
538.463	44092.77
538.664	44023.14
538.865	44635.48
539.065	44479.83
539.266	43951.46
539.466	44762.45
539.667	43928.93
539.868	45026.64
540.068	44320.09
540.269	44350.81
540.469	44760.4
540.67	44041.57
540.87	44217.69
541.071	44533.08
541.271	44416.35
541.472	44262.75
541.672	44129.63
541.873	44002.66
542.073	43474.28
542.274	44389.72
542.474	44070.24
542.675	43898.21
542.875	44242.27
543.075	44012.9
543.276	43468.14
543.476	44574.04
543.676	44105.06
543.877	43883.87
544.077	44180.83
544.277	44053.86
544.478	44004.7
544.678	44275.04
544.878	43961.7
545.078	44338.52
545.279	43838.82
545.479	43890.02
545.679	44326.24
545.879	44086.62
546.079	43816.29
546.28	43654.5
546.48	43681.13
546.68	43654.5
546.88	43687.27
547.08	43930.98
547.28	43904.35
547.48	43490.66
547.68	43734.37
547.88	43914.59
548.081	44133.73
548.281	43527.53
548.481	43730.28
548.681	44109.15
548.881	43754.85
549.081	43908.45
549.28	43650.41
549.48	43926.88
549.68	43574.63
549.88	44002.66
550.08	43464.04
550.28	43613.54
550.48	43058.54
550.68	43828.58
550.88	43509.1
551.08	43646.31
551.279	43775.33
551.479	43392.36
551.679	43722.08
551.879	43230.57
552.079	43789.67
552.278	43539.82
552.478	43543.91
552.678	43255.15
552.878	43566.44
553.077	43541.86
553.277	43101.55
553.477	43793.76
553.676	43318.63
553.876	43160.94
554.076	43259.24
554.275	42923.38
554.475	43013.49
554.674	43085.17
554.874	42853.75
555.074	42980.72
555.273	43054.45
555.473	43253.1
555.672	43048.3
555.872	42855.79
556.071	43203.95
556.271	42722.68
556.47	42792.31
556.67	42474.87
556.869	42747.25
557.068	43050.35
557.268	42452.34
557.467	42841.46
557.667	42511.74
557.866	42536.31
558.065	42478.97
558.265	42478.97
558.464	42071.42
558.663	42601.85
558.863	41604.49
559.062	42884.47
559.261	41907.58
559.461	42550.65
559.66	41792.9
559.859	41997.7
560.058	41805.19
560.258	41911.68
560.457	41850.24
560.656	41706.88
560.855	41665.92
561.054	41610.63
561.253	41377.16
561.453	41541
561.652	41532.81
561.851	41389.45
562.05	41588.1
562.249	40904.08
562.448	41293.19
562.647	41416.07
562.846	41559.43
563.045	41215.37
563.244	40691.09
563.443	41684.36
563.642	40428.95
563.841	40971.66
564.04	40963.47
564.239	40998.29
564.438	40643.99
564.637	40873.36
564.836	40643.99
565.035	40242.59
565.234	40807.83
565.432	40424.86
565.631	40383.9
565.83	40091.04
566.029	40279.45
566.228	39863.71
566.427	40072.6
566.625	40025.5
566.824	39466.41
567.023	40103.32
567.222	38811.06
567.42	40019.36
567.619	39888.29
567.818	39282.09
568.016	39210.41
568.215	39179.69
568.414	39523.75
568.612	39773.6
568.811	38905.26
569.01	38905.26
569.208	38591.92
569.407	39048.62
569.605	38362.55
569.804	38858.16
570.002	38378.93
570.201	38567.35
570.4	38364.6
570.598	38202.81
570.797	38229.43
570.995	38397.37
571.193	37782.98
571.392	38239.67
571.59	37584.32
571.789	38260.15
571.987	37830.08
572.186	38014.4
572.384	37582.27
572.582	37893.57
572.781	37770.69
572.979	37303.75
573.177	37172.68
573.376	37625.28
573.574	37094.86
573.772	37029.32
573.971	37057.99
574.169	36888.01
574.367	36902.35
574.565	36926.92
574.763	36666.83
574.962	36724.18
575.16	36349.4
575.358	36347.35
575.556	36060.63
575.754	36793.81
575.952	36124.12
576.151	36242.9
576.349	35732.96
576.547	35808.73
576.745	35825.12
576.943	35837.41
577.141	35913.18
577.339	35642.85
577.537	35511.78
577.735	35624.42
577.933	35436
578.131	35562.98
578.329	34913.77
578.527	35198.44
578.725	35137
578.923	35169.77
579.121	34756.08
579.319	34620.91
579.516	35112.42
579.714	34895.34
579.912	34655.73
580.11	34723.31
580.308	34846.19
580.506	34434.55
580.704	34018.81
580.901	34506.23
581.099	34483.7
581.297	34145.78
581.495	34160.12
581.692	33971.71
581.89	33891.83
582.088	33994.23
582.285	33453.57
582.483	33689.09
582.681	33568.26
582.878	33394.18
583.076	33084.94
583.274	33414.66
583.471	32996.87
583.669	33265.16
583.866	33000.97
584.064	33265.16
584.262	32808.46
584.459	32810.51
584.657	32548.37
584.854	32847.37
585.052	32028.18
585.249	32192.02
585.447	32792.08
585.644	32450.06
585.841	32036.38
586.039	32325.14
586.236	32405.01
586.434	31856.15
586.631	31716.89
586.828	31899.16
587.026	31872.54
587.223	31589.92
587.42	31702.56
587.618	31462.94
587.815	31233.57
588.012	31110.69
588.21	31366.69
588.407	31411.74
588.604	31174.18
588.801	31008.29
588.999	30897.7
589.196	30799.4
589.393	30789.16
589.59	30750.25
589.787	30090.8
589.984	30565.93
590.182	30158.39
590.379	30518.83
590.576	30041.65
590.773	30203.44
590.97	29879.86
591.167	30096.95
591.364	29478.46
591.561	30211.63
591.758	29482.56
591.955	29720.12
592.152	29863.48
592.349	29527.61
592.546	29697.59
592.743	29404.74
592.94	29183.55
593.137	29165.12
593.334	29232.71
593.531	28692.04
593.727	29177.41
593.924	28794.44
594.121	28931.65
594.318	28976.71
594.515	28425.81
594.712	29021.77
594.908	28434
595.105	28507.72
595.302	28132.95
595.499	28294.74
595.696	28196.43
595.892	27967.06
596.089	28378.7
596.286	28128.85
596.482	27473.5
596.679	27899.48
596.876	27862.61
597.072	27526.75
597.269	27625.05
597.466	27328.09
597.662	27424.35
597.859	27321.95
598.055	27305.57
598.252	27086.43
598.448	27010.66
598.645	26928.74
598.841	26826.34
599.038	26893.93
599.234	27192.93
599.431	26572.39
599.627	26678.89
599.824	26467.95
600.02	26377.84
600.217	26783.34
600.413	26263.15
600.609	26269.3
600.806	25935.48
601.002	26455.66
601.198	26033.78
601.395	25624.18
601.591	25853.56
601.787	25841.27
601.984	25712.25
602.18	25695.86
602.376	25345.66
602.572	25316.99
602.769	25214.59
602.965	25073.28
603.161	25241.21
603.357	25255.55
603.553	25050.75
603.75	25288.32
603.946	24901.25
604.142	24911.49
604.338	24649.35
604.534	24954.5
604.73	24637.06
604.926	24526.47
605.122	24626.82
605.318	24227.47
605.514	24209.04
605.71	24096.4
605.906	24356.49
606.102	24352.4
606.298	24063.63
606.494	24026.77
606.69	24272.53
606.886	24180.37
607.082	23791.25
607.278	23981.71
607.474	23596.7
607.67	23957.14
607.866	23395.99
608.062	23674.52
608.257	23766.68
608.453	23582.36
608.649	23582.36
608.845	23238.3
609.041	23287.45
609.236	23318.17
609.432	23129.76
609.628	23209.63
609.824	22961.83
610.019	23289.5
610.215	22869.67
610.411	23053.98
610.606	22974.11
610.802	22879.91
610.998	22736.55
611.193	22908.58
611.389	22709.93
611.584	22603.43
611.78	22535.85
611.976	22384.3
612.171	22767.27
612.367	22652.58
612.562	22310.57
612.758	22185.65
612.953	22367.91
613.149	22734.5
613.344	22226.6
613.539	22828.71
613.735	22286
613.93	22468.27
614.126	22230.7
614.321	22390.44
614.517	22116.01
614.712	22191.79
614.907	22019.76
615.103	22474.41
615.298	22007.47
615.493	21972.66
615.688	21677.75
615.884	22019.76
616.079	21894.83
616.274	21948.08
616.47	21710.52
616.665	21567.16
616.86	21540.54
617.055	21749.43
617.25	21270.2
617.445	21581.49
617.641	21219
617.836	21599.93
618.031	21038.78
618.226	21237.44
618.421	21098.17
618.616	21255.87
618.811	20616.9
619.006	21130.94
619.201	20635.33
619.396	20958.91
619.591	20745.92
619.786	20850.37
619.981	20471.5
620.176	20729.54
620.371	20242.12
620.566	20326.09
620.761	20260.55
620.956	20373.19
621.151	19642.07
621.346	20266.7
621.541	19607.25
621.735	20344.52
621.93	19726.03
622.125	19855.06
622.32	19361.5
622.515	19582.68
622.709	19201.76
622.904	19318.49
623.099	19220.19
623.294	19304.15
623.488	18968.29
623.683	19273.43
623.878	18691.81
624.072	18779.87
624.267	18505.45
624.462	18663.14
624.656	18314.98
624.851	18218.73
625.046	18274.03
625.24	18327.27
625.435	17950.45
625.629	18108.14
625.824	17940.21
626.018	17610.48
626.213	17467.13
626.407	17700.59
626.602	17401.59
626.796	17557.24
626.991	17411.83
627.185	17286.9
627.38	17016.57
627.574	17108.73
627.768	16736
627.963	16742.14
628.157	16500.48
628.352	16871.17
628.546	16439.05
628.74	16426.76
628.935	16342.79
629.129	16447.24
629.323	16205.58
629.517	16152.33
629.712	16015.12
629.906	15761.17
630.1	15589.14
630.294	15838.99
630.489	15689.49
630.683	15777.55
630.877	15552.27
631.071	15374.1
631.265	15472.4
631.459	15230.74
631.653	14991.13
631.848	15183.64
632.042	15040.28
632.236	15181.59
632.43	14894.88
632.624	14925.6
632.818	14868.25
633.012	14579.49
633.206	14565.15
633.4	14569.25
633.594	14290.73
633.788	14399.27
633.982	14413.6
634.176	14358.31
634.369	14212.9
634.563	14247.72
634.757	14079.79
634.951	14083.88
635.145	13973.29
635.339	13952.81
635.533	13762.35
635.726	13614.9
635.92	13541.17
636.114	13748.01
636.308	13369.14
636.501	13580.08
636.695	13301.56
636.889	13186.87
637.083	13199.16
637.276	13408.05
637.47	13090.62
637.664	12861.24
637.857	12912.44
638.051	13039.42
638.244	12695.36
638.438	12928.83
638.632	12814.14
638.825	12494.66
639.019	12537.66
639.212	12529.47
639.406	12568.38
639.599	12330.82
639.793	12234.57
639.986	12339.01
640.18	12156.74
640.373	11992.91
640.567	12007.24
640.76	11870.03
640.954	12031.82
641.147	11710.29
641.34	11718.48
641.534	11700.05
641.727	11646.8
641.92	11687.76
642.114	11525.97
642.307	11581.26
642.5	11380.56
642.694	11276.12
642.887	11259.73
643.08	11480.91
643.273	11196.25
643.467	11169.62
643.66	11059.03
643.853	11052.89
644.046	10944.34
644.239	10848.09
644.432	10938.2
644.626	10964.82
644.819	10872.67
645.012	10874.71
645.205	10837.85
645.398	10585.95
645.591	10553.18
645.784	10473.31
645.977	10493.79
646.17	10571.61
646.363	10458.98
646.556	10170.21
646.749	10360.67
646.942	10420.07
647.135	10112.87
647.328	10168.16
647.521	10133.35
647.714	9916.26
647.907	9926.5
648.099	9897.83
648.292	9934.7
648.485	9750.38
648.678	9658.22
648.871	9635.69
649.064	9607.02
649.256	9600.88
649.449	9457.52
649.642	9553.77
649.835	9533.29
650.027	9400.18
650.22	9478
650.413	9299.83
650.605	9148.28
650.798	9271.15
650.991	9000.82
651.183	9174.9
651.376	8873.85
651.568	9103.22
651.761	8949.62
651.954	8775.55
652.146	8845.18
652.339	8959.86
652.531	8896.38
652.724	8920.95
652.916	8748.92
653.109	8443.78
653.301	8583.04
653.494	8642.43
653.686	8433.54
653.879	8617.85
654.071	8372.1
654.263	8474.49
654.456	8341.38
654.648	8419.2
654.84	8284.03
655.033	8204.16
655.225	8216.45
655.417	7847.82
655.61	8087.43
655.802	8030.09
655.994	7907.21
656.186	7939.97
656.379	7917.45
656.571	8044.42
656.763	7935.88
656.955	7835.53
657.148	7788.43
657.34	7759.75
657.532	7731.08
657.724	7726.99
657.916	7583.63
658.108	7430.03
658.3	7532.43
658.492	7528.33
658.684	7268.24
658.876	7446.41
659.068	7290.77
659.26	7360.4
659.452	7319.44
659.644	7217.04
659.836	7270.29
660.028	7120.79
660.22	7045.01
660.412	7214.99
660.604	7067.54
660.796	6987.67
660.988	6944.66
661.18	6952.85
661.372	6961.05
661.563	6817.69
661.755	6844.31
661.947	6870.94
662.139	6764.44
662.331	6637.47
662.522	6629.27
662.714	6625.18
662.906	6639.51
663.097	6655.9
663.289	6422.43
663.481	6465.44
663.673	6475.68
663.864	6397.85
664.056	6352.8
664.247	6455.2
664.439	6494.11
664.631	6289.31
664.822	6469.53
665.014	6242.21
665.205	6305.7
665.397	6287.26
665.588	6274.98
665.78	5951.4
665.971	6193.06
666.163	6049.7
666.354	6125.47
666.546	6037.41
666.737	6113.19
666.929	6090.66
667.12	6008.74
667.311	6006.69
667.503	5918.63
667.694	6000.55
667.885	5928.87
668.077	5961.64
668.268	5834.66
668.459	5748.65
668.651	5849
668.842	5656.49
669.033	5771.18
669.224	5443.5
669.416	5787.56
669.607	5648.3
669.798	5568.43
669.989	5617.58
670.18	5515.18
670.371	5593
670.563	5355.44
670.754	5523.37
670.945	5363.63
671.136	5437.36
671.327	5431.21
671.518	5361.58
671.709	5382.06
671.9	5341.1
672.091	5224.37
672.282	5320.62
672.473	5216.18
672.664	5328.81
672.855	5238.7
673.046	5496.75
673.237	5279.66
673.428	5107.63
673.619	5318.57
673.809	5148.59
674	4884.41
674.191	5060.53
674.382	5025.72
674.573	4906.93
674.764	4927.41
674.954	4992.95
675.145	4908.98
675.336	4874.17
675.527	5072.82
675.717	4911.03
675.908	4997.04
676.099	4933.56
676.289	4892.6
676.48	4794.29
676.671	4763.58
676.861	4902.84
677.052	4718.52
677.243	4759.48
677.433	4638.65
677.624	4884.41
677.814	4753.34
678.005	4913.08
678.195	4710.33
678.386	4800.44
678.576	4628.41
678.767	4751.29
678.957	4700.09
679.148	4581.31
679.338	4593.59
679.529	4673.46
679.719	4491.2
679.909	4708.28
680.1	4499.39
680.29	4564.92
680.481	4609.98
680.671	4540.35
680.861	4501.44
681.052	4540.35
681.242	4474.81
681.432	4599.74
681.622	4517.82
681.813	4390.84
682.003	4325.31
682.193	4351.93
682.383	4298.69
682.573	4466.62
682.764	4407.23
682.954	4317.12
683.144	4325.31
683.334	4456.38
683.524	4360.13
683.714	4435.9
683.904	4231.1
684.094	4243.39
684.284	4243.39
684.474	4247.49
684.664	4202.43
684.854	4290.49
685.044	4253.63
685.234	4274.11
685.424	4210.62
685.614	4134.85
685.804	4171.71
685.994	4077.51
686.184	4333.5
686.374	4005.83
686.564	4061.12
686.753	4026.31
686.943	4020.16
687.133	3942.34
687.323	4071.36
687.513	3971.01
687.702	3997.63
687.892	3948.48
688.082	4014.02
688.272	3938.24
688.461	3973.06
688.651	3841.99
688.841	3928
689.03	3862.47
689.22	3915.72
689.41	3735.49
689.599	3706.82
689.789	3788.74
689.979	3770.31
690.168	3778.5
690.358	3551.18
690.547	3813.32
690.737	3794.89
690.926	3706.82
691.116	3588.04
691.305	3784.65
691.495	3602.38
691.684	3551.18
691.874	3563.47
692.063	3602.38
692.252	3534.79
692.442	3506.12
692.631	3424.2
692.82	3397.58
693.01	3430.35
693.199	3373
693.388	3389.39
693.578	3461.07
693.767	3381.2
693.956	3416.01
694.146	3370.96
694.335	3276.75
694.524	3272.65
694.713	3213.26
694.902	3317.71
695.092	3387.34
695.281	3368.91
695.47	3289.04
695.659	3264.46
695.848	3223.5
696.037	3207.12
696.226	3166.16
696.415	3198.93
696.604	3256.27
696.793	3260.37
696.982	3246.03
697.171	3200.98
697.36	3143.63
697.549	3080.14
697.738	3149.78
697.927	3098.58
698.116	3209.17
698.305	3010.51
698.494	3061.71
698.683	3065.81
698.872	3155.92
699.061	3024.85
699.25	3086.29
699.438	3030.99
699.627	3106.77
699.816	3028.95
700.005	2981.84
700.193	3092.43
700.382	3051.47
700.571	3074
700.76	3022.8
700.948	2766.81
701.137	3041.23
701.326	2959.31
701.514	2912.21
701.703	3018.71
701.892	2918.36
702.08	3039.19
702.269	3010.51
702.457	2963.41
702.646	2947.03
702.834	3004.37
703.023	3006.42
703.212	2891.73
703.4	3012.56
703.589	2994.13
703.777	2797.53
703.965	2910.16
704.154	2940.88
704.342	2901.97
704.531	2899.92
704.719	2762.71
704.907	2854.87
705.096	2813.91
705.284	2895.83
705.472	2846.68
705.661	2729.94
705.849	2969.55
706.037	2973.65
706.226	2797.53
706.414	2879.44
706.602	2955.22
706.79	2818
706.979	2815.96
707.167	2715.61
707.355	2957.27
707.543	2871.25
707.731	2826.2
707.919	2748.37
708.107	2791.38
708.296	2875.35
708.484	2871.25
708.672	2848.72
708.86	2736.09
709.048	2691.03
709.236	2709.46
709.424	2742.23
709.612	2813.91
709.8	2731.99
709.988	2742.23
710.176	2686.93
710.364	2775
710.551	2822.1
710.739	2582.49
710.927	2793.43
711.115	2789.33
711.303	2668.5
711.491	2643.93
711.679	2697.17
711.866	2664.41
712.054	2828.24
712.242	2709.46
712.43	2715.61
712.617	2654.17
712.805	2762.71
712.993	2840.53
713.181	2734.04
713.368	2906.07
713.556	2713.56
713.744	2682.84
713.931	2799.57
714.119	2715.61
714.306	2711.51
714.494	2803.67
714.682	2684.89
714.869	2672.6
715.057	2703.32
715.244	2670.55
715.432	2660.31
715.619	2748.37
715.807	2803.67
715.994	2658.26
716.182	2652.12
716.369	2762.71
716.556	2680.79
716.744	2688.98
716.931	2744.28
717.119	2682.84
717.306	2715.61
717.493	2736.09
717.681	2856.92
717.868	2731.99
718.055	2688.98
718.242	2688.98
718.43	2711.51
718.617	2842.58
718.804	2723.8
718.991	2641.88
719.179	2701.27
719.366	2592.73
719.553	2615.26
719.74	2654.17
719.927	2605.02
720.114	2668.5
720.301	2762.71
720.488	2666.46
720.676	2705.37
720.863	2768.85
721.05	2652.12
721.237	2715.61
721.424	2643.93
721.611	2707.41
721.798	2709.46
721.985	2672.6
722.172	2713.56
722.358	2711.51
722.545	2707.41
722.732	2797.53
722.919	2684.89
723.106	2592.73
723.293	2684.89
723.48	2719.7
723.667	2658.26
723.853	2711.51
724.04	2738.13
724.227	2586.58
724.414	2617.3
724.6	2691.03
724.787	2785.24
724.974	2648.02
725.161	2658.26
725.347	2697.17
725.534	2777.05
725.72	2645.98
725.907	2578.39
726.094	2824.15
726.28	2609.11
726.467	2652.12
726.653	2719.7
726.84	2664.41
727.027	2607.06
727.213	2688.98
727.4	2738.13
727.586	2742.23
727.773	2772.95
727.959	2742.23
728.145	2731.99
728.332	2656.22
728.518	2680.79
728.705	2668.5
728.891	2799.57
729.077	2668.5
729.264	2680.79
729.45	2711.51
729.636	2715.61
729.823	2705.37
730.009	2656.22
730.195	2555.86
730.382	2752.47
730.568	2600.92
730.754	2731.99
730.94	2645.98
731.126	2846.68
731.313	2756.57
731.499	2858.96
731.685	2725.85
731.871	2744.28
732.057	2723.8
732.243	2809.81
732.429	2639.83
732.615	2721.75
732.801	2762.71
732.987	2715.61
733.173	2633.69
733.359	2691.03
733.545	2723.8
733.731	2686.93
733.917	2719.7
734.103	2858.96
734.289	2731.99
734.475	2750.42
734.661	2799.57
734.847	2725.85
735.033	2725.85
735.219	2744.28
735.404	2650.07
735.59	2838.48
735.776	2631.64
735.962	2727.89
736.148	2756.57
736.333	2738.13
736.519	2674.65
736.705	2691.03
736.89	2756.57
737.076	2686.93
737.262	2699.22
737.447	2682.84
737.633	2715.61
737.819	2633.69
738.004	2670.55
738.19	2711.51
738.375	2668.5
738.561	2666.46
738.747	2662.36
738.932	2555.86
739.118	2645.98
739.303	2627.54
739.489	2729.94
739.674	2813.91
739.859	2588.63
740.045	2584.54
740.23	2635.74
740.416	2617.3
740.601	2674.65
740.786	2686.93
740.972	2666.46
741.157	2715.61
741.342	2674.65
741.528	2572.25
741.713	2637.78
741.898	2594.78
742.084	2627.54
742.269	2705.37
742.454	2611.16
742.639	2598.87
742.824	2645.98
743.01	2691.03
743.195	2508.76
743.38	2613.21
743.565	2506.71
743.75	2553.82
743.935	2480.09
744.12	2478.04
744.305	2469.85
744.49	2445.27
744.675	2432.99
744.86	2519
745.045	2344.92
745.23	2435.03
745.415	2514.91
745.6	2406.36
745.785	2385.88
745.97	2394.08
746.155	2353.12
746.34	2498.52
746.525	2402.27
746.71	2404.32
746.895	2256.86
747.079	2344.92
747.264	2392.03
747.449	2310.11
747.634	2283.49
747.819	2275.29
748.003	2326.49
748.188	2265.05
748.373	2279.39
748.557	2115.55
748.742	2269.15
748.927	2187.23
749.111	2254.81
749.296	2154.46
749.481	2193.37
749.665	2107.36
749.85	2234.33
750.034	2162.65
750.219	2146.27
750.404	2115.55
750.588	2136.03
750.773	2017.25
750.957	2064.35
751.141	2007.01
751.326	2082.78
751.51	2101.22
751.695	1951.71
751.879	2054.11
752.064	1957.86
752.248	2041.82
752.432	2072.54
752.617	1929.19
752.801	1972.19
752.985	1880.04
753.17	2076.64
753.354	1947.62
753.538	2021.35
753.722	1814.5
753.907	1798.12
754.091	1937.38
754.275	1802.21
754.459	1925.09
754.643	1814.5
754.828	1796.07
755.012	1886.18
755.196	1826.79
755.38	1718.25
755.564	1679.33
755.748	1761.25
755.932	1810.4
756.116	1773.54
756.3	1646.57
756.484	1777.64
756.668	1714.15
756.852	1654.76
757.036	1683.43
757.22	1658.85
757.404	1679.33
757.588	1644.52
757.772	1716.2
757.956	1576.94
758.14	1705.96
758.323	1669.09
758.507	1595.37
758.691	1503.21
758.875	1636.33
759.059	1607.66
759.242	1560.55
759.426	1587.18
759.61	1478.63
759.794	1482.73
759.977	1521.64
760.161	1337.32
760.345	1546.22
760.528	1484.78
760.712	1486.83
760.895	1503.21
761.079	1452.01
761.263	1335.28
761.446	1417.19
761.63	1392.62
761.813	1433.58
761.997	1359.85
762.18	1460.2
762.364	1445.87
762.547	1331.18
762.731	1406.95
762.914	1382.38
763.098	1343.47
763.281	1380.33
763.464	1318.89
763.648	1384.43
763.831	1318.89
764.015	1384.43
764.198	1312.75
764.381	1337.32
764.564	1341.42
764.748	1245.16
764.931	1325.04
765.114	1230.83
765.297	1261.55
765.481	1290.22
765.664	1331.18
765.847	1298.41
766.03	1300.46
766.213	1193.97
766.397	1290.22
766.58	1273.84
766.763	1267.69
766.946	1212.4
767.129	1308.65
767.312	1208.3
767.495	1226.73
767.678	1157.1
767.861	1132.53
768.044	1177.58
768.227	1241.07
768.41	1171.44
768.593	1167.34
768.776	1175.53
768.959	1234.93
769.142	1204.21
769.324	1155.05
769.507	1202.16
769.69	1212.4
769.873	1066.99
770.056	1177.58
770.239	1224.69
770.421	1161.2
770.604	1050.61
770.787	1155.05
770.97	1079.28
771.152	1087.47
771.335	1134.57
771.518	991.22
771.7	1048.56
771.883	1073.14
772.066	1101.81
772.248	1095.66
772.431	1052.66
772.613	958.45
772.796	1083.38
772.978	1015.79
773.161	1120.24
773.343	978.93
773.526	1005.55
773.708	1017.84
773.891	1032.18
774.073	997.36
774.256	1001.46
774.438	952.31
774.621	944.11
774.803	905.2
774.985	919.54
775.168	1050.61
775.35	946.16
775.532	970.74
775.715	864.24
775.897	931.83
776.079	950.26
776.261	970.74
776.444	845.81
776.626	868.34
776.808	901.11
776.99	854
777.173	905.2
777.355	833.52
777.537	796.66
777.719	882.67
777.901	796.66
778.083	872.43
778.265	882.67
778.447	829.43
778.629	767.99
778.811	821.24
778.993	804.85
779.175	835.57
779.357	866.29
779.539	765.94
779.721	763.89
779.903	800.76
780.085	681.97
780.267	786.42
780.449	763.89
780.631	755.7
780.812	819.19
780.994	727.03
781.176	694.26
781.358	727.03
781.54	612.34
781.721	731.12
781.903	722.93
782.085	776.18
782.267	641.01
782.448	698.36
782.63	657.4
782.812	679.93
782.993	651.25
783.175	612.34
783.357	692.21
783.538	667.64
783.72	706.55
783.901	679.93
784.083	657.4
784.264	679.93
784.446	563.19
784.627	604.15
784.809	614.39
784.99	655.35
785.172	622.58
785.353	645.11
785.535	606.2
785.716	636.92
785.897	532.47
786.079	559.1
786.26	595.96
786.441	561.14
786.623	606.2
786.804	593.91
786.985	540.66
787.167	444.41
787.348	565.24
787.529	536.57
787.71	567.29
787.891	649.21
788.073	493.56
788.254	509.94
788.435	526.33
788.616	483.32
788.797	526.33
788.978	561.14
789.159	440.31
789.34	544.76
789.522	509.94
789.703	401.4
789.884	505.85
790.065	446.46
790.246	593.91
790.427	434.17
790.607	468.98
790.788	405.5
790.969	491.51
791.15	514.04
791.331	477.18
791.512	524.28
791.693	460.79
791.874	495.61
792.054	438.27
792.235	499.7
792.416	430.07
792.597	438.27
792.778	428.03
792.958	385.02
793.139	452.6
793.32	401.4
793.5	385.02
793.681	448.51
793.862	436.22
794.042	397.31
794.223	430.07
794.404	387.07
794.584	276.48
794.765	434.17
794.945	327.67
795.126	411.64
795.306	452.6
795.487	370.68
795.667	380.92
795.848	366.59
796.028	378.87
796.209	382.97
796.389	485.37
796.57	370.68
796.75	428.03
796.93	417.79
797.111	350.2
797.291	358.39
797.471	339.96
797.652	358.39
797.832	397.31
798.012	268.28
798.192	315.39
798.373	342.01
798.553	319.48
798.733	272.38
798.913	241.66
799.093	325.63
799.274	329.72
799.454	417.79
799.634	395.26
799.814	335.87
799.994	256
800.174	364.54
800.354	409.59
800.534	358.39
800.714	333.82
800.894	202.75
801.074	251.9
801.254	243.71
801.434	270.33
801.614	286.72
801.794	278.52
801.974	704.5
802.154	317.44
802.334	329.72
802.514	282.62
802.693	307.2
802.873	350.2
803.053	360.44
803.233	337.91
803.413	278.52
803.592	270.33
803.772	317.44
803.952	331.77
804.131	288.76
804.311	342.01
804.491	296.96
804.67	229.37
804.85	319.48
805.03	264.19
805.209	303.1
805.389	282.62
805.568	256
805.748	307.2
805.928	192.51
806.107	258.04
806.287	212.99
806.466	253.95
806.646	325.63
806.825	342.01
807.004	282.62
807.184	290.81
807.363	301.05
807.543	256
807.722	206.84
807.901	223.23
808.081	186.37
808.26	233.47
808.439	286.72
808.619	321.53
808.798	202.75
808.977	290.81
809.156	280.57
809.336	237.56
809.515	270.33
809.694	235.52
809.873	212.99
810.052	231.42
810.231	253.95
810.411	139.26
810.59	376.83
810.769	229.37
810.948	227.32
811.127	186.37
811.306	178.17
811.485	249.85
811.664	270.33
811.843	262.14
812.022	233.47
812.201	167.93
812.38	241.66
812.559	151.55
812.737	135.17
812.916	188.41
813.095	221.18
813.274	190.46
813.453	268.28
813.632	235.52
813.811	258.04
813.989	167.93
814.168	278.52
814.347	165.89
814.526	198.65
814.704	180.22
814.883	182.27
815.062	208.89
815.24	135.17
815.419	139.26
815.598	208.89
815.776	231.42
815.955	174.08
816.133	131.07
816.312	200.7
816.49	169.98
816.669	184.32
816.847	212.99
817.026	155.65
817.204	188.41
817.383	141.31
817.561	149.5
817.74	196.6
817.918	215.04
818.097	217.08
818.275	147.45
818.453	233.47
818.632	178.17
818.81	233.47
818.988	106.49
819.167	131.07
819.345	186.37
819.523	155.65
819.701	141.31
819.879	153.6
820.058	153.6
820.236	215.04
820.414	253.95
820.592	186.37
820.77	225.28
820.948	122.88
821.127	206.84
821.305	206.84
821.483	122.88
821.661	100.35
821.839	116.73
822.017	169.98
822.195	151.55
822.373	151.55
822.551	190.46
822.729	188.41
822.907	135.17
823.085	143.36
823.262	163.84
823.44	155.65
823.618	196.6
823.796	147.45
823.974	143.36
824.152	151.55
824.329	151.55
824.507	192.51
824.685	90.11
824.863	94.21
825.04	129.02
825.218	102.4
825.396	182.27
825.574	167.93
825.751	120.83
825.929	276.48
826.107	151.55
826.284	124.93
826.462	102.4
826.639	116.73
826.817	102.4
826.994	186.37
827.172	153.6
827.349	114.69
827.527	161.79
827.704	139.26
827.882	241.66
828.059	167.93
828.237	98.3
828.414	122.88
828.591	145.41
828.769	151.55
828.946	79.87
829.124	34.82
829.301	145.41
829.478	202.75
829.655	151.55
829.833	100.35
830.01	157.69
830.187	131.07
830.364	45.06
830.542	133.12
830.719	106.49
830.896	163.84
831.073	129.02
831.25	67.58
831.427	141.31
831.604	188.41
831.782	184.32
831.959	102.4
832.136	106.49
832.313	118.78
832.49	124.93
832.667	151.55
832.844	112.64
833.021	143.36
833.198	88.06
833.374	53.25
833.551	32.77
833.728	94.21
833.905	129.02
834.082	28.67
834.259	100.35
834.436	61.44
834.612	34.82
834.789	59.39
834.966	147.45
835.143	114.69
835.319	131.07
835.496	104.45
835.673	112.64
835.85	126.97
836.026	120.83
836.203	120.83
836.38	67.58
836.556	155.65
836.733	122.88
836.909	114.69
837.086	51.2
837.262	71.68
837.439	92.16
837.616	59.39
837.792	90.11
837.968	204.8
838.145	92.16
838.321	114.69
838.498	131.07
838.674	40.96
838.851	133.12
839.027	122.88
839.203	75.77
839.38	20.48
839.556	73.73
839.732	43.01
839.909	124.93
840.085	90.11
840.261	79.87
840.437	106.49
840.614	73.73
840.79	94.21
840.966	61.44
841.142	81.92
841.318	51.2
841.494	118.78
841.671	129.02
841.847	67.58
842.023	139.26
842.199	124.93
842.375	53.25
842.551	96.25
842.727	-0
842.903	145.41
843.079	63.49
843.255	98.3
843.431	65.53
843.607	114.69
843.783	-16.38
843.959	129.02
844.134	65.53
844.31	102.4
844.486	83.97
844.662	38.91
844.838	38.91
845.013	108.54
845.189	108.54
845.365	71.68
845.541	36.86
845.716	59.39
845.892	53.25
846.068	14.34
846.244	45.06
846.419	51.2
846.595	65.53
846.77	116.73
846.946	141.31
847.122	94.21
847.297	38.91
847.473	141.31
847.648	92.16
847.824	63.49
847.999	92.16
848.175	131.07
848.35	10.24
848.526	92.16
848.701	126.97
848.876	43.01
849.052	2.05
849.227	65.53
849.403	106.49
849.578	40.96
849.753	49.15
849.929	112.64
850.104	36.86
850.279	53.25
850.454	94.21
850.63	69.63
850.805	43.01
850.98	71.68
851.155	73.73
851.33	55.3
851.505	22.53
851.681	71.68
851.856	20.48
852.031	34.82
852.206	61.44
852.381	94.21
852.556	55.3
852.731	40.96
852.906	-2.05
853.081	75.77
853.256	122.88
853.431	-0
853.606	49.15
853.781	55.3
853.956	-8.19
854.131	104.45
854.305	59.39
854.48	-6.14
854.655	59.39
854.83	12.29
855.005	61.44
855.18	34.82
855.354	77.82
855.529	16.38
855.704	10.24
855.879	92.16
856.053	45.06
856.228	28.67
856.403	32.77
856.577	2.05
856.752	92.16
856.926	106.49
857.101	86.01
857.276	94.21
857.45	38.91
857.625	90.11
857.799	67.58
857.974	32.77
858.148	28.67
858.323	71.68
858.497	14.34
858.672	-16.38
858.846	61.44
859.02	90.11
859.195	20.48
859.369	73.73
859.543	28.67
859.718	34.82
859.892	51.2
860.066	-2.05
860.241	6.14
860.415	20.48
860.589	51.2
860.763	2.05
860.938	45.06
861.112	14.34
861.286	32.77
861.46	28.67
861.634	28.67
861.808	51.2
861.982	53.25
862.157	-2.05
862.331	38.91
862.505	6.14
862.679	-16.38
862.853	133.12
863.027	-12.29
863.201	83.97
863.375	86.01
863.549	69.63
863.722	14.34
863.896	106.49
864.07	45.06
864.244	-12.29
864.418	40.96
864.592	57.34
864.766	40.96
864.939	6.14
865.113	24.58
865.287	79.87
865.461	-6.14
865.634	59.39
865.808	98.3
865.982	73.73
866.156	-2.05
866.329	59.39
866.503	63.49
866.676	49.15
866.85	4.1
867.024	18.43
867.197	65.53
867.371	32.77
867.544	57.34
867.718	79.87
867.891	-8.19
868.065	30.72
868.238	53.25
868.412	45.06
868.585	-28.67
868.759	69.63
868.932	61.44
869.105	-6.14
869.279	-20.48
869.452	-30.72
869.625	4.1
869.799	73.73
869.972	10.24
870.145	34.82
870.319	79.87
870.492	100.35
870.665	81.92
870.838	88.06
871.011	12.29
871.185	-16.38
871.358	12.29
871.531	49.15
871.704	4.1
871.877	-26.62
872.05	-45.06
872.223	90.11
872.396	-8.19
872.569	81.92
872.742	24.58
872.915	14.34
873.088	30.72
873.261	16.38
873.434	53.25
873.607	61.44
873.78	32.77
873.953	8.19
874.126	-4.1
874.299	61.44
874.471	8.19
874.644	30.72
874.817	38.91
874.99	92.16
875.163	-61.44
875.335	59.39
875.508	-26.62
875.681	73.73
875.853	47.1
876.026	43.01
876.199	24.58
876.371	55.3
876.544	32.77
876.717	77.82
876.889	53.25
877.062	53.25
877.234	-12.29
877.407	43.01
877.579	43.01
877.752	61.44
877.924	22.53
878.097	49.15
878.269	14.34
878.442	83.97
878.614	122.88
878.786	-12.29
878.959	2.05
879.131	81.92
879.303	53.25
879.476	2.05
879.648	63.49
879.82	98.3
879.993	10.24
880.165	49.15
880.337	22.53
880.509	40.96
880.681	47.1
880.854	26.62
881.026	43.01
881.198	2.05
881.37	26.62
881.542	24.58
881.714	24.58
881.886	81.92
882.058	47.1
882.23	116.73
882.402	18.43
882.574	65.53
882.746	75.77
882.918	61.44
883.09	-0
883.262	20.48
883.434	-6.14
883.606	26.62
883.778	32.77
883.95	88.06
884.122	51.2
884.293	10.24
884.465	20.48
884.637	55.3
884.809	-4.1
884.98	-6.14
885.152	96.25
885.324	28.67
885.496	49.15
885.667	49.15
885.839	36.86
886.011	81.92
886.182	20.48
886.354	4.1
886.525	57.34
886.697	30.72
886.869	-4.1
887.04	57.34
887.212	-16.38
887.383	69.63
887.555	-30.72
887.726	47.1
887.897	20.48
888.069	73.73
888.24	69.63
888.412	6.14
888.583	-36.86
888.754	61.44
888.926	-47.1
889.097	8.19
889.268	104.45
889.44	20.48
889.611	-20.48
889.782	-59.39
889.953	36.86
890.125	49.15
890.296	53.25
890.467	22.53
890.638	38.91
890.809	32.77
890.98	8.19
891.151	47.1
891.323	18.43
891.494	6.14
891.665	10.24
891.836	40.96
892.007	10.24
892.178	6.14
892.349	51.2
892.52	43.01
892.691	14.34
892.862	-16.38
893.032	-10.24
893.203	-10.24
893.374	-26.62
893.545	40.96
893.716	47.1
893.887	43.01
894.057	-4.1
894.228	28.67
894.399	30.72
894.57	10.24
894.74	-4.1
894.911	-2.05
895.082	14.34
895.253	-20.48
895.423	45.06
895.594	-2.05
895.764	22.53
895.935	14.34
896.106	-55.3
896.276	53.25
896.447	10.24
896.617	24.58
896.788	16.38
896.958	20.48
897.129	71.68
897.299	24.58
897.47	28.67
897.64	59.39
897.81	90.11
897.981	59.39
898.151	-24.58
898.322	83.97
898.492	47.1
898.662	-36.86
898.832	16.38
899.003	14.34
899.173	8.19
899.343	26.62
899.513	16.38
