Data from USB4F104151__44__11-45-04-991.txt Node

Date: Fri Mar 14 11:45:04 EDT 2025
User: louis
Spectrometer: USB4F10415
Trigger mode: 4
Integration Time (sec): 2.000000E-2
Scans to average: 1
Electric dark correction enabled: true
Nonlinearity correction enabled: false
Boxcar width: 0
XAxis mode: Wavelengths
Number of Pixels in Spectrum: 3648
>>>>>Begin Spectral Data<<<<<
178.204	-61.1
178.424	-61.1
178.644	-61.1
178.864	-57
179.084	-93.87
179.304	-7.85
179.524	-28.33
179.744	20.82
179.964	55.64
180.184	-38.57
180.404	-65.19
180.624	39.25
180.844	2.39
181.064	4.44
181.283	31.06
181.503	-69.29
181.723	55.64
181.943	53.59
182.163	115.03
182.383	20.82
182.602	-42.67
182.822	37.2
183.042	-18.09
183.262	45.4
183.482	-34.47
183.701	8.53
183.921	57.68
184.141	10.58
184.361	22.87
184.58	-5.8
184.8	4.44
185.02	20.82
185.239	65.88
185.459	29.01
185.679	47.44
185.898	41.3
186.118	-42.67
186.338	6.49
186.557	26.96
186.777	-24.23
186.997	29.01
187.216	-38.57
187.436	80.21
187.655	-34.47
187.875	22.87
188.095	-22.19
188.314	-3.75
188.534	110.93
188.753	20.82
188.973	29.01
189.192	37.2
189.412	2.39
189.631	55.64
189.851	49.49
190.07	35.16
190.29	22.87
190.509	4.44
190.729	96.6
190.948	24.92
191.168	63.83
191.387	49.49
191.607	-28.33
191.826	12.63
192.045	-5.8
192.265	6.49
192.484	-20.14
192.704	10.58
192.923	31.06
193.142	61.78
193.362	104.79
193.581	92.5
193.8	78.16
194.02	102.74
194.239	-44.71
194.458	20.82
194.678	-3.75
194.897	2.39
195.116	-44.71
195.335	37.2
195.555	29.01
195.774	-5.8
195.993	35.16
196.212	45.4
196.432	-3.75
196.651	102.74
196.87	26.96
197.089	86.36
197.308	-18.09
197.528	63.83
197.747	37.2
197.966	2.39
198.185	-28.33
198.404	-48.81
198.623	76.12
198.842	22.87
199.062	92.5
199.281	37.2
199.5	61.78
199.719	2.39
199.938	24.92
200.157	-24.23
200.376	106.84
200.595	47.44
200.814	-26.28
201.033	26.96
201.252	51.54
201.471	-59.05
201.69	-3.75
201.909	-22.19
202.128	69.97
202.347	72.02
202.566	88.4
202.785	14.68
203.004	-5.8
203.223	55.64
203.442	2.39
203.661	-7.85
203.879	29.01
204.098	67.92
204.317	51.54
204.536	-65.19
204.755	8.53
204.974	33.11
205.193	-13.99
205.411	119.12
205.63	-22.19
205.849	57.68
206.068	-61.1
206.287	86.36
206.505	88.4
206.724	31.06
206.943	33.11
207.162	63.83
207.381	33.11
207.599	49.49
207.818	18.77
208.037	4.44
208.255	-7.85
208.474	35.16
208.693	53.59
208.911	-3.75
209.13	26.96
209.349	-46.76
209.567	53.59
209.786	43.35
210.005	51.54
210.223	69.97
210.442	-81.58
210.661	-20.14
210.879	41.3
211.098	31.06
211.316	14.68
211.535	26.96
211.753	29.01
211.972	18.77
212.191	-28.33
212.409	4.44
212.628	45.4
212.846	69.97
213.065	41.3
213.283	112.98
213.502	-18.09
213.72	155.99
213.938	55.64
214.157	4.44
214.375	35.16
214.594	53.59
214.812	8.53
215.031	67.92
215.249	-67.24
215.467	-3.75
215.686	-5.8
215.904	115.03
216.122	-3.75
216.341	12.63
216.559	10.58
216.778	35.16
216.996	33.11
217.214	-28.33
217.432	10.58
217.651	4.44
217.869	16.73
218.087	35.16
218.306	26.96
218.524	80.21
218.742	0.34
218.96	43.35
219.179	-28.33
219.397	-22.19
219.615	125.27
219.833	55.64
220.051	39.25
220.27	24.92
220.488	55.64
220.706	-40.62
220.924	117.08
221.142	41.3
221.36	26.96
221.578	-5.8
221.796	8.53
222.015	-1.71
222.233	-11.95
222.451	53.59
222.669	39.25
222.887	82.26
223.105	53.59
223.323	59.73
223.541	-85.67
223.759	31.06
223.977	-38.57
224.195	16.73
224.413	51.54
224.631	41.3
224.849	-11.95
225.067	47.44
225.285	10.58
225.503	24.92
225.721	-40.62
225.939	0.34
226.157	-13.99
226.375	135.51
226.592	10.58
226.81	20.82
227.028	26.96
227.246	67.92
227.464	-20.14
227.682	24.92
227.9	26.96
228.117	10.58
228.335	-24.23
228.553	24.92
228.771	-1.71
228.989	90.45
229.206	6.49
229.424	-26.28
229.642	82.26
229.86	24.92
230.077	0.34
230.295	33.11
230.513	14.68
230.731	41.3
230.948	41.3
231.166	125.27
231.384	18.77
231.601	-3.75
231.819	61.78
232.037	65.88
232.254	-30.38
232.472	80.21
232.689	57.68
232.907	20.82
233.125	0.34
233.342	-5.8
233.56	-1.71
233.777	63.83
233.995	26.96
234.213	37.2
234.43	53.59
234.648	-38.57
234.865	29.01
235.083	-18.09
235.3	-3.75
235.518	22.87
235.735	4.44
235.953	53.59
236.17	-42.67
236.388	-16.04
236.605	78.16
236.822	16.73
237.04	57.68
237.257	49.49
237.475	35.16
237.692	20.82
237.909	57.68
238.127	63.83
238.344	63.83
238.562	37.2
238.779	4.44
238.996	35.16
239.214	59.73
239.431	-67.24
239.648	33.11
239.865	80.21
240.083	74.07
240.3	31.06
240.517	4.44
240.735	20.82
240.952	29.01
241.169	-7.85
241.386	98.64
241.603	-34.47
241.821	-9.9
242.038	29.01
242.255	51.54
242.472	12.63
242.689	8.53
242.907	72.02
243.124	-69.29
243.341	53.59
243.558	108.88
243.775	33.11
243.992	31.06
244.209	16.73
244.426	14.68
244.643	-11.95
244.86	6.49
245.078	-11.95
245.295	51.54
245.512	16.73
245.729	51.54
245.946	-11.95
246.163	0.34
246.38	-44.71
246.597	43.35
246.814	-38.57
247.031	39.25
247.248	-7.85
247.464	39.25
247.681	45.4
247.898	57.68
248.115	6.49
248.332	-5.8
248.549	63.83
248.766	33.11
248.983	35.16
249.2	-71.34
249.417	53.59
249.633	14.68
249.85	84.31
250.067	0.34
250.284	-24.23
250.501	-3.75
250.717	78.16
250.934	76.12
251.151	100.69
251.368	31.06
251.585	39.25
251.801	-38.57
252.018	12.63
252.235	-20.14
252.451	-16.04
252.668	47.44
252.885	20.82
253.102	-40.62
253.318	59.73
253.535	-30.38
253.752	61.78
253.968	63.83
254.185	16.73
254.401	26.96
254.618	45.4
254.835	-38.57
255.051	67.92
255.268	-22.19
255.484	43.35
255.701	-67.24
255.917	43.35
256.134	8.53
256.351	61.78
256.567	-20.14
256.784	35.16
257	29.01
257.217	26.96
257.433	82.26
257.65	2.39
257.866	4.44
258.082	24.92
258.299	51.54
258.515	53.59
258.732	12.63
258.948	-36.52
259.165	39.25
259.381	-26.28
259.597	57.68
259.814	22.87
260.03	51.54
260.246	53.59
260.463	102.74
260.679	80.21
260.895	10.58
261.112	-36.52
261.328	-46.76
261.544	14.68
261.761	102.74
261.977	-11.95
262.193	41.3
262.409	63.83
262.626	94.55
262.842	94.55
263.058	33.11
263.274	94.55
263.49	-26.28
263.707	49.49
263.923	20.82
264.139	-44.71
264.355	33.11
264.571	47.44
264.787	61.78
265.004	-26.28
265.22	65.88
265.436	6.49
265.652	16.73
265.868	12.63
266.084	-3.75
266.3	80.21
266.516	47.44
266.732	110.93
266.948	-18.09
267.164	37.2
267.38	-1.71
267.596	29.01
267.812	0.34
268.028	14.68
268.244	18.77
268.46	29.01
268.676	-61.1
268.892	39.25
269.108	-52.91
269.324	0.34
269.54	-63.15
269.756	39.25
269.972	-46.76
270.188	39.25
270.403	29.01
270.619	10.58
270.835	22.87
271.051	16.73
271.267	4.44
271.483	-5.8
271.698	16.73
271.914	35.16
272.13	14.68
272.346	39.25
272.562	86.36
272.777	41.3
272.993	-24.23
273.209	53.59
273.425	57.68
273.64	-30.38
273.856	55.64
274.072	45.4
274.287	-36.52
274.503	43.35
274.719	84.31
274.934	53.59
275.15	-16.04
275.366	8.53
275.581	24.92
275.797	-20.14
276.012	-112.3
276.228	-57
276.444	2.39
276.659	12.63
276.875	4.44
277.09	-20.14
277.306	14.68
277.521	26.96
277.737	2.39
277.952	22.87
278.168	12.63
278.383	49.49
278.599	67.92
278.814	74.07
279.03	47.44
279.245	137.56
279.461	39.25
279.676	-38.57
279.892	-11.95
280.107	-24.23
280.322	29.01
280.538	69.97
280.753	10.58
280.969	39.25
281.184	6.49
281.399	6.49
281.615	29.01
281.83	55.64
282.045	-40.62
282.26	57.68
282.476	37.2
282.691	26.96
282.906	-40.62
283.122	-18.09
283.337	14.68
283.552	4.44
283.767	-32.43
283.983	-13.99
284.198	65.88
284.413	35.16
284.628	12.63
284.843	121.17
285.058	67.92
285.274	6.49
285.489	-36.52
285.704	90.45
285.919	37.2
286.134	-9.9
286.349	43.35
286.564	-13.99
286.779	74.07
286.995	-3.75
287.21	-52.91
287.425	18.77
287.64	16.73
287.855	57.68
288.07	-28.33
288.285	86.36
288.5	16.73
288.715	-3.75
288.93	53.59
289.145	4.44
289.36	29.01
289.575	47.44
289.79	2.39
290.004	-11.95
290.219	51.54
290.434	-3.75
290.649	-42.67
290.864	31.06
291.079	12.63
291.294	65.88
291.509	35.16
291.724	47.44
291.938	78.16
292.153	2.39
292.368	47.44
292.583	49.49
292.798	51.54
293.012	69.97
293.227	0.34
293.442	-34.47
293.657	90.45
293.871	4.44
294.086	18.77
294.301	61.78
294.516	41.3
294.73	49.49
294.945	-7.85
295.16	8.53
295.374	16.73
295.589	-28.33
295.804	39.25
296.018	43.35
296.233	47.44
296.447	33.11
296.662	74.07
296.877	55.64
297.091	57.68
297.306	16.73
297.52	-48.81
297.735	-34.47
297.949	39.25
298.164	-1.71
298.378	10.58
298.593	14.68
298.807	69.97
299.022	16.73
299.236	0.34
299.451	49.49
299.665	65.88
299.88	61.78
300.094	33.11
300.309	67.92
300.523	78.16
300.737	76.12
300.952	2.39
301.166	35.16
301.381	-32.43
301.595	0.34
301.809	14.68
302.024	59.73
302.238	24.92
302.452	119.12
302.667	10.58
302.881	104.79
303.095	37.2
303.309	4.44
303.524	-40.62
303.738	67.92
303.952	-3.75
304.166	14.68
304.381	24.92
304.595	123.22
304.809	20.82
305.023	65.88
305.237	29.01
305.452	18.77
305.666	82.26
305.88	0.34
306.094	-11.95
306.308	8.53
306.522	108.88
306.736	53.59
306.95	0.34
307.164	102.74
307.379	39.25
307.593	82.26
307.807	98.64
308.021	49.49
308.235	47.44
308.449	-9.9
308.663	67.92
308.877	121.17
309.091	29.01
309.305	82.26
309.519	29.01
309.733	65.88
309.947	4.44
310.161	72.02
310.374	65.88
310.588	37.2
310.802	-26.28
311.016	24.92
311.23	6.49
311.444	88.4
311.658	-46.76
311.872	51.54
312.085	90.45
312.299	-52.91
312.513	72.02
312.727	69.97
312.941	8.53
313.154	-20.14
313.368	43.35
313.582	12.63
313.796	96.6
314.009	84.31
314.223	20.82
314.437	14.68
314.651	45.4
314.864	8.53
315.078	65.88
315.292	51.54
315.505	-63.15
315.719	82.26
315.933	-11.95
316.146	35.16
316.36	16.73
316.573	16.73
316.787	82.26
317.001	0.34
317.214	117.08
317.428	29.01
317.641	2.39
317.855	26.96
318.068	6.49
318.282	47.44
318.495	47.44
318.709	29.01
318.922	69.97
319.136	82.26
319.349	16.73
319.563	-50.86
319.776	33.11
319.99	-46.76
320.203	45.4
320.417	69.97
320.63	78.16
320.843	76.12
321.057	6.49
321.27	-18.09
321.483	82.26
321.697	84.31
321.91	22.87
322.124	26.96
322.337	-5.8
322.55	12.63
322.763	-3.75
322.977	51.54
323.19	6.49
323.403	-22.19
323.617	61.78
323.83	-16.04
324.043	8.53
324.256	-48.81
324.469	0.34
324.683	78.16
324.896	106.84
325.109	80.21
325.322	4.44
325.535	0.34
325.748	22.87
325.962	37.2
326.175	43.35
326.388	31.06
326.601	76.12
326.814	18.77
327.027	39.25
327.24	2.39
327.453	-44.71
327.666	26.96
327.879	2.39
328.092	39.25
328.305	41.3
328.518	-16.04
328.731	12.63
328.944	20.82
329.157	55.64
329.37	-5.8
329.583	41.3
329.796	6.49
330.009	43.35
330.222	24.92
330.435	37.2
330.648	26.96
330.861	35.16
331.073	72.02
331.286	63.83
331.499	123.22
331.712	2.39
331.925	88.4
332.138	-11.95
332.35	112.98
332.563	57.68
332.776	80.21
332.989	43.35
333.202	80.21
333.414	-20.14
333.627	76.12
333.84	20.82
334.053	-3.75
334.265	22.87
334.478	-22.19
334.691	4.44
334.903	4.44
335.116	-44.71
335.329	-16.04
335.541	100.69
335.754	80.21
335.966	47.44
336.179	14.68
336.392	92.5
336.604	16.73
336.817	-7.85
337.029	80.21
337.242	-9.9
337.454	41.3
337.667	129.36
337.88	31.06
338.092	49.49
338.305	106.84
338.517	24.92
338.729	72.02
338.942	86.36
339.154	26.96
339.367	0.34
339.579	33.11
339.792	59.73
340.004	47.44
340.217	-7.85
340.429	16.73
340.641	0.34
340.854	86.36
341.066	31.06
341.278	47.44
341.491	129.36
341.703	69.97
341.915	6.49
342.128	117.08
342.34	55.64
342.552	57.68
342.764	-20.14
342.977	55.64
343.189	35.16
343.401	43.35
343.613	33.11
343.826	63.83
344.038	-7.85
344.25	110.93
344.462	-42.67
344.674	74.07
344.886	12.63
345.099	59.73
345.311	88.4
345.523	80.21
345.735	74.07
345.947	14.68
346.159	39.25
346.371	49.49
346.583	45.4
346.795	131.41
347.007	37.2
347.219	121.17
347.431	55.64
347.643	29.01
347.855	51.54
348.067	90.45
348.279	8.53
348.491	43.35
348.703	129.36
348.915	-7.85
349.127	29.01
349.339	2.39
349.551	22.87
349.763	35.16
349.975	80.21
350.187	37.2
350.399	2.39
350.61	131.41
350.822	-3.75
351.034	22.87
351.246	74.07
351.458	35.16
351.669	-3.75
351.881	2.39
352.093	82.26
352.305	110.93
352.517	49.49
352.728	45.4
352.94	-28.33
353.152	55.64
353.363	20.82
353.575	59.73
353.787	98.64
353.999	41.3
354.21	88.4
354.422	45.4
354.633	92.5
354.845	16.73
355.057	-11.95
355.268	90.45
355.48	55.64
355.692	35.16
355.903	53.59
356.115	16.73
356.326	14.68
356.538	115.03
356.749	78.16
356.961	49.49
357.172	2.39
357.384	24.92
357.595	76.12
357.807	10.58
358.018	65.88
358.23	-3.75
358.441	53.59
358.653	22.87
358.864	-11.95
359.075	35.16
359.287	16.73
359.498	57.68
359.709	59.73
359.921	86.36
360.132	10.58
360.344	55.64
360.555	45.4
360.766	102.74
360.977	29.01
361.189	108.88
361.4	8.53
361.611	33.11
361.823	78.16
362.034	47.44
362.245	29.01
362.456	47.44
362.667	33.11
362.879	31.06
363.09	45.4
363.301	41.3
363.512	-16.04
363.723	51.54
363.935	98.64
364.146	90.45
364.357	37.2
364.568	8.53
364.779	29.01
364.99	39.25
365.201	59.73
365.412	125.27
365.623	49.49
365.834	90.45
366.045	96.6
366.256	22.87
366.467	80.21
366.678	137.56
366.889	82.26
367.1	96.6
367.311	47.44
367.522	33.11
367.733	55.64
367.944	72.02
368.155	33.11
368.366	78.16
368.577	35.16
368.788	14.68
368.999	61.78
369.209	69.97
369.42	86.36
369.631	78.16
369.842	86.36
370.053	-26.28
370.264	0.34
370.474	49.49
370.685	43.35
370.896	49.49
371.107	78.16
371.317	84.31
371.528	39.25
371.739	37.2
371.95	-13.99
372.16	55.64
372.371	104.79
372.582	-3.75
372.792	43.35
373.003	4.44
373.214	-71.34
373.424	6.49
373.635	84.31
373.846	90.45
374.056	20.82
374.267	51.54
374.477	4.44
374.688	-28.33
374.898	84.31
375.109	47.44
375.319	39.25
375.53	100.69
375.74	53.59
375.951	45.4
376.161	33.11
376.372	72.02
376.582	84.31
376.793	49.49
377.003	39.25
377.214	35.16
377.424	192.85
377.635	45.4
377.845	-7.85
378.055	26.96
378.266	24.92
378.476	4.44
378.686	94.55
378.897	43.35
379.107	102.74
379.317	65.88
379.528	37.2
379.738	78.16
379.948	51.54
380.158	43.35
380.369	100.69
380.579	86.36
380.789	31.06
380.999	24.92
381.21	90.45
381.42	29.01
381.63	55.64
381.84	190.8
382.05	-16.04
382.261	55.64
382.471	65.88
382.681	57.68
382.891	65.88
383.101	53.59
383.311	63.83
383.521	49.49
383.731	59.73
383.941	112.98
384.151	74.07
384.361	115.03
384.571	86.36
384.781	24.92
384.991	117.08
385.201	141.65
385.411	-3.75
385.621	41.3
385.831	100.69
386.041	119.12
386.251	33.11
386.461	35.16
386.671	12.63
386.881	26.96
387.091	188.75
387.301	39.25
387.511	90.45
387.72	90.45
387.93	-40.62
388.14	61.78
388.35	63.83
388.56	51.54
388.769	72.02
388.979	100.69
389.189	84.31
389.399	35.16
389.609	47.44
389.818	94.55
390.028	26.96
390.238	131.41
390.447	22.87
390.657	88.4
390.867	8.53
391.076	35.16
391.286	8.53
391.496	49.49
391.705	43.35
391.915	100.69
392.125	57.68
392.334	104.79
392.544	131.41
392.753	49.49
392.963	143.7
393.172	127.32
393.382	-11.95
393.591	123.22
393.801	106.84
394.01	112.98
394.22	151.89
394.429	90.45
394.639	53.59
394.848	117.08
395.058	20.82
395.267	63.83
395.477	49.49
395.686	123.22
395.895	74.07
396.105	76.12
396.314	49.49
396.524	72.02
396.733	65.88
396.942	119.12
397.152	78.16
397.361	78.16
397.57	131.41
397.78	110.93
397.989	133.46
398.198	149.84
398.407	84.31
398.617	100.69
398.826	123.22
399.035	139.6
399.244	63.83
399.453	168.27
399.663	186.71
399.872	112.98
400.081	115.03
400.29	76.12
400.499	74.07
400.708	104.79
400.917	88.4
401.127	102.74
401.336	121.17
401.545	84.31
401.754	215.38
401.963	108.88
402.172	94.55
402.381	108.88
402.59	166.23
402.799	119.12
403.008	147.8
403.217	94.55
403.426	117.08
403.635	135.51
403.844	123.22
404.053	123.22
404.262	125.27
404.471	115.03
404.68	190.8
404.888	180.56
405.097	117.08
405.306	108.88
405.515	285.01
405.724	164.18
405.933	192.85
406.142	205.14
406.35	235.86
406.559	227.67
406.768	174.42
406.977	182.61
407.185	188.75
407.394	256.34
407.603	151.89
407.812	297.3
408.02	307.54
408.229	266.58
408.438	311.63
408.646	258.39
408.855	244.05
409.064	317.78
409.272	244.05
409.481	340.3
409.69	231.76
409.898	352.59
410.107	358.74
410.315	313.68
410.524	295.25
410.733	416.08
410.941	309.58
411.15	348.5
411.358	450.89
411.567	487.76
411.775	450.89
411.984	502.09
412.192	416.08
412.401	463.18
412.609	575.82
412.818	526.67
413.026	600.4
413.234	629.07
413.443	534.86
413.651	608.59
413.86	627.02
414.068	606.54
414.276	706.89
414.485	680.27
414.693	680.27
414.901	743.75
415.11	764.23
415.318	880.97
415.526	786.76
415.734	866.63
415.943	891.21
416.151	887.11
416.359	868.68
416.567	958.79
416.776	944.45
416.984	991.56
417.192	1059.14
417.4	1024.33
417.608	1089.86
417.817	1136.96
418.025	1159.49
418.233	1255.75
418.441	1169.73
418.649	1243.46
418.857	1407.3
419.065	1413.44
419.273	1368.38
419.481	1581.37
419.689	1507.65
419.897	1612.09
420.105	1745.21
420.313	1626.43
420.521	1829.18
420.729	1759.55
420.937	1835.32
421.145	2062.65
421.353	2126.13
421.561	2097.46
421.769	2097.46
421.977	2357.55
422.185	2228.53
422.393	2351.41
422.601	2507.06
422.809	2527.53
423.017	2466.1
423.224	2605.36
423.432	2769.2
423.64	2736.43
423.848	2978.09
424.056	2924.84
424.263	3150.12
424.471	3176.74
424.679	3211.56
424.887	3387.68
425.094	3633.44
425.302	3453.22
425.51	3670.3
425.718	3850.52
425.925	3731.74
426.133	3977.5
426.341	4051.22
426.548	4399.38
426.756	4221.2
426.964	4405.52
427.171	4649.23
427.379	4847.88
427.586	4880.65
427.794	4913.42
428.001	5232.9
428.209	5472.51
428.417	5310.72
428.624	5689.6
428.832	5552.38
429.039	5812.48
429.247	5744.89
429.454	6324.47
429.662	6717.68
429.869	6125.82
430.076	6611.18
430.284	6482.16
430.491	6646
430.699	7227.62
430.906	7178.47
431.114	7196.9
431.321	7454.95
431.528	7768.29
431.736	8249.56
431.943	8329.43
432.15	8057.05
432.358	8300.76
432.565	8861.9
432.772	8736.98
432.979	9132.23
433.187	9541.83
433.394	9509.06
433.601	10031.29
433.808	10160.31
434.016	10285.24
434.223	10508.47
434.43	11405.48
434.637	10727.6
434.844	11843.74
435.052	11915.42
435.259	11645.09
435.466	11851.94
435.673	11765.92
435.88	12451.99
436.087	13363.34
436.294	13191.31
436.501	12959.89
436.708	13363.34
436.915	13699.2
437.122	14133.37
437.329	14000.26
437.537	14684.28
437.743	15005.81
437.95	14725.24
438.157	15542.38
438.364	16062.56
438.571	16195.68
438.778	16289.88
438.985	17471.56
439.192	16752.73
439.399	17582.15
439.606	16998.48
439.813	18044.99
440.02	19253.3
440.227	18616.38
440.433	18581.56
440.64	19224.62
440.847	19128.37
441.054	19454
441.261	21063.7
441.467	20432.93
441.674	20885.53
441.881	21813.26
442.088	21651.47
442.294	21594.12
442.501	21954.57
442.708	22577.15
442.914	23449.58
443.121	24145.89
443.328	23957.48
443.534	25227.22
443.741	24612.83
443.948	24236
444.154	26210.25
444.361	26124.23
444.568	26216.39
444.774	26202.05
444.981	26556.35
445.187	27097.02
445.394	28176.3
445.6	28069.8
445.807	30670.72
446.013	29570.96
446.22	30109.58
446.426	31369.08
446.633	31453.05
446.839	32477.03
447.046	31092.6
447.252	32841.57
447.459	32577.38
447.665	32718.69
447.871	34287.43
448.078	35718.96
448.284	33888.08
448.491	34985.79
448.697	36341.55
448.903	37015.33
449.11	36865.83
449.316	36159.28
449.522	36960.03
449.728	37975.83
449.935	38305.55
450.141	38375.18
450.347	39034.63
450.553	38041.36
450.76	38592.26
450.966	39919.35
451.172	38926.08
451.378	40097.52
451.584	39538.43
451.791	40183.54
451.997	40472.3
452.203	40838.89
452.409	40683.24
452.615	40742.63
452.821	39208.7
453.027	38905.6
453.233	40842.98
453.44	39372.54
453.646	39825.14
453.852	39718.65
454.058	40392.43
454.264	39053.06
454.47	39857.91
454.676	38897.41
454.882	40347.37
455.088	37125.92
455.294	37666.58
455.5	38596.36
455.705	38207.25
455.911	36951.84
456.117	36335.4
456.323	35761.97
456.529	34158.41
456.735	35667.77
456.941	34522.95
457.147	34158.41
457.352	32624.48
457.558	32673.63
457.764	32790.37
457.97	32114.54
458.176	31299.45
458.381	31356.79
458.587	29816.72
458.793	29898.64
458.999	28512.16
459.204	30386.05
459.41	29306.77
459.616	27602.86
459.821	27568.05
460.027	27340.72
460.233	26920.89
460.438	25427.92
460.644	26181.57
460.85	24684.51
461.055	24248.29
461.261	24315.87
461.466	22398.98
461.672	21870.6
461.878	23261.17
462.083	21768.2
462.289	21565.45
462.494	21008.4
462.7	20336.67
462.905	19888.17
463.111	20273.18
463.316	20539.42
463.522	20170.79
463.727	19646.51
463.932	19906.6
464.138	19623.98
464.343	20121.63
464.549	19347.5
464.754	19884.07
464.959	19654.7
465.165	19558.44
465.37	18849.85
465.575	18294.85
465.781	18956.34
465.986	18870.33
466.191	18364.48
466.397	18094.15
466.602	16955.47
466.807	17789
467.012	17952.84
467.218	17543.24
467.423	17453.13
467.628	17510.47
467.833	18374.72
468.038	17451.08
468.244	17184.85
468.449	17832.01
468.654	17326.16
468.859	16846.93
469.064	17172.56
469.269	16095.33
469.474	16463.96
469.679	16736.34
469.885	16152.67
470.09	16556.12
470.295	16293.98
470.5	15974.5
470.705	16091.23
470.91	15509.61
471.115	15519.85
471.32	15941.73
471.525	15777.89
471.73	15302.76
471.935	15480.94
472.139	14735.48
472.344	15229.04
472.549	14878.83
472.754	14725.24
472.959	14393.47
473.164	13930.62
473.369	14041.22
473.574	14628.98
473.778	14268.54
473.983	14227.58
474.188	14063.74
474.393	13441.16
474.598	13312.14
474.802	13482.12
475.007	13136.01
475.212	13162.64
475.417	12857.49
475.621	12794
475.826	12978.32
476.031	12847.25
476.235	12183.71
476.44	12802.19
476.645	12239
476.849	12527.77
477.054	12222.62
477.259	12140.7
477.463	12011.68
477.668	11698.34
477.872	11972.77
478.077	11565.22
478.282	11141.29
478.486	11325.61
478.691	11335.85
478.895	11045.04
479.1	11255.98
479.304	11172.01
479.509	10795.18
479.713	11092.14
479.918	10641.59
480.122	10586.29
480.326	10637.49
480.531	10692.79
480.735	10637.49
480.94	10449.08
481.144	10754.23
481.348	10406.07
481.553	10395.83
481.757	10150.07
481.961	10377.4
482.166	10555.57
482.37	10272.95
482.574	10250.42
482.778	10250.42
482.983	10483.89
483.187	10326.2
483.391	10361.02
483.595	10055.87
483.8	10201.27
484.004	10178.75
484.208	10238.14
484.412	10428.6
484.616	10244.28
484.821	10356.92
485.025	10164.41
485.229	10338.49
485.433	10197.18
485.637	10399.93
485.841	10287.29
486.045	10162.36
486.249	10141.88
486.453	10137.79
486.657	10361.02
486.861	10268.86
487.065	10182.84
487.269	10090.68
487.473	10019
487.677	10172.6
487.881	10492.09
488.085	9941.18
488.289	10109.12
488.493	10324.15
488.697	10387.64
488.901	10244.28
489.105	10240.19
489.309	10252.47
489.512	10424.5
489.716	10424.5
489.92	10481.85
490.124	10303.67
490.328	10541.24
490.531	10453.17
490.735	10459.32
490.939	10617.01
491.143	10287.29
491.346	10481.85
491.55	10524.85
491.754	10715.31
491.958	10680.5
492.161	10637.49
492.365	10682.55
492.569	10832.05
492.772	10801.33
492.976	10813.62
493.18	11114.67
493.383	11106.48
493.587	11047.08
493.79	11313.32
493.994	11165.87
494.197	11215.02
494.401	11215.02
494.605	11200.68
494.808	11518.12
495.012	11487.4
495.215	11634.85
495.419	11571.36
495.622	11366.57
495.825	11839.65
496.029	11849.89
496.232	12103.84
496.436	11987.1
496.639	12308.63
496.843	12175.52
497.046	12542.1
497.249	12685.46
497.453	12411.03
497.656	12689.56
497.859	12916.88
498.063	12898.45
498.266	12955.79
498.469	13510.79
498.673	13295.75
498.876	13328.52
499.079	13676.68
499.282	13668.48
499.485	13930.62
499.689	13860.99
499.892	14213.24
500.095	14237.82
500.298	14692.47
500.501	14483.58
500.705	14700.66
500.908	14868.59
501.111	14852.21
501.314	15143.02
501.517	15382.63
501.72	15642.73
501.923	15644.77
502.126	15939.68
502.329	16273.5
502.532	16136.29
502.735	16144.48
502.938	16676.95
503.141	16908.37
503.344	16949.33
503.547	17014.87
503.75	17266.77
503.953	17528.91
504.156	17664.07
504.359	17920.07
504.562	17735.75
504.765	18483.26
504.968	18362.43
505.17	18542.65
505.373	18796.6
505.576	18980.92
505.779	19118.13
505.982	19161.14
506.185	19914.79
506.387	19726.38
506.59	20002.85
506.793	20332.58
506.996	20170.79
507.198	20621.34
507.401	20514.84
507.604	20830.23
507.807	21241.87
508.009	21469.2
508.212	21346.32
508.415	21831.69
508.617	22368.26
508.82	22157.32
509.022	22089.73
509.225	22712.31
509.428	22939.64
509.63	22980.6
509.833	23351.28
510.035	23617.52
510.238	23384.05
510.44	23836.65
510.643	24381.41
510.845	24264.68
511.048	24272.87
511.25	24612.83
511.453	24758.24
511.655	25845.71
511.858	25618.38
512.06	25681.87
512.262	26015.69
512.465	25819.08
512.667	26079.18
512.87	26759.1
513.072	26615.74
513.274	27023.29
513.477	27244.47
513.679	27355.06
513.881	27537.33
514.084	28073.9
514.286	28266.41
514.488	28604.32
514.69	29290.39
514.893	29013.91
515.095	28854.17
515.297	29493.14
515.499	29536.15
515.701	30117.77
515.904	30506.88
516.106	30365.57
516.308	30599.04
516.51	31336.31
516.712	31016.83
516.914	31313.78
517.116	32028.52
517.318	32036.72
517.52	32620.39
517.722	32067.44
517.925	32266.09
518.127	33060.7
518.329	33550.17
518.531	33120.09
518.733	33638.23
518.935	34019.15
519.136	33896.27
519.338	34520.9
519.54	34461.51
519.742	35075.9
519.944	34981.7
520.146	35923.76
520.348	35551.03
520.55	35899.19
520.752	36245.29
520.954	36775.72
521.155	36267.82
521.357	37179.17
521.559	36882.21
521.761	37830.42
521.963	37721.88
522.164	38000.4
522.366	37869.33
522.568	38442.76
522.77	38518.54
522.971	39149.31
523.173	38606.6
523.375	38944.52
523.576	39345.92
523.778	39528.19
523.98	40007.41
524.181	40220.4
524.383	40103.67
524.584	40421.1
524.786	40488.68
524.988	40423.15
525.189	40603.37
525.391	41158.37
525.592	41361.12
525.794	41633.5
525.995	41514.72
526.197	41922.26
526.398	41914.07
526.6	42411.73
526.801	42677.96
527.003	42104.53
527.204	42346.19
527.406	42813.13
527.607	42864.33
527.808	42942.15
528.01	42708.68
528.211	42903.24
528.412	43755.19
528.614	43259.59
528.815	43378.37
529.016	43984.57
529.218	43640.51
529.419	44062.39
529.62	43804.34
529.822	43534.01
530.023	43394.75
530.224	44037.81
530.425	44172.98
530.626	44256.95
530.828	43697.85
531.029	44873.38
531.23	43935.41
531.431	44263.09
531.632	44283.57
531.833	44299.95
532.035	44607.15
532.236	44564.14
532.437	45057.7
532.638	44988.07
532.839	45110.95
533.04	44883.62
533.241	44611.24
533.442	45457.06
533.643	44965.54
533.844	44844.71
534.045	45344.42
534.246	44500.65
534.447	45403.81
534.648	44875.43
534.849	45074.09
535.05	44609.2
535.251	44850.86
535.451	44920.49
535.652	45182.63
535.853	44947.11
536.054	45577.89
536.255	45751.96
536.456	44734.12
536.657	45721.24
536.857	44910.25
537.058	44859.05
537.259	45231.78
537.46	45233.83
537.66	44883.62
537.861	45377.18
538.062	44998.31
538.263	45315.75
538.463	45139.62
538.664	44709.55
538.865	44971.69
539.065	45336.23
539.266	44730.03
539.466	45225.64
539.667	44607.15
539.868	45194.92
540.068	44902.06
540.269	44951.21
540.469	45364.9
540.67	44727.98
540.87	44955.3
541.071	44936.87
541.271	45178.53
541.472	45160.1
541.672	44697.26
541.873	44480.17
542.073	44373.68
542.274	45151.91
542.474	44547.76
542.675	44936.87
542.875	45059.75
543.075	44263.09
543.276	44433.07
543.476	44930.73
543.676	44607.15
543.877	45008.55
544.077	44388.02
544.277	44449.46
544.478	44394.16
544.678	45035.17
544.878	44859.05
545.078	44791.47
545.279	44218.03
545.479	44240.56
545.679	44431.02
545.879	44560.05
546.079	44664.49
546.28	44535.47
546.48	44271.28
546.68	44652.2
546.88	44445.36
547.08	44715.69
547.28	44506.8
547.48	43728.57
547.68	44615.34
547.88	44248.75
548.081	44850.86
548.281	44519.09
548.481	44238.51
548.681	44584.62
548.881	44611.24
549.081	44617.39
549.28	44093.11
549.48	44539.57
549.68	44443.31
549.88	44994.21
550.08	44428.98
550.28	44504.75
550.48	44048.05
550.68	44674.73
550.88	44005.05
551.08	44396.21
551.279	44404.4
551.479	43945.65
551.679	44105.4
551.879	44140.21
552.079	44046.01
552.278	43990.71
552.478	44066.48
552.678	44050.1
552.878	44826.28
553.077	44121.78
553.277	43833.02
553.477	44312.24
553.676	43939.51
553.876	43894.46
554.076	43562.68
554.275	43865.78
554.475	43747
554.674	43841.21
554.874	44138.16
555.074	43785.91
555.273	43861.69
555.473	43957.94
555.672	43577.02
555.872	43820.73
556.071	43687.61
556.271	43859.64
556.47	43400.9
556.67	43376.32
556.869	43335.36
557.068	43345.6
557.268	43060.93
557.467	43067.08
557.667	43062.98
557.866	43407.04
558.065	43265.73
558.265	43185.86
558.464	42911.43
558.663	43296.45
558.863	42747.59
559.062	43042.5
559.261	42743.5
559.461	43194.05
559.66	42489.55
559.859	42761.93
560.058	42473.17
560.258	42677.96
560.457	42286.8
560.656	43083.46
560.855	42161.87
561.054	42440.4
561.253	42442.45
561.453	42243.79
561.652	42397.39
561.851	42399.44
562.05	42006.23
562.249	41721.56
562.448	42258.13
562.647	42098.39
562.846	42047.19
563.045	41686.75
563.244	41723.61
563.443	42168.02
563.642	41443.04
563.841	41469.66
564.04	41228
564.239	41606.87
564.438	41248.48
564.637	41739.99
564.836	41336.54
565.035	40965.86
565.234	41221.86
565.432	41000.68
565.631	41080.55
565.83	41180.9
566.029	40562.41
566.228	40507.12
566.427	40648.43
566.625	40386.29
566.824	40816.36
567.023	40720.1
567.222	39876.34
567.42	40660.71
567.619	40335.09
567.818	39829.24
568.016	39892.72
568.215	40066.8
568.414	40013.55
568.612	40232.69
568.811	39933.68
569.01	39839.48
569.208	39374.59
569.407	39921.4
569.605	39354.11
569.804	39661.3
570.002	39249.66
570.201	39630.58
570.4	38971.14
570.598	39171.84
570.797	38682.38
570.995	38604.55
571.193	38541.07
571.392	39034.63
571.59	38651.66
571.789	38323.98
571.987	38606.6
572.186	38907.65
572.384	38121.23
572.582	38199.05
572.781	38389.52
572.979	37861.14
573.177	38047.5
573.376	37865.24
573.574	37654.29
573.772	37900.05
573.971	37676.82
574.169	37271.32
574.367	37416.73
574.565	37758.74
574.763	37537.56
574.962	37150.49
575.16	36687.65
575.358	37033.76
575.556	37166.88
575.754	37392.15
575.952	36798.24
576.151	36921.12
576.349	36476.71
576.547	36351.79
576.745	36646.69
576.943	36562.73
577.141	36431.66
577.339	36282.16
577.537	35938.1
577.735	36101.93
577.933	35934
578.131	36230.96
578.329	35757.88
578.527	35716.92
578.725	35925.81
578.923	35690.29
579.121	35536.7
579.319	35651.38
579.516	35704.63
579.714	35043.13
579.912	35039.04
580.11	35178.3
580.308	35227.45
580.506	35008.32
580.704	34594.63
580.901	34862.91
581.099	35108.67
581.297	34518.85
581.495	34699.08
581.692	34819.91
581.89	34334.54
582.088	34613.06
582.285	34408.26
582.483	34281.29
582.681	33933.14
582.878	34117.45
583.076	33863.5
583.274	34066.25
583.471	33613.65
583.669	33902.42
583.866	33685.33
584.064	33865.55
584.262	33159
584.459	33294.17
584.657	33281.88
584.854	33259.35
585.052	32458.6
585.249	33011.55
585.447	33371.99
585.644	32892.77
585.841	33050.46
586.039	33167.2
586.236	32853.86
586.434	32714.59
586.631	32546.66
586.828	32561
587.026	32501.61
587.223	32438.12
587.42	31948.65
587.618	32218.99
587.815	31684.47
588.012	31688.56
588.21	32006
588.407	31758.19
588.604	31774.58
588.801	31577.97
588.999	31741.81
589.196	31717.23
589.393	31330.17
589.59	31393.65
589.787	31053.69
589.984	31266.68
590.182	30926.72
590.379	31055.74
590.576	30855.04
590.773	30787.46
590.97	30812.03
591.167	30576.51
591.364	30234.5
591.561	30472.07
591.758	29980.56
591.955	30515.08
592.152	30461.83
592.349	30007.18
592.546	30099.34
592.743	30037.9
592.94	29753.23
593.137	29943.69
593.334	29829.01
593.531	29132.7
593.727	29736.85
593.924	29759.38
594.121	29704.08
594.318	29585.3
594.515	29024.15
594.712	29378.45
594.908	29009.82
595.105	29030.3
595.302	28409.76
595.499	28759.97
595.696	28932
595.892	28424.1
596.089	28944.28
596.286	28563.36
596.482	28276.65
596.679	28366.76
596.876	28272.55
597.072	28073.9
597.269	28174.25
597.466	27969.45
597.662	27676.59
597.859	27738.03
598.055	27846.57
598.252	27889.58
598.448	27922.35
598.645	27377.59
598.841	27307.96
599.038	27518.9
599.234	27389.88
599.431	26990.52
599.627	26906.55
599.824	27260.85
600.02	26910.65
600.217	27133.88
600.413	26781.63
600.609	26904.51
600.806	26668.99
601.002	26927.03
601.198	26281.92
601.395	26302.4
601.591	26179.53
601.787	26165.19
601.984	26032.07
602.18	26380.23
602.376	25993.16
602.572	25968.59
602.769	26050.5
602.965	25577.42
603.161	25841.61
603.357	25708.49
603.553	25331.67
603.75	25606.09
603.946	25219.03
604.142	25606.09
604.338	24903.64
604.534	25442.26
604.73	25026.52
604.926	25020.38
605.122	25286.61
605.318	24905.69
605.514	24735.71
605.71	24831.96
605.906	24915.93
606.102	24827.87
606.298	24834.01
606.494	24764.38
606.69	24629.21
606.886	24522.72
607.082	24113.13
607.278	24348.64
607.474	24109.03
607.67	24559.58
607.866	23953.38
608.062	24379.36
608.257	24246.24
608.453	23803.88
608.649	24172.52
608.845	23893.99
609.041	23883.75
609.236	23984.1
609.432	23584.75
609.628	23932.9
609.824	23681
610.019	23638
610.215	23627.76
610.411	23607.28
610.606	23498.73
610.802	23529.45
610.998	23457.78
611.193	23494.64
611.389	23300.08
611.584	23363.57
611.78	23050.23
611.976	23412.72
612.171	22937.59
612.367	23095.28
612.562	22964.21
612.758	22777.85
612.953	22786.04
613.149	23242.74
613.344	22790.14
613.539	23369.71
613.735	22671.36
613.93	22804.47
614.126	22581.24
614.321	23154.68
614.517	22642.68
614.712	22480.89
614.907	22456.32
615.103	22677.5
615.298	22513.66
615.493	22503.42
615.688	22149.12
615.884	22315.01
616.079	22112.26
616.274	22355.97
616.47	22194.18
616.665	22513.66
616.86	21999.62
617.055	22192.13
617.25	21786.63
617.445	22323.2
617.641	21948.42
617.836	22046.72
618.031	21919.75
618.226	21880.84
618.421	21766.15
618.616	21897.22
618.811	21520.4
619.006	21817.35
619.201	21348.37
619.396	21489.68
619.591	21028.88
619.786	21563.4
619.981	21100.56
620.176	21180.43
620.371	20858.9
620.566	20854.81
620.761	20992.02
620.956	20922.39
621.151	20906.01
621.346	20979.73
621.541	20287.52
621.735	20596.76
621.93	20377.63
622.125	20289.57
622.32	19877.93
622.515	19886.12
622.709	19896.36
622.904	19912.74
623.099	19918.89
623.294	19587.11
623.488	19243.06
623.683	19474.48
623.878	19044.4
624.072	19378.22
624.267	19116.08
624.462	18972.72
624.656	18847.8
624.851	19122.23
625.046	18489.4
625.24	18454.59
625.435	18569.27
625.629	18319.42
625.824	18229.31
626.018	18362.43
626.213	18006.08
626.407	17952.84
626.602	17653.83
626.796	17875.01
626.991	17784.9
627.185	17842.25
627.38	17428.56
627.574	17412.17
627.768	17500.23
627.963	17107.02
628.157	17160.27
628.352	17166.42
628.546	16685.14
628.74	17012.82
628.935	17041.49
629.129	16894.04
629.323	16797.78
629.517	16609.37
629.712	16240.73
629.906	16711.77
630.1	16253.02
630.294	16394.33
630.489	16037.98
630.683	16080.99
630.877	15992.93
631.071	15790.18
631.265	15976.55
631.459	15929.44
631.653	15779.94
631.848	15796.32
632.042	15525.99
632.236	15632.49
632.43	15513.7
632.624	15591.53
632.818	15450.22
633.012	14979.18
633.206	14848.11
633.4	15140.97
633.594	14907.51
633.788	14790.77
633.982	14676.09
634.176	14659.7
634.369	14477.43
634.563	14579.83
634.757	14420.09
634.951	14481.53
635.145	14391.42
635.339	14215.29
635.533	14004.35
635.726	14258.3
635.92	13914.24
636.114	13992.06
636.308	13987.97
636.501	13860.99
636.695	13916.29
636.889	13437.06
637.083	13789.31
637.276	13564.04
637.47	13467.78
637.664	13324.43
637.857	13478.02
638.051	13494.41
638.244	13267.08
638.438	13021.33
638.632	13068.43
638.825	13064.33
639.019	12849.3
639.212	12621.97
639.406	12542.1
639.599	12867.73
639.793	12710.04
639.986	12619.92
640.18	12497.05
640.373	12462.23
640.567	12294.3
640.76	12202.14
640.954	12390.55
641.147	12161.18
641.34	12069.02
641.534	12105.88
641.727	12062.88
641.92	11968.67
642.114	11819.17
642.307	11892.9
642.5	11901.09
642.694	11606.18
642.887	11612.32
643.08	11641
643.273	11671.72
643.467	11436.2
643.66	11550.89
643.853	11315.37
644.046	11341.99
644.239	11247.79
644.432	11354.28
644.626	11090.09
644.819	10887.34
645.012	10909.87
645.205	10807.47
645.398	10897.58
645.591	10848.43
645.784	10799.28
645.977	10752.18
646.17	10414.26
646.363	10608.82
646.556	10463.41
646.749	10309.82
646.942	10582.2
647.135	10549.43
647.328	10574
647.521	10442.93
647.714	10219.71
647.907	10203.32
648.099	10307.77
648.292	10068.16
648.485	9982.14
648.678	9937.09
648.871	10062.01
649.064	10170.55
649.256	9912.51
649.449	9752.77
649.642	9783.49
649.835	9574.6
650.027	9777.34
650.22	9658.56
650.413	9519.3
650.605	9625.79
650.798	9621.7
650.991	9464
651.183	9457.86
651.376	9218.25
651.568	9195.72
651.761	9099.47
651.954	9349.32
652.146	9265.35
652.339	9007.31
652.531	9132.23
652.724	8925.39
652.916	8716.5
653.109	8847.57
653.301	8863.95
653.494	8943.82
653.686	8661.2
653.879	8849.61
654.071	8669.39
654.263	8706.26
654.456	8757.46
654.648	8648.91
654.84	8247.51
655.033	8437.97
655.225	8509.65
655.417	8460.5
655.61	8333.53
655.802	8267.99
655.994	8040.67
656.186	8147.16
656.379	8304.85
656.571	8138.97
656.763	8042.71
656.955	7981.28
657.148	7954.65
657.34	8155.35
657.532	7786.72
657.724	7794.91
657.916	7872.73
658.108	7911.64
658.3	7633.12
658.492	7805.15
658.684	7428.32
658.876	7635.17
659.068	7573.73
659.26	7508.19
659.452	7502.05
659.644	7532.77
659.836	7356.65
660.028	7514.34
660.22	7225.58
660.412	7336.17
660.604	7221.48
660.796	7147.75
660.988	7231.72
661.18	7139.56
661.372	6990.06
661.563	6895.85
661.755	7119.08
661.947	6977.77
662.139	7022.83
662.331	6971.63
662.522	6932.72
662.714	6842.6
662.906	6922.48
663.097	6865.13
663.289	6811.89
663.481	6695.15
663.673	6748.4
663.864	6699.25
664.056	6631.66
664.247	6639.86
664.439	6353.14
664.631	6439.16
664.822	6369.52
665.014	6592.75
665.205	6418.68
665.397	6437.11
665.588	6435.06
665.78	6306.04
665.971	6402.29
666.163	6314.23
666.354	6213.88
666.546	6314.23
666.737	6164.73
666.929	6199.54
667.12	6289.65
667.311	6123.77
667.503	6103.29
667.694	6113.53
667.885	6193.4
668.077	5953.79
668.268	6017.27
668.459	6115.58
668.651	5916.92
668.842	5859.58
669.033	5794.04
669.224	5802.24
669.416	5882.11
669.607	5859.58
669.798	5812.48
669.989	5798.14
670.18	5814.52
670.371	5820.67
670.563	5636.35
670.754	5626.11
670.945	5556.48
671.136	5593.34
671.327	5484.8
671.518	5576.96
671.709	5632.26
671.9	5544.19
672.091	5490.95
672.282	5406.98
672.473	5400.83
672.664	5452.03
672.855	5462.27
673.046	5490.95
673.237	5458.18
673.428	5284.1
673.619	5345.54
673.809	5155.08
674	5237
674.191	5232.9
674.382	5218.57
674.573	5294.34
674.764	5339.4
674.954	5359.88
675.145	5077.26
675.336	5167.37
675.527	5163.27
675.717	4907.27
675.908	5138.69
676.099	5034.25
676.289	5153.03
676.48	5042.44
676.671	4897.03
676.861	5009.67
677.052	5079.3
677.243	4897.03
677.433	4901.13
677.624	4919.56
677.814	4915.47
678.005	4931.85
678.195	5011.72
678.386	4774.16
678.576	4765.96
678.767	4890.89
678.957	4706.57
679.148	5013.77
679.338	4651.28
679.529	4784.4
679.719	4786.44
679.909	4780.3
680.1	4755.72
680.29	4737.29
680.481	4745.48
680.671	4675.85
680.861	4696.33
681.052	4679.95
681.242	4591.89
681.432	4612.37
681.622	4626.7
681.813	4704.53
682.003	4555.02
682.193	4362.51
682.383	4682
682.573	4471.06
682.764	4524.3
682.954	4552.98
683.144	4432.15
683.334	4391.19
683.524	4606.22
683.714	4479.25
683.904	4434.19
684.094	4518.16
684.284	4348.18
684.474	4405.52
684.664	4348.18
684.854	4315.41
685.044	4391.19
685.234	4174.1
685.424	4364.56
685.614	4159.77
685.804	4317.46
685.994	4286.74
686.184	4284.69
686.374	4317.46
686.564	4186.39
686.753	4231.44
686.943	4258.07
687.133	4137.24
687.323	4083.99
687.513	4036.89
687.702	4038.94
687.892	4108.57
688.082	4022.55
688.272	3948.83
688.461	4045.08
688.651	4057.37
688.841	3975.45
689.03	3957.02
689.22	3891.48
689.41	4038.94
689.599	3926.3
689.789	3985.69
689.979	3938.59
690.168	3981.59
690.358	3850.52
690.547	3854.62
690.737	3842.33
690.926	3797.28
691.116	3731.74
691.305	3731.74
691.495	3737.88
691.684	3625.25
691.874	3701.02
692.063	3610.91
692.252	3608.86
692.442	3653.92
692.631	3703.07
692.82	3701.02
693.01	3596.57
693.199	3610.91
693.388	3510.56
693.578	3481.89
693.767	3508.51
693.956	3395.87
694.146	3416.35
694.335	3553.57
694.524	3299.62
694.713	3363.11
694.902	3461.41
695.092	3442.98
695.281	3402.02
695.47	3324.19
695.659	3412.26
695.848	3371.3
696.037	3309.86
696.226	3320.1
696.415	3313.95
696.604	3406.11
696.793	3281.19
696.982	3287.33
697.171	3279.14
697.36	3422.5
697.549	3313.95
697.738	3348.77
697.927	3227.94
698.116	3348.77
698.305	3184.93
698.494	3223.84
698.683	3191.08
698.872	3215.65
699.061	3295.52
699.25	3131.69
699.438	3090.73
699.627	3281.19
699.816	3199.27
700.005	3068.2
700.193	3117.35
700.382	3111.21
700.571	3094.82
700.76	2967.85
700.948	3055.91
701.137	3055.91
701.326	3141.93
701.514	3092.77
701.703	3143.97
701.892	3041.57
702.08	3107.11
702.269	3113.25
702.457	2967.85
702.646	3023.14
702.834	2922.79
703.023	3027.24
703.212	2965.8
703.4	3029.29
703.589	3002.66
703.777	3064.1
703.965	2885.93
704.154	3060.01
704.342	3068.2
704.531	2988.33
704.719	3019.05
704.907	3027.24
705.096	3014.95
705.284	3070.25
705.472	2883.88
705.661	2961.7
705.849	2904.36
706.037	2951.46
706.226	2930.98
706.414	2969.9
706.602	2783.53
706.79	2926.89
706.979	2875.69
707.167	2939.18
707.355	2834.73
707.543	2957.61
707.731	3017
707.919	3000.62
708.107	2869.55
708.296	2904.36
708.484	2818.35
708.672	3000.62
708.86	2859.31
709.048	2924.84
709.236	2935.08
709.424	2887.98
709.612	2996.52
709.8	2879.79
709.988	2887.98
710.176	2871.59
710.364	2959.66
710.551	2863.4
710.739	2812.2
710.927	2871.59
711.115	2910.5
711.303	2933.03
711.491	2869.55
711.679	2781.48
711.866	3006.76
712.054	2928.94
712.242	2838.83
712.43	2830.63
712.617	2871.59
712.805	2844.97
712.993	2939.18
713.181	2814.25
713.368	2795.82
713.556	2887.98
713.744	2703.66
713.931	2863.4
714.119	2842.92
714.306	2849.07
714.494	2718
714.682	2830.63
714.869	2787.63
715.057	2734.38
715.244	2730.28
715.432	2754.86
715.619	2881.83
715.807	2793.77
715.994	2857.26
716.182	2869.55
716.369	2804.01
716.556	2894.12
716.744	2758.96
716.931	2695.47
717.119	2904.36
717.306	2713.9
717.493	2797.87
717.681	2687.28
717.868	2793.77
718.055	2898.22
718.242	2924.84
718.43	2783.53
718.617	2771.24
718.804	2715.95
718.991	2832.68
719.179	2832.68
719.366	2752.81
719.553	2840.87
719.74	2830.63
719.927	2826.54
720.114	2849.07
720.301	2818.35
720.488	2668.84
720.676	2765.1
720.863	2814.25
721.05	2718
721.237	2654.51
721.424	2775.34
721.611	2842.92
721.798	2840.87
721.985	2836.78
722.172	2769.2
722.358	2812.2
722.545	2763.05
722.732	2758.96
722.919	2910.5
723.106	2726.19
723.293	2732.33
723.48	2713.9
723.667	2687.28
723.853	2797.87
724.04	2773.29
724.227	2851.11
724.414	2761
724.6	2963.75
724.787	2847.02
724.974	2881.83
725.161	2828.59
725.347	2793.77
725.534	2818.35
725.72	2703.66
725.907	2638.13
726.094	2779.43
726.28	2679.08
726.467	2756.91
726.653	2758.96
726.84	2892.07
727.027	2820.39
727.213	2830.63
727.4	2808.11
727.586	2742.57
727.773	2699.56
727.959	2849.07
728.145	2687.28
728.332	2842.92
728.518	2795.82
728.705	2781.48
728.891	2785.58
729.077	2885.93
729.264	2844.97
729.45	2840.87
729.636	2748.72
729.823	2892.07
730.009	2695.47
730.195	2713.9
730.382	2906.41
730.568	2816.3
730.754	2824.49
730.94	2836.78
731.126	2816.3
731.313	2797.87
731.499	2859.31
731.685	2828.59
731.871	2812.2
732.057	2777.39
732.243	2812.2
732.429	2730.28
732.615	2699.56
732.801	2971.94
732.987	2810.15
733.173	2890.03
733.359	2713.9
733.545	2775.34
733.731	2658.6
733.917	2687.28
734.103	2881.83
734.289	2830.63
734.475	2793.77
734.661	2728.24
734.847	2781.48
735.033	2703.66
735.219	2773.29
735.404	2865.45
735.59	2836.78
735.776	2605.36
735.962	2801.96
736.148	2834.73
736.333	2607.41
736.519	2773.29
736.705	2799.91
736.89	2754.86
737.076	2703.66
737.262	2756.91
737.447	2666.8
737.633	2822.44
737.819	2836.78
738.004	2761
738.19	2734.38
738.375	2625.84
738.561	2797.87
738.747	2754.86
738.932	2761
739.118	2787.63
739.303	2775.34
739.489	2685.23
739.674	2767.15
739.859	2679.08
740.045	2777.39
740.23	2738.48
740.416	2631.98
740.601	2750.76
740.786	2642.22
740.972	2631.98
741.157	2648.36
741.342	2668.84
741.528	2701.61
741.713	2660.65
741.898	2580.78
742.084	2648.36
742.269	2648.36
742.454	2648.36
742.639	2629.93
742.824	2672.94
743.01	2623.79
743.195	2597.17
743.38	2486.58
743.565	2572.59
743.75	2525.49
743.935	2408.75
744.12	2591.02
744.305	2496.82
744.49	2523.44
744.675	2496.82
744.86	2435.38
745.045	2457.9
745.23	2537.77
745.415	2453.81
745.6	2531.63
745.785	2310.45
745.97	2406.7
746.155	2494.77
746.34	2437.42
746.525	2517.29
746.71	2371.89
746.895	2402.61
747.079	2488.62
747.264	2445.62
747.449	2408.75
747.634	2480.43
747.819	2302.26
748.003	2281.78
748.188	2363.7
748.373	2273.59
748.557	2206
748.742	2212.15
748.927	2115.89
749.111	2179.38
749.296	2269.49
749.481	2283.83
749.665	2148.66
749.85	2099.51
750.034	2140.47
750.219	2113.85
750.404	2093.37
750.588	2156.85
750.773	2117.94
750.957	2134.32
751.141	2011.45
751.326	2072.89
751.51	2068.79
751.695	1993.01
751.879	2089.27
752.064	2062.65
752.248	1976.63
752.432	2064.69
752.617	1902.9
752.801	1978.68
752.985	1952.06
753.17	1937.72
753.354	1986.87
753.538	1911.1
753.722	1866.04
753.907	1894.71
754.091	1863.99
754.275	1808.7
754.459	1890.62
754.643	1763.64
754.828	1847.61
755.012	1816.89
755.196	1745.21
755.38	1806.65
755.564	1782.07
755.748	1749.31
755.932	1667.39
756.116	1663.29
756.3	1759.55
756.484	1728.83
756.668	1622.33
756.852	1751.35
757.036	1593.66
757.22	1722.68
757.404	1708.35
757.588	1644.86
757.772	1651
757.956	1669.44
758.14	1624.38
758.323	1515.84
758.507	1634.62
758.691	1622.33
758.875	1646.91
759.059	1585.47
759.242	1573.18
759.426	1556.8
759.61	1505.6
759.794	1605.95
759.977	1487.17
760.161	1515.84
760.345	1470.78
760.528	1505.6
760.712	1472.83
760.895	1519.93
761.079	1460.54
761.263	1448.26
761.446	1333.57
761.63	1425.73
761.813	1456.45
761.997	1446.21
762.18	1341.76
762.364	1481.02
762.547	1376.58
762.731	1368.38
762.914	1372.48
763.098	1329.47
763.281	1382.72
763.464	1333.57
763.648	1384.77
763.831	1315.14
764.015	1425.73
764.198	1390.91
764.381	1364.29
764.564	1407.3
764.748	1315.14
764.931	1274.18
765.114	1311.04
765.297	1229.12
765.481	1331.52
765.664	1319.23
765.847	1329.47
766.03	1249.6
766.213	1274.18
766.397	1347.9
766.58	1265.99
766.763	1155.4
766.946	1134.92
767.129	1225.03
767.312	1251.65
767.495	1313.09
767.678	1165.64
767.861	1354.05
768.044	1220.93
768.227	1265.99
768.41	1208.64
768.593	1218.88
768.776	1239.36
768.959	1196.36
769.142	1184.07
769.324	1182.02
769.507	1196.36
769.69	1141.06
769.873	1087.81
770.056	1093.96
770.239	1130.82
770.421	1124.68
770.604	1225.03
770.787	1216.83
770.97	1141.06
771.152	1055.05
771.335	1093.96
771.518	1134.92
771.7	1046.85
771.883	1143.11
772.066	1046.85
772.248	1026.37
772.431	1028.42
772.613	1122.63
772.796	960.84
772.978	1120.58
773.161	1067.33
773.343	1026.37
773.526	911.69
773.708	997.7
773.891	977.22
774.073	975.17
774.256	1089.86
774.438	1102.15
774.621	969.03
774.803	938.31
774.985	997.7
775.168	995.65
775.35	997.7
775.532	940.36
775.715	958.79
775.897	911.69
776.079	950.6
776.261	915.78
776.444	1001.8
776.626	897.35
776.808	895.3
776.99	878.92
777.173	799.05
777.355	901.45
777.537	923.98
777.719	891.21
777.901	848.2
778.083	895.3
778.265	811.34
778.447	876.87
778.629	807.24
778.811	846.15
778.993	903.5
779.175	874.82
779.357	825.67
779.539	788.81
779.721	833.86
779.903	739.66
780.085	815.43
780.267	872.78
780.449	790.86
780.631	747.85
780.812	807.24
780.994	715.08
781.176	743.75
781.358	784.71
781.54	661.84
781.721	715.08
781.903	739.66
782.085	659.79
782.267	706.89
782.448	713.03
782.63	737.61
782.812	715.08
782.993	694.6
783.175	690.51
783.357	563.53
783.538	690.51
783.72	618.83
783.901	598.35
784.083	700.75
784.264	635.21
784.446	631.12
784.627	551.24
784.809	629.07
784.99	663.88
785.172	667.98
785.353	624.97
785.535	678.22
785.716	549.2
785.897	600.4
786.079	586.06
786.26	631.12
786.441	561.48
786.623	567.63
786.804	559.44
786.985	596.3
787.167	590.16
787.348	563.53
787.529	487.76
787.71	561.48
787.891	495.95
788.073	604.49
788.254	553.29
788.435	545.1
788.616	575.82
788.797	528.72
788.978	416.08
789.159	446.8
789.34	463.18
789.522	416.08
789.703	514.38
789.884	473.42
790.065	524.62
790.246	520.53
790.427	483.66
790.607	493.9
790.788	483.66
790.969	436.56
791.15	457.04
791.331	448.85
791.512	407.89
791.693	457.04
791.874	475.47
792.054	512.33
792.235	383.31
792.416	461.13
792.597	391.5
792.778	454.99
792.958	414.03
793.139	401.74
793.32	416.08
793.5	405.84
793.681	442.7
793.862	422.22
794.042	328.02
794.223	379.22
794.404	414.03
794.584	371.02
794.765	420.17
794.945	375.12
795.126	463.18
795.306	387.41
795.487	424.27
795.667	295.25
795.848	403.79
796.028	328.02
796.209	309.58
796.389	305.49
796.57	364.88
796.75	301.39
796.93	373.07
797.111	332.11
797.291	342.35
797.471	385.36
797.652	274.77
797.832	319.82
798.012	371.02
798.192	422.22
798.373	325.97
798.553	293.2
798.733	407.89
798.913	362.83
799.093	328.02
799.274	356.69
799.454	323.92
799.634	434.51
799.814	309.58
799.994	303.44
800.174	260.43
800.354	307.54
800.534	231.76
800.714	270.67
800.894	356.69
801.074	325.97
801.254	313.68
801.434	360.78
801.614	278.87
801.794	268.63
801.974	651.6
802.154	272.72
802.334	311.63
802.514	319.82
802.693	225.62
802.873	307.54
803.053	354.64
803.233	319.82
803.413	340.3
803.592	256.34
803.772	256.34
803.952	297.3
804.131	252.24
804.311	315.73
804.491	303.44
804.67	311.63
804.85	328.02
805.03	325.97
805.209	248.15
805.389	256.34
805.568	280.91
805.748	203.09
805.928	258.39
806.107	239.95
806.287	270.67
806.466	213.33
806.646	186.71
806.825	162.13
807.004	264.53
807.184	258.39
807.363	258.39
807.543	285.01
807.722	209.23
807.901	155.99
808.081	278.87
808.26	242
808.439	225.62
808.619	262.48
808.798	268.63
808.977	168.27
809.156	213.33
809.336	256.34
809.515	246.1
809.694	209.23
809.873	217.43
810.052	192.85
810.231	166.23
810.411	192.85
810.59	325.97
810.769	170.32
810.948	133.46
811.127	194.9
811.306	205.14
811.485	211.28
811.664	237.91
811.843	254.29
812.022	127.32
812.201	168.27
812.38	272.72
812.559	139.6
812.737	213.33
812.916	155.99
813.095	266.58
813.274	237.91
813.453	180.56
813.632	223.57
813.811	231.76
813.989	184.66
814.168	221.52
814.347	227.67
814.526	82.26
814.704	217.43
814.883	246.1
815.062	225.62
815.24	176.47
815.419	211.28
815.598	131.41
815.776	119.12
815.955	155.99
816.133	78.16
816.312	192.85
816.49	117.08
816.669	207.19
816.847	125.27
817.026	158.03
817.204	129.36
817.383	141.65
817.561	158.03
817.74	176.47
817.918	207.19
818.097	209.23
818.275	184.66
818.453	188.75
818.632	147.8
818.81	110.93
818.988	178.51
819.167	172.37
819.345	133.46
819.523	168.27
819.701	164.18
819.879	133.46
820.058	127.32
820.236	231.76
820.414	192.85
820.592	223.57
820.77	217.43
820.948	162.13
821.127	78.16
821.305	149.84
821.483	127.32
821.661	186.71
821.839	123.22
822.017	86.36
822.195	205.14
822.373	123.22
822.551	147.8
822.729	151.89
822.907	108.88
823.085	121.17
823.262	166.23
823.44	133.46
823.618	192.85
823.796	151.89
823.974	176.47
824.152	141.65
824.329	12.63
824.507	143.7
824.685	168.27
824.863	170.32
825.04	190.8
825.218	139.6
825.396	174.42
825.574	147.8
825.751	158.03
825.929	172.37
826.107	88.4
826.284	123.22
826.462	96.6
826.639	176.47
826.817	102.74
826.994	94.55
827.172	121.17
827.349	182.61
827.527	188.75
827.704	164.18
827.882	115.03
828.059	137.56
828.237	59.73
828.414	72.02
828.591	49.49
828.769	104.79
828.946	51.54
829.124	182.61
829.301	125.27
829.478	74.07
829.655	94.55
829.833	172.37
830.01	8.53
830.187	41.3
830.364	92.5
830.542	188.75
830.719	125.27
830.896	158.03
831.073	63.83
831.25	172.37
831.427	170.32
831.604	112.98
831.782	108.88
831.959	176.47
832.136	96.6
832.313	51.54
832.49	94.55
832.667	84.31
832.844	74.07
833.021	74.07
833.198	72.02
833.374	33.11
833.551	129.36
833.728	155.99
833.905	147.8
834.082	20.82
834.259	139.6
834.436	147.8
834.612	94.55
834.789	104.79
834.966	53.59
835.143	102.74
835.319	49.49
835.496	121.17
835.673	102.74
835.85	108.88
836.026	145.75
836.203	94.55
836.38	51.54
836.556	137.56
836.733	98.64
836.909	162.13
837.086	82.26
837.262	43.35
837.439	125.27
837.616	100.69
837.792	53.59
837.968	39.25
838.145	57.68
838.321	80.21
838.498	33.11
838.674	92.5
838.851	39.25
839.027	80.21
839.203	18.77
839.38	108.88
839.556	96.6
839.732	84.31
839.909	59.73
840.085	61.78
840.261	104.79
840.437	49.49
840.614	78.16
840.79	147.8
840.966	100.69
841.142	29.01
841.318	59.73
841.494	49.49
841.671	-13.99
841.847	22.87
842.023	65.88
842.199	94.55
842.375	76.12
842.551	53.59
842.727	8.53
842.903	57.68
843.079	16.73
843.255	65.88
843.431	86.36
843.607	57.68
843.783	4.44
843.959	69.97
844.134	137.56
844.31	88.4
844.486	84.31
844.662	90.45
844.838	39.25
845.013	51.54
845.189	31.06
845.365	80.21
845.541	147.8
845.716	59.73
845.892	131.41
846.068	39.25
846.244	61.78
846.419	47.44
846.595	104.79
846.77	20.82
846.946	29.01
847.122	92.5
847.297	67.92
847.473	110.93
847.648	35.16
847.824	106.84
847.999	143.7
848.175	98.64
848.35	55.64
848.526	24.92
848.701	41.3
848.876	80.21
849.052	69.97
849.227	61.78
849.403	-54.95
849.578	6.49
849.753	67.92
849.929	82.26
850.104	10.58
850.279	67.92
850.454	76.12
850.63	22.87
850.805	69.97
850.98	24.92
851.155	45.4
851.33	119.12
851.505	26.96
851.681	84.31
851.856	45.4
852.031	20.82
852.206	-13.99
852.381	37.2
852.556	59.73
852.731	78.16
852.906	26.96
853.081	115.03
853.256	61.78
853.431	86.36
853.606	12.63
853.781	61.78
853.956	10.58
854.131	18.77
854.305	26.96
854.48	31.06
854.655	45.4
854.83	74.07
855.005	-5.8
855.18	20.82
855.354	37.2
855.529	10.58
855.704	31.06
855.879	57.68
856.053	98.64
856.228	12.63
856.403	55.64
856.577	67.92
856.752	-11.95
856.926	31.06
857.101	29.01
857.276	53.59
857.45	57.68
857.625	51.54
857.799	186.71
857.974	16.73
858.148	-5.8
858.323	-11.95
858.497	80.21
858.672	55.64
858.846	26.96
859.02	-36.52
859.195	47.44
859.369	37.2
859.543	31.06
859.718	92.5
859.892	-38.57
860.066	43.35
860.241	0.34
860.415	20.82
860.589	37.2
860.763	-16.04
860.938	12.63
861.112	22.87
861.286	-61.1
861.46	80.21
861.634	39.25
861.808	49.49
861.982	-11.95
862.157	12.63
862.331	69.97
862.505	31.06
862.679	-5.8
862.853	-22.19
863.027	39.25
863.201	112.98
863.375	74.07
863.549	61.78
863.722	4.44
863.896	22.87
864.07	-57
864.244	12.63
864.418	43.35
864.592	57.68
864.766	78.16
864.939	18.77
865.113	16.73
865.287	37.2
865.461	72.02
865.634	55.64
865.808	-38.57
865.982	12.63
866.156	33.11
866.329	26.96
866.503	22.87
866.676	94.55
866.85	-32.43
867.024	35.16
867.197	37.2
867.371	10.58
867.544	102.74
867.718	-1.71
867.891	72.02
868.065	26.96
868.238	10.58
868.412	14.68
868.585	59.73
868.759	-20.14
868.932	2.39
869.105	-3.75
869.279	-7.85
869.452	39.25
869.625	-3.75
869.799	-3.75
869.972	61.78
870.145	96.6
870.319	22.87
870.492	12.63
870.665	106.84
870.838	29.01
871.011	-54.95
871.185	57.68
871.358	-34.47
871.531	41.3
871.704	-13.99
871.877	49.49
872.05	-40.62
872.223	-7.85
872.396	29.01
872.569	45.4
872.742	61.78
872.915	24.92
873.088	69.97
873.261	57.68
873.434	55.64
873.607	31.06
873.78	43.35
873.953	6.49
874.126	45.4
874.299	59.73
874.471	26.96
874.644	33.11
874.817	4.44
874.99	24.92
875.163	69.97
875.335	57.68
875.508	-40.62
875.681	18.77
875.853	72.02
876.026	-7.85
876.199	-16.04
876.371	2.39
876.544	69.97
876.717	31.06
876.889	-54.95
877.062	61.78
877.234	-28.33
877.407	43.35
877.579	22.87
877.752	53.59
877.924	-3.75
878.097	31.06
878.269	24.92
878.442	45.4
878.614	2.39
878.786	45.4
878.959	-16.04
879.131	43.35
879.303	0.34
879.476	84.31
879.648	29.01
879.82	-3.75
879.993	59.73
880.165	26.96
880.337	-44.71
880.509	35.16
880.681	14.68
880.854	24.92
881.026	-59.05
881.198	26.96
881.37	16.73
881.542	16.73
881.714	-44.71
881.886	-46.76
882.058	-42.67
882.23	18.77
882.402	-16.04
882.574	22.87
882.746	20.82
882.918	84.31
883.09	59.73
883.262	41.3
883.434	-38.57
883.606	-18.09
883.778	-18.09
883.95	-5.8
884.122	-75.43
884.293	61.78
884.465	-7.85
884.637	26.96
884.809	61.78
884.98	16.73
885.152	10.58
885.324	49.49
885.496	39.25
885.667	-26.28
885.839	20.82
886.011	65.88
886.182	16.73
886.354	49.49
886.525	57.68
886.697	-9.9
886.869	45.4
887.04	106.84
887.212	24.92
887.383	18.77
887.555	10.58
887.726	51.54
887.897	-13.99
888.069	76.12
888.24	41.3
888.412	6.49
888.583	2.39
888.754	-46.76
888.926	24.92
889.097	-11.95
889.268	-77.48
889.44	2.39
889.611	-30.38
889.782	-20.14
889.953	57.68
890.125	8.53
890.296	76.12
890.467	-3.75
890.638	67.92
890.809	55.64
890.98	6.49
891.151	6.49
891.323	20.82
891.494	-5.8
891.665	-32.43
891.836	-11.95
892.007	2.39
892.178	-36.52
892.349	112.98
892.52	-7.85
892.691	26.96
892.862	57.68
893.032	-18.09
893.203	14.68
893.374	-18.09
893.545	18.77
893.716	-87.72
893.887	55.64
894.057	-38.57
894.228	12.63
894.399	-1.71
894.57	74.07
894.74	90.45
894.911	20.82
895.082	12.63
895.253	57.68
895.423	-57
895.594	-24.23
895.764	53.59
895.935	61.78
896.106	65.88
896.276	12.63
896.447	6.49
896.617	59.73
896.788	-42.67
896.958	-7.85
897.129	-13.99
897.299	47.44
897.47	-1.71
897.64	26.96
897.81	-32.43
897.981	6.49
898.151	26.96
898.322	-26.28
898.492	-67.24
898.662	33.11
898.832	53.59
899.003	-57
899.173	8.53
899.343	4.44
899.513	45.4
