Data from USB4F104151__86__11-45-40-866.txt Node

Date: Fri Mar 14 11:45:40 EDT 2025
User: louis
Spectrometer: USB4F10415
Trigger mode: 4
Integration Time (sec): 2.000000E-2
Scans to average: 1
Electric dark correction enabled: true
Nonlinearity correction enabled: false
Boxcar width: 0
XAxis mode: Wavelengths
Number of Pixels in Spectrum: 3648
>>>>>Begin Spectral Data<<<<<
178.204	-158.89
178.424	-158.89
178.644	-158.89
178.864	-109.74
179.084	-68.78
179.304	-60.59
179.524	-5.29
179.744	-11.43
179.964	-31.91
180.184	33.62
180.404	-13.48
180.624	-40.11
180.844	58.2
181.064	-54.44
181.283	70.48
181.503	54.1
181.723	0.85
181.943	-58.54
182.163	78.68
182.383	9.05
182.602	0.85
182.822	-17.58
183.042	17.24
183.262	15.19
183.482	35.67
183.701	-46.25
183.921	105.3
184.141	-38.06
184.361	70.48
184.58	-27.82
184.8	4.95
185.02	-36.01
185.239	70.48
185.459	-64.68
185.679	31.57
185.898	-72.87
186.118	93.01
186.338	-48.3
186.557	7
186.777	-19.63
186.997	88.92
187.216	-40.11
187.436	23.38
187.655	9.05
187.875	68.44
188.095	37.72
188.314	113.49
188.534	56.15
188.753	37.72
188.973	-15.53
189.192	58.2
189.412	-25.77
189.631	54.1
189.851	0.85
190.07	31.57
190.29	13.14
190.509	25.43
190.729	-50.35
190.948	29.52
191.168	64.34
191.387	25.43
191.607	13.14
191.826	15.19
192.045	25.43
192.265	-74.92
192.484	-44.2
192.704	13.14
192.923	-27.82
193.142	9.05
193.362	-17.58
193.581	35.67
193.8	-7.34
194.02	31.57
194.239	-23.72
194.458	56.15
194.678	33.62
194.897	-1.19
195.116	-1.19
195.335	60.24
195.555	148.31
195.774	27.48
195.993	-60.59
196.212	60.24
196.432	-27.82
196.651	29.52
196.87	45.91
197.089	84.82
197.308	74.58
197.528	74.58
197.747	-56.49
197.966	-11.43
198.185	9.05
198.404	-9.39
198.623	117.59
198.842	52.05
199.062	101.2
199.281	-15.53
199.5	74.58
199.719	31.57
199.938	-11.43
200.157	70.48
200.376	47.96
200.595	45.91
200.814	-3.24
201.033	7
201.252	58.2
201.471	41.81
201.69	13.14
201.909	4.95
202.128	9.05
202.347	-42.15
202.566	-27.82
202.785	29.52
203.004	-44.2
203.223	23.38
203.442	2.9
203.661	17.24
203.879	-15.53
204.098	23.38
204.317	13.14
204.536	78.68
204.755	31.57
204.974	82.77
205.193	37.72
205.411	140.12
205.63	64.34
205.849	31.57
206.068	27.48
206.287	41.81
206.505	99.16
206.724	-29.87
206.943	-29.87
207.162	-9.39
207.381	23.38
207.599	-40.11
207.818	23.38
208.037	-48.3
208.255	47.96
208.474	31.57
208.693	31.57
208.911	13.14
209.13	-3.24
209.349	66.39
209.567	50
209.786	27.48
210.005	13.14
210.223	0.85
210.442	50
210.661	33.62
210.879	-7.34
211.098	2.9
211.316	-27.82
211.535	2.9
211.753	2.9
211.972	-21.67
212.191	-23.72
212.409	41.81
212.628	29.52
212.846	-19.63
213.065	66.39
213.283	-40.11
213.502	45.91
213.72	-56.49
213.938	-5.29
214.157	25.43
214.375	9.05
214.594	-64.68
214.812	47.96
215.031	17.24
215.249	-1.19
215.467	23.38
215.686	-25.77
215.904	84.82
216.122	31.57
216.341	-27.82
216.559	2.9
216.778	23.38
216.996	72.53
217.214	62.29
217.432	0.85
217.651	13.14
217.869	2.9
218.087	-23.72
218.306	54.1
218.524	21.33
218.742	21.33
218.96	-19.63
219.179	-23.72
219.397	-17.58
219.615	60.24
219.833	58.2
220.051	86.87
220.27	-23.72
220.488	80.72
220.706	39.76
220.924	60.24
221.142	7
221.36	-1.19
221.578	7
221.796	-3.24
222.015	13.14
222.233	0.85
222.451	31.57
222.669	-70.83
222.887	13.14
223.105	4.95
223.323	-7.34
223.541	-11.43
223.759	45.91
223.977	23.38
224.195	60.24
224.413	-3.24
224.631	21.33
224.849	39.76
225.067	23.38
225.285	-17.58
225.503	62.29
225.721	-19.63
225.939	-15.53
226.157	-29.87
226.375	93.01
226.592	43.86
226.81	-50.35
227.028	80.72
227.246	31.57
227.464	-7.34
227.682	47.96
227.9	29.52
228.117	-42.15
228.335	-15.53
228.553	19.29
228.771	-44.2
228.989	33.62
229.206	-21.67
229.424	0.85
229.642	-3.24
229.86	-25.77
230.077	-36.01
230.295	-21.67
230.513	84.82
230.731	29.52
230.948	21.33
231.166	144.21
231.384	-81.07
231.601	33.62
231.819	-9.39
232.037	31.57
232.254	13.14
232.472	58.2
232.689	-5.29
232.907	76.63
233.125	-42.15
233.342	-23.72
233.56	-60.59
233.777	-1.19
233.995	-36.01
234.213	88.92
234.43	-5.29
234.648	25.43
234.865	33.62
235.083	47.96
235.3	7
235.518	11.09
235.735	-46.25
235.953	-19.63
236.17	27.48
236.388	-17.58
236.605	35.67
236.822	13.14
237.04	-9.39
237.257	-9.39
237.475	13.14
237.692	-23.72
237.909	78.68
238.127	-23.72
238.344	27.48
238.562	2.9
238.779	-5.29
238.996	-60.59
239.214	66.39
239.431	4.95
239.648	-40.11
239.865	-9.39
240.083	68.44
240.3	33.62
240.517	27.48
240.735	37.72
240.952	-19.63
241.169	9.05
241.386	35.67
241.603	-3.24
241.821	25.43
242.038	37.72
242.255	11.09
242.472	11.09
242.689	54.1
242.907	64.34
243.124	62.29
243.341	47.96
243.558	15.19
243.775	31.57
243.992	-27.82
244.209	-17.58
244.426	121.68
244.643	-27.82
244.86	56.15
245.078	-15.53
245.295	-40.11
245.512	52.05
245.729	-66.73
245.946	60.24
246.163	54.1
246.38	-17.58
246.597	-52.39
246.814	31.57
247.031	23.38
247.248	74.58
247.464	29.52
247.681	47.96
247.898	-74.92
248.115	-15.53
248.332	29.52
248.549	88.92
248.766	-17.58
248.983	101.2
249.2	17.24
249.417	21.33
249.633	41.81
249.85	39.76
250.067	-42.15
250.284	2.9
250.501	17.24
250.717	-38.06
250.934	-17.58
251.151	31.57
251.368	-1.19
251.585	21.33
251.801	-13.48
252.018	-109.74
252.235	-5.29
252.451	52.05
252.668	-5.29
252.885	50
253.102	9.05
253.318	47.96
253.535	-72.87
253.752	47.96
253.968	-15.53
254.185	-44.2
254.401	35.67
254.618	39.76
254.835	-5.29
255.051	47.96
255.268	4.95
255.484	-48.3
255.701	-13.48
255.917	31.57
256.134	9.05
256.351	2.9
256.567	-54.44
256.784	78.68
257	27.48
257.217	19.29
257.433	93.01
257.65	31.57
257.866	-23.72
258.082	-52.39
258.299	50
258.515	52.05
258.732	-23.72
258.948	-13.48
259.165	31.57
259.381	-31.91
259.597	-44.2
259.814	-23.72
260.03	-13.48
260.246	31.57
260.463	-5.29
260.679	-62.63
260.895	-3.24
261.112	43.86
261.328	-5.29
261.544	23.38
261.761	29.52
261.977	54.1
262.193	-36.01
262.409	33.62
262.626	70.48
262.842	13.14
263.058	-3.24
263.274	23.38
263.49	27.48
263.707	56.15
263.923	-48.3
264.139	-11.43
264.355	29.52
264.571	62.29
264.787	74.58
265.004	72.53
265.22	60.24
265.436	52.05
265.652	29.52
265.868	9.05
266.084	0.85
266.3	0.85
266.516	2.9
266.732	19.29
266.948	86.87
267.164	-7.34
267.38	90.96
267.596	9.05
267.812	58.2
268.028	11.09
268.244	2.9
268.46	9.05
268.676	-25.77
268.892	93.01
269.108	111.44
269.324	45.91
269.54	-17.58
269.756	-7.34
269.972	-5.29
270.188	11.09
270.403	-15.53
270.619	60.24
270.835	72.53
271.051	-31.91
271.267	-33.96
271.483	-33.96
271.698	9.05
271.914	-46.25
272.13	-11.43
272.346	-42.15
272.562	19.29
272.777	74.58
272.993	9.05
273.209	-56.49
273.425	52.05
273.64	52.05
273.856	60.24
274.072	-1.19
274.287	64.34
274.503	-13.48
274.719	43.86
274.934	-3.24
275.15	-1.19
275.366	4.95
275.581	19.29
275.797	-21.67
276.012	-21.67
276.228	45.91
276.444	93.01
276.659	21.33
276.875	-1.19
277.09	-38.06
277.306	25.43
277.521	70.48
277.737	-60.59
277.952	43.86
278.168	-9.39
278.383	56.15
278.599	7
278.814	13.14
279.03	0.85
279.245	13.14
279.461	29.52
279.676	-23.72
279.892	-7.34
280.107	-5.29
280.322	-25.77
280.538	27.48
280.753	25.43
280.969	78.68
281.184	7
281.399	33.62
281.615	41.81
281.83	29.52
282.045	-9.39
282.26	56.15
282.476	-1.19
282.691	-1.19
282.906	41.81
283.122	39.76
283.337	29.52
283.552	-33.96
283.767	23.38
283.983	54.1
284.198	7
284.413	80.72
284.628	-33.96
284.843	-36.01
285.058	17.24
285.274	33.62
285.489	15.19
285.704	39.76
285.919	27.48
286.134	52.05
286.349	29.52
286.564	43.86
286.779	13.14
286.995	47.96
287.21	-89.26
287.425	70.48
287.64	-19.63
287.855	-7.34
288.07	-21.67
288.285	142.16
288.5	62.29
288.715	43.86
288.93	11.09
289.145	25.43
289.36	-50.35
289.575	-17.58
289.79	4.95
290.004	-27.82
290.219	7
290.434	43.86
290.649	-31.91
290.864	-29.87
291.079	-9.39
291.294	80.72
291.509	29.52
291.724	9.05
291.938	35.67
292.153	62.29
292.368	2.9
292.583	-38.06
292.798	31.57
293.012	-11.43
293.227	-40.11
293.442	25.43
293.657	93.01
293.871	58.2
294.086	84.82
294.301	56.15
294.516	-40.11
294.73	4.95
294.945	-17.58
295.16	-44.2
295.374	9.05
295.589	41.81
295.804	-7.34
296.018	66.39
296.233	-1.19
296.447	62.29
296.662	-15.53
296.877	39.76
297.091	23.38
297.306	29.52
297.52	-54.44
297.735	13.14
297.949	-15.53
298.164	35.67
298.378	-7.34
298.593	-15.53
298.807	68.44
299.022	21.33
299.236	76.63
299.451	7
299.665	7
299.88	25.43
300.094	-17.58
300.309	-54.44
300.523	72.53
300.737	21.33
300.952	39.76
301.166	33.62
301.381	93.01
301.595	-3.24
301.809	-31.91
302.024	-3.24
302.238	7
302.452	-3.24
302.667	-29.87
302.881	-29.87
303.095	101.2
303.309	41.81
303.524	58.2
303.738	9.05
303.952	-23.72
304.166	23.38
304.381	54.1
304.595	21.33
304.809	-66.73
305.023	-81.07
305.237	95.06
305.452	35.67
305.666	82.77
305.88	-21.67
306.094	41.81
306.308	-19.63
306.522	-72.87
306.736	74.58
306.95	39.76
307.164	-13.48
307.379	2.9
307.593	74.58
307.807	52.05
308.021	37.72
308.235	-33.96
308.449	-38.06
308.663	15.19
308.877	95.06
309.091	82.77
309.305	21.33
309.519	-83.11
309.733	-13.48
309.947	25.43
310.161	15.19
310.374	138.07
310.588	47.96
310.802	-48.3
311.016	68.44
311.23	-33.96
311.444	50
311.658	-42.15
311.872	7
312.085	-9.39
312.299	52.05
312.513	2.9
312.727	58.2
312.941	0.85
313.154	-1.19
313.368	-48.3
313.582	33.62
313.796	-21.67
314.009	39.76
314.223	78.68
314.437	7
314.651	47.96
314.864	-5.29
315.078	-25.77
315.292	-29.87
315.505	35.67
315.719	-3.24
315.933	2.9
316.146	37.72
316.36	45.91
316.573	54.1
316.787	-17.58
317.001	52.05
317.214	4.95
317.428	39.76
317.641	9.05
317.855	62.29
318.068	-1.19
318.282	-17.58
318.495	-1.19
318.709	-23.72
318.922	80.72
319.136	56.15
319.349	90.96
319.563	-19.63
319.776	54.1
319.99	37.72
320.203	52.05
320.417	58.2
320.63	-5.29
320.843	78.68
321.057	41.81
321.27	23.38
321.483	70.48
321.697	68.44
321.91	-54.44
322.124	35.67
322.337	19.29
322.55	-29.87
322.763	35.67
322.977	35.67
323.19	31.57
323.403	19.29
323.617	76.63
323.83	35.67
324.043	21.33
324.256	-72.87
324.469	4.95
324.683	39.76
324.896	9.05
325.109	90.96
325.322	33.62
325.535	29.52
325.748	15.19
325.962	-9.39
326.175	25.43
326.388	64.34
326.601	-38.06
326.814	0.85
327.027	7
327.24	113.49
327.453	-54.44
327.666	19.29
327.879	37.72
328.092	25.43
328.305	25.43
328.518	33.62
328.731	80.72
328.944	35.67
329.157	-48.3
329.37	50
329.583	27.48
329.796	39.76
330.009	-64.68
330.222	50
330.435	64.34
330.648	-21.67
330.861	-19.63
331.073	76.63
331.286	-7.34
331.499	41.81
331.712	-36.01
331.925	23.38
332.138	52.05
332.35	-1.19
332.563	17.24
332.776	29.52
332.989	-56.49
333.202	47.96
333.414	35.67
333.627	-23.72
333.84	-50.35
334.053	29.52
334.265	-40.11
334.478	4.95
334.691	66.39
334.903	-40.11
335.116	19.29
335.329	62.29
335.541	25.43
335.754	21.33
335.966	-5.29
336.179	-33.96
336.392	-1.19
336.604	-9.39
336.817	11.09
337.029	39.76
337.242	11.09
337.454	45.91
337.667	25.43
337.88	84.82
338.092	-21.67
338.305	93.01
338.517	31.57
338.729	25.43
338.942	25.43
339.154	41.81
339.367	-11.43
339.579	13.14
339.792	2.9
340.004	54.1
340.217	41.81
340.429	45.91
340.641	9.05
340.854	-11.43
341.066	64.34
341.278	41.81
341.491	-3.24
341.703	52.05
341.915	50
342.128	84.82
342.34	19.29
342.552	-17.58
342.764	50
342.977	-3.24
343.189	25.43
343.401	13.14
343.613	52.05
343.826	-42.15
344.038	-25.77
344.25	-33.96
344.462	-38.06
344.674	0.85
344.886	43.86
345.099	19.29
345.311	90.96
345.523	4.95
345.735	-70.83
345.947	11.09
346.159	39.76
346.371	35.67
346.583	-48.3
346.795	107.35
347.007	-36.01
347.219	84.82
347.431	25.43
347.643	99.16
347.855	-50.35
348.067	-11.43
348.279	90.96
348.491	39.76
348.703	27.48
348.915	37.72
349.127	43.86
349.339	13.14
349.551	-23.72
349.763	27.48
349.975	25.43
350.187	60.24
350.399	45.91
350.61	19.29
350.822	-19.63
351.034	66.39
351.246	11.09
351.458	68.44
351.669	43.86
351.881	-50.35
352.093	76.63
352.305	50
352.517	7
352.728	39.76
352.94	68.44
353.152	62.29
353.363	-1.19
353.575	25.43
353.787	68.44
353.999	41.81
354.21	43.86
354.422	23.38
354.633	9.05
354.845	86.87
355.057	4.95
355.268	39.76
355.48	-1.19
355.692	58.2
355.903	99.16
356.115	-7.34
356.326	-15.53
356.538	29.52
356.749	-5.29
356.961	66.39
357.172	7
357.384	2.9
357.595	78.68
357.807	9.05
358.018	23.38
358.23	13.14
358.441	-5.29
358.653	19.29
358.864	-29.87
359.075	31.57
359.287	9.05
359.498	50
359.709	72.53
359.921	66.39
360.132	7
360.344	19.29
360.555	7
360.766	4.95
360.977	33.62
361.189	90.96
361.4	15.19
361.611	-15.53
361.823	2.9
362.034	74.58
362.245	27.48
362.456	27.48
362.667	-9.39
362.879	2.9
363.09	7
363.301	7
363.512	17.24
363.723	23.38
363.935	64.34
364.146	41.81
364.357	29.52
364.568	88.92
364.779	27.48
364.99	58.2
365.201	82.77
365.412	-33.96
365.623	31.57
365.834	-3.24
366.045	39.76
366.256	35.67
366.467	47.96
366.678	35.67
366.889	35.67
367.1	52.05
367.311	29.52
367.522	39.76
367.733	-3.24
367.944	50
368.155	2.9
368.366	50
368.577	25.43
368.788	-21.67
368.999	31.57
369.209	60.24
369.42	47.96
369.631	101.2
369.842	47.96
370.053	-17.58
370.264	31.57
370.474	13.14
370.685	2.9
370.896	45.91
371.107	107.35
371.317	15.19
371.528	11.09
371.739	111.44
371.95	9.05
372.16	101.2
372.371	2.9
372.582	58.2
372.792	45.91
373.003	27.48
373.214	-1.19
373.424	138.07
373.635	-25.77
373.846	93.01
374.056	7
374.267	33.62
374.477	88.92
374.688	-1.19
374.898	-1.19
375.109	35.67
375.319	-36.01
375.53	35.67
375.74	19.29
375.951	13.14
376.161	-9.39
376.372	41.81
376.582	-5.29
376.793	25.43
377.003	-19.63
377.214	21.33
377.424	0.85
377.635	-46.25
377.845	-85.16
378.055	90.96
378.266	-42.15
378.476	47.96
378.686	15.19
378.897	-9.39
379.107	-11.43
379.317	17.24
379.528	33.62
379.738	37.72
379.948	23.38
380.158	54.1
380.369	68.44
380.579	101.2
380.789	70.48
380.999	70.48
381.21	60.24
381.42	117.59
381.63	86.87
381.84	15.19
382.05	-5.29
382.261	52.05
382.471	-7.34
382.681	-52.39
382.891	68.44
383.101	41.81
383.311	13.14
383.521	97.11
383.731	11.09
383.941	62.29
384.151	37.72
384.361	62.29
384.571	82.77
384.781	7
384.991	84.82
385.201	152.4
385.411	-19.63
385.621	41.81
385.831	-70.83
386.041	74.58
386.251	37.72
386.461	56.15
386.671	-42.15
386.881	84.82
387.091	4.95
387.301	64.34
387.511	64.34
387.72	-9.39
387.93	11.09
388.14	-13.48
388.35	-46.25
388.56	45.91
388.769	7
388.979	37.72
389.189	4.95
389.399	15.19
389.609	-1.19
389.818	58.2
390.028	133.97
390.238	-50.35
390.447	11.09
390.657	93.01
390.867	21.33
391.076	47.96
391.286	15.19
391.496	41.81
391.705	35.67
391.915	41.81
392.125	68.44
392.334	19.29
392.544	43.86
392.753	-58.54
392.963	31.57
393.172	11.09
393.382	13.14
393.591	68.44
393.801	39.76
394.01	29.52
394.22	54.1
394.429	84.82
394.639	103.25
394.848	-42.15
395.058	68.44
395.267	54.1
395.477	72.53
395.686	-5.29
395.895	133.97
396.105	88.92
396.314	-15.53
396.524	74.58
396.733	-5.29
396.942	9.05
397.152	-3.24
397.361	13.14
397.57	95.06
397.78	76.63
397.989	-40.11
398.198	45.91
398.407	43.86
398.617	47.96
398.826	47.96
399.035	31.57
399.244	84.82
399.453	-23.72
399.663	60.24
399.872	60.24
400.081	113.49
400.29	47.96
400.499	7
400.708	101.2
400.917	52.05
401.127	43.86
401.336	27.48
401.545	115.54
401.754	113.49
401.963	95.06
402.172	25.43
402.381	19.29
402.59	35.67
402.799	88.92
403.008	76.63
403.217	80.72
403.426	138.07
403.635	35.67
403.844	88.92
404.053	60.24
404.262	17.24
404.471	105.3
404.68	60.24
404.888	39.76
405.097	97.11
405.306	119.64
405.515	93.01
405.724	47.96
405.933	113.49
406.142	37.72
406.35	156.5
406.559	56.15
406.768	74.58
406.977	154.45
407.185	156.5
407.394	50
407.603	72.53
407.812	78.68
408.02	99.16
408.229	138.07
408.438	164.69
408.646	93.01
408.855	97.11
409.064	105.3
409.272	70.48
409.481	203.6
409.69	125.78
409.898	99.16
410.107	111.44
410.315	127.83
410.524	172.88
410.733	211.79
410.941	150.36
411.15	211.79
411.358	193.36
411.567	166.74
411.775	174.93
411.984	230.23
412.192	246.61
412.401	176.98
412.609	248.66
412.818	238.42
413.026	262.99
413.234	238.42
413.443	205.65
413.651	252.75
413.86	148.31
414.068	269.14
414.276	320.34
414.485	232.27
414.693	209.75
414.901	310.1
415.11	303.95
415.318	283.47
415.526	324.43
415.734	359.25
415.943	394.06
416.151	381.78
416.359	404.3
416.567	385.87
416.776	402.26
416.984	398.16
417.192	406.35
417.4	478.03
417.608	447.31
417.817	484.17
418.025	484.17
418.233	654.16
418.441	562
418.649	525.13
418.857	592.72
419.065	633.68
419.273	666.44
419.481	688.97
419.689	678.73
419.897	672.59
420.105	740.17
420.313	809.8
420.521	801.61
420.729	725.83
420.937	727.88
421.145	838.47
421.353	807.75
421.561	895.82
421.769	912.2
421.977	938.82
422.185	936.78
422.393	940.87
422.601	1002.31
422.809	1084.23
423.017	1022.79
423.224	1190.72
423.432	1137.48
423.64	1117
423.848	1223.49
424.056	1248.07
424.263	1354.56
424.471	1315.65
424.679	1327.94
424.887	1428.29
425.094	1499.97
425.302	1465.15
425.51	1481.53
425.718	1612.6
425.925	1485.63
426.133	1575.74
426.341	1688.38
426.548	1796.92
426.756	1729.34
426.964	1897.27
427.171	1909.56
427.379	2028.34
427.586	1983.29
427.794	2067.25
428.001	2130.74
428.209	2304.82
428.417	2345.78
428.624	2482.99
428.832	2376.5
429.039	2460.46
429.247	2341.68
429.454	2775.85
429.662	2775.85
429.869	2579.25
430.076	2798.38
430.284	2695.98
430.491	2874.15
430.699	2962.22
430.906	2970.41
431.114	2947.88
431.321	3173.16
431.528	3187.49
431.736	3367.71
431.943	3461.92
432.15	3521.31
432.358	3375.91
432.565	3740.44
432.772	3760.92
432.979	3904.28
433.187	3805.98
433.394	3797.79
433.601	4225.81
433.808	4326.16
434.016	4391.7
434.223	4350.74
434.43	4573.97
434.637	4567.82
434.844	4823.82
435.052	4766.48
435.259	4848.4
435.466	4983.56
435.673	4756.24
435.88	5102.34
436.087	5493.51
436.294	5610.24
436.501	5346.05
436.708	5346.05
436.915	5643.01
437.122	5827.32
437.329	5774.08
437.537	5968.63
437.743	6226.68
437.95	6202.1
438.157	6652.66
438.364	6763.25
438.571	6740.72
438.778	6607.6
438.985	7209.7
439.192	6847.21
439.399	7275.24
439.606	6970.09
439.813	7408.36
440.02	7850.72
440.227	7699.17
440.433	7740.13
440.64	7969.5
440.847	7877.34
441.054	8137.43
441.261	8848.08
441.467	8504.02
441.674	8751.82
441.881	9192.14
442.088	8979.15
442.294	8981.2
442.501	9095.88
442.708	9433.8
442.914	9790.14
443.121	10062.52
443.328	9786.05
443.534	10625.72
443.741	10343.1
443.948	9917.12
444.154	10857.14
444.361	10789.55
444.568	10875.57
444.774	10949.29
444.981	11047.6
445.187	11307.69
445.394	11854.5
445.6	11444.9
445.807	12802.71
446.013	12370.58
446.22	12460.7
446.426	12819.09
446.633	13036.17
446.839	13376.14
447.046	12839.57
447.252	13613.7
447.459	13578.89
447.665	13568.65
447.871	14289.53
448.078	14752.37
448.284	14064.25
448.491	14422.65
448.697	15016.56
448.903	15475.31
449.11	15377
449.316	14928.5
449.522	15415.91
449.728	15977.06
449.935	15970.91
450.141	15899.23
450.347	16443.99
450.553	15647.33
450.76	16022.11
450.966	16454.23
451.172	16398.94
451.378	16644.7
451.584	16435.8
451.791	16941.65
451.997	16847.44
452.203	17037.91
452.409	17125.97
452.615	16933.46
452.821	16527.96
453.027	16374.36
453.233	16867.92
453.44	16233.05
453.646	16591.45
453.852	16659.03
454.058	16865.88
454.264	16353.88
454.47	16769.62
454.676	16351.84
454.882	17175.12
455.088	15460.97
455.294	15854.18
455.5	15903.33
455.705	16188
455.911	15321.71
456.117	15288.94
456.323	14697.08
456.529	14418.55
456.735	14688.89
456.941	14310.01
457.147	14381.69
457.352	13752.96
457.558	13562.5
457.764	13759.11
457.97	13345.42
458.176	13281.93
458.381	13021.84
458.587	12335.77
458.793	12518.04
458.999	11725.47
459.204	12757.65
459.41	12145.31
459.616	11418.28
459.821	11563.68
460.027	11463.33
460.233	11254.44
460.438	10625.72
460.644	10777.26
460.85	10222.27
461.055	9939.65
461.261	10037.95
461.466	9482.95
461.672	9071.31
461.878	9654.98
462.083	9083.59
462.289	8893.13
462.494	8981.2
462.7	8549.07
462.905	8149.72
463.111	8491.73
463.316	8504.02
463.522	8258.26
463.727	8317.65
463.932	8397.53
464.138	8223.45
464.343	8227.54
464.549	8100.57
464.754	8141.53
464.959	8137.43
465.165	7996.12
465.37	7838.43
465.575	7533.28
465.781	7774.94
465.986	7996.12
466.191	7772.89
466.397	7365.35
466.602	7213.8
466.807	7396.07
467.012	7359.21
467.218	7314.15
467.423	7297.77
467.628	7232.23
467.833	7568.1
468.038	7400.16
468.244	7287.53
468.449	7398.12
468.654	7277.29
468.859	6906.6
469.064	7144.17
469.269	6830.83
469.474	6705.9
469.679	7135.98
469.885	6757.1
470.09	6722.29
470.295	6783.73
470.5	6501.11
470.705	6892.27
470.91	6591.22
471.115	6554.35
471.32	6691.57
471.525	6380.28
471.73	6372.08
471.935	6392.56
472.139	6134.52
472.344	6333.17
472.549	6161.14
472.754	6202.1
472.959	6044.41
473.164	5780.22
473.369	5823.23
473.574	5860.09
473.778	5944.06
473.983	5782.27
474.188	5749.5
474.393	5534.46
474.598	5804.8
474.802	5653.25
475.007	5614.34
475.212	5501.7
475.417	5278.47
475.621	5372.68
475.826	5393.16
476.031	5335.81
476.235	5362.44
476.44	5128.97
476.645	5028.62
476.849	5147.4
477.054	5047.05
477.259	4920.07
477.463	5055.24
477.668	4956.94
477.872	4852.49
478.077	4758.28
478.282	4705.04
478.486	4815.63
478.691	4647.69
478.895	4672.27
479.1	4668.17
479.304	4686.61
479.509	4442.9
479.713	4592.4
479.918	4623.12
480.122	4520.72
480.326	4379.41
480.531	4408.08
480.735	4375.31
480.94	4352.79
481.144	4498.19
481.348	4334.36
481.553	4393.75
481.757	4324.12
481.961	4256.53
482.166	4363.03
482.37	4389.65
482.574	4254.48
482.778	4219.67
482.983	4315.92
483.187	4281.11
483.391	4344.6
483.595	4248.34
483.8	4287.25
484.004	4358.93
484.208	4338.45
484.412	4358.93
484.616	4252.44
484.821	4147.99
485.025	4227.86
485.229	4324.12
485.433	4258.58
485.637	4320.02
485.841	4135.7
486.045	4272.92
486.249	4274.96
486.453	4227.86
486.657	4283.16
486.861	4291.35
487.065	3973.91
487.269	4203.29
487.473	4086.55
487.677	4360.98
487.881	4352.79
488.085	4393.75
488.289	4305.68
488.493	4217.62
488.697	4305.68
488.901	4305.68
489.105	4229.91
489.309	4254.48
489.512	4301.59
489.716	4348.69
489.92	4360.98
490.124	4293.4
490.328	4399.89
490.531	4201.24
490.735	4262.68
490.939	4473.62
491.143	4379.41
491.346	4324.12
491.55	4545.3
491.754	4442.9
491.958	4576.02
492.161	4270.87
492.365	4471.57
492.569	4438.8
492.772	4444.95
492.976	4576.02
493.18	4375.31
493.383	4451.09
493.587	4578.06
493.79	4684.56
493.994	4698.89
494.197	4559.63
494.401	4657.93
494.605	4705.04
494.808	4803.34
495.012	4850.44
495.215	4721.42
495.419	4846.35
495.622	4823.82
495.825	4897.55
496.029	5012.23
496.232	4995.85
496.436	4985.61
496.639	5063.43
496.843	5092.1
497.046	5233.41
497.249	5202.69
497.453	5214.98
497.656	5325.57
497.859	5229.32
498.063	5438.21
498.266	5575.42
498.469	5466.88
498.673	5516.03
498.876	5647.1
499.079	5528.32
499.282	5667.58
499.485	5880.57
499.689	5847.8
499.892	5870.33
500.095	5837.56
500.298	6038.27
500.501	6028.03
500.705	6073.08
500.908	6077.18
501.111	6310.65
501.314	6460.15
501.517	6308.6
501.72	6562.55
501.923	6638.32
502.126	6632.18
502.329	6830.83
502.532	6740.72
502.735	6859.5
502.938	6892.27
503.141	6845.16
503.344	7025.39
503.547	7115.5
503.75	7178.98
503.953	7279.33
504.156	7303.91
504.359	7477.99
504.562	7400.16
504.765	7836.38
504.968	7838.43
505.17	7570.15
505.373	7820
505.576	7893.72
505.779	8045.27
505.982	8092.38
506.185	8080.09
506.387	8190.68
506.59	8094.43
506.793	8381.14
506.996	8585.94
507.198	8532.69
507.401	8665.81
507.604	8807.12
507.807	8954.57
508.009	9011.92
508.212	8993.48
508.415	9093.83
508.617	9116.36
508.82	9145.03
509.022	9321.16
509.225	9661.12
509.428	9630.4
509.63	9683.65
509.833	9726.66
510.035	9896.64
510.238	9953.98
510.44	10023.61
510.643	10212.03
510.845	10455.73
511.048	10322.62
511.25	10478.26
511.453	10492.6
511.655	10928.81
511.858	10717.87
512.06	10791.6
512.262	10889.9
512.465	10941.1
512.667	11162.28
512.87	11465.38
513.072	11373.22
513.274	11455.14
513.477	11653.8
513.679	11621.03
513.881	11852.45
514.084	12128.92
514.286	11940.51
514.488	11997.85
514.69	12561.05
514.893	12366.49
515.095	12438.17
515.297	12610.2
515.499	12792.47
515.701	12948.11
515.904	13206.16
516.106	13292.17
516.308	13265.55
516.51	13445.77
516.712	13433.48
516.914	13673.09
517.116	14080.64
517.318	13841.03
517.52	14211.71
517.722	14101.12
517.925	14197.37
518.127	14111.36
518.329	14727.8
518.531	14539.38
518.733	15022.7
518.935	15139.44
519.136	15024.75
519.338	15422.06
519.54	15196.78
519.742	15546.98
519.944	15475.31
520.146	15690.34
520.348	15991.39
520.55	16009.83
520.752	16304.73
520.954	16691.8
521.155	16376.41
521.357	16663.13
521.559	16697.94
521.761	17044.05
521.963	17085.01
522.164	17121.87
522.366	17461.83
522.568	17496.65
522.77	17357.39
522.971	18203.2
523.173	17529.42
523.375	17832.52
523.576	18162.24
523.778	18188.86
523.98	18168.38
524.181	18446.91
524.383	18465.34
524.584	18702.9
524.786	18682.42
524.988	18704.95
525.189	19006
525.391	19192.37
525.592	19067.44
525.794	19108.4
525.995	19483.18
526.197	19599.91
526.398	19618.35
526.6	19792.42
526.801	19814.95
527.003	19997.22
527.204	20050.47
527.406	20494.88
527.607	20318.75
527.808	20623.9
528.01	20279.84
528.211	20417.05
528.412	20978.2
528.614	20773.4
528.815	21082.64
529.016	20929.05
529.218	20757.02
529.419	21002.77
529.62	21004.82
529.822	20804.12
530.023	21232.15
530.224	21213.71
530.425	21295.63
530.626	21041.68
530.828	21172.75
531.029	21746.19
531.23	21520.91
531.431	21443.09
531.632	21588.49
531.833	21684.75
532.035	21402.13
532.236	21725.71
532.437	21793.29
532.638	21473.81
532.839	21996.04
533.04	21854.73
533.241	21285.39
533.442	21897.74
533.643	22102.53
533.844	22075.91
534.045	22350.34
534.246	21871.11
534.447	22252.03
534.648	22125.06
534.849	22120.96
535.05	21811.72
535.251	22082.05
535.451	22055.43
535.652	22297.09
535.853	21873.16
536.054	22118.92
536.255	22333.95
536.456	22102.53
536.657	22333.95
536.857	22258.18
537.058	22024.71
537.259	22297.09
537.46	22239.75
537.66	22149.64
537.861	22237.7
538.062	22100.48
538.263	22352.38
538.463	22073.86
538.664	21971.46
538.865	22278.66
539.065	22526.46
539.266	22196.74
539.466	22356.48
539.667	22112.77
539.868	22473.21
540.068	22333.95
540.269	22133.25
540.469	22379.01
540.67	22254.08
540.87	22274.56
541.071	22409.73
541.271	22170.12
541.472	22057.48
541.672	22123.01
541.873	22002.18
542.073	21899.78
542.274	22434.3
542.474	22157.83
542.675	21948.93
542.875	22176.26
543.075	22333.95
543.276	22028.81
543.476	22376.96
543.676	22155.78
543.877	22469.12
544.077	22307.33
544.277	22108.68
544.478	22166.02
544.678	22270.47
544.878	22137.35
545.078	22123.01
545.279	22008.33
545.479	21977.61
545.679	22264.32
545.879	22141.44
546.079	22225.41
546.28	22155.78
546.48	22116.87
546.68	22129.16
546.88	22348.29
547.08	22073.86
547.28	22034.95
547.48	22080
547.68	22497.79
547.88	22196.74
548.081	22077.96
548.281	22225.41
548.481	21854.73
548.681	22014.47
548.881	22262.27
549.081	21975.56
549.28	21938.69
549.48	22088.2
549.68	21959.17
549.88	22149.64
550.08	21756.43
550.28	22209.03
550.48	21864.97
550.68	22256.13
550.88	21903.88
551.08	22112.77
551.279	22139.4
551.479	22032.9
551.679	22080
551.879	22155.78
552.079	22075.91
552.278	21735.95
552.478	21950.98
552.678	22077.96
552.878	21899.78
553.077	22141.44
553.277	21903.88
553.477	21891.59
553.676	21881.35
553.876	22065.67
554.076	21776.91
554.275	21871.11
554.475	21506.57
554.674	21574.16
554.874	22020.61
555.074	21684.75
555.273	21946.89
555.473	22006.28
555.672	21647.88
555.872	21576.2
556.071	21547.53
556.271	21645.84
556.47	21664.27
556.67	21314.06
556.869	21799.43
557.068	21654.03
557.268	21457.42
557.467	21369.36
557.667	21332.5
557.866	21455.37
558.065	21430.8
558.265	21201.43
558.464	21099.03
558.663	21547.53
558.863	20927
559.062	21219.86
559.261	20998.68
559.461	21207.57
559.66	20767.26
559.859	20927
560.058	21013.01
560.258	21105.17
560.457	21047.83
560.656	21070.36
560.855	20683.29
561.054	21090.84
561.253	20617.75
561.453	20777.5
561.652	20566.56
561.851	20554.27
562.05	20654.62
562.249	20269.6
562.448	20650.52
562.647	20625.95
562.846	20263.46
563.045	20275.74
563.244	20066.85
563.443	20703.77
563.642	19937.83
563.841	19970.6
564.04	19966.5
564.239	20255.26
564.438	19898.92
564.637	19718.7
564.836	19636.78
565.035	19644.97
565.234	19757.61
565.432	19507.76
565.631	19542.57
565.83	19651.11
566.029	19366.45
566.228	19595.82
566.427	19184.18
566.625	19368.49
566.824	18981.43
567.023	19028.53
567.222	19161.65
567.42	19518
567.619	19200.56
567.818	19132.98
568.016	18848.31
568.215	19024.44
568.414	18938.42
568.612	19104.31
568.811	18709.05
569.01	18618.94
569.208	18491.96
569.407	18815.54
569.605	18401.85
569.804	18586.17
570.002	18039.36
570.201	18321.98
570.4	18354.75
570.598	18068.03
570.797	17971.78
570.995	18139.71
571.193	18086.47
571.392	18233.92
571.59	17693.26
571.789	18020.93
571.987	17754.69
572.186	17908.29
572.384	17668.68
572.582	17836.61
572.781	17738.31
572.979	17113.68
573.177	17463.88
573.376	17449.55
573.574	17472.07
573.772	17484.36
573.971	17371.72
574.169	17168.98
574.367	17183.31
574.565	17109.58
574.763	16656.98
574.962	16925.27
575.16	16958.03
575.358	17105.49
575.556	16577.11
575.754	16831.06
575.952	16755.29
576.151	16845.4
576.349	16325.21
576.547	16546.39
576.745	16466.52
576.943	16380.51
577.141	16435.8
577.339	16290.4
577.537	16446.04
577.735	16421.47
577.933	16171.61
578.131	16239.2
578.329	16071.26
578.527	15966.82
578.725	16241.25
578.923	16026.21
579.121	15929.95
579.319	15966.82
579.516	15780.45
579.714	15948.39
579.912	15737.45
580.11	15710.82
580.308	15606.38
580.506	15575.66
580.704	15366.76
580.901	15485.55
581.099	15411.82
581.297	15358.57
581.495	15549.03
581.692	15288.94
581.89	15151.73
582.088	15243.88
582.285	15008.37
582.483	15483.5
582.681	15202.93
582.878	15061.62
583.076	14865.01
583.274	14875.25
583.471	14719.6
583.669	14934.64
583.866	14772.85
584.064	14692.98
584.262	14541.43
584.459	14553.72
584.657	14690.93
584.854	14764.66
585.052	14324.35
585.249	14432.89
585.447	14506.62
585.644	14451.32
585.841	14271.1
586.039	14490.23
586.236	14267
586.434	14084.73
586.631	14353.02
586.828	14076.54
587.026	14299.77
587.223	14099.07
587.42	13937.28
587.618	13951.62
587.815	13812.35
588.012	13898.37
588.21	13959.81
588.407	13914.75
588.604	13830.79
588.801	13574.79
588.999	13699.72
589.196	13763.2
589.393	13724.29
589.59	13546.12
589.787	13720.2
589.984	13525.64
590.182	13316.75
590.379	13519.5
590.576	13400.71
590.773	13413
590.97	13218.44
591.167	13216.4
591.364	13171.34
591.561	13492.87
591.758	13157
591.955	13130.38
592.152	13240.97
592.349	12944.02
592.546	12927.63
592.743	13114
592.94	12749.46
593.137	12780.18
593.334	12864.15
593.531	12620.44
593.727	12866.19
593.924	12751.51
594.121	12434.07
594.318	12583.57
594.515	12528.28
594.712	12563.09
594.908	12343.96
595.105	12612.24
595.302	12489.37
595.499	12335.77
595.696	12337.82
595.892	12257.95
596.089	12413.59
596.286	12251.8
596.482	12399.26
596.679	12122.78
596.876	12171.93
597.072	12004
597.269	12008.09
597.466	12034.72
597.662	12157.6
597.859	11924.13
598.055	11977.37
598.252	11915.94
598.448	11764.39
598.645	11768.48
598.841	11799.2
599.038	11850.4
599.234	11922.08
599.431	11547.3
599.627	11602.6
599.824	11807.39
600.02	11449
600.217	11661.99
600.413	11432.61
600.609	11692.71
600.806	11442.85
601.002	11475.62
601.198	11248.3
601.395	11338.41
601.591	11272.87
601.787	11211.43
601.984	11242.15
602.18	11270.83
602.376	11160.24
602.572	11086.51
602.769	11090.6
602.965	10838.7
603.161	10996.4
603.357	10894
603.553	11152.04
603.75	10939.05
603.946	10779.31
604.142	10957.49
604.338	10597.04
604.534	10760.88
604.73	10648.24
604.926	10760.88
605.122	10633.91
605.318	10640.05
605.514	10558.13
605.71	10515.12
605.906	10457.78
606.102	10476.21
606.298	10484.41
606.494	10377.91
606.69	10312.38
606.886	10398.39
607.082	10494.65
607.278	10357.43
607.474	10281.66
607.67	10255.03
607.866	10209.98
608.062	10332.86
608.257	10234.55
608.453	10085.05
608.649	10042.04
608.845	10099.39
609.041	10214.07
609.236	10113.72
609.432	10140.35
609.628	9962.17
609.824	10064.57
610.019	9943.74
610.215	10128.06
610.411	9913.02
610.606	10074.81
610.802	9908.93
610.998	9929.41
611.193	9720.51
611.389	9700.03
611.584	9724.61
611.78	9794.24
611.976	9861.82
612.171	9732.8
612.367	9728.7
612.562	9732.8
612.758	9513.67
612.953	9446.09
613.149	9878.21
613.344	9591.49
613.539	9669.31
613.735	9525.96
613.93	9616.07
614.126	9345.73
614.321	9605.83
614.517	9630.4
614.712	9405.13
614.907	9560.77
615.103	9450.18
615.298	9470.66
615.493	9476.8
615.688	9163.47
615.884	9706.18
616.079	9302.73
616.274	9327.3
616.47	9210.57
616.665	9448.13
616.86	9415.37
617.055	9364.17
617.25	9089.74
617.445	9312.97
617.641	8891.09
617.836	9272.01
618.031	9054.92
618.226	9165.51
618.421	9126.6
618.616	8936.14
618.811	8696.53
619.006	9136.84
619.201	8981.2
619.396	8790.74
619.591	8757.97
619.786	8886.99
619.981	8813.26
620.176	8731.34
620.371	8653.52
620.566	8569.55
620.761	8780.5
620.956	8645.33
621.151	8604.37
621.346	8542.93
621.541	8485.59
621.735	8430.29
621.93	8340.18
622.125	8375
622.32	8186.58
622.515	8329.94
622.709	8186.58
622.904	8276.7
623.099	8180.44
623.294	8303.32
623.488	8090.33
623.683	7946.97
623.878	7916.25
624.072	7985.88
624.267	7992.03
624.462	7852.77
624.656	7809.76
624.851	8043.23
625.046	7699.17
625.24	7811.81
625.435	7594.72
625.629	7789.28
625.824	7541.47
626.018	7568.1
626.213	7492.32
626.407	7371.49
626.602	7412.45
626.796	7287.53
626.991	7357.16
627.185	7351.01
627.38	7240.42
627.574	7187.18
627.768	7199.46
627.963	7131.88
628.157	7148.26
628.352	7099.11
628.546	6992.62
628.74	7004.91
628.935	6955.76
629.129	6843.12
629.323	6746.86
629.517	6945.52
629.712	6947.56
629.906	6527.73
630.1	6693.62
630.294	6783.73
630.489	6630.13
630.683	6580.98
630.877	6589.17
631.071	6640.37
631.265	6630.13
631.459	6525.68
631.653	6392.56
631.848	6484.72
632.042	6386.42
632.236	6220.53
632.43	6339.32
632.624	6304.5
632.818	6261.49
633.012	6216.44
633.206	6144.76
633.4	6257.4
633.594	6165.24
633.788	6122.23
633.982	6193.91
634.176	6025.98
634.369	6030.07
634.563	5868.28
634.757	5839.61
634.951	5860.09
635.145	6007.55
635.339	5892.86
635.533	5968.63
635.726	5823.23
635.92	5720.83
636.114	5858.04
636.308	5565.18
636.501	5831.42
636.695	5710.59
636.889	5776.13
637.083	5577.47
637.276	5491.46
637.47	5475.07
637.664	5524.23
637.857	5479.17
638.051	5489.41
638.244	5448.45
638.438	5313.28
638.632	5374.72
638.825	5374.72
639.019	5368.58
639.212	5212.93
639.406	5276.42
639.599	5096.2
639.793	5305.09
639.986	5061.38
640.18	5202.69
640.373	5249.8
640.567	5094.15
640.76	4985.61
640.954	5004.04
641.147	4985.61
641.34	5118.73
641.534	5036.81
641.727	4987.66
641.92	4909.83
642.114	4764.43
642.307	4920.07
642.5	4881.16
642.694	4782.86
642.887	4733.71
643.08	4772.62
643.273	4778.76
643.467	4680.46
643.66	4713.23
643.853	4576.02
644.046	4889.35
644.239	4543.25
644.432	4559.63
644.626	4420.37
644.819	4471.57
645.012	4526.86
645.205	4490
645.398	4649.74
645.591	4465.43
645.784	4444.95
645.977	4291.35
646.17	4528.91
646.363	4283.16
646.556	4264.72
646.749	4225.81
646.942	4324.12
647.135	4160.28
647.328	4213.53
647.521	4160.28
647.714	3928.86
647.907	4211.48
648.099	4035.35
648.292	4338.45
648.485	4147.99
648.678	4023.06
648.871	4066.07
649.064	3949.34
649.256	3912.47
649.449	4084.5
649.642	3996.44
649.835	3982.1
650.027	3998.49
650.22	3894.04
650.413	3863.32
650.605	3871.51
650.798	3908.38
650.991	3795.74
651.183	3844.89
651.376	3750.68
651.568	3760.92
651.761	3746.59
651.954	3699.48
652.146	3529.5
652.339	3711.77
652.531	3668.77
652.724	3662.62
652.916	3500.83
653.109	3760.92
653.301	3613.47
653.494	3631.9
653.686	3515.17
653.879	3560.22
654.071	3490.59
654.263	3535.65
654.456	3552.03
654.648	3488.54
654.84	3478.3
655.033	3328.8
655.225	3361.57
655.417	3267.36
655.61	3314.47
655.802	3310.37
655.994	3332.9
656.186	3418.91
656.379	3380
656.571	3298.08
656.763	3310.37
656.955	3300.13
657.148	3261.22
657.34	3205.92
657.532	3136.29
657.724	3193.64
657.916	3201.83
658.108	3150.63
658.3	3257.12
658.492	3187.49
658.684	3150.63
658.876	3107.62
659.068	3136.29
659.26	3132.2
659.452	3136.29
659.644	3089.19
659.836	3023.66
660.028	2990.89
660.22	2968.36
660.412	3015.46
660.604	2982.7
660.796	2906.92
660.988	2857.77
661.18	2929.45
661.372	2898.73
661.563	2939.69
661.755	2951.98
661.947	2745.13
662.139	2894.63
662.331	3009.32
662.522	2923.3
662.714	2935.59
662.906	2921.26
663.097	2779.95
663.289	2853.67
663.481	2784.04
663.673	2724.65
663.864	2743.08
664.056	2663.21
664.247	2665.26
664.439	2749.23
664.631	2685.74
664.822	2718.51
665.014	2679.6
665.205	2646.83
665.397	2630.45
665.588	2736.94
665.78	2743.08
665.971	2591.53
666.163	2626.35
666.354	2624.3
666.546	2546.48
666.737	2485.04
666.929	2569.01
667.12	2538.29
667.311	2507.57
667.503	2517.81
667.694	2417.46
667.885	2548.53
668.077	2485.04
668.268	2511.66
668.459	2493.23
668.651	2560.81
668.842	2417.46
669.033	2487.09
669.224	2368.31
669.416	2446.13
669.607	2405.17
669.798	2347.83
669.989	2476.85
670.18	2390.83
670.371	2487.09
670.563	2403.12
670.754	2415.41
670.945	2419.5
671.136	2329.39
671.327	2364.21
671.518	2523.95
671.709	2429.74
671.9	2503.47
672.091	2372.4
672.282	2374.45
672.473	2419.5
672.664	2300.72
672.855	2306.87
673.046	2333.49
673.237	2310.96
673.428	2239.28
673.619	2370.35
673.809	2358.07
674	2306.87
674.191	2210.61
674.382	2296.63
674.573	2321.2
674.764	2378.55
674.954	2349.87
675.145	2329.39
675.336	2194.23
675.527	2270
675.717	2280.24
675.908	2296.63
676.099	2190.13
676.289	2296.63
676.48	2194.23
676.671	2286.39
676.861	2257.71
677.052	2255.67
677.243	2128.69
677.433	2243.38
677.624	2272.05
677.814	2194.23
678.005	2294.58
678.195	2392.88
678.386	2227
678.576	2186.04
678.767	2190.13
678.957	2157.36
679.148	2227
679.338	2188.08
679.529	2278.19
679.719	2161.46
679.909	2220.85
680.1	2206.52
680.29	2188.08
680.481	2210.61
680.671	2315.06
680.861	2300.72
681.052	2239.28
681.242	2175.8
681.432	2278.19
681.622	2208.56
681.813	2222.9
682.003	2175.8
682.193	2274.1
682.383	2315.06
682.573	2186.04
682.764	2329.39
682.954	2188.08
683.144	2159.41
683.334	2208.56
683.524	2196.28
683.714	2257.71
683.904	2110.26
684.094	2261.81
684.284	2202.42
684.474	2161.46
684.664	2206.52
684.854	2136.88
685.044	2149.17
685.234	2190.13
685.424	2169.65
685.614	2085.69
685.804	2085.69
685.994	2161.46
686.184	2138.93
686.374	2206.52
686.564	2063.16
686.753	2110.26
686.943	2069.3
687.133	2108.21
687.323	2134.84
687.513	2104.12
687.702	2079.54
687.892	2005.81
688.082	1979.19
688.272	2100.02
688.461	2114.36
688.651	2167.6
688.841	2153.27
689.03	2007.86
689.22	1942.33
689.41	2048.82
689.599	1960.76
689.789	2089.78
689.979	2057.01
690.168	1837.88
690.358	2040.63
690.547	1995.57
690.737	1913.66
690.926	2024.25
691.116	1870.65
691.305	1948.47
691.495	1966.9
691.684	1991.48
691.874	1923.9
692.063	1884.98
692.252	1958.71
692.442	2028.34
692.631	1891.13
692.82	1872.7
693.01	1899.32
693.199	1901.37
693.388	1809.21
693.578	1991.48
693.767	1874.74
693.956	1803.07
694.146	1737.53
694.335	1794.87
694.524	1870.65
694.713	1884.98
694.902	1827.64
695.092	1686.33
695.281	1833.79
695.47	1772.35
695.659	1835.83
695.848	1688.38
696.037	1669.95
696.226	1870.65
696.415	1747.77
696.604	1815.35
696.793	1741.63
696.982	1743.67
697.171	1749.82
697.36	1774.39
697.549	1778.49
697.738	1678.14
697.927	1745.72
698.116	1821.5
698.305	1796.92
698.494	1680.19
698.683	1827.64
698.872	1764.15
699.061	1708.86
699.25	1753.91
699.438	1715
699.627	1731.39
699.816	1712.96
700.005	1690.43
700.193	1739.58
700.382	1831.74
700.571	1723.2
700.76	1807.16
700.948	1815.35
701.137	1743.67
701.326	1647.42
701.514	1846.07
701.703	1848.12
701.892	1829.69
702.08	1760.06
702.269	1831.74
702.457	1733.43
702.646	1727.29
702.834	1780.54
703.023	1788.73
703.212	1932.09
703.4	1864.5
703.589	1739.58
703.777	1817.4
703.965	1829.69
704.154	1801.02
704.342	1672
704.531	1794.87
704.719	1809.21
704.907	1819.45
705.096	1702.72
705.284	1688.38
705.472	1887.03
705.661	1831.74
705.849	1753.91
706.037	1809.21
706.226	1628.99
706.414	1911.61
706.602	1790.78
706.79	1821.5
706.979	1811.26
707.167	1844.03
707.355	1866.55
707.543	1694.52
707.731	1852.22
707.919	1788.73
708.107	1741.63
708.296	1903.42
708.484	1817.4
708.672	1755.96
708.86	1733.43
709.048	1882.94
709.236	1719.1
709.424	1766.2
709.612	1887.03
709.8	1745.72
709.988	1796.92
710.176	1762.11
710.364	1876.79
710.551	1788.73
710.739	1780.54
710.927	1919.8
711.115	1864.5
711.303	1897.27
711.491	1925.94
711.679	1846.07
711.866	1741.63
712.054	1846.07
712.242	1911.61
712.43	1860.41
712.617	1821.5
712.805	1876.79
712.993	1870.65
713.181	1927.99
713.368	1831.74
713.556	1919.8
713.744	1825.59
713.931	1884.98
714.119	1829.69
714.306	1889.08
714.494	2038.58
714.682	1979.19
714.869	1860.41
715.057	1874.74
715.244	1987.38
715.432	1876.79
715.619	1966.9
715.807	1917.75
715.994	1971
716.182	1876.79
716.369	1975.1
716.556	1870.65
716.744	1995.57
716.931	1985.34
717.119	2034.49
717.306	1850.17
717.493	1921.85
717.681	1923.9
717.868	1915.7
718.055	1958.71
718.242	1971
718.43	1950.52
718.617	1944.38
718.804	1858.36
718.991	1958.71
719.179	2030.39
719.366	1846.07
719.553	2028.34
719.74	1958.71
719.927	1993.53
720.114	2011.96
720.301	1962.81
720.488	2009.91
720.676	1930.04
720.863	1913.66
721.05	2061.11
721.237	2069.3
721.424	2057.01
721.611	2079.54
721.798	2059.06
721.985	2061.11
722.172	2095.93
722.358	2097.97
722.545	2048.82
722.732	2077.49
722.919	2054.97
723.106	2061.11
723.293	2079.54
723.48	2169.65
723.667	2071.35
723.853	2120.5
724.04	2140.98
724.227	2251.57
724.414	2132.79
724.6	2007.86
724.787	2067.25
724.974	2112.31
725.161	2052.92
725.347	2122.55
725.534	2036.53
725.72	2065.21
725.907	2030.39
726.094	2126.64
726.28	2124.6
726.467	2112.31
726.653	2063.16
726.84	2007.86
727.027	2196.28
727.213	1981.24
727.4	2112.31
727.586	2120.5
727.773	2165.56
727.959	2057.01
728.145	2100.02
728.332	2210.61
728.518	2079.54
728.705	2130.74
728.891	2132.79
729.077	2155.32
729.264	2118.45
729.45	2147.12
729.636	2159.41
729.823	2102.07
730.009	2167.6
730.195	2239.28
730.382	2087.73
730.568	2155.32
730.754	2124.6
730.94	2116.41
731.126	2181.94
731.313	2149.17
731.499	2143.03
731.685	2128.69
731.871	2153.27
732.057	2194.23
732.243	2263.86
732.429	2214.71
732.615	2243.38
732.801	2100.02
732.987	2224.95
733.173	2257.71
733.359	2093.88
733.545	2194.23
733.731	2001.72
733.917	2200.37
734.103	2087.73
734.289	2206.52
734.475	2169.65
734.661	2163.51
734.847	2124.6
735.033	2310.96
735.219	2323.25
735.404	2208.56
735.59	2227
735.776	2212.66
735.962	2181.94
736.148	2251.57
736.333	2231.09
736.519	2153.27
736.705	2267.95
736.89	2245.43
737.076	2257.71
737.262	2212.66
737.447	2229.04
737.633	2210.61
737.819	2315.06
738.004	2085.69
738.19	2134.84
738.375	2177.84
738.561	2192.18
738.747	2075.45
738.932	2149.17
739.118	2313.01
739.303	2132.79
739.489	2212.66
739.674	2177.84
739.859	2036.53
740.045	2167.6
740.23	2194.23
740.416	2235.19
740.601	2143.03
740.786	2145.08
740.972	2171.7
741.157	2132.79
741.342	2100.02
741.528	2235.19
741.713	2183.99
741.898	2130.74
742.084	2089.78
742.269	2255.67
742.454	2044.73
742.639	2102.07
742.824	2011.96
743.01	2196.28
743.195	2192.18
743.38	2085.69
743.565	2069.3
743.75	2032.44
743.935	2061.11
744.12	2104.12
744.305	1952.57
744.49	1936.18
744.675	2079.54
744.86	2028.34
745.045	2073.4
745.23	1985.34
745.415	1966.9
745.6	2077.49
745.785	1981.24
745.97	2075.45
746.155	1895.22
746.34	1846.07
746.525	1925.94
746.71	2009.91
746.895	1936.18
747.079	1942.33
747.264	1946.42
747.449	1862.46
747.634	1909.56
747.819	1927.99
748.003	1895.22
748.188	1927.99
748.373	1778.49
748.557	1760.06
748.742	1837.88
748.927	1778.49
749.111	1762.11
749.296	1844.03
749.481	1803.07
749.665	1813.31
749.85	1739.58
750.034	1745.72
750.219	1774.39
750.404	1706.81
750.588	1739.58
750.773	1749.82
750.957	1780.54
751.141	1737.53
751.326	1776.44
751.51	1733.43
751.695	1686.33
751.879	1628.99
752.064	1817.4
752.248	1717.05
752.432	1614.65
752.617	1575.74
752.801	1553.21
752.985	1682.24
753.17	1551.17
753.354	1559.36
753.538	1692.48
753.722	1536.83
753.907	1545.02
754.091	1547.07
754.275	1456.96
754.459	1456.96
754.643	1487.68
754.828	1459.01
755.012	1448.77
755.196	1424.19
755.38	1504.06
755.564	1475.39
755.748	1590.08
755.932	1438.53
756.116	1377.09
756.3	1424.19
756.484	1424.19
756.668	1362.75
756.852	1342.27
757.036	1450.82
757.22	1295.17
757.404	1379.14
757.588	1364.8
757.772	1389.38
757.956	1358.66
758.14	1280.83
758.323	1276.74
758.507	1368.9
758.691	1305.41
758.875	1319.75
759.059	1221.44
759.242	1237.83
759.426	1227.59
759.61	1200.96
759.794	1334.08
759.977	1256.26
760.161	1291.07
760.345	1203.01
760.528	1162.05
760.712	1194.82
760.895	1229.63
761.079	1215.3
761.263	1151.81
761.446	1157.96
761.63	1149.76
761.813	1207.11
761.997	1172.29
762.18	1170.24
762.364	1196.87
762.547	1125.19
762.731	1096.52
762.914	1170.24
763.098	1073.99
763.281	1096.52
763.464	1129.28
763.648	1106.76
763.831	1100.61
764.015	1028.93
764.198	1149.76
764.381	1100.61
764.564	1102.66
764.748	1020.74
764.931	1037.13
765.114	1053.51
765.297	1063.75
765.481	897.86
765.664	1073.99
765.847	1002.31
766.03	1004.36
766.213	1014.6
766.397	994.12
766.58	985.93
766.763	965.45
766.946	1051.46
767.129	957.25
767.312	1010.5
767.495	944.97
767.678	998.21
767.861	992.07
768.044	936.78
768.227	1018.69
768.41	938.82
768.593	1004.36
768.776	889.67
768.959	1000.26
769.142	938.82
769.324	1004.36
769.507	973.64
769.69	922.44
769.873	961.35
770.056	953.16
770.239	953.16
770.421	1022.79
770.604	813.9
770.787	807.75
770.97	977.73
771.152	815.94
771.335	881.48
771.518	828.23
771.7	828.23
771.883	889.67
772.066	828.23
772.248	934.73
772.431	930.63
772.613	781.13
772.796	844.62
772.978	875.34
773.161	822.09
773.343	811.85
773.526	828.23
773.708	797.51
773.891	783.18
774.073	834.38
774.256	779.08
774.438	828.23
774.621	789.32
774.803	748.36
774.985	783.18
775.168	762.7
775.35	695.11
775.532	801.61
775.715	779.08
775.897	760.65
776.079	709.45
776.261	781.13
776.444	791.37
776.626	727.88
776.808	734.03
776.99	650.06
777.173	697.16
777.355	709.45
777.537	715.59
777.719	766.79
777.901	746.31
778.083	623.44
778.265	613.2
778.447	639.82
778.629	707.4
778.811	676.68
778.993	623.44
779.175	666.44
779.357	625.48
779.539	566.09
779.721	621.39
779.903	668.49
780.085	600.91
780.267	609.1
780.449	559.95
780.631	611.15
780.812	590.67
780.994	568.14
781.176	553.8
781.358	564.04
781.54	607.05
781.721	602.96
781.903	555.85
782.085	576.33
782.267	637.77
782.448	514.89
782.63	430.93
782.812	529.23
782.993	582.48
783.175	625.48
783.357	500.56
783.538	506.7
783.72	543.57
783.901	506.7
784.083	508.75
784.264	539.47
784.446	469.84
784.627	494.41
784.809	502.61
784.99	498.51
785.172	500.56
785.353	510.8
785.535	471.89
785.716	500.56
785.897	435.02
786.079	383.82
786.26	457.55
786.441	420.69
786.623	455.5
786.804	447.31
786.985	453.45
787.167	412.5
787.348	336.72
787.529	428.88
787.71	443.21
787.891	420.69
788.073	408.4
788.254	398.16
788.435	484.17
788.616	373.58
788.797	392.02
788.978	385.87
789.159	416.59
789.34	445.26
789.522	375.63
789.703	394.06
789.884	338.77
790.065	418.64
790.246	443.21
790.427	400.21
790.607	406.35
790.788	396.11
790.969	330.58
791.15	385.87
791.331	381.78
791.512	342.86
791.693	316.24
791.874	299.86
792.054	320.34
792.235	402.26
792.416	332.62
792.597	389.97
792.778	332.62
792.958	328.53
793.139	340.82
793.32	344.91
793.5	330.58
793.681	383.82
793.862	402.26
794.042	318.29
794.223	285.52
794.404	359.25
794.584	355.15
794.765	240.47
794.945	412.5
795.126	322.38
795.306	326.48
795.487	273.23
795.667	303.95
795.848	328.53
796.028	265.04
796.209	314.19
796.389	230.23
796.57	289.62
796.75	242.51
796.93	283.47
797.111	242.51
797.291	248.66
797.471	258.9
797.652	287.57
797.832	230.23
798.012	303.95
798.192	238.42
798.373	219.99
798.553	256.85
798.733	289.62
798.913	285.52
799.093	260.95
799.274	205.65
799.454	252.75
799.634	289.62
799.814	262.99
799.994	332.62
800.174	248.66
800.354	217.94
800.534	213.84
800.714	291.66
800.894	275.28
801.074	185.17
801.254	197.46
801.434	250.71
801.614	258.9
801.794	170.83
801.974	607.05
802.154	283.47
802.334	211.79
802.514	224.08
802.693	174.93
802.873	199.51
803.053	179.03
803.233	213.84
803.413	205.65
803.592	260.95
803.772	211.79
803.952	201.55
804.131	123.73
804.311	240.47
804.491	199.51
804.67	205.65
804.85	160.59
805.03	131.92
805.209	242.51
805.389	217.94
805.568	144.21
805.748	156.5
805.928	193.36
806.107	172.88
806.287	154.45
806.466	262.99
806.646	179.03
806.825	115.54
807.004	144.21
807.184	123.73
807.363	224.08
807.543	201.55
807.722	219.99
807.901	166.74
808.081	205.65
808.26	113.49
808.439	187.22
808.619	281.43
808.798	176.98
808.977	191.31
809.156	156.5
809.336	189.27
809.515	172.88
809.694	131.92
809.873	183.12
810.052	191.31
810.231	193.36
810.411	158.55
810.59	195.41
810.769	201.55
810.948	176.98
811.127	146.26
811.306	136.02
811.485	172.88
811.664	217.94
811.843	152.4
812.022	88.92
812.201	168.79
812.38	109.4
812.559	133.97
812.737	115.54
812.916	170.83
813.095	95.06
813.274	146.26
813.453	138.07
813.632	117.59
813.811	158.55
813.989	176.98
814.168	174.93
814.347	129.88
814.526	146.26
814.704	179.03
814.883	211.79
815.062	80.72
815.24	150.36
815.419	174.93
815.598	123.73
815.776	123.73
815.955	105.3
816.133	115.54
816.312	158.55
816.49	138.07
816.669	140.12
816.847	174.93
817.026	133.97
817.204	101.2
817.383	162.64
817.561	154.45
817.74	142.16
817.918	193.36
818.097	138.07
818.275	105.3
818.453	179.03
818.632	185.17
818.81	156.5
818.988	52.05
819.167	115.54
819.345	115.54
819.523	162.64
819.701	109.4
819.879	127.83
820.058	101.2
820.236	103.25
820.414	127.83
820.592	88.92
820.77	119.64
820.948	115.54
821.127	133.97
821.305	125.78
821.483	97.11
821.661	146.26
821.839	66.39
822.017	109.4
822.195	117.59
822.373	119.64
822.551	181.07
822.729	109.4
822.907	62.29
823.085	90.96
823.262	64.34
823.44	72.53
823.618	138.07
823.796	119.64
823.974	99.16
824.152	43.86
824.329	52.05
824.507	58.2
824.685	140.12
824.863	13.14
825.04	90.96
825.218	150.36
825.396	29.52
825.574	95.06
825.751	136.02
825.929	166.74
826.107	50
826.284	50
826.462	72.53
826.639	43.86
826.817	64.34
826.994	76.63
827.172	78.68
827.349	121.68
827.527	109.4
827.704	125.78
827.882	154.45
828.059	107.35
828.237	93.01
828.414	144.21
828.591	35.67
828.769	123.73
828.946	70.48
829.124	158.55
829.301	111.44
829.478	78.68
829.655	84.82
829.833	160.59
830.01	-3.24
830.187	43.86
830.364	119.64
830.542	117.59
830.719	35.67
830.896	50
831.073	54.1
831.25	144.21
831.427	150.36
831.604	101.2
831.782	84.82
831.959	35.67
832.136	107.35
832.313	123.73
832.49	43.86
832.667	62.29
832.844	78.68
833.021	52.05
833.198	150.36
833.374	115.54
833.551	82.77
833.728	127.83
833.905	123.73
834.082	50
834.259	21.33
834.436	72.53
834.612	68.44
834.789	174.93
834.966	64.34
835.143	115.54
835.319	19.29
835.496	31.57
835.673	90.96
835.85	68.44
836.026	21.33
836.203	54.1
836.38	-5.29
836.556	76.63
836.733	64.34
836.909	93.01
837.086	64.34
837.262	15.19
837.439	72.53
837.616	35.67
837.792	37.72
837.968	113.49
838.145	68.44
838.321	117.59
838.498	-21.67
838.674	64.34
838.851	88.92
839.027	76.63
839.203	121.68
839.38	129.88
839.556	74.58
839.732	113.49
839.909	70.48
840.085	86.87
840.261	56.15
840.437	41.81
840.614	41.81
840.79	41.81
840.966	68.44
841.142	113.49
841.318	-11.43
841.494	93.01
841.671	9.05
841.847	105.3
842.023	84.82
842.199	56.15
842.375	95.06
842.551	131.92
842.727	-19.63
842.903	68.44
843.079	4.95
843.255	117.59
843.431	127.83
843.607	47.96
843.783	35.67
843.959	27.48
844.134	31.57
844.31	97.11
844.486	45.91
844.662	31.57
844.838	7
845.013	50
845.189	68.44
845.365	66.39
845.541	72.53
845.716	56.15
845.892	33.62
846.068	74.58
846.244	-46.25
846.419	86.87
846.595	-7.34
846.77	-36.01
846.946	62.29
847.122	99.16
847.297	66.39
847.473	97.11
847.648	60.24
847.824	58.2
847.999	37.72
848.175	58.2
848.35	0.85
848.526	101.2
848.701	78.68
848.876	25.43
849.052	62.29
849.227	2.9
849.403	0.85
849.578	74.58
849.753	17.24
849.929	56.15
850.104	52.05
850.279	31.57
850.454	2.9
850.63	58.2
850.805	-33.96
850.98	41.81
851.155	29.52
851.33	21.33
851.505	7
851.681	86.87
851.856	41.81
852.031	52.05
852.206	56.15
852.381	29.52
852.556	-72.87
852.731	47.96
852.906	43.86
853.081	15.19
853.256	68.44
853.431	21.33
853.606	0.85
853.781	70.48
853.956	21.33
854.131	-3.24
854.305	-1.19
854.48	33.62
854.655	31.57
854.83	72.53
855.005	35.67
855.18	29.52
855.354	80.72
855.529	-7.34
855.704	27.48
855.879	70.48
856.053	31.57
856.228	29.52
856.403	-76.97
856.577	33.62
856.752	-7.34
856.926	-21.67
857.101	35.67
857.276	-83.11
857.45	11.09
857.625	123.73
857.799	66.39
857.974	-21.67
858.148	21.33
858.323	9.05
858.497	31.57
858.672	0.85
858.846	-38.06
859.02	9.05
859.195	17.24
859.369	50
859.543	19.29
859.718	19.29
859.892	33.62
860.066	47.96
860.241	21.33
860.415	56.15
860.589	37.72
860.763	90.96
860.938	17.24
861.112	60.24
861.286	31.57
861.46	39.76
861.634	35.67
861.808	31.57
861.982	-15.53
862.157	-83.11
862.331	95.06
862.505	-11.43
862.679	31.57
862.853	-3.24
863.027	29.52
863.201	68.44
863.375	-27.82
863.549	-13.48
863.722	82.77
863.896	62.29
864.07	50
864.244	54.1
864.418	9.05
864.592	29.52
864.766	-13.48
864.939	-5.29
865.113	-5.29
865.287	31.57
865.461	9.05
865.634	-3.24
865.808	31.57
865.982	56.15
866.156	-25.77
866.329	72.53
866.503	-19.63
866.676	58.2
866.85	95.06
867.024	64.34
867.197	2.9
867.371	-15.53
867.544	9.05
867.718	54.1
867.891	50
868.065	43.86
868.238	19.29
868.412	84.82
868.585	4.95
868.759	82.77
868.932	13.14
869.105	72.53
869.279	74.58
869.452	82.77
869.625	11.09
869.799	-33.96
869.972	-21.67
870.145	101.2
870.319	58.2
870.492	-3.24
870.665	-15.53
870.838	21.33
871.011	-15.53
871.185	2.9
871.358	-50.35
871.531	17.24
871.704	-56.49
871.877	45.91
872.05	-38.06
872.223	-11.43
872.396	-111.78
872.569	-7.34
872.742	-13.48
872.915	52.05
873.088	68.44
873.261	-23.72
873.434	52.05
873.607	0.85
873.78	56.15
873.953	-23.72
874.126	39.76
874.299	31.57
874.471	-3.24
874.644	-21.67
874.817	117.59
874.99	76.63
875.163	19.29
875.335	101.2
875.508	23.38
875.681	43.86
875.853	-3.24
876.026	11.09
876.199	15.19
876.371	13.14
876.544	-3.24
876.717	41.81
876.889	31.57
877.062	23.38
877.234	-19.63
877.407	11.09
877.579	-13.48
877.752	-7.34
877.924	-9.39
878.097	62.29
878.269	-11.43
878.442	-3.24
878.614	-38.06
878.786	17.24
878.959	64.34
879.131	27.48
879.303	15.19
879.476	-46.25
879.648	56.15
879.82	76.63
879.993	35.67
880.165	50
880.337	-1.19
880.509	-5.29
880.681	-13.48
880.854	41.81
881.026	31.57
881.198	90.96
881.37	-42.15
881.542	31.57
881.714	56.15
881.886	-19.63
882.058	47.96
882.23	-9.39
882.402	-17.58
882.574	88.92
882.746	27.48
882.918	52.05
883.09	19.29
883.262	27.48
883.434	15.19
883.606	15.19
883.778	19.29
883.95	45.91
884.122	-11.43
884.293	37.72
884.465	-40.11
884.637	27.48
884.809	-13.48
884.98	19.29
885.152	-50.35
885.324	11.09
885.496	11.09
885.667	-11.43
885.839	-15.53
886.011	0.85
886.182	21.33
886.354	-1.19
886.525	23.38
886.697	-23.72
886.869	-89.26
887.04	41.81
887.212	-15.53
887.383	23.38
887.555	45.91
887.726	-13.48
887.897	-81.07
888.069	-27.82
888.24	13.14
888.412	-15.53
888.583	56.15
888.754	17.24
888.926	-1.19
889.097	-52.39
889.268	-19.63
889.44	-19.63
889.611	-13.48
889.782	15.19
889.953	2.9
890.125	33.62
890.296	15.19
890.467	-15.53
890.638	-25.77
890.809	97.11
890.98	31.57
891.151	-11.43
891.323	47.96
891.494	4.95
891.665	-17.58
891.836	35.67
892.007	27.48
892.178	-36.01
892.349	-64.68
892.52	17.24
892.691	52.05
892.862	4.95
893.032	-48.3
893.203	-9.39
893.374	-21.67
893.545	-3.24
893.716	-56.49
893.887	-27.82
894.057	15.19
894.228	-9.39
894.399	-31.91
894.57	74.58
894.74	45.91
894.911	-9.39
895.082	-46.25
895.253	11.09
895.423	-38.06
895.594	121.68
895.764	-5.29
895.935	-70.83
896.106	50
896.276	29.52
896.447	9.05
896.617	-23.72
896.788	-38.06
896.958	62.29
897.129	33.62
897.299	-42.15
897.47	35.67
897.64	2.9
897.81	2.9
897.981	35.67
898.151	-11.43
898.322	23.38
898.492	50
898.662	0.85
898.832	41.81
899.003	-27.82
899.173	68.44
899.343	54.1
899.513	-27.82
