Data from USB4F104151__37__11-44-57-031.txt Node

Date: Fri Mar 14 11:44:57 EDT 2025
User: louis
Spectrometer: USB4F10415
Trigger mode: 4
Integration Time (sec): 2.000000E-2
Scans to average: 1
Electric dark correction enabled: true
Nonlinearity correction enabled: false
Boxcar width: 0
XAxis mode: Wavelengths
Number of Pixels in Spectrum: 3648
>>>>>Begin Spectral Data<<<<<
178.204	-120.83
178.424	-120.83
178.644	-120.83
178.864	-114.69
179.084	-81.92
179.304	-22.53
179.524	-12.29
179.744	-65.54
179.964	63.49
180.184	-57.34
180.404	-16.38
180.624	65.53
180.844	65.53
181.064	-22.53
181.283	-2.05
181.503	18.43
181.723	-14.34
181.943	8.19
182.163	55.3
182.383	55.3
182.602	38.91
182.822	28.67
183.042	-36.86
183.262	32.77
183.482	-59.39
183.701	2.05
183.921	20.48
184.141	16.38
184.361	30.72
184.58	-55.3
184.8	28.67
185.02	30.72
185.239	141.31
185.459	22.53
185.679	12.29
185.898	-8.19
186.118	34.82
186.338	2.05
186.557	24.58
186.777	-53.25
186.997	65.53
187.216	45.06
187.436	98.3
187.655	-12.29
187.875	-12.29
188.095	26.62
188.314	43.01
188.534	69.63
188.753	26.62
188.973	49.15
189.192	-34.82
189.412	55.3
189.631	8.19
189.851	16.38
190.07	20.48
190.29	94.21
190.509	-4.1
190.729	92.16
190.948	126.97
191.168	65.53
191.387	73.73
191.607	22.53
191.826	8.19
192.045	14.34
192.265	-18.43
192.484	2.05
192.704	18.43
192.923	-55.3
193.142	45.06
193.362	43.01
193.581	55.3
193.8	77.82
194.02	45.06
194.239	12.29
194.458	2.05
194.678	-8.19
194.897	2.05
195.116	-8.19
195.335	63.49
195.555	20.48
195.774	43.01
195.993	98.3
196.212	4.1
196.432	34.82
196.651	-2.05
196.87	34.82
197.089	36.86
197.308	94.21
197.528	51.2
197.747	-8.19
197.966	-28.67
198.185	98.3
198.404	-4.1
198.623	34.82
198.842	26.62
199.062	14.34
199.281	24.58
199.5	43.01
199.719	63.49
199.938	38.91
200.157	86.01
200.376	-30.72
200.595	49.15
200.814	49.15
201.033	45.06
201.252	40.96
201.471	-14.34
201.69	32.77
201.909	0
202.128	40.96
202.347	53.25
202.566	77.82
202.785	0
203.004	18.43
203.223	20.48
203.442	14.34
203.661	12.29
203.879	53.25
204.098	-10.24
204.317	10.24
204.536	53.25
204.755	14.34
204.974	49.15
205.193	86.01
205.411	153.6
205.63	38.91
205.849	14.34
206.068	0
206.287	30.72
206.505	106.49
206.724	16.38
206.943	-65.54
207.162	10.24
207.381	-32.77
207.599	83.97
207.818	40.96
208.037	12.29
208.255	57.34
208.474	18.43
208.693	65.53
208.911	-20.48
209.13	28.67
209.349	20.48
209.567	-14.34
209.786	59.39
210.005	-8.19
210.223	-4.1
210.442	-18.43
210.661	22.53
210.879	18.43
211.098	43.01
211.316	71.68
211.535	65.53
211.753	-20.48
211.972	92.16
212.191	-43.01
212.409	36.86
212.628	16.38
212.846	34.82
213.065	10.24
213.283	16.38
213.502	14.34
213.72	-22.53
213.938	24.58
214.157	43.01
214.375	34.82
214.594	4.1
214.812	18.43
215.031	63.49
215.249	-10.24
215.467	0
215.686	18.43
215.904	63.49
216.122	-2.05
216.341	53.25
216.559	106.49
216.778	38.91
216.996	55.3
217.214	-8.19
217.432	43.01
217.651	34.82
217.869	59.39
218.087	-8.19
218.306	-45.06
218.524	92.16
218.742	34.82
218.96	30.72
219.179	-16.38
219.397	-53.25
219.615	102.4
219.833	18.43
220.051	16.38
220.27	65.53
220.488	20.48
220.706	30.72
220.924	38.91
221.142	-2.05
221.36	47.1
221.578	-10.24
221.796	-30.72
222.015	30.72
222.233	24.58
222.451	59.39
222.669	79.87
222.887	-14.34
223.105	20.48
223.323	36.86
223.541	-8.19
223.759	28.67
223.977	-14.34
224.195	38.91
224.413	-4.1
224.631	112.64
224.849	-14.34
225.067	6.14
225.285	65.53
225.503	-8.19
225.721	4.1
225.939	53.25
226.157	-28.67
226.375	88.06
226.592	-6.14
226.81	88.06
227.028	-47.1
227.246	8.19
227.464	-34.82
227.682	51.2
227.9	75.77
228.117	40.96
228.335	-45.06
228.553	-10.24
228.771	51.2
228.989	4.1
229.206	2.05
229.424	75.77
229.642	57.34
229.86	49.15
230.077	8.19
230.295	18.43
230.513	14.34
230.731	28.67
230.948	26.62
231.166	51.2
231.384	40.96
231.601	-34.82
231.819	6.14
232.037	24.58
232.254	16.38
232.472	-24.58
232.689	12.29
232.907	40.96
233.125	26.62
233.342	22.53
233.56	22.53
233.777	-34.82
233.995	8.19
234.213	86.01
234.43	79.87
234.648	-18.43
234.865	57.34
235.083	-14.34
235.3	16.38
235.518	73.73
235.735	67.58
235.953	98.3
236.17	18.43
236.388	53.25
236.605	-2.05
236.822	34.82
237.04	-12.29
237.257	83.97
237.475	-49.15
237.692	45.06
237.909	12.29
238.127	45.06
238.344	73.73
238.562	36.86
238.779	-6.14
238.996	40.96
239.214	-38.91
239.431	26.62
239.648	18.43
239.865	-22.53
240.083	69.63
240.3	24.58
240.517	20.48
240.735	36.86
240.952	-8.19
241.169	14.34
241.386	-12.29
241.603	-6.14
241.821	-6.14
242.038	75.77
242.255	14.34
242.472	-32.77
242.689	63.49
242.907	49.15
243.124	-4.1
243.341	45.06
243.558	-71.68
243.775	92.16
243.992	-8.19
244.209	24.58
244.426	-2.05
244.643	4.1
244.86	-22.53
245.078	0
245.295	-59.39
245.512	83.97
245.729	14.34
245.946	26.62
246.163	36.86
246.38	43.01
246.597	90.11
246.814	55.3
247.031	-12.29
247.248	55.3
247.464	-26.62
247.681	18.43
247.898	14.34
248.115	55.3
248.332	81.92
248.549	30.72
248.766	14.34
248.983	57.34
249.2	79.87
249.417	16.38
249.633	16.38
249.85	4.1
250.067	98.3
250.284	-2.05
250.501	75.77
250.717	14.34
250.934	12.29
251.151	-28.67
251.368	114.69
251.585	32.77
251.801	79.87
252.018	-30.72
252.235	65.53
252.451	24.58
252.668	22.53
252.885	38.91
253.102	55.3
253.318	92.16
253.535	49.15
253.752	36.86
253.968	40.96
254.185	12.29
254.401	73.73
254.618	2.05
254.835	-36.86
255.051	94.21
255.268	30.72
255.484	75.77
255.701	24.58
255.917	100.35
256.134	-10.24
256.351	-59.39
256.567	57.34
256.784	94.21
257	-12.29
257.217	24.58
257.433	36.86
257.65	49.15
257.866	43.01
258.082	-2.05
258.299	-53.25
258.515	0
258.732	-12.29
258.948	-12.29
259.165	8.19
259.381	-57.34
259.597	16.38
259.814	32.77
260.03	-12.29
260.246	-49.15
260.463	-12.29
260.679	-8.19
260.895	18.43
261.112	92.16
261.328	47.1
261.544	40.96
261.761	57.34
261.977	8.19
262.193	18.43
262.409	69.63
262.626	22.53
262.842	-4.1
263.058	-16.38
263.274	73.73
263.49	20.48
263.707	12.29
263.923	116.73
264.139	8.19
264.355	22.53
264.571	67.58
264.787	10.24
265.004	81.92
265.22	-6.14
265.436	-8.19
265.652	77.82
265.868	-28.67
266.084	14.34
266.3	-2.05
266.516	16.38
266.732	79.87
266.948	28.67
267.164	124.93
267.38	-32.77
267.596	102.4
267.812	137.21
268.028	34.82
268.244	18.43
268.46	4.1
268.676	18.43
268.892	129.02
269.108	75.77
269.324	-32.77
269.54	43.01
269.756	-4.1
269.972	-26.62
270.188	14.34
270.403	-14.34
270.619	79.87
270.835	26.62
271.051	4.1
271.267	10.24
271.483	32.77
271.698	-22.53
271.914	71.68
272.13	71.68
272.346	67.58
272.562	26.62
272.777	26.62
272.993	40.96
273.209	6.14
273.425	0
273.64	110.59
273.856	75.77
274.072	22.53
274.287	51.2
274.503	94.21
274.719	18.43
274.934	55.3
275.15	8.19
275.366	14.34
275.581	40.96
275.797	-16.38
276.012	10.24
276.228	-14.34
276.444	-28.67
276.659	79.87
276.875	45.06
277.09	57.34
277.306	-12.29
277.521	24.58
277.737	61.44
277.952	38.91
278.168	30.72
278.383	81.92
278.599	-16.38
278.814	75.77
279.03	2.05
279.245	45.06
279.461	49.15
279.676	63.49
279.892	47.1
280.107	16.38
280.322	43.01
280.538	16.38
280.753	-8.19
280.969	28.67
281.184	114.69
281.399	59.39
281.615	8.19
281.83	24.58
282.045	47.1
282.26	8.19
282.476	34.82
282.691	22.53
282.906	47.1
283.122	53.25
283.337	92.16
283.552	-49.15
283.767	129.02
283.983	51.2
284.198	57.34
284.413	65.53
284.628	51.2
284.843	16.38
285.058	45.06
285.274	92.16
285.489	-24.58
285.704	34.82
285.919	-30.72
286.134	-10.24
286.349	94.21
286.564	-12.29
286.779	59.39
286.995	-4.1
287.21	-6.14
287.425	-10.24
287.64	-8.19
287.855	38.91
288.07	-55.3
288.285	92.16
288.5	18.43
288.715	51.2
288.93	-24.58
289.145	49.15
289.36	32.77
289.575	-38.91
289.79	59.39
290.004	34.82
290.219	51.2
290.434	16.38
290.649	83.97
290.864	43.01
291.079	102.4
291.294	86.01
291.509	40.96
291.724	53.25
291.938	51.2
292.153	49.15
292.368	30.72
292.583	69.63
292.798	69.63
293.012	102.4
293.227	20.48
293.442	22.53
293.657	24.58
293.871	18.43
294.086	-6.14
294.301	30.72
294.516	-6.14
294.73	83.97
294.945	-24.58
295.16	-2.05
295.374	2.05
295.589	73.73
295.804	-22.53
296.018	-10.24
296.233	26.62
296.447	2.05
296.662	40.96
296.877	45.06
297.091	-16.38
297.306	36.86
297.52	32.77
297.735	40.96
297.949	22.53
298.164	47.1
298.378	-4.1
298.593	38.91
298.807	8.19
299.022	24.58
299.236	57.34
299.451	24.58
299.665	47.1
299.88	6.14
300.094	51.2
300.309	120.83
300.523	53.25
300.737	71.68
300.952	55.3
301.166	79.87
301.381	-49.15
301.595	77.82
301.809	22.53
302.024	30.72
302.238	32.77
302.452	8.19
302.667	14.34
302.881	122.88
303.095	18.43
303.309	-55.3
303.524	24.58
303.738	34.82
303.952	40.96
304.166	47.1
304.381	0
304.595	145.41
304.809	-92.16
305.023	38.91
305.237	14.34
305.452	14.34
305.666	-2.05
305.88	24.58
306.094	24.58
306.308	-36.86
306.522	-24.58
306.736	-32.77
306.95	26.62
307.164	30.72
307.379	59.39
307.593	49.15
307.807	88.06
308.021	129.02
308.235	-2.05
308.449	-2.05
308.663	26.62
308.877	75.77
309.091	36.86
309.305	38.91
309.519	6.14
309.733	49.15
309.947	-65.54
310.161	102.4
310.374	61.44
310.588	135.17
310.802	8.19
311.016	16.38
311.23	47.1
311.444	-24.58
311.658	6.14
311.872	34.82
312.085	20.48
312.299	77.82
312.513	59.39
312.727	2.05
312.941	-16.38
313.154	55.3
313.368	-34.82
313.582	151.55
313.796	-12.29
314.009	49.15
314.223	59.39
314.437	73.73
314.651	38.91
314.864	30.72
315.078	-2.05
315.292	6.14
315.505	104.45
315.719	112.64
315.933	47.1
316.146	28.67
316.36	40.96
316.573	63.49
316.787	79.87
317.001	36.86
317.214	36.86
317.428	79.87
317.641	-8.19
317.855	96.25
318.068	45.06
318.282	18.43
318.495	126.97
318.709	49.15
318.922	55.3
319.136	96.25
319.349	30.72
319.563	57.34
319.776	-38.91
319.99	55.3
320.203	71.68
320.417	47.1
320.63	10.24
320.843	-8.19
321.057	22.53
321.27	79.87
321.483	63.49
321.697	90.11
321.91	20.48
322.124	-6.14
322.337	49.15
322.55	49.15
322.763	6.14
322.977	43.01
323.19	16.38
323.403	45.06
323.617	57.34
323.83	51.2
324.043	32.77
324.256	73.73
324.469	-14.34
324.683	55.3
324.896	16.38
325.109	71.68
325.322	28.67
325.535	120.83
325.748	30.72
325.962	30.72
326.175	10.24
326.388	67.58
326.601	69.63
326.814	81.92
327.027	6.14
327.24	124.93
327.453	69.63
327.666	28.67
327.879	88.06
328.092	53.25
328.305	71.68
328.518	20.48
328.731	-6.14
328.944	69.63
329.157	24.58
329.37	73.73
329.583	92.16
329.796	86.01
330.009	-4.1
330.222	2.05
330.435	10.24
330.648	0
330.861	45.06
331.073	71.68
331.286	86.01
331.499	34.82
331.712	28.67
331.925	-32.77
332.138	34.82
332.35	24.58
332.563	8.19
332.776	63.49
332.989	77.82
333.202	63.49
333.414	-22.53
333.627	26.62
333.84	6.14
334.053	-16.38
334.265	28.67
334.478	-14.34
334.691	10.24
334.903	20.48
335.116	-20.48
335.329	36.86
335.541	98.3
335.754	51.2
335.966	-22.53
336.179	106.49
336.392	-4.1
336.604	88.06
336.817	16.38
337.029	12.29
337.242	-49.15
337.454	55.3
337.667	45.06
337.88	16.38
338.092	36.86
338.305	106.49
338.517	18.43
338.729	129.02
338.942	-51.2
339.154	12.29
339.367	24.58
339.579	114.69
339.792	61.44
340.004	102.4
340.217	20.48
340.429	36.86
340.641	-71.68
340.854	20.48
341.066	71.68
341.278	81.92
341.491	100.35
341.703	145.41
341.915	47.1
342.128	90.11
342.34	38.91
342.552	-4.1
342.764	26.62
342.977	-47.1
343.189	2.05
343.401	45.06
343.613	-43.01
343.826	49.15
344.038	79.87
344.25	51.2
344.462	63.49
344.674	75.77
344.886	-38.91
345.099	47.1
345.311	30.72
345.523	88.06
345.735	-83.97
345.947	67.58
346.159	92.16
346.371	28.67
346.583	45.06
346.795	57.34
347.007	12.29
347.219	-2.05
347.431	124.93
347.643	81.92
347.855	12.29
348.067	102.4
348.279	16.38
348.491	71.68
348.703	34.82
348.915	32.77
349.127	6.14
349.339	83.97
349.551	-14.34
349.763	65.53
349.975	-4.1
350.187	61.44
350.399	116.73
350.61	18.43
350.822	36.86
351.034	0
351.246	18.43
351.458	43.01
351.669	100.35
351.881	102.4
352.093	16.38
352.305	106.49
352.517	45.06
352.728	49.15
352.94	69.63
353.152	55.3
353.363	-8.19
353.575	47.1
353.787	28.67
353.999	40.96
354.21	88.06
354.422	36.86
354.633	22.53
354.845	12.29
355.057	18.43
355.268	32.77
355.48	59.39
355.692	22.53
355.903	67.58
356.115	-24.58
356.326	112.64
356.538	92.16
356.749	65.53
356.961	79.87
357.172	112.64
357.384	34.82
357.595	63.49
357.807	0
358.018	67.58
358.23	55.3
358.441	67.58
358.653	83.97
358.864	-14.34
359.075	0
359.287	18.43
359.498	77.82
359.709	-6.14
359.921	40.96
360.132	34.82
360.344	16.38
360.555	-16.38
360.766	38.91
360.977	8.19
361.189	51.2
361.4	22.53
361.611	90.11
361.823	47.1
362.034	79.87
362.245	26.62
362.456	53.25
362.667	0
362.879	24.58
363.09	104.45
363.301	43.01
363.512	6.14
363.723	34.82
363.935	71.68
364.146	126.97
364.357	14.34
364.568	24.58
364.779	0
364.99	38.91
365.201	20.48
365.412	24.58
365.623	-2.05
365.834	20.48
366.045	18.43
366.256	71.68
366.467	38.91
366.678	47.1
366.889	30.72
367.1	4.1
367.311	79.87
367.522	59.39
367.733	71.68
367.944	90.11
368.155	34.82
368.366	10.24
368.577	40.96
368.788	10.24
368.999	90.11
369.209	6.14
369.42	88.06
369.631	-6.14
369.842	69.63
370.053	122.88
370.264	49.15
370.474	106.49
370.685	6.14
370.896	118.78
371.107	8.19
371.317	10.24
371.528	90.11
371.739	79.87
371.95	53.25
372.16	106.49
372.371	4.1
372.582	47.1
372.792	96.25
373.003	-10.24
373.214	75.77
373.424	151.55
373.635	20.48
373.846	96.25
374.056	67.58
374.267	-4.1
374.477	75.77
374.688	61.44
374.898	38.91
375.109	83.97
375.319	83.97
375.53	47.1
375.74	67.58
375.951	100.35
376.161	90.11
376.372	61.44
376.582	-22.53
376.793	75.77
377.003	30.72
377.214	83.97
377.424	145.41
377.635	14.34
377.845	63.49
378.055	14.34
378.266	26.62
378.476	6.14
378.686	22.53
378.897	124.93
379.107	75.77
379.317	69.63
379.528	34.82
379.738	108.54
379.948	59.39
380.158	71.68
380.369	79.87
380.579	53.25
380.789	10.24
380.999	14.34
381.21	45.06
381.42	28.67
381.63	49.15
381.84	108.54
382.05	75.77
382.261	61.44
382.471	106.49
382.681	26.62
382.891	112.64
383.101	57.34
383.311	124.93
383.521	22.53
383.731	57.34
383.941	61.44
384.151	92.16
384.361	47.1
384.571	24.58
384.781	47.1
384.991	102.4
385.201	40.96
385.411	73.73
385.621	51.2
385.831	18.43
386.041	34.82
386.251	0
386.461	90.11
386.671	51.2
386.881	47.1
387.091	-2.05
387.301	18.43
387.511	34.82
387.72	55.3
387.93	57.34
388.14	120.83
388.35	47.1
388.56	120.83
388.769	36.86
388.979	67.58
389.189	-14.34
389.399	36.86
389.609	83.97
389.818	71.68
390.028	83.97
390.238	114.69
390.447	26.62
390.657	75.77
390.867	34.82
391.076	38.91
391.286	22.53
391.496	86.01
391.705	16.38
391.915	14.34
392.125	24.58
392.334	94.21
392.544	83.97
392.753	65.53
392.963	-4.1
393.172	22.53
393.382	61.44
393.591	124.93
393.801	104.45
394.01	149.5
394.22	57.34
394.429	0
394.639	18.43
394.848	153.6
395.058	47.1
395.267	26.62
395.477	36.86
395.686	102.4
395.895	137.21
396.105	88.06
396.314	59.39
396.524	69.63
396.733	90.11
396.942	104.45
397.152	63.49
397.361	71.68
397.57	65.53
397.78	47.1
397.989	98.3
398.198	67.58
398.407	159.74
398.617	73.73
398.826	67.58
399.035	86.01
399.244	108.54
399.453	141.31
399.663	126.97
399.872	73.73
400.081	83.97
400.29	151.55
400.499	88.06
400.708	108.54
400.917	118.78
401.127	106.49
401.336	90.11
401.545	153.6
401.754	155.65
401.963	131.07
402.172	73.73
402.381	83.97
402.59	57.34
402.799	100.35
403.008	151.55
403.217	79.87
403.426	96.25
403.635	73.73
403.844	122.88
404.053	159.74
404.262	96.25
404.471	116.73
404.68	100.35
404.888	159.74
405.097	96.25
405.306	188.41
405.515	206.84
405.724	139.26
405.933	131.07
406.142	165.89
406.35	190.46
406.559	217.08
406.768	118.78
406.977	182.27
407.185	176.13
407.394	108.54
407.603	149.5
407.812	137.21
408.02	299
408.229	239.61
408.438	217.08
408.646	83.97
408.855	233.47
409.064	217.08
409.272	206.84
409.481	296.96
409.69	219.13
409.898	194.56
410.107	262.14
410.315	360.44
410.524	243.71
410.733	262.14
410.941	337.91
411.15	241.66
411.358	382.97
411.567	387.07
411.775	360.44
411.984	364.54
412.192	335.87
412.401	378.87
412.609	380.92
412.818	376.83
413.026	448.51
413.234	436.22
413.443	460.79
413.651	409.59
413.86	497.66
414.068	487.42
414.276	483.32
414.485	540.66
414.693	559.1
414.901	632.82
415.11	598.01
415.318	677.88
415.526	708.6
415.734	702.45
415.943	606.2
416.151	710.65
416.359	751.6
416.567	767.99
416.776	759.8
416.984	706.55
417.192	806.9
417.4	808.95
417.608	815.09
417.817	835.57
418.025	868.34
418.233	1040.37
418.441	1040.37
418.649	995.31
418.857	1054.7
419.065	1175.53
419.273	1204.21
419.481	1153.01
419.689	1177.58
419.897	1347.56
420.105	1390.57
420.313	1382.38
420.521	1337.32
420.729	1466.35
420.937	1378.28
421.145	1497.07
421.353	1611.75
421.561	1683.43
421.769	1615.85
421.977	1802.21
422.185	1714.15
422.393	1945.57
422.601	2027.49
422.809	2009.06
423.017	1970.15
423.224	2027.49
423.432	2148.32
423.64	2148.32
423.848	2328.54
424.056	2322.4
424.263	2420.7
424.471	2484.19
424.679	2379.74
424.887	2553.82
425.094	2594.78
425.302	2762.71
425.51	2758.61
425.718	2901.97
425.925	3076.05
426.133	3127.25
426.341	3307.47
426.548	3397.58
426.756	3282.89
426.964	3491.79
427.171	3487.69
427.379	3735.49
427.586	3745.73
427.794	3919.81
428.001	4085.7
428.209	4186.05
428.417	4186.05
428.624	4532.15
428.832	4573.11
429.039	4444.09
429.247	4399.04
429.454	4870.07
429.662	5119.92
429.869	4868.02
430.076	5203.89
430.284	4870.07
430.491	5275.57
430.699	5519.28
430.906	5662.63
431.114	5679.02
431.321	5783.46
431.528	5883.81
431.736	6305.7
431.943	6719.39
432.15	6449.05
432.358	6590.36
432.565	6948.76
432.772	6823.83
432.979	7208.85
433.187	7309.2
433.394	7329.68
433.601	7882.63
433.808	8091.52
434.016	7755.66
434.223	8306.56
434.43	8638.33
434.637	8511.36
434.844	8945.53
435.052	9275.25
435.259	9179
435.466	9152.37
435.673	8953.72
435.88	9699.18
436.087	10235.75
436.294	10162.02
436.501	9926.5
436.708	10229.6
436.915	10710.88
437.122	10940.25
437.329	11104.09
437.537	11401.04
437.743	11491.15
437.95	11343.7
438.157	12105.54
438.364	12554.05
438.571	12474.18
438.778	12289.86
438.985	13762.35
439.192	12908.35
439.399	13483.83
439.606	13113.14
439.813	14012.2
440.02	14954.27
440.227	14624.54
440.433	14470.95
440.64	14804.77
440.847	14616.35
441.054	15169.3
441.261	16041.74
441.467	16078.6
441.674	16469.76
441.881	16961.28
442.088	16617.22
442.294	16717.57
442.501	17164.03
442.708	17561.33
442.914	18474.73
443.121	19009.25
443.328	18460.39
443.534	19764.95
443.741	19285.72
443.948	18974.43
444.154	20205.26
444.361	20027.09
444.568	20446.92
444.774	20365
444.981	20684.48
445.187	21208.76
445.394	22218.41
445.6	21747.38
445.807	23914.13
446.013	23041.7
446.22	23176.86
446.426	24069.78
446.633	24458.89
446.839	25251.45
447.046	24131.22
447.252	25382.52
447.459	25546.36
447.665	25415.29
447.871	26783.34
448.078	27620.95
448.284	26373.74
448.491	27190.88
448.697	27985.49
448.903	28974.66
449.11	28733
449.316	28536.4
449.522	28749.39
449.728	29611.58
449.935	29775.42
450.141	29945.4
450.347	30557.74
450.553	29615.68
450.76	30084.66
450.966	30836.27
451.172	30342.7
451.378	31151.65
451.584	30475.82
451.791	31446.56
451.997	31215.14
452.203	31837.72
452.409	31970.84
452.615	31847.96
452.821	30154.29
453.027	29738.55
453.233	31667.74
453.44	30551.6
453.646	30764.59
453.852	31059.49
454.058	31378.98
454.264	30606.89
454.47	31084.07
454.676	30201.4
454.882	31202.85
455.088	28655.18
455.294	29056.58
455.5	29367.87
455.705	29886.01
455.911	28730.95
456.117	28167.76
456.323	27782.74
456.529	26414.7
456.735	27420.25
456.941	26572.39
457.147	26218.1
457.352	25521.79
457.558	25060.99
457.764	25409.15
457.97	24757.89
458.176	24256.14
458.381	24297.1
458.587	22918.82
458.793	22597.29
458.999	21657.27
459.204	23326.36
459.41	22793.89
459.616	21225.15
459.821	21388.99
460.027	21106.37
460.233	20721.35
460.438	19721.94
460.644	20035.28
460.85	18992.86
461.055	18734.82
461.261	18773.73
461.466	17223.42
461.672	16656.13
461.878	18007.79
462.083	16668.42
462.289	16545.54
462.494	16299.78
462.7	15714.06
462.905	15046.43
463.111	15609.62
463.316	15632.15
463.522	15286.04
463.727	15382.29
463.932	15570.71
464.138	15304.47
464.343	15064.86
464.549	14933.79
464.754	15361.81
464.959	15193.88
465.165	14989.08
465.37	14595.87
465.575	13975.34
465.781	14823.2
465.986	15075.1
466.191	14280.49
466.397	13786.93
466.602	13266.74
466.807	13694.77
467.012	13752.11
467.218	13836.08
467.423	13315.89
467.628	13471.54
467.833	14032.68
468.038	13602.61
468.244	12957.5
468.449	13612.85
468.654	13227.83
468.859	13244.21
469.064	13272.89
469.269	12728.13
469.474	12605.25
469.679	12902.2
469.885	12635.97
470.09	12754.75
470.295	12664.64
470.5	12330.82
470.705	12398.4
470.91	12285.76
471.115	12044.1
471.32	12334.92
471.525	12248.9
471.73	11937.61
471.935	11771.72
472.139	11296.6
472.344	11568.98
472.549	11394.9
472.754	11218.77
472.959	11177.81
473.164	10848.09
473.369	10555.23
473.574	11097.94
473.778	10962.78
473.983	10786.65
474.188	10882.91
474.393	10375.01
474.598	10602.33
474.802	10205.03
475.007	10301.28
475.212	10288.99
475.417	9711.47
475.621	10149.73
475.826	9762.67
476.031	9805.67
476.235	9572.21
476.44	9770.86
476.645	9545.58
476.849	9654.12
477.054	9271.15
477.259	9146.23
477.463	9199.48
477.668	8882.04
477.872	9160.56
478.077	8970.1
478.282	8894.33
478.486	8718.2
478.691	8394.62
478.895	8562.56
479.1	8628.09
479.304	8503.17
479.509	8273.79
479.713	8345.47
479.918	8263.55
480.122	8134.53
480.326	8390.53
480.531	8124.29
480.735	8077.19
480.94	8187.78
481.144	8343.42
481.348	8126.34
481.553	8105.86
481.757	7784.33
481.961	7882.63
482.166	8189.83
482.37	8132.48
482.574	7790.47
482.778	7880.58
482.983	7913.35
483.187	7847.82
483.391	7950.21
483.595	7847.82
483.8	7733.13
484.004	8009.61
484.208	7991.17
484.412	7872.39
484.616	7976.84
484.821	7782.28
485.025	7821.19
485.229	8025.99
485.433	7753.61
485.637	7798.66
485.841	7827.34
486.045	7792.52
486.249	7966.6
486.453	7753.61
486.657	7800.71
486.861	7894.92
487.065	7747.47
487.269	7989.13
487.473	7712.65
487.677	7925.64
487.881	7858.06
488.085	7882.63
488.289	7915.4
488.493	7839.62
488.697	7784.33
488.901	7866.25
489.105	7968.65
489.309	7776.14
489.512	7937.93
489.716	7982.98
489.92	7929.73
490.124	8083.33
490.328	8195.97
490.531	8155.01
490.735	7993.22
490.939	8116.1
491.143	7946.12
491.346	8030.09
491.55	8069
491.754	8202.11
491.958	8273.79
492.161	8241.03
492.365	8109.96
492.569	8169.35
492.772	8382.34
492.976	8335.23
493.18	8294.27
493.383	8466.3
493.587	8368
493.79	8642.43
493.994	8597.37
494.197	8515.45
494.401	8685.44
494.605	8755.07
494.808	8859.51
495.012	8806.27
495.215	8951.67
495.419	8959.86
495.622	8898.42
495.825	9047.93
496.029	9148.28
496.232	9326.45
496.436	9338.74
496.639	9488.24
496.843	9441.14
497.046	9619.31
497.249	9766.76
497.453	9607.02
497.656	10012.52
497.859	9815.91
498.063	10033
498.266	9936.74
498.469	9940.84
498.673	10184.55
498.876	10360.67
499.079	10667.87
499.282	10569.57
499.485	11069.27
499.689	10846.04
499.892	10772.32
500.095	10907.48
500.298	11251.54
500.501	11042.65
500.705	11396.95
500.908	11595.6
501.111	11626.32
501.314	11614.03
501.517	11661.13
501.72	12029.77
501.923	11935.56
502.126	12212.04
502.329	12314.44
502.532	12529.47
502.735	12537.66
502.938	12785.47
503.141	12977.98
503.344	12943.16
503.547	13139.77
503.75	13268.79
503.953	13338.42
504.156	13446.96
504.359	13514.55
504.562	13729.58
504.765	14053.16
504.968	14169.9
505.17	14274.34
505.373	14061.35
505.576	14583.59
505.779	14718.75
505.982	14810.91
506.185	15124.25
506.387	15083.29
506.59	15384.34
506.793	15548.18
506.996	15410.96
507.198	15777.55
507.401	15763.22
507.604	16029.45
507.807	16494.34
508.009	16422.66
508.212	16598.79
508.415	16975.61
508.617	17184.51
508.82	16633.6
509.022	17014.52
509.225	17475.32
509.428	17594.1
509.63	17559.28
509.833	17901.29
510.035	18177.77
510.238	18302.7
510.44	18300.65
510.643	18599.65
510.845	18618.08
511.048	18570.98
511.25	18835.17
511.453	19052.25
511.655	19705.56
511.858	19289.82
512.06	19541.72
512.262	20053.71
512.465	19879.63
512.667	20438.73
512.87	20352.71
513.072	20418.25
513.274	20725.44
513.477	20920
513.679	21393.08
513.881	21528.25
514.084	21860.02
514.286	21653.17
514.488	21579.45
514.69	22308.52
514.893	22445.74
515.095	22503.08
515.297	22724.26
515.499	22867.62
515.701	23033.5
515.904	23291.55
516.106	23535.26
516.308	23684.76
516.51	24168.08
516.712	23922.32
516.914	24487.56
517.116	24311.44
517.318	24659.59
517.52	24901.25
517.722	25063.04
517.925	24903.3
518.127	25640.57
518.329	25714.3
518.531	25704.06
518.733	26508.91
518.935	26130.03
519.136	26556.01
519.338	26592.87
519.54	26736.23
519.742	27174.5
519.944	27192.93
520.146	27702.87
520.348	27637.34
520.55	27534.94
520.752	28034.64
520.954	28520.01
521.155	28266.06
521.357	28423.76
521.559	28935.75
521.761	29226.56
521.963	29376.06
522.164	29552.19
522.366	29230.66
522.568	29750.84
522.77	30096.95
522.971	30076.47
523.173	30015.03
523.375	30451.25
523.576	30496.3
523.778	30486.06
523.98	31006.25
524.181	31551.01
524.383	31395.36
524.584	31655.45
524.786	31684.12
524.988	31596.06
525.189	31927.83
525.391	32058.9
525.592	32091.67
525.794	32218.64
525.995	32517.65
526.197	32476.69
526.398	32439.82
526.6	33230.34
526.801	33302.02
527.003	33439.23
527.204	33299.97
527.406	33480.19
527.607	33162.76
527.808	33381.89
528.01	33332.74
528.211	33846.78
528.412	34258.42
528.614	34156.02
528.815	34199.03
529.016	34770.41
529.218	34100.73
529.419	34237.94
529.62	34498.03
529.822	34323.96
530.023	34022.9
530.224	34680.3
530.425	34594.29
530.626	34354.68
530.828	34317.81
531.029	35180.01
531.23	34762.22
531.431	34754.03
531.632	34993.64
531.833	34874.86
532.035	34737.65
532.236	34995.69
532.437	35188.2
532.638	34864.62
532.839	35370.47
533.04	35360.23
533.241	35010.03
533.442	35798.49
533.643	35237.35
533.844	35237.35
534.045	35491.3
534.246	35225.06
534.447	35401.19
534.648	35335.65
534.849	35513.83
535.05	35290.6
535.251	35261.93
535.451	34993.64
535.652	35476.96
535.853	35194.34
536.054	35352.04
536.255	35751.39
536.456	35132.9
536.657	35816.93
536.857	35489.25
537.058	35530.21
537.259	35864.03
537.46	35751.39
537.66	35407.33
537.861	35671.52
538.062	35571.17
538.263	35683.81
538.463	35196.39
538.664	35200.49
538.865	35732.96
539.065	35622.37
539.266	35427.81
539.466	35767.77
539.667	35055.08
539.868	35659.23
540.068	35730.91
540.269	35401.19
540.469	35884.51
540.67	35501.54
540.87	35534.31
541.071	35644.9
541.271	35399.14
541.472	35532.26
541.672	35360.23
541.873	34960.87
542.073	34893.29
542.274	35552.74
542.474	35538.4
542.675	35132.9
542.875	35597.79
543.075	35460.58
543.276	35274.21
543.476	35620.32
543.676	35425.76
543.877	35454.43
544.077	34954.73
544.277	34874.86
544.478	35358.18
544.678	35343.84
544.878	35110.38
545.078	35397.09
545.279	35192.29
545.479	34760.17
545.679	34946.54
545.879	35096.04
546.079	35296.74
546.28	35065.32
546.48	34993.64
546.68	35327.46
546.88	34805.23
547.08	35235.3
547.28	34829.8
547.48	34700.78
547.68	35235.3
547.88	35116.52
548.081	35053.03
548.281	34565.62
548.481	34731.5
548.681	35347.94
548.881	35118.57
549.081	34948.59
549.28	34801.13
549.48	35505.63
549.68	34956.78
549.88	35577.31
550.08	34706.93
550.28	35196.39
550.48	34764.27
550.68	35462.63
550.88	34557.42
551.08	34979.31
551.279	34893.29
551.479	34633.2
551.679	34827.76
551.879	34489.84
552.079	35081.7
552.278	34526.71
552.478	34704.88
552.678	35016.17
552.878	34938.35
553.077	34526.71
553.277	34643.44
553.477	35122.66
553.676	34778.61
553.876	34299.38
554.076	34754.03
554.275	34514.42
554.475	34096.63
554.674	34622.96
554.874	34901.48
555.074	34326
555.273	34207.22
555.473	34559.47
555.672	34170.36
555.872	33988.09
556.071	34344.44
556.271	34344.44
556.47	34297.33
556.67	33496.58
556.869	34051.58
557.068	34336.24
557.268	34133.5
557.467	33908.22
557.667	33965.56
557.866	33826.3
558.065	34135.54
558.265	33695.23
558.464	33519.1
558.663	34194.93
558.863	33388.03
559.062	34188.79
559.261	33527.3
559.461	33682.94
559.66	33250.82
559.859	33486.34
560.058	33418.75
560.258	33635.84
560.457	33093.13
560.656	33177.09
560.855	33076.74
561.054	33668.61
561.253	32671.25
561.453	33293.83
561.652	33701.37
561.851	32966.15
562.05	33074.7
562.249	32804.36
562.448	33003.02
562.647	33160.71
562.846	32812.56
563.045	32826.89
563.244	31831.58
563.443	33035.78
563.642	32167.45
563.841	32339.47
564.04	32343.57
564.239	32925.19
564.438	32243.22
564.637	32050.71
564.836	32271.89
565.035	31923.74
565.234	32214.55
565.432	32034.33
565.631	31766.04
565.83	31966.74
566.029	31733.28
566.228	31454.75
566.427	31602.21
566.625	31356.45
566.824	31045.16
567.023	31659.55
567.222	31012.39
567.42	31364.64
567.619	31452.7
567.818	31209
568.016	31139.36
568.215	31125.03
568.414	30858.79
568.612	31196.71
568.811	30770.73
569.01	30780.97
569.208	30680.62
569.407	30733.87
569.605	30230.07
569.804	30762.54
570.002	29781.56
570.201	30641.71
570.4	30193.2
570.598	30168.63
570.797	30025.27
570.995	30193.2
571.193	29765.18
571.392	30328.37
571.59	29818.42
571.789	29810.23
571.987	29574.72
572.186	29691.45
572.384	29445.69
572.582	29746.75
572.781	29881.91
572.979	29374.02
573.177	29169.22
573.376	29427.26
573.574	28847.69
573.772	29019.72
573.971	29138.5
574.169	28526.16
574.367	28714.57
574.565	28499.53
574.763	28653.13
574.962	28659.27
575.16	28163.67
575.358	28407.37
575.556	28327.5
575.754	28782.15
575.952	28108.37
576.151	28679.75
576.349	28081.75
576.547	28438.09
576.745	28229.2
576.943	28091.99
577.141	27754.07
577.339	27709.02
577.537	27747.93
577.735	27844.18
577.933	27360.86
578.131	27913.81
578.329	27324
578.527	27704.92
578.725	27283.04
578.923	27227.74
579.121	26857.06
579.319	27364.96
579.516	27049.57
579.714	27123.3
579.912	27106.91
580.11	26848.87
580.308	26762.86
580.506	26762.86
580.704	26263.15
580.901	26400.37
581.099	26685.03
581.297	26470
581.495	26275.44
581.692	26545.77
581.89	25996.92
582.088	26381.93
582.285	26095.22
582.483	26238.58
582.681	25886.32
582.878	25958
583.076	25730.68
583.274	26095.22
583.471	25697.91
583.669	25855.61
583.866	25448.06
584.064	25814.65
584.262	25114.24
584.459	25575.03
584.657	25212.54
584.854	25439.87
585.052	24989.31
585.249	25370.24
585.447	25056.9
585.644	24952.45
585.841	25147.01
586.039	24981.12
586.236	24780.42
586.434	24784.52
586.631	24389.26
586.828	24630.92
587.026	24512.14
587.223	24614.54
587.42	24483.47
587.618	24219.28
587.815	24020.63
588.012	24485.51
588.21	24393.36
588.407	23979.67
588.604	24166.03
588.801	23781.01
588.999	23961.23
589.196	23774.87
589.393	24290.96
589.59	23565.98
589.787	23436.95
589.984	23586.46
590.182	23518.87
590.379	23574.17
590.576	23275.16
590.773	23475.87
590.97	22906.53
591.167	23236.25
591.364	23025.31
591.561	23113.38
591.758	23144.09
591.955	23006.88
592.152	23133.85
592.349	22810.28
592.546	22599.34
592.743	22922.91
592.94	22374.06
593.137	22779.56
593.334	22666.92
593.531	22113.97
593.727	22312.62
593.924	22474.41
594.121	22111.92
594.318	22193.84
594.515	21913.27
594.712	22187.69
594.908	21784.24
595.105	21952.18
595.302	21780.15
595.499	21728.95
595.696	21554.87
595.892	21472.95
596.089	21554.87
596.286	21427.9
596.482	21546.68
596.679	21386.94
596.876	21565.11
597.072	21216.96
597.269	21270.2
597.466	21137.09
597.662	21128.89
597.859	20905.66
598.055	21165.76
598.252	21053.12
598.448	20862.66
598.645	20715.2
598.841	20688.58
599.038	20692.68
599.234	20704.96
599.431	20408.01
599.627	20197.07
599.824	20461.26
600.02	20211.4
600.217	20541.13
600.413	20041.42
600.609	20188.88
600.806	20227.79
601.002	20123.34
601.198	19875.54
601.395	19789.52
601.591	19740.37
601.787	19916.5
601.984	19648.21
602.18	19871.44
602.376	19377.88
602.572	19402.46
602.769	19625.68
602.965	19511
603.161	19416.79
603.357	19226.33
603.553	18962.14
603.75	19275.48
603.946	18972.38
604.142	19230.43
604.338	18974.43
604.534	19230.43
604.73	18800.35
604.926	18999.01
605.122	19060.45
605.318	18767.59
605.514	18697.95
605.71	18417.38
605.906	18538.21
606.102	18765.54
606.298	18532.07
606.494	18278.12
606.69	18372.33
606.886	18671.33
607.082	18122.48
607.278	18347.75
607.474	18153.19
607.67	18239.21
607.866	18122.48
608.062	18165.48
608.257	18147.05
608.453	17893.1
608.649	18093.8
608.845	17999.6
609.041	17893.1
609.236	18075.37
609.432	17729.27
609.628	18011.89
609.824	18026.22
610.019	17676.02
610.215	17788.66
610.411	17923.82
610.606	17700.59
610.802	17684.21
610.998	17514.23
611.193	17620.72
611.389	17350.39
611.584	17295.1
611.78	17403.64
611.976	17301.24
612.171	17338.1
612.367	17503.99
612.562	17262.33
612.758	16953.09
612.953	17272.57
613.149	17391.35
613.344	17028.86
613.539	17243.9
613.735	17207.03
613.93	17055.48
614.126	16989.95
614.321	17043.2
614.517	16948.99
614.712	16781.06
614.907	16688.9
615.103	16858.88
615.298	16871.17
615.493	17088.25
615.688	16561.92
615.884	16992
616.079	16543.49
616.274	16582.4
616.47	16441.09
616.665	16606.98
616.86	16455.43
617.055	16387.85
617.25	16498.44
617.445	16441.09
617.641	16162.57
617.836	16443.14
618.031	16035.6
618.226	16135.95
618.421	16219.91
618.616	16426.76
618.811	15927.05
619.006	16387.85
619.201	15722.26
619.396	15988.49
619.591	15564.56
619.786	15965.96
619.981	15615.76
620.176	15548.18
620.371	15402.77
620.566	15775.5
620.761	15140.63
620.956	15521.56
621.151	15077.15
621.346	15200.02
621.541	15255.32
621.735	15505.17
621.93	14931.74
622.125	14976.8
622.32	14661.41
622.515	15048.47
622.709	14841.63
622.904	14675.74
623.099	14591.78
623.294	14587.68
623.488	14227.24
623.683	14473
623.878	14225.19
624.072	14403.36
624.267	14352.17
624.462	14178.09
624.656	13967.15
624.851	13805.36
625.046	13874.99
625.24	13713.2
625.435	13788.97
625.629	13877.04
625.824	13563.7
626.018	13623.09
626.213	13201.21
626.407	13190.97
626.602	13246.26
626.796	13389.62
626.991	13152.06
627.185	13260.6
627.38	13039.42
627.574	12951.35
627.768	12769.09
627.963	12836.67
628.157	12580.67
628.352	12891.96
628.546	12441.41
628.74	12609.34
628.935	12556.1
629.129	12603.2
629.323	12465.99
629.517	12377.92
629.712	12234.57
629.906	12277.57
630.1	12214.09
630.294	12080.97
630.489	11917.13
630.683	12173.13
630.877	11857.74
631.071	11657.04
631.265	11843.4
631.459	11532.11
631.653	11589.46
631.848	11540.3
632.042	11534.16
632.236	11638.61
632.43	11573.07
632.624	11229.01
632.818	11155.29
633.012	11028.31
633.206	11083.61
633.4	11343.7
633.594	10821.47
633.788	11016.02
633.982	10975.06
634.176	10897.24
634.369	10684.25
634.563	10708.83
634.757	10749.79
634.951	10958.68
635.145	10635.1
635.339	10536.8
635.533	10544.99
635.726	10497.89
635.92	10286.95
636.114	10334.05
636.308	10153.83
636.501	10260.32
636.695	9967.46
636.889	10157.92
637.083	9908.07
637.276	10051.43
637.47	9899.88
637.664	10016.62
637.857	9979.75
638.051	9815.91
638.244	9766.76
638.438	9813.87
638.632	9584.49
638.825	9320.31
639.019	9580.4
639.212	9512.81
639.406	9551.73
639.599	9428.85
639.793	9422.7
639.986	9158.52
640.18	8963.96
640.373	9166.71
640.567	9305.97
640.76	9181.04
640.954	9176.95
641.147	8986.49
641.34	8990.58
641.534	9088.89
641.727	8943.48
641.92	8820.6
642.114	8783.74
642.307	8859.51
642.5	8970.1
642.694	8587.13
642.887	8673.15
643.08	8638.33
643.273	8537.98
643.467	8468.35
643.66	8359.81
643.853	8357.76
644.046	8382.34
644.239	8361.86
644.432	8238.98
644.626	8185.73
644.819	8103.81
645.012	8124.29
645.205	8009.61
645.398	8062.85
645.591	8255.36
645.784	8069
645.977	7866.25
646.17	7792.52
646.363	8062.85
646.556	7929.73
646.749	7743.37
646.942	7827.34
647.135	7638.92
647.328	7747.47
647.521	7784.33
647.714	7626.64
647.907	7593.87
648.099	7393.17
648.292	7475.09
648.485	7303.06
648.678	7200.66
648.871	7161.75
649.064	7225.23
649.256	7282.58
649.449	7243.67
649.642	7141.27
649.835	7090.07
650.027	7100.31
650.22	7153.55
650.413	6836.12
650.605	7100.31
650.798	6989.72
650.991	6862.74
651.183	6897.56
651.376	6821.78
651.568	6856.6
651.761	6760.34
651.954	6600.6
652.146	6866.84
652.339	6659.99
652.531	6651.8
652.724	6664.09
652.916	6602.65
653.109	6457.25
653.301	6545.31
653.494	6371.23
653.686	6381.47
653.879	6553.5
654.071	6131.62
654.263	6262.69
654.456	6406.05
654.648	6330.27
654.84	6395.81
655.033	6281.12
655.225	6158.24
655.417	6313.89
655.61	6195.11
655.802	6170.53
655.994	6131.62
656.186	6117.28
656.379	6119.33
656.571	6092.71
656.763	5922.73
656.955	5834.66
657.148	5914.53
657.34	5930.92
657.532	5865.38
657.724	5871.53
657.916	5826.47
658.108	5750.7
658.3	5791.66
658.492	5695.4
658.684	5670.83
658.876	5496.75
659.068	5623.72
659.26	5785.51
659.452	5558.19
659.644	5355.44
659.836	5416.88
660.028	5500.84
660.22	5412.78
660.412	5328.81
660.604	5236.66
660.796	5410.73
660.988	5216.18
661.18	5248.94
661.372	5207.98
661.563	5343.15
661.755	5167.03
661.947	5181.36
662.139	5101.49
662.331	5025.72
662.522	5050.29
662.714	5121.97
662.906	5099.44
663.097	5040.05
663.289	4929.46
663.481	4949.94
663.673	4851.64
663.864	4947.89
664.056	4937.65
664.247	4913.08
664.439	4827.06
664.631	4861.88
664.822	4872.12
665.014	4646.84
665.205	4743.1
665.397	4788.15
665.588	4665.27
665.78	4620.22
665.971	4741.05
666.163	4609.98
666.354	4583.35
666.546	4593.59
666.737	4540.35
666.929	4519.87
667.12	4472.76
667.311	4462.52
667.503	4556.73
667.694	4460.48
667.885	4583.35
668.077	4411.32
668.268	4501.44
668.459	4466.62
668.651	4405.18
668.842	4313.02
669.033	4403.13
669.224	4270.01
669.416	4274.11
669.607	4272.06
669.798	4171.71
669.989	4319.17
670.18	4130.75
670.371	4106.18
670.563	4159.42
670.754	4089.79
670.945	4108.23
671.136	4188.1
671.327	4036.55
671.518	4157.38
671.709	4165.57
671.9	4048.83
672.091	4190.14
672.282	4014.02
672.473	4083.65
672.664	4079.55
672.855	4026.31
673.046	3968.96
673.237	3977.16
673.428	4028.35
673.619	3899.33
673.809	3983.3
674	3930.05
674.191	3899.33
674.382	3946.44
674.573	3819.46
674.764	3934.15
674.954	3985.35
675.145	3885
675.336	3762.12
675.527	3862.47
675.717	3801.03
675.908	3803.08
676.099	3870.66
676.289	3749.83
676.48	3841.99
676.671	3844.04
676.861	3604.43
677.052	3778.5
677.243	3743.69
677.433	3551.18
677.624	3737.54
677.814	3676.1
678.005	3749.83
678.195	3686.34
678.386	3706.82
678.576	3729.35
678.767	3581.9
678.957	3583.95
679.148	3653.58
679.338	3487.69
679.529	3542.99
679.719	3502.03
679.909	3639.24
680.1	3512.27
680.29	3665.86
680.481	3563.47
680.671	3602.38
680.861	3499.98
681.052	3534.79
681.242	3393.48
681.432	3459.02
681.622	3530.7
681.813	3536.84
682.003	3485.64
682.193	3375.05
682.383	3459.02
682.573	3448.78
682.764	3395.53
682.954	3422.16
683.144	3379.15
683.334	3389.39
683.524	3471.31
683.714	3483.59
683.904	3502.03
684.094	3409.87
684.284	3370.96
684.474	3475.4
684.664	3250.13
684.854	3407.82
685.044	3434.44
685.234	3291.09
685.424	3221.45
685.614	3332.05
685.804	3379.15
685.994	3442.64
686.184	3313.61
686.374	3217.36
686.564	3180.5
686.753	3221.45
686.943	3221.45
687.133	3160.02
687.323	3278.8
687.513	3262.41
687.702	3200.98
687.892	3184.59
688.082	3227.6
688.272	3074
688.461	3133.39
688.651	3141.58
688.841	3106.77
689.03	3063.76
689.22	3047.38
689.41	3076.05
689.599	3092.43
689.789	2975.7
689.979	3121.1
690.168	3030.99
690.358	2967.51
690.547	2850.77
690.737	2877.4
690.926	2987.99
691.116	2854.87
691.305	3067.86
691.495	2906.07
691.684	2858.96
691.874	2918.36
692.063	2775
692.252	2799.57
692.442	2854.87
692.631	2861.01
692.82	2844.63
693.01	2699.22
693.199	2680.79
693.388	2717.65
693.578	2658.26
693.767	2844.63
693.956	2738.13
694.146	2740.18
694.335	2631.64
694.524	2609.11
694.713	2713.56
694.902	2656.22
695.092	2697.17
695.281	2467.8
695.47	2584.54
695.659	2666.46
695.848	2578.39
696.037	2590.68
696.226	2643.93
696.415	2566.1
696.604	2637.78
696.793	2639.83
696.982	2654.17
697.171	2586.58
697.36	2633.69
697.549	2484.19
697.738	2553.82
697.927	2488.28
698.116	2469.85
698.305	2498.52
698.494	2410.46
698.683	2545.63
698.872	2471.9
699.061	2545.63
699.25	2387.93
699.438	2488.28
699.627	2516.95
699.816	2521.05
700.005	2447.32
700.193	2475.99
700.382	2512.86
700.571	2408.41
700.76	2539.48
700.948	2529.24
701.137	2475.99
701.326	2514.91
701.514	2432.99
701.703	2490.33
701.892	2519
702.08	2408.41
702.269	2443.23
702.457	2385.88
702.646	2467.8
702.834	2420.7
703.023	2494.43
703.212	2437.08
703.4	2351.07
703.589	2359.26
703.777	2402.27
703.965	2336.73
704.154	2392.03
704.342	2402.27
704.531	2367.45
704.719	2361.31
704.907	2414.56
705.096	2445.27
705.284	2385.88
705.472	2355.16
705.661	2250.72
705.849	2463.71
706.037	2328.54
706.226	2445.27
706.414	2383.84
706.602	2455.51
706.79	2449.37
706.979	2400.22
707.167	2410.46
707.355	2320.35
707.543	2416.6
707.731	2420.7
707.919	2504.67
708.107	2467.8
708.296	2365.4
708.484	2344.92
708.672	2285.53
708.86	2465.75
709.048	2351.07
709.236	2375.64
709.424	2330.59
709.612	2392.03
709.8	2435.03
709.988	2379.74
710.176	2402.27
710.364	2445.27
710.551	2363.36
710.739	2281.44
710.927	2336.73
711.115	2332.64
711.303	2439.13
711.491	2353.12
711.679	2293.72
711.866	2346.97
712.054	2373.6
712.242	2289.63
712.43	2400.22
712.617	2287.58
712.805	2404.32
712.993	2353.12
713.181	2326.49
713.368	2303.96
713.556	2377.69
713.744	2324.44
713.931	2437.08
714.119	2303.96
714.306	2387.93
714.494	2430.94
714.682	2334.68
714.869	2287.58
715.057	2385.88
715.244	2293.72
715.432	2340.83
715.619	2394.08
715.807	2412.51
715.994	2363.36
716.182	2396.12
716.369	2435.03
716.556	2299.87
716.744	2265.05
716.931	2328.54
717.119	2398.17
717.306	2402.27
717.493	2316.25
717.681	2412.51
717.868	2334.68
718.055	2355.16
718.242	2467.8
718.43	2424.79
718.617	2394.08
718.804	2402.27
718.991	2340.83
719.179	2445.27
719.366	2336.73
719.553	2349.02
719.74	2432.99
719.927	2312.16
720.114	2295.77
720.301	2400.22
720.488	2357.21
720.676	2303.96
720.863	2349.02
721.05	2389.98
721.237	2308.06
721.424	2435.03
721.611	2310.11
721.798	2361.31
721.985	2363.36
722.172	2359.26
722.358	2406.36
722.545	2361.31
722.732	2379.74
722.919	2365.4
723.106	2281.44
723.293	2318.3
723.48	2525.15
723.667	2443.23
723.853	2224.09
724.04	2455.51
724.227	2449.37
724.414	2338.78
724.6	2381.79
724.787	2373.6
724.974	2283.49
725.161	2328.54
725.347	2330.59
725.534	2373.6
725.72	2580.44
725.907	2338.78
726.094	2441.18
726.28	2473.95
726.467	2324.44
726.653	2416.6
726.84	2338.78
727.027	2344.92
727.213	2416.6
727.4	2410.46
727.586	2424.79
727.773	2402.27
727.959	2400.22
728.145	2389.98
728.332	2349.02
728.518	2504.67
728.705	2498.52
728.891	2398.17
729.077	2435.03
729.264	2428.89
729.45	2351.07
729.636	2412.51
729.823	2316.25
730.009	2394.08
730.195	2416.6
730.382	2463.71
730.568	2525.15
730.754	2361.31
730.94	2414.56
731.126	2432.99
731.313	2488.28
731.499	2430.94
731.685	2451.42
731.871	2373.6
732.057	2461.66
732.243	2408.41
732.429	2490.33
732.615	2420.7
732.801	2349.02
732.987	2412.51
733.173	2396.12
733.359	2451.42
733.545	2369.5
733.731	2451.42
733.917	2574.3
734.103	2377.69
734.289	2422.75
734.475	2377.69
734.661	2533.34
734.847	2461.66
735.033	2402.27
735.219	2586.58
735.404	2447.32
735.59	2359.26
735.776	2420.7
735.962	2439.13
736.148	2586.58
736.333	2465.75
736.519	2455.51
736.705	2449.37
736.89	2504.67
737.076	2484.19
737.262	2508.76
737.447	2519
737.633	2420.7
737.819	2402.27
738.004	2318.3
738.19	2430.94
738.375	2349.02
738.561	2494.43
738.747	2402.27
738.932	2373.6
739.118	2525.15
739.303	2465.75
739.489	2402.27
739.674	2400.22
739.859	2336.73
740.045	2428.89
740.23	2338.78
740.416	2410.46
740.601	2467.8
740.786	2310.11
740.972	2435.03
741.157	2396.12
741.342	2404.32
741.528	2422.75
741.713	2367.45
741.898	2320.35
742.084	2394.08
742.269	2414.56
742.454	2437.08
742.639	2367.45
742.824	2267.1
743.01	2357.21
743.195	2260.96
743.38	2240.48
743.565	2246.62
743.75	2301.92
743.935	2273.25
744.12	2246.62
744.305	2197.47
744.49	2158.56
744.675	2168.8
744.86	2236.38
745.045	2250.72
745.23	2191.33
745.415	2211.81
745.6	2179.04
745.785	2197.47
745.97	2330.59
746.155	2123.74
746.34	2187.23
746.525	2158.56
746.71	2154.46
746.895	2086.88
747.079	2140.13
747.264	2074.59
747.449	2086.88
747.634	2056.16
747.819	2213.85
748.003	1935.33
748.188	2025.44
748.373	2058.21
748.557	1982.43
748.742	2062.3
748.927	2072.54
749.111	1998.82
749.296	2050.02
749.481	2052.06
749.665	1916.9
749.85	1918.95
750.034	1996.77
750.219	1912.8
750.404	1931.23
750.588	1816.55
750.773	1941.47
750.957	1935.33
751.141	1828.84
751.326	1808.36
751.51	1847.27
751.695	1853.41
751.879	1910.75
752.064	1798.12
752.248	1791.97
752.432	1789.92
752.617	1841.12
752.801	1730.53
752.985	1738.73
753.17	1718.25
753.354	1828.84
753.538	1775.59
753.722	1781.73
753.907	1720.29
754.091	1609.7
754.275	1660.9
754.459	1621.99
754.643	1523.69
754.828	1654.76
755.012	1658.85
755.196	1685.48
755.38	1722.34
755.564	1529.83
755.748	1523.69
755.932	1527.78
756.116	1626.09
756.3	1488.87
756.484	1599.46
756.668	1540.07
756.852	1468.39
757.036	1566.7
757.22	1488.87
757.404	1447.91
757.588	1486.83
757.772	1458.15
757.956	1427.43
758.14	1464.3
758.323	1570.79
758.507	1394.67
758.691	1372.14
758.875	1325.04
759.059	1419.24
759.242	1372.14
759.426	1374.19
759.61	1411.05
759.794	1363.95
759.977	1239.02
760.161	1411.05
760.345	1314.8
760.528	1378.28
760.712	1361.9
760.895	1275.88
761.079	1345.52
761.263	1306.6
761.446	1255.4
761.63	1296.36
761.813	1286.12
761.997	1239.02
762.18	1226.73
762.364	1234.93
762.547	1265.64
762.731	1335.28
762.914	1251.31
763.098	1298.41
763.281	1251.31
763.464	1284.08
763.648	1277.93
763.831	1243.12
764.015	1187.82
764.198	1214.45
764.381	1159.15
764.564	1206.25
764.748	1085.42
764.931	1169.39
765.114	1140.72
765.297	1153.01
765.481	1239.02
765.664	1177.58
765.847	1136.62
766.03	1140.72
766.213	1077.23
766.397	1120.24
766.58	1116.14
766.763	1087.47
766.946	1042.42
767.129	1058.8
767.312	1101.81
767.495	1148.91
767.678	1030.13
767.861	1064.94
768.044	1101.81
768.227	1038.32
768.41	1054.7
768.593	1132.53
768.776	1073.14
768.959	1066.99
769.142	1116.14
769.324	968.69
769.507	1103.86
769.69	1003.5
769.873	1007.6
770.056	1083.38
770.239	1028.08
770.421	989.17
770.604	1001.46
770.787	980.98
770.97	1079.28
771.152	944.11
771.335	1001.46
771.518	1003.5
771.7	1046.51
771.883	1060.85
772.066	903.15
772.248	872.43
772.431	974.83
772.613	987.12
772.796	915.44
772.978	831.48
773.161	948.21
773.343	985.07
773.526	878.58
773.708	933.87
773.891	862.19
774.073	802.8
774.256	892.91
774.438	968.69
774.621	892.91
774.803	856.05
774.985	856.05
775.168	829.43
775.35	821.24
775.532	921.59
775.715	790.52
775.897	849.91
776.079	862.19
776.261	845.81
776.444	784.37
776.626	772.08
776.808	854
776.99	821.24
777.173	767.99
777.355	819.19
777.537	767.99
777.719	739.32
777.901	731.12
778.083	731.12
778.265	757.75
778.447	864.24
778.629	724.98
778.811	751.6
778.993	708.6
779.175	765.94
779.357	774.13
779.539	692.21
779.721	710.65
779.903	720.88
780.085	610.29
780.267	620.53
780.449	753.65
780.631	692.21
780.812	632.82
780.994	653.3
781.176	612.34
781.358	671.73
781.54	604.15
781.721	645.11
781.903	649.21
782.085	675.83
782.267	694.26
782.448	565.24
782.63	567.29
782.812	655.35
782.993	555
783.175	618.49
783.357	618.49
783.538	649.21
783.72	557.05
783.901	528.38
784.083	587.77
784.264	690.17
784.446	636.92
784.627	575.48
784.809	593.91
784.99	536.57
785.172	501.75
785.353	503.8
785.535	516.09
785.716	444.41
785.897	538.62
786.079	536.57
786.26	536.57
786.441	544.76
786.623	507.9
786.804	579.58
786.985	454.65
787.167	526.33
787.348	489.46
787.529	557.05
787.71	522.23
787.891	520.18
788.073	540.66
788.254	458.74
788.435	481.27
788.616	501.75
788.797	428.03
788.978	458.74
789.159	403.45
789.34	524.28
789.522	401.4
789.703	436.22
789.884	376.83
790.065	434.17
790.246	497.66
790.427	491.51
790.607	413.69
790.788	382.97
790.969	378.87
791.15	425.98
791.331	411.64
791.512	358.39
791.693	385.02
791.874	342.01
792.054	409.59
792.235	395.26
792.416	327.67
792.597	352.25
792.778	370.68
792.958	423.93
793.139	356.35
793.32	311.29
793.5	370.68
793.681	401.4
793.862	329.72
794.042	475.13
794.223	311.29
794.404	376.83
794.584	313.34
794.765	296.96
794.945	342.01
795.126	397.31
795.306	339.96
795.487	315.39
795.667	315.39
795.848	327.67
796.028	346.11
796.209	321.53
796.389	327.67
796.57	362.49
796.75	325.63
796.93	339.96
797.111	315.39
797.291	237.56
797.471	301.05
797.652	303.1
797.832	366.59
798.012	321.53
798.192	219.13
798.373	247.8
798.553	272.38
798.733	294.91
798.913	272.38
799.093	253.95
799.274	301.05
799.454	274.43
799.634	372.73
799.814	366.59
799.994	235.52
800.174	278.52
800.354	221.18
800.534	264.19
800.714	247.8
800.894	276.48
801.074	280.57
801.254	243.71
801.434	307.2
801.614	327.67
801.794	282.62
801.974	638.97
802.154	239.61
802.334	335.87
802.514	223.23
802.693	200.7
802.873	155.65
803.053	317.44
803.233	288.76
803.413	200.7
803.592	239.61
803.772	225.28
803.952	249.85
804.131	249.85
804.311	333.82
804.491	282.62
804.67	174.08
804.85	296.96
805.03	348.15
805.209	249.85
805.389	196.61
805.568	276.48
805.748	270.33
805.928	251.9
806.107	258.04
806.287	221.18
806.466	301.05
806.646	225.28
806.825	219.13
807.004	202.75
807.184	290.81
807.363	131.07
807.543	129.02
807.722	231.42
807.901	243.71
808.081	165.89
808.26	153.6
808.439	225.28
808.619	223.23
808.798	264.19
808.977	227.32
809.156	264.19
809.336	233.47
809.515	309.24
809.694	169.98
809.873	227.32
810.052	215.04
810.231	260.09
810.411	301.05
810.59	217.08
810.769	190.46
810.948	233.47
811.127	165.89
811.306	194.56
811.485	161.79
811.664	149.5
811.843	155.65
812.022	157.69
812.201	147.45
812.38	206.84
812.559	198.65
812.737	184.32
812.916	104.45
813.095	249.85
813.274	264.19
813.453	143.36
813.632	233.47
813.811	251.9
813.989	73.73
814.168	221.18
814.347	208.89
814.526	198.65
814.704	229.37
814.883	186.37
815.062	212.99
815.24	274.43
815.419	196.61
815.598	124.93
815.776	174.08
815.955	202.75
816.133	182.27
816.312	114.69
816.49	161.79
816.669	182.27
816.847	151.55
817.026	147.45
817.204	100.35
817.383	180.22
817.561	229.37
817.74	186.37
817.918	122.88
818.097	147.45
818.275	106.49
818.453	194.56
818.632	137.21
818.81	172.03
818.988	133.12
819.167	135.17
819.345	147.45
819.523	126.97
819.701	124.93
819.879	192.51
820.058	176.13
820.236	106.49
820.414	186.37
820.592	212.99
820.77	227.32
820.948	92.16
821.127	139.26
821.305	151.55
821.483	143.36
821.661	116.73
821.839	96.25
822.017	69.63
822.195	83.97
822.373	251.9
822.551	153.6
822.729	155.65
822.907	133.12
823.085	104.45
823.262	104.45
823.44	40.96
823.618	126.97
823.796	114.69
823.974	135.17
824.152	59.39
824.329	86.01
824.507	83.97
824.685	157.69
824.863	51.2
825.04	131.07
825.218	178.17
825.396	40.96
825.574	198.65
825.751	157.69
825.929	122.88
826.107	88.06
826.284	65.53
826.462	30.72
826.639	165.89
826.817	79.87
826.994	40.96
827.172	157.69
827.349	129.02
827.527	153.6
827.704	30.72
827.882	51.2
828.059	129.02
828.237	102.4
828.414	145.41
828.591	79.87
828.769	116.73
828.946	53.25
829.124	104.45
829.301	98.3
829.478	176.13
829.655	112.64
829.833	120.83
830.01	81.92
830.187	102.4
830.364	18.43
830.542	100.35
830.719	116.73
830.896	108.54
831.073	145.41
831.25	186.37
831.427	81.92
831.604	90.11
831.782	73.73
831.959	40.96
832.136	92.16
832.313	77.82
832.49	51.2
832.667	12.29
832.844	104.45
833.021	83.97
833.198	94.21
833.374	79.87
833.551	88.06
833.728	126.97
833.905	122.88
834.082	38.91
834.259	75.77
834.436	116.73
834.612	92.16
834.789	133.12
834.966	61.44
835.143	81.92
835.319	100.35
835.496	126.97
835.673	112.64
835.85	71.68
836.026	94.21
836.203	47.1
836.38	53.25
836.556	69.63
836.733	104.45
836.909	104.45
837.086	26.62
837.262	34.82
837.439	59.39
837.616	32.77
837.792	133.12
837.968	143.36
838.145	65.53
838.321	30.72
838.498	2.05
838.674	24.58
838.851	59.39
839.027	157.69
839.203	116.73
839.38	86.01
839.556	10.24
839.732	83.97
839.909	6.14
840.085	88.06
840.261	83.97
840.437	77.82
840.614	18.43
840.79	106.49
840.966	110.59
841.142	34.82
841.318	59.39
841.494	145.41
841.671	47.1
841.847	149.5
842.023	43.01
842.199	59.39
842.375	83.97
842.551	-12.29
842.727	77.82
842.903	114.69
843.079	55.3
843.255	88.06
843.431	45.06
843.607	51.2
843.783	55.3
843.959	43.01
844.134	49.15
844.31	-26.62
844.486	65.53
844.662	92.16
844.838	67.58
845.013	43.01
845.189	71.68
845.365	92.16
845.541	20.48
845.716	153.6
845.892	45.06
846.068	63.49
846.244	43.01
846.419	47.1
846.595	45.06
846.77	4.1
846.946	47.1
847.122	32.77
847.297	65.53
847.473	143.36
847.648	71.68
847.824	122.88
847.999	4.1
848.175	57.34
848.35	90.11
848.526	86.01
848.701	88.06
848.876	96.25
849.052	-20.48
849.227	49.15
849.403	20.48
849.578	53.25
849.753	63.49
849.929	16.38
850.104	18.43
850.279	67.58
850.454	67.58
850.63	61.44
850.805	14.34
850.98	-6.14
851.155	24.58
851.33	67.58
851.505	6.14
851.681	124.93
851.856	2.05
852.031	18.43
852.206	43.01
852.381	40.96
852.556	28.67
852.731	22.53
852.906	28.67
853.081	98.3
853.256	61.44
853.431	4.1
853.606	116.73
853.781	-2.05
853.956	30.72
854.131	55.3
854.305	0
854.48	65.53
854.655	14.34
854.83	55.3
855.005	51.2
855.18	73.73
855.354	22.53
855.529	71.68
855.704	-20.48
855.879	43.01
856.053	26.62
856.228	2.05
856.403	53.25
856.577	81.92
856.752	18.43
856.926	12.29
857.101	45.06
857.276	71.68
857.45	10.24
857.625	-30.72
857.799	38.91
857.974	53.25
858.148	51.2
858.323	38.91
858.497	4.1
858.672	83.97
858.846	-34.82
859.02	77.82
859.195	-26.62
859.369	30.72
859.543	20.48
859.718	65.53
859.892	53.25
860.066	30.72
860.241	53.25
860.415	-10.24
860.589	-2.05
860.763	59.39
860.938	38.91
861.112	4.1
861.286	18.43
861.46	34.82
861.634	12.29
861.808	20.48
861.982	38.91
862.157	67.58
862.331	-16.38
862.505	22.53
862.679	10.24
862.853	65.53
863.027	32.77
863.201	-59.39
863.375	-26.62
863.549	47.1
863.722	38.91
863.896	24.58
864.07	0
864.244	24.58
864.418	6.14
864.592	67.58
864.766	79.87
864.939	28.67
865.113	34.82
865.287	53.25
865.461	106.49
865.634	-4.1
865.808	-32.77
865.982	63.49
866.156	14.34
866.329	12.29
866.503	34.82
866.676	73.73
866.85	51.2
867.024	83.97
867.197	73.73
867.371	79.87
867.544	10.24
867.718	-88.06
867.891	16.38
868.065	69.63
868.238	20.48
868.412	63.49
868.585	22.53
868.759	26.62
868.932	4.1
869.105	16.38
869.279	-4.1
869.452	12.29
869.625	45.06
869.799	106.49
869.972	-34.82
870.145	-53.25
870.319	22.53
870.492	8.19
870.665	2.05
870.838	69.63
871.011	20.48
871.185	77.82
871.358	20.48
871.531	18.43
871.704	20.48
871.877	49.15
872.05	43.01
872.223	30.72
872.396	8.19
872.569	47.1
872.742	-34.82
872.915	14.34
873.088	96.25
873.261	-20.48
873.434	-43.01
873.607	26.62
873.78	32.77
873.953	-16.38
874.126	67.58
874.299	67.58
874.471	4.1
874.644	38.91
874.817	-26.62
874.99	75.77
875.163	-4.1
875.335	59.39
875.508	14.34
875.681	34.82
875.853	20.48
876.026	14.34
876.199	59.39
876.371	-12.29
876.544	63.49
876.717	73.73
876.889	4.1
877.062	38.91
877.234	24.58
877.407	86.01
877.579	18.43
877.752	129.02
877.924	-28.67
878.097	12.29
878.269	2.05
878.442	16.38
878.614	22.53
878.786	-40.96
878.959	47.1
879.131	94.21
879.303	47.1
879.476	53.25
879.648	81.92
879.82	47.1
879.993	75.77
880.165	0
880.337	-34.82
880.509	14.34
880.681	2.05
880.854	45.06
881.026	-32.77
881.198	53.25
881.37	6.14
881.542	-14.34
881.714	10.24
881.886	122.88
882.058	18.43
882.23	96.25
882.402	-38.91
882.574	57.34
882.746	18.43
882.918	43.01
883.09	51.2
883.262	83.97
883.434	38.91
883.606	14.34
883.778	-8.19
883.95	-20.48
884.122	-34.82
884.293	116.73
884.465	14.34
884.637	63.49
884.809	24.58
884.98	24.58
885.152	22.53
885.324	28.67
885.496	2.05
885.667	75.77
885.839	-14.34
886.011	57.34
886.182	40.96
886.354	30.72
886.525	6.14
886.697	24.58
886.869	-49.15
887.04	2.05
887.212	16.38
887.383	57.34
887.555	28.67
887.726	51.2
887.897	-8.19
888.069	57.34
888.24	65.53
888.412	4.1
888.583	6.14
888.754	-6.14
888.926	-26.62
889.097	-6.14
889.268	-6.14
889.44	2.05
889.611	-34.82
889.782	-24.58
889.953	28.67
890.125	40.96
890.296	0
890.467	-65.54
890.638	-36.86
890.809	-4.1
890.98	6.14
891.151	-20.48
891.323	38.91
891.494	63.49
891.665	32.77
891.836	116.73
892.007	-16.38
892.178	53.25
892.349	-2.05
892.52	26.62
892.691	-16.38
892.862	24.58
893.032	43.01
893.203	-14.34
893.374	4.1
893.545	8.19
893.716	20.48
893.887	-26.62
894.057	-36.86
894.228	0
894.399	-43.01
894.57	-55.3
894.74	2.05
894.911	40.96
895.082	38.91
895.253	34.82
895.423	57.34
895.594	-16.38
895.764	18.43
895.935	14.34
896.106	0
896.276	30.72
896.447	18.43
896.617	6.14
896.788	-65.54
896.958	36.86
897.129	-86.01
897.299	34.82
897.47	47.1
897.64	24.58
897.81	-12.29
897.981	-10.24
898.151	-51.2
898.322	-14.34
898.492	30.72
898.662	71.68
898.832	-14.34
899.003	-45.06
899.173	47.1
899.343	-20.48
899.513	-8.19
