Data from USB4F104151__81__11-45-34-148.txt Node

Date: Fri Mar 14 11:45:34 EDT 2025
User: louis
Spectrometer: USB4F10415
Trigger mode: 4
Integration Time (sec): 2.000000E-2
Scans to average: 1
Electric dark correction enabled: true
Nonlinearity correction enabled: false
Boxcar width: 0
XAxis mode: Wavelengths
Number of Pixels in Spectrum: 3648
>>>>>Begin Spectral Data<<<<<
178.204	-147.8
178.424	-147.8
178.644	-147.8
178.864	-84.31
179.084	-49.49
179.304	1.71
179.524	-4.44
179.744	24.23
179.964	5.8
180.184	-8.53
180.404	32.43
180.624	28.33
180.844	1.71
181.064	-6.49
181.283	-43.35
181.503	-96.6
181.723	65.19
181.943	-8.53
182.163	20.14
182.383	3.75
182.602	57
182.822	-35.16
183.042	75.43
183.262	28.33
183.482	-57.68
183.701	-6.49
183.921	48.81
184.141	22.19
184.361	93.87
184.58	-4.44
184.8	77.48
185.02	7.85
185.239	108.2
185.459	11.95
185.679	52.91
185.898	-10.58
186.118	-8.53
186.338	-20.82
186.557	24.23
186.777	46.76
186.997	7.85
187.216	-0.34
187.436	13.99
187.655	112.3
187.875	52.91
188.095	-33.11
188.314	28.33
188.534	-31.06
188.753	42.67
188.973	67.24
189.192	61.1
189.412	54.95
189.631	32.43
189.851	-12.63
190.07	48.81
190.29	63.15
190.509	-12.63
190.729	13.99
190.948	38.57
191.168	143.02
191.387	83.63
191.607	-4.44
191.826	32.43
192.045	30.38
192.265	-6.49
192.484	75.43
192.704	-0.34
192.923	-41.3
193.142	79.53
193.362	40.62
193.581	73.39
193.8	34.47
194.02	57
194.239	-16.73
194.458	28.33
194.678	20.14
194.897	36.52
195.116	30.38
195.335	57
195.555	3.75
195.774	5.8
195.993	11.95
196.212	42.67
196.432	16.04
196.651	40.62
196.87	-4.44
197.089	102.06
197.308	-29.01
197.528	44.71
197.747	-2.39
197.966	11.95
198.185	79.53
198.404	-8.53
198.623	63.15
198.842	83.63
199.062	46.76
199.281	75.43
199.5	36.52
199.719	11.95
199.938	28.33
200.157	36.52
200.376	104.11
200.595	-29.01
200.814	71.34
201.033	13.99
201.252	48.81
201.471	46.76
201.69	73.39
201.909	50.86
202.128	102.06
202.347	75.43
202.566	28.33
202.785	22.19
203.004	50.86
203.223	140.97
203.442	11.95
203.661	71.34
203.879	-14.68
204.098	50.86
204.317	48.81
204.536	30.38
204.755	13.99
204.974	52.91
205.193	38.57
205.411	36.52
205.63	69.29
205.849	69.29
206.068	-43.35
206.287	24.23
206.505	61.1
206.724	30.38
206.943	42.67
207.162	3.75
207.381	9.9
207.599	61.1
207.818	9.9
208.037	-10.58
208.255	5.8
208.474	16.04
208.693	77.48
208.911	57
209.13	28.33
209.349	30.38
209.567	13.99
209.786	16.04
210.005	77.48
210.223	46.76
210.442	28.33
210.661	63.15
210.879	22.19
211.098	32.43
211.316	22.19
211.535	24.23
211.753	-41.3
211.972	59.05
212.191	-57.68
212.409	44.71
212.628	-10.58
212.846	-41.3
213.065	52.91
213.283	110.25
213.502	32.43
213.72	-18.77
213.938	-24.92
214.157	11.95
214.375	32.43
214.594	44.71
214.812	-20.82
215.031	36.52
215.249	-31.06
215.467	32.43
215.686	-6.49
215.904	65.19
216.122	91.82
216.341	77.48
216.559	42.67
216.778	69.29
216.996	40.62
217.214	22.19
217.432	24.23
217.651	-6.49
217.869	22.19
218.087	13.99
218.306	24.23
218.524	67.24
218.742	38.57
218.96	36.52
219.179	50.86
219.397	36.52
219.615	9.9
219.833	-16.73
220.051	57
220.27	24.23
220.488	81.58
220.706	44.71
220.924	24.23
221.142	20.14
221.36	42.67
221.578	13.99
221.796	77.48
222.015	89.77
222.233	-6.49
222.451	93.87
222.669	-2.39
222.887	50.86
223.105	1.71
223.323	48.81
223.541	32.43
223.759	63.15
223.977	-12.63
224.195	26.28
224.413	54.95
224.631	-4.44
224.849	73.39
225.067	69.29
225.285	-41.3
225.503	50.86
225.721	52.91
225.939	-6.49
226.157	50.86
226.375	73.39
226.592	-14.68
226.81	57
227.028	3.75
227.246	46.76
227.464	-59.73
227.682	89.77
227.9	69.29
228.117	38.57
228.335	-0.34
228.553	77.48
228.771	57
228.989	69.29
229.206	61.1
229.424	44.71
229.642	46.76
229.86	40.62
230.077	106.15
230.295	-0.34
230.513	59.05
230.731	46.76
230.948	112.3
231.166	65.19
231.384	18.09
231.601	81.58
231.819	1.71
232.037	-10.58
232.254	5.8
232.472	38.57
232.689	13.99
232.907	57
233.125	7.85
233.342	48.81
233.56	-4.44
233.777	106.15
233.995	83.63
234.213	26.28
234.43	32.43
234.648	77.48
234.865	3.75
235.083	30.38
235.3	59.05
235.518	13.99
235.735	24.23
235.953	140.97
236.17	24.23
236.388	11.95
236.605	-24.92
236.822	106.15
237.04	1.71
237.257	153.26
237.475	-45.4
237.692	69.29
237.909	77.48
238.127	26.28
238.344	-31.06
238.562	89.77
238.779	-10.58
238.996	-55.64
239.214	52.91
239.431	28.33
239.648	36.52
239.865	61.1
240.083	42.67
240.3	-41.3
240.517	81.58
240.735	11.95
240.952	59.05
241.169	34.47
241.386	44.71
241.603	87.72
241.821	18.09
242.038	63.15
242.255	-10.58
242.472	13.99
242.689	3.75
242.907	32.43
243.124	85.67
243.341	9.9
243.558	54.95
243.775	-4.44
243.992	3.75
244.209	30.38
244.426	40.62
244.643	54.95
244.86	32.43
245.078	95.91
245.295	36.52
245.512	52.91
245.729	81.58
245.946	38.57
246.163	-18.77
246.38	-2.39
246.597	91.82
246.814	26.28
247.031	18.09
247.248	28.33
247.464	26.28
247.681	81.58
247.898	106.15
248.115	11.95
248.332	-4.44
248.549	69.29
248.766	81.58
248.983	44.71
249.2	-20.82
249.417	67.24
249.633	16.04
249.85	69.29
250.067	83.63
250.284	87.72
250.501	26.28
250.717	73.39
250.934	36.52
251.151	13.99
251.368	1.71
251.585	63.15
251.801	100.01
252.018	44.71
252.235	95.91
252.451	5.8
252.668	34.47
252.885	100.01
253.102	34.47
253.318	9.9
253.535	9.9
253.752	16.04
253.968	-31.06
254.185	-65.88
254.401	13.99
254.618	48.81
254.835	87.72
255.051	57
255.268	3.75
255.484	-12.63
255.701	87.72
255.917	52.91
256.134	5.8
256.351	24.23
256.567	-2.39
256.784	20.14
257	18.09
257.217	24.23
257.433	61.1
257.65	75.43
257.866	40.62
258.082	5.8
258.299	-8.53
258.515	40.62
258.732	-67.92
258.948	67.24
259.165	50.86
259.381	9.9
259.597	9.9
259.814	11.95
260.03	16.04
260.246	61.1
260.463	65.19
260.679	20.14
260.895	24.23
261.112	16.04
261.328	59.05
261.544	13.99
261.761	42.67
261.977	36.52
262.193	16.04
262.409	73.39
262.626	-6.49
262.842	79.53
263.058	7.85
263.274	16.04
263.49	40.62
263.707	69.29
263.923	59.05
264.139	-10.58
264.355	-35.16
264.571	38.57
264.787	28.33
265.004	79.53
265.22	63.15
265.436	61.1
265.652	54.95
265.868	61.1
266.084	-33.11
266.3	44.71
266.516	34.47
266.732	11.95
266.948	44.71
267.164	38.57
267.38	-24.92
267.596	-14.68
267.812	122.54
268.028	38.57
268.244	13.99
268.46	40.62
268.676	-12.63
268.892	52.91
269.108	26.28
269.324	38.57
269.54	1.71
269.756	5.8
269.972	54.95
270.188	34.47
270.403	67.24
270.619	67.24
270.835	7.85
271.051	75.43
271.267	-26.96
271.483	52.91
271.698	-24.92
271.914	83.63
272.13	11.95
272.346	32.43
272.562	40.62
272.777	50.86
272.993	38.57
273.209	30.38
273.425	26.28
273.64	-14.68
273.856	118.44
274.072	34.47
274.287	9.9
274.503	48.81
274.719	77.48
274.934	-29.01
275.15	-53.59
275.366	20.14
275.581	-76.12
275.797	132.78
276.012	11.95
276.228	57
276.444	32.43
276.659	52.91
276.875	-20.82
277.09	42.67
277.306	-0.34
277.521	50.86
277.737	9.9
277.952	122.54
278.168	-0.34
278.383	59.05
278.599	5.8
278.814	36.52
279.03	46.76
279.245	81.58
279.461	26.28
279.676	61.1
279.892	-20.82
280.107	71.34
280.322	79.53
280.538	71.34
280.753	100.01
280.969	54.95
281.184	1.71
281.399	79.53
281.615	30.38
281.83	-2.39
282.045	73.39
282.26	83.63
282.476	-53.59
282.691	44.71
282.906	91.82
283.122	69.29
283.337	-10.58
283.552	16.04
283.767	32.43
283.983	18.09
284.198	-6.49
284.413	40.62
284.628	67.24
284.843	83.63
285.058	48.81
285.274	-0.34
285.489	54.95
285.704	3.75
285.919	-35.16
286.134	61.1
286.349	138.92
286.564	52.91
286.779	114.34
286.995	48.81
287.21	30.38
287.425	63.15
287.64	-20.82
287.855	52.91
288.07	3.75
288.285	-29.01
288.5	120.49
288.715	79.53
288.93	-8.53
289.145	40.62
289.36	-20.82
289.575	38.57
289.79	104.11
290.004	69.29
290.219	61.1
290.434	40.62
290.649	26.28
290.864	24.23
291.079	67.24
291.294	-4.44
291.509	30.38
291.724	44.71
291.938	48.81
292.153	46.76
292.368	69.29
292.583	50.86
292.798	116.39
293.012	65.19
293.227	67.24
293.442	38.57
293.657	11.95
293.871	57
294.086	32.43
294.301	63.15
294.516	67.24
294.73	54.95
294.945	44.71
295.16	42.67
295.374	54.95
295.589	16.04
295.804	-10.58
296.018	38.57
296.233	50.86
296.447	-29.01
296.662	87.72
296.877	26.28
297.091	100.01
297.306	18.09
297.52	13.99
297.735	38.57
297.949	13.99
298.164	69.29
298.378	20.14
298.593	63.15
298.807	5.8
299.022	50.86
299.236	13.99
299.451	104.11
299.665	11.95
299.88	-33.11
300.094	59.05
300.309	18.09
300.523	26.28
300.737	5.8
300.952	44.71
301.166	5.8
301.381	63.15
301.595	46.76
301.809	59.05
302.024	18.09
302.238	28.33
302.452	44.71
302.667	61.1
302.881	3.75
303.095	42.67
303.309	61.1
303.524	32.43
303.738	42.67
303.952	48.81
304.166	104.11
304.381	7.85
304.595	11.95
304.809	30.38
305.023	73.39
305.237	75.43
305.452	63.15
305.666	93.87
305.88	118.44
306.094	61.1
306.308	91.82
306.522	102.06
306.736	54.95
306.95	57
307.164	24.23
307.379	40.62
307.593	22.19
307.807	32.43
308.021	57
308.235	16.04
308.449	54.95
308.663	32.43
308.877	73.39
309.091	95.91
309.305	24.23
309.519	16.04
309.733	7.85
309.947	11.95
310.161	67.24
310.374	28.33
310.588	44.71
310.802	3.75
311.016	-6.49
311.23	11.95
311.444	50.86
311.658	-72.02
311.872	-6.49
312.085	30.38
312.299	143.02
312.513	81.58
312.727	87.72
312.941	-16.73
313.154	48.81
313.368	57
313.582	106.15
313.796	61.1
314.009	67.24
314.223	48.81
314.437	22.19
314.651	52.91
314.864	34.47
315.078	11.95
315.292	46.76
315.505	100.01
315.719	13.99
315.933	34.47
316.146	73.39
316.36	61.1
316.573	1.71
316.787	46.76
317.001	87.72
317.214	32.43
317.428	83.63
317.641	-2.39
317.855	38.57
318.068	-0.34
318.282	36.52
318.495	79.53
318.709	85.67
318.922	1.71
319.136	-2.39
319.349	104.11
319.563	-4.44
319.776	57
319.99	44.71
320.203	91.82
320.417	42.67
320.63	52.91
320.843	118.44
321.057	36.52
321.27	16.04
321.483	104.11
321.697	89.77
321.91	71.34
322.124	85.67
322.337	50.86
322.55	-2.39
322.763	102.06
322.977	44.71
323.19	-22.87
323.403	85.67
323.617	-45.4
323.83	93.87
324.043	67.24
324.256	26.28
324.469	-41.3
324.683	136.87
324.896	44.71
325.109	22.19
325.322	52.91
325.535	-22.87
325.748	75.43
325.962	-18.77
326.175	28.33
326.388	13.99
326.601	-2.39
326.814	7.85
327.027	28.33
327.24	54.95
327.453	7.85
327.666	79.53
327.879	11.95
328.092	44.71
328.305	77.48
328.518	30.38
328.731	7.85
328.944	20.14
329.157	-0.34
329.37	7.85
329.583	89.77
329.796	87.72
330.009	85.67
330.222	136.87
330.435	77.48
330.648	69.29
330.861	1.71
331.073	42.67
331.286	83.63
331.499	38.57
331.712	89.77
331.925	52.91
332.138	42.67
332.35	65.19
332.563	11.95
332.776	75.43
332.989	-14.68
333.202	-8.53
333.414	71.34
333.627	77.48
333.84	57
334.053	67.24
334.265	77.48
334.478	40.62
334.691	36.52
334.903	112.3
335.116	63.15
335.329	-12.63
335.541	36.52
335.754	153.26
335.966	48.81
336.179	91.82
336.392	36.52
336.604	46.76
336.817	-4.44
337.029	89.77
337.242	61.1
337.454	89.77
337.667	26.28
337.88	89.77
338.092	-14.68
338.305	22.19
338.517	-18.77
338.729	40.62
338.942	32.43
339.154	26.28
339.367	79.53
339.579	22.19
339.792	44.71
340.004	40.62
340.217	57
340.429	20.14
340.641	24.23
340.854	42.67
341.066	54.95
341.278	75.43
341.491	73.39
341.703	-8.53
341.915	-4.44
342.128	89.77
342.34	26.28
342.552	16.04
342.764	59.05
342.977	114.34
343.189	65.19
343.401	118.44
343.613	36.52
343.826	48.81
344.038	38.57
344.25	38.57
344.462	91.82
344.674	77.48
344.886	89.77
345.099	100.01
345.311	30.38
345.523	79.53
345.735	69.29
345.947	106.15
346.159	93.87
346.371	73.39
346.583	48.81
346.795	102.06
347.007	34.47
347.219	1.71
347.431	67.24
347.643	16.04
347.855	75.43
348.067	69.29
348.279	9.9
348.491	69.29
348.703	63.15
348.915	13.99
349.127	-10.58
349.339	97.96
349.551	38.57
349.763	54.95
349.975	46.76
350.187	63.15
350.399	63.15
350.61	44.71
350.822	85.67
351.034	16.04
351.246	36.52
351.458	81.58
351.669	110.25
351.881	81.58
352.093	69.29
352.305	13.99
352.517	52.91
352.728	63.15
352.94	50.86
353.152	110.25
353.363	3.75
353.575	1.71
353.787	22.19
353.999	44.71
354.21	97.96
354.422	73.39
354.633	3.75
354.845	73.39
355.057	46.76
355.268	65.19
355.48	50.86
355.692	20.14
355.903	16.04
356.115	100.01
356.326	5.8
356.538	54.95
356.749	48.81
356.961	9.9
357.172	-24.92
357.384	71.34
357.595	100.01
357.807	22.19
358.018	67.24
358.23	20.14
358.441	67.24
358.653	97.96
358.864	22.19
359.075	61.1
359.287	104.11
359.498	57
359.709	22.19
359.921	26.28
360.132	89.77
360.344	63.15
360.555	97.96
360.766	20.14
360.977	48.81
361.189	48.81
361.4	52.91
361.611	97.96
361.823	28.33
362.034	-6.49
362.245	91.82
362.456	81.58
362.667	32.43
362.879	20.14
363.09	77.48
363.301	116.39
363.512	75.43
363.723	11.95
363.935	44.71
364.146	24.23
364.357	32.43
364.568	81.58
364.779	67.24
364.99	3.75
365.201	63.15
365.412	75.43
365.623	38.57
365.834	75.43
366.045	87.72
366.256	26.28
366.467	112.3
366.678	57
366.889	40.62
367.1	52.91
367.311	69.29
367.522	52.91
367.733	11.95
367.944	34.47
368.155	75.43
368.366	77.48
368.577	44.71
368.788	143.02
368.999	108.2
369.209	36.52
369.42	93.87
369.631	163.5
369.842	97.96
370.053	38.57
370.264	110.25
370.474	18.09
370.685	46.76
370.896	122.54
371.107	7.85
371.317	69.29
371.528	83.63
371.739	-35.16
371.95	13.99
372.16	-0.34
372.371	7.85
372.582	83.63
372.792	3.75
373.003	138.92
373.214	40.62
373.424	38.57
373.635	83.63
373.846	87.72
374.056	93.87
374.267	57
374.477	120.49
374.688	93.87
374.898	20.14
375.109	34.47
375.319	100.01
375.53	130.73
375.74	91.82
375.951	91.82
376.161	36.52
376.372	104.11
376.582	118.44
376.793	38.57
377.003	44.71
377.214	63.15
377.424	59.05
377.635	85.67
377.845	73.39
378.055	46.76
378.266	126.63
378.476	-6.49
378.686	77.48
378.897	50.86
379.107	108.2
379.317	89.77
379.528	1.71
379.738	42.67
379.948	87.72
380.158	61.1
380.369	108.2
380.579	69.29
380.789	65.19
380.999	57
381.21	67.24
381.42	93.87
381.63	38.57
381.84	81.58
382.05	71.34
382.261	65.19
382.471	77.48
382.681	9.9
382.891	-8.53
383.101	79.53
383.311	-0.34
383.521	48.81
383.731	34.47
383.941	102.06
384.151	71.34
384.361	112.3
384.571	42.67
384.781	100.01
384.991	114.34
385.201	97.96
385.411	93.87
385.621	85.67
385.831	65.19
386.041	46.76
386.251	59.05
386.461	54.95
386.671	83.63
386.881	81.58
387.091	151.21
387.301	63.15
387.511	26.28
387.72	93.87
387.93	77.48
388.14	71.34
388.35	50.86
388.56	79.53
388.769	48.81
388.979	1.71
389.189	126.63
389.399	32.43
389.609	63.15
389.818	132.78
390.028	65.19
390.238	48.81
390.447	73.39
390.657	81.58
390.867	46.76
391.076	93.87
391.286	75.43
391.496	9.9
391.705	77.48
391.915	85.67
392.125	155.3
392.334	67.24
392.544	83.63
392.753	138.92
392.963	85.67
393.172	130.73
393.382	91.82
393.591	77.48
393.801	63.15
394.01	112.3
394.22	-6.49
394.429	134.82
394.639	130.73
394.848	110.25
395.058	110.25
395.267	106.15
395.477	126.63
395.686	147.11
395.895	116.39
396.105	145.06
396.314	108.2
396.524	118.44
396.733	108.2
396.942	175.78
397.152	192.17
397.361	155.3
397.57	104.11
397.78	100.01
397.989	100.01
398.198	188.07
398.407	159.4
398.617	100.01
398.826	145.06
399.035	65.19
399.244	95.91
399.453	138.92
399.663	85.67
399.872	167.59
400.081	100.01
400.29	153.26
400.499	104.11
400.708	157.35
400.917	102.06
401.127	147.11
401.336	153.26
401.545	194.22
401.754	143.02
401.963	206.5
402.172	138.92
402.381	118.44
402.59	163.5
402.799	104.11
403.008	222.89
403.217	122.54
403.426	167.59
403.635	202.41
403.844	75.43
404.053	163.5
404.262	126.63
404.471	247.46
404.68	124.58
404.888	202.41
405.097	186.02
405.306	171.69
405.515	138.92
405.724	226.98
405.933	257.7
406.142	212.65
406.35	136.87
406.559	198.31
406.768	222.89
406.977	226.98
407.185	212.65
407.394	229.03
407.603	218.79
407.812	224.94
408.02	329.38
408.229	255.65
408.438	282.28
408.646	212.65
408.855	249.51
409.064	274.09
409.272	243.37
409.481	331.43
409.69	267.94
409.898	304.81
410.107	382.63
410.315	343.72
410.524	376.48
410.733	392.87
410.941	310.95
411.15	409.25
411.358	339.62
411.567	341.67
411.775	437.92
411.984	446.12
412.192	503.46
412.401	497.32
412.609	532.13
412.818	489.12
413.026	519.84
413.234	554.66
413.443	571.04
413.651	597.67
413.86	591.52
414.068	663.2
414.276	638.62
414.485	743.07
414.693	806.56
414.901	824.99
415.11	847.52
415.318	802.46
415.526	771.74
415.734	841.37
415.943	857.76
416.151	933.53
416.359	917.15
416.567	980.64
416.776	974.49
416.984	1083.03
417.192	997.02
417.4	1046.17
417.608	1083.03
417.817	1128.09
418.025	1234.58
418.233	1281.69
418.441	1216.15
418.649	1363.61
418.857	1384.09
419.065	1425.04
419.273	1396.37
419.481	1472.15
419.689	1601.17
419.897	1517.2
420.105	1728.14
420.313	1623.7
420.521	1781.39
420.729	1756.82
420.937	1810.06
421.145	1955.47
421.353	1961.61
421.561	1998.48
421.769	2143.88
421.977	2264.71
422.185	2166.41
422.393	2324.1
422.601	2434.69
422.809	2387.59
423.017	2424.45
423.224	2553.48
423.432	2649.73
423.64	2725.51
423.848	2958.97
424.056	2721.41
424.263	3102.33
424.471	3126.91
424.679	3096.19
424.887	3286.65
425.094	3313.27
425.302	3380.86
425.51	3462.77
425.718	3671.67
425.925	3643
426.133	3911.28
426.341	4077.16
426.548	4314.73
426.756	4181.61
426.964	4255.34
427.171	4423.27
427.379	4515.43
427.586	4662.88
427.794	4927.07
428.001	5058.14
428.209	5473.88
428.417	5287.51
428.624	5635.67
428.832	5602.9
429.039	5650
429.247	5518.93
429.454	6260.3
429.662	6575.69
429.869	6118.99
430.076	6565.45
430.284	6428.23
430.491	6526.54
430.699	7128.64
430.906	7132.73
431.114	7077.44
431.321	7212.6
431.528	7540.28
431.736	7890.48
431.943	8334.89
432.15	8062.51
432.358	8199.73
432.565	8588.84
432.772	8556.07
432.979	9068.06
433.187	9270.81
433.394	9389.6
433.601	9905.68
433.808	10051.09
434.016	9971.22
434.223	10153.49
434.43	11034.11
434.637	10438.16
434.844	11408.89
435.052	11398.65
435.259	11324.93
435.466	11793.91
435.673	11664.89
435.88	12273.14
436.087	12940.77
436.294	12926.44
436.501	12551.66
436.708	12844.52
436.915	13456.86
437.122	14063.06
437.329	14061.01
437.537	14454.22
437.743	14759.37
437.95	14630.35
438.157	15375.81
438.364	15717.82
438.571	15732.15
438.778	15762.87
438.985	17157.54
439.192	16512.43
439.399	17059.24
439.606	16549.29
439.813	17618.33
440.02	18644.37
440.227	18541.97
440.433	18322.84
440.64	18427.28
440.847	18683.28
441.054	19285.38
441.261	20620.66
441.467	20176.25
441.674	20596.08
441.881	21081.45
442.088	21278.05
442.294	21005.67
442.501	21609.82
442.708	22203.74
442.914	22691.15
443.121	23725.38
443.328	23274.82
443.534	24886.57
443.741	24263.99
443.948	24130.87
444.154	25535.78
444.361	25658.66
444.568	25818.4
444.774	25920.8
444.981	26021.15
445.187	26684.69
445.394	27839.75
445.6	27616.52
445.807	30285.02
446.013	28902.64
446.22	29443.31
446.426	30678.23
446.633	30565.59
446.839	31943.88
447.046	30645.46
447.252	32275.65
447.459	32345.28
447.665	32173.25
447.871	33113.27
448.078	35159.19
448.284	33408.17
448.491	33993.89
448.697	35540.11
448.903	36283.52
449.11	36418.69
449.316	35624.08
449.522	36523.13
449.728	37229.68
449.935	37457.01
450.141	37248.11
450.347	38497.38
450.553	37201.01
450.76	37942.38
450.966	38730.84
451.172	38534.24
451.378	39609.42
451.584	38790.23
451.791	39572.56
451.997	39654.48
452.203	40045.64
452.409	40137.8
452.615	40172.61
452.821	38614.11
453.027	38134.88
453.233	40604.74
453.44	38204.52
453.646	38870.11
453.852	38923.35
454.058	39920.71
454.264	38569.05
454.47	39148.63
454.676	38454.37
454.882	39636.05
455.088	36510.85
455.294	36809.85
455.5	37252.21
455.705	37960.81
455.911	36068.48
456.117	35415.18
456.323	35091.6
456.529	33232.05
456.735	34690.2
456.941	33813.67
457.147	33205.42
457.352	32281.79
457.558	32009.41
457.764	32027.84
457.97	31128.78
458.176	30641.37
458.381	30584.02
458.587	29222.12
458.793	29408.49
458.999	28032.25
459.204	29527.27
459.41	29039.86
459.616	26967.31
459.821	27114.76
460.027	26748.18
460.233	26461.46
460.438	25271.59
460.644	25562.4
460.85	24294.71
461.055	24061.24
461.261	23678.27
461.466	22177.11
461.672	21585.25
461.878	22818.13
462.083	21325.16
462.289	20854.12
462.494	20954.47
462.7	19862.91
462.905	19242.37
463.111	20102.52
463.316	19942.78
463.522	19447.17
463.727	19639.68
463.932	19297.67
464.138	19557.76
464.343	19289.48
464.549	18695.57
464.754	19350.92
464.959	19281.28
465.165	19152.26
465.37	18206.1
465.575	17964.44
465.781	18656.65
465.986	18754.96
466.191	18038.17
466.397	17589.66
466.602	16846.25
466.807	17483.17
467.012	17534.37
467.218	17364.39
467.423	17395.11
467.628	17337.76
467.833	17665.44
468.038	17180.07
468.244	16801.19
468.449	17497.5
468.654	17110.44
468.859	16891.3
469.064	16567.73
469.269	16348.59
469.474	16266.67
469.679	16694.7
469.885	15879.61
470.09	16403.89
470.295	16340.4
470.5	15717.82
470.705	15799.74
470.91	15465.92
471.115	15138.24
471.32	15650.24
471.525	15369.66
471.73	15123.91
471.935	14972.36
472.139	14380.5
472.344	14937.54
472.549	14818.76
472.754	14450.13
472.959	14175.7
473.164	13942.23
473.369	13678.04
473.574	14241.23
473.778	14022.1
473.983	13745.62
474.188	13764.06
474.393	13399.52
474.598	13297.12
474.802	13422.05
475.007	12920.29
475.212	12901.86
475.417	12619.24
475.621	12731.88
475.826	12713.45
476.031	12516.84
476.235	12223.98
476.44	12326.38
476.645	12099.06
476.849	12275.18
477.054	11851.25
477.259	12041.71
477.463	11881.97
477.668	11243.01
477.872	11529.72
478.077	11449.85
478.282	11224.58
478.486	11050.5
478.691	11111.94
478.895	10997.25
479.1	10974.72
479.304	10841.61
479.509	10722.82
479.713	10974.72
479.918	10499.59
480.122	10364.43
480.326	10642.95
480.531	10483.21
480.735	10165.78
480.94	10454.54
481.144	10520.07
481.348	10053.14
481.553	10415.63
481.757	10108.43
481.961	10210.83
482.166	10321.42
482.37	10020.37
482.574	9840.15
482.778	9866.77
482.983	10376.72
483.187	10180.11
483.391	10278.41
483.595	9907.73
483.8	10120.72
484.004	10382.86
484.208	10180.11
484.412	10155.54
484.616	10108.43
484.821	10257.93
485.025	10003.99
485.229	10165.78
485.433	10063.38
485.637	9899.54
485.841	10030.61
486.045	9889.3
486.249	10112.53
486.453	9868.82
486.657	9981.46
486.861	10288.65
487.065	9928.21
487.269	10022.42
487.473	10147.34
487.677	10280.46
487.881	10124.82
488.085	10096.14
488.289	10051.09
488.493	9960.98
488.697	10157.58
488.901	10165.78
489.105	10133.01
489.309	10290.7
489.512	10247.69
489.716	10360.33
489.92	10167.82
490.124	10087.95
490.328	10315.28
490.531	10237.45
490.735	10206.73
490.939	10452.49
491.143	10282.51
491.346	10270.22
491.55	10393.1
491.754	10481.16
491.958	10505.74
492.161	10667.53
492.365	10493.45
492.569	10624.52
492.772	10409.48
492.976	10642.95
493.18	10700.3
493.383	10884.61
493.587	10901
493.79	10964.48
493.994	10927.62
494.197	11134.46
494.401	11378.17
494.605	11355.65
494.808	11234.82
495.012	11193.86
495.215	11425.28
495.419	11341.31
495.622	11542.01
495.825	11740.66
496.029	11603.45
496.232	11892.21
496.436	11800.05
496.639	12146.16
496.843	11988.47
497.046	12090.87
497.249	12565.99
497.453	12422.64
497.656	12621.29
497.859	12572.14
498.063	12811.75
498.266	13004.26
498.469	13069.8
498.673	13018.6
498.876	13276.64
499.079	13313.5
499.282	13460.96
499.485	13829.59
499.689	13776.34
499.892	14056.92
500.095	14089.68
500.298	14376.4
500.501	14400.97
500.705	14732.75
500.908	14720.46
501.111	14955.97
501.314	14917.06
501.517	14958.02
501.72	15340.99
501.923	15224.26
502.126	15648.19
502.329	15910.33
502.532	16209.33
502.735	15912.38
502.938	16575.92
503.141	16606.64
503.344	16614.83
503.547	16643.5
503.75	16741.8
503.953	17216.93
504.156	17577.37
504.359	17554.85
504.562	17567.13
504.765	17984.92
504.968	17954.2
505.17	18396.56
505.373	18417.04
505.576	18961.8
505.779	18875.79
505.982	18986.38
506.185	19432.83
506.387	19213.7
506.59	19547.52
506.793	20090.23
506.996	19873.15
507.198	20116.86
507.401	20364.66
507.604	20442.48
507.807	20917.61
508.009	21493.09
508.212	21081.45
508.415	21501.28
508.617	21638.5
508.82	21726.56
509.022	21810.53
509.225	22398.29
509.428	22658.38
509.63	22478.16
509.833	22762.83
510.035	23383.37
510.238	23358.79
510.44	23678.27
510.643	23956.8
510.845	24143.16
511.048	23897.41
511.25	24755.5
511.453	24763.7
511.655	25322.79
511.858	25185.58
512.06	25224.49
512.262	25634.08
512.465	25765.15
512.667	26141.98
512.87	26283.29
513.072	26098.97
513.274	26989.84
513.477	27198.73
513.679	27567.37
513.881	27403.53
514.084	27804.93
514.286	27780.35
514.488	28155.13
514.69	28927.22
514.893	29093.1
515.095	28976.37
515.297	29412.59
515.499	29641.96
515.701	29828.32
515.904	30371.04
516.106	30420.19
516.308	30725.33
516.51	31028.43
516.712	31311.05
516.914	31345.87
517.116	31618.25
517.318	31945.92
517.52	31974.59
517.722	32607.42
517.925	32507.07
518.127	33363.12
518.329	33313.97
518.531	33027.25
518.733	33846.44
518.935	34245.79
519.136	34026.66
519.338	34270.37
519.54	34684.06
519.742	34929.81
519.944	34847.89
520.146	35538.06
520.348	35781.77
520.55	36199.55
520.752	36371.58
520.954	36811.9
521.155	36631.68
521.357	37295.22
521.559	37270.64
521.761	37958.76
521.963	37905.51
522.164	38151.27
522.366	38423.65
522.568	38532.19
522.77	38902.87
522.971	39447.63
523.173	39421.01
523.375	39595.09
523.576	39230.55
523.778	39642.19
523.98	40465.47
524.181	40453.19
524.383	40291.4
524.584	41237.56
524.786	40862.78
524.988	41129.02
525.189	41579.57
525.391	41843.76
525.592	41829.42
525.794	42124.33
525.995	42071.08
526.197	42181.67
526.398	42243.11
526.6	42521.63
526.801	42843.16
527.003	43025.43
527.204	42804.25
527.406	43402.26
527.607	43658.26
527.808	43938.83
528.01	42976.28
528.211	43848.72
528.412	44309.51
528.614	44198.92
528.815	44155.91
529.016	44749.82
529.218	44284.93
529.419	44157.96
529.62	44723.2
529.822	44831.74
530.023	44706.82
530.224	45104.12
530.425	45048.83
530.626	44655.62
530.828	44602.37
531.029	45218.81
531.23	45319.16
531.431	45057.02
531.632	45349.88
531.833	45714.42
532.035	45302.78
532.236	45282.3
532.437	45847.54
532.638	45143.03
532.839	45478.9
533.04	46042.09
533.241	45767.66
533.442	46060.52
533.643	45528.05
533.844	45878.25
534.045	46228.46
534.246	45632.5
534.447	45884.4
534.648	45790.19
534.849	46042.09
535.05	45796.34
535.251	46255.08
535.451	45978.61
535.652	45741.04
535.853	45736.94
536.054	46412.77
536.255	46146.54
536.456	45779.95
536.657	46228.46
536.857	45792.24
537.058	46158.83
537.259	46568.42
537.46	46310.38
537.66	46322.66
537.861	46167.02
538.062	46302.18
538.263	46117.87
538.463	45730.8
538.664	45732.85
538.865	46248.94
539.065	46142.44
539.266	45509.62
539.466	46259.18
539.667	45401.08
539.868	46191.59
540.068	45902.83
540.269	45968.37
540.469	46302.18
540.67	45708.27
540.87	45929.45
541.071	45597.68
541.271	46345.19
541.472	45868.01
541.672	45603.83
541.873	45548.53
542.073	45507.57
542.274	46005.23
542.474	45810.67
542.675	45437.94
542.875	46248.94
543.075	46054.38
543.276	45745.14
543.476	46248.94
543.676	45620.21
543.877	46175.21
544.077	45802.48
544.277	45593.59
544.478	45693.94
544.678	46103.53
544.878	46113.77
545.078	45888.49
545.279	45513.72
545.479	45589.49
545.679	45562.87
545.879	45671.41
546.079	45855.73
546.28	45339.64
546.48	45110.27
546.68	45837.3
546.88	45462.52
547.08	46007.28
547.28	45597.68
547.48	45614.07
547.68	45433.85
547.88	45437.94
548.081	45726.7
548.281	45573.11
548.481	45435.89
548.681	45812.72
548.881	45241.34
549.081	45478.9
549.28	45202.42
549.48	45640.69
549.68	45458.42
549.88	45892.59
550.08	45249.53
550.28	45620.21
550.48	45523.96
550.68	45921.26
550.88	45163.51
551.08	45192.19
551.279	45698.03
551.479	45134.84
551.679	45650.93
551.879	45489.14
552.079	45933.55
552.278	45235.19
552.478	45257.72
552.678	45255.67
552.878	45683.7
553.077	44962.81
553.277	44901.37
553.477	45245.43
553.676	45059.07
553.876	45120.51
554.076	44901.37
554.275	44497.92
554.475	44545.03
554.674	44874.75
554.874	44790.78
555.074	44807.17
555.273	45157.37
555.473	44801.02
555.672	44669.95
555.872	44561.41
556.071	44846.08
556.271	44971
556.47	44364.81
556.67	44385.29
556.869	44590.08
557.068	44336.13
557.268	44106.76
557.467	44397.57
557.667	44172.3
557.866	44495.88
558.065	44284.93
558.265	43609.11
558.464	43955.21
558.663	44123.15
558.863	43961.36
559.062	44710.91
559.261	43387.92
559.461	44309.51
559.66	43639.82
559.859	43480.08
560.058	43414.55
560.258	43721.74
560.457	43303.96
560.656	43588.63
560.855	42988.57
561.054	43480.08
561.253	43023.39
561.453	43805.71
561.652	43516.95
561.851	43516.95
562.05	43052.06
562.249	43127.83
562.448	42843.16
562.647	42914.84
562.846	43047.96
563.045	42992.67
563.244	42671.14
563.443	43090.97
563.642	42277.93
563.841	42705.95
564.04	42200.1
564.239	42284.07
564.438	41862.19
564.637	42634.27
564.836	42329.12
565.035	41661.49
565.234	42316.84
565.432	41716.78
565.631	41860.14
565.83	41968.68
566.029	41268.28
566.228	41694.25
566.427	41194.55
566.625	41178.17
566.824	40776.76
567.023	41294.9
567.222	40569.92
567.42	41270.32
567.619	40909.88
567.818	41450.55
568.016	40674.37
568.215	41047.1
568.414	40639.55
568.612	40821.82
568.811	40244.29
569.01	40488
569.208	40031.3
569.407	40391.75
569.605	39623.76
569.804	40496.19
570.002	39769.16
570.201	39779.4
570.4	39834.7
570.598	39435.34
570.797	39515.22
570.995	39744.59
571.193	39257.17
571.392	39728.2
571.59	39066.71
571.789	39181.4
571.987	39064.66
572.186	39089.24
572.384	38786.14
572.582	38872.15
572.781	38857.82
572.979	38173.8
573.177	38458.46
573.376	38343.78
573.574	38165.6
573.772	38290.53
573.971	38014.05
574.169	37887.08
574.367	37766.25
574.565	38190.18
574.763	37549.17
574.962	37995.62
575.16	37362.8
575.358	37809.26
575.556	37115
575.754	37532.78
575.952	36934.78
576.151	37463.15
576.349	36854.9
576.547	37385.33
576.745	36963.45
576.943	37311.6
577.141	36631.68
577.339	36834.42
577.537	36433.02
577.735	36441.21
577.933	36271.23
578.131	36471.93
578.329	36148.36
578.527	35998.85
578.725	36240.51
578.923	36273.28
579.121	35732.62
579.319	35810.44
579.516	35851.4
579.714	35574.92
579.912	35359.89
580.11	35478.67
580.308	35671.18
580.506	35181.71
580.704	34827.42
580.901	35503.24
581.099	35083.41
581.297	34436.25
581.495	34743.45
581.692	34866.33
581.89	34626.71
582.088	34641.05
582.285	34106.53
582.483	34512.03
582.681	34702.49
582.878	34276.51
583.076	33909.93
583.274	34137.25
583.471	33883.3
583.669	33815.72
583.866	33361.07
584.064	33830.05
584.262	33402.03
584.459	33492.14
584.657	33535.15
584.854	33500.33
585.052	32892.08
585.249	33297.58
585.447	32910.52
585.644	32597.18
585.841	33182.9
586.039	33189.04
586.236	32308.41
586.434	32588.99
586.631	32427.2
586.828	32683.19
587.026	32816.31
587.223	32384.19
587.42	32181.44
587.618	32337.09
587.815	32079.04
588.012	31839.43
588.21	31882.44
588.407	31864
588.604	31669.45
588.801	31343.82
588.999	31691.98
589.196	31452.36
589.393	31546.57
589.59	31360.2
589.787	31257.81
589.984	30866.64
590.182	30776.53
590.379	31364.3
590.576	30678.23
590.773	30893.27
590.97	30758.1
591.167	30766.29
591.364	30498.01
591.561	30616.79
591.758	30317.79
591.955	30182.62
592.152	30411.99
592.349	29930.72
592.546	29930.72
592.743	29928.67
592.94	29506.79
593.137	29893.86
593.334	29787.36
593.531	29199.6
593.727	29619.43
593.924	29545.7
594.121	29029.62
594.318	29486.31
594.515	29428.97
594.712	29605.09
594.908	28898.55
595.105	29275.37
595.302	28589.3
595.499	29226.22
595.696	28699.89
595.892	28421.37
596.089	28587.25
596.286	28669.17
596.482	28482.81
596.679	28220.67
596.876	28685.56
597.072	27804.93
597.269	28343.55
597.466	27776.26
597.662	27766.02
597.859	27882.75
598.055	28241.15
598.252	27712.77
598.448	27411.72
598.645	27804.93
598.841	27090.19
599.038	27532.55
599.234	27337.99
599.431	27331.85
599.627	26805.52
599.824	26883.34
600.02	27069.71
600.217	27100.43
600.413	26617.11
600.609	26666.26
600.806	26307.87
601.002	26918.16
601.198	26502.42
601.395	26520.85
601.591	26498.33
601.787	26340.63
601.984	25953.57
602.18	26428.7
602.376	25939.23
602.572	26287.39
602.769	25783.59
602.965	25724.19
603.161	25654.56
603.357	25386.28
603.553	25357.61
603.75	25525.54
603.946	25460.01
604.142	25322.79
604.338	25169.19
604.534	25388.33
604.73	24880.43
604.926	24692.02
605.122	24915.25
605.318	24704.31
605.514	24585.52
605.71	24921.39
605.906	24894.77
606.102	24716.59
606.298	24466.74
606.494	24687.92
606.69	24532.28
606.886	24376.63
607.082	24173.88
607.278	24683.83
607.474	24008
607.67	24333.62
607.866	23907.65
608.062	24028.48
608.257	23844.16
608.453	24024.38
608.649	24198.46
608.845	23706.94
609.041	24155.45
609.236	23760.19
609.432	23637.31
609.628	23772.48
609.824	23797.06
610.019	23485.76
610.215	23274.82
610.411	23457.09
610.606	23414.09
610.802	23399.75
610.998	23487.81
611.193	23395.65
611.389	23217.48
611.584	23217.48
611.78	22957.39
611.976	23297.35
612.171	22928.72
612.367	22607.19
612.562	22854.99
612.758	22355.29
612.953	22787.41
613.149	22736.21
613.344	22603.09
613.539	22863.18
613.735	22756.69
613.93	22725.97
614.126	22594.9
614.321	22811.98
614.517	22443.35
614.712	22732.11
614.907	22222.17
615.103	22252.89
615.298	22302.04
615.493	22644.05
615.688	22328.66
615.884	22553.94
616.079	22084.95
616.274	22238.55
616.47	22168.92
616.665	22072.67
616.86	21960.03
617.055	22123.87
617.25	21738.85
617.445	21994.84
617.641	21712.22
617.836	21912.92
618.031	21437.8
618.226	21710.18
618.421	21626.21
618.616	21972.32
618.811	21323.11
619.006	22009.18
619.201	21134.7
619.396	21460.32
619.591	20917.61
619.786	21171.56
619.981	21032.3
620.176	21073.26
620.371	20884.84
620.566	20907.37
620.761	20809.07
620.956	20655.47
621.151	20510.07
621.346	20548.98
621.541	20049.27
621.735	20395.38
621.93	20219.25
622.125	19969.4
622.32	19875.2
622.515	19971.45
622.709	19920.25
622.904	19740.03
623.099	19506.56
623.294	19561.86
623.488	19348.87
623.683	19584.38
623.878	19031.43
624.072	19373.44
624.267	18953.61
624.462	18775.44
624.656	18744.72
624.851	18724.24
625.046	18544.02
625.24	18496.91
625.435	18306.45
625.629	18140.57
625.824	18259.35
626.018	18163.09
626.213	17882.52
626.407	17907.1
626.602	17878.43
626.796	17657.25
626.991	17903
627.185	17434.02
627.38	17194.4
627.574	17466.78
627.768	17329.57
627.963	17206.69
628.157	17038.76
628.352	17292.71
628.546	16795.05
628.74	16901.54
628.935	16551.34
629.129	16426.42
629.323	16340.4
629.517	16494
629.712	16440.75
629.906	16332.21
630.1	16149.94
630.294	16127.41
630.489	15812.03
630.683	15799.74
630.877	15730.11
631.071	15719.87
631.265	15922.62
631.459	15789.5
631.653	15480.25
631.848	15584.7
632.042	15455.68
632.236	15304.13
632.43	15162.82
632.624	15273.41
632.818	14843.34
633.012	14810.57
633.206	14876.1
633.4	14892.49
633.594	14513.61
633.788	14546.38
633.982	14763.47
634.176	14638.54
634.369	14636.49
634.563	14517.71
634.757	14366.16
634.951	14106.07
635.145	14392.78
635.339	14030.29
635.533	14007.76
635.726	14036.44
635.92	13800.92
636.114	13860.31
636.308	13807.06
636.501	13702.62
636.695	13667.8
636.889	13581.79
637.083	13491.68
637.276	13354.46
637.47	13426.14
637.664	13311.46
637.857	13063.65
638.051	13041.12
638.244	12903.91
638.438	12944.87
638.632	12821.99
638.825	12807.66
639.019	12758.5
639.212	12748.26
639.406	12752.36
639.599	12617.19
639.793	12592.62
639.986	12183.02
640.18	12563.95
640.373	12447.21
640.567	12275.18
640.76	12201.46
640.954	12152.31
641.147	12137.97
641.34	12006.9
641.534	11871.73
641.727	11970.04
641.92	11820.53
642.114	11691.51
642.307	11572.73
642.5	11615.74
642.694	11486.72
642.887	11372.03
643.08	11759.1
643.273	11181.57
643.467	11474.43
643.66	11302.4
643.853	10976.77
644.046	11021.83
644.239	11204.1
644.432	10976.77
644.626	10958.34
644.819	10962.44
645.012	11017.73
645.205	10835.46
645.398	10782.21
645.591	10835.46
645.784	10792.45
645.977	10571.27
646.17	10747.4
646.363	10518.03
646.556	10645
646.749	10378.76
646.942	10376.72
647.135	10339.85
647.328	10194.45
647.521	10085.9
647.714	10067.47
647.907	10219.02
648.099	9881.11
648.292	10087.95
648.485	9958.93
648.678	9825.81
648.871	9963.03
649.064	9698.84
649.256	9911.83
649.449	9676.31
649.642	9758.23
649.835	9514.52
650.027	9627.16
650.22	9313.82
650.413	9500.19
650.605	9496.09
650.798	9295.39
650.991	9377.31
651.183	9274.91
651.376	8900.13
651.568	9109.02
651.761	9213.47
651.954	9000.48
652.146	9117.22
652.339	9031.2
652.531	8898.08
652.724	8818.21
652.916	8721.96
653.109	8773.16
653.301	8754.73
653.494	8783.4
653.686	8556.07
653.879	8570.41
654.071	8496.68
654.263	8496.68
654.456	8244.78
654.648	8388.14
654.84	8418.86
655.033	8226.35
655.225	8171.05
655.417	8164.91
655.61	8205.87
655.802	8216.11
655.994	8281.64
656.186	8126
656.379	8064.56
656.571	7816.76
656.763	7933.49
656.955	7818.8
657.148	8007.22
657.34	7845.43
657.532	7835.19
657.724	7659.06
657.916	7753.27
658.108	7564.86
658.3	7595.57
658.492	7659.06
658.684	7274.04
658.876	7523.9
659.068	7341.63
659.26	7300.67
659.452	7466.55
659.644	7587.38
659.836	7427.64
660.028	7489.08
660.22	7196.22
660.412	7126.59
660.604	7194.17
660.796	7296.57
660.988	6964.8
661.18	6852.16
661.372	7026.24
661.563	7022.14
661.755	6911.55
661.947	6985.28
662.139	6805.06
662.331	6856.26
662.522	6829.63
662.714	6651.46
662.906	6760
663.097	6739.52
663.289	6731.33
663.481	6555.21
663.673	6573.64
663.864	6540.87
664.056	6573.64
664.247	6331.98
664.439	6454.86
664.631	6575.69
664.822	6409.8
665.014	6346.31
665.205	6295.11
665.397	6293.07
665.588	6360.65
665.78	6141.52
665.971	6164.04
666.163	6200.91
666.354	6127.18
666.546	6145.61
666.737	6071.89
666.929	6147.66
667.12	5985.87
667.311	5967.44
667.503	5875.28
667.694	6127.18
667.885	5989.97
668.077	5906
668.268	5811.79
668.459	5754.45
668.651	5826.13
668.842	5842.51
669.033	5750.35
669.224	5625.43
669.416	5674.58
669.607	5815.89
669.798	5703.25
669.989	5727.83
670.18	5486.17
670.371	5615.19
670.563	5609.05
670.754	5676.63
670.945	5486.17
671.136	5418.58
671.327	5551.7
671.518	5531.22
671.709	5480.02
671.9	5512.79
672.091	5420.63
672.282	5439.06
672.473	5461.59
672.664	5434.97
672.855	5307.99
673.046	5187.16
673.237	5310.04
673.428	5207.64
673.619	5387.86
673.809	5140.06
674	5201.5
674.191	5095
674.382	5084.77
674.573	5148.25
674.764	5181.02
674.954	5185.12
675.145	4951.65
675.336	5021.28
675.527	5058.14
675.717	5013.09
675.908	4982.37
676.099	4963.93
676.289	4851.3
676.48	4922.98
676.671	4875.87
676.861	4986.46
677.052	4748.9
677.243	4787.81
677.433	4800.1
677.624	4882.02
677.814	4834.91
678.005	4892.26
678.195	4761.19
678.386	4814.43
678.576	4863.58
678.767	4720.23
678.957	4775.52
679.148	4884.06
679.338	4685.41
679.529	4611.68
679.719	4722.27
679.909	4748.9
680.1	4669.03
680.29	4681.32
680.481	4636.26
680.671	4570.72
680.861	4589.16
681.052	4490.85
681.242	4484.71
681.432	4540.01
681.622	4406.89
681.813	4517.48
682.003	4451.94
682.193	4505.19
682.383	4533.86
682.573	4609.64
682.764	4419.18
682.954	4521.57
683.144	4492.9
683.334	4400.74
683.524	4261.48
683.714	4390.5
683.904	4351.59
684.094	4318.82
684.284	4312.68
684.474	4419.18
684.664	4345.45
684.854	4429.42
685.044	4331.11
685.234	4331.11
685.424	4300.39
685.614	4226.67
685.804	4179.56
685.994	4105.84
686.184	4157.04
686.374	4126.32
686.564	4089.45
686.753	4077.16
686.943	4148.84
687.133	4197.99
687.323	4089.45
687.513	4095.6
687.702	3952.24
687.892	4019.82
688.082	4064.88
688.272	4136.56
688.461	4023.92
688.651	3997.29
688.841	3972.72
689.03	3993.2
689.22	3878.51
689.41	3958.38
689.599	3745.39
689.789	3989.1
689.979	3784.3
690.168	3821.17
690.358	3786.35
690.547	3802.74
690.737	3638.9
690.926	3774.07
691.116	3651.19
691.305	3737.2
691.495	3726.96
691.684	3626.61
691.874	3696.24
692.063	3626.61
692.252	3653.23
692.442	3659.38
692.631	3634.8
692.82	3563.12
693.01	3655.28
693.199	3520.12
693.388	3526.26
693.578	3524.21
693.767	3495.54
693.956	3591.8
694.146	3526.26
694.335	3456.63
694.524	3401.33
694.713	3575.41
694.902	3599.99
695.092	3313.27
695.281	3278.46
695.47	3315.32
695.659	3460.73
695.848	3341.94
696.037	3356.28
696.226	3374.71
696.415	3352.18
696.604	3415.67
696.793	3464.82
696.982	3294.84
697.171	3384.95
697.36	3409.53
697.549	3305.08
697.738	3292.79
697.927	3325.56
698.116	3210.87
698.305	3307.13
698.494	3284.6
698.683	3346.04
698.872	3268.22
699.061	3157.63
699.25	3225.21
699.438	3253.88
699.627	3249.79
699.816	3182.2
700.005	3284.6
700.193	3165.82
700.382	3217.02
700.571	3296.89
700.76	3253.88
700.948	3110.52
701.137	3317.37
701.326	3020.41
701.514	3280.5
701.703	3262.07
701.892	3022.46
702.08	3257.98
702.269	3200.63
702.457	3233.4
702.646	3126.91
702.834	3106.43
703.023	3149.43
703.212	3178.11
703.4	3153.53
703.589	3153.53
703.777	3243.64
703.965	3149.43
704.154	3241.59
704.342	2989.69
704.531	3145.34
704.719	3233.4
704.907	3192.44
705.096	3028.6
705.284	3106.43
705.472	3092.09
705.661	3126.91
705.849	3114.62
706.037	3120.76
706.226	2987.65
706.414	3124.86
706.602	3106.43
706.79	3063.42
706.979	2977.41
707.167	3157.63
707.355	2985.6
707.543	3186.3
707.731	3038.84
707.919	3047.04
708.107	2987.65
708.296	3081.85
708.484	2956.93
708.672	3145.34
708.86	3051.13
709.048	2969.21
709.236	3014.27
709.424	2967.17
709.612	2995.84
709.8	2938.49
709.988	3016.32
710.176	2881.15
710.364	3010.17
710.551	2950.78
710.739	3112.57
710.927	3059.32
711.115	2920.06
711.303	3053.18
711.491	2952.83
711.679	3020.41
711.866	2977.41
712.054	3120.76
712.242	2920.06
712.43	2993.79
712.617	3004.03
712.805	2934.4
712.993	3016.32
713.181	2901.63
713.368	2932.35
713.556	2920.06
713.744	2877.05
713.931	2993.79
714.119	2965.12
714.306	2952.83
714.494	2946.69
714.682	2958.97
714.869	2852.48
715.057	3008.12
715.244	2979.45
715.432	2948.73
715.619	2920.06
715.807	3006.08
715.994	2922.11
716.182	3012.22
716.369	2950.78
716.556	2909.82
716.744	2926.21
716.931	2780.8
717.119	2928.25
717.306	2907.77
717.493	2866.81
717.681	2950.78
717.868	2864.77
718.055	2780.8
718.242	2850.43
718.43	2963.07
718.617	2913.92
718.804	2942.59
718.991	2934.4
719.179	3053.18
719.366	2852.48
719.553	2897.53
719.74	2963.07
719.927	2766.46
720.114	2893.44
720.301	2979.45
720.488	2858.62
720.676	2897.53
720.863	2803.33
721.05	2827.9
721.237	2909.82
721.424	2862.72
721.611	2922.11
721.798	2858.62
721.985	2834.05
722.172	2862.72
722.358	2827.9
722.545	2922.11
722.732	2719.36
722.919	2842.24
723.106	2883.2
723.293	2848.38
723.48	2784.9
723.667	2797.18
723.853	2793.09
724.04	2870.91
724.227	2969.21
724.414	2862.72
724.6	2881.15
724.787	2883.2
724.974	2866.81
725.161	2852.48
725.347	2715.27
725.534	2807.42
725.72	2735.74
725.907	2795.14
726.094	2748.03
726.28	2727.55
726.467	2856.58
726.653	2811.52
726.84	2823.81
727.027	2815.62
727.213	2797.18
727.4	2791.04
727.586	2778.75
727.773	2893.44
727.959	2782.85
728.145	2811.52
728.332	2809.47
728.518	2768.51
728.705	2836.1
728.891	2758.27
729.077	2805.38
729.264	2889.34
729.45	2801.28
729.636	2707.07
729.823	2745.98
730.009	2772.61
730.195	2827.9
730.382	2754.18
730.568	2920.06
730.754	2739.84
730.94	2836.1
731.126	2868.86
731.313	2936.45
731.499	2737.79
731.685	2915.97
731.871	2670.21
732.057	2858.62
732.243	2797.18
732.429	2743.94
732.615	2834.05
732.801	2967.17
732.987	2809.47
733.173	2741.89
733.359	2768.51
733.545	2803.33
733.731	2682.5
733.917	2768.51
734.103	2702.98
734.289	2832
734.475	2723.46
734.661	2815.62
734.847	2852.48
735.033	2678.4
735.219	2838.14
735.404	2748.03
735.59	2772.61
735.776	2760.32
735.962	2743.94
736.148	2760.32
736.333	2682.5
736.519	2678.4
736.705	2721.41
736.89	2635.39
737.076	2739.84
737.262	2645.63
737.447	2774.66
737.633	2688.64
737.819	2686.59
738.004	2616.96
738.19	2713.22
738.375	2688.64
738.561	2649.73
738.747	2664.07
738.932	2733.7
739.118	2803.33
739.303	2592.39
739.489	2553.48
739.674	2612.87
739.859	2631.3
740.045	2737.79
740.23	2782.85
740.416	2643.59
740.601	2588.29
740.786	2553.48
740.972	2659.97
741.157	2598.53
741.342	2576
741.528	2588.29
741.713	2545.28
741.898	2578.05
742.084	2598.53
742.269	2608.77
742.454	2535.04
742.639	2715.27
742.824	2489.99
743.01	2506.37
743.195	2504.32
743.38	2555.52
743.565	2465.41
743.75	2547.33
743.935	2440.84
744.12	2619.01
744.305	2446.98
744.49	2430.6
744.675	2543.24
744.86	2385.54
745.045	2332.3
745.23	2381.45
745.415	2371.21
745.6	2326.15
745.785	2412.17
745.97	2403.97
746.155	2375.3
746.34	2258.57
746.525	2399.88
746.71	2354.82
746.895	2277
747.079	2258.57
747.264	2258.57
747.449	2365.06
747.634	2166.41
747.819	2350.73
748.003	2299.53
748.188	2221.7
748.373	2213.51
748.557	2133.64
748.742	2252.42
748.927	2139.79
749.111	2260.62
749.296	2160.27
749.481	2135.69
749.665	2137.74
749.85	2053.77
750.034	2029.2
750.219	2131.59
750.404	2098.83
750.588	2059.92
750.773	1912.46
750.957	1980.04
751.141	1971.85
751.326	2035.34
751.51	2029.2
751.695	1959.56
751.879	1959.56
752.064	1967.76
752.248	1932.94
752.432	1930.89
752.617	1920.65
752.801	1971.85
752.985	1851.02
753.17	2004.62
753.354	1875.6
753.538	1801.87
753.722	1760.91
753.907	1754.77
754.091	1871.5
754.275	1740.43
754.459	1760.91
754.643	1826.45
754.828	1871.5
755.012	1592.98
755.196	1691.28
755.38	1738.38
755.564	1785.49
755.748	1773.2
755.932	1662.61
756.116	1640.08
756.3	1676.95
756.484	1627.79
756.668	1601.17
756.852	1588.88
757.036	1701.52
757.22	1699.47
757.404	1562.26
757.588	1611.41
757.772	1595.03
757.956	1601.17
758.14	1580.69
758.323	1484.44
758.507	1552.02
758.691	1631.89
758.875	1443.48
759.059	1597.07
759.242	1455.76
759.426	1494.68
759.61	1441.43
759.794	1453.72
759.977	1539.73
760.161	1529.49
760.345	1558.16
760.528	1482.39
760.712	1478.29
760.895	1355.41
761.079	1414.81
761.263	1429.14
761.446	1431.19
761.63	1443.48
761.813	1390.23
761.997	1404.57
762.18	1408.66
762.364	1351.32
762.547	1351.32
762.731	1328.79
762.914	1279.64
763.098	1447.57
763.281	1377.94
763.464	1318.55
763.648	1263.26
763.831	1332.89
764.015	1250.97
764.198	1289.88
764.381	1183.38
764.564	1205.91
764.748	1275.54
764.931	1314.45
765.114	1269.4
765.297	1175.19
765.481	1363.61
765.664	1214.1
765.847	1183.38
766.03	1113.75
766.213	1228.44
766.397	1210.01
766.58	1269.4
766.763	1185.43
766.946	1148.57
767.129	1246.87
767.312	1167
767.495	1191.58
767.678	1234.58
767.861	1236.63
768.044	1175.19
768.227	1173.14
768.41	1234.58
768.593	1199.77
768.776	1255.06
768.959	1091.23
769.142	1222.3
769.324	1203.86
769.507	1242.78
769.69	1126.04
769.873	1031.83
770.056	1212.06
770.239	1048.22
770.421	1064.6
770.604	1154.71
770.787	1169.05
770.97	1097.37
771.152	1027.74
771.335	1052.31
771.518	1042.07
771.7	1064.6
771.883	1017.5
772.066	999.07
772.248	1095.32
772.431	1224.34
772.613	1109.66
772.796	1031.83
772.978	1054.36
773.161	1017.5
773.343	974.49
773.526	1011.36
773.708	997.02
773.891	997.02
774.073	992.92
774.256	941.72
774.438	1037.98
774.621	962.2
774.803	970.4
774.985	894.62
775.168	964.25
775.35	904.86
775.532	935.58
775.715	874.14
775.897	962.2
776.079	904.86
776.261	872.09
776.444	917.15
776.626	908.96
776.808	808.61
776.99	855.71
777.173	863.9
777.355	931.48
777.537	913.05
777.719	851.61
777.901	861.85
778.083	876.19
778.265	687.78
778.447	857.76
778.629	755.36
778.811	794.27
778.993	847.52
779.175	755.36
779.357	751.26
779.539	777.89
779.721	718.5
779.903	800.41
780.085	757.41
780.267	751.26
780.449	712.35
780.631	771.74
780.812	734.88
780.994	738.98
781.176	640.67
781.358	652.96
781.54	679.58
781.721	820.89
781.903	724.64
782.085	669.34
782.267	759.46
782.448	704.16
782.63	677.54
782.812	708.26
782.993	777.89
783.175	708.26
783.357	624.29
783.538	581.28
783.72	587.43
783.901	614.05
784.083	671.39
784.264	589.47
784.446	548.51
784.627	607.91
784.809	632.48
784.99	585.38
785.172	640.67
785.353	556.71
785.535	581.28
785.716	499.36
785.897	525.99
786.079	538.27
786.26	575.14
786.441	521.89
786.623	534.18
786.804	550.56
786.985	577.19
787.167	568.99
787.348	632.48
787.529	538.27
787.71	519.84
787.891	491.17
788.073	577.19
788.254	456.36
788.435	538.27
788.616	536.23
788.797	429.73
788.978	517.79
789.159	497.32
789.34	515.75
789.522	482.98
789.703	435.88
789.884	439.97
790.065	468.64
790.246	501.41
790.427	474.79
790.607	478.88
790.788	442.02
790.969	405.16
791.15	442.02
791.331	487.08
791.512	437.92
791.693	419.49
791.874	399.01
792.054	523.94
792.235	439.97
792.416	446.12
792.597	442.02
792.778	464.55
792.958	392.87
793.139	450.21
793.32	421.54
793.5	345.77
793.681	448.16
793.862	358.05
794.042	376.48
794.223	421.54
794.404	437.92
794.584	390.82
794.765	431.78
794.945	372.39
795.126	343.72
795.306	386.72
795.487	382.63
795.667	368.29
795.848	319.14
796.028	349.86
796.209	417.44
796.389	433.83
796.57	409.25
796.75	329.38
796.93	417.44
797.111	386.72
797.291	351.91
797.471	337.57
797.652	341.67
797.832	366.25
798.012	401.06
798.192	362.15
798.373	292.52
798.553	329.38
798.733	288.42
798.913	343.72
799.093	325.29
799.274	313
799.454	358.05
799.634	339.62
799.814	405.16
799.994	245.41
800.174	290.47
800.354	360.1
800.534	261.8
800.714	386.72
800.894	282.28
801.074	298.66
801.254	308.9
801.434	300.71
801.614	331.43
801.794	310.95
801.974	724.64
802.154	294.57
802.334	339.62
802.514	319.14
802.693	194.22
802.873	306.85
803.053	313
803.233	304.81
803.413	288.42
803.592	222.89
803.772	347.81
803.952	220.84
804.131	226.98
804.311	278.18
804.491	306.85
804.67	237.22
804.85	214.7
805.03	253.61
805.209	323.24
805.389	239.27
805.568	267.94
805.748	235.18
805.928	319.14
806.107	261.8
806.287	243.37
806.466	280.23
806.646	276.13
806.825	233.13
807.004	216.74
807.184	237.22
807.363	292.52
807.543	255.65
807.722	188.07
807.901	257.7
808.081	278.18
808.26	171.69
808.439	229.03
808.619	204.46
808.798	122.54
808.977	231.08
809.156	288.42
809.336	122.54
809.515	259.75
809.694	247.46
809.873	179.88
810.052	188.07
810.231	220.84
810.411	171.69
810.59	222.89
810.769	210.6
810.948	276.13
811.127	204.46
811.306	231.08
811.485	269.99
811.664	200.36
811.843	155.3
812.022	226.98
812.201	169.64
812.38	231.08
812.559	128.68
812.737	212.65
812.916	183.98
813.095	145.06
813.274	239.27
813.453	253.61
813.632	222.89
813.811	186.02
813.989	136.87
814.168	212.65
814.347	136.87
814.526	198.31
814.704	224.94
814.883	214.7
815.062	233.13
815.24	202.41
815.419	216.74
815.598	128.68
815.776	165.54
815.955	188.07
816.133	190.12
816.312	251.56
816.49	95.91
816.669	173.74
816.847	186.02
817.026	118.44
817.204	224.94
817.383	181.93
817.561	292.52
817.74	226.98
817.918	149.16
818.097	136.87
818.275	118.44
818.453	165.54
818.632	210.6
818.81	106.15
818.988	136.87
819.167	153.26
819.345	116.39
819.523	91.82
819.701	149.16
819.879	108.2
820.058	198.31
820.236	155.3
820.414	173.74
820.592	159.4
820.77	190.12
820.948	132.78
821.127	208.55
821.305	181.93
821.483	102.06
821.661	159.4
821.839	132.78
822.017	130.73
822.195	108.2
822.373	196.26
822.551	118.44
822.729	202.41
822.907	126.63
823.085	140.97
823.262	147.11
823.44	97.96
823.618	130.73
823.796	183.98
823.974	102.06
824.152	165.54
824.329	87.72
824.507	145.06
824.685	159.4
824.863	157.35
825.04	132.78
825.218	118.44
825.396	194.22
825.574	102.06
825.751	75.43
825.929	179.88
826.107	91.82
826.284	132.78
826.462	190.12
826.639	188.07
826.817	46.76
826.994	83.63
827.172	71.34
827.349	106.15
827.527	102.06
827.704	134.82
827.882	83.63
828.059	216.74
828.237	175.78
828.414	151.21
828.591	122.54
828.769	81.58
828.946	89.77
829.124	153.26
829.301	163.5
829.478	87.72
829.655	140.97
829.833	147.11
830.01	73.39
830.187	186.02
830.364	97.96
830.542	116.39
830.719	106.15
830.896	116.39
831.073	130.73
831.25	226.98
831.427	132.78
831.604	104.11
831.782	151.21
831.959	169.64
832.136	100.01
832.313	110.25
832.49	130.73
832.667	97.96
832.844	110.25
833.021	97.96
833.198	28.33
833.374	83.63
833.551	106.15
833.728	157.35
833.905	108.2
834.082	140.97
834.259	126.63
834.436	114.34
834.612	46.76
834.789	93.87
834.966	75.43
835.143	114.34
835.319	71.34
835.496	89.77
835.673	46.76
835.85	69.29
836.026	126.63
836.203	102.06
836.38	63.15
836.556	87.72
836.733	63.15
836.909	95.91
837.086	67.24
837.262	34.47
837.439	104.11
837.616	97.96
837.792	7.85
837.968	143.02
838.145	32.43
838.321	81.58
838.498	210.6
838.674	120.49
838.851	81.58
839.027	91.82
839.203	63.15
839.38	136.87
839.556	11.95
839.732	114.34
839.909	52.91
840.085	91.82
840.261	28.33
840.437	50.86
840.614	100.01
840.79	91.82
840.966	61.1
841.142	116.39
841.318	50.86
841.494	204.46
841.671	48.81
841.847	124.58
842.023	85.67
842.199	77.48
842.375	46.76
842.551	85.67
842.727	73.39
842.903	112.3
843.079	-2.39
843.255	102.06
843.431	85.67
843.607	134.82
843.783	73.39
843.959	69.29
844.134	93.87
844.31	61.1
844.486	65.19
844.662	20.14
844.838	30.38
845.013	7.85
845.189	138.92
845.365	118.44
845.541	24.23
845.716	61.1
845.892	40.62
846.068	75.43
846.244	24.23
846.419	52.91
846.595	71.34
846.77	122.54
846.946	44.71
847.122	91.82
847.297	106.15
847.473	65.19
847.648	-18.77
847.824	34.47
847.999	18.09
848.175	81.58
848.35	151.21
848.526	57
848.701	18.09
848.876	93.87
849.052	91.82
849.227	75.43
849.403	106.15
849.578	42.67
849.753	100.01
849.929	102.06
850.104	52.91
850.279	73.39
850.454	-12.63
850.63	61.1
850.805	108.2
850.98	48.81
851.155	40.62
851.33	85.67
851.505	-29.01
851.681	108.2
851.856	9.9
852.031	91.82
852.206	69.29
852.381	65.19
852.556	-24.92
852.731	-14.68
852.906	-29.01
853.081	30.38
853.256	104.11
853.431	95.91
853.606	52.91
853.781	63.15
853.956	32.43
854.131	63.15
854.305	-22.87
854.48	-18.77
854.655	9.9
854.83	50.86
855.005	18.09
855.18	126.63
855.354	44.71
855.529	65.19
855.704	13.99
855.879	79.53
856.053	28.33
856.228	171.69
856.403	24.23
856.577	85.67
856.752	-0.34
856.926	34.47
857.101	-47.44
857.276	48.81
857.45	36.52
857.625	89.77
857.799	40.62
857.974	36.52
858.148	24.23
858.323	5.8
858.497	3.75
858.672	46.76
858.846	22.19
859.02	5.8
859.195	7.85
859.369	-35.16
859.543	126.63
859.718	26.28
859.892	93.87
860.066	36.52
860.241	95.91
860.415	20.14
860.589	48.81
860.763	-59.73
860.938	-18.77
861.112	28.33
861.286	73.39
861.46	-24.92
861.634	36.52
861.808	63.15
861.982	44.71
862.157	11.95
862.331	1.71
862.505	46.76
862.679	5.8
862.853	65.19
863.027	24.23
863.201	91.82
863.375	40.62
863.549	54.95
863.722	24.23
863.896	38.57
864.07	59.05
864.244	38.57
864.418	32.43
864.592	63.15
864.766	5.8
864.939	18.09
865.113	-39.25
865.287	54.95
865.461	50.86
865.634	3.75
865.808	30.38
865.982	28.33
866.156	-10.58
866.329	-0.34
866.503	71.34
866.676	67.24
866.85	9.9
867.024	57
867.197	63.15
867.371	48.81
867.544	1.71
867.718	-0.34
867.891	34.47
868.065	-37.2
868.238	11.95
868.412	77.48
868.585	42.67
868.759	24.23
868.932	24.23
869.105	71.34
869.279	63.15
869.452	52.91
869.625	18.09
869.799	7.85
869.972	30.38
870.145	7.85
870.319	69.29
870.492	32.43
870.665	44.71
870.838	81.58
871.011	-31.06
871.185	42.67
871.358	-65.88
871.531	63.15
871.704	-0.34
871.877	-29.01
872.05	16.04
872.223	79.53
872.396	65.19
872.569	40.62
872.742	-26.96
872.915	20.14
873.088	44.71
873.261	-29.01
873.434	22.19
873.607	-18.77
873.78	50.86
873.953	-14.68
874.126	3.75
874.299	71.34
874.471	-12.63
874.644	108.2
874.817	16.04
874.99	57
875.163	32.43
875.335	48.81
875.508	13.99
875.681	11.95
875.853	38.57
876.026	-24.92
876.199	93.87
876.371	75.43
876.544	16.04
876.717	42.67
876.889	7.85
877.062	36.52
877.234	18.09
877.407	69.29
877.579	44.71
877.752	-16.73
877.924	34.47
878.097	11.95
878.269	67.24
878.442	5.8
878.614	40.62
878.786	28.33
878.959	-61.78
879.131	114.34
879.303	42.67
879.476	89.77
879.648	7.85
879.82	24.23
879.993	28.33
880.165	20.14
880.337	3.75
880.509	-49.49
880.681	-8.53
880.854	-33.11
881.026	-45.4
881.198	7.85
881.37	-16.73
881.542	-14.68
881.714	42.67
881.886	73.39
882.058	-16.73
882.23	20.14
882.402	9.9
882.574	-10.58
882.746	7.85
882.918	-63.83
883.09	32.43
883.262	63.15
883.434	22.19
883.606	11.95
883.778	38.57
883.95	81.58
884.122	-12.63
884.293	46.76
884.465	48.81
884.637	65.19
884.809	-43.35
884.98	13.99
885.152	26.28
885.324	42.67
885.496	22.19
885.667	-6.49
885.839	36.52
886.011	48.81
886.182	44.71
886.354	3.75
886.525	18.09
886.697	85.67
886.869	24.23
887.04	-67.92
887.212	16.04
887.383	28.33
887.555	26.28
887.726	-49.49
887.897	48.81
888.069	11.95
888.24	24.23
888.412	59.05
888.583	-53.59
888.754	-12.63
888.926	-20.82
889.097	57
889.268	40.62
889.44	79.53
889.611	9.9
889.782	44.71
889.953	48.81
890.125	-26.96
890.296	7.85
890.467	-0.34
890.638	22.19
890.809	110.25
890.98	-41.3
891.151	28.33
891.323	34.47
891.494	30.38
891.665	48.81
891.836	24.23
892.007	46.76
892.178	9.9
892.349	3.75
892.52	-22.87
892.691	3.75
892.862	50.86
893.032	42.67
893.203	-14.68
893.374	-4.44
893.545	32.43
893.716	7.85
893.887	63.15
894.057	-16.73
894.228	73.39
894.399	13.99
894.57	36.52
894.74	40.62
894.911	38.57
895.082	-72.02
895.253	-2.39
895.423	7.85
895.594	46.76
895.764	-16.73
895.935	-12.63
896.106	-10.58
896.276	-65.88
896.447	-35.16
896.617	-16.73
896.788	-14.68
896.958	5.8
897.129	28.33
897.299	-12.63
897.47	-22.87
897.64	22.19
897.81	48.81
897.981	120.49
898.151	28.33
898.322	32.43
898.492	48.81
898.662	-20.82
898.832	46.76
899.003	22.19
899.173	-18.77
899.343	-6.49
899.513	3.75
