Data from USB4F104151__87__11-45-41-246.txt Node

Date: Fri Mar 14 11:45:41 EDT 2025
User: louis
Spectrometer: USB4F10415
Trigger mode: 4
Integration Time (sec): 2.000000E-2
Scans to average: 1
Electric dark correction enabled: true
Nonlinearity correction enabled: false
Boxcar width: 0
XAxis mode: Wavelengths
Number of Pixels in Spectrum: 3648
>>>>>Begin Spectral Data<<<<<
178.204	-65.71
178.424	-65.71
178.644	-65.71
178.864	-110.76
179.084	-53.42
179.304	-12.46
179.524	12.12
179.744	5.97
179.964	100.18
180.184	-86.19
180.404	3.93
180.624	20.31
180.844	-2.22
181.064	-34.99
181.283	36.69
181.503	22.36
181.723	-65.71
181.943	-30.89
182.163	69.46
182.383	-45.23
182.602	-4.27
182.822	14.17
183.042	-12.46
183.262	-4.27
183.482	22.36
183.701	-0.17
183.921	-4.27
184.141	-49.32
184.361	46.93
184.58	16.21
184.8	18.26
185.02	-16.55
185.239	81.75
185.459	24.4
185.679	102.23
185.898	-14.51
186.118	-49.32
186.338	8.02
186.557	-8.36
186.777	30.55
186.997	-16.55
187.216	30.55
187.436	1.88
187.655	48.98
187.875	24.4
188.095	46.93
188.314	30.55
188.534	8.02
188.753	42.84
188.973	-2.22
189.192	100.18
189.412	71.51
189.631	57.17
189.851	36.69
190.07	38.74
190.29	-4.27
190.509	24.4
190.729	81.75
190.948	12.12
191.168	83.8
191.387	14.17
191.607	-84.14
191.826	-14.51
192.045	81.75
192.265	-16.55
192.484	-2.22
192.704	-4.27
192.923	-30.89
193.142	-37.03
193.362	59.22
193.581	20.31
193.8	40.79
194.02	26.45
194.239	-22.7
194.458	91.99
194.678	10.07
194.897	32.6
195.116	-16.55
195.335	8.02
195.555	79.7
195.774	-37.03
195.993	8.02
196.212	-2.22
196.432	16.21
196.651	32.6
196.87	-10.41
197.089	75.6
197.308	59.22
197.528	53.08
197.747	53.08
197.966	51.03
198.185	16.21
198.404	75.6
198.623	63.32
198.842	-47.27
199.062	63.32
199.281	65.36
199.5	-10.41
199.719	53.08
199.938	16.21
200.157	30.55
200.376	32.6
200.595	61.27
200.814	-39.08
201.033	42.84
201.252	-16.55
201.471	18.26
201.69	44.88
201.909	14.17
202.128	-32.94
202.347	28.5
202.566	-22.7
202.785	34.64
203.004	61.27
203.223	77.65
203.442	48.98
203.661	34.64
203.879	1.88
204.098	71.51
204.317	38.74
204.536	79.7
204.755	20.31
204.974	51.03
205.193	-39.08
205.411	87.89
205.63	-10.41
205.849	46.93
206.068	34.64
206.287	-24.75
206.505	42.84
206.724	32.6
206.943	48.98
207.162	65.36
207.381	42.84
207.599	-0.17
207.818	46.93
208.037	38.74
208.255	-22.7
208.474	110.42
208.693	28.5
208.911	38.74
209.13	53.08
209.349	110.42
209.567	-49.32
209.786	55.12
210.005	12.12
210.223	81.75
210.442	-0.17
210.661	51.03
210.879	-18.6
211.098	89.94
211.316	67.41
211.535	69.46
211.753	51.03
211.972	46.93
212.191	34.64
212.409	-4.27
212.628	38.74
212.846	12.12
213.065	73.56
213.283	-22.7
213.502	-88.23
213.72	-32.94
213.938	-26.79
214.157	100.18
214.375	55.12
214.594	24.4
214.812	22.36
215.031	3.93
215.249	16.21
215.467	55.12
215.686	32.6
215.904	-6.31
216.122	-67.75
216.341	28.5
216.559	18.26
216.778	57.17
216.996	79.7
217.214	12.12
217.432	10.07
217.651	-14.51
217.869	36.69
218.087	-12.46
218.306	63.32
218.524	63.32
218.742	8.02
218.96	61.27
219.179	30.55
219.397	-14.51
219.615	81.75
219.833	28.5
220.051	75.6
220.27	55.12
220.488	73.56
220.706	-12.46
220.924	-12.46
221.142	71.51
221.36	26.45
221.578	40.79
221.796	61.27
222.015	32.6
222.233	16.21
222.451	114.52
222.669	46.93
222.887	10.07
223.105	14.17
223.323	-6.31
223.541	12.12
223.759	10.07
223.977	36.69
224.195	40.79
224.413	-0.17
224.631	20.31
224.849	28.5
225.067	44.88
225.285	-0.17
225.503	28.5
225.721	16.21
225.939	40.79
226.157	61.27
226.375	81.75
226.592	5.97
226.81	-8.36
227.028	40.79
227.246	26.45
227.464	110.42
227.682	51.03
227.9	28.5
228.117	14.17
228.335	-4.27
228.553	22.36
228.771	48.98
228.989	1.88
229.206	55.12
229.424	-4.27
229.642	104.28
229.86	-8.36
230.077	83.8
230.295	12.12
230.513	57.17
230.731	-2.22
230.948	36.69
231.166	73.56
231.384	-6.31
231.601	77.65
231.819	20.31
232.037	-10.41
232.254	-6.31
232.472	-39.08
232.689	-53.42
232.907	51.03
233.125	-14.51
233.342	24.4
233.56	16.21
233.777	38.74
233.995	-63.66
234.213	42.84
234.43	143.19
234.648	61.27
234.865	46.93
235.083	40.79
235.3	81.75
235.518	32.6
235.735	-12.46
235.953	38.74
236.17	10.07
236.388	59.22
236.605	20.31
236.822	124.76
237.04	-53.42
237.257	40.79
237.475	36.69
237.692	8.02
237.909	30.55
238.127	-8.36
238.344	22.36
238.562	51.03
238.779	-8.36
238.996	77.65
239.214	16.21
239.431	36.69
239.648	-45.23
239.865	32.6
240.083	57.17
240.3	34.64
240.517	-43.18
240.735	-6.31
240.952	44.88
241.169	28.5
241.386	118.61
241.603	-4.27
241.821	28.5
242.038	42.84
242.255	46.93
242.472	40.79
242.689	42.84
242.907	40.79
243.124	-41.13
243.341	-4.27
243.558	73.56
243.775	3.93
243.992	-47.27
244.209	-10.41
244.426	69.46
244.643	8.02
244.86	-6.31
245.078	12.12
245.295	83.8
245.512	46.93
245.729	51.03
245.946	73.56
246.163	44.88
246.38	77.65
246.597	-4.27
246.814	10.07
247.031	-8.36
247.248	12.12
247.464	94.04
247.681	32.6
247.898	16.21
248.115	71.51
248.332	12.12
248.549	42.84
248.766	69.46
248.983	34.64
249.2	-30.89
249.417	10.07
249.633	40.79
249.85	12.12
250.067	24.4
250.284	-0.17
250.501	40.79
250.717	44.88
250.934	-20.65
251.151	71.51
251.368	-14.51
251.585	10.07
251.801	-2.22
252.018	-6.31
252.235	-22.7
252.451	-55.47
252.668	-14.51
252.885	40.79
253.102	24.4
253.318	8.02
253.535	-2.22
253.752	-2.22
253.968	32.6
254.185	36.69
254.401	32.6
254.618	32.6
254.835	-6.31
255.051	24.4
255.268	36.69
255.484	-34.99
255.701	-30.89
255.917	40.79
256.134	3.93
256.351	-4.27
256.567	-8.36
256.784	24.4
257	61.27
257.217	8.02
257.433	8.02
257.65	-0.17
257.866	-30.89
258.082	-37.03
258.299	-32.94
258.515	8.02
258.732	-41.13
258.948	-16.55
259.165	-47.27
259.381	22.36
259.597	48.98
259.814	12.12
260.03	40.79
260.246	32.6
260.463	28.5
260.679	1.88
260.895	-2.22
261.112	102.23
261.328	73.56
261.544	44.88
261.761	34.64
261.977	5.97
262.193	1.88
262.409	-16.55
262.626	-16.55
262.842	26.45
263.058	-4.27
263.274	-45.23
263.49	53.08
263.707	135
263.923	42.84
264.139	1.88
264.355	5.97
264.571	18.26
264.787	-47.27
265.004	36.69
265.22	12.12
265.436	32.6
265.652	-16.55
265.868	36.69
266.084	-2.22
266.3	10.07
266.516	71.51
266.732	75.6
266.948	-49.32
267.164	28.5
267.38	38.74
267.596	69.46
267.812	-4.27
268.028	63.32
268.244	48.98
268.46	-2.22
268.676	-41.13
268.892	36.69
269.108	-12.46
269.324	-6.31
269.54	14.17
269.756	110.42
269.972	-20.65
270.188	-37.03
270.403	-63.66
270.619	-37.03
270.835	108.37
271.051	-4.27
271.267	14.17
271.483	-4.27
271.698	59.22
271.914	94.04
272.13	28.5
272.346	-8.36
272.562	1.88
272.777	-8.36
272.993	48.98
273.209	77.65
273.425	-41.13
273.64	-20.65
273.856	32.6
274.072	3.93
274.287	12.12
274.503	22.36
274.719	63.32
274.934	10.07
275.15	28.5
275.366	28.5
275.581	-10.41
275.797	36.69
276.012	57.17
276.228	89.94
276.444	51.03
276.659	79.7
276.875	-0.17
277.09	67.41
277.306	69.46
277.521	-4.27
277.737	20.31
277.952	-8.36
278.168	24.4
278.383	42.84
278.599	1.88
278.814	40.79
279.03	-73.9
279.245	42.84
279.461	3.93
279.676	34.64
279.892	55.12
280.107	-65.71
280.322	-12.46
280.538	3.93
280.753	24.4
280.969	24.4
281.184	-8.36
281.399	38.74
281.615	-2.22
281.83	67.41
282.045	-49.32
282.26	55.12
282.476	53.08
282.691	53.08
282.906	-4.27
283.122	77.65
283.337	28.5
283.552	30.55
283.767	38.74
283.983	-18.6
284.198	-16.55
284.413	71.51
284.628	38.74
284.843	18.26
285.058	48.98
285.274	79.7
285.489	-20.65
285.704	-6.31
285.919	-32.94
286.134	36.69
286.349	42.84
286.564	67.41
286.779	51.03
286.995	94.04
287.21	-45.23
287.425	71.51
287.64	55.12
287.855	-24.75
288.07	22.36
288.285	98.13
288.5	67.41
288.715	-24.75
288.93	69.46
289.145	85.84
289.36	73.56
289.575	-14.51
289.79	73.56
290.004	-18.6
290.219	-4.27
290.434	10.07
290.649	-16.55
290.864	40.79
291.079	89.94
291.294	-10.41
291.509	118.61
291.724	-39.08
291.938	16.21
292.153	14.17
292.368	57.17
292.583	83.8
292.798	-26.79
293.012	22.36
293.227	-20.65
293.442	22.36
293.657	28.5
293.871	30.55
294.086	18.26
294.301	91.99
294.516	-20.65
294.73	83.8
294.945	63.32
295.16	53.08
295.374	53.08
295.589	59.22
295.804	-32.94
296.018	-28.84
296.233	57.17
296.447	53.08
296.662	-39.08
296.877	24.4
297.091	75.6
297.306	-28.84
297.52	3.93
297.735	-63.66
297.949	-30.89
298.164	34.64
298.378	-24.75
298.593	32.6
298.807	-16.55
299.022	-69.8
299.236	96.08
299.451	-12.46
299.665	132.95
299.88	67.41
300.094	28.5
300.309	20.31
300.523	28.5
300.737	106.32
300.952	10.07
301.166	16.21
301.381	-20.65
301.595	24.4
301.809	-0.17
302.024	26.45
302.238	-14.51
302.452	48.98
302.667	-8.36
302.881	-0.17
303.095	63.32
303.309	-16.55
303.524	26.45
303.738	-59.56
303.952	65.36
304.166	5.97
304.381	-0.17
304.595	8.02
304.809	57.17
305.023	-26.79
305.237	14.17
305.452	57.17
305.666	40.79
305.88	30.55
306.094	44.88
306.308	5.97
306.522	46.93
306.736	14.17
306.95	26.45
307.164	-0.17
307.379	22.36
307.593	34.64
307.807	-34.99
308.021	24.4
308.235	65.36
308.449	120.66
308.663	36.69
308.877	104.28
309.091	83.8
309.305	-0.17
309.519	-12.46
309.733	44.88
309.947	16.21
310.161	81.75
310.374	135
310.588	77.65
310.802	3.93
311.016	16.21
311.23	-26.79
311.444	40.79
311.658	-16.55
311.872	81.75
312.085	79.7
312.299	5.97
312.513	20.31
312.727	3.93
312.941	36.69
313.154	118.61
313.368	135
313.582	-47.27
313.796	-18.6
314.009	10.07
314.223	59.22
314.437	51.03
314.651	24.4
314.864	87.89
315.078	-24.75
315.292	-12.46
315.505	55.12
315.719	14.17
315.933	-12.46
316.146	20.31
316.36	10.07
316.573	63.32
316.787	69.46
317.001	73.56
317.214	32.6
317.428	-30.89
317.641	38.74
317.855	-28.84
318.068	10.07
318.282	20.31
318.495	96.08
318.709	63.32
318.922	40.79
319.136	-16.55
319.349	46.93
319.563	26.45
319.776	28.5
319.99	-28.84
320.203	-4.27
320.417	81.75
320.63	44.88
320.843	65.36
321.057	16.21
321.27	53.08
321.483	71.51
321.697	69.46
321.91	1.88
322.124	14.17
322.337	28.5
322.55	51.03
322.763	12.12
322.977	-53.42
323.19	16.21
323.403	67.41
323.617	16.21
323.83	69.46
324.043	30.55
324.256	38.74
324.469	8.02
324.683	34.64
324.896	3.93
325.109	-8.36
325.322	-65.71
325.535	77.65
325.748	-0.17
325.962	73.56
326.175	-26.79
326.388	16.21
326.601	106.32
326.814	63.32
327.027	94.04
327.24	61.27
327.453	24.4
327.666	75.6
327.879	-30.89
328.092	24.4
328.305	40.79
328.518	-28.84
328.731	-32.94
328.944	38.74
329.157	48.98
329.37	16.21
329.583	12.12
329.796	59.22
330.009	24.4
330.222	12.12
330.435	79.7
330.648	-4.27
330.861	77.65
331.073	44.88
331.286	40.79
331.499	36.69
331.712	24.4
331.925	85.84
332.138	22.36
332.35	53.08
332.563	57.17
332.776	71.51
332.989	1.88
333.202	20.31
333.414	-28.84
333.627	-18.6
333.84	-4.27
334.053	44.88
334.265	-0.17
334.478	-2.22
334.691	8.02
334.903	28.5
335.116	-4.27
335.329	38.74
335.541	28.5
335.754	65.36
335.966	24.4
336.179	30.55
336.392	12.12
336.604	53.08
336.817	42.84
337.029	81.75
337.242	20.31
337.454	26.45
337.667	5.97
337.88	40.79
338.092	79.7
338.305	79.7
338.517	12.12
338.729	63.32
338.942	55.12
339.154	81.75
339.367	20.31
339.579	44.88
339.792	-18.6
340.004	-22.7
340.217	-14.51
340.429	55.12
340.641	8.02
340.854	3.93
341.066	55.12
341.278	77.65
341.491	40.79
341.703	44.88
341.915	-16.55
342.128	51.03
342.34	32.6
342.552	-4.27
342.764	30.55
342.977	63.32
343.189	-39.08
343.401	73.56
343.613	14.17
343.826	34.64
344.038	22.36
344.25	69.46
344.462	-4.27
344.674	30.55
344.886	12.12
345.099	67.41
345.311	-8.36
345.523	63.32
345.735	-2.22
345.947	-12.46
346.159	44.88
346.371	63.32
346.583	10.07
346.795	30.55
347.007	-8.36
347.219	65.36
347.431	-2.22
347.643	14.17
347.855	14.17
348.067	69.46
348.279	-14.51
348.491	-24.75
348.703	16.21
348.915	61.27
349.127	36.69
349.339	36.69
349.551	51.03
349.763	24.4
349.975	20.31
350.187	44.88
350.399	73.56
350.61	108.37
350.822	-4.27
351.034	26.45
351.246	10.07
351.458	36.69
351.669	79.7
351.881	38.74
352.093	81.75
352.305	89.94
352.517	75.6
352.728	55.12
352.94	77.65
353.152	18.26
353.363	36.69
353.575	96.08
353.787	73.56
353.999	63.32
354.21	44.88
354.422	38.74
354.633	-34.99
354.845	24.4
355.057	73.56
355.268	53.08
355.48	12.12
355.692	-22.7
355.903	1.88
356.115	14.17
356.326	5.97
356.538	75.6
356.749	-24.75
356.961	14.17
357.172	-2.22
357.384	55.12
357.595	61.27
357.807	71.51
358.018	30.55
358.23	18.26
358.441	77.65
358.653	32.6
358.864	-12.46
359.075	10.07
359.287	-8.36
359.498	22.36
359.709	-26.79
359.921	40.79
360.132	-43.18
360.344	28.5
360.555	14.17
360.766	28.5
360.977	-8.36
361.189	73.56
361.4	59.22
361.611	85.84
361.823	77.65
362.034	-37.03
362.245	-53.42
362.456	-0.17
362.667	-4.27
362.879	-6.31
363.09	59.22
363.301	14.17
363.512	-0.17
363.723	30.55
363.935	10.07
364.146	94.04
364.357	-12.46
364.568	85.84
364.779	28.5
364.99	79.7
365.201	-20.65
365.412	65.36
365.623	-2.22
365.834	61.27
366.045	67.41
366.256	26.45
366.467	-12.46
366.678	59.22
366.889	-6.31
367.1	-2.22
367.311	28.5
367.522	-18.6
367.733	143.19
367.944	10.07
368.155	42.84
368.366	53.08
368.577	-4.27
368.788	77.65
368.999	46.93
369.209	42.84
369.42	81.75
369.631	69.46
369.842	102.23
370.053	57.17
370.264	30.55
370.474	57.17
370.685	14.17
370.896	32.6
371.107	-20.65
371.317	40.79
371.528	-4.27
371.739	-37.03
371.95	-37.03
372.16	61.27
372.371	-28.84
372.582	61.27
372.792	79.7
373.003	38.74
373.214	14.17
373.424	24.4
373.635	36.69
373.846	130.9
374.056	3.93
374.267	1.88
374.477	26.45
374.688	55.12
374.898	46.93
375.109	53.08
375.319	53.08
375.53	46.93
375.74	51.03
375.951	51.03
376.161	44.88
376.372	30.55
376.582	24.4
376.793	75.6
377.003	-8.36
377.214	-18.6
377.424	44.88
377.635	10.07
377.845	110.42
378.055	75.6
378.266	-12.46
378.476	32.6
378.686	-24.75
378.897	59.22
379.107	79.7
379.317	-6.31
379.528	-12.46
379.738	53.08
379.948	1.88
380.158	87.89
380.369	12.12
380.579	55.12
380.789	46.93
380.999	34.64
381.21	67.41
381.42	-4.27
381.63	36.69
381.84	69.46
382.05	-24.75
382.261	69.46
382.471	-14.51
382.681	53.08
382.891	55.12
383.101	71.51
383.311	1.88
383.521	5.97
383.731	-14.51
383.941	8.02
384.151	73.56
384.361	24.4
384.571	126.8
384.781	8.02
384.991	87.89
385.201	51.03
385.411	81.75
385.621	57.17
385.831	36.69
386.041	61.27
386.251	81.75
386.461	-47.27
386.671	53.08
386.881	71.51
387.091	-0.17
387.301	-24.75
387.511	12.12
387.72	98.13
387.93	79.7
388.14	73.56
388.35	1.88
388.56	22.36
388.769	-0.17
388.979	71.51
389.189	36.69
389.399	89.94
389.609	71.51
389.818	77.65
390.028	44.88
390.238	16.21
390.447	36.69
390.657	44.88
390.867	-24.75
391.076	20.31
391.286	42.84
391.496	48.98
391.705	18.26
391.915	104.28
392.125	5.97
392.334	-26.79
392.544	63.32
392.753	-26.79
392.963	3.93
393.172	75.6
393.382	-55.47
393.591	135
393.801	12.12
394.01	38.74
394.22	81.75
394.429	-12.46
394.639	79.7
394.848	89.94
395.058	67.41
395.267	34.64
395.477	55.12
395.686	59.22
395.895	69.46
396.105	77.65
396.314	77.65
396.524	73.56
396.733	77.65
396.942	98.13
397.152	28.5
397.361	79.7
397.57	30.55
397.78	-0.17
397.989	94.04
398.198	87.89
398.407	28.5
398.617	34.64
398.826	75.6
399.035	130.9
399.244	34.64
399.453	59.22
399.663	51.03
399.872	40.79
400.081	69.46
400.29	77.65
400.499	3.93
400.708	143.19
400.917	94.04
401.127	59.22
401.336	118.61
401.545	122.71
401.754	67.41
401.963	44.88
402.172	137.04
402.381	108.37
402.59	44.88
402.799	38.74
403.008	106.32
403.217	61.27
403.426	67.41
403.635	83.8
403.844	14.17
404.053	85.84
404.262	51.03
404.471	100.18
404.68	192.34
404.888	96.08
405.097	108.37
405.306	98.13
405.515	116.56
405.724	28.5
405.933	59.22
406.142	85.84
406.35	96.08
406.559	89.94
406.768	137.04
406.977	104.28
407.185	159.57
407.394	71.51
407.603	120.66
407.812	132.95
408.02	114.52
408.229	118.61
408.438	81.75
408.646	118.61
408.855	163.67
409.064	122.71
409.272	135
409.481	151.38
409.69	108.37
409.898	120.66
410.107	167.76
410.315	147.28
410.524	184.15
410.733	147.28
410.941	194.39
411.15	210.77
411.358	184.15
411.567	241.49
411.775	192.34
411.984	151.38
412.192	225.11
412.401	214.87
412.609	272.21
412.818	255.83
413.026	221.01
413.234	245.59
413.443	214.87
413.651	253.78
413.86	274.26
414.068	337.74
414.276	315.22
414.485	268.11
414.693	319.31
414.901	327.5
415.11	354.13
415.318	300.88
415.526	386.9
415.734	296.78
415.943	333.65
416.151	376.66
416.359	390.99
416.567	427.85
416.776	401.23
416.984	452.43
417.192	448.33
417.4	454.48
417.608	436.05
417.817	470.86
418.025	593.74
418.233	550.73
418.441	466.77
418.649	503.63
418.857	520.01
419.065	593.74
419.273	536.4
419.481	653.13
419.689	644.94
419.897	685.9
420.105	661.32
420.313	759.63
420.521	810.82
420.729	741.19
420.937	862.02
421.145	816.97
421.353	823.11
421.561	884.55
421.769	917.32
421.977	976.71
422.185	937.8
422.393	1066.82
422.601	1044.29
422.809	1093.44
423.017	1046.34
423.224	1142.6
423.432	1085.25
423.64	1179.46
423.848	1255.23
424.056	1265.47
424.263	1281.86
424.471	1331.01
424.679	1382.21
424.887	1341.25
425.094	1496.89
425.302	1550.14
425.51	1486.65
425.718	1683.26
425.925	1650.49
426.133	1595.2
426.341	1683.26
426.548	1879.86
426.756	1840.95
426.964	1861.43
427.171	1914.68
427.379	1931.06
427.586	2017.08
427.794	2099
428.001	2207.54
428.209	2193.2
428.417	2252.59
428.624	2424.62
428.832	2430.77
429.039	2445.1
429.247	2348.85
429.454	2600.75
429.662	2905.9
429.869	2686.76
430.076	2791.21
430.284	2758.44
430.491	2981.67
430.699	2961.19
430.906	3063.59
431.114	3098.41
431.321	3190.56
431.528	3196.71
431.736	3401.51
431.943	3594.01
432.15	3426.08
432.358	3653.41
432.565	3661.6
432.772	3720.99
432.979	3831.58
433.187	3989.27
433.394	3862.3
433.601	4052.76
433.808	4294.42
434.016	4155.16
434.223	4310.8
434.43	4648.72
434.637	4515.6
434.844	4912.91
435.052	4978.44
435.259	4857.61
435.466	4912.91
435.673	4886.28
435.88	5302.02
436.087	5551.87
436.294	5641.98
436.501	5512.96
436.708	5402.37
436.915	5678.85
437.122	5826.3
437.329	5959.42
437.537	5975.8
437.743	6043.39
437.95	6027
438.157	6346.48
438.364	6786.8
438.571	6430.45
438.778	6612.72
438.985	7573.22
439.192	7057.13
439.399	7462.63
439.606	7167.72
439.813	7386.85
440.02	8003.29
440.227	7786.21
440.433	7859.93
440.64	8046.3
440.847	7864.03
441.054	8111.83
441.261	8582.87
441.467	8576.72
441.674	8781.52
441.881	9035.47
442.088	9033.42
442.294	8982.22
442.501	9090.76
442.708	9379.53
442.914	9647.81
443.121	10102.46
443.328	9914.05
443.534	10667.7
443.741	10264.25
443.948	10069.69
444.154	10942.13
444.361	10677.94
444.568	10763.95
444.774	10847.92
444.981	11105.96
445.187	11349.67
445.394	12035.74
445.6	11478.69
445.807	12678.8
446.013	12232.35
446.22	12539.54
446.426	13026.96
446.633	13137.55
446.839	13469.32
447.046	12904.08
447.252	13622.92
447.459	13577.86
447.665	13567.62
447.871	14145.15
448.078	14761.59
448.284	14130.81
448.491	14306.94
448.697	15148.65
448.903	15439.47
449.11	15437.42
449.316	15222.38
449.522	15378.03
449.728	15677.03
449.935	15799.91
450.141	15724.13
450.347	16164.45
450.553	15914.59
450.76	16213.6
450.966	16617.05
451.172	16447.07
451.378	16997.97
451.584	16287.32
451.791	16971.35
451.997	16791.13
452.203	17124.94
452.409	17186.38
452.615	16926.29
452.821	16133.73
453.027	16227.93
453.233	17092.18
453.44	16500.31
453.646	16596.57
453.852	16725.59
454.058	17172.05
454.264	16604.76
454.47	16598.62
454.676	16207.45
454.882	16850.52
455.088	15406.7
455.294	15582.82
455.5	15949.41
455.705	16289.37
455.911	15638.12
456.117	15083.12
456.323	14804.6
456.529	14225.02
456.735	14777.97
456.941	14329.47
457.147	14196.35
457.352	13723.27
457.558	13631.11
457.764	13530.76
457.97	13225.61
458.176	13029.01
458.381	13155.98
458.587	12390.04
458.793	12474.01
458.999	11587.24
459.204	12643.99
459.41	12084.89
459.616	11583.14
459.821	11548.33
460.027	11630.24
460.233	11415.21
460.438	10710.71
460.644	10757.81
460.85	10475.19
461.055	10270.39
461.261	9963.2
461.466	9238.22
461.672	9086.67
461.878	9782.98
462.083	9121.48
462.289	8963.79
462.494	8822.48
462.7	8531.67
462.905	8339.16
463.111	8511.19
463.316	8582.87
463.522	8373.97
463.727	8476.37
463.932	8404.69
464.138	8312.53
464.343	8273.62
464.549	7935.71
464.754	8206.04
464.959	8144.6
465.165	8287.96
465.37	7687.9
465.575	7479.01
465.781	7714.53
465.986	7872.22
466.191	7636.7
466.397	7352.04
466.602	7122.66
466.807	7497.44
467.012	7528.16
467.218	7251.69
467.423	7263.97
467.628	7306.98
467.833	7671.52
468.038	7401.19
468.244	6958.83
468.449	7335.65
468.654	7079.66
468.859	7259.88
469.064	6915.82
469.269	6815.47
469.474	6964.97
469.679	7087.85
469.885	6737.65
470.09	6786.8
470.295	6969.07
470.5	6747.89
470.705	6788.85
470.91	6588.14
471.115	6395.64
471.32	6565.62
471.525	6618.86
471.73	6440.69
471.935	6508.27
472.139	6098.68
472.344	6323.96
472.549	6244.09
472.754	6098.68
472.959	5947.13
473.164	5975.8
473.369	5834.49
473.574	6053.62
473.778	5934.84
473.983	5895.93
474.188	5836.54
474.393	5510.91
474.598	5607.17
474.802	5662.46
475.007	5658.37
475.212	5568.26
475.417	5291.78
475.621	5379.84
475.826	5406.47
476.031	5373.7
476.235	5140.23
476.44	5244.68
476.645	5244.68
476.849	5179.14
477.054	5076.74
477.259	4996.87
477.463	5072.65
477.668	4972.3
477.872	4935.43
478.077	4849.42
478.282	4749.07
478.486	4699.92
478.691	4728.59
478.895	4785.93
479.1	4652.81
479.304	4701.97
479.509	4437.78
479.713	4591.38
479.918	4501.26
480.122	4415.25
480.326	4523.79
480.531	4382.48
480.735	4398.87
480.94	4450.07
481.144	4556.56
481.348	4419.35
481.553	4374.29
481.757	4333.33
481.961	4497.17
482.166	4476.69
482.37	4376.34
482.574	4273.94
482.778	4296.47
482.983	4327.19
483.187	4351.76
483.391	4380.43
483.595	4249.36
483.8	4265.75
484.004	4269.84
484.208	4087.57
484.412	4216.6
484.616	4306.71
484.821	4333.33
485.025	4212.5
485.229	4359.95
485.433	4247.32
485.637	4353.81
485.841	4198.17
486.045	4208.41
486.249	4288.28
486.453	4187.93
486.657	4167.45
486.861	4331.28
487.065	4259.6
487.269	4341.52
487.473	4114.2
487.677	4331.28
487.881	4382.48
488.085	4357.91
488.289	4253.46
488.493	4349.71
488.697	4355.86
488.901	4347.67
489.105	4273.94
489.309	4353.81
489.512	4192.02
489.716	4386.58
489.92	4282.13
490.124	4321.04
490.328	4300.56
490.531	4280.08
490.735	4302.61
490.939	4427.54
491.143	4347.67
491.346	4460.31
491.55	4574.99
491.754	4380.43
491.958	4478.74
492.161	4372.24
492.365	4437.78
492.569	4392.72
492.772	4486.93
492.976	4630.29
493.18	4574.99
493.383	4556.56
493.587	4523.79
493.79	4857.61
493.994	4656.91
494.197	4802.32
494.401	4755.21
494.605	4661.01
494.808	4693.77
495.012	4880.14
495.215	4808.46
495.419	4943.63
495.622	4806.41
495.825	4869.9
496.029	4921.1
496.232	4894.47
496.436	4953.87
496.639	5203.72
496.843	5173
497.046	5177.09
497.249	5242.63
497.453	5306.12
497.656	5461.76
497.859	5443.33
498.063	5422.85
498.266	5437.19
498.469	5644.03
498.673	5543.68
498.876	5570.3
499.079	5646.08
499.282	5584.64
499.485	5904.12
499.689	5877.5
499.892	6033.15
500.095	5826.3
500.298	6039.29
500.501	5963.51
500.705	6207.22
500.908	6131.45
501.111	6317.81
501.314	6344.44
501.517	6276.85
501.72	6500.08
501.923	6508.27
502.126	6692.59
502.329	6913.77
502.532	6663.92
502.735	6764.27
502.938	6930.16
503.141	6774.51
503.344	7036.65
503.547	7098.09
503.75	7251.69
503.953	7378.66
504.156	7499.49
504.359	7415.52
504.562	7474.92
504.765	7472.87
504.968	7761.63
505.17	7880.41
505.373	7802.59
505.576	8093.4
505.779	8085.21
505.982	8017.63
506.185	8103.64
506.387	8156.89
506.59	8580.82
506.793	8537.81
506.996	8371.93
507.198	8855.25
507.401	8730.32
507.604	8986.32
507.807	9058
508.009	9068.23
508.212	9203.4
508.415	9180.87
508.617	9336.52
508.82	9301.7
509.022	9178.83
509.225	9502.4
509.428	9742.02
509.63	9629.38
509.833	9778.88
510.035	9946.81
510.238	10084.03
510.44	10243.77
510.643	10544.82
510.845	10219.19
511.048	10395.32
511.25	10417.85
511.453	10409.65
511.655	10954.41
511.858	10919.6
512.06	10743.47
512.262	11089.58
512.465	10823.34
512.667	11220.65
512.87	11495.08
513.072	11214.51
513.274	11611.81
513.477	11742.88
513.679	11726.5
513.881	11763.36
514.084	11800.23
514.286	12013.21
514.488	12404.38
514.69	12478.1
514.893	12633.75
515.095	12764.82
515.297	12682.9
515.499	12646.04
515.701	13051.53
515.904	12926.61
516.106	13051.53
516.308	13665.92
516.51	13536.9
516.712	13602.44
516.914	13950.59
517.116	13926.02
517.318	13809.28
517.52	14218.88
517.722	14089.85
517.925	14278.27
518.127	14548.6
518.329	14556.79
518.531	14472.82
518.733	14845.55
518.935	15074.93
519.136	15134.32
519.338	15359.59
519.54	15429.23
519.742	15668.84
519.944	15900.26
520.146	15955.55
520.348	16055.9
520.55	16209.5
520.752	16227.93
520.954	16229.98
521.155	16336.48
521.357	16670.29
521.559	16696.92
521.761	17282.64
521.963	16954.96
522.164	17262.16
522.366	17409.61
522.568	17344.08
522.77	17630.79
522.971	18103.87
523.173	17681.99
523.375	18110.02
523.576	17849.92
523.778	18267.71
523.98	18976.31
524.181	18640.44
524.383	18619.96
524.584	18966.07
524.786	18882.1
524.988	18818.61
525.189	18853.43
525.391	19148.34
525.592	19203.63
525.794	19488.3
525.995	19463.72
526.197	19342.89
526.398	19752.49
526.6	19775.02
526.801	19838.5
527.003	20084.26
527.204	20049.44
527.406	20143.65
527.607	20291.1
527.808	20667.93
528.01	20315.68
528.211	20532.76
528.412	20962.84
528.614	20688.41
528.815	20700.7
529.016	21120.53
529.218	20659.74
529.419	21009.94
529.62	21128.72
529.822	20835.86
530.023	21120.53
530.224	21407.25
530.425	20919.83
530.626	21100.05
530.828	21218.83
531.029	21610
531.23	21382.67
531.431	21440.01
531.632	21538.32
531.833	21734.92
532.035	21753.35
532.236	21716.49
532.437	21763.59
532.638	21667.34
532.839	21734.92
533.04	21816.84
533.241	21960.2
533.442	22228.48
533.643	21894.66
533.844	21888.52
534.045	22083.08
534.246	21777.93
534.447	22031.88
534.648	21902.86
534.849	22197.76
535.05	21911.05
535.251	21655.05
535.451	22031.88
535.652	22142.47
535.853	22332.93
536.054	22208
536.255	22353.41
536.456	22027.78
536.657	22666.75
536.857	22197.76
537.058	22093.32
537.259	22273.54
537.46	22412.8
537.66	22105.6
537.861	22345.22
538.062	22105.6
538.263	22212.1
538.463	22121.99
538.664	22140.42
538.865	22433.28
539.065	22341.12
539.266	22257.15
539.466	22361.6
539.667	22029.83
539.868	22537.73
540.068	22167.04
540.269	22345.22
540.469	22242.82
540.67	22332.93
540.87	22203.91
541.071	22566.4
541.271	22316.54
541.472	22437.37
541.672	22320.64
541.873	22085.12
542.073	21900.81
542.274	22212.1
542.474	22322.69
542.675	22355.46
542.875	22423.04
543.075	22205.95
543.276	21839.37
543.476	22246.91
543.676	22031.88
543.877	22367.74
544.077	22345.22
544.277	22183.43
544.478	22199.81
544.678	22515.2
544.878	22298.11
545.078	22285.83
545.279	22136.32
545.479	22197.76
545.679	22060.55
545.879	22285.83
546.079	22392.32
546.28	22220.29
546.48	22457.85
546.68	22400.51
546.88	22238.72
547.08	22464
547.28	21929.48
547.48	22033.93
547.68	22314.5
547.88	21796.36
548.081	22570.49
548.281	21960.2
548.481	22105.6
548.681	22320.64
548.881	22191.62
549.081	22408.7
549.28	22203.91
549.48	22312.45
549.68	21984.77
549.88	22488.57
550.08	21982.73
550.28	21925.38
550.48	22392.32
550.68	22332.93
550.88	22056.45
551.08	22003.21
551.279	22105.6
551.479	22019.59
551.679	22287.87
551.879	21753.35
552.079	21890.57
552.278	21941.77
552.478	22019.59
552.678	22054.4
552.878	22056.45
553.077	22068.74
553.277	21825.03
553.477	22160.9
553.676	21898.76
553.876	22017.54
554.076	21779.98
554.275	21796.36
554.475	21648.91
554.674	21997.06
554.874	22087.17
555.074	21655.05
555.273	21730.83
555.473	22035.97
555.672	21372.43
555.872	21528.08
556.071	21687.82
556.271	21816.84
556.47	21341.71
556.67	21345.81
556.869	21534.22
557.068	21628.43
557.268	21374.48
557.467	21347.86
557.667	21483.02
557.866	21325.33
558.065	21233.17
558.265	21421.58
558.464	20995.6
558.663	21591.56
558.863	21093.91
559.062	21210.64
559.261	21014.04
559.461	21274.13
559.66	20885.01
559.859	21483.02
560.058	20989.46
560.258	20944.41
560.457	20897.3
560.656	20821.53
560.855	20614.68
561.054	20796.95
561.253	20575.77
561.453	20530.72
561.652	20858.39
561.851	20506.14
562.05	20692.51
562.249	20321.82
562.448	20645.4
562.647	20549.15
562.846	20497.95
563.045	20637.21
563.244	20065.83
563.443	20340.25
563.642	20131.36
563.841	20157.99
564.04	19947.04
564.239	20313.63
564.438	20196.9
564.637	19750.44
564.836	20039.2
565.035	19760.68
565.234	19942.95
565.432	19732.01
565.631	19723.82
565.83	19736.1
566.029	19578.41
566.228	19508.78
566.427	19250.74
566.625	19250.74
566.824	19236.4
567.023	19508.78
567.222	19107.38
567.42	19179.06
567.619	19154.48
567.818	18826.81
568.016	18959.92
568.215	19064.37
568.414	18896.44
568.612	19076.66
568.811	18910.77
569.01	18777.65
569.208	18421.31
569.407	18949.68
569.605	18624.06
569.804	18482.75
570.002	18495.04
570.201	18290.24
570.4	18316.86
570.598	18132.54
570.797	17911.36
570.995	18001.47
571.193	17821.25
571.392	18208.32
571.59	18136.64
571.789	17985.09
571.987	17835.59
572.186	17997.38
572.384	17655.37
572.582	17907.27
572.781	17530.44
572.979	17550.92
573.177	17264.21
573.376	17522.25
573.574	17260.11
573.772	17210.96
573.971	17258.06
574.169	17059.41
574.367	16989.78
574.565	17049.17
574.763	17096.27
574.962	16782.93
575.16	16830.04
575.358	16836.18
575.556	16645.72
575.754	16748.12
575.952	16703.06
576.151	16629.34
576.349	16594.52
576.547	16447.07
576.745	16567.9
576.943	16635.48
577.141	16320.09
577.339	16463.45
577.537	16254.56
577.735	16234.08
577.933	16176.73
578.131	16072.29
578.329	15951.46
578.527	15869.54
578.725	16156.25
578.923	16143.97
579.121	15801.96
579.319	15822.44
579.516	15910.5
579.714	15851.11
579.912	15726.18
580.11	15728.23
580.308	15654.5
580.506	15771.24
580.704	15507.05
580.901	15666.79
581.099	15572.58
581.297	15496.81
581.495	15414.89
581.692	15328.88
581.89	15081.07
582.088	15347.31
582.285	15081.07
582.483	15126.13
582.681	15191.66
582.878	15167.09
583.076	14966.38
583.274	14880.37
583.471	14724.72
583.669	15058.54
583.866	14872.18
584.064	14820.98
584.262	14444.15
584.459	14696.05
584.657	14622.33
584.854	14718.58
585.052	14349.95
585.249	14626.42
585.447	14423.67
585.644	14425.72
585.841	14433.91
586.039	14423.67
586.236	14220.92
586.434	14390.91
586.631	14222.97
586.828	14194.3
587.026	14114.43
587.223	14241.4
587.42	13966.98
587.618	14167.68
587.815	13813.38
588.012	13903.49
588.21	13651.59
588.407	13866.63
588.604	13735.56
588.801	13708.93
588.999	13485.7
589.196	13563.53
589.393	13604.49
589.59	13577.86
589.787	13414.02
589.984	13579.91
590.182	13266.57
590.379	13282.95
590.576	13428.36
590.773	13489.8
590.97	13364.87
591.167	13389.45
591.364	13112.97
591.561	13170.32
591.758	12971.66
591.955	13000.33
592.152	13135.5
592.349	13037.2
592.546	13035.15
592.743	12912.27
592.94	12856.98
593.137	12752.53
593.334	13020.81
593.531	12582.55
593.727	12762.77
593.924	12885.65
594.121	12490.39
594.318	12713.62
594.515	12375.7
594.712	12533.4
594.908	12504.73
595.105	12455.58
595.302	12340.89
595.499	12261.02
595.696	12465.82
595.892	12177.05
596.089	12443.29
596.286	12187.29
596.482	12218.01
596.679	12148.38
596.876	12304.03
597.072	12048.03
597.269	12158.62
597.466	11986.59
597.662	12144.28
597.859	11996.83
598.055	11851.42
598.252	11830.94
598.448	11970.21
598.645	11728.55
598.841	11822.75
599.038	11828.9
599.234	11671.2
599.431	11728.55
599.627	11622.05
599.824	11740.83
600.02	11427.49
600.217	11689.63
600.413	11683.49
600.609	11478.69
600.806	11443.88
601.002	11460.26
601.198	11536.04
601.395	11544.23
601.591	11183.79
601.787	11364.01
601.984	11163.31
602.18	11204.27
602.376	11151.02
602.572	11091.63
602.769	11153.07
602.965	10915.5
603.161	11112.11
603.357	10981.04
603.553	10892.98
603.75	10911.41
603.946	10854.06
604.142	10968.75
604.338	10819.25
604.534	10759.86
604.73	10667.7
604.926	10766
605.122	10710.71
605.318	10565.3
605.514	10575.54
605.71	10505.91
605.906	10596.02
606.102	10397.37
606.298	10462.9
606.494	10491.57
606.69	10567.35
606.886	10462.9
607.082	10350.26
607.278	10340.02
607.474	10268.34
607.67	10491.57
607.866	10092.22
608.062	10512.05
608.257	10239.67
608.453	10211
608.649	10110.65
608.845	10149.56
609.041	10260.15
609.236	10208.95
609.432	10053.31
609.628	9969.34
609.824	10094.27
610.019	9879.23
610.215	9973.44
610.411	9995.96
610.606	9873.09
610.802	9846.46
610.998	9975.49
611.193	10065.6
611.389	9789.12
611.584	9799.36
611.78	9699.01
611.976	9705.15
612.171	9887.42
612.367	9899.71
612.562	9643.71
612.758	9580.23
612.953	9529.03
613.149	9678.53
613.344	9535.17
613.539	9627.33
613.735	9600.71
613.93	9606.85
614.126	9367.24
614.321	9651.91
614.517	9490.12
614.712	9516.74
614.907	9539.27
615.103	9383.62
615.298	9453.25
615.493	9649.86
615.688	9467.59
615.884	9563.84
616.079	9250.5
616.274	9455.3
616.47	9187.02
616.665	9559.75
616.86	9238.22
617.055	9121.48
617.25	9227.98
617.445	9092.81
617.641	9189.07
617.836	9129.67
618.031	8961.74
618.226	9211.59
618.421	9117.39
618.616	8943.31
618.811	8896.21
619.006	9164.49
619.201	8840.91
619.396	8978.12
619.591	8849.1
619.786	8986.32
619.981	8642.26
620.176	8693.46
620.371	8625.87
620.566	8779.47
620.761	8576.72
620.956	8597.2
621.151	8402.65
621.346	8695.5
621.541	8625.87
621.735	8664.79
621.93	8394.45
622.125	8500.95
622.32	8089.31
622.515	8365.78
622.709	8224.47
622.904	8419.03
623.099	8175.32
623.294	8265.43
623.488	8060.63
623.683	8025.82
623.878	7939.8
624.072	7913.18
624.267	7888.6
624.462	7857.89
624.656	7876.32
624.851	7814.88
625.046	7661.28
625.24	7712.48
625.435	7505.63
625.629	7593.7
625.824	7585.51
626.018	7638.75
626.213	7370.47
626.407	7476.96
626.602	7399.14
626.796	7415.52
626.991	7405.28
627.185	7409.38
627.38	7274.21
627.574	7360.23
627.768	7173.86
627.963	7278.31
628.157	7007.98
628.352	7089.9
628.546	7153.38
628.74	7210.73
628.935	6967.02
629.129	6991.59
629.323	6817.52
629.517	6838
629.712	7001.83
629.906	6799.09
630.1	6676.21
630.294	6733.55
630.489	6639.34
630.683	6541.04
630.877	6487.79
631.071	6481.65
631.265	6686.45
631.459	6452.98
631.653	6444.79
631.848	6565.62
632.042	6354.68
632.236	6504.18
632.43	6174.46
632.624	6252.28
632.818	6323.96
633.012	6174.46
633.206	6366.96
633.4	6162.17
633.594	6119.16
633.788	6020.86
633.982	6166.26
634.176	6082.3
634.369	5986.04
634.563	5930.75
634.757	5633.79
634.951	5953.27
635.145	5834.49
635.339	5715.71
635.533	5930.75
635.726	5854.97
635.92	5742.33
636.114	5742.33
636.308	5707.52
636.501	5738.24
636.695	5738.24
636.889	5531.39
637.083	5689.09
637.276	5504.77
637.47	5527.3
637.664	5695.23
637.857	5510.91
638.051	5455.62
638.244	5406.47
638.438	5488.39
638.632	5371.65
638.825	5281.54
639.019	5271.3
639.212	5398.27
639.406	5355.27
639.599	5132.04
639.793	5234.44
639.986	4994.83
640.18	5185.29
640.373	5093.13
640.567	5052.17
640.76	5246.73
640.954	5021.45
641.147	4949.77
641.34	5005.06
641.534	5046.02
641.727	4886.28
641.92	4998.92
642.114	4947.72
642.307	4994.83
642.5	4800.27
642.694	4892.43
642.887	4785.93
643.08	4798.22
643.273	4593.42
643.467	4826.89
643.66	4747.02
643.853	4654.86
644.046	4603.66
644.239	4595.47
644.432	4656.91
644.626	4486.93
644.819	4470.55
645.012	4433.68
645.205	4400.91
645.398	4509.46
645.591	4275.99
645.784	4421.39
645.977	4122.39
646.17	4429.59
646.363	4269.84
646.556	4218.64
646.749	4220.69
646.942	4329.24
647.135	4179.73
647.328	4230.93
647.521	4204.31
647.714	4130.58
647.907	4210.45
648.099	4042.52
648.292	4189.97
648.485	4112.15
648.678	4116.25
648.871	4022.04
649.064	4017.94
649.256	4034.33
649.449	4054.81
649.642	3903.26
649.835	3903.26
650.027	3936.03
650.22	3942.17
650.413	3786.52
650.605	3854.11
650.798	3809.05
650.991	3716.89
651.183	3907.35
651.376	3673.89
651.568	3839.77
651.761	3630.88
651.954	3886.87
652.146	3788.57
652.339	3739.42
652.531	3598.11
652.724	3655.45
652.916	3518.24
653.109	3680.03
653.301	3637.02
653.494	3534.62
653.686	3438.37
653.879	3548.96
654.071	3395.36
654.263	3368.74
654.456	3464.99
654.648	3469.09
654.84	3485.47
655.033	3364.64
655.225	3415.84
655.417	3411.75
655.61	3366.69
655.802	3395.36
655.994	3360.55
656.186	3235.62
656.379	3221.28
656.571	3231.52
656.763	3333.92
656.955	3266.34
657.148	3239.72
657.34	3444.51
657.532	3340.07
657.724	3118.89
657.916	3211.04
658.108	3163.94
658.3	3139.37
658.492	3297.06
658.684	3116.84
658.876	3129.13
659.068	3147.56
659.26	3082.02
659.452	2985.77
659.644	3067.69
659.836	3145.51
660.028	3045.16
660.22	2912.04
660.412	2889.51
660.604	3022.63
660.796	2854.7
660.988	2922.28
661.18	2846.51
661.372	3024.68
661.563	3075.88
661.755	2975.53
661.947	2950.95
662.139	2928.42
662.331	2793.26
662.522	2858.79
662.714	2858.79
662.906	2705.2
663.097	2903.85
663.289	2682.67
663.481	2723.63
663.673	2817.83
663.864	2721.58
664.056	2803.5
664.247	2719.53
664.439	2678.57
664.631	2717.48
664.822	2701.1
665.014	2674.48
665.205	2725.68
665.397	2654
665.588	2834.22
665.78	2697
665.971	2688.81
666.163	2578.22
666.354	2578.22
666.546	2656.04
666.737	2606.89
666.929	2686.76
667.12	2492.21
667.311	2588.46
667.503	2445.1
667.694	2623.28
667.885	2563.89
668.077	2619.18
668.268	2596.65
668.459	2457.39
668.651	2549.55
668.842	2471.73
669.033	2543.41
669.224	2461.49
669.416	2524.97
669.607	2418.48
669.798	2428.72
669.989	2463.54
670.18	2486.06
670.371	2502.45
670.563	2357.04
670.754	2373.43
670.945	2479.92
671.136	2496.3
671.327	2570.03
671.518	2389.81
671.709	2520.88
671.9	2443.06
672.091	2410.29
672.282	2332.47
672.473	2318.13
672.664	2332.47
672.855	2371.38
673.046	2350.9
673.237	2277.17
673.428	2412.34
673.619	2359.09
673.809	2320.18
674	2279.22
674.191	2375.47
674.382	2334.51
674.573	2314.03
674.764	2432.82
674.954	2316.08
675.145	2354.99
675.336	2322.23
675.527	2275.12
675.717	2246.45
675.908	2219.83
676.099	2238.26
676.289	2352.95
676.48	2352.95
676.671	2244.4
676.861	2191.16
677.052	2303.79
677.243	2367.28
677.433	2291.51
677.624	2350.9
677.814	2281.27
678.005	2246.45
678.195	2328.37
678.386	2168.63
678.576	2271.03
678.767	2285.36
678.957	2303.79
679.148	2334.51
679.338	2359.09
679.529	2281.27
679.719	2289.46
679.909	2334.51
680.1	2336.56
680.29	2219.83
680.481	2135.86
680.671	2125.62
680.861	2262.83
681.052	2311.99
681.242	2191.16
681.432	2209.59
681.622	2232.12
681.813	2260.79
682.003	2105.14
682.193	2318.13
682.383	2281.27
682.573	2197.3
682.764	2225.97
682.954	2203.44
683.144	2223.92
683.334	2254.64
683.524	2070.33
683.714	2199.35
683.904	2152.24
684.094	2234.16
684.284	2158.39
684.474	2279.22
684.664	2193.2
684.854	2297.65
685.044	2103.09
685.234	2215.73
685.424	2144.05
685.614	2101.05
685.804	2217.78
685.994	2060.09
686.184	2215.73
686.374	2197.3
686.564	2060.09
686.753	2096.95
686.943	2199.35
687.133	2142
687.323	2189.11
687.513	2166.58
687.702	2156.34
687.892	2117.43
688.082	2207.54
688.272	2144.05
688.461	2162.48
688.651	2197.3
688.841	1996.6
689.03	2082.61
689.22	1998.65
689.41	2092.85
689.599	2037.56
689.789	2080.57
689.979	2148.15
690.168	2039.61
690.358	1982.26
690.547	1961.78
690.737	1974.07
690.926	2002.74
691.116	2074.42
691.305	2072.37
691.495	1894.2
691.684	1908.54
691.874	1961.78
692.063	2043.7
692.252	1961.78
692.442	1947.45
692.631	1832.76
692.82	1955.64
693.01	1937.21
693.199	1799.99
693.388	1892.15
693.578	1871.67
693.767	1810.23
693.956	1871.67
694.146	1810.23
694.335	1888.06
694.524	1879.86
694.713	1754.94
694.902	1847.1
695.092	1877.82
695.281	1793.85
695.47	1781.56
695.659	1773.37
695.848	1752.89
696.037	1744.7
696.226	1814.33
696.415	1836.86
696.604	1781.56
696.793	1879.86
696.982	1810.23
697.171	1822.52
697.36	1781.56
697.549	1773.37
697.738	1879.86
697.927	1814.33
698.116	1730.36
698.305	1826.62
698.494	1820.47
698.683	1783.61
698.872	1759.03
699.061	1716.03
699.25	1793.85
699.438	1736.51
699.627	1742.65
699.816	1785.66
700.005	1720.12
700.193	1855.29
700.382	1722.17
700.571	1810.23
700.76	1740.6
700.948	1836.86
701.137	1771.32
701.326	1879.86
701.514	1787.71
701.703	1740.6
701.892	1797.95
702.08	1830.71
702.269	1793.85
702.457	1779.51
702.646	1834.81
702.834	1691.45
703.023	1783.61
703.212	1859.38
703.4	1808.19
703.589	1767.23
703.777	1814.33
703.965	1855.29
704.154	1873.72
704.342	1765.18
704.531	1716.03
704.719	1736.51
704.907	1853.24
705.096	1775.42
705.284	1808.19
705.472	1875.77
705.661	1822.52
705.849	1793.85
706.037	1908.54
706.226	1937.21
706.414	1840.95
706.602	1763.13
706.79	1955.64
706.979	1812.28
707.167	1832.76
707.355	1890.1
707.543	1914.68
707.731	1814.33
707.919	1890.1
708.107	1730.36
708.296	1918.78
708.484	1886.01
708.672	1883.96
708.86	1802.04
709.048	1982.26
709.236	1787.71
709.424	1894.2
709.612	1908.54
709.8	1799.99
709.988	1806.14
710.176	1906.49
710.364	1875.77
710.551	1861.43
710.739	1845.05
710.927	1892.15
711.115	2012.98
711.303	1896.25
711.491	1922.87
711.679	1945.4
711.866	1818.43
712.054	1924.92
712.242	1922.87
712.43	1861.43
712.617	1922.87
712.805	1812.28
712.993	1957.69
713.181	1799.99
713.368	2045.75
713.556	1881.91
713.744	1914.68
713.931	1926.97
714.119	1849.15
714.306	1982.26
714.494	1931.06
714.682	1982.26
714.869	1820.47
715.057	1945.4
715.244	1978.17
715.432	2027.32
715.619	1984.31
715.807	1937.21
715.994	1978.17
716.182	1963.83
716.369	1875.77
716.556	1906.49
716.744	1961.78
716.931	1875.77
717.119	1992.5
717.306	1949.5
717.493	1980.22
717.681	2055.99
717.868	1908.54
718.055	1906.49
718.242	2039.61
718.43	2117.43
718.617	2010.93
718.804	1976.12
718.991	1965.88
719.179	1926.97
719.366	1988.41
719.553	2066.23
719.74	1810.23
719.927	1904.44
720.114	1990.45
720.301	2015.03
720.488	2084.66
720.676	1988.41
720.863	2064.18
721.05	2025.27
721.237	1976.12
721.424	2035.51
721.611	1996.6
721.798	1965.88
721.985	2021.17
722.172	2189.11
722.358	2027.32
722.545	2088.76
722.732	2109.24
722.919	2115.38
723.106	2133.81
723.293	2043.7
723.48	1963.83
723.667	1998.65
723.853	1988.41
724.04	2070.33
724.227	2072.37
724.414	2101.05
724.6	2017.08
724.787	2084.66
724.974	2142
725.161	2137.91
725.347	1972.02
725.534	2156.34
725.72	2176.82
725.907	2109.24
726.094	2121.52
726.28	2019.13
726.467	2078.52
726.653	2148.15
726.84	2099
727.027	2176.82
727.213	2037.56
727.4	2168.63
727.586	2201.4
727.773	2244.4
727.959	2232.12
728.145	2109.24
728.332	2099
728.518	2103.09
728.705	2209.59
728.891	2070.33
729.077	2064.18
729.264	2047.8
729.45	2219.83
729.636	2262.83
729.823	2221.88
730.009	2203.44
730.195	2125.62
730.382	2240.31
730.568	2139.96
730.754	2240.31
730.94	2055.99
731.126	2166.58
731.313	2305.84
731.499	2211.64
731.685	2287.41
731.871	2209.59
732.057	2266.93
732.243	2234.16
732.429	2187.06
732.615	2189.11
732.801	2289.46
732.987	2228.02
733.173	2266.93
733.359	2164.53
733.545	2254.64
733.731	2191.16
733.917	2262.83
734.103	2201.4
734.289	2127.67
734.475	2287.41
734.661	2162.48
734.847	2228.02
735.033	2242.36
735.219	2285.36
735.404	2332.47
735.59	2213.68
735.776	2246.45
735.962	2354.99
736.148	2271.03
736.333	2156.34
736.519	2215.73
736.705	2232.12
736.89	2254.64
737.076	2228.02
737.262	2168.63
737.447	2176.82
737.633	2258.74
737.819	2305.84
738.004	2301.75
738.19	2209.59
738.375	2268.98
738.561	2211.64
738.747	2299.7
738.932	2203.44
739.118	2291.51
739.303	2215.73
739.489	2256.69
739.674	2131.76
739.859	2168.63
740.045	2166.58
740.23	2086.71
740.416	2248.5
740.601	2219.83
740.786	2256.69
740.972	2195.25
741.157	2258.74
741.342	2139.96
741.528	2053.94
741.713	2187.06
741.898	2082.61
742.084	2133.81
742.269	2197.3
742.454	2205.49
742.639	2187.06
742.824	2213.68
743.01	2189.11
743.195	2266.93
743.38	2137.91
743.565	2062.13
743.75	2158.39
743.935	2058.04
744.12	2076.47
744.305	2045.75
744.49	1996.6
744.675	2121.52
744.86	2144.05
745.045	2156.34
745.23	2047.8
745.415	2008.89
745.6	1990.45
745.785	2031.41
745.97	1988.41
746.155	1898.3
746.34	2055.99
746.525	2010.93
746.71	2017.08
746.895	1961.78
747.079	1992.5
747.264	2015.03
747.449	1926.97
747.634	1828.67
747.819	1912.63
748.003	1904.44
748.188	1871.67
748.373	1924.92
748.557	1912.63
748.742	1816.38
748.927	1765.18
749.111	1802.04
749.296	1759.03
749.481	1906.49
749.665	1804.09
749.85	1730.36
750.034	1775.42
750.219	1808.19
750.404	1759.03
750.588	1791.8
750.773	1709.88
750.957	1802.04
751.141	1761.08
751.326	1777.47
751.51	1675.07
751.695	1705.79
751.879	1687.36
752.064	1697.6
752.248	1681.21
752.432	1687.36
752.617	1576.77
752.801	1632.06
752.985	1677.12
753.17	1660.73
753.354	1687.36
753.538	1515.33
753.722	1509.18
753.907	1611.58
754.091	1503.04
754.275	1541.95
754.459	1554.24
754.643	1462.08
754.828	1623.87
755.012	1460.03
755.196	1441.6
755.38	1535.81
755.564	1482.56
755.748	1378.11
755.932	1572.67
756.116	1466.17
756.3	1568.57
756.484	1320.77
756.668	1541.95
756.852	1398.59
757.036	1414.98
757.22	1328.96
757.404	1371.97
757.588	1357.63
757.772	1439.55
757.956	1421.12
758.14	1349.44
758.323	1244.99
758.507	1449.79
758.691	1353.54
758.875	1331.01
759.059	1328.96
759.242	1259.33
759.426	1228.61
759.61	1269.57
759.794	1204.03
759.977	1265.47
760.161	1308.48
760.345	1277.76
760.528	1255.23
760.712	1216.32
760.895	1228.61
761.079	1115.97
761.263	1134.4
761.446	1191.75
761.63	1148.74
761.813	1134.4
761.997	1118.02
762.18	1136.45
762.364	1152.84
762.547	1140.55
762.731	1101.64
762.914	1132.36
763.098	1152.84
763.281	1171.27
763.464	1216.32
763.648	1234.75
763.831	1220.42
764.015	1136.45
764.198	1068.87
764.381	1054.53
764.564	1161.03
764.748	1091.4
764.931	1013.57
765.114	1019.72
765.297	986.95
765.481	1152.84
765.664	1072.96
765.847	986.95
766.03	1077.06
766.213	919.37
766.397	1044.29
766.58	1066.82
766.763	1042.25
766.946	1019.72
767.129	1087.3
767.312	1027.91
767.495	989
767.678	995.14
767.861	982.85
768.044	980.81
768.227	939.85
768.41	948.04
768.593	1003.33
768.776	931.66
768.959	929.61
769.142	1040.2
769.324	962.37
769.507	829.26
769.69	902.98
769.873	939.85
770.056	948.04
770.239	986.95
770.421	923.46
770.604	886.6
770.787	909.13
770.97	894.79
771.152	839.5
771.335	864.07
771.518	902.98
771.7	907.08
771.883	876.36
772.066	896.84
772.248	823.11
772.431	839.5
772.613	907.08
772.796	851.78
772.978	911.18
773.161	841.54
773.343	845.64
773.526	847.69
773.708	810.82
773.891	847.69
774.073	839.5
774.256	839.5
774.438	948.04
774.621	890.7
774.803	786.25
774.985	665.42
775.168	888.65
775.35	798.54
775.532	767.82
775.715	726.86
775.897	790.35
776.079	786.25
776.261	724.81
776.444	724.81
776.626	733
776.808	773.96
776.99	757.58
777.173	710.47
777.355	640.84
777.537	655.18
777.719	722.76
777.901	698.19
778.083	714.57
778.265	669.52
778.447	704.33
778.629	642.89
778.811	653.13
778.993	634.7
779.175	651.08
779.357	741.19
779.539	616.27
779.721	644.94
779.903	626.51
780.085	626.51
780.267	649.04
780.449	653.13
780.631	565.07
780.812	577.36
780.994	692.04
781.176	526.16
781.358	532.3
781.54	646.99
781.721	567.12
781.903	530.25
782.085	577.36
782.267	552.78
782.448	612.17
782.63	542.54
782.812	558.92
782.993	530.25
783.175	579.4
783.357	589.64
783.538	587.6
783.72	530.25
783.901	517.97
784.083	526.16
784.264	522.06
784.446	552.78
784.627	470.86
784.809	452.43
784.99	526.16
785.172	530.25
785.353	528.21
785.535	493.39
785.716	513.87
785.897	407.38
786.079	442.19
786.26	438.09
786.441	446.29
786.623	427.85
786.804	468.81
786.985	505.68
787.167	460.62
787.348	452.43
787.529	501.58
787.71	491.34
787.891	452.43
788.073	370.51
788.254	386.9
788.435	409.42
788.616	415.57
788.797	337.74
788.978	413.52
789.159	481.1
789.34	401.23
789.522	403.28
789.703	405.33
789.884	384.85
790.065	395.09
790.246	466.77
790.427	401.23
790.607	407.38
790.788	317.26
790.969	368.46
791.15	323.41
791.331	448.33
791.512	415.57
791.693	384.85
791.874	413.52
792.054	345.94
792.235	343.89
792.416	311.12
792.597	339.79
792.778	366.42
792.958	378.7
793.139	370.51
793.32	356.18
793.5	354.13
793.681	393.04
793.862	296.78
794.042	352.08
794.223	331.6
794.404	266.07
794.584	249.68
794.765	255.83
794.945	317.26
795.126	329.55
795.306	321.36
795.487	284.5
795.667	317.26
795.848	337.74
796.028	288.59
796.209	270.16
796.389	331.6
796.57	311.12
796.75	216.91
796.93	319.31
797.111	350.03
797.291	294.74
797.471	270.16
797.652	225.11
797.832	356.18
798.012	333.65
798.192	206.67
798.373	264.02
798.553	288.59
798.733	274.26
798.913	347.98
799.093	298.83
799.274	251.73
799.454	212.82
799.634	282.45
799.814	245.59
799.994	280.4
800.174	329.55
800.354	186.19
800.534	239.44
800.714	282.45
800.894	298.83
801.074	243.54
801.254	339.79
801.434	157.52
801.614	286.54
801.794	178
801.974	683.85
802.154	296.78
802.334	257.87
802.514	218.96
802.693	216.91
802.873	196.43
803.053	307.02
803.233	255.83
803.413	249.68
803.592	212.82
803.772	190.29
803.952	241.49
804.131	210.77
804.311	266.07
804.491	323.41
804.67	233.3
804.85	151.38
805.03	180.05
805.209	247.63
805.389	229.2
805.568	208.72
805.748	137.04
805.928	182.1
806.107	210.77
806.287	159.57
806.466	210.77
806.646	216.91
806.825	208.72
807.004	98.13
807.184	141.14
807.363	243.54
807.543	227.15
807.722	137.04
807.901	165.71
808.081	245.59
808.26	118.61
808.439	200.53
808.619	126.8
808.798	304.98
808.977	137.04
809.156	221.01
809.336	253.78
809.515	188.24
809.694	161.62
809.873	145.24
810.052	192.34
810.231	188.24
810.411	218.96
810.59	157.52
810.769	139.09
810.948	186.19
811.127	186.19
811.306	229.2
811.485	161.62
811.664	239.44
811.843	171.86
812.022	175.95
812.201	106.32
812.38	161.62
812.559	180.05
812.737	175.95
812.916	126.8
813.095	73.56
813.274	141.14
813.453	221.01
813.632	190.29
813.811	175.95
813.989	98.13
814.168	130.9
814.347	149.33
814.526	106.32
814.704	126.8
814.883	237.39
815.062	89.94
815.24	128.85
815.419	175.95
815.598	167.76
815.776	98.13
815.955	200.53
816.133	126.8
816.312	155.47
816.49	51.03
816.669	182.1
816.847	116.56
817.026	165.71
817.204	91.99
817.383	100.18
817.561	114.52
817.74	137.04
817.918	135
818.097	153.43
818.275	94.04
818.453	145.24
818.632	110.42
818.81	178
818.988	132.95
819.167	151.38
819.345	167.76
819.523	112.47
819.701	198.48
819.879	221.01
820.058	126.8
820.236	161.62
820.414	112.47
820.592	167.76
820.77	83.8
820.948	100.18
821.127	108.37
821.305	155.47
821.483	102.23
821.661	173.91
821.839	120.66
822.017	178
822.195	186.19
822.373	169.81
822.551	96.08
822.729	157.52
822.907	106.32
823.085	165.71
823.262	67.41
823.44	132.95
823.618	100.18
823.796	116.56
823.974	87.89
824.152	165.71
824.329	124.76
824.507	182.1
824.685	163.67
824.863	153.43
825.04	100.18
825.218	87.89
825.396	40.79
825.574	165.71
825.751	100.18
825.929	128.85
826.107	57.17
826.284	122.71
826.462	114.52
826.639	130.9
826.817	96.08
826.994	151.38
827.172	120.66
827.349	180.05
827.527	85.84
827.704	116.56
827.882	79.7
828.059	53.08
828.237	128.85
828.414	42.84
828.591	81.75
828.769	200.53
828.946	79.7
829.124	120.66
829.301	100.18
829.478	114.52
829.655	128.85
829.833	53.08
830.01	42.84
830.187	167.76
830.364	59.22
830.542	55.12
830.719	130.9
830.896	135
831.073	94.04
831.25	108.37
831.427	44.88
831.604	63.32
831.782	28.5
831.959	36.69
832.136	59.22
832.313	153.43
832.49	59.22
832.667	44.88
832.844	100.18
833.021	130.9
833.198	137.04
833.374	114.52
833.551	130.9
833.728	44.88
833.905	114.52
834.082	48.98
834.259	55.12
834.436	116.56
834.612	67.41
834.789	44.88
834.966	116.56
835.143	135
835.319	69.46
835.496	118.61
835.673	106.32
835.85	87.89
836.026	85.84
836.203	139.09
836.38	87.89
836.556	-8.36
836.733	53.08
836.909	61.27
837.086	102.23
837.262	10.07
837.439	89.94
837.616	61.27
837.792	85.84
837.968	12.12
838.145	10.07
838.321	83.8
838.498	20.31
838.674	24.4
838.851	116.56
839.027	132.95
839.203	69.46
839.38	57.17
839.556	26.45
839.732	48.98
839.909	57.17
840.085	106.32
840.261	10.07
840.437	91.99
840.614	57.17
840.79	71.51
840.966	94.04
841.142	126.8
841.318	46.93
841.494	16.21
841.671	65.36
841.847	44.88
842.023	18.26
842.199	57.17
842.375	59.22
842.551	61.27
842.727	102.23
842.903	53.08
843.079	59.22
843.255	73.56
843.431	28.5
843.607	112.47
843.783	63.32
843.959	94.04
844.134	71.51
844.31	114.52
844.486	12.12
844.662	48.98
844.838	98.13
845.013	42.84
845.189	38.74
845.365	91.99
845.541	-18.6
845.716	65.36
845.892	89.94
846.068	83.8
846.244	40.79
846.419	48.98
846.595	12.12
846.77	48.98
846.946	22.36
847.122	8.02
847.297	79.7
847.473	75.6
847.648	-30.89
847.824	44.88
847.999	8.02
848.175	79.7
848.35	1.88
848.526	53.08
848.701	1.88
848.876	40.79
849.052	57.17
849.227	63.32
849.403	-6.31
849.578	57.17
849.753	-18.6
849.929	59.22
850.104	5.97
850.279	18.26
850.454	-4.27
850.63	67.41
850.805	55.12
850.98	100.18
851.155	-12.46
851.33	42.84
851.505	-8.36
851.681	83.8
851.856	-10.41
852.031	75.6
852.206	46.93
852.381	40.79
852.556	34.64
852.731	100.18
852.906	10.07
853.081	-6.31
853.256	114.52
853.431	30.55
853.606	36.69
853.781	32.6
853.956	-14.51
854.131	40.79
854.305	-18.6
854.48	79.7
854.655	40.79
854.83	-2.22
855.005	34.64
855.18	-47.27
855.354	57.17
855.529	12.12
855.704	30.55
855.879	8.02
856.053	10.07
856.228	89.94
856.403	-16.55
856.577	48.98
856.752	-28.84
856.926	106.32
857.101	18.26
857.276	-18.6
857.45	65.36
857.625	65.36
857.799	69.46
857.974	83.8
858.148	-69.8
858.323	61.27
858.497	46.93
858.672	57.17
858.846	-32.94
859.02	65.36
859.195	-12.46
859.369	46.93
859.543	71.51
859.718	75.6
859.892	-32.94
860.066	53.08
860.241	51.03
860.415	40.79
860.589	26.45
860.763	75.6
860.938	3.93
861.112	36.69
861.286	8.02
861.46	83.8
861.634	48.98
861.808	89.94
861.982	30.55
862.157	-0.17
862.331	102.23
862.505	-32.94
862.679	5.97
862.853	118.61
863.027	-39.08
863.201	5.97
863.375	22.36
863.549	-4.27
863.722	-2.22
863.896	81.75
864.07	59.22
864.244	8.02
864.418	-0.17
864.592	32.6
864.766	1.88
864.939	22.36
865.113	-12.46
865.287	-32.94
865.461	38.74
865.634	8.02
865.808	83.8
865.982	112.47
866.156	28.5
866.329	28.5
866.503	51.03
866.676	16.21
866.85	-26.79
867.024	-34.99
867.197	44.88
867.371	10.07
867.544	42.84
867.718	-55.47
867.891	-59.56
868.065	24.4
868.238	61.27
868.412	24.4
868.585	16.21
868.759	83.8
868.932	51.03
869.105	53.08
869.279	12.12
869.452	20.31
869.625	-20.65
869.799	-51.37
869.972	67.41
870.145	44.88
870.319	124.76
870.492	81.75
870.665	36.69
870.838	-45.23
871.011	30.55
871.185	-57.51
871.358	-59.56
871.531	-4.27
871.704	14.17
871.877	36.69
872.05	28.5
872.223	-10.41
872.396	12.12
872.569	22.36
872.742	-16.55
872.915	96.08
873.088	5.97
873.261	1.88
873.434	36.69
873.607	-8.36
873.78	12.12
873.953	-45.23
874.126	30.55
874.299	22.36
874.471	30.55
874.644	46.93
874.817	32.6
874.99	46.93
875.163	40.79
875.335	18.26
875.508	20.31
875.681	-34.99
875.853	-37.03
876.026	48.98
876.199	-10.41
876.371	57.17
876.544	28.5
876.717	34.64
876.889	-18.6
877.062	36.69
877.234	-18.6
877.407	34.64
877.579	-18.6
877.752	57.17
877.924	-98.47
878.097	10.07
878.269	38.74
878.442	-14.51
878.614	-28.84
878.786	-10.41
878.959	46.93
879.131	-32.94
879.303	-8.36
879.476	30.55
879.648	32.6
879.82	-6.31
879.993	-8.36
880.165	46.93
880.337	5.97
880.509	22.36
880.681	85.84
880.854	14.17
881.026	3.93
881.198	46.93
881.37	-34.99
881.542	48.98
881.714	-0.17
881.886	5.97
882.058	5.97
882.23	110.42
882.402	73.56
882.574	26.45
882.746	34.64
882.918	16.21
883.09	26.45
883.262	-10.41
883.434	38.74
883.606	16.21
883.778	-12.46
883.95	87.89
884.122	-2.22
884.293	24.4
884.465	18.26
884.637	-20.65
884.809	67.41
884.98	-6.31
885.152	3.93
885.324	126.8
885.496	22.36
885.667	1.88
885.839	40.79
886.011	63.32
886.182	18.26
886.354	-41.13
886.525	-10.41
886.697	-28.84
886.869	32.6
887.04	-16.55
887.212	71.51
887.383	51.03
887.555	-0.17
887.726	3.93
887.897	-20.65
888.069	-18.6
888.24	3.93
888.412	42.84
888.583	-98.47
888.754	32.6
888.926	1.88
889.097	-14.51
889.268	-24.75
889.44	26.45
889.611	14.17
889.782	-26.79
889.953	-14.51
890.125	48.98
890.296	24.4
890.467	12.12
890.638	-14.51
890.809	16.21
890.98	-45.23
891.151	3.93
891.323	30.55
891.494	16.21
891.665	34.64
891.836	-4.27
892.007	42.84
892.178	22.36
892.349	57.17
892.52	-24.75
892.691	10.07
892.862	24.4
893.032	73.56
893.203	22.36
893.374	-16.55
893.545	22.36
893.716	-8.36
893.887	85.84
894.057	20.31
894.228	-16.55
894.399	57.17
894.57	46.93
894.74	20.31
894.911	22.36
895.082	-10.41
895.253	-16.55
895.423	-18.6
895.594	-2.22
895.764	-6.31
895.935	1.88
896.106	12.12
896.276	12.12
896.447	24.4
896.617	-12.46
896.788	12.12
896.958	-2.22
897.129	-32.94
897.299	-8.36
897.47	-4.27
897.64	57.17
897.81	40.79
897.981	36.69
898.151	-41.13
898.322	36.69
898.492	24.4
898.662	44.88
898.832	40.79
899.003	-22.7
899.173	67.41
899.343	48.98
899.513	-16.55
