Data from USB4F104151__78__11-45-31-108.txt Node

Date: Fri Mar 14 11:45:31 EDT 2025
User: louis
Spectrometer: USB4F10415
Trigger mode: 4
Integration Time (sec): 2.000000E-2
Scans to average: 1
Electric dark correction enabled: true
Nonlinearity correction enabled: false
Boxcar width: 0
XAxis mode: Wavelengths
Number of Pixels in Spectrum: 3648
>>>>>Begin Spectral Data<<<<<
178.204	-98.47
178.424	-98.47
178.644	-98.47
178.864	-51.37
179.084	-63.66
179.304	8.02
179.524	-10.41
179.744	-32.94
179.964	-6.31
180.184	87.89
180.404	16.21
180.624	5.97
180.844	-12.46
181.064	-45.23
181.283	3.93
181.503	-2.22
181.723	-12.46
181.943	-55.47
182.163	22.36
182.383	-55.47
182.602	81.75
182.822	8.02
183.042	-8.36
183.262	14.17
183.482	-16.55
183.701	-22.7
183.921	24.4
184.141	73.56
184.361	8.02
184.58	48.98
184.8	3.93
185.02	-4.27
185.239	-18.6
185.459	-53.42
185.679	75.6
185.898	-28.84
186.118	5.97
186.338	-4.27
186.557	57.17
186.777	-16.55
186.997	26.45
187.216	32.6
187.436	69.46
187.655	-2.22
187.875	14.17
188.095	-10.41
188.314	-32.94
188.534	69.46
188.753	34.64
188.973	28.5
189.192	59.22
189.412	-20.65
189.631	59.22
189.851	-26.79
190.07	46.93
190.29	-26.79
190.509	-2.22
190.729	-22.7
190.948	10.07
191.168	159.57
191.387	81.75
191.607	-8.36
191.826	-24.75
192.045	-28.84
192.265	-2.22
192.484	-0.17
192.704	8.02
192.923	-51.37
193.142	40.79
193.362	-12.46
193.581	-14.51
193.8	24.4
194.02	26.45
194.239	-73.9
194.458	8.02
194.678	-39.08
194.897	-12.46
195.116	-4.27
195.335	20.31
195.555	42.84
195.774	30.55
195.993	42.84
196.212	24.4
196.432	-20.65
196.651	-14.51
196.87	8.02
197.089	73.56
197.308	75.6
197.528	-16.55
197.747	36.69
197.966	48.98
198.185	22.36
198.404	-6.31
198.623	12.12
198.842	10.07
199.062	-30.89
199.281	-37.03
199.5	-18.6
199.719	96.08
199.938	75.6
200.157	14.17
200.376	8.02
200.595	30.55
200.814	14.17
201.033	38.74
201.252	30.55
201.471	-2.22
201.69	79.7
201.909	28.5
202.128	-28.84
202.347	32.6
202.566	20.31
202.785	-6.31
203.004	-4.27
203.223	22.36
203.442	32.6
203.661	8.02
203.879	-24.75
204.098	34.64
204.317	53.08
204.536	24.4
204.755	-0.17
204.974	-18.6
205.193	77.65
205.411	-0.17
205.63	44.88
205.849	-14.51
206.068	-16.55
206.287	36.69
206.505	-20.65
206.724	-47.27
206.943	-6.31
207.162	-16.55
207.381	20.31
207.599	-34.99
207.818	48.98
208.037	-26.79
208.255	36.69
208.474	20.31
208.693	-16.55
208.911	57.17
209.13	-16.55
209.349	8.02
209.567	48.98
209.786	122.71
210.005	32.6
210.223	71.51
210.442	-55.47
210.661	-16.55
210.879	26.45
211.098	71.51
211.316	-24.75
211.535	26.45
211.753	-61.61
211.972	5.97
212.191	42.84
212.409	51.03
212.628	-16.55
212.846	1.88
213.065	65.36
213.283	20.31
213.502	-14.51
213.72	-49.32
213.938	28.5
214.157	34.64
214.375	71.51
214.594	-18.6
214.812	73.56
215.031	10.07
215.249	20.31
215.467	65.36
215.686	-30.89
215.904	20.31
216.122	-2.22
216.341	16.21
216.559	51.03
216.778	30.55
216.996	-61.61
217.214	20.31
217.432	-41.13
217.651	-43.18
217.869	-0.17
218.087	-34.99
218.306	-88.23
218.524	20.31
218.742	96.08
218.96	28.5
219.179	16.21
219.397	14.17
219.615	65.36
219.833	26.45
220.051	-45.23
220.27	79.7
220.488	-20.65
220.706	-30.89
220.924	10.07
221.142	24.4
221.36	-34.99
221.578	75.6
221.796	-65.71
222.015	59.22
222.233	8.02
222.451	24.4
222.669	-61.61
222.887	-20.65
223.105	8.02
223.323	-10.41
223.541	-20.65
223.759	24.4
223.977	-43.18
224.195	48.98
224.413	30.55
224.631	-18.6
224.849	57.17
225.067	46.93
225.285	40.79
225.503	96.08
225.721	-2.22
225.939	-28.84
226.157	3.93
226.375	28.5
226.592	-55.47
226.81	-2.22
227.028	46.93
227.246	32.6
227.464	-12.46
227.682	14.17
227.9	22.36
228.117	18.26
228.335	44.88
228.553	87.89
228.771	5.97
228.989	34.64
229.206	20.31
229.424	75.6
229.642	-26.79
229.86	16.21
230.077	40.79
230.295	51.03
230.513	20.31
230.731	36.69
230.948	85.84
231.166	59.22
231.384	-96.43
231.601	-4.27
231.819	65.36
232.037	44.88
232.254	-18.6
232.472	14.17
232.689	5.97
232.907	96.08
233.125	-61.61
233.342	-4.27
233.56	-51.37
233.777	77.65
233.995	34.64
234.213	63.32
234.43	-45.23
234.648	-24.75
234.865	89.94
235.083	-10.41
235.3	36.69
235.518	30.55
235.735	20.31
235.953	61.27
236.17	18.26
236.388	30.55
236.605	96.08
236.822	24.4
237.04	98.13
237.257	-47.27
237.475	-34.99
237.692	48.98
237.909	28.5
238.127	83.8
238.344	38.74
238.562	12.12
238.779	-12.46
238.996	-16.55
239.214	34.64
239.431	36.69
239.648	55.12
239.865	-6.31
240.083	22.36
240.3	22.36
240.517	-6.31
240.735	24.4
240.952	-16.55
241.169	-6.31
241.386	1.88
241.603	53.08
241.821	38.74
242.038	28.5
242.255	28.5
242.472	55.12
242.689	104.28
242.907	44.88
243.124	85.84
243.341	30.55
243.558	24.4
243.775	-39.08
243.992	-53.42
244.209	63.32
244.426	-2.22
244.643	48.98
244.86	-0.17
245.078	-22.7
245.295	8.02
245.512	-18.6
245.729	12.12
245.946	12.12
246.163	-24.75
246.38	-2.22
246.597	3.93
246.814	106.32
247.031	32.6
247.248	-20.65
247.464	57.17
247.681	46.93
247.898	14.17
248.115	55.12
248.332	-49.32
248.549	53.08
248.766	1.88
248.983	51.03
249.2	-51.37
249.417	32.6
249.633	-73.9
249.85	42.84
250.067	8.02
250.284	-8.36
250.501	3.93
250.717	5.97
250.934	-55.47
251.151	-12.46
251.368	53.08
251.585	53.08
251.801	8.02
252.018	-55.47
252.235	-8.36
252.451	-28.84
252.668	18.26
252.885	34.64
253.102	53.08
253.318	8.02
253.535	65.36
253.752	-28.84
253.968	55.12
254.185	-6.31
254.401	12.12
254.618	-0.17
254.835	-49.32
255.051	104.28
255.268	61.27
255.484	46.93
255.701	30.55
255.917	3.93
256.134	-26.79
256.351	12.12
256.567	8.02
256.784	30.55
257	16.21
257.217	-26.79
257.433	75.6
257.65	67.41
257.866	30.55
258.082	-34.99
258.299	-41.13
258.515	8.02
258.732	-22.7
258.948	24.4
259.165	-18.6
259.381	55.12
259.597	75.6
259.814	-39.08
260.03	28.5
260.246	-32.94
260.463	36.69
260.679	48.98
260.895	1.88
261.112	63.32
261.328	14.17
261.544	-0.17
261.761	135
261.977	-6.31
262.193	-0.17
262.409	10.07
262.626	-49.32
262.842	-0.17
263.058	-12.46
263.274	-2.22
263.49	-8.36
263.707	36.69
263.923	28.5
264.139	-24.75
264.355	12.12
264.571	36.69
264.787	44.88
265.004	44.88
265.22	-12.46
265.436	3.93
265.652	10.07
265.868	26.45
266.084	5.97
266.3	67.41
266.516	-55.47
266.732	-43.18
266.948	18.26
267.164	3.93
267.38	38.74
267.596	14.17
267.812	67.41
268.028	42.84
268.244	10.07
268.46	-8.36
268.676	-6.31
268.892	42.84
269.108	26.45
269.324	46.93
269.54	-10.41
269.756	5.97
269.972	-10.41
270.188	57.17
270.403	8.02
270.619	3.93
270.835	96.08
271.051	40.79
271.267	-14.51
271.483	5.97
271.698	89.94
271.914	-4.27
272.13	24.4
272.346	57.17
272.562	24.4
272.777	-26.79
272.993	-0.17
273.209	53.08
273.425	1.88
273.64	-30.89
273.856	44.88
274.072	20.31
274.287	-39.08
274.503	32.6
274.719	20.31
274.934	34.64
275.15	63.32
275.366	-4.27
275.581	40.79
275.797	34.64
276.012	8.02
276.228	-4.27
276.444	24.4
276.659	104.28
276.875	-41.13
277.09	-24.75
277.306	3.93
277.521	20.31
277.737	-20.65
277.952	34.64
278.168	28.5
278.383	42.84
278.599	61.27
278.814	28.5
279.03	-18.6
279.245	-14.51
279.461	20.31
279.676	20.31
279.892	28.5
280.107	-30.89
280.322	8.02
280.538	42.84
280.753	-10.41
280.969	16.21
281.184	46.93
281.399	26.45
281.615	-0.17
281.83	1.88
282.045	-32.94
282.26	-26.79
282.476	14.17
282.691	-53.42
282.906	-39.08
283.122	28.5
283.337	12.12
283.552	1.88
283.767	59.22
283.983	18.26
284.198	-10.41
284.413	67.41
284.628	-28.84
284.843	-0.17
285.058	24.4
285.274	69.46
285.489	-4.27
285.704	16.21
285.919	36.69
286.134	-2.22
286.349	28.5
286.564	-28.84
286.779	83.8
286.995	-30.89
287.21	-39.08
287.425	67.41
287.64	-0.17
287.855	53.08
288.07	16.21
288.285	-51.37
288.5	12.12
288.715	-12.46
288.93	24.4
289.145	51.03
289.36	16.21
289.575	32.6
289.79	79.7
290.004	55.12
290.219	61.27
290.434	83.8
290.649	22.36
290.864	8.02
291.079	8.02
291.294	71.51
291.509	87.89
291.724	20.31
291.938	-26.79
292.153	53.08
292.368	40.79
292.583	20.31
292.798	-32.94
293.012	5.97
293.227	-37.03
293.442	38.74
293.657	-12.46
293.871	-8.36
294.086	14.17
294.301	81.75
294.516	28.5
294.73	48.98
294.945	-4.27
295.16	30.55
295.374	53.08
295.589	16.21
295.804	-0.17
296.018	1.88
296.233	10.07
296.447	42.84
296.662	-34.99
296.877	69.46
297.091	-26.79
297.306	-20.65
297.52	-18.6
297.735	83.8
297.949	42.84
298.164	42.84
298.378	20.31
298.593	5.97
298.807	-43.18
299.022	63.32
299.236	79.7
299.451	63.32
299.665	59.22
299.88	-45.23
300.094	-10.41
300.309	53.08
300.523	-39.08
300.737	-28.84
300.952	-6.31
301.166	30.55
301.381	-4.27
301.595	20.31
301.809	8.02
302.024	5.97
302.238	44.88
302.452	22.36
302.667	32.6
302.881	114.52
303.095	55.12
303.309	14.17
303.524	-51.37
303.738	-16.55
303.952	16.21
304.166	42.84
304.381	-30.89
304.595	102.23
304.809	-30.89
305.023	-84.14
305.237	22.36
305.452	-49.32
305.666	30.55
305.88	69.46
306.094	-30.89
306.308	-2.22
306.522	53.08
306.736	-30.89
306.95	-6.31
307.164	26.45
307.379	34.64
307.593	22.36
307.807	10.07
308.021	-51.37
308.235	65.36
308.449	71.51
308.663	36.69
308.877	32.6
309.091	-20.65
309.305	-14.51
309.519	-34.99
309.733	16.21
309.947	-75.95
310.161	20.31
310.374	42.84
310.588	12.12
310.802	3.93
311.016	-43.18
311.23	91.99
311.444	-37.03
311.658	36.69
311.872	3.93
312.085	24.4
312.299	57.17
312.513	24.4
312.727	65.36
312.941	28.5
313.154	104.28
313.368	-8.36
313.582	28.5
313.796	38.74
314.009	32.6
314.223	-22.7
314.437	-6.31
314.651	-2.22
314.864	-10.41
315.078	16.21
315.292	61.27
315.505	18.26
315.719	40.79
315.933	48.98
316.146	-24.75
316.36	-45.23
316.573	5.97
316.787	83.8
317.001	61.27
317.214	-16.55
317.428	40.79
317.641	-92.33
317.855	48.98
318.068	10.07
318.282	61.27
318.495	-51.37
318.709	44.88
318.922	-12.46
319.136	79.7
319.349	32.6
319.563	3.93
319.776	83.8
319.99	-22.7
320.203	40.79
320.417	24.4
320.63	67.41
320.843	57.17
321.057	53.08
321.27	10.07
321.483	-0.17
321.697	24.4
321.91	-4.27
322.124	59.22
322.337	-10.41
322.55	69.46
322.763	-20.65
322.977	18.26
323.19	10.07
323.403	69.46
323.617	98.13
323.83	81.75
324.043	-61.61
324.256	-0.17
324.469	20.31
324.683	75.6
324.896	-59.56
325.109	24.4
325.322	1.88
325.535	65.36
325.748	20.31
325.962	53.08
326.175	61.27
326.388	65.36
326.601	-2.22
326.814	44.88
327.027	14.17
327.24	1.88
327.453	3.93
327.666	73.56
327.879	-2.22
328.092	-8.36
328.305	10.07
328.518	3.93
328.731	77.65
328.944	65.36
329.157	40.79
329.37	46.93
329.583	51.03
329.796	32.6
330.009	-43.18
330.222	16.21
330.435	48.98
330.648	-45.23
330.861	61.27
331.073	71.51
331.286	28.5
331.499	-0.17
331.712	46.93
331.925	32.6
332.138	3.93
332.35	100.18
332.563	8.02
332.776	12.12
332.989	-22.7
333.202	18.26
333.414	34.64
333.627	61.27
333.84	14.17
334.053	5.97
334.265	16.21
334.478	-12.46
334.691	79.7
334.903	83.8
335.116	26.45
335.329	-2.22
335.541	53.08
335.754	-2.22
335.966	24.4
336.179	42.84
336.392	-16.55
336.604	110.42
336.817	42.84
337.029	48.98
337.242	30.55
337.454	89.94
337.667	32.6
337.88	71.51
338.092	77.65
338.305	8.02
338.517	-26.79
338.729	46.93
338.942	135
339.154	-16.55
339.367	-0.17
339.579	-22.7
339.792	8.02
340.004	34.64
340.217	57.17
340.429	16.21
340.641	53.08
340.854	32.6
341.066	1.88
341.278	42.84
341.491	-4.27
341.703	79.7
341.915	10.07
342.128	132.95
342.34	8.02
342.552	63.32
342.764	28.5
342.977	-53.42
343.189	34.64
343.401	8.02
343.613	20.31
343.826	42.84
344.038	-12.46
344.25	-16.55
344.462	-8.36
344.674	-32.94
344.886	-6.31
345.099	30.55
345.311	-34.99
345.523	30.55
345.735	-41.13
345.947	65.36
346.159	-47.27
346.371	28.5
346.583	20.31
346.795	96.08
347.007	-123.05
347.219	-12.46
347.431	1.88
347.643	65.36
347.855	55.12
348.067	122.71
348.279	44.88
348.491	18.26
348.703	79.7
348.915	32.6
349.127	42.84
349.339	61.27
349.551	-8.36
349.763	42.84
349.975	20.31
350.187	22.36
350.399	3.93
350.61	36.69
350.822	22.36
351.034	110.42
351.246	57.17
351.458	51.03
351.669	24.4
351.881	94.04
352.093	-16.55
352.305	3.93
352.517	-0.17
352.728	81.75
352.94	3.93
353.152	75.6
353.363	46.93
353.575	-22.7
353.787	34.64
353.999	96.08
354.21	73.56
354.422	57.17
354.633	24.4
354.845	40.79
355.057	89.94
355.268	67.41
355.48	-0.17
355.692	38.74
355.903	-16.55
356.115	102.23
356.326	65.36
356.538	10.07
356.749	16.21
356.961	32.6
357.172	44.88
357.384	-24.75
357.595	104.28
357.807	12.12
358.018	40.79
358.23	-57.51
358.441	48.98
358.653	32.6
358.864	28.5
359.075	32.6
359.287	22.36
359.498	30.55
359.709	-4.27
359.921	-69.8
360.132	16.21
360.344	18.26
360.555	71.51
360.766	28.5
360.977	65.36
361.189	-14.51
361.4	10.07
361.611	87.89
361.823	67.41
362.034	22.36
362.245	-16.55
362.456	36.69
362.667	51.03
362.879	24.4
363.09	-32.94
363.301	61.27
363.512	5.97
363.723	53.08
363.935	16.21
364.146	-12.46
364.357	-24.75
364.568	36.69
364.779	-37.03
364.99	36.69
365.201	38.74
365.412	32.6
365.623	69.46
365.834	-16.55
366.045	14.17
366.256	-24.75
366.467	5.97
366.678	55.12
366.889	16.21
367.1	-4.27
367.311	-16.55
367.522	8.02
367.733	102.23
367.944	34.64
368.155	53.08
368.366	69.46
368.577	100.18
368.788	-22.7
368.999	8.02
369.209	12.12
369.42	36.69
369.631	135
369.842	10.07
370.053	53.08
370.264	61.27
370.474	-26.79
370.685	22.36
370.896	48.98
371.107	81.75
371.317	28.5
371.528	-6.31
371.739	65.36
371.95	67.41
372.16	38.74
372.371	-2.22
372.582	16.21
372.792	16.21
373.003	91.99
373.214	36.69
373.424	63.32
373.635	-24.75
373.846	1.88
374.056	44.88
374.267	79.7
374.477	69.46
374.688	12.12
374.898	22.36
375.109	32.6
375.319	10.07
375.53	18.26
375.74	42.84
375.951	48.98
376.161	22.36
376.372	28.5
376.582	16.21
376.793	-0.17
377.003	-4.27
377.214	75.6
377.424	24.4
377.635	-6.31
377.845	75.6
378.055	135
378.266	14.17
378.476	44.88
378.686	-14.51
378.897	22.36
379.107	87.89
379.317	10.07
379.528	20.31
379.738	14.17
379.948	-2.22
380.158	12.12
380.369	-73.9
380.579	-12.46
380.789	42.84
380.999	87.89
381.21	48.98
381.42	5.97
381.63	24.4
381.84	161.62
382.05	38.74
382.261	36.69
382.471	14.17
382.681	89.94
382.891	36.69
383.101	-39.08
383.311	5.97
383.521	-14.51
383.731	20.31
383.941	83.8
384.151	-8.36
384.361	55.12
384.571	85.84
384.781	20.31
384.991	51.03
385.201	83.8
385.411	32.6
385.621	91.99
385.831	16.21
386.041	53.08
386.251	24.4
386.461	14.17
386.671	46.93
386.881	116.56
387.091	67.41
387.301	57.17
387.511	44.88
387.72	98.13
387.93	126.8
388.14	44.88
388.35	46.93
388.56	30.55
388.769	61.27
388.979	24.4
389.189	-37.03
389.399	-4.27
389.609	67.41
389.818	61.27
390.028	89.94
390.238	141.14
390.447	18.26
390.657	110.42
390.867	40.79
391.076	-41.13
391.286	20.31
391.496	48.98
391.705	-0.17
391.915	-0.17
392.125	61.27
392.334	73.56
392.544	-12.46
392.753	83.8
392.963	71.51
393.172	30.55
393.382	108.37
393.591	108.37
393.801	51.03
394.01	53.08
394.22	110.42
394.429	91.99
394.639	42.84
394.848	87.89
395.058	36.69
395.267	83.8
395.477	61.27
395.686	143.19
395.895	85.84
396.105	46.93
396.314	102.23
396.524	116.56
396.733	10.07
396.942	114.52
397.152	44.88
397.361	55.12
397.57	28.5
397.78	135
397.989	61.27
398.198	87.89
398.407	96.08
398.617	96.08
398.826	102.23
399.035	159.57
399.244	161.62
399.453	77.65
399.663	106.32
399.872	59.22
400.081	100.18
400.29	85.84
400.499	30.55
400.708	94.04
400.917	89.94
401.127	106.32
401.336	137.04
401.545	130.9
401.754	114.52
401.963	137.04
402.172	122.71
402.381	110.42
402.59	87.89
402.799	83.8
403.008	110.42
403.217	53.08
403.426	94.04
403.635	106.32
403.844	53.08
404.053	137.04
404.262	51.03
404.471	143.19
404.68	161.62
404.888	157.52
405.097	194.39
405.306	149.33
405.515	87.89
405.724	104.28
405.933	145.24
406.142	171.86
406.35	204.63
406.559	184.15
406.768	227.15
406.977	173.91
407.185	143.19
407.394	229.2
407.603	202.58
407.812	214.87
408.02	214.87
408.229	157.52
408.438	227.15
408.646	218.96
408.855	229.2
409.064	214.87
409.272	212.82
409.481	274.26
409.69	225.11
409.898	188.24
410.107	282.45
410.315	382.8
410.524	331.6
410.733	329.55
410.941	341.84
411.15	325.46
411.358	339.79
411.567	364.37
411.775	358.22
411.984	339.79
412.192	347.98
412.401	339.79
412.609	479.05
412.818	417.61
413.026	415.57
413.234	382.8
413.443	474.96
413.651	477.01
413.86	440.14
414.068	505.68
414.276	603.98
414.485	595.79
414.693	548.68
414.901	624.46
415.11	669.52
415.318	616.27
415.526	634.7
415.734	638.8
415.943	692.04
416.151	780.11
416.359	677.71
416.567	796.49
416.776	800.59
416.984	855.88
417.192	841.54
417.4	862.02
417.608	870.22
417.817	921.42
418.025	870.22
418.233	1070.92
418.441	1034.05
418.649	1052.49
418.857	1193.8
419.065	1216.32
419.273	1138.5
419.481	1201.99
419.689	1306.43
419.897	1281.86
420.105	1267.52
420.313	1306.43
420.521	1392.45
420.729	1425.22
420.937	1472.32
421.145	1556.29
421.353	1673.02
421.561	1785.66
421.769	1707.84
421.977	1820.47
422.185	1873.72
422.393	2015.03
422.601	2058.04
422.809	2062.13
423.017	1996.6
423.224	2105.14
423.432	2256.69
423.64	2260.79
423.848	2387.76
424.056	2307.89
424.263	2580.27
424.471	2524.97
424.679	2604.85
424.887	2717.48
425.094	2813.74
425.302	2834.22
425.51	2955.05
425.718	3067.69
425.925	2977.58
426.133	3204.9
426.341	3305.25
426.548	3585.82
426.756	3456.8
426.964	3612.45
427.171	3745.56
427.379	3718.94
427.586	3895.07
427.794	4087.57
428.001	4228.88
428.209	4288.28
428.417	4407.06
428.624	4712.21
428.832	4658.96
429.039	4517.65
429.247	4622.09
429.454	5066.5
429.662	5400.32
429.869	5142.28
430.076	5322.5
430.284	5265.16
430.491	5373.7
430.699	5838.59
430.906	5809.92
431.114	5897.98
431.321	6158.07
431.528	6219.51
431.736	6498.03
431.943	6846.19
432.15	6668.02
432.358	7010.03
432.565	7261.93
432.772	7122.66
432.979	7464.68
433.187	7646.94
433.394	7608.03
433.601	8318.68
433.808	8220.38
434.016	8210.14
434.223	8531.67
434.43	9047.76
434.637	8834.77
434.844	9400.01
435.052	9608.9
435.259	9651.91
435.466	9846.46
435.673	9588.42
435.88	10155.71
436.087	10831.54
436.294	10784.43
436.501	10311.35
436.708	10612.4
436.915	10872.5
437.122	11536.04
437.329	11574.95
437.537	11781.79
437.743	11916.96
437.95	12021.41
438.157	12586.65
438.364	12992.14
438.571	12957.33
438.778	12844.69
438.985	14280.32
439.192	13653.64
439.399	14124.67
439.606	13981.31
439.813	14706.29
440.02	15580.78
440.227	15263.34
440.433	14990.96
440.64	15677.03
440.847	15189.61
441.054	15943.27
441.261	16854.61
441.467	16709.21
441.674	16901.72
441.881	17710.66
442.088	17765.96
442.294	17507.91
442.501	18036.29
442.708	18331.2
442.914	18974.26
443.121	19936.81
443.328	19361.33
443.534	20522.52
443.741	20045.35
443.948	19801.64
444.154	21263.89
444.361	21065.24
444.568	21313.04
444.774	21231.12
444.981	21425.68
445.187	22177.28
445.394	23025.14
445.6	22711.8
445.807	25157.08
446.013	23995.88
446.22	24690.14
446.426	25126.36
446.633	25480.66
446.839	26488.26
447.046	25290.2
447.252	26799.55
447.459	26903.99
447.665	26518.98
447.871	27999.66
448.078	29187.48
448.284	27684.27
448.491	28521.89
448.697	29599.12
448.903	30264.71
449.11	30184.84
449.316	29705.62
449.522	30010.76
449.728	31405.43
449.935	31276.41
450.141	31327.61
450.347	32068.97
450.553	30711.17
450.76	31257.98
450.966	32222.57
451.172	32099.69
451.378	32820.58
451.584	32101.74
451.791	33181.02
451.997	32869.73
452.203	33383.77
452.409	33375.58
452.615	33361.24
452.821	31561.08
453.027	31950.19
453.233	33285.47
453.44	32122.22
453.646	32630.12
453.852	32656.74
454.058	33469.78
454.264	31808.88
454.47	32818.53
454.676	32341.35
454.882	32804.19
455.088	29988.24
455.294	30659.97
455.5	31432.05
455.705	31487.35
455.911	30469.51
456.117	30008.72
456.323	29322.65
456.529	28042.67
456.735	29158.81
456.941	28351.91
457.147	27966.89
457.352	26924.47
457.558	26631.61
457.764	26805.69
457.97	25789.9
458.176	25785.8
458.381	25658.83
458.587	24235.49
458.793	24225.25
458.999	22887.93
459.204	24577.5
459.41	24112.61
459.616	22392.32
459.821	22371.84
460.027	22367.74
460.233	21851.66
460.438	21067.28
460.644	21157.39
460.85	20114.98
461.055	19729.96
461.261	19709.48
461.466	18425.4
461.672	17915.46
461.878	19238.45
462.083	17608.26
462.289	17466.95
462.494	17161.81
462.7	16383.58
462.905	16164.45
463.111	16756.31
463.316	16629.34
463.522	16606.81
463.727	16096.86
463.932	16252.51
464.138	16045.66
464.343	16178.78
464.549	15855.2
464.754	16262.75
464.959	15847.01
465.165	16100.96
465.37	15326.83
465.575	14894.71
465.781	15554.15
465.986	15580.78
466.191	15031.92
466.397	14622.33
466.602	13821.57
466.807	14544.5
467.012	14585.46
467.218	14458.49
467.423	14073.47
467.628	14546.55
467.833	14997.1
468.038	14349.95
468.244	14069.37
468.449	14638.71
468.654	14231.16
468.859	13917.82
469.064	13670.02
469.269	13268.62
469.474	13409.93
469.679	13596.29
469.885	13354.63
470.09	13295.24
470.295	13430.41
470.5	13121.17
470.705	13418.12
470.91	13074.06
471.115	12867.22
471.32	12832.4
471.525	12725.91
471.73	12482.2
471.935	12523.16
472.139	12019.36
472.344	12465.82
472.549	12031.65
472.754	11947.68
472.959	11853.47
473.164	11525.8
473.369	11290.28
473.574	11718.31
473.778	11603.62
473.983	11519.65
474.188	11613.86
474.393	11036.33
474.598	11189.93
474.802	11003.57
475.007	10737.33
475.212	10710.71
475.417	10557.11
475.621	10481.33
475.826	10479.29
476.031	10223.29
476.235	10118.84
476.44	10358.46
476.645	10100.41
476.849	10219.19
477.054	9995.96
477.259	9846.46
477.463	9897.66
477.668	9580.23
477.872	9805.5
478.077	9402.05
478.282	9180.87
478.486	9285.32
478.691	9283.27
478.895	9205.45
479.1	8971.98
479.304	9154.25
479.509	8861.39
479.713	9234.12
479.918	8584.91
480.122	8742.61
480.326	8666.83
480.531	8756.94
480.735	8533.72
480.94	8675.02
481.144	8761.04
481.348	8427.22
481.553	8480.47
481.757	8421.08
481.961	8402.65
482.166	8670.93
482.37	8535.76
482.574	8466.13
482.778	8423.12
482.983	8429.27
483.187	8562.39
483.391	8353.49
483.595	8373.97
483.8	8345.3
484.004	8427.22
484.208	8421.08
484.412	8373.97
484.616	8681.17
484.821	8427.22
485.025	8197.85
485.229	8437.46
485.433	8316.63
485.637	8384.21
485.841	8189.66
486.045	8392.41
486.249	8431.32
486.453	8494.8
486.657	8294.1
486.861	8394.45
487.065	8206.04
487.269	8324.82
487.473	8191.7
487.677	8427.22
487.881	8486.61
488.085	8527.57
488.289	8355.54
488.493	8156.89
488.697	8562.39
488.901	8431.32
489.105	8343.25
489.309	8419.03
489.512	8494.8
489.716	8474.32
489.92	8386.26
490.124	8343.25
490.328	8505.04
490.531	8595.15
490.735	8791.76
490.939	8715.98
491.143	8701.65
491.346	8562.39
491.55	8705.74
491.754	8730.32
491.958	8728.27
492.161	8726.22
492.365	8771.28
492.569	8953.55
492.772	8894.16
492.976	8824.53
493.18	9004.75
493.383	8926.93
493.587	8888.01
493.79	9180.87
493.994	9008.84
494.197	9246.41
494.401	9313.99
494.605	9248.46
494.808	9416.39
495.012	9551.56
495.215	9496.26
495.419	9758.4
495.622	9461.44
495.825	9666.24
496.029	9483.97
496.232	10020.54
496.436	9950.91
496.639	10200.76
496.843	10067.64
497.046	10063.55
497.249	10200.76
497.453	10423.99
497.656	10571.44
497.859	10485.43
498.063	10649.27
498.266	10997.42
498.469	10895.02
498.673	10989.23
498.876	11189.93
499.079	11411.11
499.282	11314.86
499.485	11433.64
499.689	11435.69
499.892	11593.38
500.095	11679.4
500.298	11869.86
500.501	12066.46
500.705	12129.95
500.908	12449.43
501.111	12422.81
501.314	12404.38
501.517	12715.67
501.72	12893.84
501.923	12680.85
502.126	12988.05
502.329	13258.38
502.532	13389.45
502.735	13121.17
502.938	13637.25
503.141	13708.93
503.344	13885.06
503.547	14001.79
503.75	14087.81
503.953	14534.26
504.156	14681.72
504.359	14843.51
504.562	14591.61
504.765	14958.19
504.968	15011.44
505.17	15279.72
505.373	15414.89
505.576	15814.24
505.779	15728.23
505.982	15711.85
506.185	16246.37
506.387	16426.59
506.59	16342.62
506.793	16621.14
506.996	16553.56
507.198	17112.66
507.401	17036.88
507.604	17489.48
507.807	17624.65
508.009	17735.24
508.212	17897.03
508.415	17876.55
508.617	18259.52
508.82	18333.25
509.022	18331.2
509.225	19072.56
509.428	19146.29
509.63	19179.06
509.833	19162.67
510.035	19617.32
510.238	19541.55
510.44	19682.86
510.643	20125.22
510.845	19959.33
511.048	20047.4
511.25	20526.62
511.453	20571.68
511.655	21081.62
511.858	20954.65
512.06	21042.71
512.262	21726.73
512.465	21356.05
512.667	22015.49
512.87	22263.3
513.072	22197.76
513.274	22621.69
513.477	22644.22
513.679	23109.11
513.881	23012.85
514.084	23410.16
514.286	23373.3
514.488	23815.66
514.69	24346.08
514.893	24157.67
515.095	24137.19
515.297	24649.18
515.499	24536.54
515.701	25056.73
515.904	25552.34
516.106	25421.27
516.308	25570.77
516.51	25920.97
516.712	26101.19
516.914	26398.15
517.116	26586.56
517.318	26613.18
517.52	26949.05
517.722	26981.82
517.925	27786.67
518.127	27893.16
518.329	27948.46
518.531	28024.23
518.733	28278.18
518.935	28710.3
519.136	28693.92
519.338	28870.04
519.54	29353.37
519.742	29605.27
519.944	29363.61
520.146	30375.3
520.348	30205.32
520.55	30463.36
520.752	30291.34
520.954	31139.19
521.155	30500.23
521.357	31366.52
521.559	31171.96
521.761	31917.42
521.963	32312.68
522.164	32140.65
522.366	32169.32
522.568	32869.73
522.77	33000.8
522.971	33295.71
523.173	33008.99
523.375	33434.97
523.576	33346.9
523.778	33113.44
523.98	33824.08
524.181	34039.12
524.383	34354.51
524.584	34643.27
524.786	34420.04
524.988	34407.75
525.189	35140.93
525.391	35114.3
525.592	35126.59
525.794	35616.05
525.995	35468.6
526.197	35702.07
526.398	35444.02
526.6	35900.72
526.801	36373.8
527.003	36734.24
527.204	36527.4
527.406	36615.46
527.607	36869.41
527.808	37365.02
528.01	36646.18
528.211	36789.54
528.412	37512.47
528.614	37522.71
528.815	37309.72
529.016	37772.56
529.218	37262.62
529.419	37688.6
529.62	37852.44
529.822	38006.03
530.023	37643.54
530.224	37954.83
530.425	37905.68
530.626	37825.81
530.828	37692.69
531.029	38632.71
531.23	38087.95
531.431	38077.71
531.632	38579.46
531.833	38446.35
532.035	38659.34
532.236	38010.13
532.437	39007.49
532.638	38622.47
532.839	38782.21
533.04	38882.56
533.241	38354.19
533.442	39445.76
533.643	38849.8
533.844	38749.45
534.045	39111.94
534.246	38513.93
534.447	39011.59
534.648	38823.17
534.849	38782.21
535.05	38659.34
535.251	38649.1
535.451	38956.29
535.652	38966.53
535.853	38561.03
536.054	39144.7
536.255	39202.05
536.456	38769.93
536.657	39343.36
536.857	38536.46
537.058	38933.76
537.259	39073.03
537.46	39419.13
537.66	38948.1
537.861	38966.53
538.062	38896.9
538.263	39392.51
538.463	38974.72
538.664	38946.05
538.865	38962.43
539.065	39050.5
539.266	38675.72
539.466	39400.7
539.667	38749.45
539.868	39679.22
540.068	39478.52
540.269	38954.24
540.469	39269.63
540.67	38950.15
540.87	39032.07
541.071	38790.41
541.271	39021.83
541.472	38921.48
541.672	39070.98
541.873	38882.56
542.073	38544.65
542.274	39197.95
542.474	38901
542.675	38724.87
542.875	38888.71
543.075	38794.5
543.276	38290.7
543.476	38923.52
543.676	38429.96
543.877	38823.17
544.077	38692.1
544.277	38778.12
544.478	38518.03
544.678	38937.86
544.878	38470.92
545.078	38819.08
545.279	38966.53
545.479	38675.72
545.679	38927.62
545.879	39050.5
546.079	38423.82
546.28	38753.54
546.48	37786.9
546.68	38888.71
546.88	39128.32
547.08	38808.84
547.28	38771.97
547.48	38692.1
547.68	38747.4
547.88	38290.7
548.081	38960.39
548.281	38497.55
548.481	38403.34
548.681	38864.13
548.881	38499.59
549.081	38741.25
549.28	38472.97
549.48	38735.11
549.68	38487.31
549.88	38980.87
550.08	38405.39
550.28	38761.73
550.48	38569.22
550.68	38792.45
550.88	38028.56
551.08	38329.61
551.279	38550.79
551.479	38305.04
551.679	38599.94
551.879	38333.71
552.079	39007.49
552.278	38176.01
552.478	38776.07
552.678	38153.49
552.878	38526.22
553.077	38300.94
553.277	37846.29
553.477	38704.39
553.676	38104.34
553.876	38452.49
554.076	38249.74
554.275	38151.44
554.475	37758.23
554.674	37756.18
554.874	38364.43
555.074	38053.14
555.273	38075.66
555.473	38341.9
555.672	37852.44
555.872	37866.77
556.071	38012.18
556.271	38016.27
556.47	37858.58
556.67	37602.58
556.869	37631.26
557.068	38042.9
557.268	37340.44
557.467	37799.19
557.667	37432.6
557.866	37457.18
558.065	37606.68
558.265	37397.79
558.464	37250.33
558.663	37401.88
558.863	37004.58
559.062	37582.1
559.261	36990.24
559.461	37541.14
559.66	37154.08
559.859	37238.05
560.058	36738.34
560.258	37164.32
560.457	36644.13
560.656	37256.48
560.855	36576.55
561.054	36777.25
561.253	36623.65
561.453	36726.05
561.652	36904.23
561.851	36805.92
562.05	36232.49
562.249	36078.89
562.448	36533.54
562.647	36560.17
562.846	35966.26
563.045	36164.91
563.244	35794.23
563.443	36238.64
563.642	35951.92
563.841	36062.51
564.04	35497.27
564.239	35724.6
564.438	35439.93
564.637	35773.75
564.836	35718.45
565.035	35151.16
565.234	35556.66
565.432	35145.02
565.631	35091.77
565.83	35147.07
566.029	34958.66
566.228	34940.22
566.427	35231.04
566.625	35083.58
566.824	34491.72
567.023	34846.02
567.222	34039.12
567.42	34997.57
567.619	34780.48
567.818	34567.49
568.016	34495.81
568.215	34651.46
568.414	34377.03
568.612	34477.38
568.811	34270.54
569.01	34106.7
569.208	33693.01
569.407	34211.15
569.605	33920.34
569.804	34110.8
570.002	33643.86
570.201	34035.02
570.4	33475.93
570.598	33527.13
570.797	33080.67
570.995	33359.19
571.193	32920.93
571.392	33674.58
571.59	32652.64
571.789	32871.78
571.987	33099.1
572.186	32664.93
572.384	32652.64
572.582	33068.38
572.781	33006.94
572.979	32195.95
573.177	32578.92
573.376	32724.32
573.574	32263.53
573.772	32056.68
573.971	32028.01
574.169	31806.83
574.367	31763.82
574.565	31860.08
574.763	31855.98
574.962	31661.43
575.16	31620.47
575.358	31798.64
575.556	31434.1
575.754	31843.7
575.952	31108.47
576.151	31442.29
576.349	30633.35
576.547	30827.9
576.745	31077.76
576.943	31245.69
577.141	31022.46
577.339	31231.35
577.537	30735.74
577.735	30707.07
577.933	30301.57
578.131	30567.81
578.329	30565.76
578.527	30141.83
578.725	30197.13
578.923	30463.36
579.121	30217.61
579.319	30160.27
579.516	29840.78
579.714	30041.48
579.912	29722
580.11	29717.9
580.308	29808.01
580.506	29050.27
580.704	29298.07
580.901	29627.79
581.099	29607.31
581.297	29156.76
581.495	29300.12
581.692	29431.19
581.89	28988.83
582.088	29154.71
582.285	28765.6
582.483	29072.79
582.681	28771.74
582.878	28880.28
583.076	28577.19
583.274	28827.04
583.471	28521.89
583.669	28300.71
583.866	28423.59
584.064	28366.24
584.262	28067.24
584.459	28153.26
584.657	27874.73
584.854	28171.69
585.052	27651.5
585.249	28145.06
585.447	27878.83
585.644	27551.15
585.841	27796.91
586.039	27633.07
586.236	27364.79
586.434	27590.06
586.631	27043.26
586.828	27389.36
587.026	27420.08
587.223	27221.43
587.42	27229.62
587.618	26908.09
587.815	26955.19
588.012	26742.21
588.21	26883.52
588.407	27008.44
588.604	26463.68
588.801	26402.24
588.999	26574.27
589.196	26344.9
589.393	26516.93
589.59	25959.88
589.787	26299.84
589.984	25957.83
590.182	25888.2
590.379	26146.25
590.576	25783.76
590.773	25642.45
590.97	25681.36
591.167	25669.07
591.364	25535.95
591.561	25640.4
591.758	25460.18
591.955	25177.56
592.152	25462.22
592.349	25204.18
592.546	25193.94
592.743	24978.9
592.94	24843.74
593.137	25091.54
593.334	25128.41
593.531	24653.28
593.727	24929.75
593.924	24616.41
594.121	24516.06
594.318	24661.47
594.515	24438.24
594.712	24497.63
594.908	24290.79
595.105	24585.69
595.302	23954.92
595.499	23842.28
595.696	24174.05
595.892	23858.67
596.089	23952.87
596.286	23827.95
596.482	23817.71
596.679	23948.78
596.876	24038.89
597.072	23479.79
597.269	23496.17
597.466	23584.24
597.662	23451.12
597.859	23397.87
598.055	23535.09
598.252	22900.22
598.448	23252.47
598.645	23174.64
598.841	22763
599.038	23021.05
599.234	23129.59
599.431	22775.29
599.627	22558.21
599.824	22832.63
600.02	22541.82
600.217	22842.87
600.413	22355.46
600.609	22539.77
600.806	22115.84
601.002	22339.07
601.198	22470.14
601.395	22121.99
601.591	22062.6
601.787	22021.64
601.984	21771.79
602.18	22060.55
602.376	21861.9
602.572	21644.81
602.769	21743.11
602.965	21435.92
603.161	21702.15
603.357	21487.12
603.553	21261.84
603.75	21489.17
603.946	21231.12
604.142	21382.67
604.338	20561.44
604.534	21130.77
604.73	20968.98
604.926	20989.46
605.122	20979.22
605.318	21089.81
605.514	20586.01
605.71	20676.12
605.906	20629.02
606.102	20827.67
606.298	20586.01
606.494	20624.92
606.69	20493.85
606.886	20307.49
607.082	20012.58
607.278	20391.45
607.474	19973.67
607.67	20270.62
607.866	20094.5
608.062	20401.69
608.257	20149.79
608.453	19789.35
608.649	20223.52
608.845	19836.45
609.041	19727.91
609.236	19727.91
609.432	20086.31
609.628	20010.53
609.824	19830.31
610.019	19543.6
610.215	19523.12
610.411	19772.97
610.606	19654.19
610.802	19668.52
610.998	19471.92
611.193	19394.09
611.389	19250.74
611.584	19351.09
611.78	19213.87
611.976	19455.53
612.171	19355.18
612.367	19564.07
612.562	19248.69
612.758	19021.36
612.953	18974.26
613.149	19097.14
613.344	19062.32
613.539	19195.44
613.735	18820.66
613.93	19162.67
614.126	18953.78
614.321	19082.8
614.517	18996.79
614.712	18918.96
614.907	18599.48
615.103	18900.53
615.298	18710.07
615.493	18896.44
615.688	18667.06
615.884	19056.18
616.079	18671.16
616.274	18337.34
616.47	18296.38
616.665	18261.57
616.86	18288.19
617.055	18587.19
617.25	18138.69
617.445	18347.58
617.641	18386.49
617.836	18542.14
618.031	18060.87
618.226	18196.03
618.421	18001.47
618.616	18173.5
618.811	17935.94
619.006	18226.75
619.201	17831.49
619.396	18193.98
619.591	17471.05
619.786	17737.29
619.981	17288.78
620.176	17579.59
620.371	17546.83
620.566	17319.5
620.761	17120.85
620.956	17313.36
621.151	17280.59
621.346	17047.12
621.541	16768.6
621.735	16918.1
621.93	16598.62
622.125	16711.25
622.32	16428.63
622.515	16694.87
622.709	16535.13
622.904	16432.73
623.099	16442.97
623.294	16547.42
623.488	16164.45
623.683	16139.87
623.878	15728.23
624.072	16262.75
624.267	15816.29
624.462	15834.72
624.656	15668.84
624.851	15537.77
625.046	15273.58
625.24	15550.06
625.435	15480.43
625.629	15316.59
625.824	15337.07
626.018	15210.09
626.213	14904.95
626.407	14935.67
626.602	14726.77
626.796	14796.4
626.991	14747.25
627.185	14628.47
627.38	14626.42
627.574	14425.72
627.768	14380.67
627.963	14222.97
628.157	14308.99
628.352	13981.31
628.546	13934.21
628.74	13930.11
628.935	13833.86
629.129	13796.99
629.323	13637.25
629.517	13776.52
629.712	13502.09
629.906	13432.46
630.1	13295.24
630.294	13532.81
630.489	13467.27
630.683	13399.69
630.877	13272.71
631.071	12932.75
631.265	13129.36
631.459	13194.89
631.653	12926.61
631.848	12875.41
632.042	12838.55
632.236	12891.79
632.43	12658.32
632.624	12768.91
632.818	12447.38
633.012	12277.4
633.206	12349.08
633.4	12517.01
633.594	12146.33
633.788	12390.04
633.982	12048.03
634.176	12070.56
634.369	12058.27
634.563	11976.35
634.757	11992.73
634.951	12066.46
635.145	11892.38
635.339	11800.23
635.533	11646.63
635.726	11579.04
635.92	11605.67
636.114	11566.76
636.308	11374.25
636.501	11325.1
636.695	11400.87
636.889	11239.08
637.083	11108.01
637.276	11206.31
637.47	10993.33
637.664	10999.47
637.857	11024.05
638.051	10809.01
638.244	10809.01
638.438	10964.65
638.632	10710.71
638.825	10694.32
639.019	10741.43
639.212	10550.96
639.406	10632.88
639.599	10645.17
639.793	10540.72
639.986	10503.86
640.18	10239.67
640.373	10172.09
640.567	10366.65
640.76	10071.74
640.954	10180.28
641.147	10174.14
641.34	10010.3
641.534	9991.87
641.727	9969.34
641.92	10092.22
642.114	9936.57
642.307	9707.2
642.5	9586.37
642.694	9582.28
642.887	9242.31
643.08	9717.44
643.273	9432.77
643.467	9440.97
643.66	9342.66
643.853	9438.92
644.046	9152.2
644.239	9363.14
644.432	8926.93
644.626	9094.86
644.819	9080.52
645.012	8959.69
645.205	8906.45
645.398	8908.49
645.591	8990.41
645.784	8845.01
645.977	8629.97
646.17	8748.75
646.363	8632.02
646.556	8611.54
646.749	8529.62
646.942	8724.18
647.135	8439.51
647.328	8496.85
647.521	8464.08
647.714	8357.59
647.907	8347.35
648.099	8222.42
648.292	8304.34
648.485	8369.88
648.678	8193.75
648.871	8236.76
649.064	7999.2
649.256	8199.9
649.449	7950.04
649.642	8193.75
649.835	7964.38
650.027	7972.57
650.22	7782.11
650.413	7735.01
650.605	7958.24
650.798	7814.88
650.991	7745.25
651.183	7605.99
651.376	7460.58
651.568	7712.48
651.761	7450.34
651.954	7692
652.146	7304.93
652.339	7491.3
652.531	7364.32
652.724	7446.24
652.916	7126.76
653.109	7206.63
653.301	7196.39
653.494	7198.44
653.686	6930.16
653.879	7020.27
654.071	7087.85
654.263	6942.44
654.456	7028.46
654.648	6958.83
654.84	6895.34
655.033	6911.72
655.225	6764.27
655.417	6864.62
655.61	6743.79
655.802	6758.13
655.994	6643.44
656.186	6692.59
656.379	6674.16
656.571	6631.15
656.763	6635.25
656.955	6616.82
657.148	6534.9
657.34	6536.95
657.532	6362.87
657.724	6258.42
657.916	6178.55
658.108	6401.78
658.3	6348.53
658.492	6387.44
658.684	6233.85
658.876	6184.69
659.068	6315.76
659.26	6166.26
659.452	6063.86
659.644	6127.35
659.836	6033.15
660.028	6100.73
660.22	5922.55
660.412	6002.43
660.604	5990.14
660.796	5973.75
660.988	5908.22
661.18	5926.65
661.372	5893.88
661.563	5826.3
661.755	5953.27
661.947	5687.04
662.139	5641.98
662.331	5691.13
662.522	5478.15
662.714	5730.05
662.906	5463.81
663.097	5578.5
663.289	5555.97
663.481	5353.22
663.673	5447.43
663.864	5453.57
664.056	5547.78
664.247	5496.58
664.439	5191.43
664.631	5353.22
664.822	5406.47
665.014	5261.06
665.205	5363.46
665.397	5234.44
665.588	5136.13
665.78	5138.18
665.971	5209.86
666.163	5256.97
666.354	5220.1
666.546	5220.1
666.737	5197.57
666.929	5216.01
667.12	5029.64
667.311	5041.93
667.503	4968.2
667.694	4974.35
667.885	4945.67
668.077	5005.06
668.268	4787.98
668.459	4962.06
668.651	4925.19
668.842	4871.95
669.033	4818.7
669.224	4681.49
669.416	4732.69
669.607	4634.38
669.798	4593.42
669.989	4833.04
670.18	4740.88
670.371	4749.07
670.563	4599.57
670.754	4704.01
670.945	4769.55
671.136	4581.14
671.327	4507.41
671.518	4699.92
671.709	4564.75
671.9	4560.66
672.091	4507.41
672.282	4415.25
672.473	4435.73
672.664	4351.76
672.855	4544.27
673.046	4386.58
673.237	4427.54
673.428	4493.07
673.619	4411.15
673.809	4474.64
674	4333.33
674.191	4353.81
674.382	4341.52
674.573	4282.13
674.764	4316.95
674.954	4364.05
675.145	4292.37
675.336	4271.89
675.527	4292.37
675.717	4245.27
675.908	4224.79
676.099	4081.43
676.289	4194.07
676.48	4142.87
676.671	4073.24
676.861	4015.9
677.052	4263.7
677.243	4116.25
677.433	4159.25
677.624	4067.1
677.814	4022.04
678.005	4110.1
678.195	4106.01
678.386	3942.17
678.576	4050.71
678.767	4124.44
678.957	4079.38
679.148	3991.32
679.338	3909.4
679.529	3979.03
679.719	3882.78
679.909	3999.51
680.1	3915.55
680.29	3854.11
680.481	3936.03
680.671	3993.37
680.861	4063
681.052	3944.22
681.242	3819.29
681.432	3991.32
681.622	3766.04
681.813	3952.41
682.003	3882.78
682.193	3807
682.383	3845.91
682.573	3819.29
682.764	3798.81
682.954	3778.33
683.144	3895.07
683.334	3776.28
683.524	3864.35
683.714	3804.96
683.904	3755.8
684.094	3809.05
684.284	3774.24
684.474	3739.42
684.664	3657.5
684.854	3673.89
685.044	3819.29
685.234	3741.47
685.424	3669.79
685.614	3682.08
685.804	3819.29
685.994	3661.6
686.184	3766.04
686.374	3620.64
686.564	3436.32
686.753	3624.73
686.943	3514.14
687.133	3567.39
687.323	3579.68
687.513	3516.19
687.702	3442.46
687.892	3454.75
688.082	3546.91
688.272	3571.49
688.461	3391.27
688.651	3489.57
688.841	3526.43
689.03	3391.27
689.22	3331.87
689.41	3395.36
689.599	3223.33
689.789	3344.16
689.979	3274.53
690.168	3266.34
690.358	3229.48
690.547	3215.14
690.737	3342.11
690.926	3290.92
691.116	3227.43
691.305	3309.35
691.495	3237.67
691.684	3188.52
691.874	3192.61
692.063	3106.6
692.252	3196.71
692.442	3290.92
692.631	3069.73
692.82	3118.89
693.01	3118.89
693.199	3063.59
693.388	2979.62
693.578	2985.77
693.767	3063.59
693.956	3129.13
694.146	3008.3
694.335	2965.29
694.524	3051.3
694.713	2953
694.902	3034.92
695.092	2924.33
695.281	2948.9
695.47	2983.72
695.659	2864.94
695.848	2864.94
696.037	2909.99
696.226	2832.17
696.415	2924.33
696.604	2871.08
696.793	2809.64
696.982	2885.42
697.171	2805.55
697.36	2756.4
697.549	2840.36
697.738	2934.57
697.927	2848.55
698.116	2957.1
698.305	2793.26
698.494	2934.57
698.683	2762.54
698.872	2844.46
699.061	2887.47
699.25	2797.35
699.438	2744.11
699.627	2844.46
699.816	2662.19
700.005	2674.48
700.193	2811.69
700.382	2803.5
700.571	2705.2
700.76	2699.05
700.948	2774.83
701.137	2778.92
701.326	2809.64
701.514	2735.92
701.703	2717.48
701.892	2770.73
702.08	2791.21
702.269	2752.3
702.457	2821.93
702.646	2674.48
702.834	2543.41
703.023	2881.32
703.212	2645.8
703.4	2746.16
703.589	2645.8
703.777	2766.64
703.965	2735.92
704.154	2727.72
704.342	2707.24
704.531	2656.04
704.719	2690.86
704.907	2686.76
705.096	2707.24
705.284	2656.04
705.472	2766.64
705.661	2627.37
705.849	2723.63
706.037	2617.13
706.226	2637.61
706.414	2709.29
706.602	2672.43
706.79	2746.16
706.979	2686.76
707.167	2649.9
707.355	2690.86
707.543	2637.61
707.731	2649.9
707.919	2596.65
708.107	2656.04
708.296	2639.66
708.484	2520.88
708.672	2649.9
708.86	2697
709.048	2621.23
709.236	2625.33
709.424	2527.02
709.612	2717.48
709.8	2651.95
709.988	2656.04
710.176	2619.18
710.364	2658.09
710.551	2678.57
710.739	2658.09
710.927	2561.84
711.115	2578.22
711.303	2658.09
711.491	2606.89
711.679	2551.6
711.866	2592.56
712.054	2680.62
712.242	2520.88
712.43	2701.1
712.617	2746.16
712.805	2625.33
712.993	2692.91
713.181	2537.26
713.368	2660.14
713.556	2615.09
713.744	2672.43
713.931	2641.71
714.119	2619.18
714.306	2576.17
714.494	2690.86
714.682	2694.96
714.869	2529.07
715.057	2625.33
715.244	2576.17
715.432	2604.85
715.619	2709.29
715.807	2645.8
715.994	2635.57
716.182	2547.5
716.369	2555.69
716.556	2535.21
716.744	2580.27
716.931	2514.73
717.119	2608.94
717.306	2637.61
717.493	2565.93
717.681	2690.86
717.868	2674.48
718.055	2703.15
718.242	2697
718.43	2662.19
718.617	2565.93
718.804	2553.65
718.991	2641.71
719.179	2670.38
719.366	2584.37
719.553	2631.47
719.74	2598.7
719.927	2590.51
720.114	2629.42
720.301	2631.47
720.488	2615.09
720.676	2606.89
720.863	2441.01
721.05	2594.61
721.237	2498.35
721.424	2719.53
721.611	2666.28
721.798	2654
721.985	2467.63
722.172	2570.03
722.358	2584.37
722.545	2543.41
722.732	2504.5
722.919	2557.74
723.106	2625.33
723.293	2617.13
723.48	2547.5
723.667	2604.85
723.853	2481.97
724.04	2613.04
724.227	2623.28
724.414	2752.3
724.6	2500.4
724.787	2619.18
724.974	2684.72
725.161	2563.89
725.347	2490.16
725.534	2725.68
725.72	2643.76
725.907	2660.14
726.094	2600.75
726.28	2613.04
726.467	2496.3
726.653	2545.45
726.84	2672.43
727.027	2676.52
727.213	2590.51
727.4	2545.45
727.586	2590.51
727.773	2492.21
727.959	2563.89
728.145	2584.37
728.332	2586.41
728.518	2553.65
728.705	2772.78
728.891	2619.18
729.077	2654
729.264	2582.32
729.45	2631.47
729.636	2643.76
729.823	2621.23
730.009	2690.86
730.195	2578.22
730.382	2580.27
730.568	2623.28
730.754	2635.57
730.94	2623.28
731.126	2672.43
731.313	2633.52
731.499	2643.76
731.685	2664.24
731.871	2635.57
732.057	2619.18
732.243	2627.37
732.429	2717.48
732.615	2627.37
732.801	2717.48
732.987	2606.89
733.173	2615.09
733.359	2758.44
733.545	2613.04
733.731	2692.91
733.917	2731.82
734.103	2623.28
734.289	2651.95
734.475	2567.98
734.661	2637.61
734.847	2610.99
735.033	2760.49
735.219	2742.06
735.404	2637.61
735.59	2621.23
735.776	2545.45
735.962	2709.29
736.148	2676.52
736.333	2604.85
736.519	2697
736.705	2735.92
736.89	2672.43
737.076	2690.86
737.262	2582.32
737.447	2492.21
737.633	2617.13
737.819	2506.54
738.004	2481.97
738.19	2582.32
738.375	2512.69
738.561	2572.08
738.747	2600.75
738.932	2682.67
739.118	2543.41
739.303	2594.61
739.489	2545.45
739.674	2506.54
739.859	2639.66
740.045	2574.13
740.23	2514.73
740.416	2520.88
740.601	2451.25
740.786	2580.27
740.972	2510.64
741.157	2387.76
741.342	2479.92
741.528	2500.4
741.713	2510.64
741.898	2520.88
742.084	2516.78
742.269	2535.21
742.454	2459.44
742.639	2412.34
742.824	2551.6
743.01	2438.96
743.195	2352.95
743.38	2496.3
743.565	2469.68
743.75	2402.1
743.935	2414.38
744.12	2467.63
744.305	2375.47
744.49	2395.95
744.675	2299.7
744.86	2336.56
745.045	2344.75
745.23	2318.13
745.415	2309.94
745.6	2199.35
745.785	2412.34
745.97	2295.6
746.155	2271.03
746.34	2305.84
746.525	2285.36
746.71	2246.45
746.895	2228.02
747.079	2139.96
747.264	2146.1
747.449	2350.9
747.634	2248.5
747.819	2225.97
748.003	2178.87
748.188	2311.99
748.373	2135.86
748.557	2047.8
748.742	2010.93
748.927	2058.04
749.111	2117.43
749.296	2060.09
749.481	2109.24
749.665	2080.57
749.85	1996.6
750.034	2086.71
750.219	2043.7
750.404	1978.17
750.588	1992.5
750.773	1916.73
750.957	2010.93
751.141	1908.54
751.326	1994.55
751.51	1941.3
751.695	1845.05
751.879	2023.22
752.064	2021.17
752.248	1969.98
752.432	1976.12
752.617	1767.23
752.801	1863.48
752.985	1992.5
753.17	1943.35
753.354	1828.67
753.538	1763.13
753.722	1845.05
753.907	1765.18
754.091	1775.42
754.275	1759.03
754.459	1670.97
754.643	1711.93
754.828	1673.02
755.012	1589.05
755.196	1726.27
755.38	1695.55
755.564	1630.01
755.748	1556.29
755.932	1660.73
756.116	1591.1
756.3	1648.44
756.484	1578.81
756.668	1597.24
756.852	1496.89
757.036	1603.39
757.22	1574.72
757.404	1597.24
757.588	1568.57
757.772	1531.71
757.956	1552.19
758.14	1552.19
758.323	1513.28
758.507	1482.56
758.691	1482.56
758.875	1498.94
759.059	1505.09
759.242	1568.57
759.426	1425.22
759.61	1435.46
759.794	1400.64
759.977	1509.18
760.161	1423.17
760.345	1382.21
760.528	1380.16
760.712	1396.54
760.895	1365.82
761.079	1392.45
761.263	1345.34
761.446	1251.14
761.63	1242.95
761.813	1351.49
761.997	1384.26
762.18	1351.49
762.364	1304.39
762.547	1210.18
762.731	1328.96
762.914	1285.95
763.098	1333.06
763.281	1257.28
763.464	1193.8
763.648	1269.57
763.831	1201.99
764.015	1232.71
764.198	1339.2
764.381	1312.58
764.564	1310.53
764.748	1181.51
764.931	1267.52
765.114	1244.99
765.297	1273.67
765.481	1156.93
765.664	1093.44
765.847	1185.6
766.03	1193.8
766.213	1122.12
766.397	1150.79
766.58	1111.88
766.763	1175.36
766.946	1054.53
767.129	1158.98
767.312	1259.33
767.495	1077.06
767.678	1115.97
767.861	1126.21
768.044	1146.69
768.227	1072.96
768.41	1050.44
768.593	1126.21
768.776	1091.4
768.959	1062.73
769.142	1077.06
769.324	1089.35
769.507	1152.84
769.69	1091.4
769.873	1134.4
770.056	1122.12
770.239	1083.2
770.421	1146.69
770.604	1003.33
770.787	1027.91
770.97	1081.16
771.152	1130.31
771.335	1042.25
771.518	1003.33
771.7	974.66
771.883	1032.01
772.066	1042.25
772.248	1103.68
772.431	982.85
772.613	982.85
772.796	909.13
772.978	855.88
773.161	1007.43
773.343	929.61
773.526	905.03
773.708	927.56
773.891	982.85
774.073	925.51
774.256	810.82
774.438	835.4
774.621	913.22
774.803	864.07
774.985	896.84
775.168	874.31
775.35	929.61
775.532	933.7
775.715	841.54
775.897	1015.62
776.079	939.85
776.261	888.65
776.444	855.88
776.626	862.02
776.808	769.87
776.99	806.73
777.173	921.42
777.355	745.29
777.537	821.06
777.719	786.25
777.901	769.87
778.083	841.54
778.265	677.71
778.447	823.11
778.629	757.58
778.811	696.14
778.993	755.53
779.175	792.39
779.357	722.76
779.539	786.25
779.721	726.86
779.903	689.99
780.085	722.76
780.267	667.47
780.449	728.91
780.631	667.47
780.812	714.57
780.994	675.66
781.176	755.53
781.358	681.8
781.54	665.42
781.721	679.75
781.903	655.18
782.085	622.41
782.267	661.32
782.448	612.17
782.63	694.09
782.812	636.75
782.993	601.93
783.175	657.23
783.357	546.64
783.538	667.47
783.72	595.79
783.901	544.59
784.083	493.39
784.264	632.65
784.446	563.02
784.627	581.45
784.809	575.31
784.99	503.63
785.172	563.02
785.353	587.6
785.535	587.6
785.716	548.68
785.897	575.31
786.079	530.25
786.26	571.21
786.441	528.21
786.623	501.58
786.804	532.3
786.985	538.45
787.167	499.53
787.348	560.97
787.529	454.48
787.71	505.68
787.891	548.68
788.073	571.21
788.254	450.38
788.435	534.35
788.616	534.35
788.797	356.18
788.978	427.85
789.159	425.81
789.34	393.04
789.522	399.18
789.703	423.76
789.884	411.47
790.065	429.9
790.246	409.42
790.427	493.39
790.607	477.01
790.788	452.43
790.969	468.81
791.15	411.47
791.331	376.66
791.512	393.04
791.693	470.86
791.874	393.04
792.054	487.25
792.235	466.77
792.416	417.61
792.597	302.93
792.778	419.66
792.958	345.94
793.139	386.9
793.32	374.61
793.5	368.46
793.681	356.18
793.862	309.07
794.042	409.42
794.223	421.71
794.404	315.22
794.584	292.69
794.765	364.37
794.945	311.12
795.126	364.37
795.306	382.8
795.487	329.55
795.667	341.84
795.848	380.75
796.028	325.46
796.209	372.56
796.389	403.28
796.57	300.88
796.75	354.13
796.93	370.51
797.111	325.46
797.291	333.65
797.471	294.74
797.652	288.59
797.832	290.64
798.012	278.35
798.192	331.6
798.373	249.68
798.553	350.03
798.733	216.91
798.913	239.44
799.093	315.22
799.274	321.36
799.454	329.55
799.634	274.26
799.814	288.59
799.994	309.07
800.174	360.27
800.354	288.59
800.534	300.88
800.714	304.98
800.894	307.02
801.074	272.21
801.254	290.64
801.434	264.02
801.614	294.74
801.794	233.3
801.974	606.03
802.154	206.67
802.334	214.87
802.514	298.83
802.693	251.73
802.873	278.35
803.053	257.87
803.233	335.7
803.413	243.54
803.592	300.88
803.772	212.82
803.952	253.78
804.131	196.43
804.311	298.83
804.491	208.72
804.67	167.76
804.85	210.77
805.03	284.5
805.209	296.78
805.389	257.87
805.568	184.15
805.748	300.88
805.928	247.63
806.107	186.19
806.287	249.68
806.466	257.87
806.646	204.63
806.825	214.87
807.004	186.19
807.184	268.11
807.363	296.78
807.543	210.77
807.722	221.01
807.901	178
808.081	223.06
808.26	194.39
808.439	233.3
808.619	270.16
808.798	200.53
808.977	229.2
809.156	272.21
809.336	167.76
809.515	124.76
809.694	223.06
809.873	202.58
810.052	153.43
810.231	182.1
810.411	163.67
810.59	212.82
810.769	108.37
810.948	173.91
811.127	192.34
811.306	173.91
811.485	184.15
811.664	194.39
811.843	266.07
812.022	132.95
812.201	155.47
812.38	171.86
812.559	223.06
812.737	157.52
812.916	120.66
813.095	175.95
813.274	202.58
813.453	147.28
813.632	196.43
813.811	192.34
813.989	79.7
814.168	151.38
814.347	196.43
814.526	128.85
814.704	165.71
814.883	190.29
815.062	163.67
815.24	139.09
815.419	114.52
815.598	18.26
815.776	130.9
815.955	178
816.133	75.6
816.312	135
816.49	130.9
816.669	171.86
816.847	85.84
817.026	112.47
817.204	225.11
817.383	157.52
817.561	48.98
817.74	169.81
817.918	145.24
818.097	104.28
818.275	79.7
818.453	161.62
818.632	214.87
818.81	116.56
818.988	120.66
819.167	161.62
819.345	216.91
819.523	108.37
819.701	153.43
819.879	182.1
820.058	89.94
820.236	104.28
820.414	167.76
820.592	85.84
820.77	85.84
820.948	149.33
821.127	67.41
821.305	77.65
821.483	65.36
821.661	157.52
821.839	48.98
822.017	110.42
822.195	126.8
822.373	108.37
822.551	126.8
822.729	173.91
822.907	94.04
823.085	139.09
823.262	81.75
823.44	159.57
823.618	98.13
823.796	114.52
823.974	147.28
824.152	73.56
824.329	178
824.507	122.71
824.685	157.52
824.863	81.75
825.04	139.09
825.218	114.52
825.396	75.6
825.574	98.13
825.751	173.91
825.929	96.08
826.107	89.94
826.284	106.32
826.462	130.9
826.639	79.7
826.817	75.6
826.994	137.04
827.172	114.52
827.349	206.67
827.527	108.37
827.704	98.13
827.882	81.75
828.059	94.04
828.237	89.94
828.414	100.18
828.591	122.71
828.769	87.89
828.946	143.19
829.124	100.18
829.301	108.37
829.478	83.8
829.655	26.45
829.833	104.28
830.01	67.41
830.187	143.19
830.364	120.66
830.542	38.74
830.719	122.71
830.896	75.6
831.073	110.42
831.25	159.57
831.427	53.08
831.604	120.66
831.782	34.64
831.959	69.46
832.136	73.56
832.313	137.04
832.49	73.56
832.667	34.64
832.844	16.21
833.021	157.52
833.198	106.32
833.374	112.47
833.551	26.45
833.728	81.75
833.905	-2.22
834.082	65.36
834.259	75.6
834.436	77.65
834.612	32.6
834.789	100.18
834.966	89.94
835.143	67.41
835.319	1.88
835.496	141.14
835.673	51.03
835.85	102.23
836.026	44.88
836.203	34.64
836.38	57.17
836.556	79.7
836.733	51.03
836.909	77.65
837.086	-8.36
837.262	147.28
837.439	67.41
837.616	61.27
837.792	61.27
837.968	16.21
838.145	32.6
838.321	-26.79
838.498	65.36
838.674	114.52
838.851	22.36
839.027	48.98
839.203	10.07
839.38	65.36
839.556	73.56
839.732	116.56
839.909	91.99
840.085	100.18
840.261	16.21
840.437	3.93
840.614	96.08
840.79	77.65
840.966	38.74
841.142	73.56
841.318	-10.41
841.494	69.46
841.671	108.37
841.847	24.4
842.023	-2.22
842.199	18.26
842.375	42.84
842.551	22.36
842.727	-88.23
842.903	55.12
843.079	34.64
843.255	44.88
843.431	143.19
843.607	-43.18
843.783	-65.71
843.959	112.47
844.134	46.93
844.31	73.56
844.486	28.5
844.662	79.7
844.838	36.69
845.013	53.08
845.189	87.89
845.365	-0.17
845.541	8.02
845.716	61.27
845.892	59.22
846.068	106.32
846.244	22.36
846.419	18.26
846.595	44.88
846.77	87.89
846.946	69.46
847.122	10.07
847.297	61.27
847.473	77.65
847.648	-18.6
847.824	26.45
847.999	26.45
848.175	71.51
848.35	28.5
848.526	51.03
848.701	22.36
848.876	14.17
849.052	34.64
849.227	42.84
849.403	-12.46
849.578	63.32
849.753	3.93
849.929	36.69
850.104	-51.37
850.279	10.07
850.454	61.27
850.63	69.46
850.805	14.17
850.98	44.88
851.155	46.93
851.33	-26.79
851.505	-37.03
851.681	79.7
851.856	81.75
852.031	-2.22
852.206	-45.23
852.381	67.41
852.556	-32.94
852.731	-32.94
852.906	71.51
853.081	3.93
853.256	91.99
853.431	30.55
853.606	40.79
853.781	16.21
853.956	-75.95
854.131	20.31
854.305	34.64
854.48	10.07
854.655	24.4
854.83	14.17
855.005	46.93
855.18	34.64
855.354	-6.31
855.529	46.93
855.704	26.45
855.879	38.74
856.053	-77.99
856.228	-30.89
856.403	5.97
856.577	69.46
856.752	-43.18
856.926	53.08
857.101	-0.17
857.276	20.31
857.45	44.88
857.625	14.17
857.799	-14.51
857.974	73.56
858.148	-43.18
858.323	-28.84
858.497	3.93
858.672	-75.95
858.846	-10.41
859.02	3.93
859.195	5.97
859.369	-32.94
859.543	34.64
859.718	18.26
859.892	-61.61
860.066	98.13
860.241	-100.52
860.415	-6.31
860.589	36.69
860.763	26.45
860.938	-16.55
861.112	-14.51
861.286	10.07
861.46	18.26
861.634	34.64
861.808	-59.56
861.982	-4.27
862.157	-6.31
862.331	-22.7
862.505	-30.89
862.679	-47.27
862.853	16.21
863.027	-61.61
863.201	32.6
863.375	24.4
863.549	110.42
863.722	34.64
863.896	96.08
864.07	-12.46
864.244	-24.75
864.418	-41.13
864.592	32.6
864.766	-0.17
864.939	-0.17
865.113	3.93
865.287	48.98
865.461	-12.46
865.634	30.55
865.808	-51.37
865.982	-28.84
866.156	48.98
866.329	5.97
866.503	-59.56
866.676	-22.7
866.85	116.56
867.024	-14.51
867.197	30.55
867.371	38.74
867.544	-12.46
867.718	28.5
867.891	89.94
868.065	-67.75
868.238	36.69
868.412	-22.7
868.585	-4.27
868.759	34.64
868.932	-53.42
869.105	5.97
869.279	16.21
869.452	-12.46
869.625	-22.7
869.799	14.17
869.972	-63.66
870.145	20.31
870.319	51.03
870.492	3.93
870.665	8.02
870.838	14.17
871.011	-26.79
871.185	91.99
871.358	30.55
871.531	51.03
871.704	-47.27
871.877	36.69
872.05	-6.31
872.223	1.88
872.396	14.17
872.569	-2.22
872.742	8.02
872.915	-6.31
873.088	14.17
873.261	-16.55
873.434	24.4
873.607	28.5
873.78	-4.27
873.953	55.12
874.126	28.5
874.299	8.02
874.471	-32.94
874.644	-0.17
874.817	-4.27
874.99	28.5
875.163	-39.08
875.335	-28.84
875.508	38.74
875.681	61.27
875.853	55.12
876.026	3.93
876.199	-18.6
876.371	26.45
876.544	34.64
876.717	-2.22
876.889	-39.08
877.062	-24.75
877.234	34.64
877.407	16.21
877.579	5.97
877.752	30.55
877.924	14.17
878.097	61.27
878.269	34.64
878.442	1.88
878.614	16.21
878.786	24.4
878.959	20.31
879.131	44.88
879.303	-80.04
879.476	32.6
879.648	42.84
879.82	-12.46
879.993	24.4
880.165	-0.17
880.337	28.5
880.509	-59.56
880.681	-14.51
880.854	12.12
881.026	-51.37
881.198	40.79
881.37	-39.08
881.542	-12.46
881.714	-22.7
881.886	12.12
882.058	36.69
882.23	-18.6
882.402	-45.23
882.574	-30.89
882.746	46.93
882.918	8.02
883.09	-55.47
883.262	-10.41
883.434	14.17
883.606	26.45
883.778	3.93
883.95	34.64
884.122	44.88
884.293	8.02
884.465	-16.55
884.637	-24.75
884.809	-26.79
884.98	20.31
885.152	-34.99
885.324	-63.66
885.496	40.79
885.667	-8.36
885.839	1.88
886.011	-24.75
886.182	5.97
886.354	-63.66
886.525	-57.51
886.697	77.65
886.869	10.07
887.04	53.08
887.212	48.98
887.383	-28.84
887.555	-57.51
887.726	-43.18
887.897	53.08
888.069	32.6
888.24	-30.89
888.412	-20.65
888.583	34.64
888.754	16.21
888.926	26.45
889.097	30.55
889.268	-4.27
889.44	24.4
889.611	42.84
889.782	-88.23
889.953	-43.18
890.125	30.55
890.296	3.93
890.467	-26.79
890.638	-43.18
890.809	14.17
890.98	-57.51
891.151	-28.84
891.323	87.89
891.494	-0.17
891.665	-47.27
891.836	-22.7
892.007	-16.55
892.178	-43.18
892.349	48.98
892.52	-22.7
892.691	-8.36
892.862	10.07
893.032	3.93
893.203	-2.22
893.374	46.93
893.545	75.6
893.716	1.88
893.887	-10.41
894.057	-30.89
894.228	46.93
894.399	-51.37
894.57	-6.31
894.74	-24.75
894.911	8.02
895.082	8.02
895.253	-20.65
895.423	-69.8
895.594	22.36
895.764	-4.27
895.935	-4.27
896.106	-14.51
896.276	-47.27
896.447	24.4
896.617	-51.37
896.788	-102.57
896.958	3.93
897.129	16.21
897.299	-10.41
897.47	-14.51
897.64	36.69
897.81	12.12
897.981	-51.37
898.151	-30.89
898.322	59.22
898.492	16.21
898.662	10.07
898.832	-20.65
899.003	-45.23
899.173	-45.23
899.343	-18.6
899.513	-77.99
