Data from USB4F104151__10__11-44-28-815.txt Node

Date: Fri Mar 14 11:44:28 EDT 2025
User: louis
Spectrometer: USB4F10415
Trigger mode: 4
Integration Time (sec): 2.000000E-2
Scans to average: 1
Electric dark correction enabled: true
Nonlinearity correction enabled: false
Boxcar width: 0
XAxis mode: Wavelengths
Number of Pixels in Spectrum: 3648
>>>>>Begin Spectral Data<<<<<
178.204	-30.72
178.424	-30.72
178.644	-30.72
178.864	-110.59
179.084	-83.97
179.304	28.67
179.524	-51.2
179.744	92.16
179.964	30.72
180.184	18.43
180.404	2.05
180.624	-67.58
180.844	-8.19
181.064	-73.73
181.283	-2.05
181.503	-12.29
181.723	43.01
181.943	-26.62
182.163	53.25
182.383	-6.14
182.602	12.29
182.822	2.05
183.042	10.24
183.262	20.48
183.482	67.58
183.701	-4.1
183.921	36.86
184.141	102.4
184.361	18.43
184.58	30.72
184.8	12.29
185.02	120.83
185.239	34.82
185.459	51.2
185.679	55.3
185.898	32.77
186.118	110.59
186.338	40.96
186.557	-10.24
186.777	-12.29
186.997	-14.34
187.216	2.05
187.436	30.72
187.655	53.25
187.875	24.58
188.095	30.72
188.314	67.58
188.534	96.25
188.753	-26.62
188.973	2.05
189.192	20.48
189.412	49.15
189.631	20.48
189.851	51.2
190.07	-22.53
190.29	30.72
190.509	10.24
190.729	24.58
190.948	73.73
191.168	104.45
191.387	22.53
191.607	-79.87
191.826	53.25
192.045	14.34
192.265	71.68
192.484	18.43
192.704	10.24
192.923	96.25
193.142	106.49
193.362	57.34
193.581	28.67
193.8	36.86
194.02	14.34
194.239	6.14
194.458	75.77
194.678	49.15
194.897	77.82
195.116	55.3
195.335	28.67
195.555	83.97
195.774	8.19
195.993	53.25
196.212	67.58
196.432	10.24
196.651	18.43
196.87	22.53
197.089	83.97
197.308	47.1
197.528	53.25
197.747	53.25
197.966	61.44
198.185	36.86
198.404	36.86
198.623	-26.62
198.842	20.48
199.062	67.58
199.281	65.53
199.5	51.2
199.719	6.14
199.938	47.1
200.157	108.54
200.376	22.53
200.595	88.06
200.814	26.62
201.033	83.97
201.252	26.62
201.471	-18.43
201.69	32.77
201.909	65.53
202.128	6.14
202.347	63.49
202.566	-16.38
202.785	38.91
203.004	57.34
203.223	18.43
203.442	133.12
203.661	10.24
203.879	-22.53
204.098	-8.19
204.317	28.67
204.536	45.06
204.755	8.19
204.974	96.25
205.193	-12.29
205.411	36.86
205.63	-18.43
205.849	4.1
206.068	22.53
206.287	69.63
206.505	6.14
206.724	28.67
206.943	47.1
207.162	53.25
207.381	10.24
207.599	6.14
207.818	53.25
208.037	57.34
208.255	73.73
208.474	28.67
208.693	8.19
208.911	57.34
209.13	59.39
209.349	45.06
209.567	40.96
209.786	83.97
210.005	-6.14
210.223	-24.58
210.442	10.24
210.661	122.88
210.879	-30.72
211.098	45.06
211.316	67.58
211.535	90.11
211.753	-16.38
211.972	2.05
212.191	-6.14
212.409	22.53
212.628	28.67
212.846	65.53
213.065	28.67
213.283	73.73
213.502	30.72
213.72	6.14
213.938	51.2
214.157	53.25
214.375	38.91
214.594	12.29
214.812	8.19
215.031	43.01
215.249	12.29
215.467	-0
215.686	24.58
215.904	90.11
216.122	67.58
216.341	20.48
216.559	67.58
216.778	106.49
216.996	34.82
217.214	-34.82
217.432	32.77
217.651	-2.05
217.869	63.49
218.087	-16.38
218.306	-18.43
218.524	67.58
218.742	12.29
218.96	79.87
219.179	8.19
219.397	53.25
219.615	65.53
219.833	77.82
220.051	51.2
220.27	32.77
220.488	61.44
220.706	75.77
220.924	30.72
221.142	86.01
221.36	24.58
221.578	-22.53
221.796	45.06
222.015	12.29
222.233	14.34
222.451	28.67
222.669	51.2
222.887	75.77
223.105	-2.05
223.323	120.83
223.541	-28.67
223.759	63.49
223.977	-51.2
224.195	69.63
224.413	34.82
224.631	88.06
224.849	34.82
225.067	36.86
225.285	51.2
225.503	32.77
225.721	-40.96
225.939	92.16
226.157	75.77
226.375	24.58
226.592	6.14
226.81	59.39
227.028	98.3
227.246	135.17
227.464	20.48
227.682	63.49
227.9	20.48
228.117	26.62
228.335	20.48
228.553	43.01
228.771	-67.58
228.989	38.91
229.206	6.14
229.424	8.19
229.642	-10.24
229.86	-0
230.077	49.15
230.295	-2.05
230.513	24.58
230.731	-51.2
230.948	38.91
231.166	57.34
231.384	67.58
231.601	36.86
231.819	118.78
232.037	43.01
232.254	57.34
232.472	71.68
232.689	51.2
232.907	16.38
233.125	57.34
233.342	-12.29
233.56	61.44
233.777	43.01
233.995	38.91
234.213	81.92
234.43	-14.34
234.648	57.34
234.865	81.92
235.083	75.77
235.3	55.3
235.518	45.06
235.735	36.86
235.953	59.39
236.17	49.15
236.388	36.86
236.605	30.72
236.822	47.1
237.04	55.3
237.257	83.97
237.475	28.67
237.692	45.06
237.909	59.39
238.127	45.06
238.344	55.3
238.562	16.38
238.779	34.82
238.996	28.67
239.214	90.11
239.431	22.53
239.648	-34.82
239.865	30.72
240.083	36.86
240.3	38.91
240.517	-36.86
240.735	77.82
240.952	18.43
241.169	20.48
241.386	36.86
241.603	24.58
241.821	47.1
242.038	43.01
242.255	-10.24
242.472	79.87
242.689	38.91
242.907	30.72
243.124	53.25
243.341	55.3
243.558	34.82
243.775	10.24
243.992	100.35
244.209	-12.29
244.426	104.45
244.643	43.01
244.86	26.62
245.078	73.73
245.295	28.67
245.512	59.39
245.729	26.62
245.946	-4.1
246.163	71.68
246.38	-16.38
246.597	22.53
246.814	10.24
247.031	129.02
247.248	18.43
247.464	10.24
247.681	104.45
247.898	55.3
248.115	108.54
248.332	-67.58
248.549	73.73
248.766	71.68
248.983	47.1
249.2	61.44
249.417	14.34
249.633	-6.14
249.85	69.63
250.067	63.49
250.284	18.43
250.501	71.68
250.717	47.1
250.934	43.01
251.151	14.34
251.368	43.01
251.585	75.77
251.801	43.01
252.018	-8.19
252.235	96.25
252.451	26.62
252.668	38.91
252.885	69.63
253.102	10.24
253.318	102.4
253.535	47.1
253.752	116.73
253.968	8.19
254.185	49.15
254.401	90.11
254.618	12.29
254.835	-22.53
255.051	141.31
255.268	69.63
255.484	40.96
255.701	67.58
255.917	88.06
256.134	45.06
256.351	4.1
256.567	14.34
256.784	34.82
257	22.53
257.217	104.45
257.433	61.44
257.65	65.53
257.866	28.67
258.082	-8.19
258.299	32.77
258.515	32.77
258.732	32.77
258.948	43.01
259.165	38.91
259.381	16.38
259.597	49.15
259.814	-4.1
260.03	30.72
260.246	28.67
260.463	75.77
260.679	112.64
260.895	75.77
261.112	32.77
261.328	30.72
261.544	30.72
261.761	137.21
261.977	36.86
262.193	53.25
262.409	79.87
262.626	55.3
262.842	34.82
263.058	10.24
263.274	116.73
263.49	69.63
263.707	26.62
263.923	118.78
264.139	51.2
264.355	61.44
264.571	73.73
264.787	45.06
265.004	73.73
265.22	30.72
265.436	18.43
265.652	-6.14
265.868	83.97
266.084	51.2
266.3	79.87
266.516	79.87
266.732	53.25
266.948	92.16
267.164	71.68
267.38	45.06
267.596	47.1
267.812	51.2
268.028	57.34
268.244	90.11
268.46	49.15
268.676	98.3
268.892	88.06
269.108	14.34
269.324	-30.72
269.54	8.19
269.756	59.39
269.972	129.02
270.188	100.35
270.403	83.97
270.619	88.06
270.835	55.3
271.051	69.63
271.267	51.2
271.483	88.06
271.698	34.82
271.914	20.48
272.13	67.58
272.346	-4.1
272.562	-69.63
272.777	28.67
272.993	90.11
273.209	4.1
273.425	92.16
273.64	20.48
273.856	71.68
274.072	43.01
274.287	32.77
274.503	22.53
274.719	96.25
274.934	63.49
275.15	34.82
275.366	124.93
275.581	59.39
275.797	47.1
276.012	49.15
276.228	-49.15
276.444	47.1
276.659	57.34
276.875	100.35
277.09	92.16
277.306	81.92
277.521	61.44
277.737	-16.38
277.952	40.96
278.168	47.1
278.383	28.67
278.599	83.97
278.814	77.82
279.03	-47.1
279.245	36.86
279.461	20.48
279.676	63.49
279.892	14.34
280.107	38.91
280.322	-4.1
280.538	28.67
280.753	12.29
280.969	57.34
281.184	-14.34
281.399	147.45
281.615	98.3
281.83	88.06
282.045	-28.67
282.26	14.34
282.476	16.38
282.691	6.14
282.906	120.83
283.122	67.58
283.337	14.34
283.552	106.49
283.767	61.44
283.983	106.49
284.198	73.73
284.413	43.01
284.628	-34.82
284.843	24.58
285.058	75.77
285.274	-24.58
285.489	30.72
285.704	32.77
285.919	51.2
286.134	59.39
286.349	24.58
286.564	88.06
286.779	65.53
286.995	36.86
287.21	43.01
287.425	26.62
287.64	-8.19
287.855	73.73
288.07	73.73
288.285	96.25
288.5	135.17
288.715	65.53
288.93	47.1
289.145	77.82
289.36	108.54
289.575	16.38
289.79	98.3
290.004	51.2
290.219	57.34
290.434	81.92
290.649	4.1
290.864	63.49
291.079	26.62
291.294	38.91
291.509	-40.96
291.724	6.14
291.938	47.1
292.153	71.68
292.368	59.39
292.583	-8.19
292.798	47.1
293.012	67.58
293.227	75.77
293.442	36.86
293.657	26.62
293.871	126.97
294.086	90.11
294.301	75.77
294.516	32.77
294.73	47.1
294.945	12.29
295.16	114.69
295.374	45.06
295.589	100.35
295.804	51.2
296.018	18.43
296.233	65.53
296.447	53.25
296.662	36.86
296.877	118.78
297.091	108.54
297.306	51.2
297.52	4.1
297.735	40.96
297.949	120.83
298.164	53.25
298.378	-14.34
298.593	-28.67
298.807	36.86
299.022	38.91
299.236	79.87
299.451	77.82
299.665	96.25
299.88	96.25
300.094	-40.96
300.309	49.15
300.523	6.14
300.737	57.34
300.952	34.82
301.166	83.97
301.381	16.38
301.595	73.73
301.809	75.77
302.024	8.19
302.238	83.97
302.452	122.88
302.667	24.58
302.881	83.97
303.095	77.82
303.309	36.86
303.524	47.1
303.738	4.1
303.952	2.05
304.166	77.82
304.381	36.86
304.595	120.83
304.809	88.06
305.023	18.43
305.237	38.91
305.452	51.2
305.666	71.68
305.88	114.69
306.094	61.44
306.308	126.97
306.522	96.25
306.736	73.73
306.95	65.53
307.164	59.39
307.379	159.74
307.593	61.44
307.807	98.3
308.021	61.44
308.235	129.02
308.449	75.77
308.663	92.16
308.877	110.59
309.091	-16.38
309.305	43.01
309.519	67.58
309.733	53.25
309.947	16.38
310.161	110.59
310.374	100.35
310.588	114.69
310.802	-20.48
311.016	86.01
311.23	32.77
311.444	90.11
311.658	49.15
311.872	81.92
312.085	-6.14
312.299	108.54
312.513	110.59
312.727	81.92
312.941	20.48
313.154	116.73
313.368	86.01
313.582	-30.72
313.796	14.34
314.009	108.54
314.223	73.73
314.437	65.53
314.651	14.34
314.864	59.39
315.078	10.24
315.292	51.2
315.505	34.82
315.719	83.97
315.933	61.44
316.146	53.25
316.36	20.48
316.573	129.02
316.787	112.64
317.001	83.97
317.214	69.63
317.428	86.01
317.641	75.77
317.855	24.58
318.068	151.55
318.282	73.73
318.495	43.01
318.709	40.96
318.922	-10.24
319.136	94.21
319.349	124.93
319.563	79.87
319.776	83.97
319.99	71.68
320.203	98.3
320.417	59.39
320.63	65.53
320.843	139.26
321.057	102.4
321.27	47.1
321.483	75.77
321.697	112.64
321.91	61.44
322.124	100.35
322.337	86.01
322.55	63.49
322.763	12.29
322.977	83.97
323.19	-2.05
323.403	90.11
323.617	69.63
323.83	120.83
324.043	96.25
324.256	73.73
324.469	59.39
324.683	24.58
324.896	65.53
325.109	55.3
325.322	10.24
325.535	110.59
325.748	77.82
325.962	61.44
326.175	90.11
326.388	124.93
326.601	102.4
326.814	43.01
327.027	59.39
327.24	96.25
327.453	55.3
327.666	129.02
327.879	47.1
328.092	96.25
328.305	90.11
328.518	22.53
328.731	81.92
328.944	45.06
329.157	83.97
329.37	14.34
329.583	71.68
329.796	51.2
330.009	53.25
330.222	96.25
330.435	77.82
330.648	45.06
330.861	30.72
331.073	104.45
331.286	133.12
331.499	120.83
331.712	55.3
331.925	10.24
332.138	90.11
332.35	49.15
332.563	75.77
332.776	135.17
332.989	-36.86
333.202	43.01
333.414	169.98
333.627	55.3
333.84	153.6
334.053	61.44
334.265	47.1
334.478	18.43
334.691	71.68
334.903	83.97
335.116	61.44
335.329	81.92
335.541	124.93
335.754	104.45
335.966	86.01
336.179	32.77
336.392	75.77
336.604	57.34
336.817	10.24
337.029	49.15
337.242	137.21
337.454	112.64
337.667	67.58
337.88	77.82
338.092	88.06
338.305	61.44
338.517	38.91
338.729	79.87
338.942	53.25
339.154	20.48
339.367	28.67
339.579	112.64
339.792	47.1
340.004	83.97
340.217	86.01
340.429	120.83
340.641	-108.54
340.854	94.21
341.066	57.34
341.278	22.53
341.491	98.3
341.703	90.11
341.915	92.16
342.128	18.43
342.34	81.92
342.552	92.16
342.764	63.49
342.977	98.3
343.189	73.73
343.401	73.73
343.613	22.53
343.826	79.87
344.038	18.43
344.25	69.63
344.462	45.06
344.674	120.83
344.886	73.73
345.099	126.97
345.311	69.63
345.523	129.02
345.735	53.25
345.947	40.96
346.159	40.96
346.371	63.49
346.583	59.39
346.795	145.41
347.007	10.24
347.219	73.73
347.431	81.92
347.643	75.77
347.855	-0
348.067	135.17
348.279	32.77
348.491	61.44
348.703	36.86
348.915	79.87
349.127	34.82
349.339	124.93
349.551	120.83
349.763	96.25
349.975	65.53
350.187	102.4
350.399	53.25
350.61	96.25
350.822	108.54
351.034	116.73
351.246	57.34
351.458	75.77
351.669	47.1
351.881	73.73
352.093	88.06
352.305	124.93
352.517	38.91
352.728	133.12
352.94	45.06
353.152	67.58
353.363	83.97
353.575	102.4
353.787	88.06
353.999	94.21
354.21	34.82
354.422	77.82
354.633	79.87
354.845	32.77
355.057	79.87
355.268	12.29
355.48	151.55
355.692	90.11
355.903	32.77
356.115	88.06
356.326	96.25
356.538	86.01
356.749	47.1
356.961	108.54
357.172	86.01
357.384	114.69
357.595	86.01
357.807	126.97
358.018	28.67
358.23	210.94
358.441	126.97
358.653	59.39
358.864	90.11
359.075	126.97
359.287	55.3
359.498	174.08
359.709	38.91
359.921	106.49
360.132	20.48
360.344	69.63
360.555	77.82
360.766	30.72
360.977	151.55
361.189	86.01
361.4	104.45
361.611	94.21
361.823	102.4
362.034	81.92
362.245	77.82
362.456	-12.29
362.667	67.58
362.879	6.14
363.09	92.16
363.301	167.93
363.512	75.77
363.723	110.59
363.935	104.45
364.146	40.96
364.357	118.78
364.568	100.35
364.779	53.25
364.99	73.73
365.201	51.2
365.412	92.16
365.623	81.92
365.834	100.35
366.045	114.69
366.256	129.02
366.467	143.36
366.678	139.26
366.889	63.49
367.1	104.45
367.311	137.21
367.522	139.26
367.733	-14.34
367.944	94.21
368.155	57.34
368.366	51.2
368.577	53.25
368.788	81.92
368.999	71.68
369.209	63.49
369.42	135.17
369.631	81.92
369.842	63.49
370.053	67.58
370.264	129.02
370.474	110.59
370.685	14.34
370.896	59.39
371.107	86.01
371.317	124.93
371.528	92.16
371.739	77.82
371.95	30.72
372.16	126.97
372.371	-2.05
372.582	88.06
372.792	61.44
373.003	83.97
373.214	100.35
373.424	88.06
373.635	129.02
373.846	83.97
374.056	69.63
374.267	94.21
374.477	61.44
374.688	55.3
374.898	131.07
375.109	77.82
375.319	96.25
375.53	114.69
375.74	98.3
375.951	112.64
376.161	112.64
376.372	137.21
376.582	94.21
376.793	59.39
377.003	110.59
377.214	118.78
377.424	122.88
377.635	61.44
377.845	43.01
378.055	96.25
378.266	108.54
378.476	120.83
378.686	96.25
378.897	59.39
379.107	116.73
379.317	6.14
379.528	71.68
379.738	147.45
379.948	55.3
380.158	57.34
380.369	126.97
380.579	75.77
380.789	81.92
380.999	174.08
381.21	137.21
381.42	124.93
381.63	116.73
381.84	143.36
382.05	120.83
382.261	149.5
382.471	192.51
382.681	120.83
382.891	90.11
383.101	112.64
383.311	149.5
383.521	133.12
383.731	79.87
383.941	108.54
384.151	73.73
384.361	163.84
384.571	118.78
384.781	124.93
384.991	96.25
385.201	73.73
385.411	135.17
385.621	77.82
385.831	174.08
386.041	71.68
386.251	69.63
386.461	86.01
386.671	96.25
386.881	83.97
387.091	71.68
387.301	167.93
387.511	104.45
387.72	67.58
387.93	139.26
388.14	53.25
388.35	129.02
388.56	96.25
388.769	118.78
388.979	106.49
389.189	71.68
389.399	118.78
389.609	75.77
389.818	108.54
390.028	69.63
390.238	71.68
390.447	120.83
390.657	186.37
390.867	159.74
391.076	135.17
391.286	110.59
391.496	120.83
391.705	161.79
391.915	151.55
392.125	135.17
392.334	174.08
392.544	219.13
392.753	126.97
392.963	157.69
393.172	153.6
393.382	149.5
393.591	186.37
393.801	172.03
394.01	106.49
394.22	217.08
394.429	243.71
394.639	153.6
394.848	215.04
395.058	212.99
395.267	90.11
395.477	235.52
395.686	223.23
395.895	147.45
396.105	221.18
396.314	167.93
396.524	241.66
396.733	176.13
396.942	194.56
397.152	174.08
397.361	174.08
397.57	210.94
397.78	202.75
397.989	104.45
398.198	202.75
398.407	264.19
398.617	237.56
398.826	231.42
399.035	249.85
399.244	200.7
399.453	256
399.663	198.65
399.872	231.42
400.081	221.18
400.29	296.96
400.499	186.37
400.708	149.5
400.917	198.65
401.127	208.89
401.336	233.47
401.545	315.39
401.754	233.47
401.963	258.04
402.172	141.31
402.381	212.99
402.59	243.71
402.799	251.9
403.008	178.17
403.217	260.09
403.426	231.42
403.635	331.77
403.844	313.34
404.053	294.91
404.262	233.47
404.471	294.91
404.68	202.75
404.888	288.76
405.097	282.62
405.306	380.92
405.515	342.01
405.724	321.53
405.933	366.59
406.142	294.91
406.35	405.5
406.559	438.27
406.768	378.87
406.977	434.17
407.185	438.27
407.394	503.8
407.603	372.73
407.812	540.66
408.02	440.31
408.229	532.47
408.438	524.28
408.646	565.24
408.855	557.05
409.064	530.42
409.272	520.18
409.481	655.35
409.69	612.34
409.898	636.92
410.107	655.35
410.315	710.65
410.524	704.5
410.733	772.08
410.941	784.37
411.15	765.94
411.358	833.52
411.567	817.14
411.775	948.21
411.984	913.39
412.192	923.63
412.401	923.63
412.609	1042.42
412.818	1064.94
413.026	1126.38
413.234	1153.01
413.443	1060.85
413.651	1236.97
413.86	1226.73
414.068	1282.03
414.276	1341.42
414.485	1331.18
414.693	1456.11
414.901	1519.59
415.11	1558.5
415.318	1589.22
415.526	1544.17
415.734	1656.81
415.943	1757.16
416.151	1761.25
416.359	1785.83
416.567	1900.51
416.776	1992.67
416.984	2097.12
417.192	2209.76
417.4	2174.94
417.608	2168.8
417.817	2359.26
418.025	2385.88
418.233	2519
418.441	2660.31
418.649	2734.04
418.857	2711.51
419.065	2787.29
419.273	2867.16
419.481	2893.78
419.689	3049.43
419.897	3301.33
420.105	3284.94
420.313	3332.05
420.521	3536.84
420.729	3641.29
420.937	3796.93
421.145	3934.15
421.353	4087.75
421.561	4198.34
421.769	4409.28
421.977	4542.39
422.185	4507.58
422.393	4777.91
422.601	5074.87
422.809	5097.39
423.017	5124.02
423.224	5410.73
423.432	5468.08
423.64	5531.56
423.848	6057.89
424.056	6043.56
424.263	6293.41
424.471	6346.66
424.679	6387.61
424.887	6854.55
425.094	7012.24
425.302	7063.44
425.51	7305.1
425.718	7614.35
425.925	7751.56
426.133	7980.93
426.341	8353.66
426.548	8847.22
426.756	8867.7
426.964	8902.52
427.171	9568.11
427.379	9531.25
427.586	9813.87
427.794	9840.49
428.001	10571.61
428.209	11001.69
428.417	10925.91
428.624	11837.26
428.832	11681.61
429.039	11698
429.247	11573.07
429.454	12640.06
429.662	13537.07
429.869	12584.77
430.076	13446.96
430.284	12994.36
430.491	13713.2
430.699	14591.78
430.906	14581.54
431.114	14726.94
431.321	15380.25
431.528	15644.43
431.736	16469.76
431.943	17377.01
432.15	17075.96
432.358	16830.21
432.565	17901.29
432.772	18138.86
432.979	18499.3
433.187	19136.22
433.394	19205.85
433.601	20539.08
433.808	20508.36
434.016	20469.45
434.223	21561.01
434.43	22845.09
434.637	22343.34
434.844	23432.86
435.052	24080.02
435.259	23858.84
435.466	24112.78
435.673	23903.89
435.88	25536.12
436.087	26623.59
436.294	26730.09
436.501	26054.26
436.708	26609.26
436.915	27586.14
437.122	29038.15
437.329	28966.47
437.537	29421.12
437.743	30115.38
437.95	30107.19
438.157	31141.41
438.364	32513.55
438.571	32263.7
438.778	32296.47
438.985	35438.05
439.192	33893.88
439.399	35450.34
439.606	34473.46
439.813	36646.35
440.02	38573.49
440.227	37926.33
440.433	37133.77
440.64	39136.68
440.847	38342.07
441.054	39828.9
441.261	42050.94
441.467	41696.64
441.674	42253.69
441.881	44240.22
442.088	44143.97
442.294	43722.08
442.501	44389.72
442.708	45221.2
442.914	47295.79
443.121	49028.37
443.328	47781.16
443.534	51059.96
443.741	49511.69
443.948	48827.67
444.154	52370.66
444.361	51946.73
444.568	52374.75
444.774	52157.67
444.981	53148.88
445.187	54432.96
445.394	56589.47
445.6	55835.82
445.807	60402.79
446.013	58465.41
446.22	58995.84
446.426	61295.7
446.633	61867.09
446.839	63480.89
447.046	61201.5
447.252	64080.94
447.459	64080.94
447.665	64080.94
447.871	64080.94
448.078	64080.94
448.284	64080.94
448.491	64080.94
448.697	64080.94
448.903	64080.94
449.11	64080.94
449.316	64080.94
449.522	64080.94
449.728	64080.94
449.935	64080.94
450.141	64080.94
450.347	64080.94
450.553	64080.94
450.76	64080.94
450.966	64080.94
451.172	64080.94
451.378	64080.94
451.584	64080.94
451.791	64080.94
451.997	64080.94
452.203	64080.94
452.409	64080.94
452.615	64080.94
452.821	64080.94
453.027	64080.94
453.233	64080.94
453.44	64080.94
453.646	64080.94
453.852	64080.94
454.058	64080.94
454.264	64080.94
454.47	64080.94
454.676	64080.94
454.882	64080.94
455.088	64080.94
455.294	64080.94
455.5	64080.94
455.705	64080.94
455.911	64080.94
456.117	64080.94
456.323	64080.94
456.529	64080.94
456.735	64080.94
456.941	64080.94
457.147	64080.94
457.352	64080.94
457.558	64080.94
457.764	64080.94
457.97	62495.81
458.176	61240.41
458.381	61127.77
458.587	58483.84
458.793	58485.89
458.999	55788.72
459.204	58899.58
459.41	57877.64
459.616	54574.27
459.821	54330.56
460.027	54107.33
460.233	53089.49
460.438	50480.38
460.644	51223.79
460.85	48483.61
461.055	48143.65
461.261	48006.44
461.466	44735.83
461.672	43031.92
461.878	46314.81
462.083	43224.43
462.289	42485.11
462.494	41885.06
462.7	39949.73
462.905	39085.48
463.111	40469.91
463.316	40506.77
463.522	39701.92
463.727	39687.59
463.932	39919.01
464.138	39230.89
464.343	39796.13
464.549	38157.75
464.754	39458.21
464.959	39357.86
465.165	38854.06
465.37	37133.77
465.575	36386.26
465.781	37596.61
465.986	37772.74
466.191	36660.69
466.397	35892.7
466.602	34373.11
466.807	35644.9
467.012	35585.5
467.218	35282.41
467.423	34977.26
467.628	35218.92
467.833	36736.46
468.038	35040.75
468.244	34297.33
468.449	35669.47
468.654	34414.07
468.859	34332.15
469.064	34018.81
469.269	32802.32
469.474	32931.34
469.679	33474.05
469.885	32677.39
470.09	33402.37
470.295	33029.64
470.5	31858.2
470.705	32435.73
470.91	31438.37
471.115	31227.43
471.32	31714.84
471.525	31374.88
471.73	30588.46
471.935	30744.11
472.139	29802.04
472.344	29914.68
472.549	29376.06
472.754	29511.23
472.959	28722.76
473.164	28051.03
473.369	27702.87
473.574	29027.91
473.778	28534.35
473.983	28270.16
474.188	28059.22
474.393	27055.72
474.598	26990.18
474.802	26869.35
475.007	26293.87
475.212	26515.05
475.417	25583.23
475.621	25550.46
475.826	25560.7
476.031	24979.07
476.235	24684.17
476.44	25245.31
476.645	24565.39
476.849	24796.81
477.054	24215.18
477.259	23996.05
477.463	23821.97
477.668	23275.16
477.872	23352.99
478.077	23314.08
478.282	22632.1
478.486	22795.94
478.691	22423.21
478.895	22089.39
479.1	22134.45
479.304	22306.48
479.509	21485.24
479.713	21757.62
479.918	21386.94
480.122	21176
480.326	21862.07
480.531	21550.78
480.735	21126.85
480.94	20965.06
481.144	21477.05
481.348	20709.06
481.553	20889.28
481.757	20268.75
481.961	20717.25
482.166	20948.67
482.37	20811.46
482.574	20346.57
482.778	20475.59
482.983	20897.47
483.187	20477.64
483.391	20539.08
483.595	20506.31
483.8	20291.27
484.004	20635.33
484.208	20653.76
484.412	20649.67
484.616	20520.65
484.821	20362.95
485.025	19859.15
485.229	20756.16
485.433	20475.59
485.637	20479.69
485.841	20268.75
486.045	20293.32
486.249	20334.28
486.453	20299.47
486.657	20346.57
486.861	20610.76
487.065	19896.02
487.269	20289.23
487.473	19900.11
487.677	20432.58
487.881	20754.12
488.085	20496.07
488.289	20563.65
488.493	20590.28
488.697	20477.64
488.901	20809.41
489.105	20358.86
489.309	20639.43
489.512	20606.66
489.716	20608.71
489.92	20496.07
490.124	20614.85
490.328	20987.58
490.531	20633.29
490.735	21065.41
490.939	20975.3
491.143	20731.59
491.346	21016.26
491.55	21186.24
491.754	21225.15
491.958	21358.27
492.161	21302.97
492.365	21448.38
492.569	21622.45
492.772	21690.04
492.976	21577.4
493.18	21692.08
493.383	21991.09
493.587	22185.65
493.79	21941.94
493.994	22171.31
494.197	22154.93
494.401	22445.74
494.605	22394.54
494.808	22754.98
495.012	23043.74
495.215	23154.33
495.419	23160.48
495.622	23250.59
495.825	23275.16
496.029	23535.26
496.232	23914.13
496.436	23856.79
496.639	24528.52
496.843	24630.92
497.046	24694.41
497.249	25243.26
497.453	25151.1
497.656	25167.49
497.859	25511.55
498.063	25661.05
498.266	26236.53
498.469	25964.15
498.673	26594.92
498.876	26975.84
499.079	26826.34
499.282	27164.26
499.485	27643.48
499.689	27809.37
499.892	28358.22
500.095	28380.75
500.298	28853.83
500.501	28563.02
500.705	29333.06
500.908	29933.11
501.111	29957.69
501.314	30248.5
501.517	30561.84
501.72	30979.62
501.923	30797.35
502.126	31950.36
502.329	32034.33
502.532	32179.73
502.735	32278.04
502.938	32953.87
503.141	32919.05
503.344	33715.71
503.547	33381.89
503.75	34260.47
503.953	34403.83
504.156	34727.41
504.359	35020.27
504.562	35290.6
504.765	35933.66
504.968	36425.17
505.17	36568.53
505.373	36662.74
505.576	37572.03
505.779	37897.66
505.982	37473.73
506.185	38604.21
506.387	39056.81
506.59	39116.2
506.793	39968.16
506.996	39630.24
507.198	40945.04
507.401	40431
507.604	40885.65
507.807	41747.84
508.009	41848.19
508.212	41936.26
508.415	43007.34
508.617	43224.43
508.82	43076.97
509.022	42837.36
509.225	44336.48
509.428	44459.35
509.63	44924.24
509.833	44770.64
510.035	46040.39
510.238	45823.3
510.44	46464.31
510.643	46640.44
510.845	47328.56
511.048	46859.57
511.25	47744.3
511.453	47824.17
511.655	49331.47
511.858	48784.66
512.06	49556.75
512.262	49980.68
512.465	49446.16
512.667	50554.11
512.87	51506.41
513.072	50906.36
513.274	51905.77
513.477	52708.57
513.679	52778.2
513.881	53406.93
514.084	53771.47
514.286	53769.42
514.488	54248.64
514.69	55499.95
514.893	55508.14
515.095	55364.79
515.297	56286.37
515.499	56272.04
515.701	56593.57
515.904	56921.24
516.106	57826.45
516.308	57975.95
516.51	58639.49
516.712	58043.53
516.914	59307.13
517.116	60447.85
517.318	60089.45
517.52	60302.44
517.722	60331.11
517.925	61006.94
518.127	61447.25
518.329	62026.83
518.531	61852.75
518.733	63069.25
518.935	62749.76
519.136	63052.86
519.338	63642.68
519.54	63943.73
519.742	64080.94
519.944	64080.94
520.146	64080.94
520.348	64080.94
520.55	64080.94
520.752	64080.94
520.954	64080.94
521.155	64080.94
521.357	64080.94
521.559	64080.94
521.761	64080.94
521.963	64080.94
522.164	64080.94
522.366	64080.94
522.568	64080.94
522.77	64080.94
522.971	64080.94
523.173	64080.94
523.375	64080.94
523.576	64080.94
523.778	64080.94
523.98	64080.94
524.181	64080.94
524.383	64080.94
524.584	64080.94
524.786	64080.94
524.988	64080.94
525.189	64080.94
525.391	64080.94
525.592	64080.94
525.794	64080.94
525.995	64080.94
526.197	64080.94
526.398	64080.94
526.6	64080.94
526.801	64080.94
527.003	64080.94
527.204	64080.94
527.406	64080.94
527.607	64080.94
527.808	64080.94
528.01	64080.94
528.211	64080.94
528.412	64080.94
528.614	64080.94
528.815	64080.94
529.016	64080.94
529.218	64080.94
529.419	64080.94
529.62	64080.94
529.822	64080.94
530.023	64080.94
530.224	64080.94
530.425	64080.94
530.626	64080.94
530.828	64080.94
531.029	64080.94
531.23	64080.94
531.431	64080.94
531.632	64080.94
531.833	64080.94
532.035	64080.94
532.236	64080.94
532.437	64080.94
532.638	64080.94
532.839	64080.94
533.04	64080.94
533.241	64080.94
533.442	64080.94
533.643	64080.94
533.844	64080.94
534.045	64080.94
534.246	64080.94
534.447	64080.94
534.648	64080.94
534.849	64080.94
535.05	64080.94
535.251	64080.94
535.451	64080.94
535.652	64080.94
535.853	64080.94
536.054	64080.94
536.255	64080.94
536.456	64080.94
536.657	64080.94
536.857	64080.94
537.058	64080.94
537.259	64080.94
537.46	64080.94
537.66	64080.94
537.861	64080.94
538.062	64080.94
538.263	64080.94
538.463	64080.94
538.664	64080.94
538.865	64080.94
539.065	64080.94
539.266	64080.94
539.466	64080.94
539.667	64080.94
539.868	64080.94
540.068	64080.94
540.269	64080.94
540.469	64080.94
540.67	64080.94
540.87	64080.94
541.071	64080.94
541.271	64080.94
541.472	64080.94
541.672	64080.94
541.873	64080.94
542.073	64080.94
542.274	64080.94
542.474	64080.94
542.675	64080.94
542.875	64080.94
543.075	64080.94
543.276	64080.94
543.476	64080.94
543.676	64080.94
543.877	64080.94
544.077	64080.94
544.277	64080.94
544.478	64080.94
544.678	64080.94
544.878	64080.94
545.078	64080.94
545.279	64080.94
545.479	64080.94
545.679	64080.94
545.879	64080.94
546.079	64080.94
546.28	64080.94
546.48	64080.94
546.68	64080.94
546.88	64080.94
547.08	64080.94
547.28	64080.94
547.48	64080.94
547.68	64080.94
547.88	64080.94
548.081	64080.94
548.281	64080.94
548.481	64080.94
548.681	64080.94
548.881	64080.94
549.081	64080.94
549.28	64080.94
549.48	64080.94
549.68	64080.94
549.88	64080.94
550.08	64080.94
550.28	64080.94
550.48	64080.94
550.68	64080.94
550.88	64080.94
551.08	64080.94
551.279	64080.94
551.479	64080.94
551.679	64080.94
551.879	64080.94
552.079	64080.94
552.278	64080.94
552.478	64080.94
552.678	64080.94
552.878	64080.94
553.077	64080.94
553.277	64080.94
553.477	64080.94
553.676	64080.94
553.876	64080.94
554.076	64080.94
554.275	64080.94
554.475	64080.94
554.674	64080.94
554.874	64080.94
555.074	64080.94
555.273	64080.94
555.473	64080.94
555.672	64080.94
555.872	64080.94
556.071	64080.94
556.271	64080.94
556.47	64080.94
556.67	64080.94
556.869	64080.94
557.068	64080.94
557.268	64080.94
557.467	64080.94
557.667	64080.94
557.866	64080.94
558.065	64080.94
558.265	64080.94
558.464	64080.94
558.663	64080.94
558.863	64080.94
559.062	64080.94
559.261	64080.94
559.461	64080.94
559.66	64080.94
559.859	64080.94
560.058	64080.94
560.258	64080.94
560.457	64080.94
560.656	64080.94
560.855	64080.94
561.054	64080.94
561.253	64080.94
561.453	64080.94
561.652	64080.94
561.851	64080.94
562.05	64080.94
562.249	64080.94
562.448	64080.94
562.647	64080.94
562.846	64080.94
563.045	64080.94
563.244	64080.94
563.443	64080.94
563.642	64080.94
563.841	64080.94
564.04	64080.94
564.239	64080.94
564.438	64080.94
564.637	64080.94
564.836	64080.94
565.035	64080.94
565.234	64080.94
565.432	64080.94
565.631	64080.94
565.83	64080.94
566.029	64080.94
566.228	64080.94
566.427	64080.94
566.625	64080.94
566.824	64080.94
567.023	64080.94
567.222	64080.94
567.42	64080.94
567.619	64080.94
567.818	64080.94
568.016	64080.94
568.215	64080.94
568.414	64080.94
568.612	64080.94
568.811	64080.94
569.01	64080.94
569.208	64080.94
569.407	64080.94
569.605	64080.94
569.804	64080.94
570.002	64080.94
570.201	64080.94
570.4	64080.94
570.598	64080.94
570.797	64080.94
570.995	64080.94
571.193	64080.94
571.392	64080.94
571.59	64080.94
571.789	64080.94
571.987	64080.94
572.186	64080.94
572.384	64080.94
572.582	64080.94
572.781	64080.94
572.979	64080.94
573.177	64080.94
573.376	64080.94
573.574	64080.94
573.772	64080.94
573.971	64080.94
574.169	64080.94
574.367	64080.94
574.565	64080.94
574.763	64080.94
574.962	64080.94
575.16	64080.94
575.358	64080.94
575.556	64080.94
575.754	64080.94
575.952	64080.94
576.151	64080.94
576.349	64080.94
576.547	64080.94
576.745	64080.94
576.943	64080.94
577.141	64080.94
577.339	64080.94
577.537	64080.94
577.735	64080.94
577.933	64080.94
578.131	64080.94
578.329	64080.94
578.527	64080.94
578.725	64080.94
578.923	64080.94
579.121	64080.94
579.319	64080.94
579.516	64080.94
579.714	63847.47
579.912	63917.1
580.11	63702.07
580.308	63675.44
580.506	63405.11
580.704	62972.99
580.901	63102.01
581.099	63351.87
581.297	62774.34
581.495	62604.36
581.692	62827.59
581.89	62487.62
582.088	62944.32
582.285	62686.28
582.483	62442.57
582.681	62168.14
582.878	62219.34
583.076	61656.15
583.274	62258.25
583.471	61559.89
583.669	61852.75
583.866	61144.15
584.064	61555.8
584.262	60752.99
584.459	61426.77
584.657	60912.73
584.854	60982.37
585.052	59759.73
585.249	60914.78
585.447	60714.08
585.644	60073.07
585.841	59937.9
586.039	60623.97
586.236	59571.31
586.434	59888.75
586.631	59583.6
586.828	59243.64
587.026	59462.77
587.223	59157.63
587.42	58823.81
587.618	58975.36
587.815	58500.23
588.012	58565.76
588.21	58387.59
588.407	58817.66
588.604	57910.41
588.801	57801.87
588.999	58350.73
589.196	57859.21
589.393	58002.57
589.59	57654.42
589.787	57101.46
589.984	57183.38
590.182	56820.89
590.379	56908.96
590.576	56911
590.773	56425.63
590.97	56507.55
591.167	56636.58
591.364	56065.19
591.561	56095.91
591.758	55497.91
591.955	55807.15
592.152	56204.45
592.349	55530.67
592.546	55706.8
592.743	55577.78
592.94	54631.61
593.137	55221.43
593.334	54963.39
593.531	54209.73
593.727	55092.41
593.924	54301.89
594.121	53877.96
594.318	54279.36
594.515	53513.42
594.712	54379.71
594.908	53624.01
595.105	54156.49
595.302	53411.02
595.499	53576.91
595.696	53161.17
595.892	52901.08
596.089	53150.93
596.286	53009.62
596.482	52698.33
596.679	52937.94
596.876	52686.04
597.072	52243.68
597.269	52075.75
597.466	51700.97
597.662	51750.12
597.859	51461.36
598.055	51803.37
598.252	51234.03
598.448	51492.08
598.645	51004.66
598.841	50699.51
599.038	50924.79
599.234	50760.95
599.431	50414.85
599.627	50533.63
599.824	50642.17
600.02	50253.06
600.217	50052.36
600.413	49757.45
600.609	49741.06
600.806	49345.81
601.002	49753.35
601.198	49466.64
601.395	48866.58
601.591	48835.86
601.787	49204.5
601.984	48549.15
602.18	49407.25
602.376	48442.65
602.572	48366.88
602.769	48309.53
602.965	47748.39
603.161	48082.21
603.357	47514.92
603.553	47744.3
603.75	48155.94
603.946	47269.17
604.142	47244.59
604.338	47004.98
604.534	47312.17
604.73	46718.26
604.926	46390.59
605.122	46587.19
605.318	46402.88
605.514	45712.71
605.71	46116.16
605.906	46204.22
606.102	46103.87
606.298	46085.44
606.494	45712.71
606.69	45518.15
606.886	45786.44
607.082	45102.42
607.278	45929.8
607.474	44997.97
607.67	45555.02
607.866	44725.59
608.062	45538.63
608.257	45053.26
608.453	45217.1
608.649	45260.11
608.845	44809.56
609.041	44762.45
609.236	44692.82
609.432	44447.07
609.628	44514.65
609.824	44856.66
610.019	44377.43
610.215	43840.87
610.411	44238.17
610.606	43922.79
610.802	44277.08
610.998	43928.93
611.193	43885.92
611.389	43597.16
611.584	43566.44
611.78	43461.99
611.976	43515.24
612.171	43017.58
612.367	43345.26
612.562	43162.99
612.758	42878.32
612.953	43050.35
613.149	43400.55
613.344	42804.59
613.539	43203.95
613.735	43206
613.93	43158.89
614.126	42972.53
614.321	43175.28
614.517	42360.19
614.712	42550.65
614.907	42153.34
615.103	42767.73
615.298	42470.78
615.493	42964.34
615.688	41696.64
615.884	42808.69
616.079	41942.4
616.274	42145.15
616.47	41719.17
616.665	42034.56
616.86	41719.17
617.055	41536.9
617.25	41328.01
617.445	42102.14
617.641	41104.78
617.836	41721.22
618.031	41155.98
618.226	41495.94
618.421	40854.93
618.616	41155.98
618.811	40328.6
619.006	40832.4
619.201	39933.34
619.396	40545.69
619.591	39421.35
619.786	40490.39
619.981	39732.64
620.176	40248.73
620.371	39085.48
620.566	39294.38
620.761	39679.39
620.956	39632.29
621.151	38745.52
621.346	39466.41
621.541	38319.54
621.735	38567.35
621.93	37797.31
622.125	38454.71
622.32	37780.93
622.515	37815.74
622.709	37733.82
622.904	37594.56
623.099	37348.81
623.294	37242.31
623.488	36552.15
623.683	36732.37
623.878	35689.95
624.072	35866.08
624.267	36163.03
624.462	36298.2
624.656	35579.36
624.851	35513.83
625.046	35384.8
625.24	35393
625.435	34782.7
625.629	34874.86
625.824	34350.58
626.018	34375.16
626.213	33971.71
626.407	34117.11
626.602	33457.67
626.796	33777.15
626.991	33684.99
627.185	33443.33
627.38	32845.32
627.574	33179.14
627.768	32603.66
627.963	32716.3
628.157	32140.82
628.352	32169.49
628.546	31880.73
628.74	31976.98
628.935	31714.84
629.129	31815.19
629.323	31172.13
629.517	31362.59
629.712	31354.4
629.906	30998.06
630.1	30557.74
630.294	30348.85
630.489	30334.51
630.683	30760.49
630.877	30029.37
631.071	29898.3
631.265	29759.03
631.459	29613.63
631.653	29402.69
631.848	29519.42
632.042	29230.66
632.236	29150.79
632.43	28724.81
632.624	29140.55
632.818	28597.84
633.012	28065.36
633.206	28096.08
633.4	28503.63
633.594	28155.47
633.788	28065.36
633.982	27919.96
634.176	27848.28
634.369	27248.22
634.563	27561.56
634.757	27143.78
634.951	27006.56
635.145	26914.41
635.339	27235.94
635.533	26648.17
635.726	26625.64
635.92	26594.92
636.114	26386.03
636.308	26007.16
636.501	26232.43
636.695	25869.94
636.889	25738.87
637.083	25579.13
637.276	25446.01
637.47	25368.19
637.664	25388.67
637.857	25214.59
638.051	24979.07
638.244	24874.63
638.438	24657.54
638.632	24436.36
638.825	24647.3
639.019	24262.29
639.212	24243.85
639.406	24133.26
639.599	23877.27
639.793	24080.02
639.986	23402.14
640.18	23744.15
640.373	23688.85
640.567	23084.7
640.76	23273.12
640.954	23199.39
641.147	22810.28
641.34	22683.3
641.534	22822.56
641.727	22953.63
641.92	22699.69
642.114	22214.32
642.307	22427.31
642.5	22488.74
642.694	22030
642.887	21935.79
643.08	22177.45
643.273	21745.33
643.467	21702.32
643.66	21081.79
643.853	21569.21
644.046	21229.24
644.239	21245.63
644.432	20967.1
644.626	20958.91
644.819	21006.02
645.012	20987.58
645.205	20707.01
645.398	20610.76
645.591	20287.18
645.784	20350.67
645.977	20010.7
646.17	20293.32
646.363	20330.19
646.556	19896.02
646.749	20033.23
646.942	19857.1
647.135	19615.44
647.328	19592.92
647.521	19467.99
647.714	19117.79
647.907	19265.24
648.099	19226.33
648.292	19173.08
648.485	18867.94
648.678	18837.22
648.871	18654.95
649.064	18761.44
649.256	18618.08
649.449	18581.22
649.642	18466.53
649.835	18161.39
650.027	18312.94
650.22	17948.4
650.413	17868.53
650.605	17807.09
650.798	17678.07
650.991	17622.77
651.183	17743.6
651.376	17477.37
651.568	17743.6
651.761	17348.34
651.954	17194.75
652.146	17049.34
652.339	17157.88
652.531	16873.21
652.724	16748.29
652.916	16566.02
653.109	16805.63
653.301	16850.69
653.494	16457.48
653.686	16269.06
653.879	16334.6
654.071	16269.06
654.263	16152.33
654.456	16170.76
654.648	16215.82
654.84	15578.9
655.033	16002.83
655.225	16187.15
655.417	15509.27
655.61	15566.61
655.802	15597.33
655.994	15486.74
656.186	15484.69
656.379	15335.19
656.571	15290.13
656.763	15118.11
656.955	15060.76
657.148	15089.43
657.34	15103.77
657.532	14602.02
657.724	14665.5
657.916	14556.96
658.108	14532.39
658.3	14386.98
658.492	14526.24
658.684	14376.74
658.876	14225.19
659.068	14020.39
659.26	14208.81
659.452	13920.04
659.644	14141.22
659.836	13852.46
660.028	13813.55
660.22	13733.68
660.412	13580.08
660.604	13547.31
660.796	13475.63
660.988	13444.91
661.18	13498.16
661.372	13287.22
661.563	13217.59
661.755	13111.1
661.947	12959.55
662.139	12861.24
662.331	12791.61
662.522	12816.19
662.714	12795.71
662.906	12730.17
663.097	12666.69
663.289	12408.64
663.481	12597.06
663.673	12427.07
663.864	12341.06
664.056	12314.44
664.247	12447.55
664.439	11935.56
664.631	12107.59
664.822	12064.58
665.014	12095.3
665.205	11886.41
665.397	11855.69
665.588	11976.52
665.78	11726.67
665.971	11743.05
666.163	11554.64
666.354	11609.93
666.546	11482.96
666.737	11392.85
666.929	11446.1
667.12	11487.06
667.311	11274.07
667.503	11130.71
667.694	11368.27
667.885	11099.99
668.077	10878.81
668.268	11024.22
668.459	10997.59
668.651	11001.69
668.842	11034.46
669.033	10757.98
669.224	10809.18
669.416	10772.32
669.607	10671.97
669.798	10565.47
669.989	10639.2
670.18	10606.43
670.371	10514.27
670.563	10362.72
670.754	10305.38
670.945	10194.79
671.136	10235.75
671.327	10250.08
671.518	10067.81
671.709	9973.61
671.9	10119.01
672.091	9936.74
672.282	9910.12
672.473	9928.55
672.664	9895.78
672.855	9711.47
673.046	9738.09
673.237	9500.53
673.428	9533.29
673.619	9566.06
673.809	9582.45
674	9447.28
674.191	9406.32
674.382	9160.56
674.573	9287.54
674.764	9371.51
674.954	9461.62
675.145	9230.2
675.336	9183.09
675.527	9168.76
675.717	9205.62
675.908	9056.12
676.099	9025.4
676.289	8957.82
676.48	9113.46
676.671	8894.33
676.861	8908.66
677.052	8677.24
677.243	8646.52
677.433	8753.02
677.624	8783.74
677.814	8583.04
678.005	8636.28
678.195	8789.88
678.386	8546.17
678.576	8404.86
678.767	8652.67
678.957	8226.69
679.148	8583.04
679.338	8286.08
679.529	8238.98
679.719	8259.46
679.909	8218.5
680.1	8120.2
680.29	8169.35
680.481	8058.76
680.671	8058.76
680.861	8046.47
681.052	7989.13
681.242	8038.28
681.432	8030.09
681.622	7905.16
681.813	7694.22
682.003	7774.09
682.193	7845.77
682.383	8032.13
682.573	7493.52
682.764	7735.18
682.954	7788.43
683.144	7559.05
683.334	7772.04
683.524	7417.74
683.714	7659.4
683.904	7483.28
684.094	7442.32
684.284	7362.45
684.474	7415.69
684.664	7198.61
684.854	7311.25
685.044	7225.23
685.234	7262.1
685.424	7221.14
685.614	7155.6
685.804	7116.69
685.994	7200.66
686.184	7147.41
686.374	7104.4
686.564	7092.12
686.753	7061.4
686.943	6840.22
687.133	6959
687.323	6952.85
687.513	6899.61
687.702	6846.36
687.892	6676.38
688.082	6619.03
688.272	6645.66
688.461	6641.56
688.651	6772.63
688.841	6756.25
689.03	6539.16
689.22	6391.71
689.41	6621.08
689.599	6582.17
689.789	6461.34
689.979	6322.08
690.168	6221.73
690.358	6180.77
690.547	6295.46
690.737	6467.49
690.926	6119.33
691.116	6121.38
691.305	6307.74
691.495	6068.13
691.684	5963.68
691.874	6049.7
692.063	6264.74
692.252	6055.84
692.442	6086.56
692.631	5812.14
692.82	5892.01
693.01	5865.38
693.199	5834.66
693.388	5699.5
693.578	5707.69
693.767	5771.18
693.956	5701.54
694.146	5615.53
694.335	5554.09
694.524	5511.08
694.713	5709.74
694.902	5513.13
695.092	5550
695.281	5429.17
695.47	5486.51
695.659	5437.36
695.848	5322.67
696.037	5427.12
696.226	5402.54
696.415	5351.34
696.604	5302.19
696.793	5164.98
696.982	5308.33
697.171	5119.92
697.36	5193.65
697.549	5197.74
697.738	5058.48
697.927	5132.21
698.116	5156.79
698.305	5128.11
698.494	5072.82
698.683	5058.48
698.872	5005.24
699.061	5148.59
699.25	4792.25
699.438	4814.77
699.627	4882.36
699.816	5070.77
700.005	4831.16
700.193	4908.98
700.382	4947.89
700.571	4804.53
700.76	4759.48
700.948	4857.78
701.137	4732.86
701.326	4726.71
701.514	4693.94
701.703	4681.66
701.892	4716.47
702.08	4528.06
702.269	4624.31
702.457	4603.83
702.646	4544.44
702.834	4532.15
703.023	4573.11
703.212	4589.5
703.4	4358.08
703.589	4501.44
703.777	4566.97
703.965	4419.52
704.154	4437.95
704.342	4319.17
704.531	4554.68
704.719	4511.68
704.907	4429.76
705.096	4247.49
705.284	4437.95
705.472	4263.87
705.661	4405.18
705.849	4294.59
706.037	4392.89
706.226	4196.29
706.414	4227.01
706.602	4290.49
706.79	4175.81
706.979	4276.16
707.167	4192.19
707.355	4319.17
707.543	4151.23
707.731	4153.28
707.919	4079.55
708.107	4026.31
708.296	4198.34
708.484	3999.68
708.672	4278.21
708.86	4061.12
709.048	4190.14
709.236	4175.81
709.424	4175.81
709.612	4114.37
709.8	4089.79
709.988	3999.68
710.176	4061.12
710.364	3891.14
710.551	3911.62
710.739	3909.57
710.927	3893.19
711.115	3928
711.303	3899.33
711.491	4018.11
711.679	3846.09
711.866	3971.01
712.054	3823.56
712.242	3876.8
712.43	3872.71
712.617	3827.65
712.805	3764.17
712.993	3831.75
713.181	3807.17
713.368	3874.76
713.556	3745.73
713.744	3672.01
713.931	3717.06
714.119	3680.2
714.306	3571.66
714.494	3815.37
714.682	3846.09
714.869	3809.22
715.057	3846.09
715.244	3577.8
715.432	3680.2
715.619	3618.76
715.807	3659.72
715.994	3661.77
716.182	3626.95
716.369	3561.42
716.556	3676.1
716.744	3467.21
716.931	3569.61
717.119	3551.18
717.306	3639.24
717.493	3446.73
717.681	3534.79
717.868	3606.47
718.055	3557.32
718.242	3463.12
718.43	3510.22
718.617	3471.31
718.804	3637.19
718.991	3495.88
719.179	3536.84
719.366	3407.82
719.553	3356.62
719.74	3330
719.927	3428.3
720.114	3456.97
720.301	3424.2
720.488	3442.64
720.676	3459.02
720.863	3424.2
721.05	3516.36
721.237	3491.79
721.424	3350.48
721.611	3286.99
721.798	3321.81
721.985	3317.71
722.172	3293.13
722.358	3250.13
722.545	3282.89
722.732	3368.91
722.919	3424.2
723.106	3311.57
723.293	3418.06
723.48	3426.25
723.667	3330
723.853	3342.28
724.04	3213.26
724.227	3219.41
724.414	3241.93
724.6	3350.48
724.787	3313.61
724.974	3243.98
725.161	3289.04
725.347	3231.69
725.534	3354.57
725.72	3192.78
725.907	3237.84
726.094	3278.8
726.28	3205.07
726.467	3297.23
726.653	3313.61
726.84	3213.26
727.027	3278.8
727.213	3215.31
727.4	3336.14
727.586	3250.13
727.773	3217.36
727.959	3135.44
728.145	3264.46
728.332	3168.21
728.518	3157.97
728.705	3065.81
728.891	3039.19
729.077	3252.17
729.264	3211.21
729.45	3172.3
729.636	3112.91
729.823	3078.1
730.009	3233.74
730.195	3192.78
730.382	3028.95
730.568	3233.74
730.754	3164.11
730.94	3133.39
731.126	3139.54
731.313	3168.21
731.499	3207.12
731.685	3131.34
731.871	3200.98
732.057	3080.14
732.243	3192.78
732.429	3096.53
732.615	3055.57
732.801	3149.78
732.987	2910.16
733.173	3059.67
733.359	3067.86
733.545	3006.42
733.731	3129.3
733.917	3067.86
734.103	3071.95
734.289	3151.82
734.475	3020.75
734.661	3182.54
734.847	3143.63
735.033	3049.43
735.219	3030.99
735.404	3104.72
735.59	2996.18
735.776	2998.23
735.962	3074
736.148	3067.86
736.333	3074
736.519	2895.83
736.705	3035.09
736.89	3024.85
737.076	3094.48
737.262	3090.38
737.447	2973.65
737.633	2990.03
737.819	2977.75
738.004	2949.07
738.19	2885.59
738.375	2914.26
738.561	3059.67
738.747	2887.64
738.932	2844.63
739.118	2906.07
739.303	2920.4
739.489	3090.38
739.674	2918.36
739.859	2998.23
740.045	2899.92
740.23	2748.37
740.416	2832.34
740.601	2883.54
740.786	2834.39
740.972	2824.15
741.157	2918.36
741.342	2746.33
741.528	2881.49
741.713	2748.37
741.898	2801.62
742.084	2783.19
742.269	2787.29
742.454	2787.29
742.639	2793.43
742.824	2887.64
743.01	2727.89
743.195	2756.57
743.38	2711.51
743.565	2686.93
743.75	2793.43
743.935	2695.13
744.12	2693.08
744.305	2662.36
744.49	2629.59
744.675	2705.37
744.86	2564.06
745.045	2506.71
745.23	2641.88
745.415	2510.81
745.6	2656.22
745.785	2537.43
745.97	2572.25
746.155	2615.26
746.34	2613.21
746.525	2523.1
746.71	2566.1
746.895	2615.26
747.079	2533.34
747.264	2430.94
747.449	2406.36
747.634	2506.71
747.819	2340.83
748.003	2439.13
748.188	2406.36
748.373	2359.26
748.557	2389.98
748.742	2326.49
748.927	2396.12
749.111	2408.41
749.296	2338.78
749.481	2424.79
749.665	2375.64
749.85	2314.2
750.034	2215.9
750.219	2193.37
750.404	2287.58
750.588	2234.33
750.773	2176.99
750.957	2260.96
751.141	2172.89
751.326	2166.75
751.51	2238.43
751.695	2217.95
751.879	2191.33
752.064	2105.31
752.248	2152.42
752.432	2090.98
752.617	2072.54
752.801	2082.78
752.985	2107.36
753.17	2017.25
753.354	2082.78
753.538	2097.12
753.722	2064.35
753.907	2004.96
754.091	1972.19
754.275	2019.3
754.459	1884.13
754.643	1927.14
754.828	1949.67
755.012	1890.28
755.196	1990.63
755.38	1859.56
755.564	1810.4
755.748	1923.04
755.932	1816.55
756.116	1861.6
756.3	1900.51
756.484	1812.45
756.668	1822.69
756.852	1699.81
757.036	1834.98
757.22	1751.01
757.404	1798.12
757.588	1658.85
757.772	1675.24
757.956	1765.35
758.14	1810.4
758.323	1697.77
758.507	1775.59
758.691	1697.77
758.875	1634.28
759.059	1814.5
759.242	1783.78
759.426	1626.09
759.61	1640.42
759.794	1581.03
759.977	1718.25
760.161	1601.51
760.345	1619.94
760.528	1591.27
760.712	1607.66
760.895	1511.4
761.079	1554.41
761.263	1548.26
761.446	1556.46
761.63	1552.36
761.813	1560.55
761.997	1552.36
762.18	1624.04
762.364	1523.69
762.547	1540.07
762.731	1417.19
762.914	1570.79
763.098	1427.43
763.281	1587.18
763.464	1470.44
763.648	1458.15
763.831	1460.2
764.015	1460.2
764.198	1460.2
764.381	1480.68
764.564	1398.76
764.748	1439.72
764.931	1472.49
765.114	1458.15
765.297	1427.43
765.481	1464.3
765.664	1380.33
765.847	1396.71
766.03	1341.42
766.213	1421.29
766.397	1445.87
766.58	1417.19
766.763	1396.71
766.946	1279.98
767.129	1443.82
767.312	1372.14
767.495	1372.14
767.678	1228.78
767.861	1359.85
768.044	1355.76
768.227	1333.23
768.41	1294.32
768.593	1306.6
768.776	1357.8
768.959	1298.41
769.142	1320.94
769.324	1271.79
769.507	1241.07
769.69	1261.55
769.873	1148.91
770.056	1368.04
770.239	1241.07
770.421	1269.74
770.604	1320.94
770.787	1198.06
770.97	1224.69
771.152	1292.27
771.335	1183.73
771.518	1259.5
771.7	1290.22
771.883	1165.29
772.066	1208.3
772.248	1161.2
772.431	1185.77
772.613	1249.26
772.796	1198.06
772.978	1150.96
773.161	1202.16
773.343	1239.02
773.526	1159.15
773.708	1189.87
773.891	1161.2
774.073	1083.38
774.256	1122.29
774.438	1148.91
774.621	1148.91
774.803	1044.46
774.985	995.31
775.168	1101.81
775.35	1021.94
775.532	1030.13
775.715	1095.66
775.897	985.07
776.079	1011.7
776.261	1062.9
776.444	1026.03
776.626	989.17
776.808	944.11
776.99	980.98
777.173	985.07
777.355	978.93
777.537	999.41
777.719	962.55
777.901	942.07
778.083	937.97
778.265	841.72
778.447	1026.03
778.629	911.35
778.811	958.45
778.993	1042.42
779.175	851.95
779.357	909.3
779.539	841.72
779.721	870.39
779.903	829.43
780.085	845.81
780.267	899.06
780.449	870.39
780.631	864.24
780.812	890.87
780.994	815.09
781.176	802.8
781.358	849.91
781.54	811
781.721	882.67
781.903	761.84
782.085	774.13
782.267	808.95
782.448	843.76
782.63	720.88
782.812	739.32
782.993	806.9
783.175	749.56
783.357	780.28
783.538	759.8
783.72	757.75
783.901	698.36
784.083	712.69
784.264	696.31
784.446	657.4
784.627	645.11
784.809	708.6
784.99	675.83
785.172	681.97
785.353	700.41
785.535	577.53
785.716	686.07
785.897	751.6
786.079	686.07
786.26	589.81
786.441	669.69
786.623	620.53
786.804	638.97
786.985	579.58
787.167	624.63
787.348	528.38
787.529	630.77
787.71	600.05
787.891	659.45
788.073	579.58
788.254	583.67
788.435	593.91
788.616	659.45
788.797	559.1
788.978	497.66
789.159	501.75
789.34	532.47
789.522	608.25
789.703	632.82
789.884	501.75
790.065	555
790.246	542.71
790.427	544.76
790.607	544.76
790.788	573.43
790.969	526.33
791.15	511.99
791.331	565.24
791.512	450.55
791.693	567.29
791.874	526.33
792.054	534.52
792.235	600.05
792.416	434.17
792.597	460.79
792.778	561.14
792.958	536.57
793.139	522.23
793.32	497.66
793.5	483.32
793.681	440.31
793.862	473.08
794.042	501.75
794.223	395.26
794.404	419.83
794.584	511.99
794.765	403.45
794.945	428.03
795.126	479.22
795.306	419.83
795.487	387.07
795.667	448.51
795.848	487.42
796.028	464.89
796.209	358.39
796.389	438.27
796.57	505.85
796.75	475.13
796.93	503.8
797.111	450.55
797.291	354.3
797.471	364.54
797.652	454.65
797.832	399.35
798.012	380.92
798.192	378.87
798.373	415.74
798.553	350.2
798.733	399.35
798.913	344.06
799.093	329.72
799.274	393.21
799.454	397.31
799.634	374.78
799.814	460.79
799.994	354.3
800.174	391.16
800.354	411.64
800.534	395.26
800.714	323.58
800.894	399.35
801.074	362.49
801.254	411.64
801.434	405.5
801.614	372.73
801.794	272.38
801.974	710.65
802.154	313.34
802.334	421.88
802.514	262.14
802.693	368.63
802.873	374.78
803.053	358.39
803.233	329.72
803.413	301.05
803.592	296.96
803.772	280.57
803.952	323.58
804.131	315.39
804.311	346.11
804.491	374.78
804.67	290.81
804.85	333.82
805.03	296.96
805.209	366.59
805.389	360.44
805.568	274.43
805.748	251.9
805.928	335.87
806.107	337.91
806.287	317.44
806.466	319.48
806.646	317.44
806.825	235.52
807.004	294.91
807.184	358.39
807.363	362.49
807.543	311.29
807.722	288.76
807.901	274.43
808.081	221.18
808.26	249.85
808.439	196.6
808.619	212.99
808.798	339.96
808.977	235.52
809.156	288.76
809.336	239.61
809.515	286.72
809.694	260.09
809.873	311.29
810.052	301.05
810.231	307.2
810.411	348.15
810.59	276.48
810.769	212.99
810.948	303.1
811.127	186.37
811.306	280.57
811.485	194.56
811.664	194.56
811.843	227.32
812.022	354.3
812.201	208.89
812.38	206.84
812.559	268.28
812.737	270.33
812.916	196.6
813.095	296.96
813.274	172.03
813.453	165.89
813.632	235.52
813.811	182.27
813.989	239.61
814.168	249.85
814.347	225.28
814.526	219.13
814.704	178.17
814.883	256
815.062	196.6
815.24	243.71
815.419	186.37
815.598	90.11
815.776	184.32
815.955	200.7
816.133	192.51
816.312	245.76
816.49	198.65
816.669	190.46
816.847	176.13
817.026	245.76
817.204	225.28
817.383	143.36
817.561	202.75
817.74	215.04
817.918	176.13
818.097	196.6
818.275	251.9
818.453	243.71
818.632	176.13
818.81	223.23
818.988	190.46
819.167	165.89
819.345	204.8
819.523	182.27
819.701	124.93
819.879	163.84
820.058	178.17
820.236	165.89
820.414	212.99
820.592	223.23
820.77	161.79
820.948	157.69
821.127	69.63
821.305	163.84
821.483	188.41
821.661	217.08
821.839	227.32
822.017	165.89
822.195	198.65
822.373	126.97
822.551	159.74
822.729	237.56
822.907	163.84
823.085	139.26
823.262	221.18
823.44	110.59
823.618	61.44
823.796	194.56
823.974	135.17
824.152	172.03
824.329	235.52
824.507	124.93
824.685	135.17
824.863	202.75
825.04	235.52
825.218	126.97
825.396	96.25
825.574	182.27
825.751	178.17
825.929	126.97
826.107	147.45
826.284	114.69
826.462	157.69
826.639	190.46
826.817	47.1
826.994	143.36
827.172	118.78
827.349	116.73
827.527	145.41
827.704	108.54
827.882	169.98
828.059	106.49
828.237	120.83
828.414	155.65
828.591	73.73
828.769	153.6
828.946	73.73
829.124	219.13
829.301	165.89
829.478	174.08
829.655	53.25
829.833	116.73
830.01	135.17
830.187	163.84
830.364	104.45
830.542	241.66
830.719	86.01
830.896	165.89
831.073	149.5
831.25	106.49
831.427	118.78
831.604	86.01
831.782	143.36
831.959	147.45
832.136	129.02
832.313	94.21
832.49	65.53
832.667	53.25
832.844	126.97
833.021	126.97
833.198	167.93
833.374	118.78
833.551	67.58
833.728	116.73
833.905	135.17
834.082	71.68
834.259	88.06
834.436	79.87
834.612	79.87
834.789	116.73
834.966	63.49
835.143	86.01
835.319	53.25
835.496	81.92
835.673	94.21
835.85	180.22
836.026	69.63
836.203	178.17
836.38	81.92
836.556	51.2
836.733	45.06
836.909	75.77
837.086	110.59
837.262	55.3
837.439	118.78
837.616	116.73
837.792	79.87
837.968	110.59
838.145	18.43
838.321	124.93
838.498	24.58
838.674	174.08
838.851	118.78
839.027	153.6
839.203	141.31
839.38	40.96
839.556	75.77
839.732	100.35
839.909	112.64
840.085	116.73
840.261	63.49
840.437	110.59
840.614	47.1
840.79	77.82
840.966	57.34
841.142	51.2
841.318	45.06
841.494	102.4
841.671	112.64
841.847	59.39
842.023	118.78
842.199	67.58
842.375	83.97
842.551	94.21
842.727	40.96
842.903	141.31
843.079	47.1
843.255	92.16
843.431	96.25
843.607	55.3
843.783	67.58
843.959	88.06
844.134	98.3
844.31	161.79
844.486	-4.1
844.662	98.3
844.838	73.73
845.013	34.82
845.189	135.17
845.365	161.79
845.541	69.63
845.716	104.45
845.892	63.49
846.068	63.49
846.244	61.44
846.419	65.53
846.595	65.53
846.77	71.68
846.946	55.3
847.122	-2.05
847.297	145.41
847.473	67.58
847.648	22.53
847.824	120.83
847.999	67.58
848.175	88.06
848.35	79.87
848.526	135.17
848.701	16.38
848.876	116.73
849.052	118.78
849.227	71.68
849.403	49.15
849.578	32.77
849.753	61.44
849.929	81.92
850.104	49.15
850.279	22.53
850.454	14.34
850.63	55.3
850.805	88.06
850.98	30.72
851.155	73.73
851.33	63.49
851.505	92.16
851.681	59.39
851.856	75.77
852.031	16.38
852.206	116.73
852.381	-32.77
852.556	45.06
852.731	98.3
852.906	69.63
853.081	-0
853.256	108.54
853.431	2.05
853.606	51.2
853.781	81.92
853.956	2.05
854.131	100.35
854.305	26.62
854.48	43.01
854.655	8.19
854.83	90.11
855.005	8.19
855.18	32.77
855.354	36.86
855.529	83.97
855.704	-14.34
855.879	83.97
856.053	102.4
856.228	-8.19
856.403	28.67
856.577	63.49
856.752	2.05
856.926	88.06
857.101	65.53
857.276	34.82
857.45	110.59
857.625	59.39
857.799	51.2
857.974	26.62
858.148	47.1
858.323	59.39
858.497	-18.43
858.672	55.3
858.846	45.06
859.02	106.49
859.195	114.69
859.369	8.19
859.543	-2.05
859.718	63.49
859.892	-10.24
860.066	-4.1
860.241	20.48
860.415	-32.77
860.589	26.62
860.763	92.16
860.938	-12.29
861.112	28.67
861.286	-24.58
861.46	47.1
861.634	71.68
861.808	49.15
861.982	-8.19
862.157	-24.58
862.331	-77.82
862.505	-24.58
862.679	118.78
862.853	108.54
863.027	18.43
863.201	190.46
863.375	10.24
863.549	34.82
863.722	73.73
863.896	-8.19
864.07	73.73
864.244	45.06
864.418	43.01
864.592	57.34
864.766	47.1
864.939	67.58
865.113	47.1
865.287	47.1
865.461	83.97
865.634	-38.91
865.808	-34.82
865.982	30.72
866.156	-14.34
866.329	59.39
866.503	-10.24
866.676	24.58
866.85	43.01
867.024	-45.06
867.197	26.62
867.371	28.67
867.544	24.58
867.718	8.19
867.891	47.1
868.065	8.19
868.238	-32.77
868.412	51.2
868.585	18.43
868.759	24.58
868.932	16.38
869.105	24.58
869.279	24.58
869.452	88.06
869.625	-2.05
869.799	-4.1
869.972	-92.16
870.145	-0
870.319	67.58
870.492	24.58
870.665	2.05
870.838	-16.38
871.011	10.24
871.185	30.72
871.358	-22.53
871.531	83.97
871.704	22.53
871.877	86.01
872.05	22.53
872.223	-16.38
872.396	-2.05
872.569	55.3
872.742	-47.1
872.915	88.06
873.088	18.43
873.261	18.43
873.434	36.86
873.607	8.19
873.78	51.2
873.953	-16.38
874.126	49.15
874.299	28.67
874.471	10.24
874.644	-28.67
874.817	2.05
874.99	94.21
875.163	-43.01
875.335	-8.19
875.508	18.43
875.681	92.16
875.853	79.87
876.026	20.48
876.199	22.53
876.371	49.15
876.544	-14.34
876.717	63.49
876.889	28.67
877.062	22.53
877.234	-26.62
877.407	16.38
877.579	-10.24
877.752	30.72
877.924	6.14
878.097	53.25
878.269	53.25
878.442	16.38
878.614	45.06
878.786	77.82
878.959	-18.43
879.131	16.38
879.303	22.53
879.476	38.91
879.648	2.05
879.82	73.73
879.993	-83.97
880.165	-14.34
880.337	10.24
880.509	43.01
880.681	20.48
880.854	-38.91
881.026	55.3
881.198	22.53
881.37	-14.34
881.542	28.67
881.714	47.1
881.886	-38.91
882.058	43.01
882.23	22.53
882.402	53.25
882.574	55.3
882.746	40.96
882.918	38.91
883.09	63.49
883.262	73.73
883.434	-77.82
883.606	-49.15
883.778	-43.01
883.95	59.39
884.122	-63.49
884.293	-8.19
884.465	-47.1
884.637	-36.86
884.809	61.44
884.98	-18.43
885.152	-0
885.324	-24.58
885.496	8.19
885.667	-30.72
885.839	18.43
886.011	104.45
886.182	-22.53
886.354	-22.53
886.525	26.62
886.697	20.48
886.869	-67.58
887.04	36.86
887.212	49.15
887.383	-40.96
887.555	40.96
887.726	-14.34
887.897	-12.29
888.069	34.82
888.24	-0
888.412	12.29
888.583	38.91
888.754	2.05
888.926	-14.34
889.097	20.48
889.268	-22.53
889.44	2.05
889.611	-47.1
889.782	-2.05
889.953	67.58
890.125	83.97
890.296	6.14
890.467	-36.86
890.638	49.15
890.809	57.34
890.98	34.82
891.151	36.86
891.323	26.62
891.494	10.24
891.665	-24.58
891.836	116.73
892.007	16.38
892.178	-51.2
892.349	-2.05
892.52	51.2
892.691	67.58
892.862	43.01
893.032	-57.34
893.203	26.62
893.374	36.86
893.545	-12.29
893.716	-36.86
893.887	55.3
894.057	-65.54
894.228	-22.53
894.399	10.24
894.57	51.2
894.74	10.24
894.911	22.53
895.082	-22.53
895.253	-45.06
895.423	114.69
895.594	63.49
895.764	-20.48
895.935	8.19
896.106	12.29
896.276	-59.39
896.447	63.49
896.617	-26.62
896.788	-4.1
896.958	45.06
897.129	-2.05
897.299	26.62
897.47	-14.34
897.64	-2.05
897.81	-28.67
897.981	30.72
898.151	4.1
898.322	47.1
898.492	30.72
898.662	-45.06
898.832	-14.34
899.003	-2.05
899.173	-18.43
899.343	-2.05
899.513	-14.34
