Data from USB4F104151__52__11-45-11-930.txt Node

Date: Fri Mar 14 11:45:11 EDT 2025
User: louis
Spectrometer: USB4F10415
Trigger mode: 4
Integration Time (sec): 2.000000E-2
Scans to average: 1
Electric dark correction enabled: true
Nonlinearity correction enabled: false
Boxcar width: 0
XAxis mode: Wavelengths
Number of Pixels in Spectrum: 3648
>>>>>Begin Spectral Data<<<<<
178.204	-121.17
178.424	-121.17
178.644	-121.17
178.864	-47.44
179.084	-61.78
179.304	-76.12
179.524	9.9
179.744	-16.73
179.964	30.38
180.184	-14.68
180.404	-0.34
180.624	-37.2
180.844	30.38
181.064	50.86
181.283	18.09
181.503	5.8
181.723	-0.34
181.943	5.8
182.163	-18.77
182.383	32.43
182.602	28.33
182.822	97.96
183.042	28.33
183.262	-33.11
183.482	22.19
183.701	22.19
183.921	104.11
184.141	91.82
184.361	5.8
184.58	5.8
184.8	-49.49
185.02	-51.54
185.239	36.52
185.459	18.09
185.679	83.63
185.898	-14.68
186.118	28.33
186.338	32.43
186.557	42.67
186.777	-18.77
186.997	18.09
187.216	59.05
187.436	3.75
187.655	38.57
187.875	7.85
188.095	-16.73
188.314	36.52
188.534	1.71
188.753	-31.06
188.973	28.33
189.192	97.96
189.412	-41.3
189.631	44.71
189.851	9.9
190.07	-6.49
190.29	50.86
190.509	28.33
190.729	-6.49
190.948	22.19
191.168	116.39
191.387	-33.11
191.607	1.71
191.826	18.09
192.045	30.38
192.265	-26.96
192.484	-31.06
192.704	18.09
192.923	-4.44
193.142	130.73
193.362	54.95
193.581	69.29
193.8	32.43
194.02	44.71
194.239	-18.77
194.458	7.85
194.678	24.23
194.897	36.52
195.116	18.09
195.335	34.47
195.555	-8.53
195.774	52.91
195.993	-14.68
196.212	26.28
196.432	28.33
196.651	-26.96
196.87	91.82
197.089	89.77
197.308	5.8
197.528	40.62
197.747	9.9
197.966	-41.3
198.185	-6.49
198.404	13.99
198.623	-2.39
198.842	61.1
199.062	3.75
199.281	13.99
199.5	-12.63
199.719	-14.68
199.938	36.52
200.157	73.39
200.376	-22.87
200.595	20.14
200.814	-6.49
201.033	-0.34
201.252	9.9
201.471	93.87
201.69	48.81
201.909	36.52
202.128	-84.31
202.347	40.62
202.566	-12.63
202.785	24.23
203.004	18.09
203.223	-8.53
203.442	32.43
203.661	42.67
203.879	5.8
204.098	20.14
204.317	-35.16
204.536	57
204.755	32.43
204.974	24.23
205.193	63.15
205.411	36.52
205.63	-4.44
205.849	104.11
206.068	54.95
206.287	-10.58
206.505	-18.77
206.724	-33.11
206.943	-4.44
207.162	26.28
207.381	7.85
207.599	77.48
207.818	30.38
208.037	9.9
208.255	20.14
208.474	46.76
208.693	57
208.911	-41.3
209.13	46.76
209.349	-51.54
209.567	-47.44
209.786	81.58
210.005	61.1
210.223	52.91
210.442	-39.25
210.661	77.48
210.879	-2.39
211.098	-0.34
211.316	-20.82
211.535	42.67
211.753	34.47
211.972	-4.44
212.191	-14.68
212.409	30.38
212.628	20.14
212.846	32.43
213.065	5.8
213.283	26.28
213.502	28.33
213.72	30.38
213.938	-0.34
214.157	5.8
214.375	11.95
214.594	1.71
214.812	83.63
215.031	-29.01
215.249	-12.63
215.467	-4.44
215.686	1.71
215.904	52.91
216.122	-22.87
216.341	85.67
216.559	54.95
216.778	13.99
216.996	57
217.214	-69.97
217.432	1.71
217.651	-14.68
217.869	59.05
218.087	24.23
218.306	16.04
218.524	75.43
218.742	50.86
218.96	5.8
219.179	-31.06
219.397	30.38
219.615	67.24
219.833	57
220.051	-10.58
220.27	81.58
220.488	83.63
220.706	81.58
220.924	28.33
221.142	26.28
221.36	44.71
221.578	-26.96
221.796	16.04
222.015	18.09
222.233	38.57
222.451	122.54
222.669	16.04
222.887	52.91
223.105	-45.4
223.323	-6.49
223.541	26.28
223.759	59.05
223.977	85.67
224.195	110.25
224.413	77.48
224.631	65.19
224.849	20.14
225.067	63.15
225.285	-33.11
225.503	1.71
225.721	-20.82
225.939	-59.73
226.157	20.14
226.375	77.48
226.592	5.8
226.81	-119.12
227.028	42.67
227.246	3.75
227.464	11.95
227.682	-0.34
227.9	40.62
228.117	-0.34
228.335	50.86
228.553	-0.34
228.771	-10.58
228.989	-12.63
229.206	16.04
229.424	79.53
229.642	7.85
229.86	20.14
230.077	54.95
230.295	-37.2
230.513	63.15
230.731	-37.2
230.948	-33.11
231.166	63.15
231.384	26.28
231.601	40.62
231.819	16.04
232.037	-12.63
232.254	-10.58
232.472	34.47
232.689	18.09
232.907	18.09
233.125	16.04
233.342	40.62
233.56	-24.92
233.777	102.06
233.995	52.91
234.213	22.19
234.43	50.86
234.648	9.9
234.865	-12.63
235.083	-2.39
235.3	-6.49
235.518	-16.73
235.735	38.57
235.953	20.14
236.17	50.86
236.388	-0.34
236.605	24.23
236.822	-0.34
237.04	38.57
237.257	-16.73
237.475	9.9
237.692	-59.73
237.909	57
238.127	1.71
238.344	18.09
238.562	42.67
238.779	-22.87
238.996	9.9
239.214	18.09
239.431	-35.16
239.648	-22.87
239.865	-35.16
240.083	83.63
240.3	30.38
240.517	73.39
240.735	-4.44
240.952	87.72
241.169	77.48
241.386	-22.87
241.603	52.91
241.821	7.85
242.038	75.43
242.255	-8.53
242.472	-14.68
242.689	-4.44
242.907	38.57
243.124	-61.78
243.341	114.34
243.558	22.19
243.775	1.71
243.992	22.19
244.209	52.91
244.426	65.19
244.643	-98.64
244.86	-2.39
245.078	73.39
245.295	46.76
245.512	-2.39
245.729	59.05
245.946	3.75
246.163	-26.96
246.38	28.33
246.597	-18.77
246.814	-4.44
247.031	-16.73
247.248	-6.49
247.464	1.71
247.681	20.14
247.898	9.9
248.115	24.23
248.332	42.67
248.549	46.76
248.766	67.24
248.983	91.82
249.2	5.8
249.417	18.09
249.633	-16.73
249.85	54.95
250.067	59.05
250.284	-0.34
250.501	-16.73
250.717	104.11
250.934	46.76
251.151	-2.39
251.368	-10.58
251.585	42.67
251.801	9.9
252.018	18.09
252.235	50.86
252.451	1.71
252.668	-0.34
252.885	-37.2
253.102	40.62
253.318	52.91
253.535	1.71
253.752	54.95
253.968	-22.87
254.185	24.23
254.401	-24.92
254.618	-18.77
254.835	-8.53
255.051	40.62
255.268	7.85
255.484	7.85
255.701	-8.53
255.917	28.33
256.134	24.23
256.351	-20.82
256.567	67.24
256.784	3.75
257	-20.82
257.217	52.91
257.433	-20.82
257.65	59.05
257.866	32.43
258.082	22.19
258.299	50.86
258.515	38.57
258.732	32.43
258.948	-8.53
259.165	16.04
259.381	52.91
259.597	63.15
259.814	-14.68
260.03	-4.44
260.246	-8.53
260.463	-22.87
260.679	44.71
260.895	26.28
261.112	104.11
261.328	-12.63
261.544	95.91
261.761	79.53
261.977	34.47
262.193	-76.12
262.409	50.86
262.626	24.23
262.842	28.33
263.058	22.19
263.274	57
263.49	22.19
263.707	16.04
263.923	36.52
264.139	-90.45
264.355	5.8
264.571	106.15
264.787	83.63
265.004	16.04
265.22	30.38
265.436	-0.34
265.652	26.28
265.868	13.99
266.084	-4.44
266.3	57
266.516	34.47
266.732	13.99
266.948	32.43
267.164	7.85
267.38	20.14
267.596	-22.87
267.812	65.19
268.028	122.54
268.244	-22.87
268.46	26.28
268.676	50.86
268.892	36.52
269.108	-12.63
269.324	5.8
269.54	13.99
269.756	-4.44
269.972	108.2
270.188	18.09
270.403	9.9
270.619	-35.16
270.835	48.81
271.051	50.86
271.267	13.99
271.483	13.99
271.698	50.86
271.914	-12.63
272.13	57
272.346	-16.73
272.562	-2.39
272.777	81.58
272.993	7.85
273.209	18.09
273.425	-26.96
273.64	44.71
273.856	83.63
274.072	18.09
274.287	18.09
274.503	16.04
274.719	42.67
274.934	30.38
275.15	24.23
275.366	44.71
275.581	28.33
275.797	89.77
276.012	20.14
276.228	11.95
276.444	-37.2
276.659	28.33
276.875	-0.34
277.09	-2.39
277.306	-35.16
277.521	46.76
277.737	71.34
277.952	63.15
278.168	-35.16
278.383	63.15
278.599	93.87
278.814	54.95
279.03	24.23
279.245	-24.92
279.461	46.76
279.676	34.47
279.892	44.71
280.107	-6.49
280.322	-47.44
280.538	38.57
280.753	-29.01
280.969	-2.39
281.184	-63.83
281.399	95.91
281.615	65.19
281.83	13.99
282.045	-94.55
282.26	-6.49
282.476	40.62
282.691	79.53
282.906	40.62
283.122	7.85
283.337	38.57
283.552	54.95
283.767	-24.92
283.983	140.97
284.198	13.99
284.413	-10.58
284.628	30.38
284.843	-10.58
285.058	34.47
285.274	-4.44
285.489	16.04
285.704	120.49
285.919	28.33
286.134	20.14
286.349	3.75
286.564	-2.39
286.779	11.95
286.995	34.47
287.21	-14.68
287.425	-8.53
287.64	65.19
287.855	5.8
288.07	-22.87
288.285	40.62
288.5	59.05
288.715	61.1
288.93	-63.83
289.145	5.8
289.36	20.14
289.575	-12.63
289.79	50.86
290.004	30.38
290.219	-33.11
290.434	20.14
290.649	42.67
290.864	22.19
291.079	1.71
291.294	42.67
291.509	-4.44
291.724	40.62
291.938	-2.39
292.153	18.09
292.368	-0.34
292.583	26.28
292.798	9.9
293.012	36.52
293.227	42.67
293.442	48.81
293.657	71.34
293.871	87.72
294.086	11.95
294.301	11.95
294.516	44.71
294.73	73.39
294.945	5.8
295.16	11.95
295.374	100.01
295.589	7.85
295.804	18.09
296.018	46.76
296.233	77.48
296.447	48.81
296.662	30.38
296.877	54.95
297.091	71.34
297.306	1.71
297.52	-18.77
297.735	-12.63
297.949	7.85
298.164	63.15
298.378	69.29
298.593	-31.06
298.807	-31.06
299.022	3.75
299.236	40.62
299.451	7.85
299.665	75.43
299.88	9.9
300.094	-31.06
300.309	71.34
300.523	54.95
300.737	67.24
300.952	91.82
301.166	32.43
301.381	-12.63
301.595	79.53
301.809	81.58
302.024	52.91
302.238	102.06
302.452	42.67
302.667	5.8
302.881	22.19
303.095	3.75
303.309	24.23
303.524	22.19
303.738	36.52
303.952	-16.73
304.166	-55.64
304.381	-6.49
304.595	20.14
304.809	46.76
305.023	1.71
305.237	-20.82
305.452	-0.34
305.666	3.75
305.88	32.43
306.094	9.9
306.308	11.95
306.522	1.71
306.736	9.9
306.95	71.34
307.164	50.86
307.379	32.43
307.593	11.95
307.807	85.67
308.021	116.39
308.235	71.34
308.449	-26.96
308.663	11.95
308.877	83.63
309.091	9.9
309.305	-39.25
309.519	-29.01
309.733	69.29
309.947	-2.39
310.161	42.67
310.374	-33.11
310.588	48.81
310.802	52.91
311.016	50.86
311.23	48.81
311.444	28.33
311.658	-4.44
311.872	36.52
312.085	67.24
312.299	-0.34
312.513	-45.4
312.727	-10.58
312.941	26.28
313.154	44.71
313.368	-0.34
313.582	-14.68
313.796	42.67
314.009	-31.06
314.223	112.3
314.437	24.23
314.651	1.71
314.864	54.95
315.078	73.39
315.292	65.19
315.505	-72.02
315.719	5.8
315.933	16.04
316.146	65.19
316.36	-6.49
316.573	42.67
316.787	20.14
317.001	11.95
317.214	52.91
317.428	65.19
317.641	63.15
317.855	44.71
318.068	71.34
318.282	32.43
318.495	54.95
318.709	91.82
318.922	16.04
319.136	50.86
319.349	181.93
319.563	40.62
319.776	11.95
319.99	-33.11
320.203	48.81
320.417	46.76
320.63	32.43
320.843	87.72
321.057	67.24
321.27	16.04
321.483	9.9
321.697	-45.4
321.91	75.43
322.124	-18.77
322.337	9.9
322.55	63.15
322.763	46.76
322.977	48.81
323.19	85.67
323.403	-43.35
323.617	81.58
323.83	67.24
324.043	-16.73
324.256	-29.01
324.469	20.14
324.683	28.33
324.896	100.01
325.109	40.62
325.322	-6.49
325.535	89.77
325.748	59.05
325.962	34.47
326.175	13.99
326.388	69.29
326.601	42.67
326.814	110.25
327.027	40.62
327.24	24.23
327.453	44.71
327.666	95.91
327.879	-8.53
328.092	63.15
328.305	18.09
328.518	30.38
328.731	34.47
328.944	-10.58
329.157	11.95
329.37	1.71
329.583	7.85
329.796	59.05
330.009	1.71
330.222	124.58
330.435	52.91
330.648	-24.92
330.861	73.39
331.073	67.24
331.286	38.57
331.499	30.38
331.712	1.71
331.925	28.33
332.138	52.91
332.35	77.48
332.563	22.19
332.776	26.28
332.989	110.25
333.202	34.47
333.414	-4.44
333.627	32.43
333.84	28.33
334.053	91.82
334.265	67.24
334.478	65.19
334.691	-18.77
334.903	9.9
335.116	57
335.329	52.91
335.541	42.67
335.754	42.67
335.966	7.85
336.179	120.49
336.392	26.28
336.604	-6.49
336.817	57
337.029	69.29
337.242	81.58
337.454	54.95
337.667	5.8
337.88	42.67
338.092	-10.58
338.305	50.86
338.517	-10.58
338.729	108.2
338.942	42.67
339.154	114.34
339.367	-14.68
339.579	122.54
339.792	9.9
340.004	38.57
340.217	52.91
340.429	71.34
340.641	75.43
340.854	50.86
341.066	13.99
341.278	79.53
341.491	18.09
341.703	71.34
341.915	24.23
342.128	48.81
342.34	50.86
342.552	30.38
342.764	-0.34
342.977	44.71
343.189	130.73
343.401	38.57
343.613	-22.87
343.826	42.67
344.038	-6.49
344.25	32.43
344.462	1.71
344.674	30.38
344.886	1.71
345.099	67.24
345.311	-49.49
345.523	36.52
345.735	-41.3
345.947	112.3
346.159	48.81
346.371	63.15
346.583	-22.87
346.795	63.15
347.007	1.71
347.219	106.15
347.431	-35.16
347.643	34.47
347.855	54.95
348.067	46.76
348.279	106.15
348.491	52.91
348.703	77.48
348.915	-59.73
349.127	-24.92
349.339	-0.34
349.551	34.47
349.763	57
349.975	79.53
350.187	108.2
350.399	81.58
350.61	18.09
350.822	-29.01
351.034	73.39
351.246	34.47
351.458	108.2
351.669	52.91
351.881	16.04
352.093	85.67
352.305	1.71
352.517	-63.83
352.728	75.43
352.94	44.71
353.152	57
353.363	22.19
353.575	22.19
353.787	59.05
353.999	24.23
354.21	46.76
354.422	46.76
354.633	-31.06
354.845	89.77
355.057	38.57
355.268	59.05
355.48	48.81
355.692	-14.68
355.903	79.53
356.115	-20.82
356.326	1.71
356.538	89.77
356.749	57
356.961	57
357.172	16.04
357.384	-24.92
357.595	118.44
357.807	-16.73
358.018	18.09
358.23	118.44
358.441	26.28
358.653	30.38
358.864	32.43
359.075	20.14
359.287	59.05
359.498	83.63
359.709	5.8
359.921	42.67
360.132	30.38
360.344	63.15
360.555	46.76
360.766	30.38
360.977	87.72
361.189	18.09
361.4	34.47
361.611	48.81
361.823	-10.58
362.034	59.05
362.245	83.63
362.456	73.39
362.667	36.52
362.879	3.75
363.09	87.72
363.301	67.24
363.512	38.57
363.723	54.95
363.935	75.43
364.146	83.63
364.357	30.38
364.568	38.57
364.779	30.38
364.99	122.54
365.201	32.43
365.412	91.82
365.623	48.81
365.834	-0.34
366.045	89.77
366.256	-6.49
366.467	18.09
366.678	32.43
366.889	-4.44
367.1	-0.34
367.311	28.33
367.522	-20.82
367.733	44.71
367.944	75.43
368.155	32.43
368.366	112.3
368.577	40.62
368.788	28.33
368.999	9.9
369.209	3.75
369.42	75.43
369.631	48.81
369.842	95.91
370.053	5.8
370.264	87.72
370.474	32.43
370.685	61.1
370.896	18.09
371.107	130.73
371.317	18.09
371.528	87.72
371.739	18.09
371.95	124.58
372.16	20.14
372.371	16.04
372.582	97.96
372.792	16.04
373.003	36.52
373.214	65.19
373.424	46.76
373.635	1.71
373.846	16.04
374.056	59.05
374.267	38.57
374.477	75.43
374.688	-8.53
374.898	26.28
375.109	65.19
375.319	71.34
375.53	65.19
375.74	16.04
375.951	54.95
376.161	34.47
376.372	32.43
376.582	-29.01
376.793	26.28
377.003	-2.39
377.214	69.29
377.424	11.95
377.635	87.72
377.845	-22.87
378.055	-0.34
378.266	75.43
378.476	175.78
378.686	36.52
378.897	57
379.107	126.63
379.317	100.01
379.528	-24.92
379.738	75.43
379.948	22.19
380.158	-6.49
380.369	65.19
380.579	114.34
380.789	71.34
380.999	120.49
381.21	48.81
381.42	91.82
381.63	30.38
381.84	63.15
382.05	116.39
382.261	110.25
382.471	104.11
382.681	38.57
382.891	104.11
383.101	77.48
383.311	67.24
383.521	18.09
383.731	75.43
383.941	104.11
384.151	73.39
384.361	71.34
384.571	50.86
384.781	36.52
384.991	26.28
385.201	134.82
385.411	16.04
385.621	63.15
385.831	143.02
386.041	20.14
386.251	54.95
386.461	61.1
386.671	30.38
386.881	5.8
387.091	91.82
387.301	79.53
387.511	63.15
387.72	67.24
387.93	50.86
388.14	-20.82
388.35	59.05
388.56	54.95
388.769	91.82
388.979	57
389.189	79.53
389.399	-31.06
389.609	116.39
389.818	63.15
390.028	46.76
390.238	175.78
390.447	13.99
390.657	114.34
390.867	11.95
391.076	57
391.286	50.86
391.496	145.06
391.705	34.47
391.915	130.73
392.125	-16.73
392.334	48.81
392.544	83.63
392.753	3.75
392.963	20.14
393.172	9.9
393.382	89.77
393.591	30.38
393.801	71.34
394.01	128.68
394.22	65.19
394.429	75.43
394.639	52.91
394.848	67.24
395.058	59.05
395.267	83.63
395.477	79.53
395.686	112.3
395.895	110.25
396.105	124.58
396.314	50.86
396.524	54.95
396.733	75.43
396.942	44.71
397.152	91.82
397.361	124.58
397.57	126.63
397.78	149.16
397.989	57
398.198	122.54
398.407	71.34
398.617	59.05
398.826	102.06
399.035	-12.63
399.244	118.44
399.453	110.25
399.663	63.15
399.872	20.14
400.081	61.1
400.29	134.82
400.499	83.63
400.708	145.06
400.917	106.15
401.127	153.26
401.336	57
401.545	120.49
401.754	91.82
401.963	81.58
402.172	100.01
402.381	110.25
402.59	114.34
402.799	93.87
403.008	173.74
403.217	106.15
403.426	44.71
403.635	93.87
403.844	151.21
404.053	87.72
404.262	132.78
404.471	194.22
404.68	83.63
404.888	126.63
405.097	132.78
405.306	130.73
405.515	85.67
405.724	112.3
405.933	175.78
406.142	171.69
406.35	210.6
406.559	204.46
406.768	177.83
406.977	190.12
407.185	145.06
407.394	175.78
407.603	143.02
407.812	143.02
408.02	280.23
408.229	255.65
408.438	202.41
408.646	253.61
408.855	243.37
409.064	249.51
409.272	253.61
409.481	306.85
409.69	233.13
409.898	310.95
410.107	308.9
410.315	274.09
410.524	323.24
410.733	409.25
410.941	310.95
411.15	335.53
411.358	378.53
411.567	362.15
411.775	411.3
411.984	476.84
412.192	464.55
412.401	487.08
412.609	401.06
412.818	493.22
413.026	460.45
413.234	448.16
413.443	525.99
413.651	622.24
413.86	562.85
414.068	550.56
414.276	566.95
414.485	636.58
414.693	648.86
414.901	689.82
415.11	657.06
415.318	685.73
415.526	677.54
415.734	788.13
415.943	722.59
416.151	765.6
416.359	781.98
416.567	814.75
416.776	876.19
416.984	1007.26
417.192	956.06
417.4	1001.12
417.608	1009.31
417.817	1058.46
418.025	1109.66
418.233	1128.09
418.441	1195.67
418.649	1121.95
418.857	1312.41
419.065	1269.4
419.273	1326.74
419.481	1287.83
419.689	1480.34
419.897	1484.44
420.105	1527.44
420.313	1631.89
420.521	1611.41
420.729	1560.21
420.937	1785.49
421.145	1717.9
421.353	1789.58
421.561	1865.36
421.769	1994.38
421.977	2025.1
422.185	2086.54
422.393	2119.31
422.601	2238.09
422.809	2291.34
423.017	2422.41
423.224	2389.64
423.432	2563.72
423.64	2455.17
423.848	2723.46
424.056	2743.94
424.263	2852.48
424.471	2893.44
424.679	2946.69
424.887	3139.19
425.094	3245.69
425.302	3208.83
425.51	3241.59
425.718	3417.72
425.925	3473.01
426.133	3516.02
426.341	3825.26
426.548	3763.83
426.756	3853.94
426.964	3970.67
427.171	4202.09
427.379	4279.91
427.586	4410.98
427.794	4453.99
428.001	4679.27
428.209	4841.06
428.417	4859.49
428.624	5138.01
428.832	5213.79
429.039	5207.64
429.247	5291.61
429.454	5703.25
429.662	6030.93
429.869	5633.62
430.076	6069.84
430.284	5862.99
430.491	6118.99
430.699	6477.38
430.906	6409.8
431.114	6661.7
431.321	6712.9
431.528	6972.99
431.736	7474.74
431.943	7679.54
432.15	7712.31
432.358	7431.74
432.565	8033.84
432.772	8082.99
432.979	8519.21
433.187	8539.69
433.394	8594.98
433.601	9170.46
433.808	9125.41
434.016	9043.49
434.223	9446.94
434.43	10122.77
434.637	9686.55
434.844	10438.16
435.052	10493.45
435.259	10567.18
435.466	10673.67
435.673	10731.01
435.88	11347.45
436.087	11822.58
436.294	11939.32
436.501	11601.4
436.708	11941.36
436.915	12271.09
437.122	12658.15
437.329	12746.22
437.537	13333.98
437.743	13229.54
437.95	13284.83
438.157	14050.77
438.364	14392.78
438.571	14288.34
438.778	14544.33
438.985	15857.08
439.192	15179.2
439.399	15482.3
439.606	15556.03
439.813	16035.25
440.02	17325.47
440.227	16750
440.433	16967.08
440.64	17243.56
440.847	17053.09
441.054	17532.32
441.261	18734.48
441.467	18632.08
441.674	19152.26
441.881	19881.34
442.088	19772.8
442.294	19576.19
442.501	19856.76
442.708	20426.1
442.914	21224.81
443.121	22222.17
443.328	21599.59
443.534	22850.89
443.741	22562.13
443.948	21839.2
444.154	23868.73
444.361	23366.98
444.568	23663.94
444.774	23725.38
444.981	23921.98
445.187	24503.6
445.394	25865.5
445.6	25431.33
445.807	27827.46
446.013	26432.79
446.22	27004.17
446.426	27964.67
446.633	28060.93
446.839	29265.13
447.046	28036.35
447.252	30000.35
447.459	29625.57
447.665	29684.97
447.871	30833.88
448.078	32124.1
448.284	30463.19
448.491	31556.81
448.697	32750.77
448.903	33393.84
449.11	33197.23
449.316	32941.24
449.522	33604.78
449.728	34198.69
449.935	34716.82
450.141	34471.07
450.347	35372.17
450.553	34188.45
450.76	34802.84
450.966	36060.29
451.172	35660.94
451.378	36430.97
451.584	35652.75
451.791	36383.87
451.997	36125.83
452.203	37385.33
452.409	36572.28
452.615	36662.4
452.821	36009.09
453.027	35331.22
453.233	37080.18
453.44	35755.15
453.646	35644.55
453.852	36490.37
454.058	36748.41
454.264	35642.51
454.47	36271.23
454.676	35114.13
454.882	36689.02
455.088	33090.74
455.294	33991.84
455.5	34327.71
455.705	34423.97
455.911	33135.79
456.117	32658.62
456.323	32388.28
456.529	30455
456.735	32103.62
456.941	31149.26
457.147	30737.62
457.352	29734.12
457.558	29220.08
457.764	29648.1
457.97	28468.47
458.176	28054.78
458.381	28087.55
458.587	26721.55
458.793	26752.27
458.999	25697.57
459.204	27026.7
459.41	26463.51
459.616	24988.97
459.821	25031.98
460.027	24698.16
460.233	24036.67
460.438	23223.62
460.644	23080.27
460.85	21972.32
461.055	21591.39
461.261	22084.95
461.466	20534.64
461.672	19529.09
461.878	20798.83
462.083	19873.15
462.289	19481.99
462.494	18779.53
462.7	18120.09
462.905	17790.36
463.111	18572.69
463.316	18441.62
463.522	17958.3
463.727	18124.18
463.932	17776.03
464.138	17757.6
464.343	17943.96
464.549	17282.47
464.754	17806.75
464.959	17710.49
465.165	17427.87
465.37	16872.87
465.575	16209.33
465.781	17003.94
465.986	17272.23
466.191	16614.83
466.397	16283.06
466.602	15625.66
466.807	16088.5
467.012	16180.66
467.218	15928.76
467.423	15623.61
467.628	15861.18
467.833	16637.36
468.038	15795.64
468.244	15408.58
468.449	16070.07
468.654	15646.14
468.859	15443.39
469.064	15435.2
469.269	14605.77
469.474	14865.86
469.679	15189.44
469.885	14910.92
470.09	15033.8
470.295	14519.76
470.5	14433.74
470.705	14562.76
470.91	14306.77
471.115	14224.85
471.32	14296.53
471.525	14216.66
471.73	13901.27
471.935	13698.52
472.139	13368.8
472.344	13589.98
472.549	13313.5
472.754	13311.46
472.959	12793.32
473.164	12639.72
473.369	12535.28
473.574	12959.2
473.778	12922.34
473.983	12809.7
474.188	12545.52
474.393	12094.96
474.598	12017.14
474.802	12260.85
475.007	12166.64
475.212	11886.07
475.417	11638.27
475.621	11349.5
475.826	11484.67
476.031	11200
476.235	11148.8
476.44	11376.13
476.645	11054.59
476.849	11171.33
477.054	10872.32
477.259	10708.49
477.463	10827.27
477.668	10274.32
477.872	10575.37
478.077	10378.76
478.282	10364.43
478.486	10059.28
478.691	10135.06
478.895	10137.1
479.1	9934.36
479.304	9973.27
479.509	9678.36
479.713	9944.59
479.918	9670.17
480.122	9639.45
480.326	9682.45
480.531	9727.51
480.735	9354.78
480.94	9344.54
481.144	9616.92
481.348	9340.44
481.553	9279.01
481.757	9205.28
481.961	9336.35
482.166	9346.59
482.37	9260.57
482.574	9272.86
482.778	9256.48
482.983	9399.84
483.187	9287.2
483.391	9283.1
483.595	9174.56
483.8	9264.67
484.004	9201.18
484.208	9328.16
484.412	9195.04
484.616	9352.73
484.821	9203.23
485.025	9020.96
485.229	9307.68
485.433	9324.06
485.637	8977.95
485.841	9133.6
486.045	9283.1
486.249	9301.53
486.453	9111.07
486.657	9184.8
486.861	9365.02
487.065	8980
487.269	9113.12
487.473	9096.74
487.677	9154.08
487.881	9338.4
488.085	8943.14
488.289	9145.89
488.493	9254.43
488.697	9063.97
488.901	9272.86
489.105	9307.68
489.309	9211.42
489.512	9348.64
489.716	9410.08
489.92	9344.54
490.124	9225.76
490.328	9344.54
490.531	9365.02
490.735	9565.72
490.939	9434.65
491.143	9250.33
491.346	9440.79
491.55	9702.93
491.754	9403.93
491.958	9553.43
492.161	9553.43
492.365	9725.46
492.569	9684.5
492.772	9584.15
492.976	9739.8
493.18	9784.85
493.383	10016.27
493.587	9811.48
493.79	10145.3
493.994	9829.91
494.197	9897.49
494.401	10077.71
494.605	10053.14
494.808	10229.26
495.012	10335.76
495.215	10513.93
495.419	10651.14
495.622	10499.59
495.825	10704.39
496.029	10571.27
496.232	10782.21
496.436	10749.45
496.639	11038.21
496.843	10851.85
497.046	11210.24
497.249	11267.58
497.453	11329.02
497.656	11269.63
497.859	11464.19
498.063	11742.71
498.266	12021.24
498.469	11816.44
498.673	11828.73
498.876	12271.09
499.079	12269.04
499.282	12107.25
499.485	12572.14
499.689	12527.08
499.892	12834.28
500.095	12791.27
500.298	12959.2
500.501	12912.1
500.705	13233.63
500.908	13268.45
501.111	13759.96
501.314	13635.03
501.517	14054.87
501.72	13931.99
501.923	14173.65
502.126	14228.95
502.329	14728.65
502.532	14507.47
502.735	14464.46
502.938	14822.86
503.141	15107.52
503.344	15089.09
503.547	15099.33
503.75	15662.52
503.953	15744.44
504.156	15586.75
504.359	15936.95
504.562	16057.78
504.765	16479.66
504.968	16561.58
505.17	16455.09
505.373	16690.6
505.576	16897.45
505.779	17444.26
505.982	17386.91
506.185	17733.02
506.387	17522.08
506.59	17767.84
506.793	18152.85
506.996	18054.55
507.198	18734.48
507.401	18394.51
507.604	18662.8
507.807	18929.03
508.009	19258.76
508.212	19438.98
508.415	19602.82
508.617	19778.94
508.82	19953.02
509.022	19797.37
509.225	20440.43
509.428	20485.49
509.63	20653.42
509.833	20845.93
510.035	21159.27
510.238	21233
510.44	21323.11
510.643	21605.73
510.845	22021.47
511.048	21761.37
511.25	22054.23
511.453	22015.32
511.655	23156.04
511.858	22867.28
512.06	22857.04
512.262	23418.18
512.465	23004.49
512.667	23313.73
512.87	23571.78
513.072	23735.62
513.274	24225.08
513.477	24702.26
513.679	24775.98
513.881	24784.18
514.084	24982.83
514.286	25103.66
514.488	25134.38
514.69	25988.38
514.893	25847.07
515.095	26037.53
515.297	26531.09
515.499	26334.49
515.701	27014.41
515.904	26989.84
516.106	27188.49
516.308	27172.11
516.51	27587.85
516.712	27446.54
516.914	28071.17
517.116	28617.97
517.318	28669.17
517.52	28968.18
517.722	28906.74
517.925	29105.39
518.127	29566.18
518.329	30045.41
518.531	29762.79
518.733	30137.57
518.935	30620.89
519.136	30465.24
519.338	31053.01
519.54	30635.22
519.742	31368.4
519.944	31284.43
520.146	32036.03
520.348	32068.8
520.55	31995.07
520.752	32177.34
520.954	33041.59
521.155	32474.3
521.357	33037.49
521.559	33348.78
521.761	33367.21
521.963	33426.6
522.164	33963.17
522.366	34155.68
522.568	34421.92
522.77	34243.74
522.971	35036.31
523.173	34772.12
523.375	34817.18
523.576	35396.75
523.778	35429.52
523.98	35966.09
524.181	35572.88
524.383	35841.16
524.584	36301.95
524.786	36097.16
524.988	36449.41
525.189	36555.9
525.391	36744.31
525.592	37276.79
525.794	37158
525.995	37514.35
526.197	37393.52
526.398	37520.49
526.6	37803.11
526.801	38173.8
527.003	37882.98
527.204	38161.51
527.406	38487.14
527.607	38480.99
527.808	38859.87
528.01	38237.28
528.211	38431.84
528.412	39291.99
528.614	39132.25
528.815	39128.15
529.016	39496.78
529.218	39148.63
529.419	39367.76
529.62	39457.87
529.822	39347.28
530.023	39099.48
530.224	39220.31
530.425	39887.95
530.626	39466.06
530.828	39160.92
531.029	40258.63
531.23	39808.08
531.431	39760.97
531.632	40158.28
531.833	39988.3
532.035	39810.12
532.236	40045.64
532.437	40340.55
532.638	39828.55
532.839	40326.21
533.04	40172.61
533.241	39965.77
533.442	40684.61
533.643	40352.83
533.844	40215.62
534.045	40234.05
534.246	40180.81
534.447	40277.06
534.648	40397.89
534.849	40670.27
535.05	39875.66
535.251	40504.38
535.451	40399.94
535.652	40873.02
535.853	40160.33
536.054	40776.76
536.255	40541.25
536.456	40135.75
536.657	40922.17
536.857	40272.96
537.058	40240.2
537.259	40598.59
537.46	40772.67
537.66	40299.59
537.861	40752.19
538.062	40727.61
538.263	40842.3
538.463	40315.97
538.664	40350.79
538.865	40399.94
539.065	40692.8
539.266	40019.02
539.466	40787
539.667	39930.95
539.868	40537.15
540.068	40254.53
540.269	40643.65
540.469	40496.19
540.67	40201.29
540.87	40631.36
541.071	40293.44
541.271	40633.41
541.472	40236.1
541.672	40068.17
541.873	40246.34
542.073	40186.95
542.274	40860.73
542.474	40150.09
542.675	40016.97
542.875	40582.21
543.075	40442.95
543.276	39838.79
543.476	40664.13
543.676	39926.86
543.877	40481.86
544.077	40254.53
544.277	40074.31
544.478	40086.6
544.678	40379.46
544.878	40422.47
545.078	40361.03
545.279	39935.05
545.479	40045.64
545.679	40520.77
545.879	40201.29
546.079	40199.24
546.28	39535.7
546.48	39756.88
546.68	39709.77
546.88	40166.47
547.08	39959.62
547.28	40119.37
547.48	39537.74
547.68	39787.6
547.88	39640.14
548.081	39810.12
548.281	40037.45
548.481	39857.23
548.681	40217.67
548.881	39662.67
549.081	39877.71
549.28	39619.66
549.48	40062.02
549.68	39742.54
549.88	40528.96
550.08	39320.66
550.28	39967.82
550.48	39799.88
550.68	39939.15
550.88	39531.6
551.08	39558.22
551.279	39947.34
551.479	39081.05
551.679	39887.95
551.879	39535.7
552.079	39928.91
552.278	39597.13
552.478	39830.6
552.678	39337.04
552.878	39746.64
553.077	39720.01
553.277	39240.79
553.477	39830.6
553.676	39625.81
553.876	39674.96
554.076	39287.89
554.275	39341.14
554.475	38929.5
554.674	39564.37
554.874	39568.46
555.074	39390.29
555.273	39464.02
555.473	39812.17
555.672	39052.37
555.872	39027.8
556.071	39533.65
556.271	39414.87
556.47	39001.18
556.67	38702.17
556.869	39050.33
557.068	39230.55
557.268	39128.15
557.467	38825.05
557.667	39167.06
557.866	38837.34
558.065	38681.69
558.265	38442.08
558.464	38464.61
558.663	38734.94
558.863	38405.22
559.062	38831.19
559.261	38149.22
559.461	38685.79
559.66	38175.84
559.859	38868.06
560.058	38087.78
560.258	38366.31
560.457	37919.85
560.656	38044.77
560.855	37921.9
561.054	38206.56
561.253	37805.16
561.453	37852.27
561.652	38071.4
561.851	37882.98
562.05	37719.15
562.249	37440.62
562.448	37758.06
562.647	37633.13
562.846	37565.55
563.045	37495.92
563.244	37067.89
563.443	37680.24
563.642	37076.08
563.841	37432.43
564.04	36998.26
564.239	37610.6
564.438	36883.58
564.637	37106.8
564.836	36820.09
565.035	37155.96
565.234	36916.34
565.432	36777.08
565.631	36445.31
565.83	36818.04
566.029	36502.65
566.228	36535.42
566.427	36410.5
566.625	36267.14
566.824	35679.37
567.023	36490.37
567.222	35624.08
567.42	36281.47
567.619	36021.38
567.818	35683.47
568.016	35695.75
568.215	36295.81
568.414	35656.84
568.612	35757.19
568.811	35335.31
569.01	35630.22
569.208	35269.78
569.407	35548.3
569.605	34577.56
569.804	35493.01
570.002	34935.96
570.201	35173.52
570.4	34938.01
570.598	34372.77
570.797	34606.23
570.995	35120.27
571.193	34333.85
571.392	35073.17
571.59	34368.67
571.789	34620.57
571.987	34411.68
572.186	34561.18
572.384	33903.78
572.582	34065.57
572.781	34045.09
572.979	33854.63
573.177	33660.07
573.376	33965.22
573.574	33926.31
573.772	33936.55
573.971	33529
574.169	33289.39
574.367	33244.34
574.565	33410.22
574.763	33307.82
574.962	33414.32
575.16	32750.77
575.358	33078.45
575.556	32926.9
575.754	33369.26
575.952	32912.56
576.151	33072.31
576.349	32781.49
576.547	32443.58
576.745	32478.4
576.943	32623.8
577.141	32464.06
577.339	32109.76
577.537	32255.17
577.735	32003.27
577.933	31861.96
578.131	32060.61
578.329	31876.29
578.527	31728.84
578.725	31591.62
578.923	32038.08
579.121	31464.65
579.319	31800.52
579.516	31679.69
579.714	31591.62
579.912	31585.48
580.11	31044.82
580.308	31227.09
580.506	31093.97
580.704	30631.13
580.901	31266
581.099	30936.27
581.297	30504.15
581.495	30641.37
581.692	31374.54
581.89	30407.9
582.088	30782.68
582.285	30219.49
582.483	30596.31
582.681	30366.94
582.878	30180.57
583.076	30229.73
583.274	30151.9
583.471	29584.62
583.669	29791.46
583.866	29842.66
584.064	29957.35
584.262	29371.63
584.459	29871.33
584.657	29422.83
584.854	29715.69
585.052	29220.08
585.249	29363.43
585.447	28873.97
585.644	29035.76
585.841	29101.29
586.039	29478.12
586.236	28988.66
586.434	29209.84
586.631	28747
586.828	28658.93
587.026	28839.15
587.223	28667.13
587.42	28650.74
587.618	28456.18
587.815	28384.51
588.012	28398.84
588.21	28050.69
588.407	28413.18
588.604	28073.21
588.801	27831.55
588.999	27925.76
589.196	27833.6
589.393	27702.53
589.59	27815.17
589.787	27462.92
589.984	27550.98
590.182	27381
590.379	27499.78
590.576	27362.57
590.773	27479.3
590.97	26858.77
591.167	27305.23
591.364	26975.5
591.561	27110.67
591.758	26778.9
591.955	26641.68
592.152	27102.48
592.349	26711.32
592.546	26823.95
592.743	26543.38
592.94	26404.12
593.137	26426.65
593.334	26563.86
593.531	26203.42
593.727	26258.71
593.924	26070.3
594.121	26027.29
594.318	26115.36
594.515	25756.96
594.712	25859.36
594.908	25574.69
595.105	25668.9
595.302	25627.94
595.499	25611.56
595.696	25261.35
595.892	25206.06
596.089	25449.77
596.286	25199.91
596.482	25054.51
596.679	25290.02
596.876	25052.46
597.072	24933.68
597.269	25156.91
597.466	24577.33
597.662	24542.52
597.859	25003.31
598.055	24798.51
598.252	24497.46
598.448	24634.67
598.645	24616.24
598.841	24059.2
599.038	24628.53
599.234	24214.84
599.431	23754.05
599.627	23985.47
599.824	23735.62
600.02	24046.91
600.217	23954.75
600.413	23797.06
600.609	23852.35
600.806	23467.33
601.002	23743.81
601.198	23407.94
601.395	23397.7
601.591	23403.85
601.787	23657.79
601.984	22873.42
602.18	23346.5
602.376	23102.79
602.572	22740.3
602.769	23399.75
602.965	22928.72
603.161	22895.95
603.357	22762.83
603.553	22805.84
603.75	22918.48
603.946	22560.08
604.142	22768.98
604.338	22101.34
604.534	22472.02
604.73	22345.05
604.926	22173.02
605.122	22183.26
605.318	22130.01
605.514	22193.5
605.71	21833.05
605.906	21812.57
606.102	21912.92
606.298	22066.52
606.494	21765.47
606.69	21681.5
606.886	21781.85
607.082	21351.78
607.278	21888.35
607.474	21341.54
607.67	21448.04
607.866	21351.78
608.062	21562.72
608.257	20993.39
608.453	21187.94
608.649	21257.57
608.845	21101.93
609.041	21026.15
609.236	21323.11
609.432	21179.75
609.628	21134.7
609.824	20772.21
610.019	20770.16
610.215	20893.04
610.411	21017.96
610.606	20794.73
610.802	20712.81
610.998	20827.5
611.193	20893.04
611.389	20680.05
611.584	20489.59
611.78	20551.03
611.976	20522.35
612.171	20462.96
612.367	20360.56
612.562	20331.89
612.758	20335.99
612.953	20077.94
613.149	20229.49
613.344	20049.27
613.539	20374.9
613.735	20288.89
613.93	20151.67
614.126	20434.29
614.321	20319.6
614.517	19907.96
614.712	20114.81
614.907	19955.07
615.103	19901.82
615.298	19981.69
615.493	20133.24
615.688	19633.54
615.884	19844.48
616.079	19602.82
616.274	19684.73
616.47	19744.13
616.665	19715.45
616.86	19735.93
617.055	19537.28
617.25	19504.51
617.445	19555.71
617.641	19242.37
617.836	19348.87
618.031	19269
618.226	19309.96
618.421	19234.18
618.616	19391.87
618.811	19119.49
619.006	19287.43
619.201	18853.26
619.396	18974.09
619.591	18853.26
619.786	18984.33
619.981	18580.88
620.176	18810.25
620.371	18568.59
620.566	18599.31
620.761	18202
620.956	18470.29
621.151	18224.53
621.346	18324.88
621.541	17966.49
621.735	18120.09
621.93	17587.61
622.125	17937.82
622.32	17708.44
622.515	17647.01
622.709	17620.38
622.904	17536.42
623.099	17429.92
623.294	17268.13
623.488	16995.75
623.683	16926.12
623.878	16897.45
624.072	17284.51
624.267	16883.11
624.462	17051.05
624.656	16336.31
624.851	16729.52
625.046	16412.08
625.24	16350.64
625.435	16205.24
625.629	16248.24
625.824	16205.24
626.018	16498.09
626.213	15973.81
626.407	15912.38
626.602	15705.53
626.796	15875.51
626.991	15936.95
627.185	15685.05
627.38	15517.12
627.574	15384
627.768	15402.43
627.963	15019.46
628.157	14859.72
628.352	15261.12
628.546	14908.87
628.74	15041.99
628.935	14603.72
629.129	14798.28
629.323	14544.33
629.517	14495.18
629.712	14579.15
629.906	14370.26
630.1	14235.09
630.294	14421.45
630.489	14257.62
630.683	14216.66
630.877	14196.18
631.071	13989.33
631.265	13843.93
631.459	13690.33
631.653	13872.6
631.848	13811.16
632.042	13643.23
632.236	13731.29
632.43	13432.29
632.624	13618.65
632.818	13376.99
633.012	13235.68
633.206	13409.76
633.4	13204.96
633.594	12965.35
633.788	12959.2
633.982	13139.43
634.176	13034.98
634.369	12727.78
634.563	12994.02
634.757	12795.37
634.951	12803.56
635.145	12617.19
635.339	12647.91
635.533	12512.75
635.726	12414.45
635.92	12164.59
636.114	12199.41
636.308	12185.07
636.501	12537.32
636.695	12058.1
636.889	12180.98
637.083	12019.19
637.276	11912.69
637.47	11777.53
637.664	11630.07
637.857	11709.94
638.051	11836.92
638.244	11521.53
638.438	11628.03
638.632	11412.99
638.825	11247.1
639.019	11314.69
639.212	11279.87
639.406	11234.82
639.599	11171.33
639.793	11200
639.986	10989.06
640.18	11177.47
640.373	10991.11
640.567	10790.41
640.76	10827.27
640.954	10767.88
641.147	10776.07
641.34	10640.9
641.534	10638.86
641.727	10671.62
641.92	10577.42
642.114	10573.32
642.307	10276.37
642.5	10454.54
642.694	10257.93
642.887	10077.71
643.08	10264.08
643.273	9960.98
643.467	10067.47
643.66	9952.79
643.853	9887.25
644.046	9700.89
644.239	9887.25
644.432	9891.35
644.626	9854.48
644.819	9721.37
645.012	9729.56
645.205	9612.82
645.398	9586.2
645.591	9526.81
645.784	9727.51
645.977	9485.85
646.17	9301.53
646.363	9248.29
646.556	9301.53
646.749	9190.94
646.942	9342.49
647.135	9125.41
647.328	9094.69
647.521	9012.77
647.714	8943.14
647.907	9018.91
648.099	8775.2
648.292	8928.8
648.485	8797.73
648.678	8824.36
648.871	8721.96
649.064	8824.36
649.256	8807.97
649.449	8613.42
649.642	8799.78
649.835	8363.56
650.027	8271.4
650.22	8515.11
650.413	8392.23
650.605	8343.08
650.798	8343.08
650.991	8130.09
651.183	8306.22
651.376	7992.88
651.568	7966.26
651.761	8171.05
651.954	8027.7
652.146	8027.7
652.339	8021.55
652.531	7839.28
652.724	7755.32
652.916	7720.5
653.109	7867.95
653.301	7775.8
653.494	7720.5
653.686	7681.59
653.879	7521.85
654.071	7558.71
654.263	7583.29
654.456	7728.69
654.648	7605.81
654.84	7378.49
655.033	7403.07
655.225	7321.15
655.417	7300.67
655.61	7450.17
655.802	7372.35
655.994	7276.09
656.186	7159.36
656.379	7245.37
656.571	7099.97
656.763	7048.77
656.955	7081.53
657.148	6993.47
657.34	7048.77
657.532	6870.59
657.724	6956.61
657.916	7036.48
658.108	6880.83
658.3	6626.89
658.492	6817.35
658.684	6612.55
658.876	6700.61
659.068	6737.48
659.26	6614.6
659.452	6540.87
659.644	6522.44
659.836	6522.44
660.028	6481.48
660.22	6413.9
660.412	6327.88
660.604	6491.72
660.796	6473.29
660.988	6309.45
661.18	6233.68
661.372	6227.53
661.563	6245.96
661.755	6207.05
661.947	6159.95
662.139	6053.45
662.331	6039.12
662.522	6059.6
662.714	6092.37
662.906	5924.43
663.097	5953.1
663.289	5781.07
663.481	5772.88
663.673	5858.9
663.864	5801.55
664.056	5791.31
664.247	5785.17
664.439	5910.1
664.631	5762.64
664.822	5762.64
665.014	5824.08
665.205	5625.43
665.397	5787.22
665.588	5670.48
665.78	5527.13
665.971	5678.68
666.163	5414.49
666.354	5520.98
666.546	5604.95
666.737	5328.47
666.929	5420.63
667.12	5371.48
667.311	5324.38
667.503	5428.82
667.694	5459.54
667.885	5150.3
668.077	5310.04
668.268	5205.6
668.459	5195.36
668.651	5168.73
668.842	5131.87
669.033	5172.83
669.224	5125.72
669.416	5238.36
669.607	5101.15
669.798	5072.48
669.989	5084.77
670.18	4929.12
670.371	4740.71
670.563	4890.21
670.754	5006.94
670.945	4843.1
671.136	4949.6
671.327	4767.33
671.518	4802.15
671.709	4761.19
671.9	4873.82
672.091	4714.08
672.282	4781.67
672.473	4664.93
672.664	4722.27
672.855	4730.47
673.046	4634.21
673.237	4765.28
673.428	4599.4
673.619	4673.12
673.809	4640.36
674	4669.03
674.191	4591.2
674.382	4640.36
674.573	4533.86
674.764	4644.45
674.954	4574.82
675.145	4568.68
675.336	4497
675.527	4601.44
675.717	4521.57
675.908	4400.74
676.099	4523.62
676.289	4357.74
676.48	4431.46
676.671	4423.27
676.861	4390.5
677.052	4124.27
677.243	4228.71
677.433	4216.43
677.624	4445.8
677.814	4337.26
678.005	4370.02
678.195	4378.22
678.386	4255.34
678.576	4169.32
678.767	4312.68
678.957	4216.43
679.148	4296.3
679.338	4269.67
679.529	4200.04
679.719	4185.71
679.909	4202.09
680.1	4038.25
680.29	4187.75
680.481	4134.51
680.671	4126.32
680.861	4040.3
681.052	4085.36
681.242	4060.78
681.432	3956.33
681.622	3880.56
681.813	4060.78
682.003	3956.33
682.193	4046.44
682.383	4091.5
682.573	3944.05
682.764	3960.43
682.954	4023.92
683.144	3921.52
683.334	3835.5
683.524	4009.58
683.714	3933.81
683.904	3853.94
684.094	3976.81
684.284	3954.29
684.474	3950.19
684.664	3747.44
684.854	3907.18
685.044	3821.17
685.234	3710.58
685.424	3878.51
685.614	3774.07
685.804	3823.22
685.994	3898.99
686.184	3696.24
686.374	3769.97
686.564	3690.1
686.753	3788.4
686.943	3718.77
687.133	3706.48
687.323	3790.45
687.513	3610.23
687.702	3634.8
687.892	3550.84
688.082	3610.23
688.272	3640.95
688.461	3581.56
688.651	3612.28
688.841	3411.57
689.03	3503.73
689.22	3436.15
689.41	3520.12
689.599	3415.67
689.789	3411.57
689.979	3462.77
690.168	3485.3
690.358	3417.72
690.547	3319.42
690.737	3358.33
690.926	3331.7
691.116	3272.31
691.305	3290.74
691.495	3241.59
691.684	3047.04
691.874	3235.45
692.063	3229.31
692.252	3161.72
692.442	3186.3
692.631	3182.2
692.82	3294.84
693.01	3151.48
693.199	3282.55
693.388	3073.66
693.578	3098.24
693.767	3202.68
693.956	3155.58
694.146	3161.72
694.335	3077.76
694.524	3049.08
694.713	3083.9
694.902	3026.56
695.092	3171.96
695.281	2889.34
695.47	2885.25
695.659	2879.1
695.848	2971.26
696.037	2938.49
696.226	3038.84
696.415	2926.21
696.604	2881.15
696.793	2975.36
696.982	2924.16
697.171	2948.73
697.36	2883.2
697.549	2836.1
697.738	2801.28
697.927	2870.91
698.116	2958.97
698.305	2893.44
698.494	2918.01
698.683	2754.18
698.872	2844.29
699.061	2909.82
699.25	2735.74
699.438	2696.83
699.627	2692.74
699.816	2713.22
700.005	2709.12
700.193	2860.67
700.382	2707.07
700.571	2588.29
700.76	2838.14
700.948	2836.1
701.137	2795.14
701.326	2737.79
701.514	2655.87
701.703	2563.72
701.892	2629.25
702.08	2676.35
702.269	2786.94
702.457	2651.78
702.646	2668.16
702.834	2700.93
703.023	2674.31
703.212	2762.37
703.4	2694.79
703.589	2745.98
703.777	2647.68
703.965	2705.03
704.154	2743.94
704.342	2700.93
704.531	2752.13
704.719	2539.14
704.907	2725.51
705.096	2649.73
705.284	2551.43
705.472	2594.44
705.661	2619.01
705.849	2647.68
706.037	2682.5
706.226	2539.14
706.414	2639.49
706.602	2569.86
706.79	2733.7
706.979	2610.82
707.167	2598.53
707.355	2557.57
707.543	2657.92
707.731	2678.4
707.919	2625.15
708.107	2619.01
708.296	2633.35
708.484	2637.44
708.672	2647.68
708.86	2651.78
709.048	2623.11
709.236	2664.07
709.424	2688.64
709.612	2672.26
709.8	2588.29
709.988	2637.44
710.176	2657.92
710.364	2586.24
710.551	2602.63
710.739	2494.08
710.927	2571.91
711.115	2524.8
711.303	2537.09
711.491	2559.62
711.679	2479.75
711.866	2541.19
712.054	2539.14
712.242	2508.42
712.43	2508.42
712.617	2545.28
712.805	2692.74
712.993	2381.45
713.181	2430.6
713.368	2543.24
713.556	2504.32
713.744	2449.03
713.931	2639.49
714.119	2649.73
714.306	2516.61
714.494	2533
714.682	2487.94
714.869	2512.52
715.057	2580.1
715.244	2389.64
715.432	2555.52
715.619	2598.53
715.807	2522.76
715.994	2549.38
716.182	2535.04
716.369	2563.72
716.556	2604.67
716.744	2535.04
716.931	2569.86
717.119	2549.38
717.306	2592.39
717.493	2604.67
717.681	2596.48
717.868	2592.39
718.055	2496.13
718.242	2627.2
718.43	2602.63
718.617	2494.08
718.804	2506.37
718.991	2547.33
719.179	2567.81
719.366	2475.65
719.553	2578.05
719.74	2602.63
719.927	2539.14
720.114	2528.9
720.301	2473.6
720.488	2535.04
720.676	2492.04
720.863	2578.05
721.05	2516.61
721.237	2494.08
721.424	2594.44
721.611	2545.28
721.798	2598.53
721.985	2410.12
722.172	2561.67
722.358	2549.38
722.545	2543.24
722.732	2530.95
722.919	2461.32
723.106	2580.1
723.293	2588.29
723.48	2496.13
723.667	2557.57
723.853	2549.38
724.04	2489.99
724.227	2606.72
724.414	2543.24
724.6	2469.51
724.787	2641.54
724.974	2586.24
725.161	2496.13
725.347	2457.22
725.534	2487.94
725.72	2526.85
725.907	2596.48
726.094	2481.8
726.28	2582.15
726.467	2571.91
726.653	2616.96
726.84	2516.61
727.027	2625.15
727.213	2520.71
727.4	2713.22
727.586	2533
727.773	2557.57
727.959	2625.15
728.145	2545.28
728.332	2569.86
728.518	2508.42
728.705	2684.55
728.891	2635.39
729.077	2551.43
729.264	2541.19
729.45	2510.47
729.636	2639.49
729.823	2608.77
730.009	2614.91
730.195	2676.35
730.382	2590.34
730.568	2635.39
730.754	2512.52
730.94	2541.19
731.126	2561.67
731.313	2496.13
731.499	2612.87
731.685	2576
731.871	2516.61
732.057	2569.86
732.243	2606.72
732.429	2446.98
732.615	2633.35
732.801	2696.83
732.987	2619.01
733.173	2487.94
733.359	2440.84
733.545	2655.87
733.731	2473.6
733.917	2551.43
734.103	2664.07
734.289	2535.04
734.475	2508.42
734.661	2569.86
734.847	2686.59
735.033	2641.54
735.219	2602.63
735.404	2582.15
735.59	2700.93
735.776	2573.96
735.962	2725.51
736.148	2623.11
736.333	2547.33
736.519	2504.32
736.705	2436.74
736.89	2586.24
737.076	2489.99
737.262	2455.17
737.447	2516.61
737.633	2563.72
737.819	2668.16
738.004	2612.87
738.19	2449.03
738.375	2533
738.561	2655.87
738.747	2475.65
738.932	2543.24
739.118	2539.14
739.303	2539.14
739.489	2500.23
739.674	2557.57
739.859	2508.42
740.045	2428.55
740.23	2475.65
740.416	2598.53
740.601	2563.72
740.786	2555.52
740.972	2494.08
741.157	2498.18
741.342	2369.16
741.528	2500.23
741.713	2602.63
741.898	2428.55
742.084	2403.97
742.269	2444.93
742.454	2424.45
742.639	2449.03
742.824	2299.53
743.01	2363.01
743.195	2485.89
743.38	2377.35
743.565	2424.45
743.75	2451.08
743.935	2385.54
744.12	2352.77
744.305	2258.57
744.49	2301.58
744.675	2352.77
744.86	2455.17
745.045	2340.49
745.23	2215.56
745.415	2410.12
745.6	2401.93
745.785	2260.62
745.97	2311.82
746.155	2186.89
746.34	2309.77
746.525	2242.18
746.71	2279.05
746.895	2270.86
747.079	2254.47
747.264	2125.45
747.449	2137.74
747.634	2025.1
747.819	2098.83
748.003	2113.16
748.188	2121.35
748.373	2174.6
748.557	2088.59
748.742	1992.33
748.927	2031.24
749.111	2090.63
749.296	2150.03
749.481	2029.2
749.665	2053.77
749.85	2129.55
750.034	1939.09
750.219	1996.43
750.404	1998.48
750.588	2043.53
750.773	1908.37
750.957	1881.74
751.141	1939.09
751.326	1951.37
751.51	1967.76
751.695	1881.74
751.879	1855.12
752.064	1951.37
752.248	1902.22
752.432	1924.75
752.617	1840.78
752.801	1891.98
752.985	1785.49
753.17	1826.45
753.354	1797.78
753.538	1881.74
753.722	1748.62
753.907	1775.25
754.091	1699.47
754.275	1695.38
754.459	1738.38
754.643	1814.16
754.828	1730.19
755.012	1789.58
755.196	1746.58
755.38	1656.47
755.564	1584.79
755.748	1547.92
755.932	1672.85
756.116	1605.27
756.3	1648.27
756.484	1607.31
756.668	1695.38
756.852	1468.05
757.036	1504.92
757.22	1519.25
757.404	1547.92
757.588	1504.92
757.772	1537.68
757.956	1529.49
758.14	1595.03
758.323	1490.58
758.507	1416.85
758.691	1560.21
758.875	1558.16
759.059	1431.19
759.242	1533.59
759.426	1357.46
759.61	1484.44
759.794	1357.46
759.977	1461.91
760.161	1496.72
760.345	1455.76
760.528	1474.2
760.712	1312.41
760.895	1449.62
761.079	1375.89
761.263	1316.5
761.446	1320.6
761.63	1349.27
761.813	1326.74
761.997	1336.98
762.18	1361.56
762.364	1365.65
762.547	1263.26
762.731	1310.36
762.914	1189.53
763.098	1308.31
763.281	1334.93
763.464	1185.43
763.648	1279.64
763.831	1259.16
764.015	1189.53
764.198	1271.45
764.381	1191.58
764.564	1236.63
764.748	1230.49
764.931	1142.43
765.114	1234.58
765.297	1214.1
765.481	1205.91
765.664	1162.9
765.847	1257.11
766.03	1136.28
766.213	1169.05
766.397	1123.99
766.58	1052.31
766.763	1156.76
766.946	1154.71
767.129	1113.75
767.312	1060.51
767.495	1080.99
767.678	1031.83
767.861	1144.47
768.044	1152.67
768.227	1134.23
768.41	1136.28
768.593	1103.51
768.776	1066.65
768.959	1089.18
769.142	1144.47
769.324	1048.22
769.507	1064.6
769.69	1033.88
769.873	1089.18
770.056	1052.31
770.239	1013.4
770.421	1132.19
770.604	1046.17
770.787	1083.03
770.97	1007.26
771.152	970.4
771.335	1052.31
771.518	1003.16
771.7	1015.45
771.883	984.73
772.066	1001.12
772.248	1087.13
772.431	1009.31
772.613	958.11
772.796	929.44
772.978	984.73
773.161	988.83
773.343	908.96
773.526	964.25
773.708	980.64
773.891	941.72
774.073	925.34
774.256	886.43
774.438	913.05
774.621	911
774.803	876.19
774.985	868
775.168	943.77
775.35	831.13
775.532	915.1
775.715	796.32
775.897	894.62
776.079	927.39
776.261	855.71
776.444	839.33
776.626	771.74
776.808	855.71
776.99	855.71
777.173	820.89
777.355	857.76
777.537	769.69
777.719	775.84
777.901	775.84
778.083	687.78
778.265	769.69
778.447	802.46
778.629	824.99
778.811	790.17
778.993	767.65
779.175	771.74
779.357	695.97
779.539	749.22
779.721	730.78
779.903	777.89
780.085	716.45
780.267	722.59
780.449	728.74
780.631	726.69
780.812	687.78
780.994	734.88
781.176	743.07
781.358	671.39
781.54	665.25
781.721	665.25
781.903	663.2
782.085	632.48
782.267	706.21
782.448	648.86
782.63	622.24
782.812	636.58
782.993	736.93
783.175	636.58
783.357	589.47
783.538	646.82
783.72	593.57
783.901	583.33
784.083	603.81
784.264	591.52
784.446	493.22
784.627	618.15
784.809	538.27
784.99	546.47
785.172	536.23
785.353	583.33
785.535	593.57
785.716	519.84
785.897	525.99
786.079	556.71
786.26	509.6
786.441	556.71
786.623	550.56
786.804	550.56
786.985	468.64
787.167	472.74
787.348	532.13
787.529	560.8
787.71	509.6
787.891	491.17
788.073	511.65
788.254	462.5
788.435	460.45
788.616	452.26
788.797	536.23
788.978	433.83
789.159	425.64
789.34	521.89
789.522	405.16
789.703	409.25
789.884	388.77
790.065	523.94
790.246	476.84
790.427	407.2
790.607	468.64
790.788	560.8
790.969	456.36
791.15	382.63
791.331	485.03
791.512	358.05
791.693	360.1
791.874	407.2
792.054	460.45
792.235	411.3
792.416	439.97
792.597	368.29
792.778	417.44
792.958	425.64
793.139	347.81
793.32	337.57
793.5	376.48
793.681	415.4
793.862	405.16
794.042	386.72
794.223	327.33
794.404	407.2
794.584	364.2
794.765	343.72
794.945	327.33
795.126	378.53
795.306	329.38
795.487	310.95
795.667	308.9
795.848	288.42
796.028	356.01
796.209	317.09
796.389	384.68
796.57	310.95
796.75	313
796.93	327.33
797.111	366.25
797.291	253.61
797.471	339.62
797.652	368.29
797.832	294.57
798.012	349.86
798.192	323.24
798.373	329.38
798.553	267.94
798.733	347.81
798.913	308.9
799.093	243.37
799.274	284.33
799.454	323.24
799.634	245.41
799.814	288.42
799.994	255.65
800.174	323.24
800.354	231.08
800.534	237.22
800.714	263.85
800.894	294.57
801.074	286.37
801.254	296.61
801.434	313
801.614	284.33
801.794	239.27
801.974	698.02
802.154	210.6
802.334	300.71
802.514	296.61
802.693	286.37
802.873	286.37
803.053	263.85
803.233	308.9
803.413	300.71
803.592	208.55
803.772	294.57
803.952	265.89
804.131	280.23
804.311	251.56
804.491	286.37
804.67	235.18
804.85	317.09
805.03	224.94
805.209	233.13
805.389	231.08
805.568	226.98
805.748	241.32
805.928	276.13
806.107	272.04
806.287	190.12
806.466	202.41
806.646	206.5
806.825	157.35
807.004	229.03
807.184	138.92
807.363	200.36
807.543	194.22
807.722	272.04
807.901	243.37
808.081	257.7
808.26	231.08
808.439	321.19
808.619	265.89
808.798	157.35
808.977	165.54
809.156	251.56
809.336	272.04
809.515	194.22
809.694	147.11
809.873	280.23
810.052	222.89
810.231	296.61
810.411	235.18
810.59	249.51
810.769	272.04
810.948	226.98
811.127	149.16
811.306	196.26
811.485	190.12
811.664	286.37
811.843	85.67
812.022	165.54
812.201	202.41
812.38	165.54
812.559	165.54
812.737	222.89
812.916	138.92
813.095	202.41
813.274	237.22
813.453	263.85
813.632	171.69
813.811	218.79
813.989	124.58
814.168	179.88
814.347	165.54
814.526	128.68
814.704	245.41
814.883	134.82
815.062	138.92
815.24	194.22
815.419	190.12
815.598	120.49
815.776	100.01
815.955	239.27
816.133	122.54
816.312	122.54
816.49	104.11
816.669	151.21
816.847	110.25
817.026	173.74
817.204	179.88
817.383	102.06
817.561	140.97
817.74	224.94
817.918	128.68
818.097	188.07
818.275	177.83
818.453	85.67
818.632	134.82
818.81	100.01
818.988	151.21
819.167	108.2
819.345	181.93
819.523	110.25
819.701	202.41
819.879	177.83
820.058	130.73
820.236	102.06
820.414	159.4
820.592	112.3
820.77	171.69
820.948	128.68
821.127	79.53
821.305	106.15
821.483	120.49
821.661	124.58
821.839	50.86
822.017	171.69
822.195	122.54
822.373	237.22
822.551	52.91
822.729	151.21
822.907	145.06
823.085	132.78
823.262	42.67
823.44	85.67
823.618	153.26
823.796	165.54
823.974	149.16
824.152	145.06
824.329	130.73
824.507	124.58
824.685	122.54
824.863	149.16
825.04	54.95
825.218	118.44
825.396	57
825.574	132.78
825.751	132.78
825.929	147.11
826.107	136.87
826.284	147.11
826.462	153.26
826.639	48.81
826.817	134.82
826.994	132.78
827.172	69.29
827.349	157.35
827.527	65.19
827.704	52.91
827.882	75.43
828.059	132.78
828.237	61.1
828.414	57
828.591	81.58
828.769	73.39
828.946	112.3
829.124	73.39
829.301	100.01
829.478	71.34
829.655	122.54
829.833	128.68
830.01	50.86
830.187	155.3
830.364	57
830.542	149.16
830.719	75.43
830.896	81.58
831.073	106.15
831.25	126.63
831.427	128.68
831.604	153.26
831.782	69.29
831.959	138.92
832.136	122.54
832.313	116.39
832.49	50.86
832.667	89.77
832.844	63.15
833.021	132.78
833.198	89.77
833.374	54.95
833.551	48.81
833.728	104.11
833.905	100.01
834.082	102.06
834.259	93.87
834.436	69.29
834.612	50.86
834.789	95.91
834.966	112.3
835.143	87.72
835.319	-12.63
835.496	128.68
835.673	136.87
835.85	179.88
836.026	73.39
836.203	93.87
836.38	104.11
836.556	114.34
836.733	91.82
836.909	97.96
837.086	59.05
837.262	136.87
837.439	50.86
837.616	-26.96
837.792	57
837.968	138.92
838.145	91.82
838.321	57
838.498	44.71
838.674	104.11
838.851	59.05
839.027	30.38
839.203	42.67
839.38	102.06
839.556	42.67
839.732	28.33
839.909	114.34
840.085	132.78
840.261	13.99
840.437	73.39
840.614	79.53
840.79	87.72
840.966	50.86
841.142	18.09
841.318	13.99
841.494	93.87
841.671	89.77
841.847	106.15
842.023	-2.39
842.199	32.43
842.375	48.81
842.551	104.11
842.727	50.86
842.903	126.63
843.079	34.47
843.255	102.06
843.431	46.76
843.607	63.15
843.783	77.48
843.959	120.49
844.134	108.2
844.31	36.52
844.486	11.95
844.662	73.39
844.838	73.39
845.013	81.58
845.189	36.52
845.365	71.34
845.541	1.71
845.716	89.77
845.892	69.29
846.068	42.67
846.244	42.67
846.419	-6.49
846.595	-18.77
846.77	65.19
846.946	100.01
847.122	151.21
847.297	13.99
847.473	61.1
847.648	9.9
847.824	63.15
847.999	59.05
848.175	3.75
848.35	95.91
848.526	136.87
848.701	67.24
848.876	38.57
849.052	1.71
849.227	28.33
849.403	11.95
849.578	75.43
849.753	34.47
849.929	110.25
850.104	57
850.279	54.95
850.454	100.01
850.63	69.29
850.805	63.15
850.98	-31.06
851.155	42.67
851.33	59.05
851.505	32.43
851.681	93.87
851.856	-6.49
852.031	79.53
852.206	57
852.381	54.95
852.556	26.28
852.731	130.73
852.906	48.81
853.081	-16.73
853.256	65.19
853.431	112.3
853.606	-0.34
853.781	34.47
853.956	102.06
854.131	16.04
854.305	7.85
854.48	38.57
854.655	28.33
854.83	36.52
855.005	-31.06
855.18	59.05
855.354	11.95
855.529	77.48
855.704	75.43
855.879	50.86
856.053	1.71
856.228	85.67
856.403	61.1
856.577	40.62
856.752	-4.44
856.926	22.19
857.101	57
857.276	-12.63
857.45	-41.3
857.625	20.14
857.799	54.95
857.974	-10.58
858.148	-8.53
858.323	46.76
858.497	16.04
858.672	11.95
858.846	30.38
859.02	34.47
859.195	-22.87
859.369	22.19
859.543	63.15
859.718	13.99
859.892	48.81
860.066	-2.39
860.241	50.86
860.415	38.57
860.589	24.23
860.763	-2.39
860.938	-43.35
861.112	1.71
861.286	16.04
861.46	3.75
861.634	48.81
861.808	16.04
861.982	52.91
862.157	-2.39
862.331	13.99
862.505	-31.06
862.679	13.99
862.853	69.29
863.027	77.48
863.201	118.44
863.375	3.75
863.549	13.99
863.722	87.72
863.896	9.9
864.07	-14.68
864.244	63.15
864.418	91.82
864.592	5.8
864.766	32.43
864.939	-33.11
865.113	9.9
865.287	104.11
865.461	114.34
865.634	48.81
865.808	75.43
865.982	52.91
866.156	-8.53
866.329	3.75
866.503	-2.39
866.676	11.95
866.85	-22.87
867.024	-20.82
867.197	16.04
867.371	-10.58
867.544	81.58
867.718	3.75
867.891	40.62
868.065	13.99
868.238	-35.16
868.412	67.24
868.585	-12.63
868.759	5.8
868.932	-6.49
869.105	20.14
869.279	3.75
869.452	-41.3
869.625	77.48
869.799	13.99
869.972	-20.82
870.145	-39.25
870.319	-2.39
870.492	-16.73
870.665	-4.44
870.838	3.75
871.011	-74.07
871.185	28.33
871.358	46.76
871.531	5.8
871.704	-6.49
871.877	42.67
872.05	-88.4
872.223	-22.87
872.396	1.71
872.569	22.19
872.742	-8.53
872.915	46.76
873.088	1.71
873.261	22.19
873.434	42.67
873.607	22.19
873.78	5.8
873.953	18.09
874.126	-26.96
874.299	-8.53
874.471	-37.2
874.644	-29.01
874.817	7.85
874.99	44.71
875.163	40.62
875.335	-10.58
875.508	-22.87
875.681	11.95
875.853	42.67
876.026	-47.44
876.199	13.99
876.371	20.14
876.544	24.23
876.717	65.19
876.889	46.76
877.062	52.91
877.234	-20.82
877.407	-51.54
877.579	28.33
877.752	-4.44
877.924	-12.63
878.097	40.62
878.269	46.76
878.442	40.62
878.614	26.28
878.786	-18.77
878.959	57
879.131	61.1
879.303	-6.49
879.476	3.75
879.648	-8.53
879.82	-26.96
879.993	30.38
880.165	-49.49
880.337	-12.63
880.509	73.39
880.681	-2.39
880.854	-35.16
881.026	30.38
881.198	28.33
881.37	5.8
881.542	3.75
881.714	26.28
881.886	-4.44
882.058	-51.54
882.23	-2.39
882.402	9.9
882.574	26.28
882.746	48.81
882.918	71.34
883.09	40.62
883.262	-4.44
883.434	26.28
883.606	48.81
883.778	-33.11
883.95	-22.87
884.122	63.15
884.293	20.14
884.465	11.95
884.637	106.15
884.809	-43.35
884.98	34.47
885.152	73.39
885.324	67.24
885.496	24.23
885.667	-6.49
885.839	-8.53
886.011	22.19
886.182	40.62
886.354	46.76
886.525	1.71
886.697	1.71
886.869	1.71
887.04	-16.73
887.212	42.67
887.383	20.14
887.555	28.33
887.726	3.75
887.897	22.19
888.069	1.71
888.24	34.47
888.412	5.8
888.583	22.19
888.754	7.85
888.926	-49.49
889.097	3.75
889.268	16.04
889.44	-14.68
889.611	-45.4
889.782	24.23
889.953	-2.39
890.125	52.91
890.296	-57.68
890.467	48.81
890.638	42.67
890.809	85.67
890.98	-18.77
891.151	18.09
891.323	-2.39
891.494	-35.16
891.665	3.75
891.836	24.23
892.007	-35.16
892.178	32.43
892.349	36.52
892.52	-22.87
892.691	3.75
892.862	-8.53
893.032	-31.06
893.203	-22.87
893.374	16.04
893.545	30.38
893.716	75.43
893.887	-31.06
894.057	-53.59
894.228	-22.87
894.399	40.62
894.57	24.23
894.74	-31.06
894.911	34.47
895.082	-8.53
895.253	16.04
895.423	-4.44
895.594	75.43
895.764	-63.83
895.935	-41.3
896.106	-22.87
896.276	57
896.447	-49.49
896.617	9.9
896.788	-4.44
896.958	28.33
897.129	-55.64
897.299	-47.44
897.47	38.57
897.64	22.19
897.81	9.9
897.981	1.71
898.151	-55.64
898.322	1.71
898.492	48.81
898.662	-41.3
898.832	-90.45
899.003	54.95
899.173	18.09
899.343	9.9
899.513	-43.35
