Data from USB4F104151__3__10-14-12-730.txt Node

Date: Wed Mar 12 10:14:12 EDT 2025
User: louis
Spectrometer: USB4F10415
Trigger mode: 4
Integration Time (sec): 7.000000E-3
Scans to average: 1
Electric dark correction enabled: true
Nonlinearity correction enabled: false
Boxcar width: 0
XAxis mode: Wavelengths
Number of Pixels in Spectrum: 3648
>>>>>Begin Spectral Data<<<<<
178.204	-37.72
178.424	-37.72
178.644	-37.72
178.864	-29.52
179.084	-76.63
179.304	64.68
179.524	7.34
179.744	23.72
179.964	15.53
180.184	3.24
180.404	-9.05
180.624	7.34
180.844	-15.19
181.064	9.39
181.283	-64.34
181.503	-25.43
181.723	-17.24
181.943	23.72
182.163	3.24
182.383	-13.14
182.602	15.53
182.822	-19.29
183.042	19.63
183.262	-0.85
183.482	56.49
183.701	-35.67
183.921	89.26
184.141	79.02
184.361	-41.81
184.58	13.48
184.8	-27.48
185.02	19.63
185.239	-15.19
185.459	-0.85
185.679	1.19
185.898	19.63
186.118	-0.85
186.338	74.92
186.557	-11.09
186.777	-0.85
186.997	17.58
187.216	-0.85
187.436	36.01
187.655	-11.09
187.875	-4.95
188.095	48.3
188.314	-27.48
188.534	-54.1
188.753	-64.34
188.973	-37.72
189.192	60.59
189.412	27.82
189.631	60.59
189.851	-90.96
190.07	15.53
190.29	7.34
190.509	52.39
190.729	46.25
190.948	56.49
191.168	-39.76
191.387	11.43
191.607	-70.48
191.826	21.67
192.045	-25.43
192.265	40.11
192.484	31.91
192.704	-17.24
192.923	-17.24
193.142	36.01
193.362	-0.85
193.581	7.34
193.8	-25.43
194.02	48.3
194.239	3.24
194.458	29.87
194.678	-9.05
194.897	23.72
195.116	21.67
195.335	44.2
195.555	17.58
195.774	17.58
195.993	64.68
196.212	58.54
196.432	62.63
196.651	44.2
196.87	9.39
197.089	-33.62
197.308	76.97
197.528	60.59
197.747	70.83
197.966	3.24
198.185	33.96
198.404	-0.85
198.623	-17.24
198.842	9.39
199.062	-23.38
199.281	79.02
199.5	44.2
199.719	56.49
199.938	7.34
200.157	27.82
200.376	-9.05
200.595	-19.29
200.814	29.87
201.033	-27.48
201.252	54.44
201.471	64.68
201.69	76.97
201.909	85.16
202.128	-4.95
202.347	64.68
202.566	85.16
202.785	36.01
203.004	-50
203.223	5.29
203.442	79.02
203.661	-45.91
203.879	-25.43
204.098	-4.95
204.317	-74.58
204.536	-21.33
204.755	7.34
204.974	25.77
205.193	54.44
205.411	-47.96
205.63	-13.14
205.849	-0.85
206.068	40.11
206.287	40.11
206.505	-54.1
206.724	15.53
206.943	-9.05
207.162	33.96
207.381	11.43
207.599	40.11
207.818	48.3
208.037	89.26
208.255	62.63
208.474	23.72
208.693	-25.43
208.911	48.3
209.13	-4.95
209.349	97.45
209.567	-50
209.786	38.06
210.005	7.34
210.223	11.43
210.442	-17.24
210.661	5.29
210.879	36.01
211.098	44.2
211.316	23.72
211.535	25.77
211.753	17.58
211.972	36.01
212.191	-9.05
212.409	19.63
212.628	89.26
212.846	23.72
213.065	48.3
213.283	5.29
213.502	11.43
213.72	-17.24
213.938	46.25
214.157	-39.76
214.375	-11.09
214.594	27.82
214.812	60.59
215.031	17.58
215.249	-21.33
215.467	-21.33
215.686	-17.24
215.904	40.11
216.122	-0.85
216.341	31.91
216.559	79.02
216.778	-11.09
216.996	50.35
217.214	7.34
217.432	25.77
217.651	-43.86
217.869	46.25
218.087	31.91
218.306	-4.95
218.524	48.3
218.742	-21.33
218.96	56.49
219.179	7.34
219.397	-4.95
219.615	13.48
219.833	62.63
220.051	11.43
220.27	15.53
220.488	40.11
220.706	74.92
220.924	-37.72
221.142	50.35
221.36	99.5
221.578	44.2
221.796	-11.09
222.015	31.91
222.233	44.2
222.451	38.06
222.669	56.49
222.887	19.63
223.105	85.16
223.323	48.3
223.541	66.73
223.759	-47.96
223.977	21.67
224.195	64.68
224.413	1.19
224.631	44.2
224.849	46.25
225.067	48.3
225.285	-39.76
225.503	44.2
225.721	91.31
225.939	21.67
226.157	-33.62
226.375	-0.85
226.592	-29.52
226.81	64.68
227.028	44.2
227.246	-47.96
227.464	64.68
227.682	42.15
227.9	-0.85
228.117	54.44
228.335	81.07
228.553	5.29
228.771	29.87
228.989	36.01
229.206	119.98
229.424	79.02
229.642	38.06
229.86	7.34
230.077	60.59
230.295	72.87
230.513	58.54
230.731	29.87
230.948	36.01
231.166	7.34
231.384	11.43
231.601	36.01
231.819	19.63
232.037	33.96
232.254	-27.48
232.472	-0.85
232.689	-15.19
232.907	62.63
233.125	27.82
233.342	15.53
233.56	5.29
233.777	83.11
233.995	72.87
234.213	60.59
234.43	-25.43
234.648	31.91
234.865	-25.43
235.083	11.43
235.3	46.25
235.518	64.68
235.735	-21.33
235.953	15.53
236.17	46.25
236.388	115.88
236.605	13.48
236.822	70.83
237.04	72.87
237.257	-21.33
237.475	79.02
237.692	46.25
237.909	15.53
238.127	21.67
238.344	-35.67
238.562	48.3
238.779	1.19
238.996	5.29
239.214	-25.43
239.431	85.16
239.648	-23.38
239.865	17.58
240.083	3.24
240.3	79.02
240.517	-58.2
240.735	33.96
240.952	-25.43
241.169	-64.34
241.386	48.3
241.603	36.01
241.821	19.63
242.038	-11.09
242.255	68.78
242.472	36.01
242.689	-9.05
242.907	79.02
243.124	-7
243.341	23.72
243.558	66.73
243.775	56.49
243.992	-37.72
244.209	56.49
244.426	50.35
244.643	9.39
244.86	-23.38
245.078	64.68
245.295	-45.91
245.512	19.63
245.729	-50
245.946	56.49
246.163	15.53
246.38	-27.48
246.597	-23.38
246.814	68.78
247.031	64.68
247.248	40.11
247.464	48.3
247.681	-17.24
247.898	-41.81
248.115	-21.33
248.332	3.24
248.549	19.63
248.766	36.01
248.983	101.55
249.2	23.72
249.417	-2.9
249.633	40.11
249.85	66.73
250.067	27.82
250.284	48.3
250.501	7.34
250.717	-9.05
250.934	-41.81
251.151	42.15
251.368	38.06
251.585	64.68
251.801	85.16
252.018	52.39
252.235	-4.95
252.451	62.63
252.668	101.55
252.885	44.2
253.102	46.25
253.318	27.82
253.535	-50
253.752	62.63
253.968	31.91
254.185	56.49
254.401	97.45
254.618	72.87
254.835	-25.43
255.051	85.16
255.268	-41.81
255.484	7.34
255.701	15.53
255.917	105.64
256.134	46.25
256.351	76.97
256.567	17.58
256.784	5.29
257	-2.9
257.217	-0.85
257.433	15.53
257.65	40.11
257.866	-50
258.082	15.53
258.299	52.39
258.515	-4.95
258.732	-4.95
258.948	-37.72
259.165	-2.9
259.381	-7
259.597	31.91
259.814	3.24
260.03	52.39
260.246	81.07
260.463	-11.09
260.679	-7
260.895	-29.52
261.112	7.34
261.328	23.72
261.544	89.26
261.761	31.91
261.977	76.97
262.193	7.34
262.409	56.49
262.626	5.29
262.842	-21.33
263.058	15.53
263.274	-29.52
263.49	-62.29
263.707	56.49
263.923	7.34
264.139	-66.39
264.355	33.96
264.571	-43.86
264.787	89.26
265.004	95.4
265.22	-2.9
265.436	31.91
265.652	27.82
265.868	13.48
266.084	40.11
266.3	27.82
266.516	9.39
266.732	13.48
266.948	-2.9
267.164	111.78
267.38	-17.24
267.596	46.25
267.812	46.25
268.028	58.54
268.244	40.11
268.46	76.97
268.676	48.3
268.892	99.5
269.108	23.72
269.324	38.06
269.54	17.58
269.756	46.25
269.972	11.43
270.188	-25.43
270.403	23.72
270.619	101.55
270.835	79.02
271.051	-2.9
271.267	42.15
271.483	42.15
271.698	-4.95
271.914	21.67
272.13	79.02
272.346	19.63
272.562	44.2
272.777	11.43
272.993	33.96
273.209	-29.52
273.425	109.74
273.64	97.45
273.856	-9.05
274.072	-27.48
274.287	23.72
274.503	40.11
274.719	46.25
274.934	-4.95
275.15	-27.48
275.366	23.72
275.581	89.26
275.797	-25.43
276.012	15.53
276.228	76.97
276.444	-41.81
276.659	72.87
276.875	-35.67
277.09	50.35
277.306	-0.85
277.521	40.11
277.737	-7
277.952	-27.48
278.168	76.97
278.383	44.2
278.599	5.29
278.814	76.97
279.03	13.48
279.245	76.97
279.461	64.68
279.676	23.72
279.892	-21.33
280.107	-13.14
280.322	-27.48
280.538	-2.9
280.753	13.48
280.969	31.91
281.184	11.43
281.399	17.58
281.615	122.02
281.83	15.53
282.045	15.53
282.26	23.72
282.476	-2.9
282.691	42.15
282.906	66.73
283.122	76.97
283.337	29.87
283.552	52.39
283.767	-27.48
283.983	60.59
284.198	56.49
284.413	64.68
284.628	-0.85
284.843	19.63
285.058	-0.85
285.274	93.35
285.489	9.39
285.704	-11.09
285.919	5.29
286.134	13.48
286.349	46.25
286.564	89.26
286.779	-4.95
286.995	46.25
287.21	-35.67
287.425	17.58
287.64	-17.24
287.855	19.63
288.07	40.11
288.285	64.68
288.5	13.48
288.715	27.82
288.93	-27.48
289.145	13.48
289.36	-45.91
289.575	27.82
289.79	76.97
290.004	38.06
290.219	17.58
290.434	85.16
290.649	-23.38
290.864	52.39
291.079	44.2
291.294	-41.81
291.509	13.48
291.724	31.91
291.938	-45.91
292.153	-64.34
292.368	48.3
292.583	-13.14
292.798	23.72
293.012	23.72
293.227	91.31
293.442	31.91
293.657	-25.43
293.871	19.63
294.086	38.06
294.301	13.48
294.516	-21.33
294.73	99.5
294.945	56.49
295.16	21.67
295.374	13.48
295.589	38.06
295.804	15.53
296.018	36.01
296.233	72.87
296.447	-13.14
296.662	113.83
296.877	-0.85
297.091	64.68
297.306	119.98
297.52	-4.95
297.735	62.63
297.949	13.48
298.164	58.54
298.378	-11.09
298.593	29.87
298.807	48.3
299.022	40.11
299.236	13.48
299.451	-11.09
299.665	79.02
299.88	48.3
300.094	74.92
300.309	33.96
300.523	-17.24
300.737	-2.9
300.952	130.22
301.166	15.53
301.381	36.01
301.595	29.87
301.809	46.25
302.024	60.59
302.238	62.63
302.452	25.77
302.667	31.91
302.881	48.3
303.095	23.72
303.309	-19.29
303.524	79.02
303.738	3.24
303.952	-17.24
304.166	15.53
304.381	23.72
304.595	95.4
304.809	66.73
305.023	46.25
305.237	62.63
305.452	19.63
305.666	91.31
305.88	40.11
306.094	46.25
306.308	56.49
306.522	33.96
306.736	31.91
306.95	7.34
307.164	29.87
307.379	70.83
307.593	64.68
307.807	48.3
308.021	13.48
308.235	62.63
308.449	64.68
308.663	-43.86
308.877	-33.62
309.091	13.48
309.305	31.91
309.519	-0.85
309.733	74.92
309.947	42.15
310.161	36.01
310.374	48.3
310.588	1.19
310.802	7.34
311.016	81.07
311.23	19.63
311.444	23.72
311.658	23.72
311.872	13.48
312.085	52.39
312.299	113.83
312.513	5.29
312.727	74.92
312.941	50.35
313.154	74.92
313.368	-13.14
313.582	-25.43
313.796	9.39
314.009	70.83
314.223	7.34
314.437	-47.96
314.651	23.72
314.864	21.67
315.078	33.96
315.292	7.34
315.505	97.45
315.719	44.2
315.933	29.87
316.146	-37.72
316.36	54.44
316.573	105.64
316.787	46.25
317.001	23.72
317.214	64.68
317.428	60.59
317.641	-37.72
317.855	11.43
318.068	-0.85
318.282	3.24
318.495	68.78
318.709	38.06
318.922	-23.38
319.136	50.35
319.349	64.68
319.563	52.39
319.776	31.91
319.99	48.3
320.203	36.01
320.417	3.24
320.63	70.83
320.843	-4.95
321.057	-21.33
321.27	31.91
321.483	13.48
321.697	-25.43
321.91	11.43
322.124	17.58
322.337	33.96
322.55	40.11
322.763	48.3
322.977	113.83
323.19	74.92
323.403	7.34
323.617	56.49
323.83	89.26
324.043	13.48
324.256	50.35
324.469	40.11
324.683	19.63
324.896	-4.95
325.109	89.26
325.322	11.43
325.535	27.82
325.748	50.35
325.962	74.92
326.175	19.63
326.388	74.92
326.601	-4.95
326.814	107.69
327.027	9.39
327.24	33.96
327.453	76.97
327.666	36.01
327.879	-27.48
328.092	62.63
328.305	64.68
328.518	83.11
328.731	-17.24
328.944	91.31
329.157	97.45
329.37	7.34
329.583	13.48
329.796	17.58
330.009	3.24
330.222	124.07
330.435	46.25
330.648	7.34
330.861	40.11
331.073	44.2
331.286	-25.43
331.499	31.91
331.712	64.68
331.925	85.16
332.138	79.02
332.35	46.25
332.563	44.2
332.776	-9.05
332.989	68.78
333.202	33.96
333.414	81.07
333.627	1.19
333.84	11.43
334.053	130.22
334.265	66.73
334.478	21.67
334.691	81.07
334.903	27.82
335.116	42.15
335.329	46.25
335.541	103.59
335.754	17.58
335.966	17.58
336.179	3.24
336.392	64.68
336.604	9.39
336.817	72.87
337.029	-35.67
337.242	76.97
337.454	48.3
337.667	36.01
337.88	50.35
338.092	-7
338.305	119.98
338.517	89.26
338.729	111.78
338.942	9.39
339.154	72.87
339.367	60.59
339.579	31.91
339.792	54.44
340.004	74.92
340.217	58.54
340.429	64.68
340.641	-21.33
340.854	81.07
341.066	-11.09
341.278	-27.48
341.491	81.07
341.703	44.2
341.915	11.43
342.128	76.97
342.34	-33.62
342.552	36.01
342.764	38.06
342.977	3.24
343.189	23.72
343.401	76.97
343.613	56.49
343.826	5.29
344.038	5.29
344.25	99.5
344.462	66.73
344.674	48.3
344.886	60.59
345.099	36.01
345.311	46.25
345.523	122.02
345.735	62.63
345.947	7.34
346.159	38.06
346.371	72.87
346.583	46.25
346.795	95.4
347.007	-9.05
347.219	-0.85
347.431	62.63
347.643	70.83
347.855	62.63
348.067	68.78
348.279	-27.48
348.491	76.97
348.703	3.24
348.915	72.87
349.127	23.72
349.339	5.29
349.551	56.49
349.763	44.2
349.975	13.48
350.187	40.11
350.399	-17.24
350.61	-23.38
350.822	50.35
351.034	62.63
351.246	40.11
351.458	113.83
351.669	42.15
351.881	95.4
352.093	5.29
352.305	46.25
352.517	60.59
352.728	48.3
352.94	38.06
353.152	97.45
353.363	83.11
353.575	7.34
353.787	27.82
353.999	48.3
354.21	19.63
354.422	-2.9
354.633	64.68
354.845	21.67
355.057	119.98
355.268	-39.76
355.48	-37.72
355.692	56.49
355.903	128.17
356.115	-0.85
356.326	19.63
356.538	23.72
356.749	7.34
356.961	36.01
357.172	21.67
357.384	42.15
357.595	64.68
357.807	40.11
358.018	29.87
358.23	7.34
358.441	42.15
358.653	97.45
358.864	31.91
359.075	-21.33
359.287	-47.96
359.498	33.96
359.709	-4.95
359.921	74.92
360.132	-9.05
360.344	52.39
360.555	56.49
360.766	31.91
360.977	-58.2
361.189	97.45
361.4	60.59
361.611	60.59
361.823	40.11
362.034	50.35
362.245	-9.05
362.456	60.59
362.667	40.11
362.879	68.78
363.09	76.97
363.301	115.88
363.512	48.3
363.723	72.87
363.935	27.82
364.146	60.59
364.357	68.78
364.568	97.45
364.779	23.72
364.99	13.48
365.201	29.87
365.412	81.07
365.623	5.29
365.834	76.97
366.045	31.91
366.256	-7
366.467	60.59
366.678	91.31
366.889	46.25
367.1	1.19
367.311	56.49
367.522	48.3
367.733	23.72
367.944	52.39
368.155	7.34
368.366	40.11
368.577	36.01
368.788	38.06
368.999	103.59
369.209	83.11
369.42	36.01
369.631	-62.29
369.842	-9.05
370.053	146.6
370.264	52.39
370.474	33.96
370.685	38.06
370.896	72.87
371.107	70.83
371.317	40.11
371.528	-43.86
371.739	68.78
371.95	-0.85
372.16	19.63
372.371	31.91
372.582	52.39
372.792	56.49
373.003	56.49
373.214	15.53
373.424	29.87
373.635	40.11
373.846	97.45
374.056	19.63
374.267	48.3
374.477	50.35
374.688	87.21
374.898	21.67
375.109	99.5
375.319	1.19
375.53	25.77
375.74	27.82
375.951	13.48
376.161	81.07
376.372	76.97
376.582	89.26
376.793	79.02
377.003	46.25
377.214	56.49
377.424	48.3
377.635	40.11
377.845	50.35
378.055	29.87
378.266	33.96
378.476	70.83
378.686	103.59
378.897	19.63
379.107	5.29
379.317	109.74
379.528	21.67
379.738	31.91
379.948	19.63
380.158	95.4
380.369	68.78
380.579	36.01
380.789	74.92
380.999	60.59
381.21	142.5
381.42	85.16
381.63	48.3
381.84	124.07
382.05	105.64
382.261	144.55
382.471	72.87
382.681	56.49
382.891	105.64
383.101	31.91
383.311	42.15
383.521	97.45
383.731	58.54
383.941	113.83
384.151	95.4
384.361	27.82
384.571	89.26
384.781	83.11
384.991	115.88
385.201	126.12
385.411	33.96
385.621	144.55
385.831	56.49
386.041	128.17
386.251	36.01
386.461	99.5
386.671	7.34
386.881	52.39
387.091	124.07
387.301	72.87
387.511	148.65
387.72	58.54
387.93	42.15
388.14	81.07
388.35	74.92
388.56	113.83
388.769	60.59
388.979	58.54
389.189	56.49
389.399	66.73
389.609	113.83
389.818	36.01
390.028	72.87
390.238	68.78
390.447	105.64
390.657	93.35
390.867	23.72
391.076	70.83
391.286	54.44
391.496	109.74
391.705	126.12
391.915	146.6
392.125	31.91
392.334	74.92
392.544	134.31
392.753	93.35
392.963	56.49
393.172	97.45
393.382	19.63
393.591	113.83
393.801	128.17
394.01	128.17
394.22	101.55
394.429	81.07
394.639	81.07
394.848	122.02
395.058	27.82
395.267	44.2
395.477	72.87
395.686	60.59
395.895	76.97
396.105	103.59
396.314	72.87
396.524	64.68
396.733	111.78
396.942	48.3
397.152	144.55
397.361	29.87
397.57	101.55
397.78	111.78
397.989	134.31
398.198	70.83
398.407	50.35
398.617	81.07
398.826	95.4
399.035	150.7
399.244	122.02
399.453	38.06
399.663	117.93
399.872	111.78
400.081	89.26
400.29	146.6
400.499	81.07
400.708	87.21
400.917	54.44
401.127	132.26
401.336	85.16
401.545	113.83
401.754	138.41
401.963	154.79
402.172	113.83
402.381	134.31
402.59	87.21
402.799	134.31
403.008	93.35
403.217	85.16
403.426	93.35
403.635	97.45
403.844	60.59
404.053	40.11
404.262	99.5
404.471	105.64
404.68	167.08
404.888	193.7
405.097	128.17
405.306	179.37
405.515	220.33
405.724	142.5
405.933	101.55
406.142	171.18
406.35	158.89
406.559	158.89
406.768	138.41
406.977	162.98
407.185	103.59
407.394	179.37
407.603	218.28
407.812	238.76
408.02	240.81
408.229	193.7
408.438	216.23
408.646	269.48
408.855	173.22
409.064	236.71
409.272	238.76
409.481	261.29
409.69	195.75
409.898	306.34
410.107	267.43
410.315	359.59
410.524	242.85
410.733	390.31
410.941	275.62
411.15	361.64
411.358	371.88
411.567	416.93
411.775	392.36
411.984	375.97
412.192	470.18
412.401	455.84
412.609	496.8
412.818	449.7
413.026	492.71
413.234	498.85
413.443	578.72
413.651	545.95
413.86	662.69
414.068	617.63
414.276	709.79
414.485	722.08
414.693	715.94
414.901	687.26
415.11	765.09
415.318	775.33
415.526	855.2
415.734	818.33
415.943	883.87
416.151	873.63
416.359	937.12
416.567	965.79
416.776	945.31
416.984	1049.75
417.192	1086.62
417.4	1119.39
417.608	1186.97
417.817	1178.78
418.025	1338.52
418.233	1359
418.441	1301.65
418.649	1406.1
418.857	1508.5
419.065	1586.32
419.273	1586.32
419.481	1629.33
419.689	1707.15
419.897	1930.38
420.105	1907.85
420.313	1985.68
420.521	1870.99
420.729	2030.73
420.937	2120.84
421.145	2118.79
421.353	2260.1
421.561	2387.08
421.769	2575.49
421.977	2612.35
422.185	2540.68
422.393	2800.77
422.601	2878.59
422.809	2952.32
423.017	2935.93
423.224	2993.28
423.432	3300.47
423.64	3439.73
423.848	3431.54
424.056	3622
424.263	3759.22
424.471	3902.58
424.679	3841.14
424.887	4090.99
425.094	4252.78
425.302	4246.63
425.51	4361.32
425.718	4691.04
425.925	4709.47
426.133	4979.81
426.341	5119.07
426.548	5303.39
426.756	5317.72
426.964	5401.69
427.171	5717.08
427.379	5813.33
427.586	5899.34
427.794	6005.84
428.001	6378.57
428.209	6657.09
428.417	6536.26
428.624	7074.88
428.832	7189.56
429.039	7197.76
429.247	7134.27
429.454	7687.22
429.662	8244.27
429.869	7627.83
430.076	8289.32
430.284	8086.58
430.491	8320.04
430.699	8889.38
430.906	8752.17
431.114	9161.76
431.321	9215.01
431.528	9655.32
431.736	10292.24
431.943	10527.75
432.15	10376.2
432.358	10296.33
432.565	10918.92
432.772	10912.77
432.979	11514.87
433.187	11615.23
433.394	11602.94
433.601	12721.13
433.808	12422.13
434.016	12479.47
434.223	13114.34
434.43	13829.08
434.637	13734.87
434.844	14459.85
435.052	14898.12
435.259	14609.36
435.466	14863.3
435.673	14867.4
435.88	15598.52
436.087	16257.97
436.294	16329.65
436.501	16245.68
436.708	16542.64
436.915	16946.09
437.122	17834.91
437.329	17544.09
437.537	18154.39
437.743	18514.83
437.95	18379.67
438.157	19233.67
438.364	19934.07
438.571	20067.19
438.778	20194.17
438.985	21721.95
439.192	20968.3
439.399	21713.76
439.606	21379.94
439.813	22555.47
440.02	23927.61
440.227	23319.37
440.433	23012.17
440.64	23991.1
440.847	23644.99
441.054	24345.4
441.261	25953.05
441.467	25731.87
441.674	26264.35
441.881	27202.32
442.088	27071.25
442.294	26684.18
442.501	27450.12
442.708	27896.58
442.914	29285.1
443.121	30409.43
443.328	29590.25
443.534	31763.14
443.741	30573.27
443.948	30214.88
444.154	32473.79
444.361	31953.6
444.568	32262.85
444.774	32424.64
444.981	32955.06
445.187	33942.18
445.394	35125.91
445.6	34570.91
445.807	37978.73
446.013	36362.88
446.22	36604.54
446.426	38363.75
446.633	38470.24
446.839	40108.61
447.046	38292.07
447.252	40067.66
447.459	40264.26
447.665	40280.64
447.871	41490.99
448.078	43219.48
448.284	41460.27
448.491	42336.8
448.697	44448.26
448.903	44274.18
449.11	44777.98
449.316	44194.31
449.522	44775.94
449.728	45990.38
449.935	46117.35
450.141	46356.97
450.347	47358.42
450.553	45613.55
450.76	46008.81
450.966	47526.36
451.172	47000.03
451.378	47897.04
451.584	47559.12
451.791	47952.33
451.997	48077.26
452.203	48689.6
452.409	48480.71
452.615	48327.11
452.821	46529
453.027	45830.64
453.233	48538.05
453.44	46604.77
453.646	46903.77
453.852	47008.22
454.058	47673.81
454.264	45965.81
454.47	47000.03
454.676	45916.65
454.882	47276.51
455.088	43536.91
455.294	44188.17
455.5	44763.65
455.705	44915.2
455.911	43422.23
456.117	42521.12
456.323	42043.95
456.529	39596.62
456.735	41103.93
456.941	40190.53
457.147	39672.4
457.352	38572.64
457.558	37976.68
457.764	37626.48
457.97	37175.92
458.176	36551.29
458.381	36364.93
458.587	34990.74
458.793	34579.1
458.999	32678.58
459.204	35213.97
459.41	34396.83
459.616	32127.68
459.821	32346.81
460.027	32168.64
460.233	31199.95
460.438	29594.34
460.644	30591.7
460.85	28807.92
461.055	28455.67
461.261	28252.92
461.466	26313.5
461.672	25307.94
461.878	27314.95
462.083	25436.97
462.289	25234.22
462.494	24716.08
462.7	23739.2
462.905	22852.43
463.111	23853.89
463.316	24032.06
463.522	23450.44
463.727	23284.55
463.932	23362.37
464.138	23151.43
464.343	23397.19
464.549	22733.65
464.754	23423.81
464.959	22907.73
465.165	22920.01
465.37	22315.86
465.575	21689.18
465.781	22563.67
465.986	22440.79
466.191	21551.97
466.397	21236.58
466.602	20437.87
466.807	20947.82
467.012	21007.21
467.218	20908.91
467.423	20630.38
467.628	21042.03
467.833	21877.6
468.038	20734.83
468.244	20456.31
468.449	20822.89
468.654	20456.31
468.859	20288.37
469.064	20089.72
469.269	19422.08
469.474	19504
469.679	19676.03
469.885	18910.09
470.09	19469.19
470.295	19528.58
470.5	18934.67
470.705	18946.95
470.91	18742.16
471.115	18332.56
471.32	18713.49
471.525	18277.27
471.73	18111.38
471.935	18224.02
472.139	17517.47
472.344	17552.29
472.549	17513.38
472.754	17408.93
472.959	17089.45
473.164	16714.67
473.369	16608.17
473.574	17114.02
473.778	16876.46
473.983	16776.11
474.188	16604.08
474.393	15987.64
474.598	16106.42
474.802	15844.28
475.007	15893.43
475.212	15657.92
475.417	15313.86
475.621	15021
475.826	15231.94
476.031	14924.74
476.235	14715.85
476.44	14914.5
476.645	14453.71
476.849	14713.8
477.054	14523.34
477.259	14062.55
477.463	14173.14
477.668	13620.19
477.872	13890.52
478.077	13884.37
478.282	13378.53
478.486	13505.5
478.691	13509.6
478.895	13364.19
479.1	13122.53
479.304	13190.11
479.509	12727.27
479.713	13071.33
479.918	12854.25
480.122	12801
480.326	12813.29
480.531	12635.11
480.735	12614.63
480.94	12571.63
481.144	12981.22
481.348	12116.98
481.553	12508.14
481.757	12375.02
481.961	12647.4
482.166	12547.05
482.37	12372.97
482.574	11885.56
482.778	12360.69
482.983	12516.33
483.187	12178.42
483.391	12311.53
483.595	12143.6
483.8	12176.37
484.004	12258.29
484.208	12663.79
484.412	12235.76
484.616	12299.25
484.821	12424.17
485.025	12102.64
485.229	12188.66
485.433	12250.1
485.637	12483.56
485.841	12178.42
486.045	12157.94
486.249	12198.9
486.453	12219.38
486.657	12131.31
486.861	12420.08
487.065	12143.6
487.269	12305.39
487.473	11916.28
487.677	12340.21
487.881	12401.65
488.085	12217.33
488.289	12391.41
488.493	12364.78
488.697	12370.93
488.901	12450.8
489.105	12420.08
489.309	12317.68
489.512	12481.52
489.716	12399.6
489.92	12350.45
490.124	12319.73
490.328	12528.62
490.531	12637.16
490.735	12680.17
490.939	12690.41
491.143	12680.17
491.346	12588.01
491.55	12819.43
491.754	12854.25
491.958	12923.88
492.161	12970.98
492.365	12780.52
492.569	12803.05
492.772	13220.83
492.976	13077.48
493.18	13263.84
493.383	13196.26
493.587	13229.02
493.79	13587.42
493.994	13249.5
494.197	13458.4
494.401	13970.39
494.605	13675.48
494.808	13919.19
495.012	13939.67
495.215	13978.58
495.419	14363.6
495.622	14234.58
495.825	14253.01
496.029	14273.49
496.232	14660.55
496.436	14605.26
496.639	14996.42
496.843	15039.43
497.046	15047.62
497.249	15285.19
497.453	15342.53
497.656	15621.05
497.859	15389.63
498.063	15616.96
498.266	16120.76
498.469	16184.24
498.673	16163.76
498.876	16626.6
499.079	16784.3
499.282	16763.82
499.485	17116.07
499.689	16972.71
499.892	17261.48
500.095	17202.08
500.298	17666.97
500.501	17474.46
500.705	18140.05
500.908	18191.25
501.111	18312.08
501.314	18721.68
501.517	18867.08
501.72	18961.29
501.923	18701.2
502.126	19694.46
502.329	19731.33
502.532	19895.16
502.735	20059
502.938	20108.15
503.141	20482.93
503.344	20511.6
503.547	20614
503.75	20642.67
503.953	21173.1
504.156	21703.52
504.359	21623.65
504.562	21562.21
504.765	22098.78
504.968	22442.84
505.17	22784.85
505.373	22635.35
505.576	23024.46
505.779	22985.55
505.982	23505.73
506.185	23835.45
506.387	23694.15
506.59	23997.24
506.793	24849.2
506.996	24320.82
507.198	24986.41
507.401	24757.04
507.604	25408.29
507.807	25699.11
508.009	25701.15
508.212	26075.93
508.415	26503.96
508.617	26381.08
508.82	26764.05
509.022	26508.05
509.225	27501.32
509.428	27364.11
509.63	27644.68
509.833	27702.02
510.035	28492.54
510.238	28492.54
510.44	28711.67
510.643	28982
510.845	29176.56
511.048	28916.47
511.25	29711.08
511.453	29850.34
511.655	30737.11
511.858	29917.92
512.06	30563.03
512.262	30667.48
512.465	30919.38
512.667	31140.56
512.87	31705.8
513.072	31709.89
513.274	32258.75
513.477	32533.18
513.679	32783.03
513.881	32959.16
514.084	33553.07
514.286	33129.14
514.488	33733.29
514.69	34435.74
514.893	34339.49
515.095	34325.15
515.297	34775.7
515.499	34810.52
515.701	35211.92
515.904	35693.19
516.106	35914.37
516.308	36205.19
516.51	36375.17
516.712	36442.75
516.914	36883.06
517.116	37368.43
517.318	37401.2
517.52	37368.43
517.722	37620.33
517.925	38109.8
518.127	38548.06
518.329	38816.35
518.531	38832.73
518.733	39139.93
518.935	39352.91
519.136	39021.14
519.338	40088.13
519.54	40045.13
519.742	40403.52
519.944	40325.7
520.146	41191.99
520.348	41300.53
520.55	41237.05
520.752	41886.25
520.954	42027.56
521.155	41701.93
521.357	42406.44
521.559	42488.35
521.761	43248.15
521.963	42979.87
522.164	43397.65
522.366	43317.78
522.568	43514.39
522.77	43737.62
522.971	44583.43
523.173	43588.11
523.375	44548.61
523.576	44155.4
523.778	44315.14
523.98	44960.25
524.181	44900.86
524.383	44532.23
524.584	45789.68
524.786	45478.39
524.988	45249.02
525.189	45582.84
525.391	45885.93
525.592	45998.57
525.794	46002.67
525.995	46115.31
526.197	46363.11
526.398	45984.24
526.6	46379.49
526.801	46737.89
527.003	46866.91
527.204	46891.49
527.406	46844.38
527.607	46967.26
527.808	47145.44
528.01	46334.44
528.211	46719.46
528.412	48243.15
528.614	47417.82
528.815	47491.54
529.016	47970.77
529.218	47796.69
529.419	48026.06
529.62	47301.08
529.822	47469.01
530.023	47530.45
530.224	47917.52
530.425	47835.6
530.626	47845.84
530.828	47665.62
531.029	48439.75
531.23	47876.56
531.431	47464.92
531.632	47841.74
531.833	47964.62
532.035	48167.37
532.236	47778.26
532.437	48179.66
532.638	48169.42
532.839	47966.67
533.04	48263.63
533.241	47661.52
533.442	48562.63
533.643	47714.77
533.844	47841.74
534.045	48460.23
534.246	47673.81
534.447	47997.39
534.648	47843.79
534.849	48153.04
535.05	47466.97
535.251	47983.05
535.451	47858.13
535.652	47952.33
535.853	47686.1
536.054	47778.26
536.255	48028.11
536.456	47507.93
536.657	48490.95
536.857	47802.83
537.058	47804.88
537.259	48234.95
537.46	48116.17
537.66	47866.32
537.861	47702.48
538.062	47880.66
538.263	47780.31
538.463	47575.51
538.664	47499.73
538.865	47868.37
539.065	48163.28
539.266	46936.54
539.466	48122.32
539.667	47344.09
539.868	48089.55
540.068	47434.2
540.269	47139.29
540.469	47469.01
540.67	47630.8
540.87	47520.21
541.071	47575.51
541.271	47718.87
541.472	47415.77
541.672	46866.91
541.873	47161.82
542.073	46836.19
542.274	47921.62
542.474	47045.08
542.675	47276.51
542.875	47577.56
543.075	47477.21
543.276	46873.06
543.476	47428.05
543.676	47256.03
543.877	47503.83
544.077	47018.46
544.277	47028.7
544.478	46975.45
544.678	47426.01
544.878	46969.31
545.078	47108.57
545.279	46828
545.479	46723.55
545.679	47055.32
545.879	47104.48
546.079	46858.72
546.28	47032.8
546.48	46359.02
546.68	47118.81
546.88	47034.84
547.08	46963.17
547.28	46596.58
547.48	46711.27
547.68	46948.83
547.88	46473.7
548.081	47038.94
548.281	46963.17
548.481	46469.61
548.681	47073.76
548.881	47153.63
549.081	46774.75
549.28	46391.78
549.48	47096.28
549.68	46629.35
549.88	47198.68
550.08	46561.76
550.28	46442.98
550.48	46533.09
550.68	46619.11
550.88	46371.3
551.08	46406.12
551.279	46760.42
551.479	46301.67
551.679	46461.41
551.879	46399.97
552.079	46322.15
552.278	46207.47
552.478	45894.13
552.678	46242.28
552.878	46344.68
553.077	46488.04
553.277	45730.29
553.477	46883.3
553.676	46039.53
553.876	46391.78
554.076	46273
554.275	45724.14
554.475	45570.55
554.674	46342.63
554.874	46277.1
555.074	45654.51
555.273	46367.21
555.473	46254.57
555.672	45580.79
555.872	45791.73
556.071	45576.69
556.271	45879.79
556.47	45629.94
556.67	45552.12
556.869	45621.75
557.068	46017
557.268	45543.92
557.467	45875.69
557.667	45853.17
557.866	45842.93
558.065	45689.33
558.265	45302.26
558.464	45148.67
558.663	45781.49
558.863	44845.57
559.062	45650.42
559.261	45273.59
559.461	45625.84
559.66	44993.02
559.859	45429.24
560.058	45048.32
560.258	45228.54
560.457	45109.75
560.656	44976.64
560.855	44595.71
561.054	45251.06
561.253	44564.99
561.453	44507.65
561.652	45072.89
561.851	44769.79
562.05	44526.08
562.249	44841.47
562.448	44935.68
562.647	44685.82
562.846	44771.84
563.045	44368.39
563.244	44530.18
563.443	44593.67
563.642	44239.37
563.841	44820.99
564.04	44884.48
564.239	44796.42
564.438	44163.59
564.637	44732.93
564.836	44620.29
565.035	44106.25
565.234	44331.53
565.432	44085.77
565.631	43975.18
565.83	44196.36
566.029	43543.06
566.228	44001.8
566.427	43983.37
566.625	43696.66
566.824	43596.31
567.023	44061.19
567.222	43123.22
567.42	43973.13
567.619	43754
567.818	43373.08
568.016	43579.92
568.215	43864.59
568.414	43196.95
568.612	43590.16
568.811	43168.28
569.01	43076.12
569.208	42926.62
569.407	43442.71
569.605	42779.17
569.804	43450.9
570.002	42801.69
570.201	43192.86
570.4	42834.46
570.598	42705.44
570.797	42414.63
570.995	42754.59
571.193	42551.84
571.392	43024.92
571.59	42373.67
571.789	42742.3
571.987	42263.08
572.186	42304.04
572.384	42314.28
572.582	42023.47
572.781	42363.43
572.979	42093.1
573.177	41972.27
573.376	41937.45
573.574	41914.92
573.772	42027.56
573.971	41886.25
574.169	41878.06
574.367	41716.27
574.565	41986.6
574.763	41497.14
574.962	41321.01
575.16	40768.06
575.358	41531.95
575.556	41103.93
575.754	41693.74
575.952	41019.96
576.151	41464.37
576.349	40911.42
576.547	40929.85
576.745	41241.14
576.943	40858.17
577.141	40671.81
577.339	41187.89
577.537	40407.62
577.735	40321.6
577.933	40163.91
578.131	40661.57
578.329	40346.18
578.527	40274.5
578.725	40241.73
578.923	40065.61
579.121	39920.2
579.319	40231.49
579.516	40129.09
579.714	39891.53
579.912	39717.45
580.11	39666.25
580.308	39866.95
580.506	39971.4
580.704	39162.45
580.901	39625.29
581.099	39649.87
581.297	39006.81
581.495	39453.26
581.692	39049.81
581.89	38967.9
582.088	39293.52
582.285	39033.43
582.483	38949.46
582.681	38933.08
582.878	38601.31
583.076	38066.79
583.274	38785.63
583.471	38003.3
583.669	38586.97
583.866	38023.78
584.064	38595.17
584.262	37659.24
584.459	38193.76
584.657	37671.53
584.854	38023.78
585.052	37098.1
585.249	37784.17
585.447	37530.22
585.644	37601.9
585.841	37464.69
586.039	37591.66
586.236	37171.83
586.434	37040.76
586.631	36854.39
586.828	37216.88
587.026	37155.44
587.223	36979.32
587.42	36522.62
587.618	36788.86
587.815	36436.61
588.012	36485.76
588.21	36264.58
588.407	36680.31
588.604	35889.8
588.801	36137.6
588.999	35807.88
589.196	35781.26
589.393	35650.19
589.59	36121.22
589.787	35652.23
589.984	35494.54
590.182	35123.86
590.379	35746.44
590.576	35263.12
590.773	35334.8
590.97	35099.28
591.167	35156.63
591.364	35052.18
591.561	34898.58
591.758	34509.47
591.955	34521.76
592.152	34644.63
592.349	34388.64
592.546	34329.25
592.743	34599.58
592.94	33440.43
593.137	34314.91
593.334	33880.74
593.531	33573.55
593.727	33563.31
593.924	33655.47
594.121	33651.37
594.318	34151.07
594.515	33399.47
594.712	33600.17
594.908	33505.96
595.105	33518.25
595.302	32948.92
595.499	33348.27
595.696	32858.81
595.892	32656.06
596.089	32883.38
596.286	33000.12
596.482	32658.1
596.679	32899.76
596.876	32758.45
597.072	32443.07
597.269	32408.25
597.466	32035.52
597.662	32129.73
597.859	32058.05
598.055	31845.06
598.252	31492.81
598.448	31662.79
598.645	31679.18
598.841	31367.88
599.038	31670.98
599.234	31298.25
599.431	31077.07
599.627	31144.66
599.824	31449.8
600.02	30692.05
600.217	30812.88
600.413	30444.25
600.609	30474.97
600.806	30497.5
601.002	30692.05
601.198	30638.81
601.395	30348
601.591	30122.72
601.787	30302.94
601.984	30032.61
602.18	30114.53
602.376	30106.34
602.572	29934.31
602.769	29678.31
602.965	29268.72
603.161	29709.03
603.357	29450.99
603.553	29147.89
603.75	29238
603.946	29381.35
604.142	29600.49
604.338	28902.13
604.534	29022.96
604.73	28746.48
604.926	28721.91
605.122	29145.84
605.318	28777.2
605.514	28560.12
605.71	28572.41
605.906	28451.58
606.102	28556.02
606.298	28568.31
606.494	28189.44
606.69	28336.89
606.886	28441.34
607.082	27728.64
607.278	28195.58
607.474	27626.25
607.67	27953.92
607.866	27810.56
608.062	28134.14
608.257	27794.18
608.453	27908.86
608.649	27951.87
608.845	27132.68
609.041	27478.79
609.236	27591.43
609.432	27411.21
609.628	27257.61
609.824	26886.93
610.019	26753.81
610.215	27077.39
610.411	27286.28
610.606	27153.16
610.802	27278.09
610.998	26860.3
611.193	26786.58
611.389	27075.34
611.584	26792.72
611.78	26778.39
611.976	26743.57
612.171	26850.06
612.367	26688.28
612.562	26463
612.758	26383.13
612.953	26469.14
613.149	26639.12
613.344	26340.12
613.539	26723.09
613.735	26217.24
613.93	26356.5
614.126	25985.82
614.321	26342.17
614.517	26262.3
614.712	26184.48
614.907	26073.88
615.103	26274.59
615.298	26192.67
615.493	26235.67
615.688	25725.73
615.884	26391.32
616.079	25922.34
616.274	26166.04
616.47	25916.19
616.665	25926.43
616.86	25482.02
617.055	25432.87
617.25	25668.39
617.445	25629.48
617.641	25242.41
617.836	25496.36
618.031	25051.95
618.226	25565.99
618.421	25266.99
618.616	25436.97
618.811	24855.34
619.006	25185.07
619.201	24611.64
619.396	25234.22
619.591	24494.9
619.786	24566.58
619.981	24466.23
620.176	24707.89
620.371	24312.63
620.566	24193.85
620.761	24224.57
620.956	24283.96
621.151	23966.52
621.346	24240.95
621.541	23712.58
621.735	23573.31
621.93	23333.7
622.125	23245.64
622.32	23092.04
622.515	23429.96
622.709	23135.05
622.904	22940.49
623.099	22803.28
623.294	23026.51
623.488	22627.15
623.683	22737.74
623.878	22283.09
624.072	22653.78
624.267	22358.87
624.462	22104.92
624.656	22055.77
624.851	22252.38
625.046	21758.81
625.24	21642.08
625.435	21707.62
625.629	21660.51
625.824	21304.17
626.018	21177.19
626.213	20771.69
626.407	21214.05
626.602	20685.68
626.796	21039.98
626.991	20491.12
627.185	20489.07
627.38	20556.66
627.574	20298.61
627.768	19927.93
627.963	19899.26
628.157	20040.57
628.352	19870.59
628.546	19657.6
628.74	19989.37
628.935	19571.58
629.129	19663.74
629.323	19350.4
629.517	19456.9
629.712	19022.73
629.906	19145.61
630.1	18949
630.294	18817.93
630.489	19018.63
630.683	18994.06
630.877	18600.85
631.071	18447.25
631.265	18586.51
631.459	18439.06
631.653	18295.7
631.848	18181.01
632.042	18138.01
632.236	18088.85
632.43	17664.93
632.624	17972.12
632.818	17562.53
633.012	17357.73
633.206	17669.02
633.4	17761.18
633.594	16941.99
633.788	17306.53
633.982	17384.35
634.176	17044.39
634.369	17093.54
634.563	17095.59
634.757	16681.9
634.951	16948.14
635.145	16915.37
635.339	16675.76
635.533	16669.61
635.726	16669.61
635.92	16282.55
636.114	16370.61
636.308	16239.54
636.501	16235.44
636.695	16251.83
636.889	16208.82
637.083	15707.07
637.276	15866.81
637.47	15637.44
637.664	15784.89
637.857	15672.25
638.051	15662.01
638.244	15543.23
638.438	15573.95
638.632	15276.99
638.825	15276.99
639.019	15242.18
639.212	14982.09
639.406	14945.22
639.599	14896.07
639.793	15031.24
639.986	14799.82
640.18	14789.58
640.373	14734.28
640.567	14453.71
640.76	14496.72
640.954	14394.32
641.147	14222.29
641.34	14353.36
641.534	14236.63
641.727	14132.18
641.92	14285.78
642.114	13974.49
642.307	14107.6
642.5	13671.39
642.694	13657.05
642.887	13556.7
643.08	13702.11
643.273	13622.23
643.467	13554.65
643.66	13505.5
643.853	13370.33
644.046	13204.45
644.239	13343.71
644.432	12997.6
644.626	13145.06
644.819	13276.13
645.012	12950.5
645.205	12887.01
645.398	12854.25
645.591	12833.77
645.784	12700.65
645.977	12547.05
646.17	12522.48
646.363	12420.08
646.556	12463.08
646.749	12323.82
646.942	12485.61
647.135	12227.57
647.328	12360.69
647.521	12098.55
647.714	12049.39
647.907	12090.35
648.099	11869.17
648.292	11969.52
648.485	11666.42
648.678	11756.54
648.871	11840.5
649.064	11647.99
649.256	11860.98
649.449	11346.94
649.642	11598.84
649.835	11424.76
650.027	11277.31
650.22	11256.83
650.413	11213.82
650.605	11273.21
650.798	11252.73
650.991	11037.7
651.183	10996.74
651.376	10943.49
651.568	11107.33
651.761	10650.63
651.954	10750.98
652.146	10802.18
652.339	10732.55
652.531	10537.99
652.724	10595.34
652.916	10247.18
653.109	10419.21
653.301	10433.55
653.494	10615.82
653.686	10138.64
653.879	10548.23
654.071	10087.44
654.263	9837.59
654.456	10255.37
654.648	10189.84
654.84	9727
655.033	9782.29
655.225	10040.34
655.417	9739.29
655.61	9745.43
655.802	9874.45
655.994	9698.33
656.186	9673.75
656.379	9499.67
656.571	9614.36
656.763	9477.15
656.955	9456.67
657.148	9415.71
657.34	9075.74
657.532	9172
657.724	9190.43
657.916	9331.74
658.108	9145.38
658.3	9040.93
658.492	9147.42
658.684	8979.49
658.876	8700.97
659.068	8942.63
659.26	8934.43
659.452	8664.1
659.644	8727.59
659.836	8735.78
660.028	8795.17
660.22	8469.55
660.412	8735.78
660.604	8428.59
660.796	8617
660.988	8533.03
661.18	8436.78
661.372	8256.56
661.563	8447.02
661.755	8160.3
661.947	8203.31
662.139	8256.56
662.331	8131.63
662.522	8035.38
662.714	7994.42
662.906	7920.69
663.097	7836.72
663.289	7724.08
663.481	7873.59
663.673	7916.59
663.864	7814.2
664.056	7703.61
664.247	7660.6
664.439	7560.25
664.631	7517.24
664.822	7791.67
665.014	7525.43
665.205	7429.18
665.397	7445.56
665.588	7375.93
665.78	7351.35
665.971	7185.47
666.163	7224.38
666.354	7187.52
666.546	7294.01
666.737	7097.41
666.929	7056.45
667.12	7277.63
667.311	7089.21
667.503	6870.08
667.694	6788.16
667.885	6937.66
668.077	6868.03
668.268	6843.46
668.459	6947.9
668.651	6755.4
668.842	6698.05
669.033	6683.72
669.224	6710.34
669.416	6663.24
669.607	6417.48
669.798	6601.8
669.989	6501.45
670.18	6442.06
670.371	6468.68
670.563	6540.36
670.754	6433.86
670.945	6323.27
671.136	6153.29
671.327	6405.19
671.518	6208.59
671.709	6171.72
671.9	6083.66
672.091	6118.48
672.282	6024.27
672.473	6077.52
672.664	5985.36
672.855	6034.51
673.046	5889.1
673.237	6007.89
673.428	5895.25
673.619	5721.17
673.809	5758.03
674	5864.53
674.191	5905.49
674.382	5743.7
674.573	5704.79
674.764	5698.64
674.954	5624.92
675.145	5614.68
675.336	5489.75
675.527	5485.65
675.717	5454.94
675.908	5434.46
676.099	5481.56
676.289	5373.02
676.48	5438.55
676.671	5547.09
676.861	5327.96
677.052	5280.86
677.243	5209.18
677.433	5289.05
677.624	5266.52
677.814	5049.44
678.005	5243.99
678.195	5149.79
678.386	5180.51
678.576	5180.51
678.767	4992.09
678.957	4985.95
679.148	4934.75
679.338	4963.42
679.529	4889.7
679.719	4799.59
679.909	4957.28
680.1	4838.5
680.29	4930.66
680.481	4852.83
680.671	4795.49
680.861	4637.8
681.052	4854.88
681.242	4736.1
681.432	4697.19
681.622	4576.36
681.813	4740.19
682.003	4590.69
682.193	4435.05
682.383	4580.45
682.573	4521.06
682.764	4394.09
682.954	4449.38
683.144	4537.45
683.334	4508.77
683.524	4281.45
683.714	4353.13
683.904	4295.79
684.094	4297.83
684.284	4244.59
684.474	4271.21
684.664	4293.74
684.854	4246.63
685.044	4129.9
685.234	4078.7
685.424	4154.48
685.614	4156.52
685.804	4150.38
685.994	3949.68
686.184	4123.76
686.374	4127.85
686.564	4072.56
686.753	3976.3
686.943	3902.58
687.133	3921.01
687.323	3955.82
687.513	3970.16
687.702	3878
687.892	3841.14
688.082	3953.77
688.272	3669.11
688.461	3771.51
688.651	3853.42
688.841	3751.03
689.03	3791.98
689.22	3644.53
689.41	3693.68
689.599	3716.21
689.789	3673.2
689.979	3568.76
690.168	3701.87
690.358	3607.67
690.547	3488.89
690.737	3505.27
690.926	3478.65
691.116	3523.7
691.305	3564.66
691.495	3550.32
691.684	3421.3
691.874	3538.04
692.063	3355.77
692.252	3380.34
692.442	3419.25
692.631	3398.77
692.82	3357.82
693.01	3406.97
693.199	3298.42
693.388	3200.12
693.578	3279.99
693.767	3275.9
693.956	3308.66
694.146	3110.01
694.335	3236.99
694.524	3167.35
694.713	3083.39
694.902	3202.17
695.092	3181.69
695.281	3157.11
695.47	3116.16
695.659	3077.24
695.848	3034.24
696.037	2980.99
696.226	3032.19
696.415	2966.65
696.604	2980.99
696.793	3021.95
696.982	3177.59
697.171	3013.76
697.36	2890.88
697.549	2970.75
697.738	2813.06
697.927	2823.3
698.116	2954.37
698.305	2827.39
698.494	2948.22
698.683	2827.39
698.872	2718.85
699.061	2645.12
699.25	2673.79
699.438	2708.61
699.627	2677.89
699.816	2665.6
700.005	2641.03
700.193	2743.42
700.382	2641.03
700.571	2686.08
700.76	2608.26
700.948	2555.01
701.137	2692.23
701.326	2622.59
701.514	2454.66
701.703	2595.97
701.892	2542.72
702.08	2546.82
702.269	2505.86
702.457	2544.77
702.646	2569.35
702.834	2428.04
703.023	2462.85
703.212	2555.01
703.4	2430.09
703.589	2415.75
703.777	2419.85
703.965	2333.83
704.154	2448.52
704.342	2362.5
704.531	2292.87
704.719	2352.26
704.907	2174.09
705.096	2350.21
705.284	2290.82
705.472	2446.47
705.661	2325.64
705.849	2219.14
706.037	2264.2
706.226	2194.57
706.414	2169.99
706.602	2169.99
706.79	2303.11
706.979	2235.53
707.167	2141.32
707.355	2139.27
707.543	2129.03
707.731	2225.29
707.919	2151.56
708.107	2116.75
708.296	2163.85
708.484	2088.07
708.672	2069.64
708.86	2043.02
709.048	2024.59
709.236	2053.26
709.424	2034.83
709.612	1973.39
709.8	2010.25
709.988	1887.37
710.176	1952.91
710.364	1975.44
710.551	2034.83
710.739	1901.71
710.927	1846.41
711.115	1926.29
711.303	1856.65
711.491	1934.48
711.679	1866.89
711.866	1803.41
712.054	1899.66
712.242	1909.9
712.43	1817.74
712.617	1715.34
712.805	1819.79
712.993	1862.8
713.181	1825.93
713.368	1727.63
713.556	1692.82
713.744	1698.96
713.931	1799.31
714.119	1799.31
714.306	1741.97
714.494	1705.1
714.682	1682.58
714.869	1752.21
715.057	1733.78
715.244	1674.39
715.432	1741.97
715.619	1752.21
715.807	1545.36
715.994	1660.05
716.182	1596.56
716.369	1674.39
716.556	1631.38
716.744	1623.19
716.931	1662.1
717.119	1559.7
717.306	1614.99
717.493	1592.47
717.681	1545.36
717.868	1610.9
718.055	1514.64
718.242	1522.84
718.43	1416.34
718.617	1555.6
718.804	1399.96
718.991	1526.93
719.179	1494.16
719.366	1426.58
719.553	1408.15
719.74	1586.32
719.927	1432.72
720.114	1438.87
720.301	1428.63
720.488	1432.72
720.676	1315.99
720.863	1367.19
721.05	1391.77
721.237	1375.38
721.424	1447.06
721.611	1326.23
721.798	1412.25
721.985	1311.89
722.172	1281.18
722.358	1275.03
722.545	1313.94
722.732	1244.31
722.919	1391.77
723.106	1215.64
723.293	1238.17
723.48	1234.07
723.667	1320.09
723.853	1365.14
724.04	1221.78
724.227	1238.17
724.414	1201.3
724.6	1189.02
724.787	1322.13
724.974	1197.21
725.161	1266.84
725.347	1209.5
725.534	1232.02
725.72	1090.71
725.907	1166.49
726.094	1086.62
726.28	1131.67
726.467	1139.87
726.653	1072.28
726.84	1105.05
727.027	1100.95
727.213	1109.15
727.4	1096.86
727.586	1076.38
727.773	1100.95
727.959	1100.95
728.145	1135.77
728.332	1002.65
728.518	1078.43
728.705	1072.28
728.891	1178.78
729.077	1078.43
729.264	1002.65
729.45	980.12
729.636	1062.04
729.823	1053.85
730.009	988.32
730.195	1010.84
730.382	986.27
730.568	976.03
730.754	914.59
730.94	937.12
731.126	998.56
731.313	973.98
731.499	1029.27
731.685	984.22
731.871	978.08
732.057	1002.65
732.243	928.92
732.429	906.4
732.615	945.31
732.801	1016.99
732.987	941.21
733.173	920.73
733.359	908.44
733.545	900.25
733.731	859.29
733.917	900.25
734.103	912.54
734.289	887.97
734.475	812.19
734.661	953.5
734.847	887.97
735.033	875.68
735.219	801.95
735.404	892.06
735.59	812.19
735.776	885.92
735.962	771.23
736.148	826.53
736.333	869.53
736.519	844.96
736.705	861.34
736.89	851.1
737.076	865.44
737.262	781.47
737.447	838.81
737.633	750.75
737.819	750.75
738.004	791.71
738.19	799.9
738.375	838.81
738.561	818.33
738.747	783.52
738.932	750.75
739.118	816.29
739.303	760.99
739.489	808.09
739.674	736.42
739.859	808.09
740.045	717.98
740.23	709.79
740.416	670.88
740.601	769.18
740.786	701.6
740.972	677.02
741.157	695.46
741.342	674.98
741.528	742.56
741.713	722.08
741.898	748.7
742.084	724.13
742.269	724.13
742.454	728.22
742.639	670.88
742.824	656.54
743.01	717.98
743.195	754.85
743.38	691.36
743.565	646.3
743.75	726.18
743.935	697.5
744.12	599.2
744.305	562.34
744.49	640.16
744.675	695.46
744.86	556.19
745.045	681.12
745.23	584.87
745.415	601.25
745.6	662.69
745.785	681.12
745.97	683.17
746.155	593.06
746.34	584.87
746.525	576.67
746.71	658.59
746.895	562.34
747.079	580.77
747.264	638.11
747.449	593.06
747.634	642.21
747.819	523.43
748.003	552.1
748.188	472.23
748.373	572.58
748.557	548
748.742	582.82
748.927	529.57
749.111	593.06
749.296	541.86
749.481	523.43
749.665	537.76
749.85	629.92
750.034	588.96
750.219	527.52
750.404	535.71
750.588	548
750.773	531.62
750.957	607.39
751.141	474.28
751.326	517.28
751.51	509.09
751.695	519.33
751.879	517.28
752.064	545.95
752.248	461.99
752.432	484.52
752.617	414.88
752.801	541.86
752.985	511.14
753.17	486.56
753.354	482.47
753.538	476.32
753.722	421.03
753.907	433.32
754.091	425.12
754.275	461.99
754.459	400.55
754.643	441.51
754.828	457.89
755.012	457.89
755.196	453.8
755.38	474.28
755.564	511.14
755.748	496.8
755.932	349.35
756.116	388.26
756.3	408.74
756.484	369.83
756.668	390.31
756.852	423.08
757.036	375.97
757.22	457.89
757.404	406.69
757.588	318.63
757.772	552.1
757.956	500.9
758.14	386.21
758.323	418.98
758.507	339.11
758.691	421.03
758.875	396.45
759.059	363.69
759.242	373.92
759.426	384.16
759.61	339.11
759.794	431.27
759.977	371.88
760.161	357.54
760.345	398.5
760.528	425.12
760.712	304.29
760.895	461.99
761.079	457.89
761.263	412.84
761.446	318.63
761.63	392.36
761.813	363.69
761.997	326.82
762.18	357.54
762.364	380.07
762.547	316.58
762.731	371.88
762.914	367.78
763.098	367.78
763.281	353.45
763.464	414.88
763.648	218.28
763.831	300.2
764.015	236.71
764.198	351.4
764.381	322.73
764.564	324.77
764.748	439.46
764.931	308.39
765.114	365.73
765.297	394.4
765.481	312.49
765.664	365.73
765.847	326.82
766.03	347.3
766.213	326.82
766.397	308.39
766.58	320.68
766.763	304.29
766.946	359.59
767.129	300.2
767.312	375.97
767.495	390.31
767.678	357.54
767.861	390.31
768.044	269.48
768.227	320.68
768.41	283.81
768.593	337.06
768.776	373.92
768.959	320.68
769.142	259.24
769.324	359.59
769.507	269.48
769.69	318.63
769.873	261.29
770.056	384.16
770.239	304.29
770.421	253.09
770.604	304.29
770.787	306.34
770.97	359.59
771.152	238.76
771.335	246.95
771.518	285.86
771.7	339.11
771.883	269.48
772.066	259.24
772.248	384.16
772.431	285.86
772.613	265.38
772.796	398.5
772.978	328.87
773.161	259.24
773.343	337.06
773.526	353.45
773.708	283.81
773.891	296.1
774.073	318.63
774.256	304.29
774.438	308.39
774.621	357.54
774.803	259.24
774.985	253.09
775.168	292.01
775.35	203.94
775.532	302.25
775.715	289.96
775.897	318.63
776.079	177.32
776.261	373.92
776.444	261.29
776.626	285.86
776.808	234.66
776.99	201.9
777.173	253.09
777.355	212.14
777.537	255.14
777.719	318.63
777.901	285.86
778.083	308.39
778.265	234.66
778.447	265.38
778.629	251.05
778.811	285.86
778.993	195.75
779.175	236.71
779.357	203.94
779.539	294.05
779.721	199.85
779.903	257.19
780.085	289.96
780.267	287.91
780.449	167.08
780.631	281.77
780.812	277.67
780.994	216.23
781.176	249
781.358	179.37
781.54	269.48
781.721	267.43
781.903	257.19
782.085	232.62
782.267	191.66
782.448	191.66
782.63	240.81
782.812	222.38
782.993	181.42
783.175	240.81
783.357	275.62
783.538	220.33
783.72	167.08
783.901	185.51
784.083	218.28
784.264	162.98
784.446	185.51
784.627	179.37
784.809	140.46
784.99	230.57
785.172	195.75
785.353	234.66
785.535	201.9
785.716	191.66
785.897	169.13
786.079	261.29
786.26	218.28
786.441	169.13
786.623	175.27
786.804	150.7
786.985	191.66
787.167	156.84
787.348	97.45
787.529	205.99
787.71	191.66
787.891	183.46
788.073	175.27
788.254	185.51
788.435	132.26
788.616	101.55
788.797	257.19
788.978	246.95
789.159	222.38
789.34	177.32
789.522	199.85
789.703	105.64
789.884	177.32
790.065	152.74
790.246	130.22
790.427	171.18
790.607	169.13
790.788	126.12
790.969	70.83
791.15	216.23
791.331	142.5
791.512	179.37
791.693	138.41
791.874	105.64
792.054	117.93
792.235	146.6
792.416	142.5
792.597	101.55
792.778	95.4
792.958	91.31
793.139	128.17
793.32	128.17
793.5	122.02
793.681	165.03
793.862	171.18
794.042	142.5
794.223	122.02
794.404	113.83
794.584	76.97
794.765	113.83
794.945	105.64
795.126	74.92
795.306	81.07
795.487	148.65
795.667	177.32
795.848	144.55
796.028	167.08
796.209	130.22
796.389	128.17
796.57	199.85
796.75	105.64
796.93	101.55
797.111	117.93
797.291	179.37
797.471	111.78
797.652	54.44
797.832	89.26
798.012	117.93
798.192	113.83
798.373	105.64
798.553	119.98
798.733	136.36
798.913	97.45
799.093	105.64
799.274	85.16
799.454	128.17
799.634	85.16
799.814	113.83
799.994	68.78
800.174	97.45
800.354	70.83
800.534	113.83
800.714	103.59
800.894	68.78
801.074	70.83
801.254	122.02
801.434	54.44
801.614	89.26
801.794	122.02
801.974	199.85
802.154	42.15
802.334	132.26
802.514	97.45
802.693	76.97
802.873	74.92
803.053	89.26
803.233	117.93
803.413	56.49
803.592	64.68
803.772	89.26
803.952	74.92
804.131	97.45
804.311	142.5
804.491	60.59
804.67	50.35
804.85	130.22
805.03	111.78
805.209	56.49
805.389	101.55
805.568	126.12
805.748	44.2
805.928	99.5
806.107	136.36
806.287	76.97
806.466	38.06
806.646	7.34
806.825	-33.62
807.004	103.59
807.184	97.45
807.363	115.88
807.543	122.02
807.722	97.45
807.901	136.36
808.081	93.35
808.26	48.3
808.439	91.31
808.619	97.45
808.798	-31.57
808.977	85.16
809.156	95.4
809.336	31.91
809.515	93.35
809.694	74.92
809.873	50.35
810.052	113.83
810.231	29.87
810.411	19.63
810.59	38.06
810.769	111.78
810.948	154.79
811.127	60.59
811.306	81.07
811.485	99.5
811.664	66.73
811.843	89.26
812.022	72.87
812.201	50.35
812.38	40.11
812.559	31.91
812.737	142.5
812.916	93.35
813.095	115.88
813.274	130.22
813.453	64.68
813.632	44.2
813.811	177.32
813.989	76.97
814.168	68.78
814.347	31.91
814.526	111.78
814.704	9.39
814.883	72.87
815.062	62.63
815.24	79.02
815.419	46.25
815.598	83.11
815.776	101.55
815.955	97.45
816.133	52.39
816.312	148.65
816.49	25.77
816.669	36.01
816.847	36.01
817.026	42.15
817.204	72.87
817.383	87.21
817.561	119.98
817.74	99.5
817.918	54.44
818.097	72.87
818.275	11.43
818.453	79.02
818.632	23.72
818.81	50.35
818.988	-2.9
819.167	60.59
819.345	-35.67
819.523	-0.85
819.701	-76.63
819.879	126.12
820.058	-13.14
820.236	68.78
820.414	85.16
820.592	89.26
820.77	9.39
820.948	70.83
821.127	76.97
821.305	36.01
821.483	-7
821.661	48.3
821.839	38.06
822.017	58.54
822.195	48.3
822.373	58.54
822.551	1.19
822.729	60.59
822.907	56.49
823.085	56.49
823.262	91.31
823.44	91.31
823.618	46.25
823.796	72.87
823.974	79.02
824.152	62.63
824.329	83.11
824.507	85.16
824.685	83.11
824.863	31.91
825.04	95.4
825.218	74.92
825.396	68.78
825.574	48.3
825.751	66.73
825.929	17.58
826.107	33.96
826.284	46.25
826.462	19.63
826.639	36.01
826.817	70.83
826.994	52.39
827.172	52.39
827.349	9.39
827.527	11.43
827.704	50.35
827.882	85.16
828.059	89.26
828.237	7.34
828.414	31.91
828.591	11.43
828.769	3.24
828.946	79.02
829.124	56.49
829.301	64.68
829.478	76.97
829.655	27.82
829.833	50.35
830.01	15.53
830.187	48.3
830.364	-9.05
830.542	83.11
830.719	-4.95
830.896	122.02
831.073	40.11
831.25	11.43
831.427	31.91
831.604	79.02
831.782	13.48
831.959	46.25
832.136	68.78
832.313	60.59
832.49	46.25
832.667	95.4
832.844	87.21
833.021	-47.96
833.198	-17.24
833.374	56.49
833.551	1.19
833.728	46.25
833.905	7.34
834.082	79.02
834.259	17.58
834.436	60.59
834.612	56.49
834.789	-7
834.966	-13.14
835.143	1.19
835.319	21.67
835.496	38.06
835.673	56.49
835.85	66.73
836.026	31.91
836.203	27.82
836.38	21.67
836.556	38.06
836.733	85.16
836.909	11.43
837.086	13.48
837.262	-17.24
837.439	3.24
837.616	50.35
837.792	138.41
837.968	-0.85
838.145	27.82
838.321	36.01
838.498	3.24
838.674	1.19
838.851	70.83
839.027	85.16
839.203	-41.81
839.38	40.11
839.556	7.34
839.732	93.35
839.909	48.3
840.085	38.06
840.261	56.49
840.437	27.82
840.614	1.19
840.79	107.69
840.966	56.49
841.142	81.07
841.318	52.39
841.494	76.97
841.671	-19.29
841.847	87.21
842.023	52.39
842.199	126.12
842.375	17.58
842.551	-21.33
842.727	23.72
842.903	70.83
843.079	-13.14
843.255	-0.85
843.431	111.78
843.607	46.25
843.783	23.72
843.959	52.39
844.134	-74.58
844.31	3.24
844.486	-19.29
844.662	7.34
844.838	21.67
845.013	31.91
845.189	48.3
845.365	54.44
845.541	-52.05
845.716	23.72
845.892	36.01
846.068	17.58
846.244	21.67
846.419	44.2
846.595	19.63
846.77	27.82
846.946	44.2
847.122	3.24
847.297	-2.9
847.473	70.83
847.648	-27.48
847.824	56.49
847.999	36.01
848.175	13.48
848.35	44.2
848.526	79.02
848.701	15.53
848.876	38.06
849.052	31.91
849.227	85.16
849.403	-19.29
849.578	-43.86
849.753	-13.14
849.929	5.29
850.104	-41.81
850.279	46.25
850.454	-2.9
850.63	40.11
850.805	-25.43
850.98	1.19
851.155	46.25
851.33	-0.85
851.505	58.54
851.681	74.92
851.856	31.91
852.031	9.39
852.206	52.39
852.381	52.39
852.556	31.91
852.731	15.53
852.906	40.11
853.081	7.34
853.256	-17.24
853.431	-11.09
853.606	-23.38
853.781	64.68
853.956	-13.14
854.131	29.87
854.305	-29.52
854.48	23.72
854.655	17.58
854.83	11.43
855.005	40.11
855.18	36.01
855.354	48.3
855.529	-21.33
855.704	-41.81
855.879	-9.05
856.053	-35.67
856.228	-17.24
856.403	-35.67
856.577	13.48
856.752	5.29
856.926	-0.85
857.101	97.45
857.276	58.54
857.45	5.29
857.625	-15.19
857.799	-25.43
857.974	-43.86
858.148	31.91
858.323	68.78
858.497	48.3
858.672	-4.95
858.846	48.3
859.02	44.2
859.195	42.15
859.369	54.44
859.543	-50
859.718	-13.14
859.892	-33.62
860.066	15.53
860.241	81.07
860.415	-13.14
860.589	-2.9
860.763	1.19
860.938	-33.62
861.112	27.82
861.286	-7
861.46	-21.33
861.634	5.29
861.808	95.4
861.982	-21.33
862.157	15.53
862.331	62.63
862.505	-27.48
862.679	21.67
862.853	50.35
863.027	15.53
863.201	62.63
863.375	-11.09
863.549	-35.67
863.722	7.34
863.896	23.72
864.07	-15.19
864.244	31.91
864.418	29.87
864.592	-21.33
864.766	13.48
864.939	11.43
865.113	21.67
865.287	15.53
865.461	48.3
865.634	29.87
865.808	-15.19
865.982	-11.09
866.156	-17.24
866.329	-19.29
866.503	7.34
866.676	44.2
866.85	-74.58
867.024	-4.95
867.197	15.53
867.371	-19.29
867.544	9.39
867.718	19.63
867.891	3.24
868.065	38.06
868.238	3.24
868.412	46.25
868.585	79.02
868.759	-39.76
868.932	5.29
869.105	42.15
869.279	40.11
869.452	27.82
869.625	-45.91
869.799	-11.09
869.972	-15.19
870.145	97.45
870.319	64.68
870.492	7.34
870.665	-41.81
870.838	11.43
871.011	-35.67
871.185	36.01
871.358	-13.14
871.531	38.06
871.704	-15.19
871.877	21.67
872.05	72.87
872.223	-0.85
872.396	-41.81
872.569	62.63
872.742	-9.05
872.915	-47.96
873.088	27.82
873.261	23.72
873.434	7.34
873.607	-0.85
873.78	-11.09
873.953	25.77
874.126	3.24
874.299	13.48
874.471	15.53
874.644	48.3
874.817	19.63
874.99	70.83
875.163	-15.19
875.335	36.01
875.508	-21.33
875.681	-13.14
875.853	44.2
876.026	-25.43
876.199	50.35
876.371	-2.9
876.544	56.49
876.717	3.24
876.889	-25.43
877.062	-4.95
877.234	-4.95
877.407	50.35
877.579	36.01
877.752	-13.14
877.924	21.67
878.097	19.63
878.269	56.49
878.442	11.43
878.614	60.59
878.786	-0.85
878.959	5.29
879.131	56.49
879.303	93.35
879.476	-4.95
879.648	-13.14
879.82	-41.81
879.993	58.54
880.165	48.3
880.337	-23.38
880.509	42.15
880.681	-58.2
880.854	13.48
881.026	31.91
881.198	25.77
881.37	62.63
881.542	23.72
881.714	-95.06
881.886	-9.05
882.058	15.53
882.23	3.24
882.402	-7
882.574	-17.24
882.746	-21.33
882.918	29.87
883.09	70.83
883.262	-7
883.434	-31.57
883.606	50.35
883.778	-9.05
883.95	15.53
884.122	-19.29
884.293	-0.85
884.465	-37.72
884.637	11.43
884.809	38.06
884.98	-11.09
885.152	-9.05
885.324	15.53
885.496	-2.9
885.667	-9.05
885.839	27.82
886.011	119.98
886.182	-21.33
886.354	31.91
886.525	40.11
886.697	19.63
886.869	40.11
887.04	-29.52
887.212	-58.2
887.383	27.82
887.555	-11.09
887.726	-17.24
887.897	-9.05
888.069	29.87
888.24	-45.91
888.412	33.96
888.583	54.44
888.754	52.39
888.926	-11.09
889.097	-9.05
889.268	-11.09
889.44	46.25
889.611	13.48
889.782	-4.95
889.953	-15.19
890.125	-31.57
890.296	3.24
890.467	-62.29
890.638	-45.91
890.809	-56.15
890.98	-2.9
891.151	13.48
891.323	-4.95
891.494	52.39
891.665	15.53
891.836	19.63
892.007	72.87
892.178	36.01
892.349	33.96
892.52	85.16
892.691	-41.81
892.862	-0.85
893.032	-13.14
893.203	-43.86
893.374	5.29
893.545	74.92
893.716	-13.14
893.887	-4.95
894.057	-17.24
894.228	-19.29
894.399	-25.43
894.57	29.87
894.74	9.39
894.911	36.01
895.082	17.58
895.253	-29.52
895.423	-39.76
895.594	15.53
895.764	-15.19
895.935	19.63
896.106	40.11
896.276	-23.38
896.447	56.49
896.617	-31.57
896.788	15.53
896.958	31.91
897.129	-19.29
897.299	-0.85
897.47	40.11
897.64	-17.24
897.81	23.72
897.981	-60.24
898.151	40.11
898.322	62.63
898.492	60.59
898.662	68.78
898.832	25.77
899.003	54.44
899.173	-21.33
899.343	-15.19
899.513	7.34
