Data from USB4F104151__4__10-14-14-305.txt Node

Date: Wed Mar 12 10:14:14 EDT 2025
User: louis
Spectrometer: USB4F10415
Trigger mode: 4
Integration Time (sec): 7.000000E-3
Scans to average: 1
Electric dark correction enabled: true
Nonlinearity correction enabled: false
Boxcar width: 0
XAxis mode: Wavelengths
Number of Pixels in Spectrum: 3648
>>>>>Begin Spectral Data<<<<<
178.204	8.53
178.424	8.53
178.644	8.53
178.864	-61.1
179.084	-65.19
179.304	24.92
179.524	-16.04
179.744	-22.19
179.964	0.34
180.184	-7.85
180.404	-1.71
180.624	14.68
180.844	16.73
181.064	-16.04
181.283	16.73
181.503	-1.71
181.723	-7.85
181.943	-3.75
182.163	29.01
182.383	35.16
182.602	49.49
182.822	10.58
183.042	31.06
183.262	-38.57
183.482	41.3
183.701	106.84
183.921	26.96
184.141	-7.85
184.361	8.53
184.58	-73.39
184.8	18.77
185.02	22.87
185.239	-48.81
185.459	-16.04
185.679	-36.52
185.898	29.01
186.118	-24.23
186.338	37.2
186.557	57.68
186.777	24.92
186.997	65.88
187.216	18.77
187.436	49.49
187.655	47.44
187.875	-22.19
188.095	41.3
188.314	49.49
188.534	82.26
188.753	-24.23
188.973	29.01
189.192	49.49
189.412	53.59
189.631	39.25
189.851	20.82
190.07	-1.71
190.29	-13.99
190.509	61.78
190.729	-110.25
190.948	102.74
191.168	-7.85
191.387	33.11
191.607	4.44
191.826	20.82
192.045	37.2
192.265	-5.8
192.484	-7.85
192.704	0.34
192.923	24.92
193.142	29.01
193.362	49.49
193.581	57.68
193.8	86.36
194.02	16.73
194.239	22.87
194.458	20.82
194.678	10.58
194.897	0.34
195.116	-59.05
195.335	16.73
195.555	-7.85
195.774	12.63
195.993	-9.9
196.212	-16.04
196.432	45.4
196.651	51.54
196.87	20.82
197.089	-9.9
197.308	-18.09
197.528	51.54
197.747	8.53
197.966	74.07
198.185	-3.75
198.404	18.77
198.623	4.44
198.842	49.49
199.062	41.3
199.281	65.88
199.5	-77.48
199.719	33.11
199.938	16.73
200.157	90.45
200.376	-7.85
200.595	74.07
200.814	41.3
201.033	-28.33
201.252	43.35
201.471	49.49
201.69	20.82
201.909	-11.95
202.128	-24.23
202.347	-65.19
202.566	-3.75
202.785	20.82
203.004	39.25
203.223	-3.75
203.442	4.44
203.661	-48.81
203.879	-50.86
204.098	41.3
204.317	8.53
204.536	20.82
204.755	49.49
204.974	-13.99
205.193	0.34
205.411	4.44
205.63	80.21
205.849	-26.28
206.068	14.68
206.287	45.4
206.505	4.44
206.724	-36.52
206.943	69.97
207.162	39.25
207.381	69.97
207.599	41.3
207.818	20.82
208.037	35.16
208.255	-1.71
208.474	20.82
208.693	31.06
208.911	-16.04
209.13	-20.14
209.349	-1.71
209.567	47.44
209.786	0.34
210.005	45.4
210.223	41.3
210.442	49.49
210.661	20.82
210.879	8.53
211.098	55.64
211.316	65.88
211.535	88.4
211.753	-9.9
211.972	18.77
212.191	-52.91
212.409	-7.85
212.628	43.35
212.846	90.45
213.065	41.3
213.283	41.3
213.502	2.39
213.72	57.68
213.938	45.4
214.157	12.63
214.375	12.63
214.594	33.11
214.812	96.6
215.031	20.82
215.249	20.82
215.467	33.11
215.686	82.26
215.904	45.4
216.122	16.73
216.341	39.25
216.559	-28.33
216.778	43.35
216.996	24.92
217.214	2.39
217.432	-54.95
217.651	45.4
217.869	57.68
218.087	8.53
218.306	45.4
218.524	69.97
218.742	-36.52
218.96	20.82
219.179	-38.57
219.397	53.59
219.615	53.59
219.833	20.82
220.051	20.82
220.27	-24.23
220.488	-9.9
220.706	39.25
220.924	67.92
221.142	-7.85
221.36	51.54
221.578	-50.86
221.796	-1.71
222.015	6.49
222.233	12.63
222.451	74.07
222.669	24.92
222.887	102.74
223.105	33.11
223.323	-16.04
223.541	74.07
223.759	-48.81
223.977	18.77
224.195	45.4
224.413	-7.85
224.631	35.16
224.849	-28.33
225.067	65.88
225.285	18.77
225.503	37.2
225.721	8.53
225.939	65.88
226.157	10.58
226.375	72.02
226.592	-1.71
226.81	106.84
227.028	-1.71
227.246	51.54
227.464	24.92
227.682	18.77
227.9	51.54
228.117	8.53
228.335	26.96
228.553	74.07
228.771	0.34
228.989	55.64
229.206	16.73
229.424	10.58
229.642	61.78
229.86	57.68
230.077	-30.38
230.295	8.53
230.513	-3.75
230.731	35.16
230.948	-57
231.166	-1.71
231.384	6.49
231.601	20.82
231.819	22.87
232.037	45.4
232.254	-7.85
232.472	-26.28
232.689	-24.23
232.907	-18.09
233.125	-69.29
233.342	18.77
233.56	-11.95
233.777	57.68
233.995	-11.95
234.213	24.92
234.43	16.73
234.648	43.35
234.865	37.2
235.083	-20.14
235.3	22.87
235.518	45.4
235.735	6.49
235.953	33.11
236.17	-79.53
236.388	45.4
236.605	82.26
236.822	-38.57
237.04	-18.09
237.257	16.73
237.475	-16.04
237.692	59.73
237.909	24.92
238.127	-5.8
238.344	45.4
238.562	12.63
238.779	10.58
238.996	-22.19
239.214	20.82
239.431	0.34
239.648	22.87
239.865	37.2
240.083	82.26
240.3	74.07
240.517	22.87
240.735	24.92
240.952	47.44
241.169	35.16
241.386	-40.62
241.603	35.16
241.821	12.63
242.038	147.8
242.255	51.54
242.472	47.44
242.689	-16.04
242.907	31.06
243.124	-24.23
243.341	20.82
243.558	-26.28
243.775	-34.47
243.992	-16.04
244.209	98.64
244.426	2.39
244.643	8.53
244.86	53.59
245.078	45.4
245.295	33.11
245.512	18.77
245.729	14.68
245.946	67.92
246.163	35.16
246.38	14.68
246.597	90.45
246.814	-18.09
247.031	-42.67
247.248	2.39
247.464	65.88
247.681	18.77
247.898	35.16
248.115	67.92
248.332	-9.9
248.549	26.96
248.766	-26.28
248.983	18.77
249.2	49.49
249.417	24.92
249.633	-5.8
249.85	24.92
250.067	6.49
250.284	0.34
250.501	29.01
250.717	8.53
250.934	-26.28
251.151	39.25
251.368	82.26
251.585	6.49
251.801	65.88
252.018	2.39
252.235	-16.04
252.451	63.83
252.668	47.44
252.885	98.64
253.102	43.35
253.318	16.73
253.535	-11.95
253.752	14.68
253.968	-7.85
254.185	43.35
254.401	4.44
254.618	43.35
254.835	72.02
255.051	-30.38
255.268	82.26
255.484	41.3
255.701	39.25
255.917	-28.33
256.134	35.16
256.351	49.49
256.567	-1.71
256.784	53.59
257	8.53
257.217	22.87
257.433	-67.24
257.65	20.82
257.866	16.73
258.082	39.25
258.299	-38.57
258.515	82.26
258.732	-24.23
258.948	47.44
259.165	41.3
259.381	47.44
259.597	53.59
259.814	20.82
260.03	8.53
260.246	-22.19
260.463	29.01
260.679	33.11
260.895	14.68
261.112	72.02
261.328	29.01
261.544	55.64
261.761	69.97
261.977	31.06
262.193	12.63
262.409	8.53
262.626	-57
262.842	65.88
263.058	55.64
263.274	57.68
263.49	20.82
263.707	8.53
263.923	14.68
264.139	24.92
264.355	22.87
264.571	35.16
264.787	69.97
265.004	49.49
265.22	-11.95
265.436	74.07
265.652	39.25
265.868	-18.09
266.084	16.73
266.3	37.2
266.516	8.53
266.732	51.54
266.948	4.44
267.164	53.59
267.38	119.12
267.596	88.4
267.812	18.77
268.028	-3.75
268.244	4.44
268.46	-30.38
268.676	-5.8
268.892	14.68
269.108	57.68
269.324	10.58
269.54	22.87
269.756	53.59
269.972	29.01
270.188	90.45
270.403	-7.85
270.619	8.53
270.835	-20.14
271.051	45.4
271.267	33.11
271.483	-11.95
271.698	33.11
271.914	-7.85
272.13	72.02
272.346	29.01
272.562	65.88
272.777	-5.8
272.993	4.44
273.209	-16.04
273.425	31.06
273.64	26.96
273.856	106.84
274.072	53.59
274.287	6.49
274.503	53.59
274.719	47.44
274.934	49.49
275.15	31.06
275.366	24.92
275.581	26.96
275.797	115.03
276.012	31.06
276.228	24.92
276.444	-32.43
276.659	78.16
276.875	0.34
277.09	29.01
277.306	55.64
277.521	0.34
277.737	-9.9
277.952	84.31
278.168	59.73
278.383	0.34
278.599	8.53
278.814	49.49
279.03	31.06
279.245	-5.8
279.461	12.63
279.676	18.77
279.892	74.07
280.107	8.53
280.322	106.84
280.538	45.4
280.753	-7.85
280.969	8.53
281.184	33.11
281.399	57.68
281.615	49.49
281.83	57.68
282.045	74.07
282.26	16.73
282.476	-16.04
282.691	96.6
282.906	57.68
283.122	94.55
283.337	41.3
283.552	61.78
283.767	41.3
283.983	119.12
284.198	20.82
284.413	24.92
284.628	-7.85
284.843	-26.28
285.058	-11.95
285.274	43.35
285.489	33.11
285.704	24.92
285.919	14.68
286.134	49.49
286.349	43.35
286.564	33.11
286.779	104.79
286.995	74.07
287.21	24.92
287.425	59.73
287.64	63.83
287.855	61.78
288.07	82.26
288.285	26.96
288.5	49.49
288.715	47.44
288.93	29.01
289.145	39.25
289.36	69.97
289.575	41.3
289.79	35.16
290.004	67.92
290.219	-24.23
290.434	24.92
290.649	12.63
290.864	45.4
291.079	8.53
291.294	-48.81
291.509	96.6
291.724	20.82
291.938	-3.75
292.153	-7.85
292.368	86.36
292.583	24.92
292.798	90.45
293.012	65.88
293.227	65.88
293.442	-24.23
293.657	55.64
293.871	51.54
294.086	76.12
294.301	74.07
294.516	14.68
294.73	41.3
294.945	117.08
295.16	41.3
295.374	20.82
295.589	49.49
295.804	-11.95
296.018	24.92
296.233	31.06
296.447	57.68
296.662	41.3
296.877	47.44
297.091	20.82
297.306	59.73
297.52	20.82
297.735	-50.86
297.949	-13.99
298.164	78.16
298.378	24.92
298.593	-36.52
298.807	-9.9
299.022	-28.33
299.236	88.4
299.451	59.73
299.665	41.3
299.88	74.07
300.094	-24.23
300.309	78.16
300.523	45.4
300.737	24.92
300.952	63.83
301.166	39.25
301.381	33.11
301.595	43.35
301.809	98.64
302.024	65.88
302.238	24.92
302.452	8.53
302.667	20.82
302.881	78.16
303.095	-16.04
303.309	-9.9
303.524	16.73
303.738	39.25
303.952	16.73
304.166	57.68
304.381	29.01
304.595	53.59
304.809	22.87
305.023	82.26
305.237	35.16
305.452	78.16
305.666	10.58
305.88	16.73
306.094	98.64
306.308	61.78
306.522	96.6
306.736	20.82
306.95	22.87
307.164	82.26
307.379	-34.47
307.593	20.82
307.807	63.83
308.021	-18.09
308.235	2.39
308.449	-18.09
308.663	20.82
308.877	-1.71
309.091	72.02
309.305	31.06
309.519	110.93
309.733	37.2
309.947	4.44
310.161	-1.71
310.374	16.73
310.588	96.6
310.802	29.01
311.016	49.49
311.23	0.34
311.444	-11.95
311.658	-18.09
311.872	18.77
312.085	14.68
312.299	65.88
312.513	16.73
312.727	-13.99
312.941	6.49
313.154	51.54
313.368	55.64
313.582	45.4
313.796	41.3
314.009	-46.76
314.223	31.06
314.437	18.77
314.651	-3.75
314.864	47.44
315.078	53.59
315.292	-9.9
315.505	4.44
315.719	39.25
315.933	-18.09
316.146	39.25
316.36	41.3
316.573	24.92
316.787	6.49
317.001	22.87
317.214	53.59
317.428	37.2
317.641	0.34
317.855	39.25
318.068	98.64
318.282	-22.19
318.495	125.27
318.709	98.64
318.922	-22.19
319.136	20.82
319.349	67.92
319.563	4.44
319.776	129.36
319.99	80.21
320.203	45.4
320.417	22.87
320.63	74.07
320.843	90.45
321.057	80.21
321.27	-3.75
321.483	41.3
321.697	35.16
321.91	33.11
322.124	55.64
322.337	-1.71
322.55	-30.38
322.763	10.58
322.977	45.4
323.19	55.64
323.403	4.44
323.617	4.44
323.83	98.64
324.043	8.53
324.256	90.45
324.469	115.03
324.683	61.78
324.896	37.2
325.109	49.49
325.322	20.82
325.535	-9.9
325.748	55.64
325.962	74.07
326.175	-1.71
326.388	41.3
326.601	-9.9
326.814	-11.95
327.027	45.4
327.24	57.68
327.453	10.58
327.666	2.39
327.879	-40.62
328.092	6.49
328.305	55.64
328.518	92.5
328.731	43.35
328.944	41.3
329.157	14.68
329.37	8.53
329.583	84.31
329.796	35.16
330.009	74.07
330.222	-26.28
330.435	57.68
330.648	37.2
330.861	72.02
331.073	49.49
331.286	74.07
331.499	14.68
331.712	74.07
331.925	-7.85
332.138	129.36
332.35	-1.71
332.563	18.77
332.776	51.54
332.989	37.2
333.202	33.11
333.414	26.96
333.627	39.25
333.84	74.07
334.053	49.49
334.265	33.11
334.478	24.92
334.691	76.12
334.903	57.68
335.116	82.26
335.329	90.45
335.541	82.26
335.754	92.5
335.966	125.27
336.179	110.93
336.392	33.11
336.604	39.25
336.817	115.03
337.029	88.4
337.242	18.77
337.454	24.92
337.667	47.44
337.88	20.82
338.092	20.82
338.305	69.97
338.517	43.35
338.729	106.84
338.942	72.02
339.154	72.02
339.367	96.6
339.579	-18.09
339.792	0.34
340.004	31.06
340.217	49.49
340.429	35.16
340.641	61.78
340.854	37.2
341.066	55.64
341.278	55.64
341.491	82.26
341.703	82.26
341.915	61.78
342.128	43.35
342.34	45.4
342.552	63.83
342.764	8.53
342.977	37.2
343.189	16.73
343.401	-28.33
343.613	20.82
343.826	51.54
344.038	63.83
344.25	33.11
344.462	31.06
344.674	31.06
344.886	100.69
345.099	115.03
345.311	-11.95
345.523	18.77
345.735	16.73
345.947	-18.09
346.159	41.3
346.371	47.44
346.583	74.07
346.795	24.92
347.007	88.4
347.219	26.96
347.431	0.34
347.643	59.73
347.855	29.01
348.067	90.45
348.279	94.55
348.491	-1.71
348.703	29.01
348.915	-1.71
349.127	49.49
349.339	76.12
349.551	-13.99
349.763	108.88
349.975	86.36
350.187	59.73
350.399	88.4
350.61	31.06
350.822	39.25
351.034	51.54
351.246	35.16
351.458	61.78
351.669	63.83
351.881	49.49
352.093	123.22
352.305	47.44
352.517	26.96
352.728	-1.71
352.94	39.25
353.152	31.06
353.363	33.11
353.575	-7.85
353.787	24.92
353.999	115.03
354.21	10.58
354.422	-24.23
354.633	98.64
354.845	69.97
355.057	59.73
355.268	65.88
355.48	24.92
355.692	98.64
355.903	-9.9
356.115	-24.23
356.326	94.55
356.538	145.75
356.749	108.88
356.961	33.11
357.172	61.78
357.384	39.25
357.595	61.78
357.807	53.59
358.018	43.35
358.23	-3.75
358.441	88.4
358.653	8.53
358.864	59.73
359.075	-1.71
359.287	110.93
359.498	2.39
359.709	10.58
359.921	22.87
360.132	102.74
360.344	82.26
360.555	37.2
360.766	55.64
360.977	6.49
361.189	106.84
361.4	41.3
361.611	57.68
361.823	69.97
362.034	37.2
362.245	41.3
362.456	74.07
362.667	-1.71
362.879	57.68
363.09	39.25
363.301	112.98
363.512	45.4
363.723	-1.71
363.935	35.16
364.146	51.54
364.357	-3.75
364.568	88.4
364.779	100.69
364.99	69.97
365.201	51.54
365.412	37.2
365.623	8.53
365.834	37.2
366.045	22.87
366.256	98.64
366.467	80.21
366.678	49.49
366.889	69.97
367.1	72.02
367.311	78.16
367.522	92.5
367.733	82.26
367.944	88.4
368.155	57.68
368.366	22.87
368.577	57.68
368.788	63.83
368.999	94.55
369.209	33.11
369.42	98.64
369.631	84.31
369.842	57.68
370.053	61.78
370.264	100.69
370.474	86.36
370.685	4.44
370.896	4.44
371.107	67.92
371.317	61.78
371.528	74.07
371.739	65.88
371.95	86.36
372.16	80.21
372.371	106.84
372.582	49.49
372.792	39.25
373.003	72.02
373.214	26.96
373.424	-28.33
373.635	57.68
373.846	153.94
374.056	24.92
374.267	53.59
374.477	57.68
374.688	49.49
374.898	67.92
375.109	82.26
375.319	43.35
375.53	20.82
375.74	88.4
375.951	82.26
376.161	20.82
376.372	57.68
376.582	16.73
376.793	61.78
377.003	47.44
377.214	90.45
377.424	90.45
377.635	65.88
377.845	33.11
378.055	102.74
378.266	8.53
378.476	88.4
378.686	110.93
378.897	141.65
379.107	74.07
379.317	45.4
379.528	82.26
379.738	69.97
379.948	-3.75
380.158	78.16
380.369	55.64
380.579	137.56
380.789	37.2
380.999	26.96
381.21	47.44
381.42	82.26
381.63	45.4
381.84	84.31
382.05	117.08
382.261	65.88
382.471	65.88
382.681	69.97
382.891	86.36
383.101	119.12
383.311	69.97
383.521	0.34
383.731	80.21
383.941	18.77
384.151	88.4
384.361	135.51
384.571	39.25
384.781	45.4
384.991	18.77
385.201	4.44
385.411	-7.85
385.621	61.78
385.831	-11.95
386.041	53.59
386.251	65.88
386.461	78.16
386.671	78.16
386.881	108.88
387.091	72.02
387.301	63.83
387.511	16.73
387.72	10.58
387.93	33.11
388.14	20.82
388.35	43.35
388.56	63.83
388.769	86.36
388.979	63.83
389.189	78.16
389.399	82.26
389.609	45.4
389.818	127.32
390.028	49.49
390.238	115.03
390.447	31.06
390.657	78.16
390.867	57.68
391.076	33.11
391.286	82.26
391.496	82.26
391.705	-32.43
391.915	80.21
392.125	-3.75
392.334	121.17
392.544	33.11
392.753	98.64
392.963	106.84
393.172	16.73
393.382	33.11
393.591	80.21
393.801	57.68
394.01	49.49
394.22	24.92
394.429	78.16
394.639	90.45
394.848	80.21
395.058	176.47
395.267	80.21
395.477	67.92
395.686	78.16
395.895	155.99
396.105	96.6
396.314	119.12
396.524	49.49
396.733	74.07
396.942	162.13
397.152	72.02
397.361	98.64
397.57	65.88
397.78	106.84
397.989	67.92
398.198	123.22
398.407	80.21
398.617	74.07
398.826	139.6
399.035	115.03
399.244	86.36
399.453	102.74
399.663	115.03
399.872	67.92
400.081	129.36
400.29	170.32
400.499	80.21
400.708	133.46
400.917	121.17
401.127	131.41
401.336	166.23
401.545	41.3
401.754	102.74
401.963	86.36
402.172	151.89
402.381	166.23
402.59	90.45
402.799	90.45
403.008	115.03
403.217	106.84
403.426	106.84
403.635	104.79
403.844	115.03
404.053	141.65
404.262	164.18
404.471	117.08
404.68	137.56
404.888	112.98
405.097	90.45
405.306	170.32
405.515	151.89
405.724	149.84
405.933	182.61
406.142	239.95
406.35	155.99
406.559	203.09
406.768	100.69
406.977	213.33
407.185	194.9
407.394	227.67
407.603	205.14
407.812	285.01
408.02	248.15
408.229	135.51
408.438	176.47
408.646	180.56
408.855	213.33
409.064	239.95
409.272	225.62
409.481	325.97
409.69	305.49
409.898	237.91
410.107	334.16
410.315	262.48
410.524	303.44
410.733	377.17
410.941	348.5
411.15	366.93
411.358	295.25
411.567	325.97
411.775	424.27
411.984	330.06
412.192	483.66
412.401	407.89
412.609	377.17
412.818	534.86
413.026	538.96
413.234	508.24
413.443	598.35
413.651	577.87
413.86	651.6
414.068	569.68
414.276	686.41
414.485	608.59
414.693	741.71
414.901	770.38
415.11	751.95
415.318	723.27
415.526	921.93
415.734	813.38
415.943	883.02
416.151	893.26
416.359	926.02
416.567	930.12
416.776	1018.18
416.984	1149.25
417.192	1089.86
417.4	1081.67
417.608	1134.92
417.817	1153.35
418.025	1253.7
418.233	1413.44
418.441	1356.1
418.649	1491.26
418.857	1515.84
419.065	1487.17
419.273	1489.21
419.481	1620.28
419.689	1765.69
419.897	1892.66
420.105	1925.43
420.313	1947.96
420.521	2029.88
420.729	2122.04
420.937	2113.85
421.145	2273.59
421.353	2271.54
421.561	2375.99
421.769	2564.4
421.977	2593.07
422.185	2517.29
422.393	2787.63
422.601	3006.76
422.809	2998.57
423.017	3041.57
423.224	3207.46
423.432	3227.94
423.64	3352.87
423.848	3539.23
424.056	3477.79
424.263	3676.45
424.471	3768.6
424.679	3782.94
424.887	4141.33
425.094	4282.64
425.302	4217.11
425.51	4329.75
425.718	4462.87
425.925	4598.03
426.133	4784.4
426.341	5032.2
426.548	5269.76
426.756	5300.48
426.964	5421.31
427.171	5716.22
427.379	5777.66
427.586	5906.68
427.794	6060.28
428.001	6383.86
428.209	6756.59
428.417	6721.77
428.624	7045.35
428.832	7092.46
429.039	7024.87
429.247	7209.19
429.454	7700.7
429.662	8083.67
429.869	7782.62
430.076	8126.68
430.284	7944.41
430.491	8569.04
430.699	8866
430.906	8962.25
431.114	8931.53
431.321	9251.02
431.528	9480.39
431.736	10043.58
431.943	10627.25
432.15	10277.05
432.358	10361.02
432.565	10911.92
432.772	11030.7
432.979	11475.11
433.187	11876.51
433.394	11968.67
433.601	12593.3
433.808	12574.87
434.016	12427.42
434.223	13037.71
434.43	13713.54
434.637	13568.13
434.844	14424.19
435.052	14839.92
435.259	14557.3
435.466	14485.62
435.673	14633.08
435.88	15743.08
436.087	16332.89
436.294	16390.24
436.501	16054.37
436.708	16263.26
436.915	17045.59
437.122	17625.16
437.329	17639.5
437.537	18268.22
437.743	18335.81
437.95	18133.06
438.157	19423.28
438.364	20076.58
438.571	19705.9
438.778	20019.24
438.985	21932.04
439.192	20961.3
439.399	21903.37
439.606	21426.19
439.813	22349.82
440.02	23615.47
440.227	23287.79
440.433	23275.51
440.64	23863.27
440.847	24080.36
441.054	24504.29
441.261	25739.21
441.467	25397.2
441.674	26283.97
441.881	26976.19
442.088	26970.04
442.294	26576.83
442.501	27666.35
442.708	27879.34
442.914	29093.79
443.121	30082.95
443.328	29749.14
443.534	31412.09
443.741	30683.01
443.948	30328.71
444.154	32237.42
444.361	32116.59
444.568	32526.18
444.774	32587.62
444.981	32698.21
445.187	33560.41
445.394	35116.86
445.6	34465.61
445.807	38072.08
446.013	35903.28
446.22	37064.48
446.426	38391.56
446.633	38668.04
446.839	39569.15
447.046	37873.43
447.252	40314.61
447.459	40419.05
447.665	39825.14
447.871	41492.19
448.078	43312.83
448.284	41572.06
448.491	42540.75
448.697	44017.33
448.903	45033.13
449.11	44820.14
449.316	43992.76
449.522	44717.74
449.728	46104.21
449.935	46380.69
450.141	46304.91
450.347	47324.8
450.553	45450.91
450.76	46360.21
450.966	47720.06
451.172	47199.88
451.378	48060.02
451.584	46997.13
451.791	48203.38
451.997	47908.47
452.203	48559.73
452.409	48531.06
452.615	48121.46
452.821	46663.31
453.027	45805.21
453.233	48522.86
453.44	46655.12
453.646	47077
453.852	47089.29
454.058	47867.51
454.264	46116.5
454.47	47222.4
454.676	45786.78
454.882	47486.59
455.088	43296.45
455.294	44103.35
455.5	44738.22
455.705	45254.31
455.911	43247.3
456.117	42342.1
456.323	42110.67
456.529	39915.25
456.735	41240.29
456.941	40224.5
457.147	39536.38
457.352	38553.35
457.558	37611.29
457.764	37873.43
457.97	37539.61
458.176	36687.65
458.381	36701.99
458.587	34744.13
458.793	34459.46
458.999	33124.19
459.204	35239.74
459.41	34082.64
459.616	31856.5
459.821	32102.25
460.027	32229.23
460.233	31031.16
460.438	29730.7
460.644	30103.43
460.85	28753.82
461.055	28247.97
461.261	28293.03
461.466	26077.13
461.672	25569.23
461.878	27156.41
462.083	25440.21
462.289	25290.71
462.494	25038.81
462.7	23713.77
462.905	22872.06
463.111	23928.81
463.316	23752.68
463.522	23724.01
463.727	23824.36
463.932	23271.41
464.138	23338.99
464.343	23461.87
464.549	22517.76
464.754	23523.31
464.959	23214.07
465.165	22951.93
465.37	22130.69
465.575	21626.89
465.781	22505.47
465.986	22616.06
466.191	21620.75
466.397	21108.76
466.602	20385.82
466.807	20949.01
467.012	21055.51
467.218	21028.88
467.423	20756.5
467.628	20461.6
467.833	21714.95
468.038	20875.29
468.244	20418.59
468.449	21075.99
468.654	20488.22
468.859	20076.58
469.064	20095.01
469.269	19150.9
469.474	19374.13
469.679	20082.72
469.885	19241.01
470.09	19591.21
470.295	19488.81
470.5	18917.43
470.705	19202.1
470.91	18389.05
471.115	18458.68
471.32	18931.76
471.525	18296.89
471.73	18221.12
471.935	18047.04
472.139	17365.07
472.344	17801.29
472.549	17522.76
472.754	17231.95
472.959	17127.5
473.164	16732.25
473.369	16287.84
473.574	17160.27
473.778	16846.93
473.983	16722.01
474.188	16797.78
474.393	15919.2
474.598	16009.31
474.802	15896.67
475.007	15720.55
475.212	15530.09
475.417	15251.56
475.621	15267.95
475.826	15286.38
476.031	14891.12
476.235	14661.75
476.44	14930.03
476.645	14409.85
476.849	14653.56
477.054	14358.65
477.259	14483.58
477.463	14301.31
477.668	13852.8
477.872	14090.37
478.077	13938.82
478.282	13359.24
478.486	13682.82
478.691	13215.88
478.895	13381.77
479.1	13113.49
479.304	13138.06
479.509	12904.59
479.713	13115.53
479.918	12667.03
480.122	12619.92
480.326	12830.87
480.531	12734.61
480.735	12601.49
480.94	12687.51
481.144	12988.56
481.348	12245.15
481.553	12533.91
481.757	12236.95
481.961	12228.76
482.166	12689.56
482.37	12673.17
482.574	12253.34
482.778	12419.22
482.983	12468.38
483.187	12411.03
483.391	12677.27
483.595	12193.95
483.8	12312.73
484.004	12277.91
484.208	12292.25
484.412	12122.27
484.616	12226.71
484.821	12355.74
485.025	12132.51
485.229	12271.77
485.433	12404.89
485.637	12308.63
485.841	12161.18
486.045	12073.12
486.249	12234.91
486.453	12222.62
486.657	12388.5
486.861	12325.02
487.065	12107.93
487.269	12243.1
487.473	12191.9
487.677	12480.66
487.881	12427.42
488.085	12286.11
488.289	12378.26
488.493	12030.11
488.697	12404.89
488.901	12529.81
489.105	12427.42
489.309	12513.43
489.512	12384.41
489.716	12509.33
489.92	12337.31
490.124	12398.74
490.328	12740.75
490.531	12566.68
490.735	12671.12
490.939	12845.2
491.143	12505.24
491.346	12765.33
491.55	12769.43
491.754	12566.68
491.958	12896.4
492.161	12896.4
492.365	13256.84
492.569	12968.08
492.772	13047.95
492.976	13062.29
493.18	12974.22
493.383	13303.95
493.587	13445.26
493.79	13674.63
493.994	13310.09
494.197	13645.96
494.401	13686.92
494.605	13678.72
494.808	13676.68
495.012	13908.1
495.215	14063.74
495.419	14166.14
495.622	14153.85
495.825	14274.68
496.029	14278.78
496.232	14596.21
496.436	14377.08
496.639	15007.86
496.843	14905.46
497.046	15171.69
497.249	15425.64
497.453	15317.1
497.656	15353.96
497.859	15493.22
498.063	15657.06
498.266	15900.77
498.469	16095.33
498.673	16191.58
498.876	16447.58
499.079	16437.34
499.282	16330.84
499.485	17047.63
499.689	17391.69
499.892	17297.49
500.095	17221.71
500.298	17848.39
500.501	17754.18
500.705	17977.41
500.908	18243.65
501.111	18149.44
501.314	18657.34
501.517	18806.84
501.72	18962.48
501.923	18931.76
502.126	19077.17
502.329	19828.77
502.532	19599.4
502.735	19816.49
502.938	20402.21
503.141	20258.85
503.344	20758.55
503.547	20512.8
503.75	21182.48
503.953	21221.39
504.156	21624.84
504.359	21536.78
504.562	21334.03
504.765	22042.63
504.968	22071.3
505.17	22566.91
505.373	22665.21
505.576	22958.07
505.779	23277.55
505.982	23300.08
506.185	23621.61
506.387	23955.43
506.59	24090.6
506.793	24512.48
506.996	24399.84
507.198	24942.55
507.401	25024.47
507.604	25331.67
507.807	25710.54
508.009	25880.52
508.212	25851.85
508.415	26597.31
508.617	26402.75
508.82	26320.84
509.022	26832.83
509.225	27223.99
509.428	27621.3
509.63	27707.31
509.833	27842.48
510.035	28227.49
510.238	28426.15
510.44	28909.47
510.643	29212.57
510.845	29028.25
511.048	29011.87
511.25	29573.01
511.453	29632.4
511.655	30652.29
511.858	30250.89
512.06	30498.69
512.262	31170.43
512.465	30867.33
512.667	31608.69
512.87	31367.03
513.072	31760.24
513.274	32454.5
513.477	32833.38
513.679	32837.47
513.881	33159
514.084	33541.97
514.286	33335.13
514.488	33711.95
514.69	34350.92
514.893	34627.4
515.095	34649.92
515.297	34805.57
515.499	34989.89
515.701	35311.42
515.904	35632.95
516.106	35729.2
516.308	36120.37
516.51	36611.88
516.712	36544.3
516.914	36740.9
517.116	37340.96
517.318	37512.98
517.52	37381.91
517.722	37816.08
517.925	37869.33
518.127	39036.67
518.329	38741.77
518.531	38635.27
518.733	39343.87
518.935	39493.37
519.136	39495.42
519.338	40007.41
519.54	39933.68
519.742	40666.86
519.944	40423.15
520.146	41234.14
520.348	40972
520.55	41416.41
520.752	41354.97
520.954	42174.16
521.155	41662.17
521.357	42198.74
521.559	42827.46
521.761	43458.24
521.963	43148.99
522.164	43280.06
522.366	43144.9
522.568	43736.76
522.77	43509.44
522.971	44271.28
523.173	43716.28
523.375	44265.14
523.576	44283.57
523.778	44388.02
523.98	44895.91
524.181	44936.87
524.383	44750.51
524.584	45270.69
524.786	45393.57
524.988	45237.92
525.189	45751.96
525.391	45876.89
525.592	46012.06
525.794	45960.86
525.995	46093.97
526.197	46130.84
526.398	46458.51
526.6	46390.93
526.801	46575.25
527.003	46788.24
527.204	46790.28
527.406	46976.65
527.607	46737.04
527.808	47427.2
528.01	46653.07
528.211	47146.63
528.412	47855.23
528.614	47091.33
528.815	47625.85
529.016	47773.31
529.218	47163.01
529.419	47814.27
529.62	47752.83
529.822	47883.9
530.023	47728.25
530.224	47646.33
530.425	47646.33
530.626	47457.92
530.828	47523.46
531.029	48703.09
531.23	47761.02
531.431	47961.72
531.632	47883.9
531.833	48297.59
532.035	48182.9
532.236	47949.43
532.437	48084.6
532.638	48246.39
532.839	48025.21
533.04	47775.36
533.241	47906.43
533.442	48465.52
533.643	47851.13
533.844	48125.56
534.045	48189.05
534.246	47693.44
534.447	47924.86
534.648	48076.41
534.849	48072.31
535.05	47744.64
535.251	47634.05
535.451	47898.23
535.652	47781.5
535.853	47920.76
536.054	48027.26
536.255	48053.88
536.456	47478.4
536.657	48420.47
536.857	47527.55
537.058	47576.7
537.259	47877.75
537.46	47871.61
537.66	47634.05
537.861	47668.86
538.062	47713.92
538.263	48277.11
538.463	47924.86
538.664	47879.8
538.865	47781.5
539.065	48055.93
539.266	47509.12
539.466	48012.92
539.667	47269.51
539.868	48055.93
540.068	47580.8
540.269	47345.28
540.469	47801.98
540.67	47394.43
540.87	47539.84
541.071	47431.3
541.271	47756.92
541.472	47367.81
541.672	47253.12
541.873	47498.88
542.073	46829.19
542.274	47586.94
542.474	47535.74
542.675	47017.61
542.875	47416.96
543.075	47507.07
543.276	46872.2
543.476	47693.44
543.676	47263.36
543.877	47294.08
544.077	46816.91
544.277	46915.21
544.478	46749.32
544.678	47695.49
544.878	47163.01
545.078	47077
545.279	46945.93
545.479	46980.74
545.679	46677.65
545.879	46851.72
546.079	47060.62
546.28	46661.26
546.48	47019.66
546.68	46986.89
546.88	46968.46
547.08	47027.85
547.28	47023.75
547.48	46648.97
547.68	46462.61
547.88	46286.48
548.081	46888.59
548.281	46853.77
548.481	46773.9
548.681	46548.62
548.881	46571.15
549.081	46747.28
549.28	46229.14
549.48	46718.6
549.68	46376.59
549.88	47031.94
550.08	45999.77
550.28	46911.11
550.48	46216.85
550.68	46798.48
550.88	46378.64
551.08	46235.28
551.279	46681.74
551.479	46188.18
551.679	46220.95
551.879	46280.34
552.079	46311.06
552.278	46495.38
552.478	46513.81
552.678	46163.6
552.878	46530.19
553.077	46188.18
553.277	45954.71
553.477	46462.61
553.676	46306.96
553.876	46259.86
554.076	46134.93
554.275	46059.16
554.475	45368.99
554.674	46130.84
554.874	46241.43
555.074	46106.26
555.273	46196.37
555.473	46548.62
555.672	45512.35
555.872	46048.92
556.071	45715.1
556.271	46302.87
556.47	45551.26
556.67	45303.46
556.869	45723.29
557.068	45762.2
557.268	45323.94
557.467	45434.53
557.667	45655.71
557.866	45381.28
558.065	45596.32
558.265	45246.11
558.464	45446.82
558.663	45862.55
558.863	44992.17
559.062	45893.27
559.261	45069.99
559.461	45487.78
559.66	44943.02
559.859	45364.9
560.058	44885.67
560.258	45364.9
560.457	44969.64
560.656	45317.79
560.855	44955.3
561.054	45092.52
561.253	45289.12
561.453	45059.75
561.652	45094.57
561.851	44922.54
562.05	44920.49
562.249	44725.93
562.448	45029.03
562.647	44791.47
562.846	44617.39
563.045	44601
563.244	44738.22
563.443	45172.39
563.642	44205.75
563.841	44789.42
564.04	44162.74
564.239	44922.54
564.438	43921.08
564.637	44517.04
564.836	44478.13
565.035	43863.74
565.234	44017.33
565.432	44242.61
565.631	43957.94
565.83	44752.55
566.029	43914.94
566.228	43869.88
566.427	44115.64
566.625	43615.93
566.824	43206.34
567.023	44019.38
567.222	43294.4
567.42	44105.4
567.619	43572.92
567.818	43505.34
568.016	43476.67
568.215	43660.99
568.414	43441.85
568.612	43841.21
568.811	43192
569.01	43863.74
569.208	43087.56
569.407	43423.42
569.605	42880.71
569.804	43382.46
570.002	42723.02
570.201	43271.87
570.4	42837.7
570.598	42579.66
570.797	42544.84
570.995	42811.08
571.193	42321.62
571.392	43183.81
571.59	42301.14
571.789	42204.88
571.987	42356.43
572.186	42374.86
572.384	42297.04
572.582	42464.97
572.781	42176.21
572.979	42168.02
573.177	42454.73
573.376	42503.88
573.574	41701.08
573.772	42680.01
573.971	41905.88
574.169	41944.79
574.367	41600.73
574.565	42127.06
574.763	41627.35
574.962	41578.2
575.16	41424.61
575.358	41709.27
575.556	41119.46
575.754	41688.79
575.952	40771.3
576.151	41371.36
576.349	40879.85
576.547	40820.45
576.745	41021.16
576.943	40867.56
577.141	40832.74
577.339	40914.66
577.537	40138.48
577.735	40773.35
577.933	40074.99
578.131	40744.68
578.329	40474.35
578.527	40175.34
578.725	40167.15
578.923	40042.23
579.121	40320.75
579.319	40144.62
579.516	40120.05
579.714	39900.92
579.912	39636.73
580.11	39909.11
580.308	40044.27
580.506	39659.26
580.704	39196.42
580.901	39864.05
581.099	39831.29
581.297	38995.71
581.495	39184.13
581.692	39470.84
581.89	38672.14
582.088	39003.91
582.285	38442.76
582.483	39345.92
582.681	38954.75
582.878	38321.93
583.076	38319.88
583.274	38766.34
583.471	37875.48
583.669	38244.11
583.866	38059.79
584.064	38475.53
584.262	38127.38
584.459	38362.89
584.657	37910.29
584.854	38262.54
585.052	37955.35
585.249	37801.75
585.447	37701.4
585.644	37314.33
585.841	37332.76
586.039	37553.94
586.236	37220.13
586.434	36849.44
586.631	36773.67
586.828	37140.25
587.026	37080.86
587.223	36906.79
587.42	36767.52
587.618	36609.83
587.815	36413.23
588.012	36179.76
588.21	36497.19
588.407	36472.62
588.604	35610.42
588.801	35923.76
588.999	35931.95
589.196	35847.99
589.393	36218.67
589.59	35540.79
589.787	35579.7
589.984	35399.48
590.182	35641.14
590.379	35368.76
590.576	35151.68
590.773	35335.99
590.97	34840.39
591.167	35028.8
591.364	35075.9
591.561	34809.67
591.758	34692.93
591.955	34574.15
592.152	34801.47
592.349	34240.33
592.546	34312.01
592.743	34170.7
592.94	33691.48
593.137	34279.24
593.334	34510.66
593.531	33660.76
593.727	34015.05
593.924	33951.57
594.121	33484.63
594.318	33607.51
594.515	32954.21
594.712	33570.65
594.908	33224.54
595.105	33396.57
595.302	32683.87
595.499	32997.21
595.696	32714.59
595.892	32821.09
596.089	32567.14
596.286	32835.42
596.482	32536.42
596.679	32319.34
596.876	32759.65
597.072	32323.43
597.269	32206.7
597.466	32081.77
597.662	31743.86
597.859	32055.15
598.055	31967.09
598.252	31358.84
598.448	31815.54
598.645	31692.66
598.841	31676.27
599.038	31485.81
599.234	31238.01
599.431	31127.42
599.627	31258.49
599.824	31352.69
600.02	30654.34
600.217	31182.71
600.413	30857.09
600.609	30709.63
600.806	30445.44
601.002	30490.5
601.198	30531.46
601.395	30072.71
601.591	30144.39
601.787	30451.59
601.984	29874.06
602.18	30412.68
602.376	29888.4
602.572	29736.85
602.769	29912.97
602.965	29429.65
603.161	29761.42
603.357	29474.71
603.553	29493.14
603.75	29386.64
603.946	29243.29
604.142	29493.14
604.338	28690.34
604.534	29212.57
604.73	29079.45
604.926	28999.58
605.122	28903.32
605.318	28127.14
605.514	28438.44
605.71	28223.4
605.906	28235.69
606.102	28528.55
606.298	28497.83
606.494	28356.52
606.69	28133.29
606.886	27977.64
607.082	27549.62
607.278	28256.17
607.474	27817.9
607.67	28286.89
607.866	27629.49
608.062	28385.19
608.257	27463.6
608.453	27996.07
608.649	27643.82
608.845	27498.42
609.041	27703.21
609.236	27596.72
609.432	27514.8
609.628	27379.64
609.824	27109.3
610.019	27400.12
610.215	27158.45
610.411	27404.21
610.606	27215.8
610.802	27078.58
610.998	26781.63
611.193	27101.11
611.389	26890.17
611.584	26652.61
611.78	26623.94
611.976	26519.49
612.171	26814.4
612.367	26509.25
612.562	26511.3
612.758	26159.05
612.953	26515.39
613.149	26429.38
613.344	26298.31
613.539	26834.88
613.735	26427.33
613.93	26267.59
614.126	26183.62
614.321	26335.17
614.517	26296.26
614.712	26273.73
614.907	26040.26
615.103	26097.61
615.298	25944.01
615.493	26349.51
615.688	25812.94
615.884	26337.22
616.079	25395.15
616.274	25749.45
616.47	25565.14
616.665	26030.02
616.86	25489.36
617.055	25636.81
617.25	25565.14
617.445	25683.92
617.641	25272.28
617.836	25655.25
618.031	25155.54
618.226	25335.76
618.421	25200.6
618.616	25481.17
618.811	24852.44
619.006	25259.99
619.201	24768.48
619.396	24770.52
619.591	24645.6
619.786	24723.42
619.981	24457.18
620.176	24664.03
620.371	24238.05
620.566	24244.2
620.761	23957.48
620.956	24281.06
621.151	24025.06
621.346	23969.77
621.541	23603.18
621.735	23848.94
621.93	23406.58
622.125	23343.09
622.32	23236.59
622.515	23293.94
622.709	22964.21
622.904	22980.6
623.099	22935.54
623.294	22740.99
623.488	22556.67
623.683	22513.66
623.878	22302.72
624.072	22398.98
624.267	22403.07
624.462	22310.91
624.656	21973
624.851	21903.37
625.046	21837.83
625.24	21731.34
625.435	21448.72
625.629	21309.46
625.824	21217.3
626.018	21051.41
626.213	20842.52
626.407	21112.85
626.602	20899.86
626.796	20875.29
626.991	20819.99
627.185	20813.85
627.38	20355.1
627.574	20264.99
627.768	20002.85
627.963	20400.16
628.157	19972.13
628.352	20049.96
628.546	19722.28
628.74	20035.62
628.935	19505.2
629.129	19787.82
629.323	19253.3
629.517	19421.23
629.712	19331.12
629.906	19200.05
630.1	18833.46
630.294	19189.81
630.489	18739.26
630.683	18890.81
630.877	18661.43
631.071	18499.64
631.265	18421.82
631.459	18239.55
631.653	18368.57
631.848	18321.47
632.042	18223.17
632.236	18247.74
632.43	17891.4
632.624	18112.58
632.818	17702.98
633.012	17819.72
633.206	17428.56
633.4	17571.91
633.594	17244.24
633.788	17385.55
633.982	17434.7
634.176	17104.98
634.369	17115.22
634.563	17039.44
634.757	17057.87
634.951	16973.91
635.145	16627.8
635.339	16887.89
635.533	16566.36
635.726	16605.27
635.92	16220.25
636.114	16515.16
636.308	16212.06
636.501	16144.48
636.695	16154.72
636.889	15904.87
637.083	15683.69
637.276	15808.61
637.47	15669.35
637.664	15747.17
637.857	15741.03
638.051	15689.83
638.244	15194.22
638.438	15292.52
638.632	15421.55
638.825	15288.43
639.019	15339.63
639.212	14915.7
639.406	15077.49
639.599	15022.19
639.793	14870.64
639.986	14755.96
640.18	14788.72
640.373	14536.82
640.567	14534.78
640.76	14491.77
640.954	14434.43
641.147	14170.24
641.34	14413.95
641.534	14211.2
641.727	13992.06
641.92	14065.79
642.114	14004.35
642.307	13990.02
642.5	13934.72
642.694	13570.18
642.887	13805.7
643.08	13795.46
643.273	13701.25
643.467	13609.09
643.66	13428.87
643.853	13531.27
644.046	13418.63
644.239	13291.66
644.432	13138.06
644.626	12947.6
644.819	12980.37
645.012	13203.6
645.205	12945.55
645.398	12736.66
645.591	12755.09
645.784	12841.11
645.977	12550.29
646.17	12538.01
646.363	12501.14
646.556	12226.71
646.749	12298.39
646.942	12529.81
647.135	12234.91
647.328	12277.91
647.521	12263.58
647.714	12038.3
647.907	11800.74
648.099	11956.38
648.292	12167.32
648.485	12044.45
648.678	11729.06
648.871	11792.55
649.064	11561.12
649.256	11690.15
649.449	11565.22
649.642	11546.79
649.835	11223.21
650.027	11346.09
650.22	11311.27
650.413	11337.9
650.605	11186.35
650.798	11251.88
650.991	11296.94
651.183	11088.04
651.376	10768.56
651.568	10870.96
651.761	10909.87
651.954	10795.18
652.146	10789.04
652.339	10653.87
652.531	10539.19
652.724	10668.21
652.916	10436.79
653.109	10457.27
653.301	10410.17
653.494	10551.48
653.686	10150.07
653.879	10559.67
654.071	10369.21
654.263	9998.52
654.456	10049.72
654.648	10129.59
654.84	9994.43
655.033	10066.11
655.225	9775.3
655.417	9754.82
655.61	9674.95
655.802	9902.27
655.994	9791.68
656.186	10043.58
656.379	9400.52
656.571	9674.95
656.763	9502.92
656.955	9461.96
657.148	9398.47
657.34	9371.85
657.532	8880.33
657.724	9257.16
657.916	9330.89
658.108	9081.03
658.3	9035.98
658.492	9214.15
658.684	8939.72
658.876	9083.08
659.068	8970.44
659.26	8827.09
659.452	8898.77
659.644	8779.98
659.836	8759.5
660.028	8577.23
660.22	8487.12
660.412	8343.77
660.604	8429.78
660.796	8386.77
660.988	8476.88
661.18	8169.69
661.372	8227.03
661.563	8214.74
661.755	8179.93
661.947	8331.48
662.139	8194.26
662.331	8280.28
662.522	7958.75
662.714	8005.85
662.906	7925.98
663.097	8005.85
663.289	7921.88
663.481	7751.9
663.673	7762.14
663.864	7643.36
664.056	7774.43
664.247	7727.33
664.439	7526.63
664.631	7782.62
664.822	7471.33
665.014	7504.1
665.205	7524.58
665.397	7323.88
665.588	7436.52
665.78	7411.94
665.971	7336.17
666.163	7411.94
666.354	7092.46
666.546	7139.56
666.737	7125.22
666.929	7102.7
667.12	7069.93
667.311	7067.88
667.503	7020.78
667.694	7071.98
667.885	6668.53
668.077	6791.41
668.268	6723.82
668.459	6719.73
668.651	6770.93
668.842	6549.75
669.033	6697.2
669.224	6547.7
669.416	6652.14
669.607	6693.1
669.798	6332.66
669.989	6598.9
670.18	6410.48
670.371	6381.81
670.563	6387.96
670.754	6338.8
670.945	6344.95
671.136	6297.85
671.327	6252.79
671.518	6191.35
671.709	6099.19
671.9	6273.27
672.091	6183.16
672.282	6068.47
672.473	5974.27
672.664	5867.77
672.855	6093.05
673.046	6037.75
673.237	5976.31
673.428	5806.33
673.619	5966.07
673.809	5771.52
674	5658.88
674.191	5714.17
674.382	5890.3
674.573	5726.46
674.764	5681.41
674.954	5767.42
675.145	5411.07
675.336	5411.07
675.527	5632.26
675.717	5464.32
675.908	5511.43
676.099	5349.64
676.289	5413.12
676.48	5439.75
676.671	5366.02
676.861	5404.93
677.052	5347.59
677.243	5193.99
677.433	5163.27
677.624	5210.37
677.814	5159.17
678.005	5128.46
678.195	5167.37
678.386	5013.77
678.576	5206.28
678.767	5011.72
678.957	4872.46
679.148	5019.91
679.338	4958.47
679.529	4997.39
679.719	4749.58
679.909	4890.89
680.1	4788.49
680.29	4759.82
680.481	4837.64
680.671	4690.19
680.861	4763.92
681.052	4686.09
681.242	4577.55
681.432	4741.39
681.622	4620.56
681.813	4561.17
682.003	4575.5
682.193	4440.34
682.383	4430.1
682.573	4530.45
682.764	4395.28
682.954	4499.73
683.144	4391.19
683.334	4448.53
683.524	4426
683.714	4303.12
683.904	4303.12
684.094	4417.81
684.284	4292.88
684.474	4323.6
684.664	4270.36
684.854	4313.36
685.044	4137.24
685.234	4036.89
685.424	4165.91
685.614	4118.81
685.804	4055.32
685.994	4061.46
686.184	3991.83
686.374	4071.7
686.564	4067.61
686.753	4055.32
686.943	3989.78
687.133	3791.13
687.323	3864.86
687.513	3946.78
687.702	3881.24
687.892	3879.19
688.082	4010.26
688.272	3924.25
688.461	3694.88
688.651	3766.56
688.841	3723.55
689.03	3731.74
689.22	3711.26
689.41	3680.54
689.599	3668.25
689.789	3653.92
689.979	3569.95
690.168	3645.73
690.358	3518.75
690.547	3580.19
690.737	3469.6
690.926	3514.66
691.116	3379.49
691.305	3629.34
691.495	3440.93
691.684	3481.89
691.874	3477.79
692.063	3391.78
692.252	3463.46
692.442	3453.22
692.631	3354.91
692.82	3330.34
693.01	3236.13
693.199	3203.36
693.388	3279.14
693.578	3195.17
693.767	3244.32
693.956	3283.24
694.146	3121.45
694.335	3258.66
694.524	3205.41
694.713	3182.88
694.902	3176.74
695.092	3111.21
695.281	3086.63
695.47	3152.17
695.659	3035.43
695.848	3006.76
696.037	3047.72
696.226	2963.75
696.415	2898.22
696.604	3092.77
696.793	2982.18
696.982	2924.84
697.171	2951.46
697.36	2810.15
697.549	2875.69
697.738	2863.4
697.927	2887.98
698.116	2922.79
698.305	2781.48
698.494	2877.74
698.683	2900.27
698.872	2892.07
699.061	2799.91
699.25	2840.87
699.438	2982.18
699.627	2709.8
699.816	2756.91
700.005	2840.87
700.193	2683.18
700.382	2617.65
700.571	2724.14
700.76	2756.91
700.948	2627.89
701.137	2545.97
701.326	2646.32
701.514	2658.6
701.703	2572.59
701.892	2539.82
702.08	2486.58
702.269	2470.19
702.457	2541.87
702.646	2484.53
702.834	2429.23
703.023	2451.76
703.212	2490.67
703.4	2443.57
703.589	2433.33
703.777	2365.75
703.965	2505.01
704.154	2429.23
704.342	2289.97
704.531	2410.8
704.719	2373.94
704.907	2332.98
705.096	2271.54
705.284	2277.68
705.472	2261.3
705.661	2224.44
705.849	2281.78
706.037	2119.99
706.226	2146.61
706.414	2429.23
706.602	2158.9
706.79	2203.96
706.979	2160.95
707.167	2124.08
707.355	2142.52
707.543	2156.85
707.731	2169.14
707.919	2111.8
708.107	2142.52
708.296	2029.88
708.484	2136.37
708.672	2072.89
708.86	1896.76
709.048	2044.21
709.236	2044.21
709.424	1966.39
709.612	2146.61
709.8	1984.82
709.988	2050.36
710.176	1888.57
710.364	2007.35
710.551	2011.45
710.739	2031.93
710.927	1884.47
711.115	1913.14
711.303	1898.81
711.491	1909.05
711.679	1915.19
711.866	1900.86
712.054	1769.79
712.242	1888.57
712.43	1917.24
712.617	1913.14
712.805	1741.11
712.993	1806.65
713.181	1835.32
713.368	1921.34
713.556	1687.87
713.744	1823.03
713.931	1675.58
714.119	1612.09
714.306	1732.92
714.494	1757.5
714.682	1728.83
714.869	1745.21
715.057	1655.1
715.244	1743.16
715.432	1677.63
715.619	1677.63
715.807	1593.66
715.994	1659.2
716.182	1622.33
716.369	1642.81
716.556	1646.91
716.744	1618.24
716.931	1534.27
717.119	1599.8
717.306	1548.61
717.493	1499.45
717.681	1515.84
717.868	1478.97
718.055	1489.21
718.242	1562.94
718.43	1503.55
718.617	1495.36
718.804	1530.17
718.991	1513.79
719.179	1446.21
719.366	1507.65
719.553	1464.64
719.74	1526.08
719.927	1442.11
720.114	1454.4
720.301	1358.14
720.488	1374.53
720.676	1446.21
720.863	1448.26
721.05	1452.35
721.237	1421.63
721.424	1358.14
721.611	1335.62
721.798	1327.43
721.985	1333.57
722.172	1374.53
722.358	1274.18
722.545	1347.9
722.732	1216.83
722.919	1255.75
723.106	1278.27
723.293	1239.36
723.48	1253.7
723.667	1333.57
723.853	1268.03
724.04	1274.18
724.227	1274.18
724.414	1292.61
724.6	1237.31
724.787	1251.65
724.974	1204.55
725.161	1257.79
725.347	1163.59
725.534	1229.12
725.72	1153.35
725.907	1145.16
726.094	1155.4
726.28	1128.77
726.467	1177.92
726.653	1151.3
726.84	1179.97
727.027	1126.72
727.213	1169.73
727.4	1083.72
727.586	1048.9
727.773	1136.96
727.959	1130.82
728.145	1050.95
728.332	1134.92
728.518	1145.16
728.705	1077.57
728.891	962.89
729.077	1145.16
729.264	944.45
729.45	999.75
729.636	1093.96
729.823	897.35
730.009	969.03
730.195	1046.85
730.382	1009.99
730.568	1032.52
730.754	923.98
730.94	1067.33
731.126	885.06
731.313	958.79
731.499	975.17
731.685	985.41
731.871	993.61
732.057	893.26
732.243	864.58
732.429	926.02
732.615	1044.81
732.801	1001.8
732.987	917.83
733.173	944.45
733.359	907.59
733.545	934.22
733.731	844.1
733.917	868.68
734.103	842.06
734.289	934.22
734.475	823.62
734.661	966.98
734.847	917.83
735.033	905.54
735.219	903.5
735.404	938.31
735.59	817.48
735.776	778.57
735.962	835.91
736.148	940.36
736.333	811.34
736.519	833.86
736.705	858.44
736.89	809.29
737.076	844.1
737.262	803.15
737.447	811.34
737.633	805.19
737.819	782.67
738.004	766.28
738.19	780.62
738.375	788.81
738.561	854.34
738.747	770.38
738.932	745.8
739.118	811.34
739.303	702.79
739.489	766.28
739.674	713.03
739.859	762.19
740.045	762.19
740.23	770.38
740.416	713.03
740.601	735.56
740.786	692.55
740.972	770.38
741.157	688.46
741.342	770.38
741.528	758.09
741.713	702.79
741.898	717.13
742.084	735.56
742.269	784.71
742.454	682.31
742.639	655.69
742.824	663.88
743.01	694.6
743.195	659.79
743.38	684.36
743.565	815.43
743.75	659.79
743.935	639.31
744.12	653.64
744.305	598.35
744.49	571.72
744.675	586.06
744.86	606.54
745.045	721.23
745.23	659.79
745.415	661.84
745.6	575.82
745.785	631.12
745.97	661.84
746.155	680.27
746.34	610.64
746.525	680.27
746.71	651.6
746.895	653.64
747.079	645.45
747.264	598.35
747.449	512.33
747.634	586.06
747.819	643.4
748.003	516.43
748.188	590.16
748.373	536.91
748.557	473.42
748.742	610.64
748.927	614.73
749.111	575.82
749.296	528.72
749.481	538.96
749.665	520.53
749.85	436.56
750.034	565.58
750.219	551.24
750.404	553.29
750.588	577.87
750.773	450.89
750.957	565.58
751.141	467.28
751.326	553.29
751.51	514.38
751.695	508.24
751.879	553.29
752.064	500.05
752.248	500.05
752.432	481.61
752.617	485.71
752.801	536.91
752.985	502.09
753.17	411.98
753.354	446.8
753.538	479.57
753.722	454.99
753.907	457.04
754.091	473.42
754.275	465.23
754.459	440.65
754.643	500.05
754.828	368.98
755.012	506.19
755.196	440.65
755.38	358.74
755.564	473.42
755.748	385.36
755.932	495.95
756.116	409.94
756.3	399.7
756.484	516.43
756.668	411.98
756.852	381.26
757.036	385.36
757.22	389.46
757.404	270.67
757.588	416.08
757.772	342.35
757.956	411.98
758.14	401.74
758.323	389.46
758.507	344.4
758.691	399.7
758.875	401.74
759.059	338.26
759.242	436.56
759.426	368.98
759.61	379.22
759.794	418.13
759.977	377.17
760.161	401.74
760.345	383.31
760.528	385.36
760.712	391.5
760.895	358.74
761.079	368.98
761.263	391.5
761.446	311.63
761.63	366.93
761.813	332.11
761.997	354.64
762.18	321.87
762.364	411.98
762.547	383.31
762.731	358.74
762.914	315.73
763.098	399.7
763.281	307.54
763.464	368.98
763.648	309.58
763.831	373.07
764.015	256.34
764.198	334.16
764.381	287.06
764.564	356.69
764.748	309.58
764.931	366.93
765.114	311.63
765.297	362.83
765.481	360.78
765.664	434.51
765.847	350.54
766.03	330.06
766.213	336.21
766.397	422.22
766.58	328.02
766.763	315.73
766.946	430.41
767.129	358.74
767.312	262.48
767.495	332.11
767.678	282.96
767.861	262.48
768.044	385.36
768.227	244.05
768.41	280.91
768.593	229.71
768.776	299.34
768.959	426.32
769.142	287.06
769.324	323.92
769.507	303.44
769.69	301.39
769.873	317.78
770.056	319.82
770.239	389.46
770.421	266.58
770.604	266.58
770.787	330.06
770.97	313.68
771.152	385.36
771.335	393.55
771.518	276.82
771.7	299.34
771.883	383.31
772.066	268.63
772.248	309.58
772.431	340.3
772.613	391.5
772.796	256.34
772.978	215.38
773.161	295.25
773.343	262.48
773.526	282.96
773.708	293.2
773.891	311.63
774.073	285.01
774.256	317.78
774.438	303.44
774.621	262.48
774.803	264.53
774.985	248.15
775.168	332.11
775.35	301.39
775.532	348.5
775.715	328.02
775.897	317.78
776.079	229.71
776.261	330.06
776.444	289.1
776.626	282.96
776.808	268.63
776.99	192.85
777.173	274.77
777.355	252.24
777.537	328.02
777.719	209.23
777.901	270.67
778.083	221.52
778.265	254.29
778.447	237.91
778.629	227.67
778.811	254.29
778.993	221.52
779.175	231.76
779.357	260.43
779.539	229.71
779.721	186.71
779.903	201.04
780.085	184.66
780.267	250.19
780.449	203.09
780.631	252.24
780.812	231.76
780.994	270.67
781.176	190.8
781.358	250.19
781.54	211.28
781.721	262.48
781.903	221.52
782.085	188.75
782.267	203.09
782.448	219.47
782.63	172.37
782.812	164.18
782.993	217.43
783.175	170.32
783.357	201.04
783.538	221.52
783.72	301.39
783.901	250.19
784.083	153.94
784.264	196.95
784.446	215.38
784.627	239.95
784.809	258.39
784.99	217.43
785.172	285.01
785.353	176.47
785.535	225.62
785.716	244.05
785.897	178.51
786.079	172.37
786.26	164.18
786.441	190.8
786.623	174.42
786.804	147.8
786.985	217.43
787.167	119.12
787.348	186.71
787.529	188.75
787.71	190.8
787.891	164.18
788.073	162.13
788.254	162.13
788.435	170.32
788.616	96.6
788.797	192.85
788.978	188.75
789.159	198.99
789.34	139.6
789.522	164.18
789.703	131.41
789.884	125.27
790.065	143.7
790.246	133.46
790.427	225.62
790.607	147.8
790.788	223.57
790.969	143.7
791.15	131.41
791.331	104.79
791.512	143.7
791.693	184.66
791.874	106.84
792.054	151.89
792.235	205.14
792.416	112.98
792.597	137.56
792.778	139.6
792.958	155.99
793.139	61.78
793.32	155.99
793.5	115.03
793.681	168.27
793.862	153.94
794.042	155.99
794.223	180.56
794.404	102.74
794.584	162.13
794.765	153.94
794.945	119.12
795.126	90.45
795.306	125.27
795.487	160.08
795.667	186.71
795.848	158.03
796.028	164.18
796.209	98.64
796.389	102.74
796.57	209.23
796.75	80.21
796.93	186.71
797.111	147.8
797.291	217.43
797.471	104.79
797.652	127.32
797.832	131.41
798.012	106.84
798.192	131.41
798.373	201.04
798.553	117.08
798.733	125.27
798.913	155.99
799.093	143.7
799.274	63.83
799.454	108.88
799.634	117.08
799.814	78.16
799.994	147.8
800.174	125.27
800.354	147.8
800.534	65.88
800.714	123.22
800.894	106.84
801.074	106.84
801.254	96.6
801.434	145.75
801.614	92.5
801.794	106.84
801.974	229.71
802.154	4.44
802.334	135.51
802.514	92.5
802.693	-9.9
802.873	63.83
803.053	90.45
803.233	139.6
803.413	115.03
803.592	86.36
803.772	98.64
803.952	82.26
804.131	90.45
804.311	119.12
804.491	63.83
804.67	24.92
804.85	82.26
805.03	74.07
805.209	147.8
805.389	47.44
805.568	139.6
805.748	41.3
805.928	155.99
806.107	37.2
806.287	127.32
806.466	55.64
806.646	104.79
806.825	47.44
807.004	92.5
807.184	65.88
807.363	119.12
807.543	88.4
807.722	115.03
807.901	112.98
808.081	65.88
808.26	76.12
808.439	82.26
808.619	115.03
808.798	127.32
808.977	67.92
809.156	82.26
809.336	65.88
809.515	76.12
809.694	137.56
809.873	137.56
810.052	57.68
810.231	98.64
810.411	57.68
810.59	63.83
810.769	153.94
810.948	98.64
811.127	82.26
811.306	69.97
811.485	115.03
811.664	94.55
811.843	8.53
812.022	29.01
812.201	112.98
812.38	96.6
812.559	131.41
812.737	117.08
812.916	98.64
813.095	59.73
813.274	57.68
813.453	117.08
813.632	-7.85
813.811	63.83
813.989	72.02
814.168	14.68
814.347	112.98
814.526	98.64
814.704	135.51
814.883	90.45
815.062	24.92
815.24	86.36
815.419	98.64
815.598	96.6
815.776	63.83
815.955	55.64
816.133	63.83
816.312	69.97
816.49	59.73
816.669	20.82
816.847	115.03
817.026	82.26
817.204	110.93
817.383	37.2
817.561	55.64
817.74	55.64
817.918	94.55
818.097	61.78
818.275	115.03
818.453	18.77
818.632	24.92
818.81	-75.43
818.988	72.02
819.167	76.12
819.345	86.36
819.523	121.17
819.701	57.68
819.879	74.07
820.058	10.58
820.236	41.3
820.414	53.59
820.592	69.97
820.77	24.92
820.948	39.25
821.127	76.12
821.305	53.59
821.483	121.17
821.661	61.78
821.839	-16.04
822.017	16.73
822.195	106.84
822.373	139.6
822.551	39.25
822.729	108.88
822.907	22.87
823.085	39.25
823.262	47.44
823.44	8.53
823.618	-32.43
823.796	61.78
823.974	94.55
824.152	115.03
824.329	12.63
824.507	53.59
824.685	-3.75
824.863	24.92
825.04	55.64
825.218	31.06
825.396	82.26
825.574	41.3
825.751	0.34
825.929	86.36
826.107	39.25
826.284	-1.71
826.462	6.49
826.639	20.82
826.817	74.07
826.994	72.02
827.172	106.84
827.349	110.93
827.527	-28.33
827.704	74.07
827.882	-30.38
828.059	37.2
828.237	35.16
828.414	6.49
828.591	41.3
828.769	35.16
828.946	-5.8
829.124	-9.9
829.301	24.92
829.478	90.45
829.655	-32.43
829.833	115.03
830.01	8.53
830.187	82.26
830.364	65.88
830.542	69.97
830.719	115.03
830.896	155.99
831.073	41.3
831.25	65.88
831.427	39.25
831.604	45.4
831.782	72.02
831.959	-9.9
832.136	78.16
832.313	90.45
832.49	119.12
832.667	45.4
832.844	57.68
833.021	-28.33
833.198	2.39
833.374	12.63
833.551	69.97
833.728	-1.71
833.905	78.16
834.082	57.68
834.259	6.49
834.436	74.07
834.612	-34.47
834.789	8.53
834.966	8.53
835.143	69.97
835.319	55.64
835.496	-46.76
835.673	-24.23
835.85	53.59
836.026	-24.23
836.203	4.44
836.38	-3.75
836.556	31.06
836.733	49.49
836.909	102.74
837.086	61.78
837.262	-32.43
837.439	12.63
837.616	49.49
837.792	-11.95
837.968	12.63
838.145	4.44
838.321	-16.04
838.498	33.11
838.674	-40.62
838.851	45.4
839.027	67.92
839.203	47.44
839.38	104.79
839.556	-11.95
839.732	-26.28
839.909	74.07
840.085	20.82
840.261	-16.04
840.437	47.44
840.614	57.68
840.79	39.25
840.966	41.3
841.142	100.69
841.318	16.73
841.494	59.73
841.671	41.3
841.847	12.63
842.023	90.45
842.199	53.59
842.375	65.88
842.551	-24.23
842.727	-34.47
842.903	82.26
843.079	49.49
843.255	31.06
843.431	24.92
843.607	98.64
843.783	39.25
843.959	-20.14
844.134	-13.99
844.31	12.63
844.486	67.92
844.662	24.92
844.838	39.25
845.013	74.07
845.189	33.11
845.365	45.4
845.541	18.77
845.716	57.68
845.892	49.49
846.068	22.87
846.244	-34.47
846.419	100.69
846.595	45.4
846.77	49.49
846.946	55.64
847.122	16.73
847.297	14.68
847.473	6.49
847.648	74.07
847.824	41.3
847.999	41.3
848.175	8.53
848.35	31.06
848.526	69.97
848.701	6.49
848.876	4.44
849.052	49.49
849.227	65.88
849.403	-32.43
849.578	-26.28
849.753	29.01
849.929	39.25
850.104	35.16
850.279	4.44
850.454	35.16
850.63	47.44
850.805	12.63
850.98	63.83
851.155	16.73
851.33	12.63
851.505	20.82
851.681	24.92
851.856	57.68
852.031	-5.8
852.206	20.82
852.381	-5.8
852.556	20.82
852.731	59.73
852.906	57.68
853.081	53.59
853.256	-1.71
853.431	67.92
853.606	-32.43
853.781	-1.71
853.956	65.88
854.131	16.73
854.305	14.68
854.48	74.07
854.655	-34.47
854.83	4.44
855.005	39.25
855.18	55.64
855.354	49.49
855.529	55.64
855.704	0.34
855.879	86.36
856.053	43.35
856.228	37.2
856.403	-34.47
856.577	8.53
856.752	49.49
856.926	43.35
857.101	49.49
857.276	39.25
857.45	18.77
857.625	31.06
857.799	16.73
857.974	0.34
858.148	41.3
858.323	24.92
858.497	2.39
858.672	37.2
858.846	-1.71
859.02	-11.95
859.195	-18.09
859.369	0.34
859.543	6.49
859.718	33.11
859.892	10.58
860.066	20.82
860.241	94.55
860.415	41.3
860.589	-5.8
860.763	6.49
860.938	16.73
861.112	0.34
861.286	20.82
861.46	69.97
861.634	-28.33
861.808	4.44
861.982	33.11
862.157	43.35
862.331	-32.43
862.505	61.78
862.679	-24.23
862.853	67.92
863.027	14.68
863.201	41.3
863.375	-28.33
863.549	55.64
863.722	14.68
863.896	24.92
864.07	16.73
864.244	18.77
864.418	24.92
864.592	-48.81
864.766	-16.04
864.939	-16.04
865.113	33.11
865.287	47.44
865.461	-34.47
865.634	82.26
865.808	8.53
865.982	49.49
866.156	8.53
866.329	-1.71
866.503	-48.81
866.676	31.06
866.85	8.53
867.024	8.53
867.197	51.54
867.371	16.73
867.544	14.68
867.718	22.87
867.891	65.88
868.065	59.73
868.238	147.8
868.412	-22.19
868.585	16.73
868.759	-34.47
868.932	-30.38
869.105	53.59
869.279	24.92
869.452	26.96
869.625	10.58
869.799	6.49
869.972	22.87
870.145	-24.23
870.319	-22.19
870.492	20.82
870.665	31.06
870.838	14.68
871.011	4.44
871.185	45.4
871.358	14.68
871.531	-11.95
871.704	29.01
871.877	45.4
872.05	12.63
872.223	0.34
872.396	8.53
872.569	0.34
872.742	-11.95
872.915	37.2
873.088	47.44
873.261	-9.9
873.434	57.68
873.607	22.87
873.78	-1.71
873.953	22.87
874.126	14.68
874.299	8.53
874.471	6.49
874.644	33.11
874.817	57.68
874.99	84.31
875.163	-5.8
875.335	53.59
875.508	4.44
875.681	16.73
875.853	8.53
876.026	-57
876.199	69.97
876.371	20.82
876.544	53.59
876.717	-1.71
876.889	53.59
877.062	14.68
877.234	-16.04
877.407	108.88
877.579	-61.1
877.752	-9.9
877.924	-5.8
878.097	0.34
878.269	33.11
878.442	80.21
878.614	31.06
878.786	72.02
878.959	16.73
879.131	98.64
879.303	-1.71
879.476	-50.86
879.648	0.34
879.82	-44.71
879.993	-20.14
880.165	37.2
880.337	35.16
880.509	6.49
880.681	49.49
880.854	-81.58
881.026	0.34
881.198	14.68
881.37	-16.04
881.542	8.53
881.714	-50.86
881.886	39.25
882.058	8.53
882.23	-16.04
882.402	6.49
882.574	8.53
882.746	-3.75
882.918	41.3
883.09	14.68
883.262	-24.23
883.434	-9.9
883.606	31.06
883.778	53.59
883.95	-16.04
884.122	16.73
884.293	-38.57
884.465	-28.33
884.637	45.4
884.809	31.06
884.98	-7.85
885.152	33.11
885.324	-11.95
885.496	12.63
885.667	49.49
885.839	8.53
886.011	-13.99
886.182	41.3
886.354	-16.04
886.525	84.31
886.697	49.49
886.869	-13.99
887.04	29.01
887.212	74.07
887.383	47.44
887.555	86.36
887.726	49.49
887.897	24.92
888.069	-1.71
888.24	26.96
888.412	-9.9
888.583	0.34
888.754	-16.04
888.926	-11.95
889.097	10.58
889.268	61.78
889.44	-40.62
889.611	-30.38
889.782	-11.95
889.953	18.77
890.125	-18.09
890.296	-11.95
890.467	-18.09
890.638	-36.52
890.809	-16.04
890.98	8.53
891.151	-9.9
891.323	88.4
891.494	39.25
891.665	10.58
891.836	33.11
892.007	4.44
892.178	12.63
892.349	82.26
892.52	-38.57
892.691	-40.62
892.862	2.39
893.032	-1.71
893.203	-50.86
893.374	57.68
893.545	18.77
893.716	39.25
893.887	-7.85
894.057	47.44
894.228	-11.95
894.399	45.4
894.57	2.39
894.74	41.3
894.911	43.35
895.082	-24.23
895.253	51.54
895.423	-67.24
895.594	-20.14
895.764	16.73
895.935	-9.9
896.106	-50.86
896.276	-22.19
896.447	16.73
896.617	41.3
896.788	26.96
896.958	-65.19
897.129	-89.77
897.299	-22.19
897.47	16.73
897.64	10.58
897.81	102.74
897.981	16.73
898.151	-7.85
898.322	26.96
898.492	55.64
898.662	24.92
898.832	-52.91
899.003	-11.95
899.173	-16.04
899.343	20.82
899.513	14.68
