Data from USB4F104151__2__10-14-11-338.txt Node

Date: Wed Mar 12 10:14:11 EDT 2025
User: louis
Spectrometer: USB4F10415
Trigger mode: 4
Integration Time (sec): 7.000000E-3
Scans to average: 1
Electric dark correction enabled: true
Nonlinearity correction enabled: false
Boxcar width: 0
XAxis mode: Wavelengths
Number of Pixels in Spectrum: 3648
>>>>>Begin Spectral Data<<<<<
178.204	-59.05
178.424	-59.05
178.644	-59.05
178.864	-52.91
179.084	4.44
179.304	-44.71
179.524	6.49
179.744	22.87
179.964	-13.99
180.184	-22.19
180.404	10.58
180.624	-7.85
180.844	72.02
181.064	47.44
181.283	-13.99
181.503	-32.43
181.723	-24.23
181.943	-61.1
182.163	115.03
182.383	53.59
182.602	-3.75
182.822	0.34
183.042	-13.99
183.262	37.2
183.482	14.68
183.701	20.82
183.921	-7.85
184.141	6.49
184.361	43.35
184.58	24.92
184.8	-30.38
185.02	-34.47
185.239	2.39
185.459	-44.71
185.679	-28.33
185.898	-32.43
186.118	12.63
186.338	-42.67
186.557	16.73
186.777	53.59
186.997	18.77
187.216	8.53
187.436	-5.8
187.655	69.97
187.875	29.01
188.095	57.68
188.314	-28.33
188.534	37.2
188.753	80.21
188.973	31.06
189.192	0.34
189.412	76.12
189.631	-18.09
189.851	26.96
190.07	51.54
190.29	10.58
190.509	-34.47
190.729	29.01
190.948	-30.38
191.168	67.92
191.387	-5.8
191.607	-59.05
191.826	-18.09
192.045	-26.28
192.265	-18.09
192.484	-30.38
192.704	20.82
192.923	-32.43
193.142	20.82
193.362	22.87
193.581	-28.33
193.8	20.82
194.02	24.92
194.239	2.39
194.458	-28.33
194.678	10.58
194.897	-16.04
195.116	-1.71
195.335	51.54
195.555	-7.85
195.774	39.25
195.993	2.39
196.212	-36.52
196.432	-40.62
196.651	76.12
196.87	53.59
197.089	6.49
197.308	10.58
197.528	-9.9
197.747	10.58
197.966	-1.71
198.185	-3.75
198.404	-30.38
198.623	-46.76
198.842	37.2
199.062	10.58
199.281	43.35
199.5	20.82
199.719	69.97
199.938	22.87
200.157	6.49
200.376	22.87
200.595	-44.71
200.814	20.82
201.033	-1.71
201.252	18.77
201.471	59.73
201.69	43.35
201.909	-63.15
202.128	-26.28
202.347	20.82
202.566	8.53
202.785	-59.05
203.004	-18.09
203.223	51.54
203.442	-34.47
203.661	6.49
203.879	18.77
204.098	26.96
204.317	-5.8
204.536	10.58
204.755	-20.14
204.974	55.64
205.193	6.49
205.411	67.92
205.63	4.44
205.849	22.87
206.068	-65.19
206.287	-1.71
206.505	-34.47
206.724	26.96
206.943	59.73
207.162	31.06
207.381	63.83
207.599	22.87
207.818	-26.28
208.037	-34.47
208.255	53.59
208.474	24.92
208.693	16.73
208.911	10.58
209.13	65.88
209.349	84.31
209.567	74.07
209.786	51.54
210.005	55.64
210.223	67.92
210.442	26.96
210.661	72.02
210.879	41.3
211.098	-128.68
211.316	-1.71
211.535	0.34
211.753	51.54
211.972	-34.47
212.191	-9.9
212.409	33.11
212.628	14.68
212.846	2.39
213.065	10.58
213.283	6.49
213.502	49.49
213.72	16.73
213.938	-71.34
214.157	-5.8
214.375	4.44
214.594	51.54
214.812	57.68
215.031	45.4
215.249	4.44
215.467	63.83
215.686	80.21
215.904	43.35
216.122	106.84
216.341	67.92
216.559	-38.57
216.778	76.12
216.996	10.58
217.214	-13.99
217.432	59.73
217.651	47.44
217.869	-1.71
218.087	-73.39
218.306	31.06
218.524	-11.95
218.742	59.73
218.96	-1.71
219.179	24.92
219.397	26.96
219.615	2.39
219.833	6.49
220.051	49.49
220.27	-44.71
220.488	14.68
220.706	-24.23
220.924	29.01
221.142	-1.71
221.36	61.78
221.578	-11.95
221.796	10.58
222.015	41.3
222.233	-13.99
222.451	96.6
222.669	57.68
222.887	10.58
223.105	-22.19
223.323	22.87
223.541	-67.24
223.759	2.39
223.977	41.3
224.195	43.35
224.413	98.64
224.631	2.39
224.849	-5.8
225.067	-7.85
225.285	-5.8
225.503	158.03
225.721	57.68
225.939	-28.33
226.157	82.26
226.375	51.54
226.592	2.39
226.81	63.83
227.028	102.74
227.246	2.39
227.464	24.92
227.682	69.97
227.9	20.82
228.117	-26.28
228.335	8.53
228.553	20.82
228.771	18.77
228.989	-18.09
229.206	-5.8
229.424	4.44
229.642	-57
229.86	24.92
230.077	2.39
230.295	-30.38
230.513	72.02
230.731	47.44
230.948	-16.04
231.166	35.16
231.384	14.68
231.601	-54.95
231.819	14.68
232.037	61.78
232.254	-20.14
232.472	51.54
232.689	-7.85
232.907	29.01
233.125	-11.95
233.342	55.64
233.56	80.21
233.777	47.44
233.995	-3.75
234.213	8.53
234.43	-42.67
234.648	26.96
234.865	-34.47
235.083	35.16
235.3	22.87
235.518	18.77
235.735	88.4
235.953	61.78
236.17	35.16
236.388	41.3
236.605	-34.47
236.822	65.88
237.04	8.53
237.257	53.59
237.475	-13.99
237.692	-1.71
237.909	69.97
238.127	-5.8
238.344	78.16
238.562	2.39
238.779	-24.23
238.996	47.44
239.214	33.11
239.431	2.39
239.648	-9.9
239.865	22.87
240.083	2.39
240.3	-3.75
240.517	10.58
240.735	-9.9
240.952	47.44
241.169	4.44
241.386	2.39
241.603	-30.38
241.821	102.74
242.038	24.92
242.255	-26.28
242.472	18.77
242.689	-57
242.907	76.12
243.124	18.77
243.341	55.64
243.558	43.35
243.775	29.01
243.992	26.96
244.209	55.64
244.426	-5.8
244.643	51.54
244.86	26.96
245.078	-50.86
245.295	59.73
245.512	43.35
245.729	41.3
245.946	35.16
246.163	59.73
246.38	74.07
246.597	-34.47
246.814	-42.67
247.031	51.54
247.248	-11.95
247.464	39.25
247.681	-5.8
247.898	29.01
248.115	20.82
248.332	2.39
248.549	37.2
248.766	49.49
248.983	31.06
249.2	43.35
249.417	45.4
249.633	24.92
249.85	-71.34
250.067	20.82
250.284	31.06
250.501	55.64
250.717	59.73
250.934	-89.77
251.151	59.73
251.368	51.54
251.585	59.73
251.801	39.25
252.018	-1.71
252.235	61.78
252.451	-52.91
252.668	0.34
252.885	10.58
253.102	-16.04
253.318	-59.05
253.535	14.68
253.752	39.25
253.968	-24.23
254.185	39.25
254.401	-34.47
254.618	51.54
254.835	33.11
255.051	22.87
255.268	14.68
255.484	90.45
255.701	37.2
255.917	63.83
256.134	14.68
256.351	59.73
256.567	51.54
256.784	39.25
257	18.77
257.217	22.87
257.433	0.34
257.65	-36.52
257.866	18.77
258.082	-13.99
258.299	39.25
258.515	69.97
258.732	41.3
258.948	-30.38
259.165	-7.85
259.381	26.96
259.597	4.44
259.814	39.25
260.03	-9.9
260.246	104.79
260.463	55.64
260.679	-28.33
260.895	65.88
261.112	24.92
261.328	24.92
261.544	59.73
261.761	74.07
261.977	-30.38
262.193	-46.76
262.409	12.63
262.626	10.58
262.842	4.44
263.058	-54.95
263.274	39.25
263.49	-38.57
263.707	24.92
263.923	39.25
264.139	35.16
264.355	18.77
264.571	6.49
264.787	22.87
265.004	53.59
265.22	10.58
265.436	18.77
265.652	51.54
265.868	35.16
266.084	-57
266.3	67.92
266.516	14.68
266.732	41.3
266.948	88.4
267.164	-52.91
267.38	10.58
267.596	72.02
267.812	2.39
268.028	-18.09
268.244	43.35
268.46	39.25
268.676	2.39
268.892	106.84
269.108	18.77
269.324	43.35
269.54	-22.19
269.756	-22.19
269.972	18.77
270.188	12.63
270.403	-5.8
270.619	2.39
270.835	51.54
271.051	61.78
271.267	-36.52
271.483	-46.76
271.698	-16.04
271.914	22.87
272.13	59.73
272.346	24.92
272.562	-16.04
272.777	55.64
272.993	47.44
273.209	47.44
273.425	18.77
273.64	29.01
273.856	100.69
274.072	63.83
274.287	-18.09
274.503	16.73
274.719	20.82
274.934	10.58
275.15	33.11
275.366	90.45
275.581	-22.19
275.797	-3.75
276.012	39.25
276.228	6.49
276.444	14.68
276.659	69.97
276.875	-24.23
277.09	2.39
277.306	-30.38
277.521	53.59
277.737	-63.15
277.952	26.96
278.168	-5.8
278.383	-22.19
278.599	-28.33
278.814	59.73
279.03	-5.8
279.245	24.92
279.461	2.39
279.676	49.49
279.892	-22.19
280.107	-1.71
280.322	20.82
280.538	2.39
280.753	-9.9
280.969	16.73
281.184	49.49
281.399	16.73
281.615	-63.15
281.83	-18.09
282.045	20.82
282.26	53.59
282.476	49.49
282.691	2.39
282.906	18.77
283.122	-38.57
283.337	20.82
283.552	-3.75
283.767	-50.86
283.983	35.16
284.198	-46.76
284.413	49.49
284.628	2.39
284.843	24.92
285.058	43.35
285.274	47.44
285.489	4.44
285.704	-26.28
285.919	0.34
286.134	51.54
286.349	72.02
286.564	18.77
286.779	35.16
286.995	12.63
287.21	18.77
287.425	22.87
287.64	10.58
287.855	-18.09
288.07	18.77
288.285	-5.8
288.5	76.12
288.715	59.73
288.93	80.21
289.145	16.73
289.36	51.54
289.575	43.35
289.79	59.73
290.004	-63.15
290.219	31.06
290.434	45.4
290.649	35.16
290.864	26.96
291.079	55.64
291.294	14.68
291.509	0.34
291.724	22.87
291.938	61.78
292.153	74.07
292.368	18.77
292.583	22.87
292.798	117.08
293.012	47.44
293.227	80.21
293.442	78.16
293.657	84.31
293.871	76.12
294.086	29.01
294.301	35.16
294.516	76.12
294.73	-32.43
294.945	35.16
295.16	26.96
295.374	12.63
295.589	53.59
295.804	43.35
296.018	82.26
296.233	55.64
296.447	10.58
296.662	43.35
296.877	39.25
297.091	-30.38
297.306	-5.8
297.52	-46.76
297.735	-13.99
297.949	43.35
298.164	43.35
298.378	26.96
298.593	51.54
298.807	-11.95
299.022	61.78
299.236	51.54
299.451	41.3
299.665	51.54
299.88	0.34
300.094	-54.95
300.309	4.44
300.523	22.87
300.737	26.96
300.952	26.96
301.166	18.77
301.381	18.77
301.595	35.16
301.809	33.11
302.024	26.96
302.238	-13.99
302.452	-50.86
302.667	57.68
302.881	76.12
303.095	39.25
303.309	-11.95
303.524	22.87
303.738	10.58
303.952	37.2
304.166	-3.75
304.381	-30.38
304.595	-3.75
304.809	84.31
305.023	41.3
305.237	6.49
305.452	80.21
305.666	63.83
305.88	39.25
306.094	-34.47
306.308	43.35
306.522	-26.28
306.736	-3.75
306.95	-11.95
307.164	57.68
307.379	18.77
307.593	20.82
307.807	59.73
308.021	26.96
308.235	2.39
308.449	51.54
308.663	18.77
308.877	100.69
309.091	-13.99
309.305	59.73
309.519	74.07
309.733	94.55
309.947	35.16
310.161	-13.99
310.374	-30.38
310.588	18.77
310.802	20.82
311.016	2.39
311.23	43.35
311.444	29.01
311.658	-46.76
311.872	84.31
312.085	16.73
312.299	127.32
312.513	33.11
312.727	-1.71
312.941	2.39
313.154	41.3
313.368	67.92
313.582	-42.67
313.796	-30.38
314.009	74.07
314.223	35.16
314.437	14.68
314.651	-16.04
314.864	26.96
315.078	-1.71
315.292	43.35
315.505	49.49
315.719	41.3
315.933	-9.9
316.146	39.25
316.36	-11.95
316.573	100.69
316.787	39.25
317.001	123.22
317.214	2.39
317.428	31.06
317.641	65.88
317.855	-16.04
318.068	0.34
318.282	47.44
318.495	-44.71
318.709	16.73
318.922	-13.99
319.136	35.16
319.349	39.25
319.563	49.49
319.776	10.58
319.99	12.63
320.203	-26.28
320.417	-11.95
320.63	24.92
320.843	16.73
321.057	92.5
321.27	76.12
321.483	43.35
321.697	59.73
321.91	76.12
322.124	29.01
322.337	2.39
322.55	-16.04
322.763	39.25
322.977	22.87
323.19	-38.57
323.403	63.83
323.617	57.68
323.83	69.97
324.043	67.92
324.256	-9.9
324.469	65.88
324.683	84.31
324.896	24.92
325.109	53.59
325.322	-13.99
325.535	35.16
325.748	41.3
325.962	14.68
326.175	63.83
326.388	-13.99
326.601	76.12
326.814	82.26
327.027	108.88
327.24	-18.09
327.453	41.3
327.666	90.45
327.879	51.54
328.092	69.97
328.305	20.82
328.518	47.44
328.731	33.11
328.944	43.35
329.157	2.39
329.37	47.44
329.583	100.69
329.796	43.35
330.009	26.96
330.222	24.92
330.435	12.63
330.648	-42.67
330.861	-34.47
331.073	18.77
331.286	33.11
331.499	14.68
331.712	63.83
331.925	-13.99
332.138	69.97
332.35	67.92
332.563	-3.75
332.776	29.01
332.989	-50.86
333.202	31.06
333.414	47.44
333.627	-34.47
333.84	-18.09
334.053	33.11
334.265	39.25
334.478	35.16
334.691	16.73
334.903	57.68
335.116	33.11
335.329	-36.52
335.541	35.16
335.754	65.88
335.966	20.82
336.179	24.92
336.392	-22.19
336.604	125.27
336.817	59.73
337.029	100.69
337.242	-18.09
337.454	2.39
337.667	2.39
337.88	-13.99
338.092	37.2
338.305	6.49
338.517	18.77
338.729	-16.04
338.942	92.5
339.154	37.2
339.367	-22.19
339.579	63.83
339.792	-22.19
340.004	20.82
340.217	67.92
340.429	-26.28
340.641	76.12
340.854	-1.71
341.066	47.44
341.278	86.36
341.491	80.21
341.703	22.87
341.915	41.3
342.128	74.07
342.34	10.58
342.552	63.83
342.764	14.68
342.977	18.77
343.189	-18.09
343.401	45.4
343.613	123.22
343.826	10.58
344.038	47.44
344.25	-3.75
344.462	43.35
344.674	112.98
344.886	90.45
345.099	26.96
345.311	10.58
345.523	-30.38
345.735	-13.99
345.947	59.73
346.159	29.01
346.371	65.88
346.583	49.49
346.795	14.68
347.007	45.4
347.219	-1.71
347.431	82.26
347.643	90.45
347.855	47.44
348.067	65.88
348.279	8.53
348.491	45.4
348.703	61.78
348.915	33.11
349.127	22.87
349.339	39.25
349.551	12.63
349.763	8.53
349.975	10.58
350.187	35.16
350.399	-34.47
350.61	-18.09
350.822	65.88
351.034	26.96
351.246	-18.09
351.458	59.73
351.669	4.44
351.881	51.54
352.093	-1.71
352.305	2.39
352.517	-22.19
352.728	-11.95
352.94	43.35
353.152	0.34
353.363	31.06
353.575	59.73
353.787	14.68
353.999	10.58
354.21	14.68
354.422	49.49
354.633	35.16
354.845	51.54
355.057	129.36
355.268	63.83
355.48	76.12
355.692	59.73
355.903	6.49
356.115	-18.09
356.326	43.35
356.538	57.68
356.749	33.11
356.961	31.06
357.172	84.31
357.384	-18.09
357.595	96.6
357.807	10.58
358.018	29.01
358.23	47.44
358.441	45.4
358.653	98.64
358.864	-7.85
359.075	37.2
359.287	112.98
359.498	47.44
359.709	10.58
359.921	47.44
360.132	-7.85
360.344	59.73
360.555	16.73
360.766	55.64
360.977	37.2
361.189	22.87
361.4	102.74
361.611	-18.09
361.823	39.25
362.034	43.35
362.245	16.73
362.456	90.45
362.667	43.35
362.879	49.49
363.09	35.16
363.301	51.54
363.512	86.36
363.723	-38.57
363.935	51.54
364.146	82.26
364.357	8.53
364.568	63.83
364.779	108.88
364.99	63.83
365.201	-13.99
365.412	41.3
365.623	-44.71
365.834	63.83
366.045	-20.14
366.256	43.35
366.467	51.54
366.678	76.12
366.889	12.63
367.1	100.69
367.311	-3.75
367.522	4.44
367.733	18.77
367.944	31.06
368.155	47.44
368.366	76.12
368.577	33.11
368.788	12.63
368.999	2.39
369.209	4.44
369.42	53.59
369.631	74.07
369.842	80.21
370.053	117.08
370.264	80.21
370.474	72.02
370.685	65.88
370.896	51.54
371.107	88.4
371.317	72.02
371.528	96.6
371.739	33.11
371.95	108.88
372.16	39.25
372.371	12.63
372.582	31.06
372.792	82.26
373.003	121.17
373.214	6.49
373.424	67.92
373.635	29.01
373.846	90.45
374.056	63.83
374.267	49.49
374.477	24.92
374.688	2.39
374.898	39.25
375.109	39.25
375.319	-36.52
375.53	59.73
375.74	88.4
375.951	41.3
376.161	76.12
376.372	39.25
376.582	26.96
376.793	80.21
377.003	67.92
377.214	18.77
377.424	18.77
377.635	127.32
377.845	-5.8
378.055	33.11
378.266	53.59
378.476	57.68
378.686	12.63
378.897	137.56
379.107	12.63
379.317	76.12
379.528	76.12
379.738	14.68
379.948	41.3
380.158	80.21
380.369	41.3
380.579	76.12
380.789	-1.71
380.999	18.77
381.21	67.92
381.42	49.49
381.63	106.84
381.84	22.87
382.05	45.4
382.261	84.31
382.471	59.73
382.681	22.87
382.891	10.58
383.101	84.31
383.311	4.44
383.521	53.59
383.731	18.77
383.941	53.59
384.151	112.98
384.361	92.5
384.571	137.56
384.781	-13.99
384.991	76.12
385.201	-13.99
385.411	92.5
385.621	69.97
385.831	24.92
386.041	26.96
386.251	106.84
386.461	31.06
386.671	35.16
386.881	18.77
387.091	-54.95
387.301	72.02
387.511	-18.09
387.72	98.64
387.93	67.92
388.14	65.88
388.35	26.96
388.56	53.59
388.769	18.77
388.979	47.44
389.189	49.49
389.399	117.08
389.609	47.44
389.818	59.73
390.028	33.11
390.238	31.06
390.447	51.54
390.657	63.83
390.867	47.44
391.076	61.78
391.286	100.69
391.496	76.12
391.705	63.83
391.915	86.36
392.125	74.07
392.334	26.96
392.544	90.45
392.753	55.64
392.963	37.2
393.172	96.6
393.382	8.53
393.591	35.16
393.801	47.44
394.01	43.35
394.22	67.92
394.429	80.21
394.639	67.92
394.848	139.6
395.058	43.35
395.267	65.88
395.477	123.22
395.686	37.2
395.895	82.26
396.105	141.65
396.314	33.11
396.524	43.35
396.733	67.92
396.942	80.21
397.152	84.31
397.361	84.31
397.57	155.99
397.78	39.25
397.989	100.69
398.198	86.36
398.407	102.74
398.617	123.22
398.826	106.84
399.035	96.6
399.244	72.02
399.453	94.55
399.663	74.07
399.872	137.56
400.081	119.12
400.29	63.83
400.499	123.22
400.708	90.45
400.917	43.35
401.127	65.88
401.336	80.21
401.545	76.12
401.754	141.65
401.963	131.41
402.172	0.34
402.381	149.84
402.59	123.22
402.799	110.93
403.008	100.69
403.217	112.98
403.426	121.17
403.635	108.88
403.844	47.44
404.053	190.8
404.262	115.03
404.471	198.99
404.68	115.03
404.888	178.51
405.097	180.56
405.306	92.5
405.515	174.42
405.724	117.08
405.933	147.8
406.142	211.28
406.35	174.42
406.559	196.95
406.768	182.61
406.977	207.19
407.185	158.03
407.394	127.32
407.603	149.84
407.812	133.46
408.02	98.64
408.229	201.04
408.438	205.14
408.646	213.33
408.855	198.99
409.064	272.72
409.272	198.99
409.481	330.06
409.69	305.49
409.898	309.58
410.107	328.02
410.315	233.81
410.524	299.34
410.733	303.44
410.941	305.49
411.15	448.85
411.358	354.64
411.567	323.92
411.775	436.56
411.984	452.94
412.192	418.13
412.401	444.75
412.609	444.75
412.818	461.13
413.026	416.08
413.234	489.81
413.443	563.53
413.651	530.77
413.86	622.92
414.068	637.26
414.276	602.44
414.485	698.7
414.693	667.98
414.901	719.18
415.11	778.57
415.318	745.8
415.526	846.15
415.734	770.38
415.943	852.3
416.151	846.15
416.359	911.69
416.567	985.41
416.776	1032.52
416.984	1081.67
417.192	1075.52
417.4	1202.5
417.608	1124.68
417.817	1188.16
418.025	1300.8
418.233	1329.47
418.441	1278.27
418.649	1435.97
418.857	1542.46
419.065	1530.17
419.273	1509.69
419.481	1634.62
419.689	1796.41
419.897	1855.8
420.105	1816.89
420.313	1913.14
420.521	2025.78
420.729	2095.41
420.937	2165.04
421.145	2230.58
421.353	2269.49
421.561	2388.27
421.769	2529.58
421.977	2763.05
422.185	2705.71
422.393	2752.81
422.601	2918.7
422.809	3019.05
423.017	2941.22
423.224	3131.69
423.432	3244.32
423.64	3352.87
423.848	3485.98
424.056	3666.21
424.263	3744.03
424.471	3752.22
424.679	3883.29
424.887	4172.05
425.094	4194.58
425.302	4149.53
425.51	4409.62
425.718	4546.83
425.925	4593.94
426.133	4966.67
426.341	4811.02
426.548	5267.72
426.756	5347.59
426.964	5237
427.171	5689.6
427.379	5820.67
427.586	5859.58
427.794	6187.25
428.001	6318.32
428.209	6633.71
428.417	6531.31
428.624	6990.06
428.832	7127.27
429.039	7071.98
429.247	7149.8
429.454	7837.92
429.662	8245.46
429.869	7815.39
430.076	8278.23
430.284	7981.28
430.491	8345.81
430.699	8906.96
430.906	8870.09
431.114	8872.14
431.321	9222.34
431.528	9701.57
431.736	9932.99
431.943	10657.97
432.15	10266.81
432.358	10410.17
432.565	11022.51
432.772	11020.46
432.979	11503.78
433.187	11782.31
433.394	11694.24
433.601	12576.92
433.808	12576.92
434.016	12722.32
434.223	12935.31
434.43	13852.8
434.637	13648.01
434.844	14497.91
435.052	14725.24
435.259	14768.24
435.466	14798.96
435.673	14616.69
435.88	15706.21
436.087	16656.47
436.294	16234.59
436.501	16009.31
436.708	16541.78
436.915	16787.54
437.122	17778.76
437.329	17709.13
437.537	18108.48
437.743	18651.19
437.95	18698.3
438.157	19247.15
438.364	20006.95
438.571	19951.65
438.778	20226.08
438.985	21944.33
439.192	21094.42
439.399	21628.94
439.606	21190.67
439.813	22575.1
440.02	23961.58
440.227	23400.43
440.433	23035.89
440.64	24063.97
440.847	23736.3
441.054	24293.35
441.261	25833.42
441.467	25438.16
441.674	26013.64
441.881	27316.15
442.088	27070.39
442.294	26603.46
442.501	27467.7
442.708	28221.35
442.914	29306.77
443.121	30103.43
443.328	29912.97
443.534	31473.53
443.741	30658.43
443.948	30379.91
444.154	32517.99
444.361	32216.94
444.568	32370.54
444.774	32483.17
444.981	33013.6
445.187	33734.48
445.394	34973.5
445.6	34629.44
445.807	37961.49
446.013	36378.41
446.22	37013.28
446.426	38156.05
446.633	38768.39
446.839	39814.9
447.046	38248.21
447.252	40011.51
447.459	40261.36
447.665	39980.79
447.871	41660.12
448.078	43323.07
448.284	41152.23
448.491	42518.22
448.697	43863.74
448.903	44887.72
449.11	44308.15
449.316	44140.21
449.522	44607.15
449.728	45790.87
449.935	46263.96
450.141	46378.64
450.347	46821
450.553	45682.33
450.76	46280.34
450.966	47451.78
451.172	46694.03
451.378	47863.42
451.584	47271.56
451.791	48057.98
451.997	47636.09
452.203	48447.09
452.409	49167.98
452.615	48227.96
452.821	46591.63
453.027	45846.17
453.233	48248.44
453.44	46182.04
453.646	47117.96
453.852	47066.76
454.058	47992.44
454.264	46286.48
454.47	47177.35
454.676	45670.04
454.882	47378.05
455.088	43310.78
455.294	43826.87
455.5	44441.26
455.705	44977.83
455.911	43122.37
456.117	42473.17
456.323	42159.83
456.529	39753.46
456.735	41479.9
456.941	40255.22
457.147	39829.24
457.352	38706.95
457.558	37869.33
457.764	38063.89
457.97	37465.88
458.176	36734.76
458.381	36382.51
458.587	34600.77
458.793	34791.23
458.999	32669.54
459.204	35360.57
459.41	34275.15
459.616	32063.34
459.821	32044.91
460.027	31948.65
460.233	31539.06
460.438	29634.45
460.644	30330.76
460.85	28958.62
461.055	28315.56
461.261	28293.03
461.466	26116.04
461.672	25425.87
461.878	27105.21
462.083	25552.85
462.289	24598.49
462.494	24930.26
462.7	23724.01
462.905	23015.41
463.111	23857.13
463.316	23951.34
463.522	23420.91
463.727	23709.68
463.932	23441.39
464.138	23115.76
464.343	23314.42
464.549	22654.97
464.754	23369.71
464.959	23267.31
465.165	22806.52
465.37	22013.96
465.575	21635.08
465.781	22681.6
465.986	22511.61
466.191	21608.46
466.397	21213.2
466.602	20385.82
466.807	20965.4
467.012	20891.67
467.218	20908.05
467.423	20676.63
467.628	20729.88
467.833	21934.09
468.038	21022.74
468.244	20264.99
468.449	21282.83
468.654	20623.39
468.859	20297.76
469.064	20131.87
469.269	19468.33
469.474	19433.52
469.679	19869.73
469.885	19396.65
470.09	19648.55
470.295	19638.31
470.5	18966.58
470.705	18923.57
470.91	18815.03
471.115	18221.12
471.32	18632.76
471.525	18538.55
471.73	18010.18
471.935	17950.79
472.139	17451.08
472.344	17952.84
472.549	17567.82
472.754	17348.68
472.959	16930.9
473.164	16689.24
473.369	16668.76
473.574	16871.51
473.778	16902.23
473.983	16642.14
474.188	16617.56
474.393	15982.69
474.598	15702.12
474.802	15835.24
475.007	15655.01
475.212	15591.53
475.417	15054.96
475.621	15116.4
475.826	15261.8
476.031	14882.93
476.235	14731.38
476.44	14854.26
476.645	14782.58
476.849	14606.45
477.054	14483.58
477.259	14258.3
477.463	14301.31
477.668	13797.51
477.872	13981.82
478.077	13670.53
478.282	13541.51
478.486	13545.61
478.691	13432.97
478.895	13275.27
479.1	13043.85
479.304	13039.76
479.509	12787.86
479.713	12822.67
479.918	12812.43
480.122	12664.98
480.326	12966.03
480.531	12873.87
480.735	12812.43
480.94	12548.25
481.144	13185.16
481.348	12234.91
481.553	12591.25
481.757	12085.4
481.961	12472.47
482.166	12693.65
482.37	12388.5
482.574	12167.32
482.778	12292.25
482.983	12593.3
483.187	12204.19
483.391	12451.99
483.595	12222.62
483.8	12081.31
484.004	12167.32
484.208	12220.57
484.412	12279.96
484.616	12273.82
484.821	12349.59
485.025	12132.51
485.229	12339.35
485.433	12105.88
485.637	12290.2
485.841	12298.39
486.045	12273.82
486.249	12050.59
486.453	12222.62
486.657	12372.12
486.861	12222.62
487.065	12019.87
487.269	12286.11
487.473	12097.69
487.677	12396.7
487.881	12277.91
488.085	12316.83
488.289	12554.39
488.493	12296.35
488.697	12511.38
488.901	12431.51
489.105	12208.28
489.309	12482.71
489.512	12540.05
489.716	12361.88
489.92	12527.77
490.124	12488.85
490.328	12925.07
490.531	12478.61
490.735	12685.46
490.939	12646.55
491.143	12617.88
491.346	12490.9
491.55	12951.7
491.754	12777.62
491.958	13050
492.161	12750.99
492.365	12865.68
492.569	12916.88
492.772	12914.83
492.976	13000.85
493.18	13494.41
493.383	13475.98
493.587	13375.63
493.79	13633.67
493.994	13394.06
494.197	13381.77
494.401	13666.44
494.605	13611.14
494.808	14180.48
495.012	13912.19
495.215	14061.69
495.419	14047.36
495.622	14108.8
495.825	14518.39
496.029	14432.38
496.232	14731.38
496.436	14620.79
496.639	14934.13
496.843	14774.39
497.046	14958.71
497.249	15208.56
497.453	15505.51
497.656	15605.86
497.859	15665.25
498.063	15820.9
498.266	16080.99
498.469	16187.49
498.673	16091.23
498.876	16595.03
499.079	16726.1
499.282	16588.89
499.485	16851.03
499.689	16910.42
499.892	17496.14
500.095	17219.66
500.298	17825.86
500.501	17489.99
500.705	18145.34
500.908	18317.37
501.111	18675.77
501.314	18475.07
501.517	18810.93
501.72	19025.97
501.923	18866.23
502.126	19464.24
502.329	19503.15
502.532	19357.74
502.735	19791.91
502.938	20340.77
503.141	20342.81
503.344	20895.77
503.547	20488.22
503.75	21067.8
503.953	21274.64
504.156	21553.16
504.359	21514.25
504.562	21833.74
504.765	22429.7
504.968	22384.64
505.17	22380.54
505.373	22472.7
505.576	23068.66
505.779	23242.74
505.982	23271.41
506.185	23545.84
506.387	23607.28
506.59	23961.58
506.793	24639.45
506.996	24385.51
507.198	25120.73
507.401	24821.72
507.604	25325.52
507.807	25706.45
508.009	25821.13
508.212	26048.46
508.415	26490.82
508.617	26531.78
508.82	26587.07
509.022	26687.42
509.225	27314.1
509.428	27342.77
509.63	27541.43
509.833	27758.51
510.035	28331.94
510.238	28198.82
510.44	28723.1
510.643	28964.76
510.845	29247.38
511.048	29353.88
511.25	29693.84
511.453	29829.01
511.655	30588.8
511.858	30357.38
512.06	30599.04
512.262	30871.42
512.465	30941.05
512.667	31336.31
512.87	31594.36
513.072	31719.28
513.274	32485.22
513.477	32536.42
513.679	33068.89
513.881	33193.82
514.084	33529.69
514.286	33152.86
514.488	33632.08
514.69	34438.98
514.893	34662.21
515.095	34711.36
515.297	34611.01
515.499	35245.88
515.701	35233.6
515.904	35753.78
516.106	35809.07
516.308	35852.08
516.51	36239.15
516.712	36622.12
516.914	36642.6
517.116	37607.19
517.318	37056.29
517.52	37832.47
517.722	37902.1
517.925	38258.45
518.127	38350.6
518.329	38571.78
518.531	38711.05
518.733	38958.85
518.935	39393.02
519.136	39526.14
519.338	39991.03
519.54	39827.19
519.742	40492.78
519.944	40595.18
520.146	40974.05
520.348	41391.84
520.55	41107.17
520.752	41709.27
520.954	42471.12
521.155	41783
521.357	42401.49
521.559	42686.15
521.761	42661.58
521.963	42983.11
522.164	43017.92
522.366	43347.65
522.568	43609.79
522.77	43237.06
522.971	44418.74
523.173	43630.27
523.375	44093.11
523.576	44541.61
523.778	44437.17
523.98	44893.86
524.181	44578.48
524.383	44881.58
524.584	45549.21
524.786	45069.99
524.988	45301.41
525.189	45903.51
525.391	45495.97
525.592	45829.79
525.794	46362.26
525.995	45946.52
526.197	46411.41
526.398	46481.04
526.6	46532.24
526.801	46622.35
527.003	46933.64
527.204	46644.88
527.406	47128.2
527.607	47128.2
527.808	47148.68
528.01	46763.66
528.211	46849.67
528.412	47660.67
528.614	47746.68
528.815	47445.63
529.016	47961.72
529.218	47558.27
529.419	47382.15
529.62	47607.42
529.822	47437.44
530.023	47914.62
530.224	47629.95
530.425	47658.62
530.626	47593.09
530.828	47441.54
531.029	48135.8
531.23	47894.14
531.431	47439.49
531.632	47943.29
531.833	48176.76
532.035	48213.62
532.236	47828.6
532.437	48328.31
532.638	48225.91
532.839	48092.79
533.04	48385.65
533.241	47550.08
533.442	48557.68
533.643	48123.51
533.844	47675.01
534.045	48086.65
534.246	47283.84
534.447	48168.57
534.648	47951.48
534.849	47545.98
535.05	47595.14
535.251	48332.4
535.451	47566.46
535.652	48129.65
535.853	47953.53
536.054	48168.57
536.255	48127.61
536.456	47857.28
536.657	47890.04
536.857	47337.09
537.058	47271.56
537.259	48131.7
537.46	48152.18
537.66	47806.08
537.861	47787.64
538.062	47879.8
538.263	47640.19
538.463	47707.77
538.664	47705.73
538.865	47834.75
539.065	47730.3
539.266	47462.02
539.466	47967.87
539.667	47464.07
539.868	47738.49
540.068	47634.05
540.269	47572.61
540.469	47783.55
540.67	47085.19
540.87	47871.61
541.071	47369.86
541.271	47500.93
541.472	47496.83
541.672	47328.9
541.873	47306.37
542.073	47021.7
542.274	48107.13
542.474	47390.34
542.675	47273.6
542.875	48103.03
543.075	47515.26
543.276	46714.51
543.476	47640.19
543.676	47298.18
543.877	47582.85
544.077	47468.16
544.277	46732.94
544.478	47120.01
544.678	47373.95
544.878	47128.2
545.078	47337.09
545.279	47027.85
545.479	46950.02
545.679	47074.95
545.879	46894.73
546.079	46966.41
546.28	47052.42
546.48	46460.56
546.68	47242.88
546.88	47242.88
547.08	46732.94
547.28	46937.74
547.48	46321.3
547.68	46427.79
547.88	46648.97
548.081	46915.21
548.281	46593.68
548.481	46581.39
548.681	46679.69
548.881	46837.39
549.081	46370.45
549.28	46503.57
549.48	46911.11
549.68	46730.89
549.88	47263.36
550.08	46313.11
550.28	46786.19
550.48	46384.79
550.68	46454.42
550.88	46309.01
551.08	46317.2
551.279	46665.36
551.479	45678.24
551.679	46274.2
551.879	46370.45
552.079	46759.56
552.278	46120.6
552.478	45817.5
552.678	46202.52
552.878	46743.18
553.077	45977.24
553.277	46020.25
553.477	46587.53
553.676	46171.8
553.876	46362.26
554.076	46253.72
554.275	45962.9
554.475	45616.8
554.674	45844.12
554.874	46134.93
555.074	45940.38
555.273	45989.53
555.473	46210.71
555.672	45928.09
555.872	45741.72
556.071	45758.11
556.271	46196.37
556.47	45557.41
556.67	45694.62
556.869	45223.59
557.068	45713.05
557.268	45567.65
557.467	45780.63
557.667	45569.69
557.866	45346.47
558.065	45698.72
558.265	45383.33
558.464	45067.94
558.663	45807.26
558.863	44719.79
559.062	46063.25
559.261	45166.24
559.461	45528.73
559.66	44715.69
559.859	45342.37
560.058	44977.83
560.258	45616.8
560.457	44963.5
560.656	45522.59
560.855	44908.2
561.054	45096.61
561.253	44650.16
561.453	44990.12
561.652	44930.73
561.851	45102.76
562.05	44428.98
562.249	44801.71
562.448	44709.55
562.647	44236.47
562.846	44562.09
563.045	44773.03
563.244	44613.29
563.443	44357.3
563.642	44322.48
563.841	44736.17
564.04	44248.75
564.239	44517.04
564.438	44527.28
564.637	44660.4
564.836	44461.74
565.035	44021.43
565.234	44256.95
565.432	44113.59
565.631	44172.98
565.83	44424.88
566.029	44363.44
566.228	43765.43
566.427	43658.94
566.625	43785.91
566.824	43384.51
567.023	44490.41
567.222	43407.04
567.42	43556.54
567.619	43574.97
567.818	43605.69
568.016	43267.78
568.215	43783.87
568.414	43638.46
568.612	43904.7
568.811	43339.46
569.01	43263.68
569.208	42923.72
569.407	43296.45
569.605	42993.35
569.804	43294.4
570.002	42692.3
570.201	43101.89
570.4	42741.45
570.598	42725.07
570.797	42264.27
570.995	42649.29
571.193	42292.94
571.392	42806.98
571.59	42536.65
571.789	42700.49
571.987	42372.81
572.186	42708.68
572.384	42278.61
572.582	42307.28
572.781	42499.79
572.979	41957.08
573.177	42004.18
573.376	42464.97
573.574	42065.62
573.772	42137.3
573.971	41807.58
574.169	42061.52
574.367	41336.54
574.565	42229.46
574.763	41768.66
574.962	41563.87
575.16	41385.69
575.358	41967.32
575.556	41152.23
575.754	42079.96
575.952	40627.95
576.151	41406.17
576.349	40783.59
576.547	41217.76
576.745	40914.66
576.943	41154.27
577.141	40738.54
577.339	40791.78
577.537	40400.62
577.735	40759.02
577.933	40242.93
578.131	40855.27
578.329	40031.99
578.527	39862.01
578.725	40019.7
578.923	40554.22
579.121	40013.55
579.319	39937.78
579.516	40070.9
579.714	39542.52
579.912	39775.99
580.11	39573.24
580.308	39935.73
580.506	39558.91
580.704	39149.31
580.901	39706.36
581.099	39479.03
581.297	38864.64
581.495	39030.53
581.692	39401.21
581.89	38799.11
582.088	38962.95
582.285	38766.34
582.483	38792.97
582.681	38696.71
582.878	38539.02
583.076	38338.32
583.274	38471.43
583.471	38113.04
583.669	38682.38
583.866	38412.04
584.064	37955.35
584.262	37564.18
584.459	37998.35
584.657	37611.29
584.854	38444.81
585.052	37326.62
585.249	37648.15
585.447	37994.26
585.644	37236.51
585.841	37289.76
586.039	37855
586.236	36912.93
586.434	37023.52
586.631	36779.81
586.828	36790.05
587.026	36957.99
587.223	36699.94
587.42	36603.69
587.618	36626.21
587.815	36587.3
588.012	36691.75
588.21	36701.99
588.407	36359.98
588.604	36196.14
588.801	36056.88
588.999	36054.83
589.196	35950.38
589.393	35770.16
589.59	36077.36
589.787	35585.85
589.984	35604.28
590.182	35282.75
590.379	35473.21
590.576	35049.28
590.773	35491.64
590.97	34627.4
591.167	35002.18
591.364	34635.59
591.561	34842.43
591.758	34387.78
591.955	34152.27
592.152	35059.52
592.349	34303.82
592.546	34258.76
592.743	34348.87
592.94	33886.03
593.137	34334.54
593.334	34094.93
593.531	33275.74
593.727	33953.62
593.924	33912.66
594.121	33427.29
594.318	33832.79
594.515	33548.12
594.712	33697.62
594.908	33312.6
595.105	33427.29
595.302	32751.46
595.499	33378.14
595.696	32931.68
595.892	32800.61
596.089	32956.25
596.286	33034.08
596.482	32687.97
596.679	32452.45
596.876	32501.61
597.072	32237.42
597.269	32599.91
597.466	32335.72
597.662	32470.89
597.859	31944.56
598.055	31893.36
598.252	31801.2
598.448	31915.89
598.645	31256.44
598.841	31203.19
599.038	31407.99
599.234	31489.91
599.431	30891.9
599.627	31000.44
599.824	31215.48
600.02	30936.96
600.217	31037.31
600.413	30812.03
600.609	30646.15
600.806	30703.49
601.002	30420.87
601.198	30224.26
601.395	30279.56
601.591	30338.95
601.787	30142.35
601.984	29882.25
602.18	30384.01
602.376	29726.61
602.572	30058.38
602.769	29685.65
602.965	29439.89
603.161	29626.26
603.357	29609.87
603.553	29466.52
603.75	29689.74
603.946	29089.69
604.142	29228.95
604.338	29024.15
604.534	29249.43
604.73	28868.51
604.926	28536.74
605.122	28708.77
605.318	28538.79
605.514	28385.19
605.71	28802.97
605.906	28440.48
606.102	28589.99
606.298	28258.21
606.494	28420
606.69	28153.77
606.886	28618.66
607.082	27748.27
607.278	28333.99
607.474	27752.37
607.67	27985.83
607.866	27412.4
608.062	28268.45
608.257	27475.89
608.453	27809.71
608.649	27725.74
608.845	27336.63
609.041	27477.94
609.236	27662.26
609.432	27260.85
609.628	27629.49
609.824	27027.38
610.019	27144.12
610.215	27297.72
610.411	27355.06
610.606	26621.89
610.802	27281.33
610.998	26791.87
611.193	27074.49
611.389	27148.22
611.584	27031.48
611.78	26646.46
611.976	26499.01
612.171	26484.67
612.367	26572.74
612.562	26597.31
612.758	26236.87
612.953	26587.07
613.149	26716.09
613.344	26423.23
613.539	26994.62
613.735	26476.48
613.93	26775.48
614.126	25982.92
614.321	26484.67
614.517	26253.25
614.712	26015.69
614.907	25788.36
615.103	26154.95
615.298	25747.4
615.493	26490.82
615.688	25499.6
615.884	26367.94
616.079	25679.82
616.274	26083.27
616.47	26027.98
616.665	25698.25
616.86	25800.65
617.055	25530.32
617.25	25360.34
617.445	25610.19
617.641	25090.01
617.836	25890.76
618.031	25243.6
618.226	25239.51
618.421	24952.79
618.616	25395.15
618.811	25083.86
619.006	25243.6
619.201	24498.14
619.396	24858.59
619.591	24492
619.786	24487.9
619.981	24467.42
620.176	24647.65
620.371	24074.21
620.566	24199.14
620.761	23891.94
620.956	24518.62
621.151	23341.04
621.346	23961.58
621.541	23756.78
621.735	23992.3
621.93	23386.1
622.125	23441.39
622.32	23050.23
622.515	23234.55
622.709	22976.5
622.904	22964.21
623.099	22927.35
623.294	23130.1
623.488	22618.11
623.683	22407.17
623.878	22503.42
624.072	22542.33
624.267	22700.03
624.462	22198.27
624.656	22317.06
624.851	22093.83
625.046	21733.39
625.24	21776.39
625.435	21264.4
625.629	21471.25
625.824	21256.21
626.018	21393.42
626.213	20785.18
626.407	21284.88
626.602	20473.88
626.796	20736.02
626.991	20656.15
627.185	20445.21
627.38	20361.25
627.574	20303.9
627.768	20295.71
627.963	20410.4
628.157	19978.28
628.352	20037.67
628.546	19832.87
628.74	20027.43
628.935	19726.38
629.129	19656.75
629.323	19140.66
629.517	19322.93
629.712	19204.14
629.906	18960.44
630.1	19111.99
630.294	19062.83
630.489	19077.17
630.683	18880.57
630.877	18356.29
631.071	18407.48
631.265	18587.71
631.459	18186.3
631.653	18212.93
631.848	18333.76
632.042	18196.54
632.236	18102.34
632.43	17741.89
632.624	18079.81
632.818	17883.2
633.012	17393.74
633.206	17565.77
633.4	17541.19
633.594	17387.6
633.788	17481.8
633.982	17250.38
634.176	17270.86
634.369	16959.57
634.563	16814.16
634.757	16965.71
634.951	16926.8
635.145	16877.65
635.339	16736.34
635.533	16492.63
635.726	16441.43
635.92	16353.37
636.114	16506.97
636.308	16115.81
636.501	16050.27
636.695	16013.41
636.889	16083.04
637.083	15804.52
637.276	15763.56
637.47	15575.14
637.664	15579.24
637.857	15726.69
638.051	15921.25
638.244	15396.97
638.438	15183.98
638.632	15302.76
638.825	15276.14
639.019	14905.46
639.212	15149.17
639.406	14950.51
639.599	15159.41
639.793	15042.67
639.986	14657.65
640.18	14682.23
640.373	14663.8
640.567	14602.36
640.76	14534.78
640.954	14485.62
641.147	14219.39
641.34	14284.92
641.534	14184.57
641.727	14172.29
641.92	14022.78
642.114	14043.26
642.307	14045.31
642.5	13901.95
642.694	13719.68
642.887	13686.92
643.08	13629.57
643.273	13744.26
643.467	13715.59
643.66	13297.8
643.853	13353.1
644.046	13119.63
644.239	13271.18
644.432	13179.02
644.626	13011.09
644.819	13250.7
645.012	13093.01
645.205	12882.06
645.398	12939.41
645.591	12753.04
645.784	12632.21
645.977	12507.29
646.17	12404.89
646.363	12478.61
646.556	12337.31
646.749	12396.7
646.942	12351.64
647.135	12232.86
647.328	12265.63
647.521	12267.67
647.714	12085.4
647.907	11913.38
648.099	11933.86
648.292	11790.5
648.485	11991.2
648.678	11755.68
648.871	11757.73
649.064	11634.85
649.256	11792.55
649.449	11595.94
649.642	11464.87
649.835	11397.29
650.027	11286.7
650.22	11491.49
650.413	11247.79
650.605	11137.2
650.798	11276.46
650.991	11004.08
651.183	11172.01
651.376	10657.97
651.568	10920.11
651.761	10889.39
651.954	10905.77
652.146	10830
652.339	10696.88
652.531	10696.88
652.724	10727.6
652.916	10385.59
653.109	10389.69
653.301	10356.92
653.494	10463.41
653.686	10252.47
653.879	10268.86
654.071	10291.38
654.263	10168.51
654.456	10254.52
654.648	9889.98
654.84	9808.06
655.033	9957.57
655.225	9902.27
655.417	9887.93
655.61	9779.39
655.802	9693.38
655.994	9369.8
656.186	9820.35
656.379	9515.2
656.571	9435.33
656.763	9431.24
656.955	9320.65
657.148	9513.16
657.34	9318.6
657.532	9068.75
657.724	9285.83
657.916	9138.38
658.108	9124.04
658.3	9058.51
658.492	9033.93
658.684	8792.27
658.876	8943.82
659.068	8970.44
659.26	8681.68
659.452	8640.72
659.644	8906.96
659.836	8749.26
660.028	8648.91
660.22	8638.67
660.412	8624.34
660.604	8440.02
660.796	8374.49
660.988	8337.62
661.18	8276.18
661.372	8255.7
661.563	8403.16
661.755	8171.74
661.947	8366.29
662.139	8141.02
662.331	7995.61
662.522	7899.36
662.714	8003.8
662.906	7782.62
663.097	7856.35
663.289	8005.85
663.481	8071.39
663.673	7854.3
663.864	7725.28
664.056	7596.26
664.247	7547.11
664.439	7626.98
664.631	7463.14
664.822	7577.83
665.014	7463.14
665.205	7475.43
665.397	7528.67
665.588	7407.84
665.78	7379.17
665.971	7239.91
666.163	7272.68
666.354	7192.81
666.546	7151.85
666.737	7104.74
666.929	7106.79
667.12	7186.66
667.311	7063.79
667.503	6850.8
667.694	6988.01
667.885	6932.72
668.077	6904.04
668.268	6867.18
668.459	6822.13
668.651	6748.4
668.842	6678.77
669.033	6678.77
669.224	6572.27
669.416	6619.38
669.607	6693.1
669.798	6486.26
669.989	6353.14
670.18	6404.34
670.371	6398.2
670.563	6463.73
670.754	6422.77
670.945	6254.84
671.136	6402.29
671.327	6191.35
671.518	6285.56
671.709	6228.21
671.9	6232.31
672.091	6066.42
672.282	6174.97
672.473	6166.78
672.664	6091
672.855	6080.76
673.046	6027.51
673.237	5916.92
673.428	5904.64
673.619	5929.21
673.809	5843.2
674	5638.4
674.191	5730.56
674.382	5767.42
674.573	5648.64
674.764	5560.58
674.954	5497.09
675.145	5480.71
675.336	5466.37
675.527	5585.15
675.717	5515.52
675.908	5531.9
676.099	5413.12
676.289	5323.01
676.48	5404.93
676.671	5417.22
676.861	5357.83
677.052	5288.2
677.243	5122.31
677.433	5251.33
677.624	5200.13
677.814	5202.18
678.005	5138.69
678.195	5077.26
678.386	5269.76
678.576	4993.29
678.767	5136.65
678.957	5060.87
679.148	5110.02
679.338	4897.03
679.529	4976.91
679.719	4821.26
679.909	4954.38
680.1	4727.05
680.29	4786.44
680.481	4772.11
680.671	4804.88
680.861	4763.92
681.052	4669.71
681.242	4663.57
681.432	4606.22
681.622	4587.79
681.813	4565.26
682.003	4706.57
682.193	4481.3
682.383	4571.41
682.573	4620.56
682.764	4380.95
682.954	4495.63
683.144	4430.1
683.334	4346.13
683.524	4378.9
683.714	4413.71
683.904	4311.32
684.094	4385.04
684.284	4440.34
684.474	4309.27
684.664	4258.07
684.854	4200.73
685.044	4215.06
685.234	4204.82
685.424	4094.23
685.614	4116.76
685.804	4063.51
685.994	3995.93
686.184	4049.18
686.374	4083.99
686.564	3893.53
686.753	4061.46
686.943	3914.01
687.133	3965.21
687.323	4040.98
687.513	3737.88
687.702	3877.15
687.892	3944.73
688.082	3784.99
688.272	3918.11
688.461	3864.86
688.651	3827.99
688.841	3735.84
689.03	3641.63
689.22	3713.31
689.41	3711.26
689.599	3633.44
689.789	3711.26
689.979	3537.18
690.168	3653.92
690.358	3512.61
690.547	3569.95
690.737	3438.88
690.926	3506.46
691.116	3449.12
691.305	3533.09
691.495	3496.22
691.684	3447.07
691.874	3426.59
692.063	3516.7
692.252	3395.87
692.442	3340.58
692.631	3307.81
692.82	3324.19
693.01	3250.47
693.199	3268.9
693.388	3195.17
693.578	3303.71
693.767	3229.99
693.956	3297.57
694.146	3205.41
694.335	3045.67
694.524	3344.67
694.713	3199.27
694.902	3195.17
695.092	3096.87
695.281	3037.48
695.47	3092.77
695.659	3064.1
695.848	2990.38
696.037	3125.54
696.226	3066.15
696.415	2910.5
696.604	3017
696.793	2998.57
696.982	2971.94
697.171	2951.46
697.36	2943.27
697.549	2908.46
697.738	2861.35
697.927	2836.78
698.116	2939.18
698.305	2707.76
698.494	2779.43
698.683	2828.59
698.872	2828.59
699.061	2871.59
699.25	2791.72
699.438	2957.61
699.627	2683.18
699.816	2771.24
700.005	2787.63
700.193	2718
700.382	2654.51
700.571	2670.89
700.76	2705.71
700.948	2744.62
701.137	2609.45
701.326	2640.17
701.514	2531.63
701.703	2527.53
701.892	2496.82
702.08	2513.2
702.269	2623.79
702.457	2625.84
702.646	2386.22
702.834	2337.07
703.023	2529.58
703.212	2519.34
703.4	2449.71
703.589	2437.42
703.777	2394.42
703.965	2259.25
704.154	2328.88
704.342	2369.84
704.531	2386.22
704.719	2330.93
704.907	2349.36
705.096	2226.48
705.284	2189.62
705.472	2226.48
705.661	2283.83
705.849	2234.68
706.037	2279.73
706.226	2179.38
706.414	2138.42
706.602	2222.39
706.79	2292.02
706.979	2107.7
707.167	2169.14
707.355	2218.29
707.543	2173.24
707.731	2165.04
707.919	2074.93
708.107	2050.36
708.296	2062.65
708.484	2119.99
708.672	2048.31
708.86	2101.56
709.048	1997.11
709.236	1954.1
709.424	2025.78
709.612	1966.39
709.8	1952.06
709.988	1947.96
710.176	2001.21
710.364	1984.82
710.551	1804.6
710.739	1999.16
710.927	1874.23
711.115	1950.01
711.303	1923.38
711.491	1827.13
711.679	1894.71
711.866	1802.55
712.054	1943.86
712.242	1794.36
712.43	1880.38
712.617	1833.27
712.805	1806.65
712.993	1769.79
713.181	1708.35
713.368	1749.31
713.556	1825.08
713.744	1665.34
713.931	1861.94
714.119	1745.21
714.306	1687.87
714.494	1763.64
714.682	1724.73
714.869	1749.31
715.057	1761.59
715.244	1820.99
715.432	1739.07
715.619	1655.1
715.807	1540.41
715.994	1634.62
716.182	1671.48
716.369	1616.19
716.556	1540.41
716.744	1642.81
716.931	1550.65
717.119	1640.76
717.306	1583.42
717.493	1567.04
717.681	1599.8
717.868	1466.69
718.055	1521.98
718.242	1431.87
718.43	1521.98
718.617	1558.85
718.804	1450.3
718.991	1505.6
719.179	1567.04
719.366	1384.77
719.553	1491.26
719.74	1407.3
719.927	1411.39
720.114	1333.57
720.301	1370.43
720.488	1370.43
720.676	1358.14
720.863	1374.53
721.05	1419.58
721.237	1386.82
721.424	1313.09
721.611	1450.3
721.798	1347.9
721.985	1317.19
722.172	1343.81
722.358	1341.76
722.545	1206.59
722.732	1255.75
722.919	1308.99
723.106	1280.32
723.293	1272.13
723.48	1235.27
723.667	1249.6
723.853	1296.71
724.04	1198.4
724.227	1294.66
724.414	1202.5
724.6	1179.97
724.787	1278.27
724.974	1173.83
725.161	1118.53
725.347	1233.22
725.534	1184.07
725.72	1134.92
725.907	1276.23
726.094	1239.36
726.28	1145.16
726.467	1124.68
726.653	1093.96
726.84	1184.07
727.027	1175.88
727.213	1102.15
727.4	1227.07
727.586	1114.44
727.773	1153.35
727.959	1067.33
728.145	1114.44
728.332	1067.33
728.518	999.75
728.705	979.27
728.891	1026.37
729.077	1093.96
729.264	1001.8
729.45	1012.04
729.636	1005.89
729.823	975.17
730.009	1061.19
730.195	1067.33
730.382	952.65
730.568	1065.29
730.754	999.75
730.94	991.56
731.126	997.7
731.313	1063.24
731.499	901.45
731.685	1012.04
731.871	944.45
732.057	999.75
732.243	907.59
732.429	936.26
732.615	1036.61
732.801	919.88
732.987	870.73
733.173	928.07
733.359	870.73
733.545	948.55
733.731	887.11
733.917	840.01
734.103	903.5
734.289	960.84
734.475	944.45
734.661	868.68
734.847	932.17
735.033	846.15
735.219	887.11
735.404	901.45
735.59	895.3
735.776	782.67
735.962	817.48
736.148	829.77
736.333	899.4
736.519	825.67
736.705	887.11
736.89	729.42
737.076	737.61
737.262	848.2
737.447	809.29
737.633	684.36
737.819	821.58
738.004	786.76
738.19	844.1
738.375	721.23
738.561	829.77
738.747	772.43
738.932	678.22
739.118	807.24
739.303	606.54
739.489	721.23
739.674	803.15
739.859	729.42
740.045	799.05
740.23	743.75
740.416	731.47
740.601	721.23
740.786	723.27
740.972	676.17
741.157	751.95
741.342	690.51
741.528	680.27
741.713	743.75
741.898	706.89
742.084	622.92
742.269	651.6
742.454	649.55
742.639	747.85
742.824	663.88
743.01	680.27
743.195	729.42
743.38	676.17
743.565	702.79
743.75	690.51
743.935	602.44
744.12	649.55
744.305	567.63
744.49	598.35
744.675	710.99
744.86	602.44
745.045	639.31
745.23	678.22
745.415	702.79
745.6	645.45
745.785	620.88
745.97	579.92
746.155	563.53
746.34	565.58
746.525	622.92
746.71	569.68
746.895	629.07
747.079	629.07
747.264	641.36
747.449	489.81
747.634	500.05
747.819	618.83
748.003	530.77
748.188	639.31
748.373	526.67
748.557	586.06
748.742	495.95
748.927	557.39
749.111	620.88
749.296	604.49
749.481	594.25
749.665	563.53
749.85	493.9
750.034	450.89
750.219	536.91
750.404	483.66
750.588	506.19
750.773	563.53
750.957	553.29
751.141	465.23
751.326	463.18
751.51	526.67
751.695	448.85
751.879	459.09
752.064	459.09
752.248	446.8
752.432	518.48
752.617	467.28
752.801	450.89
752.985	469.33
753.17	479.57
753.354	473.42
753.538	465.23
753.722	514.38
753.907	457.04
754.091	448.85
754.275	493.9
754.459	381.26
754.643	493.9
754.828	383.31
755.012	432.46
755.196	383.31
755.38	471.37
755.564	375.12
755.748	448.85
755.932	407.89
756.116	514.38
756.3	405.84
756.484	391.5
756.668	473.42
756.852	325.97
757.036	409.94
757.22	418.13
757.404	375.12
757.588	465.23
757.772	436.56
757.956	436.56
758.14	375.12
758.323	362.83
758.507	371.02
758.691	411.98
758.875	403.79
759.059	467.28
759.242	383.31
759.426	403.79
759.61	436.56
759.794	309.58
759.977	352.59
760.161	403.79
760.345	334.16
760.528	375.12
760.712	321.87
760.895	381.26
761.079	332.11
761.263	371.02
761.446	330.06
761.63	387.41
761.813	307.54
761.997	344.4
762.18	256.34
762.364	401.74
762.547	346.45
762.731	264.53
762.914	379.22
763.098	278.87
763.281	352.59
763.464	342.35
763.648	377.17
763.831	354.64
764.015	401.74
764.198	354.64
764.381	282.96
764.564	307.54
764.748	272.72
764.931	313.68
765.114	305.49
765.297	424.27
765.481	342.35
765.664	297.3
765.847	323.92
766.03	354.64
766.213	305.49
766.397	377.17
766.58	395.6
766.763	297.3
766.946	352.59
767.129	305.49
767.312	325.97
767.495	317.78
767.678	358.74
767.861	344.4
768.044	285.01
768.227	328.02
768.41	297.3
768.593	282.96
768.776	309.58
768.959	262.48
769.142	268.63
769.324	260.43
769.507	225.62
769.69	321.87
769.873	336.21
770.056	317.78
770.239	321.87
770.421	252.24
770.604	278.87
770.787	334.16
770.97	239.95
771.152	301.39
771.335	270.67
771.518	379.22
771.7	221.52
771.883	330.06
772.066	330.06
772.248	420.17
772.431	350.54
772.613	301.39
772.796	264.53
772.978	235.86
773.161	321.87
773.343	321.87
773.526	256.34
773.708	336.21
773.891	219.47
774.073	332.11
774.256	272.72
774.438	268.63
774.621	280.91
774.803	289.1
774.985	350.54
775.168	379.22
775.35	264.53
775.532	272.72
775.715	264.53
775.897	270.67
776.079	272.72
776.261	215.38
776.444	301.39
776.626	305.49
776.808	211.28
776.99	342.35
777.173	223.57
777.355	266.58
777.537	182.61
777.719	178.51
777.901	321.87
778.083	368.98
778.265	301.39
778.447	227.67
778.629	262.48
778.811	201.04
778.993	198.99
779.175	237.91
779.357	244.05
779.539	289.1
779.721	188.75
779.903	295.25
780.085	248.15
780.267	280.91
780.449	223.57
780.631	180.56
780.812	223.57
780.994	244.05
781.176	198.99
781.358	182.61
781.54	229.71
781.721	172.37
781.903	155.99
782.085	201.04
782.267	207.19
782.448	190.8
782.63	262.48
782.812	248.15
782.993	246.1
783.175	266.58
783.357	211.28
783.538	272.72
783.72	147.8
783.901	172.37
784.083	207.19
784.264	258.39
784.446	174.42
784.627	164.18
784.809	225.62
784.99	223.57
785.172	174.42
785.353	149.84
785.535	194.9
785.716	215.38
785.897	207.19
786.079	168.27
786.26	133.46
786.441	174.42
786.623	246.1
786.804	194.9
786.985	106.84
787.167	147.8
787.348	153.94
787.529	162.13
787.71	172.37
787.891	88.4
788.073	125.27
788.254	217.43
788.435	115.03
788.616	121.17
788.797	139.6
788.978	143.7
789.159	207.19
789.34	106.84
789.522	237.91
789.703	129.36
789.884	149.84
790.065	196.95
790.246	149.84
790.427	182.61
790.607	106.84
790.788	201.04
790.969	104.79
791.15	162.13
791.331	166.23
791.512	104.79
791.693	90.45
791.874	223.57
792.054	69.97
792.235	108.88
792.416	110.93
792.597	92.5
792.778	117.08
792.958	153.94
793.139	78.16
793.32	149.84
793.5	88.4
793.681	121.17
793.862	153.94
794.042	137.56
794.223	84.31
794.404	145.75
794.584	129.36
794.765	102.74
794.945	131.41
795.126	211.28
795.306	155.99
795.487	76.12
795.667	98.64
795.848	178.51
796.028	121.17
796.209	135.51
796.389	74.07
796.57	139.6
796.75	135.51
796.93	139.6
797.111	86.36
797.291	178.51
797.471	166.23
797.652	127.32
797.832	90.45
798.012	176.47
798.192	106.84
798.373	67.92
798.553	92.5
798.733	110.93
798.913	96.6
799.093	90.45
799.274	143.7
799.454	100.69
799.634	149.84
799.814	84.31
799.994	67.92
800.174	90.45
800.354	88.4
800.534	127.32
800.714	158.03
800.894	74.07
801.074	115.03
801.254	53.59
801.434	90.45
801.614	63.83
801.794	96.6
801.974	184.66
802.154	137.56
802.334	149.84
802.514	78.16
802.693	100.69
802.873	29.01
803.053	145.75
803.233	74.07
803.413	98.64
803.592	51.54
803.772	84.31
803.952	117.08
804.131	135.51
804.311	63.83
804.491	137.56
804.67	92.5
804.85	74.07
805.03	100.69
805.209	69.97
805.389	10.58
805.568	125.27
805.748	98.64
805.928	149.84
806.107	151.89
806.287	117.08
806.466	110.93
806.646	57.68
806.825	117.08
807.004	115.03
807.184	57.68
807.363	84.31
807.543	8.53
807.722	141.65
807.901	145.75
808.081	82.26
808.26	88.4
808.439	112.98
808.619	149.84
808.798	49.49
808.977	49.49
809.156	127.32
809.336	45.4
809.515	88.4
809.694	123.22
809.873	61.78
810.052	10.58
810.231	65.88
810.411	86.36
810.59	104.79
810.769	16.73
810.948	65.88
811.127	57.68
811.306	67.92
811.485	59.73
811.664	88.4
811.843	39.25
812.022	84.31
812.201	106.84
812.38	59.73
812.559	43.35
812.737	39.25
812.916	115.03
813.095	110.93
813.274	72.02
813.453	26.96
813.632	63.83
813.811	16.73
813.989	80.21
814.168	82.26
814.347	108.88
814.526	115.03
814.704	129.36
814.883	94.55
815.062	41.3
815.24	59.73
815.419	8.53
815.598	37.2
815.776	33.11
815.955	102.74
816.133	92.5
816.312	39.25
816.49	24.92
816.669	100.69
816.847	0.34
817.026	67.92
817.204	84.31
817.383	35.16
817.561	2.39
817.74	88.4
817.918	-9.9
818.097	98.64
818.275	65.88
818.453	115.03
818.632	-7.85
818.81	51.54
818.988	65.88
819.167	-22.19
819.345	74.07
819.523	80.21
819.701	55.64
819.879	63.83
820.058	41.3
820.236	37.2
820.414	26.96
820.592	26.96
820.77	67.92
820.948	29.01
821.127	14.68
821.305	-22.19
821.483	82.26
821.661	49.49
821.839	10.58
822.017	61.78
822.195	0.34
822.373	115.03
822.551	8.53
822.729	26.96
822.907	10.58
823.085	104.79
823.262	51.54
823.44	18.77
823.618	41.3
823.796	29.01
823.974	47.44
824.152	63.83
824.329	49.49
824.507	82.26
824.685	67.92
824.863	35.16
825.04	-30.38
825.218	41.3
825.396	-32.43
825.574	78.16
825.751	110.93
825.929	45.4
826.107	45.4
826.284	96.6
826.462	-1.71
826.639	63.83
826.817	45.4
826.994	63.83
827.172	-1.71
827.349	4.44
827.527	2.39
827.704	41.3
827.882	39.25
828.059	-18.09
828.237	76.12
828.414	12.63
828.591	57.68
828.769	22.87
828.946	-34.47
829.124	57.68
829.301	117.08
829.478	43.35
829.655	35.16
829.833	43.35
830.01	43.35
830.187	41.3
830.364	67.92
830.542	98.64
830.719	63.83
830.896	127.32
831.073	31.06
831.25	57.68
831.427	63.83
831.604	18.77
831.782	84.31
831.959	14.68
832.136	41.3
832.313	55.64
832.49	26.96
832.667	125.27
832.844	35.16
833.021	69.97
833.198	-20.14
833.374	12.63
833.551	18.77
833.728	49.49
833.905	0.34
834.082	80.21
834.259	35.16
834.436	33.11
834.612	59.73
834.789	61.78
834.966	-59.05
835.143	53.59
835.319	-42.67
835.496	55.64
835.673	-54.95
835.85	133.46
836.026	-46.76
836.203	2.39
836.38	12.63
836.556	-7.85
836.733	-1.71
836.909	98.64
837.086	0.34
837.262	88.4
837.439	-16.04
837.616	14.68
837.792	20.82
837.968	-1.71
838.145	-9.9
838.321	-79.53
838.498	16.73
838.674	98.64
838.851	-16.04
839.027	59.73
839.203	35.16
839.38	-5.8
839.556	49.49
839.732	72.02
839.909	74.07
840.085	53.59
840.261	31.06
840.437	-18.09
840.614	-48.81
840.79	92.5
840.966	-50.86
841.142	10.58
841.318	-5.8
841.494	43.35
841.671	92.5
841.847	47.44
842.023	41.3
842.199	98.64
842.375	41.3
842.551	14.68
842.727	80.21
842.903	69.97
843.079	8.53
843.255	59.73
843.431	24.92
843.607	22.87
843.783	-11.95
843.959	8.53
844.134	-38.57
844.31	74.07
844.486	-63.15
844.662	67.92
844.838	8.53
845.013	24.92
845.189	-22.19
845.365	67.92
845.541	-16.04
845.716	-13.99
845.892	51.54
846.068	22.87
846.244	-42.67
846.419	18.77
846.595	-50.86
846.77	24.92
846.946	-67.24
847.122	-9.9
847.297	-22.19
847.473	67.92
847.648	35.16
847.824	-16.04
847.999	16.73
848.175	18.77
848.35	-30.38
848.526	59.73
848.701	29.01
848.876	59.73
849.052	-1.71
849.227	-9.9
849.403	-20.14
849.578	39.25
849.753	-24.23
849.929	6.49
850.104	63.83
850.279	43.35
850.454	-5.8
850.63	0.34
850.805	12.63
850.98	-9.9
851.155	8.53
851.33	76.12
851.505	61.78
851.681	57.68
851.856	45.4
852.031	37.2
852.206	59.73
852.381	22.87
852.556	-63.15
852.731	18.77
852.906	6.49
853.081	-26.28
853.256	2.39
853.431	8.53
853.606	-26.28
853.781	22.87
853.956	-11.95
854.131	-32.43
854.305	8.53
854.48	10.58
854.655	26.96
854.83	57.68
855.005	-16.04
855.18	63.83
855.354	4.44
855.529	26.96
855.704	18.77
855.879	49.49
856.053	-26.28
856.228	12.63
856.403	0.34
856.577	16.73
856.752	-57
856.926	14.68
857.101	18.77
857.276	-40.62
857.45	-1.71
857.625	18.77
857.799	-5.8
857.974	26.96
858.148	33.11
858.323	-13.99
858.497	43.35
858.672	18.77
858.846	-75.43
859.02	43.35
859.195	6.49
859.369	0.34
859.543	-22.19
859.718	-13.99
859.892	22.87
860.066	-7.85
860.241	49.49
860.415	43.35
860.589	-24.23
860.763	39.25
860.938	-11.95
861.112	33.11
861.286	-34.47
861.46	31.06
861.634	-5.8
861.808	10.58
861.982	39.25
862.157	-9.9
862.331	37.2
862.505	-22.19
862.679	-38.57
862.853	-5.8
863.027	24.92
863.201	-5.8
863.375	-9.9
863.549	-75.43
863.722	4.44
863.896	92.5
864.07	-24.23
864.244	39.25
864.418	6.49
864.592	55.64
864.766	-24.23
864.939	16.73
865.113	35.16
865.287	14.68
865.461	6.49
865.634	-13.99
865.808	-16.04
865.982	-18.09
866.156	-54.95
866.329	-1.71
866.503	22.87
866.676	63.83
866.85	63.83
867.024	-1.71
867.197	0.34
867.371	61.78
867.544	-42.67
867.718	37.2
867.891	-3.75
868.065	-46.76
868.238	24.92
868.412	0.34
868.585	55.64
868.759	-77.48
868.932	6.49
869.105	63.83
869.279	-32.43
869.452	16.73
869.625	-40.62
869.799	-16.04
869.972	22.87
870.145	-30.38
870.319	-77.48
870.492	41.3
870.665	59.73
870.838	-26.28
871.011	35.16
871.185	67.92
871.358	-3.75
871.531	47.44
871.704	-13.99
871.877	-34.47
872.05	-34.47
872.223	14.68
872.396	-5.8
872.569	47.44
872.742	-30.38
872.915	14.68
873.088	18.77
873.261	-57
873.434	-1.71
873.607	55.64
873.78	-71.34
873.953	-7.85
874.126	26.96
874.299	74.07
874.471	37.2
874.644	37.2
874.817	-22.19
874.99	18.77
875.163	43.35
875.335	22.87
875.508	31.06
875.681	-11.95
875.853	26.96
876.026	26.96
876.199	65.88
876.371	-13.99
876.544	35.16
876.717	-40.62
876.889	18.77
877.062	-50.86
877.234	-65.19
877.407	84.31
877.579	-1.71
877.752	74.07
877.924	-24.23
878.097	-13.99
878.269	18.77
878.442	41.3
878.614	-3.75
878.786	110.93
878.959	4.44
879.131	39.25
879.303	16.73
879.476	59.73
879.648	-26.28
879.82	35.16
879.993	22.87
880.165	12.63
880.337	-32.43
880.509	24.92
880.681	0.34
880.854	29.01
881.026	-83.63
881.198	-24.23
881.37	35.16
881.542	33.11
881.714	-57
881.886	-22.19
882.058	-52.91
882.23	22.87
882.402	22.87
882.574	-63.15
882.746	-28.33
882.918	74.07
883.09	18.77
883.262	10.58
883.434	18.77
883.606	22.87
883.778	2.39
883.95	16.73
884.122	26.96
884.293	-36.52
884.465	2.39
884.637	-38.57
884.809	-16.04
884.98	121.17
885.152	-1.71
885.324	20.82
885.496	0.34
885.667	-32.43
885.839	-24.23
886.011	2.39
886.182	69.97
886.354	18.77
886.525	-9.9
886.697	-61.1
886.869	-38.57
887.04	51.54
887.212	-9.9
887.383	55.64
887.555	51.54
887.726	2.39
887.897	-69.29
888.069	45.4
888.24	-5.8
888.412	-3.75
888.583	2.39
888.754	2.39
888.926	18.77
889.097	57.68
889.268	35.16
889.44	22.87
889.611	8.53
889.782	63.83
889.953	24.92
890.125	49.49
890.296	-40.62
890.467	24.92
890.638	-26.28
890.809	139.6
890.98	14.68
891.151	-22.19
891.323	39.25
891.494	-44.71
891.665	-1.71
891.836	45.4
892.007	-22.19
892.178	-42.67
892.349	6.49
892.52	8.53
892.691	0.34
892.862	33.11
893.032	-26.28
893.203	16.73
893.374	-46.76
893.545	86.36
893.716	-22.19
893.887	18.77
894.057	39.25
894.228	72.02
894.399	35.16
894.57	63.83
894.74	-38.57
894.911	8.53
895.082	29.01
895.253	-5.8
895.423	-22.19
895.594	-40.62
895.764	0.34
895.935	-11.95
896.106	51.54
896.276	26.96
896.447	37.2
896.617	-18.09
896.788	-3.75
896.958	14.68
897.129	35.16
897.299	-26.28
897.47	31.06
897.64	18.77
897.81	47.44
897.981	22.87
898.151	-1.71
898.322	-42.67
898.492	-5.8
898.662	-16.04
898.832	10.58
899.003	35.16
899.173	-9.9
899.343	51.54
899.513	24.92
