Data from USB4F104151__47__12-12-14-005.txt Node

Date: Fri Mar 14 12:12:14 EDT 2025
User: louis
Spectrometer: USB4F10415
Trigger mode: 4
Integration Time (sec): 5.000000E-2
Scans to average: 1
Electric dark correction enabled: true
Nonlinearity correction enabled: false
Boxcar width: 0
XAxis mode: Wavelengths
Number of Pixels in Spectrum: 3648
>>>>>Begin Spectral Data<<<<<
178.204	-225.79
178.424	-225.79
178.644	-225.79
178.864	-221.69
179.084	-272.89
179.304	-4.61
179.524	-6.66
179.744	52.74
179.964	67.07
180.184	32.26
180.404	3.58
180.624	-29.18
180.844	-39.42
181.064	-74.24
181.283	50.69
181.503	-33.28
181.723	-18.94
181.943	-90.62
182.163	144.89
182.383	1.54
182.602	54.78
182.822	167.42
183.042	19.97
183.262	-27.14
183.482	118.27
183.701	-43.52
183.921	26.11
184.141	-55.81
184.361	19.97
184.58	30.21
184.8	44.54
185.02	28.16
185.239	95.74
185.459	46.59
185.679	120.32
185.898	3.58
186.118	93.69
186.338	11.78
186.557	52.74
186.777	15.87
186.997	44.54
187.216	-41.47
187.436	65.02
187.655	-8.7
187.875	52.74
188.095	36.35
188.314	87.55
188.534	128.51
188.753	44.54
188.973	85.5
189.192	69.12
189.412	42.5
189.631	85.5
189.851	-2.56
190.07	144.89
190.29	-6.66
190.509	-43.52
190.729	56.83
190.948	93.69
191.168	181.76
191.387	54.78
191.607	28.16
191.826	44.54
192.045	99.84
192.265	22.02
192.484	60.93
192.704	28.16
192.923	32.26
193.142	112.13
193.362	69.12
193.581	34.3
193.8	62.98
194.02	97.79
194.239	22.02
194.458	62.98
194.678	103.93
194.897	99.84
195.116	15.87
195.335	48.64
195.555	40.45
195.774	-12.8
195.993	44.54
196.212	-10.75
196.432	-12.8
196.651	15.87
196.87	9.73
197.089	243.2
197.308	60.93
197.528	81.41
197.747	15.87
197.966	52.74
198.185	73.21
198.404	46.59
198.623	48.64
198.842	1.54
199.062	69.12
199.281	110.08
199.5	118.27
199.719	-8.7
199.938	62.98
200.157	40.45
200.376	58.88
200.595	60.93
200.814	112.13
201.033	-78.33
201.252	110.08
201.471	34.3
201.69	99.84
201.909	15.87
202.128	19.97
202.347	17.92
202.566	69.12
202.785	-39.42
203.004	-37.38
203.223	108.03
203.442	114.17
203.661	30.21
203.879	40.45
204.098	85.5
204.317	-6.66
204.536	69.12
204.755	34.3
204.974	30.21
205.193	19.97
205.411	146.94
205.63	-0.51
205.849	38.4
206.068	48.64
206.287	-61.95
206.505	93.69
206.724	38.4
206.943	48.64
207.162	62.98
207.381	56.83
207.599	24.06
207.818	60.93
208.037	19.97
208.255	5.63
208.474	5.63
208.693	122.37
208.911	103.93
209.13	79.36
209.349	62.98
209.567	89.6
209.786	46.59
210.005	99.84
210.223	3.58
210.442	-2.56
210.661	26.11
210.879	67.07
211.098	50.69
211.316	26.11
211.535	97.79
211.753	85.5
211.972	26.11
212.191	-0.51
212.409	34.3
212.628	67.07
212.846	-0.51
213.065	73.21
213.283	34.3
213.502	17.92
213.72	-27.14
213.938	75.26
214.157	50.69
214.375	128.51
214.594	48.64
214.812	36.35
215.031	69.12
215.249	44.54
215.467	38.4
215.686	79.36
215.904	95.74
216.122	50.69
216.341	60.93
216.559	32.26
216.778	192
216.996	-4.61
217.214	42.5
217.432	46.59
217.651	32.26
217.869	56.83
218.087	-45.57
218.306	58.88
218.524	44.54
218.742	19.97
218.96	165.37
219.179	42.5
219.397	19.97
219.615	44.54
219.833	71.17
220.051	19.97
220.27	32.26
220.488	138.75
220.706	79.36
220.924	42.5
221.142	9.73
221.36	44.54
221.578	42.5
221.796	11.78
222.015	97.79
222.233	13.82
222.451	93.69
222.669	-35.33
222.887	22.02
223.105	1.54
223.323	46.59
223.541	17.92
223.759	32.26
223.977	9.73
224.195	144.89
224.413	42.5
224.631	46.59
224.849	40.45
225.067	173.57
225.285	15.87
225.503	40.45
225.721	-35.33
225.939	28.16
226.157	19.97
226.375	208.38
226.592	28.16
226.81	60.93
227.028	124.41
227.246	103.93
227.464	71.17
227.682	95.74
227.9	50.69
228.117	22.02
228.335	101.89
228.553	-35.33
228.771	-2.56
228.989	52.74
229.206	42.5
229.424	122.37
229.642	15.87
229.86	-23.04
230.077	-0.51
230.295	99.84
230.513	67.07
230.731	54.78
230.948	148.99
231.166	114.17
231.384	89.6
231.601	19.97
231.819	118.27
232.037	73.21
232.254	-12.8
232.472	-0.51
232.689	-10.75
232.907	11.78
233.125	-2.56
233.342	15.87
233.56	-25.09
233.777	32.26
233.995	77.31
234.213	19.97
234.43	34.3
234.648	40.45
234.865	54.78
235.083	71.17
235.3	-23.04
235.518	83.45
235.735	130.56
235.953	122.37
236.17	40.45
236.388	34.3
236.605	22.02
236.822	30.21
237.04	110.08
237.257	65.02
237.475	-12.8
237.692	42.5
237.909	40.45
238.127	65.02
238.344	89.6
238.562	65.02
238.779	-31.23
238.996	-45.57
239.214	67.07
239.431	77.31
239.648	-33.28
239.865	62.98
240.083	30.21
240.3	-2.56
240.517	-37.38
240.735	116.22
240.952	122.37
241.169	87.55
241.386	38.4
241.603	60.93
241.821	1.54
242.038	83.45
242.255	3.58
242.472	-84.48
242.689	-8.7
242.907	105.98
243.124	42.5
243.341	89.6
243.558	-35.33
243.775	42.5
243.992	30.21
244.209	62.98
244.426	130.56
244.643	42.5
244.86	93.69
245.078	60.93
245.295	65.02
245.512	93.69
245.729	-10.75
245.946	73.21
246.163	101.89
246.38	110.08
246.597	87.55
246.814	-10.75
247.031	56.83
247.248	67.07
247.464	54.78
247.681	24.06
247.898	42.5
248.115	87.55
248.332	1.54
248.549	110.08
248.766	13.82
248.983	101.89
249.2	110.08
249.417	67.07
249.633	-16.9
249.85	124.41
250.067	50.69
250.284	36.35
250.501	110.08
250.717	105.98
250.934	-29.18
251.151	40.45
251.368	-10.75
251.585	56.83
251.801	-4.61
252.018	17.92
252.235	67.07
252.451	65.02
252.668	110.08
252.885	89.6
253.102	11.78
253.318	15.87
253.535	17.92
253.752	-10.75
253.968	15.87
254.185	-0.51
254.401	-8.7
254.618	38.4
254.835	-25.09
255.051	103.93
255.268	-16.9
255.484	52.74
255.701	65.02
255.917	54.78
256.134	-2.56
256.351	28.16
256.567	-14.85
256.784	24.06
257	-14.85
257.217	40.45
257.433	71.17
257.65	15.87
257.866	134.65
258.082	-18.94
258.299	19.97
258.515	32.26
258.732	7.68
258.948	54.78
259.165	130.56
259.381	34.3
259.597	83.45
259.814	-20.99
260.03	-61.95
260.246	73.21
260.463	148.99
260.679	1.54
260.895	62.98
261.112	56.83
261.328	-27.14
261.544	-12.8
261.761	144.89
261.977	-8.7
262.193	30.21
262.409	95.74
262.626	50.69
262.842	50.69
263.058	19.97
263.274	62.98
263.49	105.98
263.707	101.89
263.923	15.87
264.139	-2.56
264.355	30.21
264.571	32.26
264.787	108.03
265.004	134.65
265.22	22.02
265.436	5.63
265.652	32.26
265.868	58.88
266.084	-35.33
266.3	93.69
266.516	13.82
266.732	32.26
266.948	19.97
267.164	19.97
267.38	52.74
267.596	112.13
267.812	110.08
268.028	32.26
268.244	62.98
268.46	15.87
268.676	79.36
268.892	155.13
269.108	-23.04
269.324	62.98
269.54	65.02
269.756	103.93
269.972	-35.33
270.188	15.87
270.403	-64
270.619	-18.94
270.835	36.35
271.051	-25.09
271.267	28.16
271.483	75.26
271.698	134.65
271.914	65.02
272.13	69.12
272.346	105.98
272.562	13.82
272.777	97.79
272.993	-33.28
273.209	-16.9
273.425	32.26
273.64	-27.14
273.856	136.7
274.072	5.63
274.287	44.54
274.503	46.59
274.719	60.93
274.934	36.35
275.15	-123.39
275.366	-29.18
275.581	71.17
275.797	11.78
276.012	24.06
276.228	-0.51
276.444	28.16
276.659	60.93
276.875	-0.51
277.09	67.07
277.306	-37.38
277.521	28.16
277.737	46.59
277.952	124.41
278.168	71.17
278.383	71.17
278.599	-8.7
278.814	-2.56
279.03	48.64
279.245	120.32
279.461	40.45
279.676	97.79
279.892	-59.9
280.107	46.59
280.322	28.16
280.538	52.74
280.753	3.58
280.969	3.58
281.184	13.82
281.399	95.74
281.615	62.98
281.83	40.45
282.045	34.3
282.26	36.35
282.476	71.17
282.691	140.8
282.906	67.07
283.122	11.78
283.337	32.26
283.552	67.07
283.767	54.78
283.983	73.21
284.198	24.06
284.413	110.08
284.628	-27.14
284.843	50.69
285.058	118.27
285.274	91.65
285.489	-10.75
285.704	67.07
285.919	67.07
286.134	24.06
286.349	42.5
286.564	36.35
286.779	40.45
286.995	-0.51
287.21	87.55
287.425	58.88
287.64	28.16
287.855	-10.75
288.07	-2.56
288.285	54.78
288.5	167.42
288.715	120.32
288.93	-20.99
289.145	-25.09
289.36	79.36
289.575	26.11
289.79	46.59
290.004	7.68
290.219	128.51
290.434	-4.61
290.649	3.58
290.864	-47.62
291.079	73.21
291.294	65.02
291.509	103.93
291.724	7.68
291.938	24.06
292.153	93.69
292.368	42.5
292.583	54.78
292.798	97.79
293.012	60.93
293.227	36.35
293.442	-102.91
293.657	75.26
293.871	24.06
294.086	-2.56
294.301	192
294.516	79.36
294.73	38.4
294.945	-6.66
295.16	71.17
295.374	89.6
295.589	40.45
295.804	48.64
296.018	32.26
296.233	136.7
296.447	48.64
296.662	71.17
296.877	118.27
297.091	3.58
297.306	-2.56
297.52	-8.7
297.735	62.98
297.949	30.21
298.164	46.59
298.378	30.21
298.593	40.45
298.807	1.54
299.022	50.69
299.236	144.89
299.451	69.12
299.665	-66.05
299.88	-12.8
300.094	48.64
300.309	44.54
300.523	40.45
300.737	48.64
300.952	71.17
301.166	36.35
301.381	32.26
301.595	30.21
301.809	46.59
302.024	67.07
302.238	67.07
302.452	58.88
302.667	-2.56
302.881	69.12
303.095	34.3
303.309	69.12
303.524	97.79
303.738	81.41
303.952	32.26
304.166	87.55
304.381	-35.33
304.595	77.31
304.809	-4.61
305.023	13.82
305.237	-16.9
305.452	-8.7
305.666	62.98
305.88	116.22
306.094	58.88
306.308	71.17
306.522	85.5
306.736	103.93
306.95	83.45
307.164	17.92
307.379	60.93
307.593	126.46
307.807	24.06
308.021	50.69
308.235	77.31
308.449	-49.66
308.663	32.26
308.877	112.13
309.091	65.02
309.305	22.02
309.519	-64
309.733	89.6
309.947	-53.76
310.161	19.97
310.374	91.65
310.588	126.46
310.802	101.89
311.016	32.26
311.23	85.5
311.444	24.06
311.658	34.3
311.872	58.88
312.085	95.74
312.299	112.13
312.513	124.41
312.727	132.61
312.941	9.73
313.154	5.63
313.368	101.89
313.582	34.3
313.796	67.07
314.009	30.21
314.223	101.89
314.437	9.73
314.651	69.12
314.864	95.74
315.078	13.82
315.292	15.87
315.505	32.26
315.719	87.55
315.933	103.93
316.146	44.54
316.36	40.45
316.573	153.09
316.787	60.93
317.001	1.54
317.214	22.02
317.428	60.93
317.641	34.3
317.855	13.82
318.068	40.45
318.282	56.83
318.495	101.89
318.709	40.45
318.922	69.12
319.136	95.74
319.349	153.09
319.563	54.78
319.776	87.55
319.99	46.59
320.203	140.8
320.417	79.36
320.63	46.59
320.843	120.32
321.057	103.93
321.27	52.74
321.483	73.21
321.697	114.17
321.91	93.69
322.124	130.56
322.337	77.31
322.55	-2.56
322.763	22.02
322.977	83.45
323.19	75.26
323.403	54.78
323.617	112.13
323.83	77.31
324.043	-14.85
324.256	54.78
324.469	5.63
324.683	87.55
324.896	19.97
325.109	87.55
325.322	-4.61
325.535	151.04
325.748	75.26
325.962	-14.85
326.175	7.68
326.388	50.69
326.601	58.88
326.814	120.32
327.027	38.4
327.24	159.23
327.453	-25.09
327.666	105.98
327.879	112.13
328.092	77.31
328.305	28.16
328.518	50.69
328.731	15.87
328.944	42.5
329.157	17.92
329.37	79.36
329.583	101.89
329.796	120.32
330.009	-31.23
330.222	108.03
330.435	130.56
330.648	118.27
330.861	101.89
331.073	54.78
331.286	67.07
331.499	-6.66
331.712	36.35
331.925	114.17
332.138	38.4
332.35	175.61
332.563	79.36
332.776	36.35
332.989	-68.09
333.202	34.3
333.414	28.16
333.627	19.97
333.84	-2.56
334.053	17.92
334.265	15.87
334.478	30.21
334.691	7.68
334.903	19.97
335.116	15.87
335.329	5.63
335.541	5.63
335.754	81.41
335.966	69.12
336.179	19.97
336.392	112.13
336.604	97.79
336.817	50.69
337.029	60.93
337.242	28.16
337.454	103.93
337.667	48.64
337.88	85.5
338.092	71.17
338.305	144.89
338.517	11.78
338.729	105.98
338.942	122.37
339.154	-8.7
339.367	-68.09
339.579	48.64
339.792	48.64
340.004	140.8
340.217	75.26
340.429	73.21
340.641	-43.52
340.854	56.83
341.066	36.35
341.278	62.98
341.491	73.21
341.703	30.21
341.915	30.21
342.128	122.37
342.34	75.26
342.552	17.92
342.764	99.84
342.977	79.36
343.189	97.79
343.401	5.63
343.613	-6.66
343.826	52.74
344.038	-6.66
344.25	99.84
344.462	-20.99
344.674	22.02
344.886	52.74
345.099	77.31
345.311	56.83
345.523	60.93
345.735	5.63
345.947	122.37
346.159	103.93
346.371	13.82
346.583	36.35
346.795	177.66
347.007	-64
347.219	22.02
347.431	79.36
347.643	177.66
347.855	7.68
348.067	87.55
348.279	-18.94
348.491	34.3
348.703	89.6
348.915	69.12
349.127	60.93
349.339	48.64
349.551	40.45
349.763	56.83
349.975	108.03
350.187	46.59
350.399	124.41
350.61	32.26
350.822	52.74
351.034	85.5
351.246	32.26
351.458	132.61
351.669	89.6
351.881	122.37
352.093	114.17
352.305	103.93
352.517	122.37
352.728	105.98
352.94	71.17
353.152	134.65
353.363	34.3
353.575	124.41
353.787	89.6
353.999	105.98
354.21	132.61
354.422	28.16
354.633	75.26
354.845	7.68
355.057	42.5
355.268	124.41
355.48	58.88
355.692	75.26
355.903	122.37
356.115	73.21
356.326	118.27
356.538	67.07
356.749	19.97
356.961	146.94
357.172	97.79
357.384	44.54
357.595	114.17
357.807	67.07
358.018	32.26
358.23	22.02
358.441	181.76
358.653	124.41
358.864	-8.7
359.075	48.64
359.287	58.88
359.498	101.89
359.709	60.93
359.921	67.07
360.132	97.79
360.344	3.58
360.555	79.36
360.766	87.55
360.977	134.65
361.189	79.36
361.4	-6.66
361.611	60.93
361.823	81.41
362.034	95.74
362.245	1.54
362.456	-0.51
362.667	112.13
362.879	62.98
363.09	56.83
363.301	79.36
363.512	87.55
363.723	62.98
363.935	36.35
364.146	73.21
364.357	34.3
364.568	77.31
364.779	24.06
364.99	34.3
365.201	46.59
365.412	56.83
365.623	9.73
365.834	19.97
366.045	-14.85
366.256	1.54
366.467	136.7
366.678	44.54
366.889	-0.51
367.1	38.4
367.311	77.31
367.522	3.58
367.733	112.13
367.944	108.03
368.155	32.26
368.366	132.61
368.577	67.07
368.788	130.56
368.999	5.63
369.209	36.35
369.42	126.46
369.631	124.41
369.842	83.45
370.053	-6.66
370.264	187.9
370.474	-16.9
370.685	13.82
370.896	116.22
371.107	95.74
371.317	69.12
371.528	79.36
371.739	75.26
371.95	140.8
372.16	48.64
372.371	36.35
372.582	46.59
372.792	120.32
373.003	46.59
373.214	83.45
373.424	99.84
373.635	50.69
373.846	140.8
374.056	134.65
374.267	83.45
374.477	103.93
374.688	105.98
374.898	9.73
375.109	67.07
375.319	97.79
375.53	122.37
375.74	136.7
375.951	56.83
376.161	159.23
376.372	48.64
376.582	5.63
376.793	112.13
377.003	-16.9
377.214	103.93
377.424	157.18
377.635	7.68
377.845	52.74
378.055	146.94
378.266	46.59
378.476	15.87
378.686	60.93
378.897	120.32
379.107	69.12
379.317	91.65
379.528	52.74
379.738	122.37
379.948	95.74
380.158	81.41
380.369	-33.28
380.579	69.12
380.789	17.92
380.999	136.7
381.21	69.12
381.42	142.85
381.63	44.54
381.84	93.69
382.05	151.04
382.261	32.26
382.471	110.08
382.681	46.59
382.891	132.61
383.101	93.69
383.311	28.16
383.521	9.73
383.731	105.98
383.941	138.75
384.151	105.98
384.361	71.17
384.571	128.51
384.781	69.12
384.991	126.46
385.201	118.27
385.411	134.65
385.621	132.61
385.831	79.36
386.041	52.74
386.251	140.8
386.461	105.98
386.671	128.51
386.881	44.54
387.091	122.37
387.301	148.99
387.511	93.69
387.72	148.99
387.93	134.65
388.14	67.07
388.35	142.85
388.56	128.51
388.769	132.61
388.979	85.5
389.189	-33.28
389.399	116.22
389.609	196.09
389.818	103.93
390.028	99.84
390.238	138.75
390.447	19.97
390.657	67.07
390.867	75.26
391.076	-8.7
391.286	93.69
391.496	97.79
391.705	75.26
391.915	116.22
392.125	62.98
392.334	54.78
392.544	122.37
392.753	73.21
392.963	116.22
393.172	105.98
393.382	-31.23
393.591	110.08
393.801	15.87
394.01	175.61
394.22	108.03
394.429	67.07
394.639	108.03
394.848	155.13
395.058	89.6
395.267	81.41
395.477	108.03
395.686	85.5
395.895	185.85
396.105	204.28
396.314	187.9
396.524	153.09
396.733	116.22
396.942	99.84
397.152	130.56
397.361	173.57
397.57	108.03
397.78	124.41
397.989	163.33
398.198	286.2
398.407	216.57
398.617	157.18
398.826	128.51
399.035	157.18
399.244	210.43
399.453	105.98
399.663	202.24
399.872	189.95
400.081	54.78
400.29	194.05
400.499	103.93
400.708	122.37
400.917	173.57
401.127	194.05
401.336	142.85
401.545	263.68
401.754	175.61
401.963	200.19
402.172	185.85
402.381	56.83
402.59	189.95
402.799	185.85
403.008	210.43
403.217	206.33
403.426	196.09
403.635	19.97
403.844	122.37
404.053	220.67
404.262	120.32
404.471	282.11
404.68	228.86
404.888	265.72
405.097	255.48
405.306	259.58
405.515	290.3
405.724	263.68
405.933	247.29
406.142	265.72
406.35	292.35
406.559	314.88
406.768	312.83
406.977	335.35
407.185	312.83
407.394	341.5
407.603	273.92
407.812	374.27
408.02	413.18
408.229	241.15
408.438	392.7
408.646	382.46
408.855	300.54
409.064	411.13
409.272	452.09
409.481	521.72
409.69	429.56
409.898	404.99
410.107	517.62
410.315	503.29
410.524	431.61
410.733	527.86
410.941	525.82
411.15	509.43
411.358	605.69
411.567	570.87
411.775	599.54
411.984	636.41
412.192	683.51
412.401	593.4
412.609	765.43
412.818	642.55
413.026	759.28
413.234	851.44
413.443	710.13
413.651	753.14
413.86	876.02
414.068	853.49
414.276	890.35
414.485	884.21
414.693	964.08
414.901	1050.1
415.11	962.03
415.318	1076.72
415.526	1046
415.734	1070.58
415.943	1154.54
416.151	1226.22
416.359	1277.42
416.567	1310.19
416.776	1383.91
416.984	1365.48
417.192	1519.08
417.4	1381.87
417.608	1488.36
417.817	1502.7
418.025	1555.94
418.233	1773.03
418.441	1732.07
418.649	1660.39
418.857	1893.86
419.065	1893.86
419.273	1848.8
419.481	1881.57
419.689	2135.52
419.897	2194.91
420.105	2248.16
420.313	2242.01
420.521	2461.15
420.729	2444.76
420.937	2543.07
421.145	2667.99
421.353	2729.43
421.561	2803.16
421.769	2897.36
421.977	2991.57
422.185	3020.24
422.393	3169.74
422.601	3343.82
422.809	3368.4
423.017	3421.64
423.224	3521.99
423.432	3700.17
423.64	3687.88
423.848	4038.08
424.056	3849.67
424.263	4189.63
424.471	4007.36
424.679	4294.08
424.887	4707.77
425.094	4703.67
425.302	4701.62
425.51	4914.61
425.718	4883.89
425.925	4859.32
426.133	5107.12
426.341	5610.92
426.548	5719.46
426.756	5752.23
426.964	5789.1
427.171	6034.85
427.379	6452.64
427.586	6399.39
427.794	6802.84
428.001	6919.57
428.209	7167.38
428.417	7157.14
428.624	7511.44
428.832	7738.76
429.039	7595.4
429.247	7710.09
429.454	8406.4
429.662	8705.4
429.869	8215.94
430.076	8842.62
430.284	8418.69
430.491	8805.75
430.699	9438.58
430.906	9274.74
431.114	9409.9
431.321	9993.58
431.528	10161.51
431.736	10524
431.943	11105.62
432.15	10964.31
432.358	10763.61
432.565	11515.22
432.772	11496.78
432.979	12174.66
433.187	12512.58
433.394	12510.53
433.601	13190.45
433.808	13135.16
434.016	12954.94
434.223	13532.47
434.43	14193.96
434.637	14296.36
434.844	14990.62
435.052	15418.64
435.259	15039.77
435.466	15377.69
435.673	15369.49
435.88	16377.09
436.087	17007.87
436.294	17200.38
436.501	16659.71
436.708	16946.43
436.915	17620.21
437.122	18320.62
437.329	18404.58
437.537	18926.82
437.743	19094.75
437.95	18928.86
438.157	20198.6
438.364	20780.23
438.571	20487.37
438.778	20792.51
438.985	22508.71
439.192	21765.3
439.399	22305.96
439.606	21957.81
439.813	23082.14
440.02	24546.44
440.227	24106.13
440.433	23854.23
440.64	24509.58
440.847	24638.6
441.054	24915.08
441.261	26313.84
441.467	26213.49
441.674	26774.63
441.881	27823.19
442.088	27673.69
442.294	27315.3
442.501	28001.36
442.708	28910.66
442.914	29764.67
443.121	31167.52
443.328	30503.98
443.534	32582.67
443.741	31333.41
443.948	31239.2
444.154	33307.65
444.361	33334.28
444.568	33215.49
444.774	32963.59
444.981	33432.58
445.187	34700.27
445.394	36256.73
445.6	35587.04
445.807	38839.22
446.013	37579.71
446.22	37772.22
446.426	39359.4
446.633	39420.84
446.839	40561.56
447.046	39222.19
447.252	41153.42
447.459	41282.44
447.665	41540.49
447.871	43017.07
448.078	44784.47
448.284	42271.61
448.491	43705.19
448.697	45208.4
448.903	45755.21
449.11	46146.37
449.316	45339.47
449.522	46424.89
449.728	47401.77
449.935	47817.51
450.141	47799.08
450.347	48268.06
450.553	46715.7
450.76	47905.57
450.966	49369.87
451.172	48859.93
451.378	49517.32
451.584	48763.67
451.791	49963.78
451.997	49408.78
452.203	50338.56
452.409	50578.17
452.615	50139.91
452.821	48274.21
453.027	47805.22
453.233	50006.79
453.44	48380.7
453.646	48874.26
453.852	49310.48
454.058	49650.44
454.264	48642.84
454.47	48726.81
454.676	48034.6
454.882	49343.25
455.088	45400.91
455.294	45968.19
455.5	46625.59
455.705	46998.32
455.911	44931.92
456.117	44452.7
456.323	43780.96
456.529	41581.45
456.735	43256.68
456.941	42158.97
457.147	41139.08
457.352	40121.24
457.558	39441.32
457.764	39697.31
457.97	38740.91
458.176	37829.57
458.381	38245.3
458.587	36103.13
458.793	36330.45
458.999	34370.55
459.204	36813.77
459.41	35886.04
459.616	33324.04
459.821	33317.89
460.027	33172.49
460.233	32467.98
460.438	31155.24
460.644	31218.72
460.85	29797.43
461.055	29008.97
461.261	29006.92
461.466	26985.57
461.672	25975.92
461.878	27755.61
462.083	26248.3
462.289	25554.04
462.494	25044.1
462.7	24292.49
462.905	23704.73
463.111	24392.84
463.316	24396.94
463.522	23913.62
463.727	23798.93
463.932	23870.61
464.138	23491.74
464.343	23901.33
464.549	22748.32
464.754	23731.35
464.959	23647.38
465.165	23307.42
465.37	22148.27
465.575	21546.17
465.781	22199.47
465.986	22557.86
466.191	21699.76
466.397	21251.26
466.602	20266.19
466.807	21140.67
467.012	21103.81
467.218	20796.61
467.423	20696.26
467.628	20561.09
467.833	21681.33
468.038	20874.43
468.244	20083.92
468.449	20974.78
468.654	20159.69
468.859	20284.62
469.064	19889.36
469.269	19117.28
469.474	19371.22
469.679	19670.23
469.885	19401.94
470.09	19336.41
470.295	19025.12
470.5	18685.15
470.705	19043.55
470.91	18304.23
471.115	18318.57
471.32	18365.67
471.525	18410.73
471.73	18027.76
471.935	17777.9
472.139	16956.67
472.344	17536.24
472.549	17237.24
472.754	16995.58
472.959	16792.83
473.164	16303.37
473.369	16309.51
473.574	16848.13
473.778	16573.7
473.983	16479.49
474.188	16145.67
474.393	15508.76
474.598	15826.19
474.802	15457.56
475.007	15314.2
475.212	15351.06
475.417	14710.05
475.621	14677.28
475.826	14992.67
476.031	14601.51
476.235	14249.25
476.44	14490.91
476.645	14077.23
476.849	13817.13
477.054	14036.27
477.259	13522.23
477.463	14019.88
477.668	13450.55
477.872	13364.53
478.077	13217.08
478.282	12944.7
478.486	12985.66
478.691	12860.73
478.895	12576.06
479.1	12660.03
479.304	12782.91
479.509	12084.55
479.713	12588.35
479.918	12371.27
480.122	11928.91
480.326	12258.63
480.531	12232.01
480.735	12064.07
480.94	11879.75
481.144	12152.13
481.348	11799.88
481.553	11990.35
481.757	11566.42
481.961	11879.75
482.166	11705.68
482.37	11664.72
482.574	11490.64
482.778	11380.05
482.983	11943.24
483.187	11660.62
483.391	11720.01
483.595	11726.16
483.8	11502.93
484.004	11683.15
484.208	11611.47
484.412	11650.38
484.616	11814.22
484.821	11638.09
485.025	11314.52
485.229	11722.06
485.433	11435.35
485.637	11494.74
485.841	11394.39
486.045	11464.02
486.249	11550.03
486.453	11187.54
486.657	11398.48
486.861	11582.8
487.065	11396.43
487.269	11435.35
487.473	11228.5
487.677	11613.52
487.881	11672.91
488.085	11326.8
488.289	11523.41
488.493	11248.98
488.697	11427.15
488.901	11502.93
489.105	11451.73
489.309	11480.4
489.512	11494.74
489.716	11652.43
489.92	11541.84
490.124	11494.74
490.328	11547.98
490.531	11337.04
490.735	11771.21
490.939	11504.98
491.143	11820.36
491.346	11574.61
491.55	11926.86
491.754	11926.86
491.958	11791.69
492.161	11894.09
492.365	11844.94
492.569	11935.05
492.772	11928.91
492.976	11910.47
493.18	11937.1
493.383	12332.36
493.587	12240.2
493.79	12457.28
493.994	12266.82
494.197	12260.68
494.401	12393.79
494.605	12471.62
494.808	12614.98
495.012	12768.57
495.215	12889.4
495.419	13026.62
495.622	12721.47
495.825	13159.74
496.029	13022.52
496.232	13419.83
496.436	13313.33
496.639	13530.42
496.843	13516.08
497.046	13704.49
497.249	13872.43
497.453	13890.86
497.656	14054.7
497.859	14109.99
498.063	14243.11
498.266	14495.01
498.469	14480.68
498.673	14626.08
498.876	14746.91
499.079	14740.77
499.282	15029.53
499.485	15744.27
499.689	15326.49
499.892	15537.43
500.095	15729.94
500.298	16028.94
500.501	15885.58
500.705	16207.11
500.908	16334.09
501.111	16856.32
501.314	16764.16
501.517	16747.78
501.72	17167.61
501.923	17177.85
502.126	17523.96
502.329	17775.86
502.532	17878.26
502.735	17587.44
502.938	17878.26
503.141	18451.69
503.344	18382.06
503.547	18636
503.75	18699.49
503.953	18935.01
504.156	19231.96
504.359	19287.26
504.562	19528.92
504.765	19930.32
504.968	20178.12
505.17	20249.8
505.373	20315.34
505.576	20925.63
505.779	20882.63
505.982	20937.92
506.185	21388.47
506.387	21419.19
506.59	21525.69
506.793	22017.2
506.996	21849.27
507.198	22484.14
507.401	22469.8
507.604	22457.51
507.807	22992.03
508.009	23184.54
508.212	23377.05
508.415	23424.15
508.617	23442.59
508.82	23811.22
509.022	23684.25
509.225	24353.93
509.428	24702.09
509.63	24679.56
509.833	24851.59
510.035	25484.41
510.238	25222.27
510.44	25545.85
510.643	25926.77
510.845	26254.45
511.048	26150
511.25	26293.36
511.453	26469.48
511.655	27567.2
511.858	27004
512.06	27186.27
512.262	27354.21
512.465	27423.84
512.667	27579.48
512.87	28163.15
513.072	28437.58
513.274	28683.34
513.477	29043.78
513.679	29174.85
513.881	29434.94
514.084	29580.35
514.286	29699.13
514.488	29740.09
514.69	30503.98
514.893	30442.54
515.095	30323.76
515.297	30745.64
515.499	31128.61
515.701	31097.89
515.904	31575.07
516.106	31790.11
516.308	32234.52
516.51	32617.49
516.712	32078.87
516.914	32496.66
517.116	32850.95
517.318	32930.83
517.52	33160.2
517.722	33520.64
517.925	34128.89
518.127	34223.09
518.329	34481.14
518.531	33836.03
518.733	34638.83
518.935	35034.09
519.136	34776.05
519.338	35345.38
519.54	35677.15
519.742	35908.57
519.944	35795.93
520.146	36269.01
520.348	36242.39
520.55	36529.11
520.752	36406.23
520.954	37104.59
521.155	36463.57
521.357	37524.42
521.559	37673.92
521.761	38239.16
521.963	38063.04
522.164	38362.04
522.366	38310.84
522.568	38654.9
522.77	38908.85
522.971	39242.67
523.173	38740.91
523.375	39381.93
523.576	39236.52
523.778	39074.73
523.98	39474.09
524.181	39932.83
524.383	39666.59
524.584	40268.7
524.786	40094.62
524.988	40092.57
525.189	40608.66
525.391	40715.15
525.592	40582.04
525.794	40692.63
525.995	40899.47
526.197	40502.17
526.398	40815.51
526.6	41497.48
526.801	41337.74
527.003	41390.98
527.204	41362.31
527.406	41698.18
527.607	41268.11
527.808	41855.87
528.01	41061.26
528.211	41503.62
528.412	42130.3
528.614	42095.49
528.815	41610.12
529.016	42621.81
529.218	42013.57
529.419	42179.45
529.62	42103.68
529.822	42070.91
530.023	42050.43
530.224	41962.37
530.425	42103.68
530.626	42124.16
530.828	41522.05
531.029	42515.32
531.23	42158.97
531.431	42292.09
531.632	41986.94
531.833	42357.63
532.035	42642.29
532.236	42066.81
532.437	42492.79
532.638	42191.74
532.839	42390.39
533.04	42455.93
533.241	42091.39
533.442	42830.71
533.643	42249.08
533.844	42034.05
534.045	42214.27
534.246	42255.23
534.447	42423.16
534.648	41876.35
534.849	42359.67
535.05	41821.06
535.251	42044.29
535.451	42310.52
535.652	42390.39
535.853	42185.6
536.054	42124.16
536.255	42148.73
536.456	42013.57
536.657	42541.94
536.857	42095.49
537.058	41778.05
537.259	42142.59
537.46	42181.5
537.66	41837.44
537.861	42337.15
538.062	42142.59
538.263	42220.41
538.463	41876.35
538.664	41771.91
538.865	41747.33
539.065	42226.56
539.266	41458.57
539.466	42021.76
539.667	41149.32
539.868	42193.79
540.068	41755.52
540.269	41718.66
540.469	42259.32
540.67	41808.77
540.87	41491.33
541.071	41399.18
541.271	41481.1
541.472	41612.17
541.672	41272.2
541.873	41554.82
542.073	41280.39
542.274	41649.03
542.474	41505.67
542.675	41196.43
542.875	41329.55
543.075	41589.64
543.276	41051.02
543.476	41515.91
543.676	41403.27
543.877	41382.79
544.077	41450.38
544.277	41302.92
544.478	41309.07
544.678	41393.03
544.878	41536.39
545.078	41104.27
545.279	40749.97
545.479	41106.32
545.679	41108.36
545.879	41083.79
546.079	40971.15
546.28	40852.37
546.48	40756.11
546.68	41178
546.88	40713.11
547.08	40965.01
547.28	41247.63
547.48	40680.34
547.68	40977.29
547.88	40749.97
548.081	40838.03
548.281	40942.48
548.481	40854.42
548.681	41403.27
548.881	41005.97
549.081	40895.38
549.28	40825.75
549.48	41212.81
549.68	40766.35
549.88	41020.3
550.08	40620.95
550.28	40477.59
550.48	40254.36
550.68	40981.39
550.88	40369.05
551.08	40502.17
551.279	40930.19
551.479	40416.15
551.679	40500.12
551.879	40215.45
552.079	40709.01
552.278	40049.56
552.478	40588.18
552.678	40229.79
552.878	40682.39
553.077	40637.33
553.277	39887.78
553.477	40657.81
553.676	40258.46
553.876	40145.82
554.076	40237.98
554.275	39990.17
554.475	39742.37
554.674	40199.07
554.874	40082.33
555.074	40158.11
555.273	40311.7
555.473	40297.37
555.672	39977.89
555.872	40065.95
556.071	39961.5
556.271	40590.23
556.47	39584.68
556.67	39611.3
556.869	39875.49
557.068	40008.61
557.268	39236.52
557.467	39934.88
557.667	39488.42
557.866	39957.41
558.065	39715.75
558.265	39707.55
558.464	39416.74
558.663	40137.63
558.863	39564.2
559.062	40070.04
559.261	39289.77
559.461	39556
559.66	39285.67
559.859	39560.1
560.058	39220.14
560.258	39500.71
560.457	39377.83
560.656	39660.45
560.855	39252.91
561.054	39461.8
561.253	39029.68
561.453	39396.26
561.652	39273.38
561.851	39474.09
562.05	39115.69
562.249	38929.33
562.448	39398.31
562.647	39281.58
562.846	39230.38
563.045	39017.39
563.244	38708.15
563.443	39504.81
563.642	38810.54
563.841	38960.05
564.04	38908.85
564.239	39003.05
564.438	38826.93
564.637	39093.16
564.836	38785.97
565.035	38439.86
565.234	38728.63
565.432	38435.77
565.631	38759.34
565.83	38468.53
566.029	38572.98
566.228	38204.35
566.427	38566.84
566.625	38484.92
566.824	38114.23
567.023	38837.17
567.222	37680.07
567.42	38409.14
567.619	38400.95
567.818	38388.66
568.016	38323.13
568.215	38390.71
568.414	38005.69
568.612	38556.6
568.811	38003.64
569.01	38171.58
569.208	37598.15
569.407	38075.32
569.605	37970.88
569.804	38523.83
570.002	37757.89
570.201	37925.82
570.4	37532.61
570.598	37606.34
570.797	37788.61
570.995	38024.12
571.193	37360.58
571.392	38310.84
571.59	37440.45
571.789	37364.68
571.987	37229.51
572.186	37383.11
572.384	37237.7
572.582	37405.64
572.781	37583.81
572.979	36881.36
573.177	37198.79
573.376	37307.33
573.574	36838.35
573.772	37651.39
573.971	36819.92
574.169	37104.59
574.367	36789.2
574.565	37235.66
574.763	37067.72
574.962	36846.54
575.16	36668.37
575.358	36686.8
575.556	36617.17
575.754	37092.3
575.952	36369.37
576.151	36946.89
576.349	36467.67
576.547	36094.94
576.745	36627.41
576.943	36508.63
577.141	36461.52
577.339	36676.56
577.537	36369.37
577.735	36056.03
577.933	36066.27
578.131	36291.54
578.329	35974.11
578.527	35963.87
578.725	35658.72
578.923	35943.39
579.121	35408.87
579.319	35685.34
579.516	36258.77
579.714	36133.85
579.912	35374.05
580.11	35240.93
580.308	35453.92
580.506	35812.32
580.704	35263.46
580.901	35480.55
581.099	35476.45
581.297	35003.37
581.495	35343.33
581.692	35378.15
581.89	35017.71
582.088	35146.73
582.285	34778.09
582.483	35447.78
582.681	35103.72
582.878	34524.15
583.076	34483.19
583.274	35075.05
583.471	34618.35
583.669	34593.78
583.866	34538.48
584.064	34282.48
584.262	34206.71
584.459	34511.86
584.657	34403.32
584.854	34644.98
585.052	33786.88
585.249	33846.27
585.447	34345.97
585.644	34268.15
585.841	34429.94
586.039	34401.27
586.236	33946.62
586.434	33735.68
586.631	33729.53
586.828	33680.38
587.026	33526.78
587.223	33854.46
587.42	33633.28
587.618	33940.47
587.815	33063.94
588.012	33412.1
588.21	33381.38
588.407	33543.17
588.604	33754.11
588.801	33211.4
588.999	33051.66
589.196	33000.46
589.393	33270.79
589.59	32898.06
589.787	32826.38
589.984	32863.24
590.182	32588.81
590.379	33117.19
590.576	32766.99
590.773	32924.68
590.97	32404.5
591.167	32898.06
591.364	32351.25
591.561	32599.05
591.758	32267.28
591.955	32271.38
592.152	32492.56
592.349	32310.29
592.546	32384.02
592.743	32001.05
592.94	32322.58
593.137	32097.3
593.334	32031.77
593.531	31904.79
593.727	32060.44
593.924	32074.77
594.121	31933.46
594.318	31800.35
594.515	31407.14
594.712	32207.89
594.908	31976.47
595.105	32031.77
595.302	31689.76
595.499	31624.22
595.696	31595.55
595.892	31347.75
596.089	32007.19
596.286	31274.02
596.482	31515.68
596.679	31534.11
596.876	31466.53
597.072	31271.97
597.269	31280.16
597.466	31263.78
597.662	31015.97
597.859	31259.68
598.055	31411.23
598.252	31077.41
598.448	31138.85
598.645	30794.79
598.841	30692.4
599.038	30886.95
599.234	30843.95
599.431	30710.83
599.627	30637.1
599.824	30942.25
600.02	30919.72
600.217	30954.54
600.413	30899.24
600.609	30635.05
600.806	30813.23
601.002	30639.15
601.198	30616.62
601.395	30463.02
601.591	30196.79
601.787	30686.25
601.984	30323.76
602.18	30598.19
602.376	30485.55
602.572	30516.27
602.769	30336.05
602.965	30168.12
603.161	30481.45
603.357	30383.15
603.553	30065.72
603.75	30364.72
603.946	30078.01
604.142	30403.63
604.338	30069.81
604.534	30155.83
604.73	30153.78
604.926	30067.77
605.122	29996.09
605.318	30135.35
605.514	30174.26
605.71	29789.24
605.906	30186.55
606.102	30157.88
606.298	30032.95
606.494	30454.83
606.69	29828.15
606.886	30014.52
607.082	30063.67
607.278	30086.2
607.474	30227.51
607.67	30155.83
607.866	29758.52
608.062	30284.85
608.257	29946.94
608.453	29910.07
608.649	30512.17
608.845	29895.74
609.041	30118.96
609.236	30510.13
609.432	29930.55
609.628	30575.66
609.824	29955.13
610.019	29805.63
610.215	30653.48
610.411	30180.4
610.606	30258.23
610.802	30381.1
610.998	30536.75
611.193	30413.87
611.389	30456.88
611.584	30028.85
611.78	30354.48
611.976	30534.7
612.171	30403.63
612.367	30397.49
612.562	30422.06
612.758	30358.58
612.953	30213.17
613.149	30524.46
613.344	30145.59
613.539	30673.96
613.735	30602.29
613.93	30475.31
614.126	30635.05
614.321	30919.72
614.517	30446.64
614.712	30792.75
614.907	30192.69
615.103	30817.32
615.298	30534.7
615.493	30929.96
615.688	30460.98
615.884	30907.43
616.079	30604.33
616.274	30995.5
616.47	30762.03
616.665	30737.45
616.86	30659.63
617.055	30872.62
617.25	30905.38
617.445	31435.81
617.641	30426.16
617.836	31233.06
618.031	30929.96
618.226	31089.7
618.421	30686.25
618.616	31226.92
618.811	30581.81
619.006	31116.33
619.201	30565.42
619.396	30780.46
619.591	30303.28
619.786	31003.69
619.981	30579.76
620.176	30880.81
620.371	30499.89
620.566	30530.61
620.761	30307.38
620.956	30790.7
621.151	30309.43
621.346	30270.51
621.541	30434.35
621.735	30415.92
621.93	29633.6
622.125	30125.11
622.32	29844.54
622.515	29940.79
622.709	29846.58
622.904	29498.43
623.099	29617.21
623.294	29826.1
623.488	29750.33
623.683	29512.77
623.878	29129.8
624.072	29172.8
624.267	29367.36
624.462	29058.12
624.656	29099.08
624.851	28879.94
625.046	28826.7
625.24	29054.02
625.435	28591.18
625.629	28912.71
625.824	28709.96
626.018	28599.37
626.213	28025.94
626.407	28167.25
626.602	28234.83
626.796	28183.63
626.991	28312.66
627.185	27817.05
627.38	27548.76
627.574	27823.19
627.768	27595.87
627.963	27800.66
628.157	27575.39
628.352	27606.11
628.546	27063.4
628.74	27571.29
628.935	27055.2
629.129	27327.58
629.323	26860.65
629.517	27024.48
629.712	26936.42
629.906	26741.86
630.1	26422.38
630.294	26909.8
630.489	26426.48
630.683	26596.46
630.877	26174.58
631.071	25959.54
631.265	26285.17
631.459	25834.61
631.653	25869.43
631.848	26047.6
632.042	25705.59
632.236	25959.54
632.43	25506.94
632.624	25574.52
632.818	25375.87
633.012	25109.63
633.206	25371.77
633.4	25160.83
633.594	24939.65
633.788	24974.47
633.982	24937.6
634.176	24890.5
634.369	24743.05
634.563	24810.63
634.757	24872.07
634.951	24417.42
635.145	24347.79
635.339	24607.88
635.533	24132.75
635.726	24231.05
635.92	23897.24
636.114	23950.48
636.308	23927.95
636.501	23932.05
636.695	23671.96
636.889	23540.89
637.083	23282.84
637.276	23696.53
637.47	23209.12
637.664	23301.28
637.857	23164.06
638.051	23315.61
638.244	23043.23
638.438	22934.69
638.632	22715.56
638.825	22682.79
639.019	22527.14
639.212	22477.99
639.406	22404.27
639.599	22367.4
639.793	22322.35
639.986	21843.12
640.18	22129.84
640.373	21908.66
640.567	21490.87
640.76	21697.72
640.954	21664.95
641.147	21640.37
641.34	21468.34
641.534	21503.16
641.727	21511.35
641.92	21513.4
642.114	21073.09
642.307	21025.98
642.5	20671.68
642.694	20536.52
642.887	20899.01
643.08	20602.05
643.273	20649.16
643.467	20319.43
643.66	19715.28
643.853	20470.98
644.046	20264.14
644.239	20409.54
644.432	19879.12
644.626	19602.64
644.819	19635.41
645.012	19655.89
645.205	19340.5
645.398	19483.86
645.591	19322.07
645.784	19393.75
645.977	18828.51
646.17	19064.03
646.363	18595.04
646.556	18574.56
646.749	18654.44
646.942	18707.68
647.135	18402.54
647.328	18537.7
647.521	18537.7
647.714	18210.03
647.907	18302.18
648.099	17945.84
648.292	18257.13
648.485	17915.12
648.678	17675.51
648.871	17618.16
649.064	17425.65
649.256	17550.58
649.449	17091.84
649.642	17237.24
649.835	17206.52
650.027	17175.8
650.22	17130.75
650.413	16866.56
650.605	16825.6
650.798	16643.33
650.991	16606.47
651.183	16649.47
651.376	16174.35
651.568	16430.34
651.761	16303.37
651.954	16057.61
652.146	16080.14
652.339	16121.1
652.531	15744.27
652.724	15774.99
652.916	15342.87
653.109	15537.43
653.301	15754.51
653.494	15781.14
653.686	15156.5
653.879	15400.21
654.071	15232.28
654.263	15072.54
654.456	15211.8
654.648	14951.71
654.84	14771.49
655.033	14769.44
655.225	14677.28
655.417	14406.95
655.61	14503.2
655.802	14300.45
655.994	13968.68
656.186	14169.38
656.379	13800.75
656.571	14052.65
656.763	13849.9
656.955	14046.51
657.148	13845.8
657.34	13569.33
657.532	13641.01
657.724	13393.2
657.916	13460.79
658.108	13393.2
658.3	13255.99
658.492	13192.5
658.684	12766.53
658.876	12948.79
659.068	12770.62
659.26	12633.41
659.452	12426.56
659.644	12653.89
659.836	12508.48
660.028	12318.02
660.22	12268.87
660.412	12416.32
660.604	12313.92
660.796	12252.49
660.988	12111.18
661.18	11806.03
661.372	11466.07
661.563	11726.16
661.755	11365.71
661.947	11660.62
662.139	11629.9
662.331	11423.06
662.522	11259.22
662.714	11304.28
662.906	11138.39
663.097	11306.32
663.289	10978.65
663.481	10843.48
663.673	10911.07
663.864	10726.75
664.056	10669.41
664.247	10653.02
664.439	10544.48
664.631	10401.12
664.822	10540.38
665.014	10282.34
665.205	10220.9
665.397	10300.77
665.588	10253.67
665.78	10079.59
665.971	10055.01
666.163	10161.51
666.354	9868.65
666.546	9766.25
666.737	9698.67
666.929	9581.93
667.12	9719.15
667.311	9534.83
667.503	9545.07
667.694	9534.83
667.885	9368.95
668.077	9590.13
668.268	9495.92
668.459	9401.71
668.651	9350.51
668.842	9182.58
669.033	8967.54
669.224	8918.39
669.416	9356.66
669.607	9127.28
669.798	8908.15
669.989	9000.31
670.18	8861.05
670.371	8539.52
670.563	8578.43
670.754	8576.38
670.945	8588.67
671.136	8533.37
671.327	8650.11
671.518	8533.37
671.709	8430.98
671.9	8410.5
672.091	8195.46
672.282	8349.06
672.473	8127.88
672.664	8103.3
672.855	7902.6
673.046	8058.25
673.237	8240.51
673.428	8066.44
673.619	8099.2
673.809	7906.7
674	7779.72
674.191	7796.11
674.382	7904.65
674.573	7849.35
674.764	7849.35
674.954	7789.96
675.145	7593.36
675.336	7617.93
675.527	7687.56
675.717	7550.35
675.908	7542.16
676.099	7404.94
676.289	7495.05
676.48	7574.92
676.671	7472.53
676.861	7529.87
677.052	7435.66
677.243	7245.2
677.433	7200.15
677.624	7411.09
677.814	7185.81
678.005	7329.17
678.195	7308.69
678.386	7232.91
678.576	7058.84
678.767	7134.61
678.957	7067.03
679.148	7257.49
679.338	7140.76
679.529	7036.31
679.719	6950.29
679.909	6997.4
680.1	7136.66
680.29	6989.21
680.481	6845.85
680.671	7034.26
680.861	6864.28
681.052	6880.66
681.242	6739.35
681.432	6804.89
681.622	6673.82
681.813	6720.92
682.003	6821.27
682.193	6749.59
682.383	6817.18
682.573	6831.51
682.764	6493.6
682.954	6776.22
683.144	6774.17
683.334	6661.53
683.524	6608.28
683.714	6722.97
683.904	6606.24
684.094	6544.8
684.284	6448.54
684.474	6741.4
684.664	6546.84
684.854	6647.19
685.044	6354.34
685.234	6563.23
685.424	6495.64
685.614	6428.06
685.804	6403.49
685.994	6485.41
686.184	6493.6
686.374	6436.25
686.564	6677.91
686.753	6499.74
686.943	6452.64
687.133	6413.73
687.323	6348.19
687.513	6448.54
687.702	6448.54
687.892	6378.91
688.082	6331.81
688.272	6409.63
688.461	6383.01
688.651	6397.34
688.841	6172.07
689.03	6356.38
689.22	6245.79
689.41	6235.55
689.599	6178.21
689.789	6141.35
689.979	6182.31
690.168	6278.56
690.358	6108.58
690.547	6096.29
690.737	6221.22
690.926	6229.41
691.116	6084
691.305	6321.57
691.495	6176.16
691.684	5840.29
691.874	6237.6
692.063	6124.96
692.252	6321.57
692.442	6053.28
692.631	6051.24
692.82	6118.82
693.01	5905.83
693.199	5916.07
693.388	5969.32
693.578	5989.8
693.767	6055.33
693.956	6010.28
694.146	5989.8
694.335	6182.31
694.524	5985.7
694.713	5983.65
694.902	5893.54
695.092	5983.65
695.281	5932.45
695.47	6000.04
695.659	5932.45
695.848	5887.4
696.037	5791.14
696.226	5946.79
696.415	5871.01
696.604	6092.2
696.793	5834.15
696.982	5739.94
697.171	5862.82
697.36	5862.82
697.549	5696.94
697.738	5762.47
697.927	5803.43
698.116	5852.58
698.305	5844.39
698.494	5813.67
698.683	5848.49
698.872	5817.77
699.061	5737.9
699.25	5744.04
699.438	5834.15
699.627	5813.67
699.816	5791.14
700.005	5750.18
700.193	5731.75
700.382	5813.67
700.571	5621.16
700.76	5698.99
700.948	5803.43
701.137	5739.94
701.326	5621.16
701.514	5637.55
701.703	5733.8
701.892	5526.96
702.08	5725.61
702.269	5772.71
702.457	5518.76
702.646	5492.14
702.834	5512.62
703.023	5481.9
703.212	5682.6
703.4	5664.17
703.589	5496.24
703.777	5590.44
703.965	5492.14
704.154	5655.98
704.342	5500.33
704.531	5559.72
704.719	5498.28
704.907	5508.52
705.096	5455.28
705.284	5238.19
705.472	5502.38
705.661	5535.15
705.849	5668.27
706.037	5420.46
706.226	5418.41
706.414	5586.35
706.602	5399.98
706.79	5346.73
706.979	5344.69
707.167	5410.22
707.355	5248.43
707.543	5381.55
707.731	5363.12
707.919	5168.56
708.107	5256.62
708.296	5236.14
708.484	5256.62
708.672	5348.78
708.86	5150.13
709.048	5238.19
709.236	5031.35
709.424	5240.24
709.612	5166.51
709.8	5113.27
709.988	5078.45
710.176	5182.9
710.364	5139.89
710.551	4998.58
710.739	5051.83
710.927	4963.76
711.115	5178.8
711.303	5074.35
711.491	5236.14
711.679	5000.63
711.866	4971.96
712.054	5000.63
712.242	4984.24
712.43	4978.1
712.617	4912.57
712.805	5010.87
712.993	5135.79
713.181	4783.54
713.368	4906.42
713.556	4756.92
713.744	4885.94
713.931	5031.35
714.119	4976.05
714.306	5002.68
714.494	4976.05
714.682	4980.15
714.869	4865.46
715.057	4779.45
715.244	4795.83
715.432	4824.5
715.619	4709.82
715.807	4662.71
715.994	4738.49
716.182	4804.02
716.369	4869.56
716.556	4853.17
716.744	4627.9
716.931	4658.62
717.119	4734.39
717.306	4677.05
717.493	4570.55
717.681	4605.37
717.868	4513.21
718.055	4654.52
718.242	4636.09
718.43	4660.66
718.617	4513.21
718.804	4488.64
718.991	4527.55
719.179	4373.95
719.366	4382.14
719.553	4533.69
719.74	4380.09
719.927	4394.43
720.114	4378.05
720.301	4378.05
720.488	4253.12
720.676	4361.66
720.863	4476.35
721.05	4294.08
721.237	4394.43
721.424	4308.41
721.611	4341.18
721.798	4277.69
721.985	4283.84
722.172	4242.88
722.358	4410.81
722.545	4257.22
722.732	4267.45
722.919	4249.02
723.106	4138.43
723.293	4222.4
723.48	4083.14
723.667	4068.8
723.853	4189.63
724.04	4158.91
724.227	4275.65
724.414	4066.75
724.6	4048.32
724.787	4148.67
724.974	4087.23
725.161	4124.1
725.347	4038.08
725.534	4089.28
725.72	4058.56
725.907	3911.11
726.094	4040.13
726.28	3952.07
726.467	3880.39
726.653	3931.59
726.84	4021.7
727.027	4074.95
727.213	3872.2
727.4	3935.68
727.586	3976.64
727.773	3892.68
727.959	3831.24
728.145	3970.5
728.332	3888.58
728.518	3882.44
728.705	3808.71
728.891	3829.19
729.077	3872.2
729.264	3773.89
729.45	3784.13
729.636	3866.05
729.823	3743.17
730.009	3864.01
730.195	3675.59
730.382	3806.66
730.568	3720.65
730.754	3589.58
730.94	3671.5
731.126	3646.92
731.313	3765.7
731.499	3624.39
731.685	3763.65
731.871	3691.98
732.057	3603.91
732.243	3569.1
732.429	3603.91
732.615	3767.75
732.801	3513.8
732.987	3628.49
733.173	3540.43
733.359	3560.91
733.545	3513.8
733.731	3476.94
733.917	3646.92
734.103	3528.14
734.289	3464.65
734.475	3474.89
734.661	3452.36
734.847	3390.92
735.033	3610.06
735.219	3431.88
735.404	3300.81
735.59	3345.87
735.776	3323.34
735.962	3382.73
736.148	3341.77
736.333	3360.2
736.519	3323.34
736.705	3280.33
736.89	3323.34
737.076	3278.29
737.262	3253.71
737.447	3200.46
737.633	3139.02
737.819	3200.46
738.004	3134.93
738.19	3186.13
738.375	3227.09
738.561	3296.72
738.747	3167.7
738.932	3177.94
739.118	3251.66
739.303	3235.28
739.489	3081.68
739.674	2995.67
739.859	3126.74
740.045	3112.4
740.23	2991.57
740.416	3065.3
740.601	3112.4
740.786	3081.68
740.972	2940.37
741.157	2923.99
741.342	2956.75
741.528	3005.91
741.713	3032.53
741.898	2885.08
742.084	2788.82
742.269	3046.87
742.454	2950.61
742.639	3128.78
742.824	2880.98
743.01	2944.47
743.195	2940.37
743.38	2856.4
743.565	2809.3
743.75	2731.48
743.935	2665.94
744.12	2831.83
744.305	2645.46
744.49	2754.01
744.675	2725.33
744.86	2690.52
745.045	2704.85
745.23	2624.98
745.415	2784.73
745.6	2751.96
745.785	2641.37
745.97	2588.12
746.155	2635.22
746.34	2581.98
746.525	2444.76
746.71	2708.95
746.895	2557.4
747.079	2450.91
747.264	2518.49
747.449	2614.74
747.634	2471.39
747.819	2489.82
748.003	2319.84
748.188	2332.12
748.373	2371.04
748.557	2405.85
748.742	2444.76
748.927	2334.17
749.111	2237.92
749.296	2420.19
749.481	2303.45
749.665	2467.29
749.85	2201.05
750.034	2418.14
750.219	2315.74
750.404	2227.68
750.588	2330.08
750.773	2242.01
750.957	2162.14
751.141	2176.48
751.326	2315.74
751.51	2145.76
751.695	2211.29
751.879	2233.82
752.064	2145.76
752.248	2022.88
752.432	2170.33
752.617	2049.5
752.801	2115.04
752.985	1945.06
753.17	1990.11
753.354	2067.94
753.538	1998.31
753.722	2053.6
753.907	1992.16
754.091	1949.15
754.275	1930.72
754.459	1906.15
754.643	1871.33
754.828	1988.07
755.012	1910.24
755.196	1818.08
755.38	1883.62
755.564	1893.86
755.748	1848.8
755.932	1891.81
756.116	1900
756.3	1803.75
756.484	1762.79
756.668	1850.85
756.852	1730.02
757.036	1826.28
757.22	1678.82
757.404	1773.03
757.588	1623.53
757.772	1693.16
757.956	1699.3
758.14	1758.69
758.323	1601
758.507	1727.97
758.691	1689.06
758.875	1672.68
759.059	1641.96
759.242	1625.58
759.426	1623.53
759.61	1611.24
759.794	1633.77
759.977	1687.01
760.161	1764.84
760.345	1621.48
760.528	1639.91
760.712	1533.42
760.895	1484.27
761.079	1510.89
761.263	1433.07
761.446	1453.55
761.63	1504.75
761.813	1498.6
761.997	1359.34
762.18	1465.83
762.364	1613.29
762.547	1420.78
762.731	1517.03
762.914	1453.55
763.098	1441.26
763.281	1441.26
763.464	1447.4
763.648	1426.92
763.831	1523.18
764.015	1467.88
764.198	1379.82
764.381	1406.44
764.564	1478.12
764.748	1420.78
764.931	1371.63
765.114	1414.63
765.297	1398.25
765.481	1416.68
765.664	1338.86
765.847	1406.44
766.03	1355.24
766.213	1375.72
766.397	1359.34
766.58	1281.52
766.763	1461.74
766.946	1416.68
767.129	1375.72
767.312	1355.24
767.495	1308.14
767.678	1355.24
767.861	1261.04
768.044	1365.48
768.227	1392.11
768.41	1369.58
768.593	1455.59
768.776	1293.8
768.959	1318.38
769.142	1367.53
769.324	1410.54
769.507	1289.71
769.69	1250.8
769.873	1275.37
770.056	1269.23
770.239	1269.23
770.421	1248.75
770.604	1236.46
770.787	1246.7
770.97	1345
771.152	1207.79
771.335	1197.55
771.518	1203.69
771.7	1293.8
771.883	1293.8
772.066	1172.97
772.248	1177.07
772.431	1220.08
772.613	1226.22
772.796	1170.93
772.978	1209.84
773.161	1222.13
773.343	1205.74
773.526	1215.98
773.708	1052.14
773.891	1027.57
774.073	1166.83
774.256	1146.35
774.438	1197.55
774.621	1064.43
774.803	1175.02
774.985	1035.76
775.168	1080.82
775.35	1074.67
775.532	1234.41
775.715	1082.86
775.897	1099.25
776.079	1127.92
776.261	1101.3
776.444	1150.45
776.626	1039.86
776.808	1027.57
776.99	1029.62
777.173	1054.19
777.355	1043.95
777.537	943.6
777.719	1064.43
777.901	1005.04
778.083	910.83
778.265	992.75
778.447	988.66
778.629	931.31
778.811	925.17
778.993	962.03
779.175	966.13
779.357	996.85
779.539	869.87
779.721	900.59
779.903	1037.81
780.085	935.41
780.267	945.65
780.449	937.46
780.631	1009.14
780.812	904.69
780.994	800.24
781.176	843.25
781.358	955.89
781.54	804.34
781.721	810.48
781.903	894.45
782.085	771.57
782.267	808.44
782.448	833.01
782.63	857.59
782.812	751.09
782.993	843.25
783.175	843.25
783.357	761.33
783.538	822.77
783.72	683.51
783.901	755.19
784.083	751.09
784.264	712.18
784.446	785.91
784.627	726.52
784.809	886.26
784.99	759.28
785.172	736.76
785.353	722.42
785.535	732.66
785.716	716.28
785.897	630.26
786.079	726.52
786.26	679.41
786.441	663.03
786.623	622.07
786.804	585.21
786.985	652.79
787.167	683.51
787.348	712.18
787.529	654.84
787.71	699.89
787.891	658.93
788.073	632.31
788.254	568.82
788.435	749.04
788.616	654.84
788.797	507.38
788.978	527.86
789.159	703.99
789.34	675.32
789.522	605.69
789.703	548.34
789.884	568.82
790.065	599.54
790.246	660.98
790.427	531.96
790.607	566.78
790.788	599.54
790.969	511.48
791.15	542.2
791.331	554.49
791.512	558.58
791.693	499.19
791.874	497.14
792.054	591.35
792.235	538.1
792.416	591.35
792.597	480.76
792.778	544.25
792.958	523.77
793.139	568.82
793.32	505.34
793.5	464.38
793.681	577.02
793.862	437.75
794.042	542.2
794.223	468.47
794.404	411.13
794.584	450.04
794.765	450.04
794.945	488.95
795.126	523.77
795.306	462.33
795.487	452.09
795.667	417.27
795.848	478.71
796.028	521.72
796.209	493.05
796.389	407.03
796.57	456.19
796.75	441.85
796.93	400.89
797.111	441.85
797.291	443.9
797.471	421.37
797.652	474.62
797.832	302.59
798.012	400.89
798.192	370.17
798.373	329.21
798.553	421.37
798.733	425.47
798.913	302.59
799.093	366.07
799.274	413.18
799.454	409.08
799.634	402.94
799.814	425.47
799.994	376.31
800.174	402.94
800.354	380.41
800.534	380.41
800.714	409.08
800.894	239.1
801.074	316.92
801.254	284.16
801.434	417.27
801.614	347.64
801.794	314.88
801.974	1222.13
802.154	384.51
802.334	380.41
802.514	335.35
802.693	349.69
802.873	339.45
803.053	339.45
803.233	407.03
803.413	341.5
803.592	353.79
803.772	263.68
803.952	331.26
804.131	294.4
804.311	398.84
804.491	349.69
804.67	316.92
804.85	275.96
805.03	271.87
805.209	347.64
805.389	329.21
805.568	364.03
805.748	239.1
805.928	271.87
806.107	243.2
806.287	333.31
806.466	280.06
806.646	259.58
806.825	298.49
807.004	167.42
807.184	278.01
807.363	329.21
807.543	300.54
807.722	259.58
807.901	343.55
808.081	306.68
808.26	251.39
808.439	216.57
808.619	339.45
808.798	189.95
808.977	253.44
809.156	316.92
809.336	294.4
809.515	413.18
809.694	288.25
809.873	187.9
810.052	247.29
810.231	366.07
810.411	321.02
810.59	349.69
810.769	222.72
810.948	341.5
811.127	142.85
811.306	269.82
811.485	200.19
811.664	278.01
811.843	249.34
812.022	245.24
812.201	259.58
812.38	243.2
812.559	132.61
812.737	349.69
812.916	194.05
813.095	171.52
813.274	284.16
813.453	273.92
813.632	232.96
813.811	294.4
813.989	153.09
814.168	300.54
814.347	136.7
814.526	220.67
814.704	323.07
814.883	241.15
815.062	204.28
815.24	185.85
815.419	177.66
815.598	220.67
815.776	136.7
815.955	232.96
816.133	81.41
816.312	138.75
816.49	212.48
816.669	237.05
816.847	228.86
817.026	226.81
817.204	185.85
817.383	144.89
817.561	194.05
817.74	204.28
817.918	249.34
818.097	179.71
818.275	157.18
818.453	153.09
818.632	194.05
818.81	132.61
818.988	181.76
819.167	198.14
819.345	200.19
819.523	192
819.701	196.09
819.879	198.14
820.058	181.76
820.236	202.24
820.414	194.05
820.592	202.24
820.77	151.04
820.948	81.41
821.127	132.61
821.305	194.05
821.483	175.61
821.661	187.9
821.839	153.09
822.017	56.83
822.195	275.96
822.373	235
822.551	179.71
822.729	202.24
822.907	134.65
823.085	185.85
823.262	42.5
823.44	169.47
823.618	136.7
823.796	226.81
823.974	126.46
824.152	110.08
824.329	116.22
824.507	128.51
824.685	200.19
824.863	138.75
825.04	77.31
825.218	91.65
825.396	183.81
825.574	206.33
825.751	99.84
825.929	185.85
826.107	132.61
826.284	138.75
826.462	189.95
826.639	93.69
826.817	91.65
826.994	108.03
827.172	89.6
827.349	280.06
827.527	83.45
827.704	130.56
827.882	183.81
828.059	101.89
828.237	95.74
828.414	169.47
828.591	44.54
828.769	77.31
828.946	99.84
829.124	122.37
829.301	114.17
829.478	136.7
829.655	181.76
829.833	60.93
830.01	54.78
830.187	214.52
830.364	161.28
830.542	165.37
830.719	218.62
830.896	189.95
831.073	65.02
831.25	155.13
831.427	263.68
831.604	85.5
831.782	110.08
831.959	124.41
832.136	83.45
832.313	114.17
832.49	58.88
832.667	140.8
832.844	52.74
833.021	138.75
833.198	157.18
833.374	71.17
833.551	153.09
833.728	79.36
833.905	206.33
834.082	15.87
834.259	165.37
834.436	93.69
834.612	32.26
834.789	110.08
834.966	99.84
835.143	157.18
835.319	108.03
835.496	120.32
835.673	144.89
835.85	120.32
836.026	148.99
836.203	89.6
836.38	75.26
836.556	130.56
836.733	40.45
836.909	161.28
837.086	75.26
837.262	75.26
837.439	122.37
837.616	77.31
837.792	62.98
837.968	153.09
838.145	91.65
838.321	89.6
838.498	161.28
838.674	151.04
838.851	118.27
839.027	91.65
839.203	50.69
839.38	103.93
839.556	85.5
839.732	130.56
839.909	32.26
840.085	87.55
840.261	48.64
840.437	7.68
840.614	28.16
840.79	75.26
840.966	177.66
841.142	110.08
841.318	67.07
841.494	81.41
841.671	130.56
841.847	34.3
842.023	11.78
842.199	130.56
842.375	122.37
842.551	60.93
842.727	28.16
842.903	126.46
843.079	46.59
843.255	101.89
843.431	91.65
843.607	13.82
843.783	-49.66
843.959	81.41
844.134	-20.99
844.31	130.56
844.486	-2.56
844.662	22.02
844.838	46.59
845.013	26.11
845.189	99.84
845.365	132.61
845.541	87.55
845.716	118.27
845.892	65.02
846.068	69.12
846.244	44.54
846.419	42.5
846.595	-14.85
846.77	-8.7
846.946	67.07
847.122	24.06
847.297	95.74
847.473	112.13
847.648	-76.29
847.824	75.26
847.999	-31.23
848.175	38.4
848.35	62.98
848.526	103.93
848.701	79.36
848.876	73.21
849.052	44.54
849.227	69.12
849.403	22.02
849.578	24.06
849.753	97.79
849.929	65.02
850.104	-31.23
850.279	71.17
850.454	73.21
850.63	73.21
850.805	46.59
850.98	38.4
851.155	95.74
851.33	7.68
851.505	-8.7
851.681	144.89
851.856	3.58
852.031	22.02
852.206	95.74
852.381	48.64
852.556	110.08
852.731	120.32
852.906	24.06
853.081	28.16
853.256	136.7
853.431	38.4
853.606	-23.04
853.781	5.63
853.956	-53.76
854.131	56.83
854.305	-20.99
854.48	103.93
854.655	32.26
854.83	89.6
855.005	7.68
855.18	93.69
855.354	19.97
855.529	56.83
855.704	30.21
855.879	105.98
856.053	7.68
856.228	19.97
856.403	15.87
856.577	108.03
856.752	-82.43
856.926	-23.04
857.101	36.35
857.276	24.06
857.45	50.69
857.625	99.84
857.799	103.93
857.974	58.88
858.148	3.58
858.323	85.5
858.497	13.82
858.672	58.88
858.846	-12.8
859.02	62.98
859.195	30.21
859.369	95.74
859.543	83.45
859.718	48.64
859.892	48.64
860.066	5.63
860.241	48.64
860.415	56.83
860.589	-12.8
860.763	114.17
860.938	73.21
861.112	44.54
861.286	-25.09
861.46	52.74
861.634	89.6
861.808	95.74
861.982	-84.48
862.157	7.68
862.331	40.45
862.505	-33.28
862.679	-59.9
862.853	17.92
863.027	62.98
863.201	161.28
863.375	79.36
863.549	34.3
863.722	52.74
863.896	120.32
864.07	50.69
864.244	65.02
864.418	-12.8
864.592	5.63
864.766	-25.09
864.939	62.98
865.113	5.63
865.287	83.45
865.461	-84.48
865.634	42.5
865.808	-0.51
865.982	17.92
866.156	62.98
866.329	-2.56
866.503	124.41
866.676	118.27
866.85	67.07
867.024	130.56
867.197	-0.51
867.371	32.26
867.544	34.3
867.718	28.16
867.891	60.93
868.065	-23.04
868.238	54.78
868.412	144.89
868.585	28.16
868.759	34.3
868.932	-2.56
869.105	1.54
869.279	7.68
869.452	7.68
869.625	-84.48
869.799	71.17
869.972	-41.47
870.145	28.16
870.319	48.64
870.492	7.68
870.665	77.31
870.838	-55.81
871.011	-47.62
871.185	17.92
871.358	30.21
871.531	42.5
871.704	-37.38
871.877	56.83
872.05	-31.23
872.223	-4.61
872.396	46.59
872.569	83.45
872.742	-4.61
872.915	17.92
873.088	36.35
873.261	-6.66
873.434	40.45
873.607	24.06
873.78	103.93
873.953	-51.71
874.126	17.92
874.299	30.21
874.471	-12.8
874.644	-6.66
874.817	71.17
874.99	89.6
875.163	26.11
875.335	3.58
875.508	-43.52
875.681	-6.66
875.853	-45.57
876.026	42.5
876.199	-2.56
876.371	-35.33
876.544	60.93
876.717	44.54
876.889	-47.62
877.062	30.21
877.234	-39.42
877.407	-45.57
877.579	-4.61
877.752	34.3
877.924	15.87
878.097	40.45
878.269	69.12
878.442	-16.9
878.614	87.55
878.786	24.06
878.959	73.21
879.131	-41.47
879.303	-35.33
879.476	50.69
879.648	101.89
879.82	-35.33
879.993	15.87
880.165	38.4
880.337	-88.57
880.509	7.68
880.681	-39.42
880.854	-90.62
881.026	42.5
881.198	140.8
881.37	-6.66
881.542	-8.7
881.714	-37.38
881.886	-16.9
882.058	-31.23
882.23	-18.94
882.402	28.16
882.574	99.84
882.746	52.74
882.918	99.84
883.09	-20.99
883.262	-0.51
883.434	17.92
883.606	-59.9
883.778	-14.85
883.95	97.79
884.122	13.82
884.293	69.12
884.465	73.21
884.637	7.68
884.809	-47.62
884.98	22.02
885.152	-82.43
885.324	130.56
885.496	-25.09
885.667	87.55
885.839	52.74
886.011	56.83
886.182	44.54
886.354	65.02
886.525	17.92
886.697	36.35
886.869	-2.56
887.04	15.87
887.212	67.07
887.383	71.17
887.555	42.5
887.726	-31.23
887.897	-31.23
888.069	17.92
888.24	116.22
888.412	75.26
888.583	13.82
888.754	3.58
888.926	-14.85
889.097	13.82
889.268	32.26
889.44	114.17
889.611	-74.24
889.782	-74.24
889.953	-72.19
890.125	71.17
890.296	-78.33
890.467	-41.47
890.638	1.54
890.809	42.5
890.98	34.3
891.151	24.06
891.323	34.3
891.494	24.06
891.665	-10.75
891.836	-14.85
892.007	69.12
892.178	62.98
892.349	34.3
892.52	-14.85
892.691	-20.99
892.862	-68.09
893.032	-45.57
893.203	67.07
893.374	-18.94
893.545	28.16
893.716	-35.33
893.887	17.92
894.057	36.35
894.228	-16.9
894.399	-84.48
894.57	40.45
894.74	44.54
894.911	42.5
895.082	-43.52
895.253	-8.7
895.423	26.11
895.594	13.82
895.764	50.69
895.935	-84.48
896.106	65.02
896.276	26.11
896.447	-47.62
896.617	-35.33
896.788	-0.51
896.958	-33.28
897.129	48.64
897.299	-25.09
897.47	128.51
897.64	32.26
897.81	11.78
897.981	40.45
898.151	-51.71
898.322	46.59
898.492	-8.7
898.662	-59.9
898.832	-29.18
899.003	-16.9
899.173	34.3
899.343	-29.18
899.513	-64
