Data from USB4F104151__3__12-11-10-913.txt Node

Date: Fri Mar 14 12:11:10 EDT 2025
User: louis
Spectrometer: USB4F10415
Trigger mode: 4
Integration Time (sec): 5.000000E-2
Scans to average: 1
Electric dark correction enabled: true
Nonlinearity correction enabled: false
Boxcar width: 0
XAxis mode: Wavelengths
Number of Pixels in Spectrum: 3648
>>>>>Begin Spectral Data<<<<<
178.204	-204.28
178.424	-204.28
178.644	-204.28
178.864	-226.81
179.084	-196.09
179.304	10.75
179.524	-11.78
179.744	-9.73
179.964	33.28
180.184	6.66
180.404	-15.87
180.624	39.42
180.844	-15.87
181.064	-89.6
181.283	23.04
181.503	27.14
181.723	2.56
181.943	-7.68
182.163	143.87
182.383	-15.87
182.602	57.86
182.822	90.62
183.042	84.48
183.262	-5.63
183.482	41.47
183.701	16.9
183.921	-42.5
184.141	-22.02
184.361	-1.54
184.58	94.72
184.8	-5.63
185.02	2.56
185.239	115.2
185.459	41.47
185.679	45.57
185.898	-32.26
186.118	51.71
186.338	18.94
186.557	-7.68
186.777	-54.78
186.997	27.14
187.216	100.86
187.436	70.14
187.655	107.01
187.875	100.86
188.095	23.04
188.314	100.86
188.534	41.47
188.753	33.28
188.973	88.57
189.192	27.14
189.412	66.05
189.631	92.67
189.851	82.43
190.07	92.67
190.29	-46.59
190.509	-11.78
190.729	41.47
190.948	78.33
191.168	215.55
191.387	127.49
191.607	25.09
191.826	6.66
192.045	53.76
192.265	-62.98
192.484	51.71
192.704	14.85
192.923	-3.58
193.142	184.83
193.362	31.23
193.581	137.73
193.8	53.76
194.02	96.77
194.239	92.67
194.458	51.71
194.678	53.76
194.897	35.33
195.116	100.86
195.335	59.9
195.555	53.76
195.774	43.52
195.993	68.09
196.212	80.38
196.432	-24.06
196.651	-5.63
196.87	25.09
197.089	137.73
197.308	41.47
197.528	45.57
197.747	-24.06
197.966	74.24
198.185	115.2
198.404	20.99
198.623	117.25
198.842	92.67
199.062	100.86
199.281	80.38
199.5	68.09
199.719	111.1
199.938	88.57
200.157	68.09
200.376	27.14
200.595	70.14
200.814	25.09
201.033	31.23
201.252	135.68
201.471	0.51
201.69	76.29
201.909	53.76
202.128	66.05
202.347	109.05
202.566	-24.06
202.785	-46.59
203.004	16.9
203.223	82.43
203.442	55.81
203.661	23.04
203.879	51.71
204.098	104.96
204.317	-17.92
204.536	90.62
204.755	88.57
204.974	113.15
205.193	-9.73
205.411	143.87
205.63	33.28
205.849	98.81
206.068	92.67
206.287	2.56
206.505	90.62
206.724	33.28
206.943	72.19
207.162	0.51
207.381	51.71
207.599	8.7
207.818	74.24
208.037	-19.97
208.255	107.01
208.474	35.33
208.693	25.09
208.911	51.71
209.13	41.47
209.349	45.57
209.567	121.34
209.786	82.43
210.005	23.04
210.223	16.9
210.442	37.38
210.661	66.05
210.879	78.33
211.098	72.19
211.316	74.24
211.535	131.58
211.753	23.04
211.972	90.62
212.191	20.99
212.409	96.77
212.628	10.75
212.846	43.52
213.065	55.81
213.283	68.09
213.502	72.19
213.72	41.47
213.938	113.15
214.157	-7.68
214.375	55.81
214.594	111.1
214.812	127.49
215.031	80.38
215.249	37.38
215.467	76.29
215.686	8.7
215.904	57.86
216.122	47.62
216.341	45.57
216.559	55.81
216.778	68.09
216.996	27.14
217.214	29.18
217.432	-15.87
217.651	-32.26
217.869	115.2
218.087	6.66
218.306	-15.87
218.524	0.51
218.742	29.18
218.96	68.09
219.179	-5.63
219.397	66.05
219.615	180.73
219.833	61.95
220.051	-13.82
220.27	98.81
220.488	23.04
220.706	-22.02
220.924	20.99
221.142	74.24
221.36	96.77
221.578	53.76
221.796	80.38
222.015	88.57
222.233	55.81
222.451	31.23
222.669	49.66
222.887	125.44
223.105	-7.68
223.323	-58.88
223.541	43.52
223.759	135.68
223.977	45.57
224.195	51.71
224.413	133.63
224.631	23.04
224.849	88.57
225.067	109.05
225.285	39.42
225.503	70.14
225.721	-48.64
225.939	59.9
226.157	57.86
226.375	182.78
226.592	-9.73
226.81	16.9
227.028	66.05
227.246	123.39
227.464	64
227.682	100.86
227.9	45.57
228.117	-44.54
228.335	66.05
228.553	-26.11
228.771	92.67
228.989	141.82
229.206	88.57
229.424	-58.88
229.642	25.09
229.86	-52.74
230.077	90.62
230.295	135.68
230.513	49.66
230.731	121.34
230.948	131.58
231.166	186.88
231.384	31.23
231.601	70.14
231.819	45.57
232.037	82.43
232.254	8.7
232.472	-3.58
232.689	23.04
232.907	45.57
233.125	20.99
233.342	25.09
233.56	-17.92
233.777	51.71
233.995	78.33
234.213	127.49
234.43	117.25
234.648	61.95
234.865	43.52
235.083	72.19
235.3	59.9
235.518	76.29
235.735	104.96
235.953	72.19
236.17	12.8
236.388	59.9
236.605	33.28
236.822	78.33
237.04	59.9
237.257	92.67
237.475	43.52
237.692	70.14
237.909	74.24
238.127	78.33
238.344	29.18
238.562	82.43
238.779	-32.26
238.996	35.33
239.214	-7.68
239.431	57.86
239.648	66.05
239.865	133.63
240.083	45.57
240.3	70.14
240.517	6.66
240.735	55.81
240.952	88.57
241.169	104.96
241.386	59.9
241.603	14.85
241.821	18.94
242.038	158.21
242.255	49.66
242.472	-22.02
242.689	94.72
242.907	154.11
243.124	4.61
243.341	20.99
243.558	0.51
243.775	-30.21
243.992	-13.82
244.209	6.66
244.426	154.11
244.643	111.1
244.86	96.77
245.078	72.19
245.295	158.21
245.512	2.56
245.729	-19.97
245.946	64
246.163	74.24
246.38	31.23
246.597	53.76
246.814	39.42
247.031	0.51
247.248	82.43
247.464	0.51
247.681	51.71
247.898	43.52
248.115	47.62
248.332	25.09
248.549	88.57
248.766	125.44
248.983	94.72
249.2	18.94
249.417	139.77
249.633	0.51
249.85	14.85
250.067	-34.3
250.284	33.28
250.501	90.62
250.717	98.81
250.934	-5.63
251.151	20.99
251.368	90.62
251.585	72.19
251.801	37.38
252.018	51.71
252.235	39.42
252.451	-17.92
252.668	55.81
252.885	90.62
253.102	74.24
253.318	117.25
253.535	35.33
253.752	-9.73
253.968	-1.54
254.185	-22.02
254.401	25.09
254.618	31.23
254.835	-19.97
255.051	55.81
255.268	45.57
255.484	51.71
255.701	-32.26
255.917	12.8
256.134	31.23
256.351	86.53
256.567	-28.16
256.784	55.81
257	-50.69
257.217	61.95
257.433	117.25
257.65	84.48
257.866	78.33
258.082	0.51
258.299	35.33
258.515	88.57
258.732	14.85
258.948	41.47
259.165	4.61
259.381	8.7
259.597	59.9
259.814	113.15
260.03	35.33
260.246	64
260.463	139.77
260.679	107.01
260.895	20.99
261.112	74.24
261.328	100.86
261.544	-26.11
261.761	158.21
261.977	49.66
262.193	-15.87
262.409	20.99
262.626	119.29
262.842	-22.02
263.058	51.71
263.274	90.62
263.49	119.29
263.707	133.63
263.923	61.95
264.139	-5.63
264.355	74.24
264.571	88.57
264.787	64
265.004	113.15
265.22	33.28
265.436	82.43
265.652	74.24
265.868	43.52
266.084	12.8
266.3	68.09
266.516	-69.12
266.732	78.33
266.948	72.19
267.164	16.9
267.38	92.67
267.596	39.42
267.812	145.92
268.028	25.09
268.244	-71.17
268.46	127.49
268.676	104.96
268.892	76.29
269.108	-5.63
269.324	-15.87
269.54	-83.45
269.756	104.96
269.972	-11.78
270.188	53.76
270.403	72.19
270.619	12.8
270.835	35.33
271.051	-40.45
271.267	72.19
271.483	23.04
271.698	-5.63
271.914	39.42
272.13	66.05
272.346	59.9
272.562	57.86
272.777	178.69
272.993	37.38
273.209	64
273.425	59.9
273.64	47.62
273.856	20.99
274.072	33.28
274.287	20.99
274.503	119.29
274.719	94.72
274.934	49.66
275.15	2.56
275.366	12.8
275.581	20.99
275.797	49.66
276.012	25.09
276.228	-28.16
276.444	64
276.659	84.48
276.875	-28.16
277.09	47.62
277.306	-13.82
277.521	68.09
277.737	41.47
277.952	84.48
278.168	57.86
278.383	98.81
278.599	20.99
278.814	43.52
279.03	86.53
279.245	90.62
279.461	78.33
279.676	104.96
279.892	-17.92
280.107	2.56
280.322	-5.63
280.538	35.33
280.753	74.24
280.969	51.71
281.184	49.66
281.399	78.33
281.615	125.44
281.83	59.9
282.045	-28.16
282.26	41.47
282.476	39.42
282.691	41.47
282.906	64
283.122	16.9
283.337	39.42
283.552	82.43
283.767	82.43
283.983	49.66
284.198	10.75
284.413	96.77
284.628	27.14
284.843	55.81
285.058	113.15
285.274	92.67
285.489	12.8
285.704	-36.35
285.919	37.38
286.134	14.85
286.349	100.86
286.564	-22.02
286.779	88.57
286.995	39.42
287.21	-3.58
287.425	25.09
287.64	80.38
287.855	31.23
288.07	20.99
288.285	168.45
288.5	152.06
288.715	90.62
288.93	43.52
289.145	43.52
289.36	45.57
289.575	27.14
289.79	55.81
290.004	-9.73
290.219	115.2
290.434	47.62
290.649	23.04
290.864	23.04
291.079	90.62
291.294	39.42
291.509	80.38
291.724	10.75
291.938	43.52
292.153	35.33
292.368	39.42
292.583	111.1
292.798	109.05
293.012	49.66
293.227	70.14
293.442	98.81
293.657	4.61
293.871	84.48
294.086	70.14
294.301	92.67
294.516	100.86
294.73	14.85
294.945	39.42
295.16	66.05
295.374	94.72
295.589	68.09
295.804	53.76
296.018	96.77
296.233	90.62
296.447	131.58
296.662	84.48
296.877	84.48
297.091	80.38
297.306	39.42
297.52	20.99
297.735	43.52
297.949	68.09
298.164	49.66
298.378	64
298.593	-13.82
298.807	27.14
299.022	76.29
299.236	27.14
299.451	8.7
299.665	20.99
299.88	49.66
300.094	86.53
300.309	-44.54
300.523	98.81
300.737	8.7
300.952	61.95
301.166	51.71
301.381	-5.63
301.595	-5.63
301.809	107.01
302.024	57.86
302.238	53.76
302.452	88.57
302.667	47.62
302.881	131.58
303.095	59.9
303.309	160.25
303.524	31.23
303.738	33.28
303.952	8.7
304.166	51.71
304.381	-60.93
304.595	66.05
304.809	43.52
305.023	68.09
305.237	115.2
305.452	43.52
305.666	57.86
305.88	90.62
306.094	80.38
306.308	8.7
306.522	39.42
306.736	-28.16
306.95	31.23
307.164	14.85
307.379	-3.58
307.593	162.3
307.807	55.81
308.021	127.49
308.235	33.28
308.449	-7.68
308.663	31.23
308.877	158.21
309.091	154.11
309.305	129.53
309.519	-58.88
309.733	107.01
309.947	-24.06
310.161	107.01
310.374	102.91
310.588	88.57
310.802	-46.59
311.016	2.56
311.23	90.62
311.444	74.24
311.658	33.28
311.872	90.62
312.085	72.19
312.299	27.14
312.513	133.63
312.727	31.23
312.941	39.42
313.154	29.18
313.368	68.09
313.582	10.75
313.796	53.76
314.009	-19.97
314.223	59.9
314.437	49.66
314.651	94.72
314.864	-30.21
315.078	35.33
315.292	2.56
315.505	78.33
315.719	33.28
315.933	14.85
316.146	31.23
316.36	-58.88
316.573	96.77
316.787	98.81
317.001	41.47
317.214	4.61
317.428	45.57
317.641	61.95
317.855	-34.3
318.068	98.81
318.282	55.81
318.495	182.78
318.709	47.62
318.922	64
319.136	129.53
319.349	57.86
319.563	8.7
319.776	109.05
319.99	41.47
320.203	102.91
320.417	33.28
320.63	98.81
320.843	166.4
321.057	59.9
321.27	27.14
321.483	86.53
321.697	70.14
321.91	51.71
322.124	100.86
322.337	111.1
322.55	61.95
322.763	86.53
322.977	20.99
323.19	4.61
323.403	78.33
323.617	6.66
323.83	98.81
324.043	23.04
324.256	109.05
324.469	14.85
324.683	47.62
324.896	72.19
325.109	53.76
325.322	88.57
325.535	150.01
325.748	68.09
325.962	12.8
326.175	164.35
326.388	41.47
326.601	119.29
326.814	66.05
327.027	27.14
327.24	76.29
327.453	-17.92
327.666	61.95
327.879	78.33
328.092	23.04
328.305	47.62
328.518	98.81
328.731	29.18
328.944	23.04
329.157	107.01
329.37	121.34
329.583	168.45
329.796	127.49
330.009	41.47
330.222	59.9
330.435	100.86
330.648	31.23
330.861	96.77
331.073	84.48
331.286	57.86
331.499	45.57
331.712	43.52
331.925	25.09
332.138	57.86
332.35	137.73
332.563	72.19
332.776	59.9
332.989	33.28
333.202	-7.68
333.414	47.62
333.627	96.77
333.84	23.04
334.053	92.67
334.265	-3.58
334.478	6.66
334.691	74.24
334.903	41.47
335.116	92.67
335.329	78.33
335.541	84.48
335.754	113.15
335.966	49.66
336.179	-36.35
336.392	2.56
336.604	123.39
336.817	125.44
337.029	16.9
337.242	137.73
337.454	57.86
337.667	-28.16
337.88	82.43
338.092	100.86
338.305	160.25
338.517	55.81
338.729	39.42
338.942	66.05
339.154	20.99
339.367	-7.68
339.579	135.68
339.792	31.23
340.004	59.9
340.217	29.18
340.429	57.86
340.641	49.66
340.854	33.28
341.066	68.09
341.278	74.24
341.491	176.64
341.703	115.2
341.915	16.9
342.128	90.62
342.34	41.47
342.552	72.19
342.764	76.29
342.977	78.33
343.189	90.62
343.401	68.09
343.613	10.75
343.826	70.14
344.038	-24.06
344.25	-42.5
344.462	33.28
344.674	115.2
344.886	-38.4
345.099	66.05
345.311	84.48
345.523	35.33
345.735	55.81
345.947	74.24
346.159	84.48
346.371	47.62
346.583	6.66
346.795	86.53
347.007	27.14
347.219	18.94
347.431	59.9
347.643	143.87
347.855	-19.97
348.067	123.39
348.279	55.81
348.491	-3.58
348.703	82.43
348.915	27.14
349.127	-52.74
349.339	47.62
349.551	2.56
349.763	123.39
349.975	6.66
350.187	23.04
350.399	68.09
350.61	86.53
350.822	20.99
351.034	51.71
351.246	35.33
351.458	66.05
351.669	43.52
351.881	76.29
352.093	113.15
352.305	94.72
352.517	113.15
352.728	72.19
352.94	33.28
353.152	115.2
353.363	-5.63
353.575	31.23
353.787	131.58
353.999	64
354.21	201.21
354.422	25.09
354.633	33.28
354.845	-11.78
355.057	100.86
355.268	113.15
355.48	70.14
355.692	80.38
355.903	98.81
356.115	-22.02
356.326	-77.31
356.538	80.38
356.749	43.52
356.961	80.38
357.172	66.05
357.384	-17.92
357.595	152.06
357.807	18.94
358.018	29.18
358.23	80.38
358.441	51.71
358.653	59.9
358.864	88.57
359.075	47.62
359.287	33.28
359.498	100.86
359.709	59.9
359.921	104.96
360.132	53.76
360.344	49.66
360.555	80.38
360.766	98.81
360.977	88.57
361.189	80.38
361.4	55.81
361.611	82.43
361.823	117.25
362.034	78.33
362.245	33.28
362.456	70.14
362.667	96.77
362.879	18.94
363.09	20.99
363.301	84.48
363.512	57.86
363.723	82.43
363.935	51.71
364.146	84.48
364.357	12.8
364.568	49.66
364.779	-3.58
364.99	88.57
365.201	51.71
365.412	98.81
365.623	66.05
365.834	90.62
366.045	78.33
366.256	152.06
366.467	55.81
366.678	113.15
366.889	2.56
367.1	-7.68
367.311	20.99
367.522	64
367.733	64
367.944	23.04
368.155	45.57
368.366	88.57
368.577	94.72
368.788	66.05
368.999	8.7
369.209	45.57
369.42	246.27
369.631	188.93
369.842	125.44
370.053	33.28
370.264	59.9
370.474	37.38
370.685	10.75
370.896	29.18
371.107	117.25
371.317	70.14
371.528	64
371.739	98.81
371.95	111.1
372.16	180.73
372.371	-9.73
372.582	82.43
372.792	72.19
373.003	102.91
373.214	66.05
373.424	84.48
373.635	100.86
373.846	102.91
374.056	72.19
374.267	154.11
374.477	94.72
374.688	70.14
374.898	100.86
375.109	70.14
375.319	43.52
375.53	109.05
375.74	90.62
375.951	78.33
376.161	18.94
376.372	154.11
376.582	14.85
376.793	119.29
377.003	-3.58
377.214	102.91
377.424	86.53
377.635	137.73
377.845	27.14
378.055	68.09
378.266	16.9
378.476	-26.11
378.686	92.67
378.897	98.81
379.107	37.38
379.317	49.66
379.528	53.76
379.738	27.14
379.948	-26.11
380.158	135.68
380.369	39.42
380.579	55.81
380.789	37.38
380.999	76.29
381.21	82.43
381.42	197.12
381.63	27.14
381.84	129.53
382.05	66.05
382.261	156.16
382.471	113.15
382.681	55.81
382.891	176.64
383.101	35.33
383.311	6.66
383.521	12.8
383.731	84.48
383.941	90.62
384.151	74.24
384.361	31.23
384.571	82.43
384.781	125.44
384.991	125.44
385.201	76.29
385.411	78.33
385.621	76.29
385.831	55.81
386.041	82.43
386.251	49.66
386.461	64
386.671	43.52
386.881	80.38
387.091	117.25
387.301	100.86
387.511	90.62
387.72	94.72
387.93	135.68
388.14	102.91
388.35	94.72
388.56	47.62
388.769	129.53
388.979	64
389.189	61.95
389.399	59.9
389.609	70.14
389.818	12.8
390.028	78.33
390.238	137.73
390.447	33.28
390.657	27.14
390.867	90.62
391.076	37.38
391.286	119.29
391.496	86.53
391.705	64
391.915	102.91
392.125	111.1
392.334	55.81
392.544	156.16
392.753	104.96
392.963	125.44
393.172	57.86
393.382	23.04
393.591	174.59
393.801	104.96
394.01	119.29
394.22	125.44
394.429	31.23
394.639	-9.73
394.848	92.67
395.058	104.96
395.267	45.57
395.477	57.86
395.686	119.29
395.895	205.31
396.105	211.45
396.314	162.3
396.524	123.39
396.733	72.19
396.942	139.77
397.152	127.49
397.361	90.62
397.57	125.44
397.78	59.9
397.989	133.63
398.198	215.55
398.407	64
398.617	61.95
398.826	121.34
399.035	137.73
399.244	127.49
399.453	53.76
399.663	64
399.872	141.82
400.081	111.1
400.29	123.39
400.499	147.97
400.708	209.4
400.917	139.77
401.127	156.16
401.336	117.25
401.545	117.25
401.754	135.68
401.963	188.93
402.172	145.92
402.381	100.86
402.59	125.44
402.799	70.14
403.008	172.54
403.217	127.49
403.426	233.98
403.635	68.09
403.844	156.16
404.053	72.19
404.262	47.62
404.471	176.64
404.68	160.25
404.888	164.35
405.097	115.2
405.306	266.75
405.515	215.55
405.724	197.12
405.933	250.36
406.142	166.4
406.35	352.76
406.559	188.93
406.768	158.21
406.977	299.52
407.185	207.36
407.394	221.69
407.603	197.12
407.812	244.22
408.02	322.04
408.229	279.04
408.438	250.36
408.646	233.98
408.855	256.51
409.064	293.37
409.272	289.28
409.481	367.1
409.69	203.26
409.898	285.18
410.107	295.42
410.315	387.58
410.524	360.95
410.733	401.91
410.941	350.71
411.15	403.96
411.358	403.96
411.567	483.83
411.775	395.77
411.984	442.87
412.192	485.88
412.401	489.98
412.609	539.13
412.818	586.23
413.026	449.02
413.234	598.52
413.443	555.51
413.651	590.33
413.86	612.85
414.068	705.01
414.276	647.67
414.485	645.62
414.693	692.73
414.901	774.64
415.11	852.47
415.318	760.31
415.526	784.88
415.734	780.79
415.943	881.14
416.151	936.43
416.359	860.66
416.567	942.58
416.776	991.73
416.984	999.92
417.192	1053.17
417.4	1051.12
417.608	938.48
417.817	1085.94
418.025	1149.42
418.233	1169.9
418.441	1214.96
418.649	1188.33
418.857	1384.94
419.065	1350.12
419.273	1436.14
419.481	1479.15
419.689	1477.1
419.897	1544.68
420.105	1524.2
420.313	1602.02
420.521	1741.29
420.729	1597.93
420.937	1804.77
421.145	1817.06
421.353	1935.84
421.561	1972.71
421.769	1993.19
421.977	2154.98
422.185	2105.82
422.393	2230.75
422.601	2419.16
422.809	2349.53
423.017	2494.94
423.224	2531.8
423.432	2607.58
423.64	2478.55
423.848	2855.38
424.056	2750.93
424.263	2959.83
424.471	3011.03
424.679	3228.11
424.887	3178.96
425.094	3316.17
425.302	3316.17
425.51	3342.8
425.718	3559.88
425.925	3500.49
426.133	3635.66
426.341	3957.19
426.548	4127.17
426.756	3998.15
426.964	4092.35
427.171	4295.1
427.379	4485.56
427.586	4540.86
427.794	4575.67
428.001	4870.58
428.209	5071.28
428.417	5083.57
428.624	5462.44
428.832	5444.01
429.039	5468.59
429.247	5431.73
429.454	5843.37
429.662	6365.6
429.869	5886.37
430.076	6236.58
430.284	6111.65
430.491	6392.22
430.699	6582.68
430.906	6822.3
431.114	6767
431.321	7018.9
431.528	7250.32
431.736	7561.61
431.943	8049.03
432.15	7694.73
432.358	7850.38
432.565	8470.91
432.772	8153.48
432.979	8626.56
433.187	8763.77
433.394	8819.07
433.601	9415.02
433.808	9585.01
434.016	9515.37
434.223	9888.11
434.43	10449.25
434.637	10244.45
434.844	10864.99
435.052	11086.17
435.259	11028.82
435.466	11055.45
435.673	10955.1
435.88	11684.17
436.087	12294.47
436.294	12525.89
436.501	11960.65
436.708	12255.56
436.915	12796.22
437.122	13359.41
437.329	12929.34
437.537	13676.85
437.743	13918.51
437.95	13879.6
438.157	14526.75
438.364	14901.53
438.571	14926.11
438.778	15163.67
438.985	16363.78
439.192	15726.86
439.399	16187.66
439.606	15956.24
439.813	17002.75
440.02	17748.21
440.227	17428.73
440.433	17490.17
440.64	18086.12
440.847	17750.26
441.054	18073.84
441.261	19187.93
441.467	19263.71
441.674	19454.17
441.881	20332.75
442.088	20021.45
442.294	19972.3
442.501	20316.36
442.708	21024.96
442.914	21721.27
443.121	22700.2
443.328	21872.82
443.534	23949.46
443.741	23044.26
443.948	22980.77
444.154	24324.24
444.361	24299.66
444.568	24002.71
444.774	24303.76
444.981	24512.65
445.187	25337.98
445.394	26237.04
445.6	26081.39
445.807	28493.9
446.013	27664.47
446.22	27721.82
446.426	28997.7
446.633	28801.1
446.839	30009.4
447.046	28950.6
447.252	30322.74
447.459	30439.47
447.665	30115.89
447.871	31567.9
448.078	33079.3
448.284	31326.24
448.491	32288.79
448.697	33685.5
448.903	34150.39
449.11	33900.54
449.316	33656.83
449.522	34488.31
449.728	35352.55
449.935	35594.21
450.141	35796.96
450.347	36167.64
450.553	35149.8
450.76	35502.05
450.966	36689.87
451.172	36194.26
451.378	36990.92
451.584	36544.47
451.791	37427.14
451.997	36870.09
452.203	37926.85
452.409	37490.63
452.615	37603.27
452.821	36106.2
453.027	35878.88
453.233	37601.22
453.44	36315.09
453.646	36530.13
453.852	36921.29
454.058	37185.48
454.264	36233.18
454.47	36700.11
454.676	35913.69
454.882	37103.56
455.088	34144.25
455.294	34662.38
455.5	34754.54
455.705	35069.93
455.911	34052.09
456.117	33087.5
456.323	32536.59
456.529	31174.69
456.735	32215.06
456.941	31520.8
457.147	30881.83
457.352	30146.61
457.558	29728.83
457.764	29751.35
457.97	29130.82
458.176	28356.69
458.381	28352.59
458.587	27363.42
458.793	27248.74
458.999	25692.28
459.204	27566.17
459.41	26660.97
459.616	24860.8
459.821	24963.2
460.027	24950.92
460.233	24283.28
460.438	22880.42
460.644	23115.94
460.85	22261.93
461.055	21915.83
461.261	22091.95
461.466	20207.82
461.672	19677.4
461.878	21184.7
462.083	19689.68
462.289	19380.44
462.494	19142.88
462.7	17991.92
462.905	17826.03
463.111	18327.78
463.316	17950.96
463.522	18174.19
463.727	18016.49
463.932	17889.52
464.138	17682.67
464.343	17731.83
464.549	17240.31
464.754	17791.22
464.959	17680.63
465.165	17682.67
465.37	16546.05
465.575	16578.82
465.781	17078.52
465.986	17000.7
466.191	16408.84
466.397	16023.82
466.602	15251.74
466.807	15802.64
467.012	16158.99
467.218	15880.46
467.423	15753.49
467.628	15649.04
467.833	16281.86
468.038	15749.39
468.244	15270.17
468.449	15915.28
468.654	15366.42
468.859	15438.1
469.064	15120.67
469.269	14582.05
469.474	14711.07
469.679	14876.96
469.885	14432.55
470.09	14850.33
470.295	14690.59
470.5	14180.65
470.705	14303.53
470.91	14174.5
471.115	13754.67
471.32	14205.22
471.525	14123.3
471.73	13627.7
471.935	13646.13
472.139	13238.58
472.344	13404.47
472.549	13103.42
472.754	13238.58
472.959	12626.24
473.164	12572.99
473.369	12396.87
473.574	12738.88
473.778	12587.33
473.983	12476.74
474.188	12413.25
474.393	11821.39
474.598	11923.79
474.802	11741.52
475.007	11958.6
475.212	11901.26
475.417	11391.31
475.621	11370.83
475.826	11344.21
476.031	11112.79
476.235	10881.37
476.44	11151.7
476.645	10801.5
476.849	10922.33
477.054	10701.15
477.259	10414.43
477.463	10414.43
477.668	10557.79
477.872	10340.71
478.077	10234.21
478.282	9728.36
478.486	9879.91
478.691	10021.22
478.895	9738.6
479.1	9933.16
479.304	9951.59
479.509	9329.01
479.713	9736.56
479.918	9435.5
480.122	9363.83
480.326	9445.74
480.531	9423.22
480.735	9392.5
480.94	9202.04
481.144	9460.08
481.348	9232.76
481.553	9191.8
481.757	9017.72
481.961	9376.11
482.166	9300.34
482.37	9140.6
482.574	8937.85
482.778	9128.31
482.983	9136.5
483.187	9146.74
483.391	9167.22
483.595	9154.93
483.8	8792.44
484.004	8888.7
484.208	9062.77
484.412	9165.17
484.616	8978.81
484.821	9011.57
485.025	8837.5
485.229	9062.77
485.433	9056.63
485.637	9023.86
485.841	9032.05
486.045	9027.96
486.249	9013.62
486.453	8843.64
486.657	8960.38
486.861	9075.06
487.065	8694.14
487.269	9021.81
487.473	8731
487.677	8987
487.881	9038.2
488.085	9046.39
488.289	8911.22
488.493	8843.64
488.697	9052.53
488.901	9083.25
489.105	9073.01
489.309	8966.52
489.512	9021.81
489.716	8987
489.92	9021.81
490.124	9257.33
490.328	9296.24
490.531	9257.33
490.735	9107.83
490.939	9173.36
491.143	9030.01
491.346	9124.21
491.55	9380.21
491.754	9441.65
491.958	9415.02
492.161	9189.75
492.365	9341.3
492.569	9306.48
492.772	9615.73
492.976	9726.32
493.18	9488.75
493.383	9763.18
493.587	9671.02
493.79	9924.97
493.994	9537.9
494.197	9732.46
494.401	9908.58
494.605	9869.67
494.808	9990.5
495.012	10119.53
495.215	10164.58
495.419	10219.88
495.622	10295.65
495.825	10410.34
496.029	10383.71
496.232	10537.31
496.436	10436.96
496.639	10756.44
496.843	10844.51
497.046	11006.3
497.249	10963.29
497.453	11137.37
497.656	11104.6
497.859	11055.45
498.063	11444.56
498.266	11520.34
498.469	11573.58
498.673	11567.44
498.876	11647.31
499.079	11979.08
499.282	11833.68
499.485	12296.52
499.689	12327.24
499.892	12589.38
500.095	12302.66
500.298	12433.73
500.501	12697.92
500.705	12843.32
500.908	13082.94
501.111	12970.3
501.314	13271.35
501.517	13625.65
501.72	13631.79
501.923	13691.18
502.126	14033.19
502.329	14096.68
502.532	14227.75
502.735	14256.42
502.938	14709.02
503.141	14655.78
503.344	14790.94
503.547	14958.88
503.75	14934.3
503.953	15335.7
504.156	15479.06
504.359	15477.01
504.562	15522.07
504.765	15980.81
504.968	15978.76
505.17	16177.42
505.373	16191.75
505.576	16333.06
505.779	16787.71
505.982	16851.2
506.185	16914.69
506.387	17121.53
506.59	17068.28
506.793	17465.59
506.996	17510.64
507.198	17963.25
507.401	17918.19
507.604	18118.89
507.807	18723.04
508.009	18698.47
508.212	18639.08
508.415	18684.13
508.617	19122.4
508.82	19052.77
509.022	18909.41
509.225	19673.3
509.428	19808.47
509.63	19896.53
509.833	20041.93
510.035	20445.38
510.238	20412.62
510.44	20738.24
510.643	20715.72
510.845	21145.79
511.048	20963.52
511.25	21235.9
511.453	21674.17
511.655	22225.07
511.858	21569.72
512.06	22128.81
512.262	22184.11
512.465	22290.6
512.667	22524.07
512.87	22913.19
513.072	23015.58
513.274	23333.02
513.477	23474.33
513.679	23396.51
513.881	24127.63
514.084	24076.43
514.286	24246.41
514.488	24066.19
514.69	24901.76
514.893	24774.79
515.095	24742.02
515.297	25237.63
515.499	24991.87
515.701	25460.86
515.904	25753.72
516.106	25825.4
516.308	26177.65
516.51	26384.49
516.712	26810.47
516.914	26710.12
517.116	26687.59
517.318	26943.59
517.52	27023.46
517.722	27095.14
517.925	27451.49
518.127	27852.89
518.329	27719.77
518.531	27955.29
518.733	28549.2
518.935	28604.49
519.136	28366.93
519.338	28944.45
519.54	28883.02
519.742	29306.94
519.944	29210.69
520.146	29657.15
520.348	29667.39
520.55	29962.29
520.752	30216.24
520.954	30527.53
521.155	29870.14
521.357	30619.69
521.559	31080.49
521.761	31488.03
521.963	30855.21
522.164	31037.48
522.366	31348.77
522.568	31434.78
522.77	31641.63
522.971	31793.18
523.173	31830.04
523.375	32473.1
523.576	31963.16
523.778	32030.74
523.98	32483.34
524.181	32616.46
524.383	32417.81
524.584	32839.69
524.786	32782.35
524.988	32761.87
525.189	33366.02
525.391	33208.33
525.592	33212.42
525.794	33445.89
525.995	33081.35
526.197	33320.96
526.398	33351.68
526.6	33855.48
526.801	33660.93
527.003	34054.14
527.204	34002.94
527.406	34154.49
527.607	34193.4
527.808	34232.31
528.01	33742.85
528.211	34183.16
528.412	34416.63
528.614	34938.86
528.815	34342.9
529.016	34990.06
529.218	34439.15
529.419	34482.16
529.62	34670.57
529.822	34568.18
530.023	34551.79
530.224	34777.07
530.425	34670.57
530.626	34447.35
530.828	34508.79
531.029	35506.15
531.23	34433.01
531.431	34613.23
531.632	34807.79
531.833	34867.18
532.035	35229.67
532.236	34863.08
532.437	35061.74
532.638	34641.9
532.839	34863.08
533.04	34738.16
533.241	34246.65
533.442	35393.51
533.643	34768.88
533.844	34439.15
534.045	34854.89
534.246	34760.69
534.447	34867.18
534.648	34652.14
534.849	34936.81
535.05	34949.1
535.251	34602.99
535.451	34582.51
535.652	34822.12
535.853	34779.12
536.054	34805.74
536.255	35108.84
536.456	34484.21
536.657	34934.76
536.857	34676.72
537.058	34338.8
537.259	35090.41
537.46	34877.42
537.66	34744.3
537.861	34875.37
538.062	34705.39
538.263	34330.61
538.463	34555.89
538.664	34535.41
538.865	34543.6
539.065	34934.76
539.266	34478.07
539.466	35108.84
539.667	34496.5
539.868	34883.56
540.068	34547.7
540.269	33998.84
540.469	34578.42
540.67	34619.38
540.87	34441.2
541.071	34494.45
541.271	34789.36
541.472	34113.53
541.672	34594.8
541.873	34031.61
542.073	33986.55
542.274	34361.33
542.474	34402.29
542.675	34148.34
542.875	34412.53
543.075	34013.18
543.276	34117.62
543.476	34394.1
543.676	33894.39
543.877	34347
544.077	34211.83
544.277	33955.83
544.478	33998.84
544.678	34029.56
544.878	34174.97
545.078	34402.29
545.279	34131.96
545.479	33552.38
545.679	33896.44
545.879	33888.25
546.079	33771.52
546.28	33732.61
546.48	33718.27
546.68	33882.11
546.88	33857.53
547.08	34162.68
547.28	34009.08
547.48	33503.23
547.68	33818.62
547.88	33650.69
548.081	33701.89
548.281	33411.07
548.481	33507.33
548.681	34015.22
548.881	33980.41
549.081	33732.61
549.28	33642.49
549.48	33576.96
549.68	33329.16
549.88	33806.33
550.08	33357.83
550.28	33953.79
550.48	33708.03
550.68	33400.83
550.88	33490.94
551.08	33425.41
551.279	33685.5
551.479	33261.57
551.679	33644.54
551.879	33198.09
552.079	33175.56
552.278	32933.9
552.478	33521.66
552.678	33435.65
552.878	33636.35
553.077	33308.68
553.277	33144.84
553.477	33718.27
553.676	33181.7
553.876	33337.35
554.076	33280
554.275	32985.1
554.475	32819.21
554.674	33060.87
554.874	33280
555.074	32907.27
555.273	33189.89
555.473	33247.24
555.672	33142.79
555.872	33013.77
556.071	32761.87
556.271	33193.99
556.47	32647.18
556.67	32636.94
556.869	32962.57
557.068	32921.61
557.268	32851.98
557.467	33253.38
557.667	32911.37
557.866	32659.47
558.065	32655.37
558.265	32663.57
558.464	32548.88
558.663	33083.4
558.863	32270.36
559.062	33384.45
559.261	32466.96
559.461	32825.36
559.66	32274.45
559.859	32413.71
560.058	32280.6
560.258	32972.81
560.457	32393.23
560.656	32638.99
560.855	32172.05
561.054	32444.43
561.253	32172.05
561.453	32665.61
561.652	32626.7
561.851	32544.78
562.05	32573.45
562.249	32294.93
562.448	32573.45
562.647	32221.2
562.846	32630.8
563.045	32376.85
563.244	32321.55
563.443	32514.06
563.642	31649.82
563.841	32196.63
564.04	31942.68
564.239	32208.92
564.438	32118.81
564.637	32290.84
564.836	32000.02
565.035	31852.57
565.234	32350.23
565.432	31946.78
565.631	31885.34
565.83	32180.24
566.029	31934.49
566.228	31754.27
566.427	32043.03
566.625	31537.18
566.824	31510.56
567.023	31993.88
567.222	31485.98
567.42	32036.89
567.619	31674.4
567.818	31574.05
568.016	31561.76
568.215	31901.72
568.414	31625.25
568.612	31782.94
568.811	31531.04
569.01	31594.53
569.208	31258.66
569.407	31504.42
569.605	31199.27
569.804	31549.47
570.002	31143.97
570.201	31268.9
570.4	31262.75
570.598	31062.05
570.797	31086.63
570.995	30869.54
571.193	30814.25
571.392	31385.63
571.59	30734.38
571.789	30883.88
571.987	31143.97
572.186	30693.42
572.384	30892.07
572.582	31010.85
572.781	30967.85
572.979	30390.32
573.177	31135.78
573.376	31131.68
573.574	30701.61
573.772	30797.87
573.971	30646.32
574.169	30251.06
574.367	30462
574.565	30853.16
574.763	30502.96
574.962	30732.33
575.16	30541.87
575.358	30531.63
575.556	29925.43
575.754	30498.86
575.952	30281.78
576.151	30408.75
576.349	30060.6
576.547	30021.69
576.745	29974.58
576.943	30146.61
577.141	30083.12
577.339	30289.97
577.537	29841.46
577.735	29702.2
577.933	29732.92
578.131	29427.77
578.329	29491.26
578.527	29679.68
578.725	29548.61
578.923	29751.35
579.121	29376.58
579.319	29616.19
579.516	29636.67
579.714	29677.63
579.912	28651.59
580.11	29216.83
580.308	29272.13
580.506	29311.04
580.704	28790.86
580.901	29227.07
581.099	29364.29
581.297	28936.26
581.495	28887.11
581.692	28907.59
581.89	28956.74
582.088	28657.74
582.285	28708.94
582.483	29055.04
582.681	28751.95
582.878	28966.98
583.076	28778.57
583.274	28934.21
583.471	28317.78
583.669	28514.38
583.866	28330.06
584.064	28708.94
584.262	28289.1
584.459	28506.19
584.657	28252.24
584.854	28491.85
585.052	27879.51
585.249	28256.34
585.447	28108.88
585.644	27611.23
585.841	27834.46
586.039	28313.68
586.236	27836.5
586.434	27797.59
586.631	27893.85
586.828	27856.98
587.026	27838.55
587.223	27773.02
587.42	27396.19
587.618	27514.97
587.815	27420.77
588.012	27375.71
588.21	27314.27
588.407	27693.15
588.604	27625.56
588.801	27107.43
588.999	27150.43
589.196	26957.92
589.393	27019.36
589.59	27289.7
589.787	27009.12
589.984	27203.68
590.182	26835.05
590.379	26900.58
590.576	26789.99
590.773	26935.4
590.97	26667.11
591.167	26413.16
591.364	26574.95
591.561	26355.82
591.758	26427.5
591.955	26640.49
592.152	26601.58
592.349	26392.69
592.546	26130.55
592.743	26234.99
592.94	26056.82
593.137	26634.35
593.334	26122.35
593.531	26085.49
593.727	26218.61
593.924	26142.83
594.121	25921.65
594.318	26232.94
594.515	25751.67
594.712	26019.95
594.908	26030.19
595.105	25946.23
595.302	25362.56
595.499	25763.96
595.696	25714.81
595.892	25251.97
596.089	25673.85
596.286	25340.03
596.482	25467
596.679	25479.29
596.876	25579.64
597.072	25282.69
597.269	25106.56
597.466	25110.66
597.662	25063.55
597.859	25278.59
598.055	25157.76
598.252	25053.31
598.448	25475.2
598.645	25088.13
598.841	24983.68
599.038	24836.23
599.234	25182.34
599.431	24627.34
599.627	24500.36
599.824	24975.49
600.02	24774.79
600.217	24631.43
600.413	24678.54
600.609	24316.04
600.806	24371.34
601.002	24561.8
601.198	24193.17
601.395	24408.2
601.591	24217.74
601.787	24060.05
601.984	24240.27
602.18	24377.48
602.376	24189.07
602.572	24092.82
602.769	24266.89
602.965	23951.51
603.161	24074.38
603.357	24037.52
603.553	23992.47
603.75	24092.82
603.946	23480.47
604.142	23775.38
604.338	23879.83
604.534	23580.82
604.73	23672.98
604.926	23560.34
605.122	23679.13
605.318	23431.32
605.514	23574.68
605.71	23672.98
605.906	23459.99
606.102	23828.63
606.298	23662.74
606.494	23517.34
606.69	23509.15
606.886	23335.07
607.082	22974.63
607.278	23414.94
607.474	22972.58
607.67	23435.42
607.866	22890.66
608.062	23328.92
608.257	22945.95
608.453	22978.72
608.649	23109.79
608.845	22976.67
609.041	23087.26
609.236	23058.59
609.432	22935.71
609.628	23179.42
609.824	23054.5
610.019	22954.15
610.215	22876.32
610.411	23339.16
610.606	22855.84
610.802	23081.12
610.998	23062.69
611.193	22704.29
611.389	22935.71
611.584	22732.97
611.78	22624.42
611.976	22894.75
612.171	23144.61
612.367	22575.27
612.562	22780.07
612.758	22415.53
612.953	22464.68
613.149	22851.75
613.344	22476.97
613.539	22743.2
613.735	22571.18
613.93	22839.46
614.126	22612.13
614.321	22913.19
614.517	22632.61
614.712	22759.59
614.907	22341.8
615.103	22763.68
615.298	22368.43
615.493	22603.94
615.688	22089.9
615.884	22974.63
616.079	22180.01
616.274	22397.1
616.47	22280.36
616.665	22268.08
616.86	22153.39
617.055	22423.72
617.25	22028.46
617.445	22249.64
617.641	22261.93
617.836	22053.04
618.031	21780.66
618.226	22110.38
618.421	22001.84
618.616	22427.82
618.811	21838
619.006	21977.26
619.201	21256.38
619.396	21680.31
619.591	21334.2
619.786	21592.25
619.981	21180.6
620.176	21627.06
620.371	21319.87
620.566	21358.78
620.761	21127.36
620.956	21432.5
621.151	20879.55
621.346	21137.6
621.541	20508.87
621.735	20760.77
621.93	20414.66
622.125	20609.22
622.32	20328.65
622.515	20418.76
622.709	20273.35
622.904	20080.85
623.099	20410.57
623.294	20230.35
623.488	20232.4
623.683	20107.47
623.878	19787.99
624.072	19794.13
624.267	19835.09
624.462	19658.96
624.656	19372.25
624.851	19253.47
625.046	19384.54
625.24	19222.75
625.435	19374.3
625.629	19044.57
625.824	18956.51
626.018	18841.82
626.213	18634.98
626.407	18817.25
626.602	18673.89
626.796	18782.43
626.991	18794.72
627.185	18643.17
627.38	18098.41
627.574	18274.54
627.768	17998.06
627.963	18086.12
628.157	17918.19
628.352	17842.42
628.546	17670.39
628.74	17766.64
628.935	17414.39
629.129	17524.98
629.323	17553.65
629.517	17350.9
629.712	17268.98
629.906	17019.13
630.1	17064.19
630.294	17393.91
630.489	16867.58
630.683	17144.06
630.877	16832.77
631.071	16447.75
631.265	16818.43
631.459	16668.93
631.653	16609.54
631.848	16453.89
632.042	16527.62
632.236	16535.81
632.43	16087.31
632.624	16347.4
632.818	15929.61
633.012	15765.78
633.206	15761.68
633.4	16120.07
633.594	15630.61
633.788	15884.56
633.982	15792.4
634.176	15780.11
634.369	15411.48
634.563	15612.18
634.757	15380.76
634.951	15296.79
635.145	15298.84
635.339	15239.45
635.533	15030.55
635.726	15046.94
635.92	14596.39
636.114	14696.74
636.308	14661.92
636.501	14727.46
636.695	14645.54
636.889	14344.49
637.083	14403.88
637.276	14248.23
637.47	14104.87
637.664	14096.68
637.857	14106.92
638.051	13941.04
638.244	13984.04
638.438	13881.64
638.632	13793.58
638.825	13463.86
639.019	13687.09
639.212	13570.35
639.406	13498.67
639.599	13416.76
639.793	13283.64
639.986	13439.28
640.18	13351.22
640.373	13195.57
640.567	13035.83
640.76	12988.73
640.954	12884.28
641.147	12691.77
641.34	12781.88
641.534	12900.67
641.727	12740.93
641.92	12673.34
642.114	12511.55
642.307	12226.89
642.5	12298.56
642.694	12022.09
642.887	12202.31
643.08	12149.06
643.273	12159.3
643.467	11845.96
643.66	12022.09
643.853	11647.31
644.046	11716.94
644.239	11872.59
644.432	11577.68
644.626	11331.92
644.819	11518.29
645.012	11592.02
645.205	11479.38
645.398	11415.89
645.591	11352.4
645.784	11184.47
645.977	11151.7
646.17	11229.52
646.363	10942.81
646.556	10905.95
646.749	11016.54
646.942	10895.71
647.135	10903.9
647.328	10684.76
647.521	10828.12
647.714	10424.67
647.907	10541.41
648.099	10459.49
648.292	10371.43
648.485	10414.43
648.678	10135.91
648.871	10219.88
649.064	10152.29
649.256	10197.35
649.449	10166.63
649.642	9974.12
649.835	10080.61
650.027	9945.45
650.22	9730.41
650.413	9695.6
650.605	10025.32
650.798	9519.47
650.991	9525.61
651.183	9421.17
651.376	9417.07
651.568	9578.86
651.761	9417.07
651.954	9417.07
652.146	9333.11
652.339	9462.13
652.531	9234.8
652.724	9165.17
652.916	8835.45
653.109	9189.75
653.301	8993.14
653.494	9007.48
653.686	8665.47
653.879	9089.4
654.071	8675.71
654.263	8831.35
654.456	8794.49
654.648	8731
654.84	8532.35
655.033	8520.06
655.225	8528.25
655.417	8343.94
655.61	8264.07
655.802	8487.29
655.994	8114.56
656.186	8225.15
656.379	8120.71
656.571	8229.25
656.763	8219.01
656.955	8100.23
657.148	7960.97
657.34	8065.41
657.532	8059.27
657.724	7784.84
657.916	7917.96
658.108	7817.61
658.3	7780.75
658.492	7639.44
658.684	7608.72
658.876	7633.29
659.068	7471.5
659.26	7578
659.452	7422.35
659.644	7338.38
659.836	7262.61
660.028	7489.93
660.22	7301.52
660.412	7240.08
660.604	7303.57
660.796	7106.96
660.988	7082.39
661.18	7111.06
661.372	6945.17
661.563	6969.75
661.755	6875.54
661.947	6957.46
662.139	6885.78
662.331	6893.97
662.522	6773.14
662.714	6824.34
662.906	6699.42
663.097	6699.42
663.289	6666.65
663.481	6482.33
663.673	6474.14
663.864	6459.81
664.056	6431.13
664.247	6508.96
664.439	6443.42
664.631	6488.48
664.822	6351.26
665.014	6236.58
665.205	6279.58
665.397	6267.3
665.588	6232.48
665.78	6046.12
665.971	6214.05
666.163	6224.29
666.354	6179.23
666.546	6082.98
666.737	6042.02
666.929	6019.49
667.12	5913
667.311	5896.61
667.503	5917.09
667.694	5853.61
667.885	5831.08
668.077	5712.3
668.268	5722.54
668.459	5814.7
668.651	5734.82
668.842	5835.17
669.033	5710.25
669.224	5720.49
669.416	5648.81
669.607	5702.06
669.798	5650.86
669.989	5667.24
670.18	5431.73
670.371	5472.68
670.563	5474.73
670.754	5554.6
670.945	5433.77
671.136	5501.36
671.327	5411.25
671.518	5566.89
671.709	5437.87
671.9	5570.99
672.091	5437.87
672.282	5497.26
672.473	5259.7
672.664	5259.7
672.855	5169.59
673.046	5267.89
673.237	5396.91
673.428	5181.87
673.619	5257.65
673.809	5126.58
674	5009.84
674.191	5208.5
674.382	4999.6
674.573	5056.95
674.764	5188.02
674.954	5081.52
675.145	4956.6
675.336	4913.59
675.527	5099.95
675.717	5085.62
675.908	5077.43
676.099	5015.99
676.289	5022.13
676.48	4882.87
676.671	4800.95
676.861	5042.61
677.052	4874.68
677.243	4876.73
677.433	4889.01
677.624	4985.27
677.814	4788.66
678.005	4970.93
678.195	4919.73
678.386	4766.14
678.576	4620.73
678.767	4946.36
678.957	4741.56
679.148	5038.52
679.338	4899.25
679.529	4778.42
679.719	4757.94
679.909	4825.53
680.1	4848.05
680.29	4774.33
680.481	4846.01
680.671	4749.75
680.861	4633.02
681.052	4630.97
681.242	4860.34
681.432	4772.28
681.622	4635.07
681.813	4600.25
682.003	4641.21
682.193	4651.45
682.383	4678.07
682.573	4585.91
682.764	4579.77
682.954	4663.74
683.144	4663.74
683.334	4628.92
683.524	4561.34
683.714	4579.77
683.904	4641.21
684.094	4719.03
684.284	4456.89
684.474	4579.77
684.664	4442.56
684.854	4590.01
685.044	4520.38
685.234	4471.23
685.424	4606.39
685.614	4450.75
685.804	4661.69
685.994	4434.36
686.184	4465.08
686.374	4440.51
686.564	4362.69
686.753	4504
686.943	4391.36
687.133	4389.31
687.323	4473.28
687.513	4428.22
687.702	4352.45
687.892	4399.55
688.082	4352.45
688.272	4389.31
688.461	4252.1
688.651	4458.94
688.841	4397.5
689.03	4297.15
689.22	4331.97
689.41	4282.81
689.599	4389.31
689.789	4315.58
689.979	4235.71
690.168	4295.1
690.358	4270.53
690.547	4276.67
690.737	4291.01
690.926	4354.49
691.116	4125.12
691.305	4229.57
691.495	4129.22
691.684	4266.43
691.874	4260.29
692.063	4229.57
692.252	4139.46
692.442	4291.01
692.631	4065.73
692.82	4235.71
693.01	4256.19
693.199	4106.69
693.388	4133.31
693.578	4254.14
693.767	4168.13
693.956	4131.26
694.146	4084.16
694.335	4141.5
694.524	4151.74
694.713	4248
694.902	4125.12
695.092	4172.22
695.281	4153.79
695.47	4094.4
695.659	4123.07
695.848	4190.66
696.037	4123.07
696.226	4133.31
696.415	4090.31
696.604	4223.42
696.793	4190.66
696.982	4241.86
697.171	4127.17
697.36	4100.55
697.549	4090.31
697.738	3979.72
697.927	4110.79
698.116	4114.88
698.305	4282.81
698.494	4133.31
698.683	4100.55
698.872	4278.72
699.061	4331.97
699.25	4250.05
699.438	4151.74
699.627	4137.41
699.816	4254.14
700.005	4178.37
700.193	4225.47
700.382	4288.96
700.571	4153.79
700.76	4424.12
700.948	4243.9
701.137	4325.82
701.326	4291.01
701.514	4358.59
701.703	4413.88
701.892	4354.49
702.08	4338.11
702.269	4329.92
702.457	4243.9
702.646	4258.24
702.834	4403.64
703.023	4356.54
703.212	4317.63
703.4	4315.58
703.589	4178.37
703.777	4291.01
703.965	4266.43
704.154	4266.43
704.342	4293.05
704.531	4223.42
704.719	4293.05
704.907	4364.73
705.096	4266.43
705.284	4467.13
705.472	4403.64
705.661	4366.78
705.849	4401.6
706.037	4528.57
706.226	4391.36
706.414	4344.25
706.602	4264.38
706.79	4344.25
706.979	4307.39
707.167	4338.11
707.355	4452.8
707.543	4530.62
707.731	4391.36
707.919	4374.97
708.107	4424.12
708.296	4311.49
708.484	4428.22
708.672	4352.45
708.86	4399.55
709.048	4252.1
709.236	4334.01
709.424	4403.64
709.612	4520.38
709.8	4344.25
709.988	4407.74
710.176	4291.01
710.364	4407.74
710.551	4444.6
710.739	4344.25
710.927	4350.4
711.115	4409.79
711.303	4329.92
711.491	4479.42
711.679	4229.57
711.866	4239.81
712.054	4334.01
712.242	4233.66
712.43	4454.84
712.617	4387.26
712.805	4243.9
712.993	4278.72
713.181	4340.16
713.368	4422.08
713.556	4495.8
713.744	4323.77
713.931	4397.5
714.119	4483.52
714.306	4387.26
714.494	4489.66
714.682	4252.1
714.869	4395.45
715.057	4479.42
715.244	4217.28
715.432	4401.6
715.619	4377.02
715.807	4372.93
715.994	4237.76
716.182	4331.97
716.369	4291.01
716.556	4413.88
716.744	4272.57
716.931	4336.06
717.119	4395.45
717.306	4346.3
717.493	4217.28
717.681	4381.12
717.868	4305.34
718.055	4329.92
718.242	4217.28
718.43	4329.92
718.617	4196.8
718.804	4299.2
718.991	4334.01
719.179	4342.21
719.366	4374.97
719.553	4272.57
719.74	4209.09
719.927	4360.64
720.114	4301.25
720.301	4401.6
720.488	4280.77
720.676	4207.04
720.863	4352.45
721.05	4395.45
721.237	4176.32
721.424	4424.12
721.611	4301.25
721.798	4204.99
721.985	4123.07
722.172	4096.45
722.358	4161.98
722.545	4379.07
722.732	4264.38
722.919	4248
723.106	4190.66
723.293	4264.38
723.48	4174.27
723.667	4159.94
723.853	4211.14
724.04	4254.14
724.227	4174.27
724.414	4225.47
724.6	4260.29
724.787	4133.31
724.974	4428.22
725.161	4151.74
725.347	4047.3
725.534	4200.9
725.72	4243.9
725.907	4297.15
726.094	4315.58
726.28	4170.18
726.467	4090.31
726.653	4147.65
726.84	4286.91
727.027	4284.86
727.213	4194.75
727.4	4217.28
727.586	4000.19
727.773	4186.56
727.959	4141.5
728.145	4260.29
728.332	4106.69
728.518	4096.45
728.705	4067.78
728.891	4137.41
729.077	3977.67
729.264	4012.48
729.45	3969.48
729.636	4094.4
729.823	4104.64
730.009	4135.36
730.195	4069.83
730.382	4100.55
730.568	3893.7
730.754	4194.75
730.94	4039.11
731.126	4012.48
731.313	4002.24
731.499	4041.15
731.685	3971.52
731.871	3955.14
732.057	4075.97
732.243	3963.33
732.429	3936.71
732.615	3967.43
732.801	3897.8
732.987	3871.17
733.173	3961.28
733.359	3940.8
733.545	3838.41
733.731	3957.19
733.917	3926.47
734.103	3957.19
734.289	3959.24
734.475	3977.67
734.661	4082.11
734.847	3908.04
735.033	3959.24
735.219	4028.87
735.404	3819.97
735.59	3846.6
735.776	3602.89
735.962	3832.26
736.148	3729.86
736.333	3826.12
736.519	3762.63
736.705	3781.06
736.89	3842.5
737.076	3803.59
737.262	3717.58
737.447	3668.42
737.633	3701.19
737.819	3611.08
738.004	3623.37
738.19	3740.1
738.375	3660.23
738.561	3807.69
738.747	3592.65
738.932	3600.84
739.118	3733.96
739.303	3627.46
739.489	3641.8
739.674	3645.9
739.859	3504.59
740.045	3617.22
740.23	3563.98
740.416	3406.28
740.601	3486.15
740.786	3375.56
740.972	3504.59
741.157	3488.2
741.342	3383.76
741.528	3463.63
741.713	3447.24
741.898	3437
742.084	3523.02
742.269	3512.78
742.454	3369.42
742.639	3394
742.824	3377.61
743.01	3406.28
743.195	3344.84
743.38	3228.11
743.565	3193.3
743.75	3242.45
743.935	3408.33
744.12	3324.37
744.305	3336.65
744.49	3236.3
744.675	3158.48
744.86	3230.16
745.045	3219.92
745.23	3205.58
745.415	3207.63
745.6	3277.26
745.785	3131.86
745.97	3111.38
746.155	3072.47
746.34	3234.25
746.525	2984.4
746.71	3113.42
746.895	2904.53
747.079	3004.88
747.264	3015.12
747.449	3021.27
747.634	3023.31
747.819	2986.45
748.003	2898.39
748.188	2990.55
748.373	2886.1
748.557	2755.03
748.742	2828.76
748.927	2908.63
749.111	2910.68
749.296	2822.61
749.481	2808.28
749.665	2777.56
749.85	2681.3
750.034	2752.98
750.219	2646.49
750.404	2734.55
750.588	2785.75
750.773	2644.44
750.957	2587.1
751.141	2558.42
751.326	2550.23
751.51	2628.06
751.695	2578.9
751.879	2578.9
752.064	2568.66
752.248	2474.46
752.432	2509.27
752.617	2472.41
752.801	2574.81
752.985	2404.83
753.17	2513.37
753.354	2384.35
753.538	2474.46
753.722	2265.57
753.907	2300.38
754.091	2337.24
754.275	2359.77
754.459	2380.25
754.643	2294.24
754.828	2263.52
755.012	2234.85
755.196	2261.47
755.38	2177.5
755.564	2138.59
755.748	2161.12
755.932	2167.26
756.116	2136.54
756.3	2185.69
756.484	2202.08
756.668	2197.98
756.852	2103.78
757.036	2052.58
757.22	2005.47
757.404	2011.62
757.588	2101.73
757.772	2101.73
757.956	2068.96
758.14	2081.25
758.323	2021.86
758.507	2023.91
758.691	1884.64
758.875	2015.71
759.059	1968.61
759.242	1843.68
759.426	1917.41
759.61	1993.19
759.794	1919.46
759.977	1794.53
760.161	1909.22
760.345	1901.03
760.528	1956.32
760.712	1874.4
760.895	1810.92
761.079	1835.49
761.263	1849.83
761.446	1726.95
761.63	1792.48
761.813	1907.17
761.997	1769.96
762.18	1712.61
762.364	1712.61
762.547	1671.65
762.731	1702.37
762.914	1753.57
763.098	1745.38
763.281	1704.42
763.464	1743.33
763.648	1741.29
763.831	1790.44
764.015	1634.79
764.198	1700.33
764.381	1704.42
764.564	1649.13
764.748	1636.84
764.931	1624.55
765.114	1634.79
765.297	1649.13
765.481	1657.32
765.664	1544.68
765.847	1628.65
766.03	1704.42
766.213	1628.65
766.397	1618.41
766.58	1563.11
766.763	1577.45
766.946	1554.92
767.129	1569.26
767.312	1526.25
767.495	1599.98
767.678	1487.34
767.861	1511.91
768.044	1559.02
768.227	1548.78
768.41	1573.35
768.593	1581.54
768.776	1587.69
768.959	1542.63
769.142	1513.96
769.324	1434.09
769.507	1481.19
769.69	1427.95
769.873	1565.16
770.056	1548.78
770.239	1493.48
770.421	1483.24
770.604	1475.05
770.787	1460.71
770.97	1462.76
771.152	1327.6
771.335	1509.86
771.518	1303.02
771.7	1391.08
771.883	1448.43
772.066	1389.03
772.248	1481.19
772.431	1389.03
772.613	1370.6
772.796	1393.13
772.978	1452.52
773.161	1432.04
773.343	1360.36
773.526	1331.69
773.708	1262.06
773.891	1438.19
774.073	1337.84
774.256	1243.63
774.438	1333.74
774.621	1333.74
774.803	1219.05
774.985	1337.84
775.168	1305.07
775.35	1311.21
775.532	1194.48
775.715	1198.57
775.897	1356.27
776.079	1221.1
776.261	1270.25
776.444	1169.9
776.626	1221.1
776.808	1190.38
776.99	1198.57
777.173	1178.09
777.355	1124.85
777.537	1094.13
777.719	1124.85
777.901	1106.42
778.083	1001.97
778.265	1016.3
778.447	1145.33
778.629	999.92
778.811	1063.41
778.993	1149.42
779.175	1110.51
779.357	1122.8
779.539	995.82
779.721	1071.6
779.903	1124.85
780.085	1036.78
780.267	1051.12
780.449	1010.16
780.631	995.82
780.812	1085.94
780.994	1044.98
781.176	956.91
781.358	993.78
781.54	924.15
781.721	883.19
781.903	958.96
782.085	973.3
782.267	967.15
782.448	895.47
782.63	899.57
782.812	1001.97
782.993	889.33
783.175	995.82
783.357	889.33
783.538	918
783.72	836.08
783.901	874.99
784.083	854.51
784.264	895.47
784.446	854.51
784.627	829.94
784.809	827.89
784.99	872.95
785.172	897.52
785.353	811.51
785.535	764.4
785.716	745.97
785.897	817.65
786.079	705.01
786.26	758.26
786.441	784.88
786.623	672.25
786.804	784.88
786.985	754.16
787.167	764.4
787.348	676.34
787.529	623.09
787.71	739.83
787.891	733.68
788.073	655.86
788.254	653.81
788.435	713.21
788.616	670.2
788.797	702.97
788.978	625.14
789.159	688.63
789.34	682.49
789.522	614.9
789.703	633.33
789.884	600.57
790.065	647.67
790.246	700.92
790.427	616.95
790.607	705.01
790.788	614.9
790.969	653.81
791.15	559.61
791.331	627.19
791.512	588.28
791.693	584.18
791.874	623.09
792.054	645.62
792.235	649.72
792.416	565.75
792.597	555.51
792.778	567.8
792.958	645.62
793.139	549.37
793.32	557.56
793.5	479.74
793.681	584.18
793.862	498.17
794.042	541.18
794.223	518.65
794.404	530.94
794.584	530.94
794.765	532.98
794.945	539.13
795.126	588.28
795.306	494.07
795.487	541.18
795.667	543.22
795.848	449.02
796.028	500.22
796.209	590.33
796.389	551.42
796.57	537.08
796.75	483.83
796.93	473.59
797.111	481.78
797.291	377.34
797.471	428.54
797.652	506.36
797.832	449.02
798.012	514.55
798.192	420.35
798.373	401.91
798.553	532.98
798.733	494.07
798.913	410.11
799.093	473.59
799.274	506.36
799.454	465.4
799.634	455.16
799.814	408.06
799.994	475.64
800.174	416.25
800.354	418.3
800.534	295.42
800.714	451.07
800.894	432.63
801.074	412.15
801.254	424.44
801.434	444.92
801.614	467.45
801.794	350.71
801.974	1423.85
802.154	410.11
802.334	422.39
802.514	350.71
802.693	426.49
802.873	352.76
803.053	481.78
803.233	449.02
803.413	375.29
803.592	352.76
803.772	313.85
803.952	348.67
804.131	363
804.311	389.63
804.491	418.3
804.67	270.84
804.85	346.62
805.03	369.15
805.209	395.77
805.389	328.19
805.568	295.42
805.748	424.44
805.928	322.04
806.107	356.86
806.287	283.13
806.466	326.14
806.646	260.6
806.825	356.86
807.004	313.85
807.184	377.34
807.363	344.57
807.543	322.04
807.722	369.15
807.901	350.71
808.081	391.67
808.26	264.7
808.439	219.64
808.619	387.58
808.798	217.6
808.977	360.95
809.156	326.14
809.336	315.9
809.515	367.1
809.694	289.28
809.873	272.89
810.052	231.93
810.231	369.15
810.411	285.18
810.59	344.57
810.769	293.37
810.948	276.99
811.127	205.31
811.306	295.42
811.485	274.94
811.664	399.87
811.843	207.36
812.022	289.28
812.201	227.84
812.38	281.08
812.559	201.21
812.737	250.36
812.916	242.17
813.095	256.51
813.274	252.41
813.453	281.08
813.632	330.23
813.811	354.81
813.989	244.22
814.168	287.23
814.347	182.78
814.526	301.56
814.704	244.22
814.883	266.75
815.062	197.12
815.24	313.85
815.419	178.69
815.598	332.28
815.776	262.65
815.955	244.22
816.133	180.73
816.312	240.12
816.49	322.04
816.669	264.7
816.847	233.98
817.026	211.45
817.204	315.9
817.383	283.13
817.561	223.74
817.74	332.28
817.918	272.89
818.097	213.5
818.275	270.84
818.453	252.41
818.632	242.17
818.81	227.84
818.988	135.68
819.167	225.79
819.345	203.26
819.523	215.55
819.701	262.65
819.879	188.93
820.058	195.07
820.236	197.12
820.414	248.32
820.592	213.5
820.77	172.54
820.948	170.49
821.127	193.02
821.305	205.31
821.483	219.64
821.661	213.5
821.839	231.93
822.017	129.53
822.195	129.53
822.373	213.5
822.551	205.31
822.729	219.64
822.907	102.91
823.085	221.69
823.262	137.73
823.44	193.02
823.618	260.6
823.796	188.93
823.974	137.73
824.152	147.97
824.329	233.98
824.507	150.01
824.685	221.69
824.863	170.49
825.04	199.16
825.218	57.86
825.396	156.16
825.574	182.78
825.751	152.06
825.929	72.19
826.107	102.91
826.284	195.07
826.462	272.89
826.639	115.2
826.817	121.34
826.994	100.86
827.172	129.53
827.349	299.52
827.527	113.15
827.704	193.02
827.882	233.98
828.059	109.05
828.237	176.64
828.414	154.11
828.591	162.3
828.769	180.73
828.946	178.69
829.124	182.78
829.301	119.29
829.478	147.97
829.655	184.83
829.833	186.88
830.01	131.58
830.187	166.4
830.364	131.58
830.542	145.92
830.719	203.26
830.896	113.15
831.073	168.45
831.25	152.06
831.427	84.48
831.604	127.49
831.782	94.72
831.959	107.01
832.136	166.4
832.313	117.25
832.49	182.78
832.667	141.82
832.844	86.53
833.021	197.12
833.198	109.05
833.374	76.29
833.551	98.81
833.728	115.2
833.905	131.58
834.082	131.58
834.259	98.81
834.436	119.29
834.612	70.14
834.789	94.72
834.966	131.58
835.143	137.73
835.319	117.25
835.496	172.54
835.673	229.88
835.85	178.69
836.026	145.92
836.203	231.93
836.38	150.01
836.556	47.62
836.733	117.25
836.909	219.64
837.086	156.16
837.262	29.18
837.439	47.62
837.616	55.81
837.792	147.97
837.968	53.76
838.145	80.38
838.321	117.25
838.498	117.25
838.674	147.97
838.851	51.71
839.027	51.71
839.203	102.91
839.38	145.92
839.556	41.47
839.732	174.59
839.909	121.34
840.085	168.45
840.261	107.01
840.437	41.47
840.614	29.18
840.79	201.21
840.966	94.72
841.142	113.15
841.318	94.72
841.494	115.2
841.671	215.55
841.847	76.29
842.023	-19.97
842.199	107.01
842.375	141.82
842.551	29.18
842.727	27.14
842.903	121.34
843.079	47.62
843.255	184.83
843.431	141.82
843.607	84.48
843.783	-44.54
843.959	100.86
844.134	102.91
844.31	143.87
844.486	55.81
844.662	49.66
844.838	100.86
845.013	104.96
845.189	147.97
845.365	145.92
845.541	111.1
845.716	117.25
845.892	70.14
846.068	139.77
846.244	51.71
846.419	47.62
846.595	53.76
846.77	72.19
846.946	133.63
847.122	154.11
847.297	43.52
847.473	193.02
847.648	64
847.824	100.86
847.999	14.85
848.175	47.62
848.35	-13.82
848.526	160.25
848.701	170.49
848.876	72.19
849.052	16.9
849.227	90.62
849.403	74.24
849.578	102.91
849.753	59.9
849.929	145.92
850.104	16.9
850.279	70.14
850.454	150.01
850.63	125.44
850.805	70.14
850.98	68.09
851.155	53.76
851.33	129.53
851.505	45.57
851.681	78.33
851.856	-19.97
852.031	45.57
852.206	84.48
852.381	6.66
852.556	-17.92
852.731	80.38
852.906	145.92
853.081	55.81
853.256	37.38
853.431	74.24
853.606	94.72
853.781	41.47
853.956	-75.26
854.131	100.86
854.305	-52.74
854.48	-7.68
854.655	72.19
854.83	37.38
855.005	59.9
855.18	55.81
855.354	109.05
855.529	137.73
855.704	16.9
855.879	8.7
856.053	-19.97
856.228	68.09
856.403	31.23
856.577	86.53
856.752	-36.35
856.926	47.62
857.101	45.57
857.276	6.66
857.45	61.95
857.625	147.97
857.799	55.81
857.974	8.7
858.148	6.66
858.323	147.97
858.497	27.14
858.672	-50.69
858.846	18.94
859.02	80.38
859.195	31.23
859.369	-13.82
859.543	14.85
859.718	25.09
859.892	59.9
860.066	51.71
860.241	41.47
860.415	12.8
860.589	102.91
860.763	70.14
860.938	-5.63
861.112	49.66
861.286	-60.93
861.46	43.52
861.634	66.05
861.808	16.9
861.982	25.09
862.157	64
862.331	66.05
862.505	-11.78
862.679	-99.84
862.853	27.14
863.027	4.61
863.201	119.29
863.375	-50.69
863.549	92.67
863.722	68.09
863.896	133.63
864.07	92.67
864.244	68.09
864.418	119.29
864.592	45.57
864.766	80.38
864.939	16.9
865.113	-13.82
865.287	68.09
865.461	6.66
865.634	-32.26
865.808	12.8
865.982	49.66
866.156	31.23
866.329	27.14
866.503	111.1
866.676	27.14
866.85	66.05
867.024	-24.06
867.197	53.76
867.371	-32.26
867.544	66.05
867.718	74.24
867.891	111.1
868.065	23.04
868.238	84.48
868.412	88.57
868.585	55.81
868.759	64
868.932	90.62
869.105	27.14
869.279	0.51
869.452	-24.06
869.625	141.82
869.799	-28.16
869.972	6.66
870.145	61.95
870.319	6.66
870.492	-42.5
870.665	84.48
870.838	-56.83
871.011	-60.93
871.185	-26.11
871.358	-11.78
871.531	66.05
871.704	80.38
871.877	29.18
872.05	16.9
872.223	0.51
872.396	61.95
872.569	20.99
872.742	-36.35
872.915	111.1
873.088	4.61
873.261	61.95
873.434	25.09
873.607	80.38
873.78	53.76
873.953	20.99
874.126	76.29
874.299	64
874.471	23.04
874.644	25.09
874.817	8.7
874.99	133.63
875.163	-42.5
875.335	31.23
875.508	84.48
875.681	127.49
875.853	-7.68
876.026	61.95
876.199	104.96
876.371	47.62
876.544	8.7
876.717	49.66
876.889	-50.69
877.062	29.18
877.234	0.51
877.407	39.42
877.579	57.86
877.752	41.47
877.924	45.57
878.097	66.05
878.269	0.51
878.442	-3.58
878.614	0.51
878.786	59.9
878.959	78.33
879.131	90.62
879.303	-50.69
879.476	14.85
879.648	-52.74
879.82	31.23
879.993	-22.02
880.165	29.18
880.337	-1.54
880.509	31.23
880.681	-17.92
880.854	-28.16
881.026	98.81
881.198	139.77
881.37	64
881.542	-24.06
881.714	-3.58
881.886	-11.78
882.058	-52.74
882.23	25.09
882.402	43.52
882.574	-5.63
882.746	80.38
882.918	154.11
883.09	37.38
883.262	33.28
883.434	47.62
883.606	-1.54
883.778	27.14
883.95	16.9
884.122	-1.54
884.293	72.19
884.465	29.18
884.637	61.95
884.809	-19.97
884.98	74.24
885.152	49.66
885.324	74.24
885.496	18.94
885.667	-28.16
885.839	-5.63
886.011	127.49
886.182	53.76
886.354	8.7
886.525	2.56
886.697	-5.63
886.869	84.48
887.04	119.29
887.212	127.49
887.383	86.53
887.555	-17.92
887.726	-89.6
887.897	31.23
888.069	-44.54
888.24	43.52
888.412	0.51
888.583	74.24
888.754	78.33
888.926	-34.3
889.097	31.23
889.268	-15.87
889.44	78.33
889.611	33.28
889.782	18.94
889.953	70.14
890.125	-13.82
890.296	-28.16
890.467	-19.97
890.638	23.04
890.809	25.09
890.98	0.51
891.151	16.9
891.323	43.52
891.494	-17.92
891.665	45.57
891.836	86.53
892.007	-26.11
892.178	39.42
892.349	-1.54
892.52	6.66
892.691	-91.65
892.862	-40.45
893.032	-32.26
893.203	-13.82
893.374	-7.68
893.545	61.95
893.716	-7.68
893.887	47.62
894.057	41.47
894.228	0.51
894.399	10.75
894.57	141.82
894.74	35.33
894.911	45.57
895.082	18.94
895.253	33.28
895.423	33.28
895.594	55.81
895.764	70.14
895.935	31.23
896.106	6.66
896.276	0.51
896.447	-46.59
896.617	-1.54
896.788	-60.93
896.958	-17.92
897.129	-67.07
897.299	53.76
897.47	6.66
897.64	-24.06
897.81	25.09
897.981	6.66
898.151	-44.54
898.322	31.23
898.492	66.05
898.662	47.62
898.832	-5.63
899.003	14.85
899.173	90.62
899.343	2.56
899.513	-71.17
