Data from USB4F104151__57__12-12-25-408.txt Node

Date: Fri Mar 14 12:12:25 EDT 2025
User: louis
Spectrometer: USB4F10415
Trigger mode: 4
Integration Time (sec): 5.000000E-2
Scans to average: 1
Electric dark correction enabled: true
Nonlinearity correction enabled: false
Boxcar width: 0
XAxis mode: Wavelengths
Number of Pixels in Spectrum: 3648
>>>>>Begin Spectral Data<<<<<
178.204	-179.03
178.424	-179.03
178.644	-179.03
178.864	-234.32
179.084	-195.41
179.304	-35.67
179.524	-15.19
179.744	-45.91
179.964	15.53
180.184	9.39
180.404	-25.43
180.624	54.44
180.844	58.54
181.064	3.24
181.283	7.34
181.503	-58.2
181.723	31.91
181.943	-45.91
182.163	81.07
182.383	-54.1
182.602	17.58
182.822	89.26
183.042	33.96
183.262	15.53
183.482	33.96
183.701	66.73
183.921	13.48
184.141	-11.09
184.361	72.87
184.58	115.88
184.8	25.77
185.02	46.25
185.239	7.34
185.459	-2.9
185.679	74.92
185.898	-33.62
186.118	85.16
186.338	25.77
186.557	25.77
186.777	23.72
186.997	72.87
187.216	19.63
187.436	62.63
187.655	60.59
187.875	144.55
188.095	44.2
188.314	105.64
188.534	-0.85
188.753	-58.2
188.973	15.53
189.192	74.92
189.412	91.31
189.631	52.39
189.851	33.96
190.07	134.31
190.29	-0.85
190.509	36.01
190.729	38.06
190.948	60.59
191.168	279.72
191.387	81.07
191.607	-43.86
191.826	54.44
192.045	-88.92
192.265	-13.14
192.484	62.63
192.704	81.07
192.923	29.87
193.142	130.22
193.362	101.55
193.581	128.17
193.8	89.26
194.02	89.26
194.239	36.01
194.458	52.39
194.678	40.11
194.897	50.35
195.116	9.39
195.335	107.69
195.555	31.91
195.774	-2.9
195.993	60.59
196.212	-7
196.432	-13.14
196.651	11.43
196.87	79.02
197.089	148.65
197.308	56.49
197.528	140.46
197.747	-50
197.966	52.39
198.185	95.4
198.404	-43.86
198.623	50.35
198.842	171.18
199.062	27.82
199.281	95.4
199.5	21.67
199.719	93.35
199.938	76.97
200.157	169.13
200.376	74.92
200.595	81.07
200.814	3.24
201.033	-31.57
201.252	36.01
201.471	62.63
201.69	44.2
201.909	60.59
202.128	31.91
202.347	109.74
202.566	74.92
202.785	-4.95
203.004	-13.14
203.223	103.59
203.442	99.5
203.661	-17.24
203.879	1.19
204.098	85.16
204.317	-4.95
204.536	52.39
204.755	76.97
204.974	44.2
205.193	81.07
205.411	93.35
205.63	11.43
205.849	64.68
206.068	64.68
206.287	-72.53
206.505	140.46
206.724	-0.85
206.943	68.78
207.162	-0.85
207.381	27.82
207.599	29.87
207.818	38.06
208.037	-21.33
208.255	111.78
208.474	48.3
208.693	117.93
208.911	72.87
209.13	74.92
209.349	15.53
209.567	38.06
209.786	150.7
210.005	109.74
210.223	103.59
210.442	-19.29
210.661	79.02
210.879	-21.33
211.098	74.92
211.316	23.72
211.535	48.3
211.753	-37.72
211.972	13.48
212.191	52.39
212.409	36.01
212.628	38.06
212.846	11.43
213.065	27.82
213.283	113.83
213.502	50.35
213.72	23.72
213.938	62.63
214.157	38.06
214.375	68.78
214.594	54.44
214.812	76.97
215.031	33.96
215.249	64.68
215.467	19.63
215.686	74.92
215.904	42.15
216.122	17.58
216.341	83.11
216.559	62.63
216.778	52.39
216.996	9.39
217.214	-2.9
217.432	5.29
217.651	-19.29
217.869	74.92
218.087	74.92
218.306	31.91
218.524	130.22
218.742	-21.33
218.96	38.06
219.179	27.82
219.397	72.87
219.615	150.7
219.833	42.15
220.051	25.77
220.27	66.73
220.488	97.45
220.706	29.87
220.924	81.07
221.142	52.39
221.36	15.53
221.578	105.64
221.796	19.63
222.015	74.92
222.233	25.77
222.451	140.46
222.669	19.63
222.887	60.59
223.105	19.63
223.323	52.39
223.541	-21.33
223.759	109.74
223.977	7.34
224.195	60.59
224.413	56.49
224.631	72.87
224.849	79.02
225.067	68.78
225.285	25.77
225.503	38.06
225.721	-37.72
225.939	29.87
226.157	-19.29
226.375	111.78
226.592	-29.52
226.81	5.29
227.028	52.39
227.246	154.79
227.464	-19.29
227.682	91.31
227.9	44.2
228.117	38.06
228.335	72.87
228.553	3.24
228.771	15.53
228.989	40.11
229.206	62.63
229.424	17.58
229.642	64.68
229.86	31.91
230.077	70.83
230.295	-17.24
230.513	91.31
230.731	52.39
230.948	111.78
231.166	76.97
231.384	46.25
231.601	46.25
231.819	130.22
232.037	3.24
232.254	79.02
232.472	60.59
232.689	13.48
232.907	81.07
233.125	21.67
233.342	50.35
233.56	19.63
233.777	44.2
233.995	36.01
234.213	177.32
234.43	76.97
234.648	5.29
234.865	42.15
235.083	52.39
235.3	-54.1
235.518	13.48
235.735	128.17
235.953	52.39
236.17	17.58
236.388	9.39
236.605	-7
236.822	79.02
237.04	126.12
237.257	54.44
237.475	-37.72
237.692	50.35
237.909	66.73
238.127	7.34
238.344	15.53
238.562	56.49
238.779	-7
238.996	-45.91
239.214	23.72
239.431	89.26
239.648	-25.43
239.865	42.15
240.083	46.25
240.3	56.49
240.517	15.53
240.735	25.77
240.952	36.01
241.169	81.07
241.386	-4.95
241.603	3.24
241.821	72.87
242.038	105.64
242.255	119.98
242.472	56.49
242.689	29.87
242.907	85.16
243.124	7.34
243.341	46.25
243.558	40.11
243.775	7.34
243.992	13.48
244.209	31.91
244.426	146.6
244.643	5.29
244.86	54.44
245.078	60.59
245.295	42.15
245.512	21.67
245.729	81.07
245.946	-17.24
246.163	7.34
246.38	9.39
246.597	72.87
246.814	62.63
247.031	23.72
247.248	117.93
247.464	103.59
247.681	66.73
247.898	101.55
248.115	109.74
248.332	-9.05
248.549	85.16
248.766	130.22
248.983	103.59
249.2	36.01
249.417	60.59
249.633	-2.9
249.85	40.11
250.067	-9.05
250.284	-11.09
250.501	134.31
250.717	68.78
250.934	-9.05
251.151	19.63
251.368	-17.24
251.585	36.01
251.801	46.25
252.018	-23.38
252.235	40.11
252.451	64.68
252.668	48.3
252.885	3.24
253.102	89.26
253.318	-9.05
253.535	-41.81
253.752	11.43
253.968	11.43
254.185	1.19
254.401	13.48
254.618	79.02
254.835	48.3
255.051	85.16
255.268	122.02
255.484	103.59
255.701	62.63
255.917	95.4
256.134	-58.2
256.351	23.72
256.567	-33.62
256.784	36.01
257	-25.43
257.217	111.78
257.433	115.88
257.65	70.83
257.866	58.54
258.082	-11.09
258.299	7.34
258.515	72.87
258.732	-74.58
258.948	29.87
259.165	56.49
259.381	48.3
259.597	38.06
259.814	-45.91
260.03	-11.09
260.246	25.77
260.463	79.02
260.679	79.02
260.895	29.87
261.112	33.96
261.328	-9.05
261.544	-54.1
261.761	74.92
261.977	29.87
262.193	62.63
262.409	111.78
262.626	50.35
262.842	-39.76
263.058	38.06
263.274	89.26
263.49	-23.38
263.707	105.64
263.923	81.07
264.139	-17.24
264.355	36.01
264.571	154.79
264.787	70.83
265.004	83.11
265.22	-7
265.436	31.91
265.652	11.43
265.868	-2.9
266.084	74.92
266.3	-39.76
266.516	-78.68
266.732	23.72
266.948	54.44
267.164	46.25
267.38	60.59
267.596	50.35
267.812	52.39
268.028	81.07
268.244	31.91
268.46	115.88
268.676	29.87
268.892	17.58
269.108	3.24
269.324	-23.38
269.54	-45.91
269.756	38.06
269.972	13.48
270.188	9.39
270.403	-29.52
270.619	74.92
270.835	109.74
271.051	58.54
271.267	48.3
271.483	66.73
271.698	97.45
271.914	44.2
272.13	50.35
272.346	19.63
272.562	72.87
272.777	167.08
272.993	-2.9
273.209	21.67
273.425	52.39
273.64	36.01
273.856	36.01
274.072	7.34
274.287	17.58
274.503	3.24
274.719	62.63
274.934	60.59
275.15	27.82
275.366	95.4
275.581	33.96
275.797	25.77
276.012	76.97
276.228	62.63
276.444	27.82
276.659	124.07
276.875	-13.14
277.09	60.59
277.306	-0.85
277.521	66.73
277.737	-4.95
277.952	17.58
278.168	74.92
278.383	23.72
278.599	48.3
278.814	15.53
279.03	17.58
279.245	66.73
279.461	87.21
279.676	38.06
279.892	-37.72
280.107	-17.24
280.322	-27.48
280.538	44.2
280.753	101.55
280.969	76.97
281.184	105.64
281.399	72.87
281.615	81.07
281.83	79.02
282.045	-78.68
282.26	-25.43
282.476	19.63
282.691	124.07
282.906	107.69
283.122	-25.43
283.337	42.15
283.552	46.25
283.767	56.49
283.983	25.77
284.198	-23.38
284.413	93.35
284.628	-19.29
284.843	85.16
285.058	91.31
285.274	42.15
285.489	-31.57
285.704	13.48
285.919	11.43
286.134	17.58
286.349	79.02
286.564	105.64
286.779	140.46
286.995	13.48
287.21	-15.19
287.425	44.2
287.64	13.48
287.855	48.3
288.07	-64.34
288.285	99.5
288.5	91.31
288.715	119.98
288.93	5.29
289.145	-60.24
289.36	44.2
289.575	-25.43
289.79	62.63
290.004	25.77
290.219	27.82
290.434	3.24
290.649	42.15
290.864	50.35
291.079	87.21
291.294	87.21
291.509	1.19
291.724	-29.52
291.938	17.58
292.153	93.35
292.368	5.29
292.583	1.19
292.798	70.83
293.012	13.48
293.227	-23.38
293.442	44.2
293.657	13.48
293.871	109.74
294.086	70.83
294.301	52.39
294.516	83.11
294.73	13.48
294.945	17.58
295.16	85.16
295.374	119.98
295.589	156.84
295.804	38.06
296.018	54.44
296.233	72.87
296.447	50.35
296.662	38.06
296.877	117.93
297.091	79.02
297.306	11.43
297.52	-19.29
297.735	70.83
297.949	64.68
298.164	50.35
298.378	17.58
298.593	46.25
298.807	29.87
299.022	3.24
299.236	68.78
299.451	27.82
299.665	68.78
299.88	-0.85
300.094	-13.14
300.309	31.91
300.523	52.39
300.737	-41.81
300.952	13.48
301.166	11.43
301.381	-19.29
301.595	109.74
301.809	62.63
302.024	23.72
302.238	1.19
302.452	29.87
302.667	11.43
302.881	-9.05
303.095	103.59
303.309	91.31
303.524	-50
303.738	-31.57
303.952	3.24
304.166	95.4
304.381	-31.57
304.595	113.83
304.809	-7
305.023	36.01
305.237	27.82
305.452	-0.85
305.666	68.78
305.88	105.64
306.094	42.15
306.308	91.31
306.522	27.82
306.736	25.77
306.95	38.06
307.164	21.67
307.379	-15.19
307.593	124.07
307.807	89.26
308.021	99.5
308.235	74.92
308.449	-7
308.663	36.01
308.877	177.32
309.091	3.24
309.305	85.16
309.519	13.48
309.733	70.83
309.947	-4.95
310.161	105.64
310.374	27.82
310.588	68.78
310.802	36.01
311.016	25.77
311.23	79.02
311.444	46.25
311.658	85.16
311.872	72.87
312.085	64.68
312.299	42.15
312.513	89.26
312.727	19.63
312.941	-21.33
313.154	66.73
313.368	54.44
313.582	13.48
313.796	23.72
314.009	11.43
314.223	83.11
314.437	62.63
314.651	66.73
314.864	9.39
315.078	-19.29
315.292	-25.43
315.505	42.15
315.719	79.02
315.933	74.92
316.146	103.59
316.36	38.06
316.573	134.31
316.787	40.11
317.001	76.97
317.214	-13.14
317.428	29.87
317.641	19.63
317.855	38.06
318.068	19.63
318.282	17.58
318.495	109.74
318.709	44.2
318.922	-25.43
319.136	126.12
319.349	97.45
319.563	36.01
319.776	83.11
319.99	-84.82
320.203	-7
320.417	17.58
320.63	-2.9
320.843	173.22
321.057	44.2
321.27	23.72
321.483	25.77
321.697	148.65
321.91	27.82
322.124	83.11
322.337	-13.14
322.55	17.58
322.763	11.43
322.977	48.3
323.19	1.19
323.403	44.2
323.617	115.88
323.83	138.41
324.043	23.72
324.256	72.87
324.469	9.39
324.683	48.3
324.896	101.55
325.109	66.73
325.322	17.58
325.535	111.78
325.748	107.69
325.962	38.06
326.175	23.72
326.388	13.48
326.601	64.68
326.814	52.39
327.027	3.24
327.24	68.78
327.453	-50
327.666	83.11
327.879	79.02
328.092	23.72
328.305	117.93
328.518	44.2
328.731	50.35
328.944	36.01
329.157	64.68
329.37	33.96
329.583	115.88
329.796	52.39
330.009	15.53
330.222	27.82
330.435	48.3
330.648	66.73
330.861	79.02
331.073	-9.05
331.286	85.16
331.499	60.59
331.712	25.77
331.925	91.31
332.138	52.39
332.35	103.59
332.563	5.29
332.776	117.93
332.989	29.87
333.202	38.06
333.414	-33.62
333.627	31.91
333.84	62.63
334.053	11.43
334.265	44.2
334.478	-19.29
334.691	29.87
334.903	105.64
335.116	-2.9
335.329	29.87
335.541	13.48
335.754	99.5
335.966	62.63
336.179	-4.95
336.392	40.11
336.604	66.73
336.817	68.78
337.029	81.07
337.242	-2.9
337.454	111.78
337.667	15.53
337.88	74.92
338.092	76.97
338.305	70.83
338.517	-25.43
338.729	117.93
338.942	85.16
339.154	46.25
339.367	17.58
339.579	128.17
339.792	-27.48
340.004	79.02
340.217	48.3
340.429	72.87
340.641	33.96
340.854	48.3
341.066	79.02
341.278	33.96
341.491	150.7
341.703	81.07
341.915	31.91
342.128	27.82
342.34	124.07
342.552	38.06
342.764	7.34
342.977	54.44
343.189	13.48
343.401	48.3
343.613	21.67
343.826	107.69
344.038	23.72
344.25	31.91
344.462	-13.14
344.674	87.21
344.886	-19.29
345.099	27.82
345.311	19.63
345.523	56.49
345.735	48.3
345.947	64.68
346.159	-27.48
346.371	62.63
346.583	-11.09
346.795	185.51
347.007	93.35
347.219	44.2
347.431	56.49
347.643	122.02
347.855	42.15
348.067	60.59
348.279	25.77
348.491	48.3
348.703	58.54
348.915	107.69
349.127	27.82
349.339	93.35
349.551	9.39
349.763	38.06
349.975	50.35
350.187	119.98
350.399	93.35
350.61	38.06
350.822	23.72
351.034	72.87
351.246	74.92
351.458	81.07
351.669	42.15
351.881	17.58
352.093	46.25
352.305	-0.85
352.517	25.77
352.728	91.31
352.94	64.68
353.152	109.74
353.363	74.92
353.575	40.11
353.787	52.39
353.999	99.5
354.21	119.98
354.422	74.92
354.633	-13.14
354.845	-2.9
355.057	-31.57
355.268	56.49
355.48	117.93
355.692	-54.1
355.903	50.35
356.115	-2.9
356.326	72.87
356.538	48.3
356.749	62.63
356.961	113.83
357.172	60.59
357.384	50.35
357.595	148.65
357.807	46.25
358.018	3.24
358.23	58.54
358.441	89.26
358.653	89.26
358.864	83.11
359.075	113.83
359.287	95.4
359.498	29.87
359.709	126.12
359.921	25.77
360.132	97.45
360.344	144.55
360.555	79.02
360.766	62.63
360.977	81.07
361.189	126.12
361.4	31.91
361.611	97.45
361.823	171.18
362.034	66.73
362.245	21.67
362.456	85.16
362.667	58.54
362.879	31.91
363.09	-41.81
363.301	40.11
363.512	13.48
363.723	64.68
363.935	27.82
364.146	89.26
364.357	29.87
364.568	56.49
364.779	-0.85
364.99	27.82
365.201	48.3
365.412	177.32
365.623	33.96
365.834	33.96
366.045	11.43
366.256	87.21
366.467	40.11
366.678	95.4
366.889	89.26
367.1	-19.29
367.311	33.96
367.522	13.48
367.733	85.16
367.944	122.02
368.155	15.53
368.366	150.7
368.577	50.35
368.788	23.72
368.999	7.34
369.209	33.96
369.42	66.73
369.631	193.7
369.842	68.78
370.053	48.3
370.264	97.45
370.474	-52.05
370.685	66.73
370.896	44.2
371.107	81.07
371.317	111.78
371.528	-7
371.739	132.26
371.95	99.5
372.16	27.82
372.371	31.91
372.582	64.68
372.792	68.78
373.003	113.83
373.214	56.49
373.424	95.4
373.635	13.48
373.846	42.15
374.056	74.92
374.267	146.6
374.477	117.93
374.688	-11.09
374.898	27.82
375.109	9.39
375.319	122.02
375.53	109.74
375.74	109.74
375.951	9.39
376.161	25.77
376.372	23.72
376.582	40.11
376.793	138.41
377.003	64.68
377.214	1.19
377.424	111.78
377.635	60.59
377.845	-23.38
378.055	105.64
378.266	9.39
378.476	68.78
378.686	-4.95
378.897	62.63
379.107	124.07
379.317	85.16
379.528	11.43
379.738	79.02
379.948	3.24
380.158	81.07
380.369	44.2
380.579	103.59
380.789	40.11
380.999	113.83
381.21	54.44
381.42	122.02
381.63	138.41
381.84	64.68
382.05	95.4
382.261	76.97
382.471	115.88
382.681	122.02
382.891	103.59
383.101	85.16
383.311	29.87
383.521	15.53
383.731	158.89
383.941	93.35
384.151	19.63
384.361	40.11
384.571	76.97
384.781	48.3
384.991	167.08
385.201	111.78
385.411	89.26
385.621	103.59
385.831	128.17
386.041	-0.85
386.251	72.87
386.461	72.87
386.671	7.34
386.881	109.74
387.091	76.97
387.301	85.16
387.511	-17.24
387.72	119.98
387.93	68.78
388.14	7.34
388.35	132.26
388.56	140.46
388.769	60.59
388.979	79.02
389.189	56.49
389.399	29.87
389.609	33.96
389.818	107.69
390.028	7.34
390.238	66.73
390.447	23.72
390.657	66.73
390.867	42.15
391.076	-0.85
391.286	91.31
391.496	105.64
391.705	38.06
391.915	40.11
392.125	146.6
392.334	89.26
392.544	99.5
392.753	68.78
392.963	21.67
393.172	62.63
393.382	68.78
393.591	210.09
393.801	150.7
394.01	150.7
394.22	89.26
394.429	42.15
394.639	38.06
394.848	52.39
395.058	68.78
395.267	105.64
395.477	138.41
395.686	115.88
395.895	158.89
396.105	177.32
396.314	76.97
396.524	87.21
396.733	101.55
396.942	144.55
397.152	136.36
397.361	144.55
397.57	122.02
397.78	173.22
397.989	93.35
398.198	212.14
398.407	93.35
398.617	115.88
398.826	162.98
399.035	111.78
399.244	171.18
399.453	126.12
399.663	97.45
399.872	130.22
400.081	31.91
400.29	169.13
400.499	42.15
400.708	138.41
400.917	128.17
401.127	81.07
401.336	54.44
401.545	220.33
401.754	230.57
401.963	185.51
402.172	158.89
402.381	48.3
402.59	115.88
402.799	160.94
403.008	136.36
403.217	158.89
403.426	175.27
403.635	109.74
403.844	160.94
404.053	179.37
404.262	107.69
404.471	218.28
404.68	220.33
404.888	171.18
405.097	126.12
405.306	167.08
405.515	177.32
405.724	181.42
405.933	222.38
406.142	195.75
406.35	255.14
406.559	246.95
406.768	191.66
406.977	269.48
407.185	222.38
407.394	191.66
407.603	210.09
407.812	292.01
408.02	277.67
408.229	236.71
408.438	255.14
408.646	177.32
408.855	261.29
409.064	308.39
409.272	224.42
409.481	234.66
409.69	283.81
409.898	306.34
410.107	365.73
410.315	351.4
410.524	312.49
410.733	384.16
410.941	371.88
411.15	371.88
411.358	435.36
411.567	464.04
411.775	400.55
411.984	531.62
412.192	480.42
412.401	490.66
412.609	550.05
412.818	625.83
413.026	646.3
413.234	568.48
413.443	496.8
413.651	535.71
413.86	634.02
414.068	720.03
414.276	783.52
414.485	650.4
414.693	717.98
414.901	804
415.11	836.77
415.318	820.38
415.526	836.77
415.734	887.97
415.943	986.27
416.151	865.44
416.359	943.26
416.567	842.91
416.776	1047.71
416.984	1053.85
417.192	1143.96
417.4	1162.39
417.608	1150.11
417.817	1107.1
418.025	1275.03
418.233	1244.31
418.441	1240.22
418.649	1322.13
418.857	1426.58
419.065	1479.83
419.273	1359
419.481	1428.63
419.689	1549.46
419.897	1623.19
420.105	1569.94
420.313	1723.54
420.521	1838.22
420.729	1862.8
420.937	1776.78
421.145	1848.46
421.353	1963.15
421.561	2071.69
421.769	2180.23
421.977	2235.53
422.185	2180.23
422.393	2198.67
422.601	2417.8
422.809	2499.72
423.017	2464.9
423.224	2487.43
423.432	2753.66
423.64	2606.21
423.848	2921.6
424.056	2739.33
424.263	3206.27
424.471	3073.15
424.679	3122.3
424.887	3355.77
425.094	3435.64
425.302	3353.72
425.51	3452.02
425.718	3652.72
425.925	3701.87
426.133	3722.35
426.341	4236.39
426.548	4172.91
426.756	4267.11
426.964	4279.4
427.171	4451.43
427.379	4465.77
427.586	4521.06
427.794	4711.52
428.001	4944.99
428.209	5276.76
428.417	5104.73
428.624	5461.08
428.832	5452.89
429.039	5338.2
429.247	5493.85
429.454	5870.67
429.662	6497.35
429.869	5938.26
430.076	6448.2
430.284	6284.36
430.491	6241.36
430.699	6970.43
430.906	6876.23
431.114	6923.33
431.321	7132.22
431.528	7160.89
431.736	7853.11
431.943	7969.84
432.15	7920.69
432.358	8117.29
432.565	8336.43
432.772	8145.97
432.979	8735.78
433.187	8889.38
433.394	8768.55
433.601	9526.3
433.808	9483.29
434.016	9597.98
434.223	9907.22
434.43	10509.32
434.637	10146.83
434.844	10781.7
435.052	11127.81
435.259	10830.85
435.466	11344.89
435.673	10800.13
435.88	11729.91
436.087	12274.67
436.294	12008.44
436.501	11992.05
436.708	12360.69
436.915	12602.35
437.122	13415.39
437.329	13065.19
437.537	13585.37
437.743	13954.01
437.95	13597.66
438.157	14418.89
438.364	14879.69
438.571	14844.87
438.778	14912.46
438.985	16194.48
439.192	15612.86
439.399	16305.07
439.606	15868.86
439.813	16499.63
440.02	17259.43
440.227	17318.82
440.433	17025.96
440.64	17388.45
440.847	17417.12
441.054	17800.09
441.261	19264.39
441.467	18760.59
441.674	19182.47
441.881	20120.44
442.088	19770.24
442.294	19436.42
442.501	20331.38
442.708	20411.25
442.914	21619.55
443.121	21891.93
443.328	21408.61
443.534	23337.8
443.741	22512.47
443.948	21840.73
444.154	23526.21
444.361	23573.31
444.568	23669.57
444.774	23472.96
444.981	23831.36
445.187	24552.24
445.394	25539.36
445.6	25303.85
445.807	27863.81
446.013	26557.21
446.22	26727.19
446.426	27994.88
446.633	27925.25
446.839	28967.66
447.046	27935.49
447.252	29500.14
447.459	29670.12
447.665	29342.44
447.871	30485.21
448.078	31787.72
448.284	30632.66
448.491	31046.35
448.697	32139.97
448.903	32768.69
449.11	32959.16
449.316	32074.43
449.522	32877.24
449.728	33710.76
449.935	34101.92
450.141	33594.03
450.347	34710.17
450.553	33411.76
450.76	33966.76
450.966	35644.04
451.172	34599.58
451.378	35433.1
451.584	34914.97
451.791	35818.12
451.997	35035.8
452.203	35926.66
452.409	36037.25
452.615	36033.16
452.821	34421.41
453.027	34351.77
453.233	36158.08
453.44	34620.06
453.646	34876.05
453.852	35017.36
454.058	35590.8
454.264	34329.25
454.47	34828.95
454.676	34319.01
454.882	35504.78
455.088	32543.42
455.294	32807.61
455.5	33104.56
455.705	33585.83
455.911	32551.61
456.117	31623.88
456.323	31216.33
456.529	29025.01
456.735	30644.95
456.941	30069.47
457.147	29743.84
457.352	28230.4
457.558	28195.58
457.764	28027.65
457.97	27888.39
458.176	26925.84
458.381	26753.81
458.587	25668.39
458.793	26161.95
458.999	24525.62
459.204	26110.75
459.41	25129.77
459.616	23671.62
459.821	23759.68
460.027	23417.67
460.233	22739.79
460.438	21752.67
460.644	22051.67
460.85	21060.46
461.055	20622.19
461.261	20589.42
461.466	19047.3
461.672	18789.26
461.878	19886.97
462.083	18451.35
462.289	18109.33
462.494	17693.6
462.7	17136.55
462.905	16677.8
463.111	17036.2
463.316	17189.8
463.522	16753.58
463.727	16978.86
463.932	16769.96
464.138	16446.38
464.343	16653.23
464.549	16004.02
464.754	16481.2
464.959	16479.15
465.165	16354.23
465.37	15659.96
465.575	15276.99
465.781	15571.9
465.986	15748.03
466.191	15205.31
466.397	15076.29
466.602	14298.06
466.807	14885.83
467.012	14941.13
467.218	14668.75
467.423	14590.92
467.628	14666.7
467.833	15184.83
468.038	14343.12
468.244	14080.98
468.449	14683.08
468.654	14183.38
468.859	14166.99
469.064	13847.51
469.269	13577.18
469.474	13591.52
469.679	13626.33
469.885	13388.77
470.09	13589.47
470.295	13470.69
470.5	13018.08
470.705	13233.12
470.91	13030.37
471.115	12608.49
471.32	12678.12
471.525	12999.65
471.73	12696.55
471.935	12211.18
472.139	12135.41
472.344	12153.84
472.549	12030.96
472.754	12055.54
472.959	11654.14
473.164	11449.34
473.369	11424.76
473.574	11666.42
473.778	11504.64
473.983	11271.17
474.188	11316.22
474.393	10851.33
474.598	10986.5
474.802	10746.89
475.007	10476.55
475.212	10882.05
475.417	10341.39
475.621	10341.39
475.826	10347.53
476.031	10437.64
476.235	9798.68
476.44	10222.61
476.645	9540.63
476.849	9872.4
477.054	9835.54
477.259	9522.2
477.463	9487.39
477.668	9229.34
477.872	9534.49
478.077	9241.63
478.282	8911.91
478.486	9053.22
478.691	9012.26
478.895	8948.77
479.1	8694.82
479.304	9059.36
479.509	8580.14
479.713	8936.48
479.918	8412.2
480.122	8442.92
480.326	8600.62
480.531	8551.46
480.735	8473.64
480.94	8352.81
481.144	8428.59
481.348	8352.81
481.553	8221.74
481.757	8156.21
481.961	8229.93
482.166	8326.19
482.37	8195.12
482.574	8080.43
482.778	8141.87
482.983	8148.01
483.187	8055.86
483.391	8133.68
483.595	8066.1
483.8	7939.12
484.004	8125.49
484.208	8092.72
484.412	8129.58
484.616	7789.62
484.821	8152.11
485.025	8055.86
485.229	8336.43
485.433	7849.01
485.637	8113.2
485.841	7996.46
486.045	8021.04
486.249	8012.85
486.453	8113.2
486.657	8041.52
486.861	8129.58
487.065	7945.27
487.269	8012.85
487.473	7769.14
487.677	8131.63
487.881	8023.09
488.085	7996.46
488.289	8000.56
488.493	7900.21
488.697	8170.54
488.901	8021.04
489.105	7947.31
489.309	7990.32
489.512	8088.62
489.716	8086.58
489.92	8023.09
490.124	7959.6
490.328	8199.21
490.531	8078.38
490.735	8143.92
490.939	8090.67
491.143	8070.19
491.346	8254.51
491.55	8152.11
491.754	8272.94
491.958	8211.5
492.161	8236.08
492.365	8332.33
492.569	8279.08
492.772	8348.72
492.976	8236.08
493.18	8367.15
493.383	8444.97
493.587	8539.18
493.79	8696.87
493.994	8569.9
494.197	8651.81
494.401	8741.93
494.605	8592.42
494.808	8668.2
495.012	8979.49
495.215	8854.56
495.419	9065.5
495.622	8868.9
495.825	9122.85
496.029	9278.49
496.232	9272.35
496.436	9278.49
496.639	9391.13
496.843	9315.36
497.046	9653.27
497.249	9757.72
497.453	9804.82
497.656	9798.68
497.859	9882.64
498.063	9927.7
498.266	10302.48
498.469	10023.95
498.673	10103.82
498.876	10257.42
499.079	10679.3
499.282	10537.99
499.485	10787.85
499.689	10853.38
499.892	10824.71
500.095	10875.91
500.298	11293.69
500.501	10955.78
500.705	11375.61
500.908	11375.61
501.111	11582.46
501.314	11455.48
501.517	11973.62
501.72	11848.69
501.923	11721.72
502.126	12147.7
502.329	12323.82
502.532	12362.73
502.735	12571.63
502.938	12708.84
503.141	12651.5
503.344	12997.6
503.547	13194.21
503.75	13102.05
503.953	13169.63
504.156	13403.1
504.359	13413.34
504.562	13515.74
504.765	13792.22
504.968	14091.22
505.17	14320.59
505.373	14107.6
505.576	14613.45
505.779	14486.48
505.982	14607.31
506.185	15084.48
506.387	14994.37
506.59	15092.68
506.793	15414.21
506.996	15287.23
507.198	15793.08
507.401	15721.4
507.604	15799.23
507.807	16030.65
508.009	16210.87
508.212	16442.29
508.415	16497.58
508.617	16731.05
508.82	16694.19
509.022	16399.28
509.225	17068.97
509.428	17202.08
509.63	17388.45
509.833	17417.12
510.035	17914.78
510.238	17894.3
510.44	18043.8
510.643	18264.98
510.845	18529.17
511.048	18480.02
511.25	18645.9
511.453	18553.74
511.655	19145.61
511.858	19153.8
512.06	19637.12
512.262	19297.16
512.465	19342.21
512.667	19940.22
512.87	19803
513.072	19794.81
513.274	20177.78
513.477	20265.85
513.679	20474.74
513.881	20777.84
514.084	21048.17
514.286	21058.41
514.488	21175.14
514.69	21425
514.893	21754.72
515.095	21568.35
515.297	21932.89
515.499	22006.62
515.701	22256.47
515.904	22438.74
516.106	22666.06
516.308	22733.65
516.51	23010.12
516.712	23071.56
516.914	23360.33
517.116	23163.72
517.318	23429.96
517.52	23530.31
517.722	23647.04
517.925	23984.96
518.127	24363.83
518.329	24804.14
518.531	24349.5
518.733	24658.74
518.935	24777.52
519.136	25031.47
519.338	25142.06
519.54	25045.8
519.742	25830.18
519.944	25735.97
520.146	25836.32
520.348	26243.87
520.55	26376.98
520.752	26266.39
520.954	26520.34
521.155	26485.53
521.357	26589.97
521.559	26876.69
521.761	27370.25
521.963	27470.6
522.164	27249.42
522.366	27239.18
522.568	27286.28
522.77	27826.95
522.971	28269.31
523.173	27970.3
523.375	27947.78
523.576	28103.42
523.778	28199.68
523.98	28289.79
524.181	28691.19
524.383	28648.18
524.584	28742.39
524.786	29004.53
524.988	28611.32
525.189	29399.79
525.391	29301.48
525.592	29209.32
525.794	29442.79
525.995	29547.24
526.197	29543.14
526.398	29172.46
526.6	29555.43
526.801	30018.27
527.003	29903.59
527.204	29774.56
527.406	30169.82
527.607	29926.11
527.808	30196.45
528.01	29909.73
528.211	30194.4
528.412	30221.02
528.614	30345.95
528.815	30081.76
529.016	30655.19
529.218	30304.99
529.419	30022.37
529.62	30470.87
529.822	30329.56
530.023	30579.42
530.224	30302.94
530.425	30253.79
530.626	30268.12
530.828	30157.53
531.029	30919.38
531.23	30540.5
531.431	30403.29
531.632	31003.35
531.833	30999.25
532.035	30565.08
532.236	30651.09
532.437	30696.15
532.638	30204.64
532.839	30859.99
533.04	30634.71
533.241	30683.86
533.442	31029.97
533.643	30618.33
533.844	30485.21
534.045	30724.82
534.246	30053.09
534.447	30745.3
534.648	30466.78
534.849	30702.29
535.05	30229.21
535.251	30495.45
535.451	30419.67
535.652	30694.1
535.853	30595.8
536.054	30628.57
536.255	30755.54
536.456	30403.29
536.657	30626.52
536.857	30816.98
537.058	30411.48
537.259	30589.66
537.46	30706.39
537.66	30386.91
537.861	30382.81
538.062	30630.62
538.263	30307.04
538.463	30352.09
538.664	30630.62
538.865	30350.04
539.065	30769.88
539.266	29891.3
539.466	30542.55
539.667	30120.67
539.868	30716.63
540.068	30304.99
540.269	30243.55
540.469	30542.55
540.67	30673.62
540.87	30085.86
541.071	30319.32
541.271	30419.67
541.472	30239.45
541.672	30386.91
541.873	29864.67
542.073	29770.47
542.274	30536.41
542.474	30333.66
542.675	30128.86
542.875	30503.64
543.075	30200.54
543.276	30210.78
543.476	30503.64
543.676	30120.67
543.877	30159.58
544.077	30139.1
544.277	30229.21
544.478	29946.59
544.678	30669.53
544.878	30014.18
545.078	30087.9
545.279	29934.31
545.479	30010.08
545.679	30227.17
545.879	30048.99
546.079	30012.13
546.28	30163.68
546.48	29498.09
546.68	29842.15
546.88	30487.26
547.08	30046.94
547.28	29854.44
547.48	29700.84
547.68	30018.27
547.88	29829.86
548.081	29962.98
548.281	29815.52
548.481	29623.01
548.681	30229.21
548.881	29874.91
549.081	29807.33
549.28	29723.37
549.48	29870.82
549.68	29883.11
549.88	30024.42
550.08	29717.22
550.28	29803.24
550.48	29778.66
550.68	29700.84
550.88	29690.6
551.08	29655.78
551.279	29901.54
551.479	29856.48
551.679	29854.44
551.879	29557.48
552.079	29387.5
552.278	29385.45
552.478	29764.32
552.678	29545.19
552.878	29407.98
553.077	29428.46
553.277	29281
553.477	29694.69
553.676	29793
553.876	29850.34
554.076	29360.87
554.275	29393.64
554.475	29471.46
554.674	29493.99
554.874	29309.68
555.074	29281
555.273	29569.77
555.473	29633.25
555.672	29283.05
555.872	29252.33
556.071	29381.35
556.271	29733.6
556.47	29143.79
556.67	29256.43
556.869	29098.73
557.068	29487.85
557.268	29164.27
557.467	29102.83
557.667	29299.44
557.866	29356.78
558.065	29399.79
558.265	29194.99
558.464	29070.06
558.663	29321.96
558.863	29043.44
559.062	29797.09
559.261	29078.25
559.461	29405.93
559.66	28928.75
559.859	29039.34
560.058	29250.28
560.258	28910.32
560.457	28877.55
560.656	29119.21
560.855	29221.61
561.054	29076.21
561.253	28971.76
561.453	29025.01
561.652	29219.56
561.851	29035.25
562.05	28721.91
562.249	28941.04
562.448	29002.48
562.647	29029.1
562.846	28885.75
563.045	28785.4
563.244	28642.04
563.443	29149.93
563.642	28644.09
563.841	28877.55
564.04	28797.68
564.239	28928.75
564.438	28742.39
564.637	28889.84
564.836	29065.97
565.035	28646.13
565.234	28736.24
565.432	28476.15
565.631	28502.78
565.83	28648.18
566.029	28764.92
566.228	28357.37
566.427	28357.37
566.625	28267.26
566.824	28011.26
567.023	28904.18
567.222	28347.13
567.42	28558.07
567.619	28404.47
567.818	28207.87
568.016	28928.75
568.215	28459.77
568.414	28117.76
568.612	28228.35
568.811	28220.16
569.01	28531.45
569.208	28072.7
569.407	28300.03
569.605	28007.17
569.804	28138.24
570.002	28027.65
570.201	28431.1
570.4	28095.23
570.598	28087.04
570.797	27630.34
570.995	27947.78
571.193	27656.96
571.392	28021.5
571.59	27751.17
571.789	27867.91
571.987	28021.5
572.186	27958.02
572.384	28005.12
572.582	28093.18
572.781	28328.7
572.979	27511.56
573.177	28035.84
573.376	27665.16
573.574	27788.03
573.772	27630.34
573.971	27906.82
574.169	27306.76
574.367	27509.51
574.565	27667.2
574.763	27421.45
574.962	27405.06
575.16	26880.78
575.358	27728.64
575.556	27278.09
575.754	27908.86
575.952	26993.42
576.151	27298.57
576.349	26800.91
576.547	27185.93
576.745	27187.98
576.943	27327.24
577.141	27061.01
577.339	27230.99
577.537	27052.81
577.735	27253.51
577.933	26964.75
578.131	27067.15
578.329	27183.88
578.527	26802.96
578.725	26940.18
578.923	27271.95
579.121	27022.09
579.319	26774.29
579.516	26770.19
579.714	26661.65
579.912	26757.91
580.11	26675.99
580.308	26622.74
580.506	26604.31
580.704	26110.75
580.901	26606.36
581.099	26561.3
581.297	26491.67
581.495	26422.04
581.692	26561.3
581.89	26217.24
582.088	26204.95
582.285	26372.89
582.483	26372.89
582.681	26385.18
582.878	26028.83
583.076	26563.35
583.274	26262.3
583.471	26164
583.669	26176.28
583.866	26002.21
584.064	26157.85
584.262	25899.81
584.459	26006.3
584.657	25959.2
584.854	25975.58
585.052	25850.66
585.249	26182.43
585.447	26039.07
585.644	25877.28
585.841	25848.61
586.039	26207
586.236	25510.69
586.434	25738.02
586.631	25565.99
586.828	25561.89
587.026	25533.22
587.223	25416.49
587.42	25664.29
587.618	25891.62
587.815	25285.42
588.012	25520.93
588.21	25434.92
588.407	25905.95
588.604	25398.06
588.801	25275.18
588.999	25578.28
589.196	25293.61
589.393	25451.3
589.59	25500.45
589.787	25209.64
589.984	25426.73
590.182	25414.44
590.379	25443.11
590.576	25205.55
590.773	25262.89
590.97	25006.89
591.167	25256.75
591.364	25178.92
591.561	25258.79
591.758	25101.1
591.955	25502.5
592.152	25422.63
592.349	24965.93
592.546	24996.65
592.743	25021.23
592.94	24619.83
593.137	25320.23
593.334	25359.14
593.531	24593.2
593.727	24875.82
593.924	25080.62
594.121	25006.89
594.318	24785.71
594.515	24705.84
594.712	24927.02
594.908	24988.46
595.105	24851.25
595.302	24486.71
595.499	25133.87
595.696	24701.75
595.892	24865.58
596.089	24861.49
596.286	24834.86
596.482	24513.33
596.679	24748.85
596.876	24535.86
597.072	24752.94
597.269	24828.72
597.466	24582.96
597.662	24685.36
597.859	24476.47
598.055	24570.68
598.252	24759.09
598.448	24726.32
598.645	24529.72
598.841	24480.57
599.038	25037.61
599.234	24791.86
599.431	24673.07
599.627	24564.53
599.824	24664.88
600.02	24554.29
600.217	24709.94
600.413	24589.11
600.609	24742.71
600.806	24861.49
601.002	24959.79
601.198	24417.08
601.395	24718.13
601.591	24671.03
601.787	24793.9
601.984	24841.01
602.18	25013.04
602.376	24759.09
602.572	24841.01
602.769	24759.09
602.965	24869.68
603.161	24558.39
603.357	24970.03
603.553	24578.87
603.75	24988.46
603.946	24585.01
604.142	25426.73
604.338	24679.22
604.534	25125.68
604.73	24838.96
604.926	24677.17
605.122	25088.81
605.318	24763.18
605.514	24959.79
605.71	24900.4
605.906	25133.87
606.102	24888.11
606.298	25121.58
606.494	25164.59
606.69	25236.27
606.886	25031.47
607.082	24808.24
607.278	25152.3
607.474	24918.83
607.67	25254.7
607.866	25019.18
608.062	25400.1
608.257	25217.83
608.453	25144.11
608.649	25527.08
608.845	25326.38
609.041	25033.52
609.236	25641.76
609.432	25645.86
609.628	25525.03
609.824	25707.3
610.019	25355.05
610.215	25899.81
610.411	26112.8
610.606	25903.9
610.802	26010.4
610.998	25989.92
611.193	26149.66
611.389	26008.35
611.584	25760.55
611.78	25908
611.976	25862.94
612.171	26370.84
612.367	25965.34
612.562	26135.32
612.758	25789.22
612.953	26026.78
613.149	26262.3
613.344	26321.69
613.539	26471.19
613.735	26356.5
613.93	26618.64
614.126	26585.88
614.321	26690.32
614.517	26782.48
614.712	26585.88
614.907	26641.17
615.103	26741.52
615.298	26544.92
615.493	27310.86
615.688	26538.77
615.884	27187.98
616.079	26856.21
616.274	26903.31
616.47	26852.11
616.665	27169.55
616.86	26809.11
617.055	27007.76
617.25	26813.2
617.445	27405.06
617.641	26958.61
617.836	27253.51
618.031	26755.86
618.226	27339.53
618.421	27292.43
618.616	27284.23
618.811	26940.18
619.006	27233.04
619.201	26780.43
619.396	27181.84
619.591	26936.08
619.786	27319.05
619.981	26807.06
620.176	27018
620.371	26561.3
620.566	26983.18
620.761	27136.78
620.956	27142.92
621.151	26762
621.346	27255.56
621.541	26811.15
621.735	26938.13
621.93	26626.84
622.125	26716.95
622.32	26086.17
622.515	26626.84
622.709	26467.09
622.904	26796.82
623.099	26469.14
623.294	26696.47
623.488	26120.99
623.683	26129.18
623.878	26221.34
624.072	26088.22
624.267	25838.37
624.462	25961.25
624.656	25895.71
624.851	25979.68
625.046	25783.07
625.24	25484.07
625.435	25924.38
625.629	25762.59
625.824	25604.9
626.018	25783.07
626.213	24972.08
626.407	25565.99
626.602	24808.24
626.796	25240.36
626.991	25197.35
627.185	24972.08
627.38	25058.09
627.574	24675.12
627.768	24607.54
627.963	24562.48
628.157	24363.83
628.352	24652.59
628.546	24423.22
628.74	24382.26
628.935	24159.03
629.129	24226.62
629.323	24220.47
629.517	24097.59
629.712	23716.67
629.906	24136.51
630.1	23753.54
630.294	24177.47
630.489	23872.32
630.683	23749.44
630.877	23311.17
631.071	23251.78
631.265	23247.69
631.459	23415.62
631.653	22938.44
631.848	22879.05
632.042	23016.27
632.236	23294.79
632.43	22885.2
632.624	23014.22
632.818	22831.95
633.012	22242.14
633.206	22330.2
633.4	22524.75
633.594	22287.19
633.788	22354.77
633.982	22365.01
634.176	22311.77
634.369	22238.04
634.563	22025.05
634.757	21820.25
634.951	22012.76
635.145	21867.36
635.339	21783.39
635.533	21637.98
635.726	21640.03
635.92	21177.19
636.114	21474.15
636.308	21242.73
636.501	21302.12
636.695	21263.21
636.889	21015.4
637.083	20906.86
637.276	20923.24
637.47	20657.01
637.664	20648.82
637.857	20550.51
638.051	20386.68
638.244	20216.69
638.438	19975.03
638.632	20142.97
638.825	20075.38
639.019	19999.61
639.212	19858.3
639.406	20065.14
639.599	19835.77
639.793	19776.38
639.986	19684.22
640.18	19673.98
640.373	19272.58
640.567	19073.93
640.76	19174.28
640.954	18977.67
641.147	18869.13
641.34	18690.96
641.534	18981.77
641.727	18760.59
641.92	18674.57
642.114	18365.33
642.307	18578.32
642.5	18203.54
642.694	18058.14
642.887	18035.61
643.08	18396.05
643.273	18109.33
643.467	17804.19
643.66	17796
643.853	17609.63
644.046	17363.87
644.239	17521.57
644.432	17382.31
644.626	17157.03
644.819	17271.72
645.012	17101.73
645.205	17159.08
645.398	17161.12
645.591	16741.29
645.784	16757.67
645.977	16470.96
646.17	16581.55
646.363	16583.6
646.556	16526.25
646.749	16393.14
646.942	16262.07
647.135	15967.16
647.328	16077.75
647.521	15866.81
647.714	15645.63
647.907	15778.75
648.099	15752.12
648.292	15649.72
648.485	15770.55
648.678	15174.6
648.871	15219.65
649.064	15125.44
649.256	15281.09
649.449	14932.93
649.642	15098.82
649.835	14832.58
650.027	14666.7
650.22	14656.46
650.413	14707.66
650.605	14506.96
650.798	14588.88
650.991	14459.85
651.183	14429.13
651.376	14365.65
651.568	14296.02
651.761	14269.39
651.954	13861.85
652.146	14119.89
652.339	13976.53
652.531	13794.26
652.724	13845.46
652.916	13622.23
653.109	13480.92
653.301	13472.73
653.494	13773.78
653.686	13200.35
653.879	13349.85
654.071	13200.35
654.263	13085.67
654.456	13050.85
654.648	13028.32
654.84	12821.48
655.033	12684.27
655.225	12776.42
655.417	12725.22
655.61	12661.74
655.802	12434.41
655.994	12667.88
656.186	12532.72
656.379	12030.96
656.571	12377.07
656.763	11969.52
656.955	11920.37
657.148	12088.31
657.34	12004.34
657.532	11643.9
657.724	11697.14
657.916	11924.47
658.108	11703.29
658.3	11658.23
658.492	11674.62
658.684	11457.53
658.876	11518.97
659.068	11301.89
659.26	11265.02
659.452	11248.64
659.644	11176.96
659.836	11072.51
660.028	11058.18
660.22	10914.82
660.412	10873.86
660.604	10851.33
660.796	10871.81
660.988	10849.29
661.18	10562.57
661.372	10406.92
661.563	10361.87
661.755	10376.2
661.947	10404.88
662.139	10099.73
662.331	10134.54
662.522	9903.12
662.714	10048.53
662.906	9774.1
663.097	10069.01
663.289	9778.2
663.481	9810.96
663.673	9827.35
663.864	9593.88
664.056	9514.01
664.247	9608.22
664.439	9520.15
664.631	9495.58
664.822	9380.89
665.014	9178.14
665.205	9174.05
665.397	9215.01
665.588	9233.44
665.78	9192.48
665.971	9016.35
666.163	9159.71
666.354	9153.57
666.546	8692.77
666.737	8868.9
666.929	8873
667.12	8743.97
667.311	8709.16
667.503	8719.4
667.694	8610.86
667.885	8414.25
668.077	8565.8
668.268	8406.06
668.459	8678.44
668.651	8567.85
668.842	8352.81
669.033	8274.99
669.224	8176.69
669.416	8395.82
669.607	8064.05
669.798	8047.66
669.989	8324.14
670.18	8090.67
670.371	8096.82
670.563	7748.66
670.754	7783.48
670.945	7877.68
671.136	7818.29
671.327	7668.79
671.518	7738.42
671.709	7785.52
671.9	7719.99
672.091	7713.84
672.282	7760.95
672.473	7496.76
672.664	7478.33
672.855	7369.79
673.046	7476.28
673.237	7484.47
673.428	7640.12
673.619	7222.33
673.809	7390.27
674	7181.37
674.191	7382.07
674.382	7287.87
674.573	7406.65
674.764	7265.34
674.954	7410.75
675.145	7035.97
675.336	7193.66
675.527	7160.89
675.717	6974.53
675.908	6988.86
676.099	6960.19
676.289	6947.9
676.48	6759.49
676.671	7058.49
676.861	6992.96
677.052	7107.65
677.243	6894.66
677.433	6800.45
677.624	6773.83
677.814	6857.79
678.005	6880.32
678.195	6872.13
678.386	6722.63
678.576	6720.58
678.767	6693.96
678.957	6837.31
679.148	6833.22
679.338	6730.82
679.529	6546.5
679.719	6640.71
679.909	6743.11
680.1	6689.86
680.29	6691.91
680.481	6614.09
680.671	6593.61
680.861	6722.63
681.052	6581.32
681.242	6573.13
681.432	6667.33
681.622	6501.45
681.813	6394.95
682.003	6444.1
682.193	6507.59
682.383	6448.2
682.573	6378.57
682.764	6353.99
682.954	6413.38
683.144	6222.92
683.334	6392.91
683.524	6319.18
683.714	6501.45
683.904	6487.11
684.094	6464.58
684.284	6243.4
684.474	6409.29
684.664	6397
684.854	6300.75
685.044	6145.1
685.234	6218.83
685.424	6409.29
685.614	6241.36
685.804	6282.31
685.994	6100.05
686.184	6333.51
686.374	6153.29
686.564	6141
686.753	6194.25
686.943	6046.8
687.133	6233.16
687.323	6038.61
687.513	6138.96
687.702	6063.18
687.892	6018.13
688.082	5940.3
688.272	5973.07
688.461	5911.63
688.651	6186.06
688.841	6042.7
689.03	6108.24
689.22	5790.8
689.41	5942.35
689.599	5948.5
689.789	6153.29
689.979	6003.79
690.168	5678.16
690.358	5880.91
690.547	5907.54
690.737	5839.95
690.926	5887.06
691.116	5637.2
691.305	5983.31
691.495	5872.72
691.684	5831.76
691.874	5801.04
692.063	5778.51
692.252	5764.18
692.442	5813.33
692.631	5766.23
692.82	5854.29
693.01	5782.61
693.199	5528.66
693.388	5778.51
693.578	5715.03
693.767	5508.18
693.956	5452.89
694.146	5629.01
694.335	5829.71
694.524	5588.05
694.713	5731.41
694.902	5727.32
695.092	5594.2
695.281	5401.69
695.47	5755.99
695.659	5778.51
695.848	5549.14
696.037	5590.1
696.226	5616.72
696.415	5481.56
696.604	5844.05
696.793	5665.88
696.982	5669.97
697.171	5616.72
697.36	5684.31
697.549	5645.4
697.738	5678.16
697.927	5577.81
698.116	5510.23
698.305	5545.05
698.494	5633.11
698.683	5506.13
698.872	5706.84
699.061	5704.79
699.25	5655.64
699.438	5606.49
699.627	5459.03
699.816	5723.22
700.005	5506.13
700.193	5616.72
700.382	5690.45
700.571	5483.61
700.76	5686.36
700.948	5600.34
701.137	5497.94
701.326	5514.33
701.514	5522.52
701.703	5661.78
701.892	5493.85
702.08	5663.83
702.269	5526.61
702.457	5473.37
702.646	5545.05
702.834	5504.09
703.023	5497.94
703.212	5528.66
703.4	5536.85
703.589	5264.47
703.777	5348.44
703.965	5346.39
704.154	5561.43
704.342	5467.22
704.531	5520.47
704.719	5389.4
704.907	5610.58
705.096	5471.32
705.284	5377.11
705.472	5520.47
705.661	5481.56
705.849	5485.65
706.037	5614.68
706.226	5465.18
706.414	5440.6
706.602	5362.78
706.79	5219.42
706.979	5319.77
707.167	5461.08
707.355	5471.32
707.543	5299.29
707.731	5256.28
707.919	5252.19
708.107	5338.2
708.296	5375.06
708.484	5002.33
708.672	5205.08
708.86	5123.16
709.048	5336.15
709.236	5231.71
709.424	5225.56
709.612	5145.69
709.8	4944.99
709.988	5174.36
710.176	5250.14
710.364	5270.62
710.551	5213.28
710.739	5160.03
710.927	5252.19
711.115	5143.64
711.303	5135.45
711.491	5264.47
711.679	5104.73
711.866	5129.31
712.054	5104.73
712.242	5024.86
712.43	5243.99
712.617	5250.14
712.805	5104.73
712.993	5024.86
713.181	4869.22
713.368	5151.84
713.556	5094.49
713.744	4901.98
713.931	5194.84
714.119	5045.34
714.306	4936.8
714.494	4957.28
714.682	4912.22
714.869	4850.78
715.057	4811.87
715.244	4947.04
715.432	5008.48
715.619	4842.59
715.807	5004.38
715.994	4885.6
716.182	4912.22
716.369	4777.06
716.556	4899.94
716.744	4779.11
716.931	4922.46
717.119	4770.91
717.306	4901.98
717.493	4697.19
717.681	4680.8
717.868	4775.01
718.055	4775.01
718.242	4664.42
718.43	4703.33
718.617	4813.92
718.804	4779.11
718.991	4666.47
719.179	4697.19
719.366	4516.97
719.553	4801.63
719.74	4516.97
719.927	4533.35
720.114	4709.47
720.301	4590.69
720.488	4443.24
720.676	4566.12
720.863	4680.8
721.05	4584.55
721.237	4639.84
721.424	4473.96
721.611	4588.64
721.798	4453.48
721.985	4420.71
722.172	4404.33
722.358	4410.47
722.545	4537.45
722.732	4422.76
722.919	4533.35
723.106	4269.16
723.293	4373.61
723.48	4435.05
723.667	4437.09
723.853	4373.61
724.04	4369.51
724.227	4406.38
724.414	4371.56
724.6	4346.98
724.787	4377.7
724.974	4379.75
725.161	4344.94
725.347	4283.5
725.534	4254.83
725.72	4342.89
725.907	4269.16
726.094	4187.24
726.28	4228.2
726.467	4314.22
726.653	4312.17
726.84	4195.43
727.027	4258.92
727.213	4150.38
727.4	4183.15
727.586	4246.63
727.773	4066.41
727.959	4211.82
728.145	4115.56
728.332	3961.97
728.518	3988.59
728.705	4117.61
728.891	4121.71
729.077	4002.93
729.264	3996.78
729.45	3990.64
729.636	4093.04
729.823	3992.69
730.009	4080.75
730.195	4068.46
730.382	3972.21
730.568	4009.07
730.754	3935.34
730.94	4035.69
731.126	4052.08
731.313	3929.2
731.499	3957.87
731.685	3996.78
731.871	3951.73
732.057	3961.97
732.243	3867.76
732.429	3933.29
732.615	3927.15
732.801	3824.75
732.987	3847.28
733.173	3884.14
733.359	3818.61
733.545	3765.36
733.731	3718.26
733.917	3802.22
734.103	3785.84
734.289	3826.8
734.475	3581.04
734.661	3861.62
734.847	3845.23
735.033	3773.55
735.219	3705.97
735.404	3806.32
735.59	3585.14
735.776	3683.44
735.962	3538.04
736.148	3591.28
736.333	3595.38
736.519	3634.29
736.705	3523.7
736.89	3538.04
737.076	3564.66
737.262	3423.35
737.447	3478.65
737.633	3468.41
737.819	3585.14
738.004	3486.84
738.19	3443.83
738.375	3587.19
738.561	3519.6
738.747	3437.69
738.932	3404.92
739.118	3396.73
739.303	3449.97
739.489	3437.69
739.674	3497.08
739.859	3259.51
740.045	3349.62
740.23	3443.83
740.416	3314.81
740.601	3308.66
740.786	3318.9
740.972	3193.98
741.157	3382.39
741.342	3087.48
741.528	3112.06
741.713	3234.94
741.898	3173.5
742.084	3282.04
742.269	3351.67
742.454	3058.81
742.639	3097.72
742.824	3024
743.01	3095.68
743.195	3263.61
743.38	3202.17
743.565	3060.86
743.75	3120.25
743.935	2993.28
744.12	2993.28
744.305	2845.82
744.49	2880.64
744.675	2962.56
744.86	3026.04
745.045	2933.89
745.23	2978.94
745.415	2843.78
745.6	3087.48
745.785	2931.84
745.97	2954.37
746.155	2946.17
746.34	2935.93
746.525	2815.1
746.71	2868.35
746.895	2634.88
747.079	2735.23
747.264	2882.69
747.449	2890.88
747.634	2595.97
747.819	2813.06
748.003	2675.84
748.188	2661.51
748.373	2669.7
748.557	2636.93
748.742	2505.86
748.927	2657.41
749.111	2593.92
749.296	2440.33
749.481	2618.5
749.665	2499.72
749.85	2481.28
750.034	2616.45
750.219	2548.87
750.404	2471.04
750.588	2389.13
750.773	2368.65
750.957	2438.28
751.141	2458.76
751.326	2366.6
751.51	2434.18
751.695	2442.37
751.879	2423.94
752.064	2419.85
752.248	2253.96
752.432	2428.04
752.617	2213
752.801	2323.59
752.985	2235.53
753.17	2313.35
753.354	2208.9
753.538	2239.62
753.722	2161.8
753.907	2057.36
754.091	2139.27
754.275	2182.28
754.459	1938.57
754.643	2051.21
754.828	2112.65
755.012	2086.03
755.196	2081.93
755.38	2051.21
755.564	1952.91
755.748	2010.25
755.932	1938.57
756.116	1993.87
756.3	1944.72
756.484	1963.15
756.668	1957
756.852	1868.94
757.036	1985.68
757.22	1862.8
757.404	1881.23
757.588	1801.36
757.772	1801.36
757.956	1803.41
758.14	1967.24
758.323	1789.07
758.507	1870.99
758.691	1870.99
758.875	1864.85
759.059	1834.13
759.242	1768.59
759.426	1696.91
759.61	1766.54
759.794	1729.68
759.977	1830.03
760.161	1870.99
760.345	1815.69
760.528	1692.82
760.712	1694.86
760.895	1635.47
761.079	1645.71
761.263	1674.39
761.446	1582.23
761.63	1709.2
761.813	1584.27
761.997	1479.83
762.18	1637.52
762.364	1688.72
762.547	1606.8
762.731	1606.8
762.914	1571.99
763.098	1541.27
763.281	1571.99
763.464	1526.93
763.648	1430.68
763.831	1580.18
764.015	1545.36
764.198	1590.42
764.381	1451.16
764.564	1576.08
764.748	1571.99
764.931	1598.61
765.114	1455.25
765.297	1539.22
765.481	1475.73
765.664	1555.6
765.847	1434.77
766.03	1508.5
766.213	1453.2
766.397	1514.64
766.58	1389.72
766.763	1408.15
766.946	1473.68
767.129	1494.16
767.312	1512.6
767.495	1428.63
767.678	1377.43
767.861	1600.66
768.044	1434.77
768.227	1406.1
768.41	1457.3
768.593	1365.14
768.776	1442.96
768.959	1406.1
769.142	1445.01
769.324	1315.99
769.507	1371.29
769.69	1342.61
769.873	1422.48
770.056	1418.39
770.239	1373.33
770.421	1422.48
770.604	1432.72
770.787	1414.29
770.97	1383.57
771.152	1260.7
771.335	1328.28
771.518	1318.04
771.7	1283.22
771.883	1305.75
772.066	1211.54
772.248	1256.6
772.431	1299.61
772.613	1408.15
772.796	1295.51
772.978	1350.81
773.161	1359
773.343	1221.78
773.526	1197.21
773.708	1092.76
773.891	1195.16
774.073	1141.91
774.256	1129.63
774.438	1182.87
774.621	1191.06
774.803	1217.69
774.985	1098.91
775.168	1234.07
775.35	1184.92
775.532	1152.15
775.715	1123.48
775.897	1127.58
776.079	1119.39
776.261	1232.02
776.444	1041.56
776.626	1152.15
776.808	1053.85
776.99	1037.47
777.173	1066.14
777.355	1129.63
777.537	1084.57
777.719	1074.33
777.901	1008.8
778.083	1059.99
778.265	1029.27
778.447	1080.47
778.629	1012.89
778.811	986.27
778.993	969.88
779.175	1019.04
779.357	1004.7
779.539	994.46
779.721	978.08
779.903	1006.75
780.085	982.17
780.267	949.4
780.449	896.16
780.631	988.32
780.812	990.36
780.994	976.03
781.176	838.81
781.358	873.63
781.54	896.16
781.721	973.98
781.903	933.02
782.085	916.64
782.267	853.15
782.448	812.19
782.63	765.09
782.812	898.2
782.993	904.35
783.175	875.68
783.357	744.61
783.538	799.9
783.72	808.09
783.901	808.09
784.083	773.28
784.264	791.71
784.446	691.36
784.627	765.09
784.809	738.46
784.99	691.36
785.172	785.57
785.353	662.69
785.535	818.33
785.716	783.52
785.897	660.64
786.079	771.23
786.26	697.5
786.441	666.78
786.623	685.22
786.804	683.17
786.985	717.98
787.167	750.75
787.348	631.97
787.529	617.63
787.71	765.09
787.891	783.52
788.073	609.44
788.254	629.92
788.435	771.23
788.616	717.98
788.797	648.35
788.978	566.43
789.159	687.26
789.34	740.51
789.522	529.57
789.703	640.16
789.884	705.7
790.065	652.45
790.246	660.64
790.427	533.67
790.607	634.02
790.788	627.87
790.969	554.15
791.15	634.02
791.331	631.97
791.512	478.37
791.693	574.63
791.874	556.19
792.054	623.78
792.235	543.91
792.416	490.66
792.597	531.62
792.778	586.91
792.958	623.78
793.139	537.76
793.32	480.42
793.5	453.8
793.681	578.72
793.862	490.66
794.042	498.85
794.223	443.56
794.404	519.33
794.584	443.56
794.765	478.37
794.945	511.14
795.126	535.71
795.306	521.38
795.487	478.37
795.667	500.9
795.848	498.85
796.028	384.16
796.209	431.27
796.389	519.33
796.57	421.03
796.75	443.56
796.93	488.61
797.111	371.88
797.291	488.61
797.471	398.5
797.652	437.41
797.832	412.84
798.012	476.32
798.192	369.83
798.373	408.74
798.553	455.84
798.733	402.6
798.913	373.92
799.093	396.45
799.274	439.46
799.454	429.22
799.634	410.79
799.814	461.99
799.994	472.23
800.174	431.27
800.354	511.14
800.534	404.64
800.714	418.98
800.894	316.58
801.074	398.5
801.254	373.92
801.434	392.36
801.614	382.12
801.794	345.25
801.974	1295.51
802.154	339.11
802.334	324.77
802.514	273.57
802.693	382.12
802.873	226.47
803.053	416.93
803.233	423.08
803.413	318.63
803.592	324.77
803.772	324.77
803.952	322.73
804.131	193.7
804.311	363.69
804.491	402.6
804.67	208.04
804.85	289.96
805.03	396.45
805.209	388.26
805.389	347.3
805.568	232.62
805.748	337.06
805.928	296.1
806.107	365.73
806.287	349.35
806.466	378.02
806.646	328.87
806.825	418.98
807.004	285.86
807.184	246.95
807.363	257.19
807.543	296.1
807.722	292.01
807.901	412.84
808.081	330.92
808.26	208.04
808.439	287.91
808.619	318.63
808.798	240.81
808.977	330.92
809.156	396.45
809.336	314.53
809.515	361.64
809.694	236.71
809.873	249
810.052	240.81
810.231	292.01
810.411	275.62
810.59	314.53
810.769	289.96
810.948	347.3
811.127	160.94
811.306	242.85
811.485	234.66
811.664	328.87
811.843	318.63
812.022	253.09
812.201	244.9
812.38	259.24
812.559	269.48
812.737	355.49
812.916	205.99
813.095	234.66
813.274	289.96
813.453	269.48
813.632	308.39
813.811	337.06
813.989	150.7
814.168	208.04
814.347	232.62
814.526	253.09
814.704	236.71
814.883	324.77
815.062	232.62
815.24	302.25
815.419	152.74
815.598	246.95
815.776	195.75
815.955	244.9
816.133	165.03
816.312	283.81
816.49	220.33
816.669	265.38
816.847	76.97
817.026	318.63
817.204	156.84
817.383	263.33
817.561	156.84
817.74	224.42
817.918	214.18
818.097	210.09
818.275	212.14
818.453	238.76
818.632	175.27
818.81	216.23
818.988	130.22
819.167	171.18
819.345	222.38
819.523	216.23
819.701	197.8
819.879	269.48
820.058	187.56
820.236	181.42
820.414	169.13
820.592	175.27
820.77	142.5
820.948	263.33
821.127	173.22
821.305	167.08
821.483	117.93
821.661	261.29
821.839	179.37
822.017	142.5
822.195	181.42
822.373	218.28
822.551	101.55
822.729	160.94
822.907	165.03
823.085	169.13
823.262	160.94
823.44	128.17
823.618	126.12
823.796	218.28
823.974	146.6
824.152	144.55
824.329	97.45
824.507	183.46
824.685	107.69
824.863	154.79
825.04	109.74
825.218	150.7
825.396	238.76
825.574	220.33
825.751	124.07
825.929	122.02
826.107	111.78
826.284	242.85
826.462	130.22
826.639	115.88
826.817	117.93
826.994	83.11
827.172	91.31
827.349	220.33
827.527	171.18
827.704	197.8
827.882	148.65
828.059	132.26
828.237	136.36
828.414	160.94
828.591	56.49
828.769	187.56
828.946	140.46
829.124	128.17
829.301	201.9
829.478	85.16
829.655	167.08
829.833	101.55
830.01	58.54
830.187	158.89
830.364	93.35
830.542	119.98
830.719	208.04
830.896	236.71
831.073	154.79
831.25	119.98
831.427	158.89
831.604	140.46
831.782	89.26
831.959	158.89
832.136	124.07
832.313	95.4
832.49	76.97
832.667	105.64
832.844	72.87
833.021	136.36
833.198	93.35
833.374	140.46
833.551	154.79
833.728	115.88
833.905	183.46
834.082	58.54
834.259	144.55
834.436	228.52
834.612	66.73
834.789	191.66
834.966	87.21
835.143	162.98
835.319	7.34
835.496	138.41
835.673	179.37
835.85	140.46
836.026	107.69
836.203	136.36
836.38	31.91
836.556	132.26
836.733	25.77
836.909	117.93
837.086	140.46
837.262	93.35
837.439	115.88
837.616	83.11
837.792	113.83
837.968	103.59
838.145	87.21
838.321	165.03
838.498	105.64
838.674	136.36
838.851	95.4
839.027	107.69
839.203	68.78
839.38	148.65
839.556	52.39
839.732	195.75
839.909	66.73
840.085	87.21
840.261	113.83
840.437	85.16
840.614	160.94
840.79	134.31
840.966	119.98
841.142	79.02
841.318	25.77
841.494	48.3
841.671	167.08
841.847	95.4
842.023	66.73
842.199	138.41
842.375	144.55
842.551	-7
842.727	56.49
842.903	167.08
843.079	109.74
843.255	148.65
843.431	76.97
843.607	64.68
843.783	-37.72
843.959	132.26
844.134	11.43
844.31	158.89
844.486	15.53
844.662	40.11
844.838	17.58
845.013	105.64
845.189	130.22
845.365	124.07
845.541	36.01
845.716	31.91
845.892	109.74
846.068	-9.05
846.244	33.96
846.419	113.83
846.595	1.19
846.77	21.67
846.946	142.5
847.122	72.87
847.297	7.34
847.473	183.46
847.648	76.97
847.824	60.59
847.999	-21.33
848.175	46.25
848.35	111.78
848.526	93.35
848.701	93.35
848.876	64.68
849.052	136.36
849.227	-13.14
849.403	19.63
849.578	76.97
849.753	103.59
849.929	58.54
850.104	-11.09
850.279	52.39
850.454	107.69
850.63	50.35
850.805	52.39
850.98	81.07
851.155	19.63
851.33	58.54
851.505	103.59
851.681	150.7
851.856	1.19
852.031	134.31
852.206	74.92
852.381	91.31
852.556	5.29
852.731	52.39
852.906	56.49
853.081	46.25
853.256	173.22
853.431	56.49
853.606	48.3
853.781	36.01
853.956	52.39
854.131	50.35
854.305	15.53
854.48	25.77
854.655	25.77
854.83	15.53
855.005	19.63
855.18	42.15
855.354	40.11
855.529	64.68
855.704	52.39
855.879	85.16
856.053	-50
856.228	76.97
856.403	44.2
856.577	83.11
856.752	11.43
856.926	72.87
857.101	126.12
857.276	-47.96
857.45	17.58
857.625	117.93
857.799	50.35
857.974	1.19
858.148	27.82
858.323	27.82
858.497	3.24
858.672	103.59
858.846	31.91
859.02	89.26
859.195	-15.19
859.369	81.07
859.543	11.43
859.718	31.91
859.892	-11.09
860.066	46.25
860.241	29.87
860.415	-37.72
860.589	134.31
860.763	40.11
860.938	1.19
861.112	29.87
861.286	-76.63
861.46	83.11
861.634	9.39
861.808	42.15
861.982	-25.43
862.157	21.67
862.331	60.59
862.505	56.49
862.679	-19.29
862.853	23.72
863.027	15.53
863.201	56.49
863.375	-72.53
863.549	87.21
863.722	58.54
863.896	95.4
864.07	3.24
864.244	-11.09
864.418	83.11
864.592	38.06
864.766	58.54
864.939	1.19
865.113	111.78
865.287	64.68
865.461	-56.15
865.634	25.77
865.808	48.3
865.982	19.63
866.156	3.24
866.329	-41.81
866.503	11.43
866.676	58.54
866.85	36.01
867.024	-9.05
867.197	79.02
867.371	132.26
867.544	15.53
867.718	-56.15
867.891	13.48
868.065	-0.85
868.238	-45.91
868.412	29.87
868.585	9.39
868.759	56.49
868.932	48.3
869.105	40.11
869.279	-9.05
869.452	-29.52
869.625	152.74
869.799	11.43
869.972	1.19
870.145	44.2
870.319	3.24
870.492	46.25
870.665	-35.67
870.838	58.54
871.011	1.19
871.185	36.01
871.358	-7
871.531	76.97
871.704	-15.19
871.877	9.39
872.05	38.06
872.223	5.29
872.396	62.63
872.569	25.77
872.742	-7
872.915	-23.38
873.088	-45.91
873.261	42.15
873.434	23.72
873.607	44.2
873.78	42.15
873.953	-13.14
874.126	11.43
874.299	99.5
874.471	-37.72
874.644	15.53
874.817	56.49
874.99	132.26
875.163	87.21
875.335	38.06
875.508	7.34
875.681	83.11
875.853	1.19
876.026	31.91
876.199	33.96
876.371	56.49
876.544	46.25
876.717	72.87
876.889	-19.29
877.062	36.01
877.234	79.02
877.407	-17.24
877.579	58.54
877.752	36.01
877.924	-74.58
878.097	36.01
878.269	-7
878.442	50.35
878.614	60.59
878.786	70.83
878.959	58.54
879.131	70.83
879.303	-41.81
879.476	17.58
879.648	36.01
879.82	9.39
879.993	40.11
880.165	-11.09
880.337	-19.29
880.509	42.15
880.681	-70.48
880.854	13.48
881.026	1.19
881.198	79.02
881.37	68.78
881.542	-19.29
881.714	27.82
881.886	7.34
882.058	93.35
882.23	44.2
882.402	109.74
882.574	19.63
882.746	85.16
882.918	93.35
883.09	52.39
883.262	19.63
883.434	5.29
883.606	-56.15
883.778	-33.62
883.95	62.63
884.122	64.68
884.293	62.63
884.465	-13.14
884.637	23.72
884.809	5.29
884.98	76.97
885.152	44.2
885.324	64.68
885.496	17.58
885.667	66.73
885.839	42.15
886.011	113.83
886.182	66.73
886.354	62.63
886.525	-13.14
886.697	15.53
886.869	-62.29
887.04	-29.52
887.212	23.72
887.383	38.06
887.555	-33.62
887.726	-50
887.897	-82.77
888.069	29.87
888.24	44.2
888.412	3.24
888.583	-21.33
888.754	-29.52
888.926	-82.77
889.097	13.48
889.268	-88.92
889.44	-0.85
889.611	-56.15
889.782	-56.15
889.953	-31.57
890.125	42.15
890.296	-9.05
890.467	-45.91
890.638	15.53
890.809	7.34
890.98	-2.9
891.151	46.25
891.323	38.06
891.494	54.44
891.665	27.82
891.836	5.29
892.007	15.53
892.178	38.06
892.349	27.82
892.52	9.39
892.691	52.39
892.862	21.67
893.032	-19.29
893.203	-45.91
893.374	-4.95
893.545	-0.85
893.716	1.19
893.887	33.96
894.057	-47.96
894.228	29.87
894.399	48.3
894.57	9.39
894.74	-19.29
894.911	40.11
895.082	103.59
895.253	9.39
895.423	97.45
895.594	29.87
895.764	36.01
895.935	5.29
896.106	56.49
896.276	-19.29
896.447	-0.85
896.617	-27.48
896.788	-105.3
896.958	-62.29
897.129	-58.2
897.299	7.34
897.47	3.24
897.64	46.25
897.81	23.72
897.981	-41.81
898.151	-4.95
898.322	17.58
898.492	-47.96
898.662	27.82
898.832	-27.48
899.003	11.43
899.173	-39.76
899.343	-64.34
899.513	48.3
