Data from USB4F104151__39__12-12-00-156.txt Node

Date: Fri Mar 14 12:12:00 EDT 2025
User: louis
Spectrometer: USB4F10415
Trigger mode: 4
Integration Time (sec): 5.000000E-2
Scans to average: 1
Electric dark correction enabled: true
Nonlinearity correction enabled: false
Boxcar width: 0
XAxis mode: Wavelengths
Number of Pixels in Spectrum: 3648
>>>>>Begin Spectral Data<<<<<
178.204	-174.08
178.424	-174.08
178.644	-174.08
178.864	-182.27
179.084	-223.23
179.304	-69.63
179.524	-14.34
179.744	2.05
179.964	-8.19
180.184	-32.77
180.404	36.86
180.624	24.58
180.844	18.43
181.064	-22.53
181.283	20.48
181.503	8.19
181.723	36.86
181.943	-51.2
182.163	114.69
182.383	4.1
182.602	86.01
182.822	61.44
183.042	-30.72
183.262	-12.29
183.482	16.38
183.701	-6.14
183.921	-12.29
184.141	0
184.361	135.17
184.58	79.87
184.8	49.15
185.02	8.19
185.239	106.49
185.459	40.96
185.679	71.68
185.898	-28.67
186.118	2.05
186.338	71.68
186.557	59.39
186.777	-36.86
186.997	55.3
187.216	-32.77
187.436	149.5
187.655	45.06
187.875	-14.34
188.095	-14.34
188.314	38.91
188.534	98.3
188.753	43.01
188.973	55.3
189.192	90.11
189.412	6.14
189.631	40.96
189.851	38.91
190.07	145.41
190.29	-10.24
190.509	45.06
190.729	22.53
190.948	94.21
191.168	243.71
191.387	34.82
191.607	-45.06
191.826	-20.48
192.045	43.01
192.265	-4.1
192.484	-8.19
192.704	38.91
192.923	-32.77
193.142	143.36
193.362	67.58
193.581	24.58
193.8	28.67
194.02	32.77
194.239	40.96
194.458	22.53
194.678	77.82
194.897	59.39
195.116	20.48
195.335	38.91
195.555	-8.19
195.774	-30.72
195.993	73.73
196.212	36.86
196.432	24.58
196.651	-40.96
196.87	8.19
197.089	92.16
197.308	24.58
197.528	65.54
197.747	-30.72
197.966	26.62
198.185	145.41
198.404	53.25
198.623	30.72
198.842	55.3
199.062	73.73
199.281	120.83
199.5	49.15
199.719	-10.24
199.938	92.16
200.157	49.15
200.376	71.68
200.595	4.1
200.814	22.53
201.033	63.49
201.252	40.96
201.471	-38.91
201.69	96.25
201.909	43.01
202.128	26.62
202.347	-6.14
202.566	18.43
202.785	-32.77
203.004	-26.62
203.223	167.93
203.442	61.44
203.661	4.1
203.879	159.74
204.098	40.96
204.317	-26.62
204.536	45.06
204.755	-4.1
204.974	116.73
205.193	43.01
205.411	81.92
205.63	98.3
205.849	-2.05
206.068	-26.62
206.287	57.34
206.505	53.25
206.724	12.29
206.943	2.05
207.162	0
207.381	10.24
207.599	75.77
207.818	22.53
208.037	-16.38
208.255	75.77
208.474	18.43
208.693	63.49
208.911	22.53
209.13	32.77
209.349	-24.58
209.567	100.35
209.786	100.35
210.005	116.73
210.223	77.82
210.442	-6.14
210.661	36.86
210.879	79.87
211.098	28.67
211.316	-18.43
211.535	90.11
211.753	16.38
211.972	-16.38
212.191	-32.77
212.409	8.19
212.628	100.35
212.846	-4.1
213.065	86.01
213.283	86.01
213.502	51.2
213.72	36.86
213.938	18.43
214.157	16.38
214.375	112.64
214.594	51.2
214.812	-24.58
215.031	16.38
215.249	10.24
215.467	53.25
215.686	18.43
215.904	43.01
216.122	10.24
216.341	124.93
216.559	-12.29
216.778	63.49
216.996	10.24
217.214	-10.24
217.432	22.53
217.651	-98.3
217.869	8.19
218.087	26.62
218.306	-18.43
218.524	43.01
218.742	71.68
218.96	57.34
219.179	22.53
219.397	32.77
219.615	165.89
219.833	8.19
220.051	-4.1
220.27	71.68
220.488	75.77
220.706	51.2
220.924	47.1
221.142	45.06
221.36	47.1
221.578	63.49
221.796	53.25
222.015	-49.15
222.233	40.96
222.451	137.21
222.669	-20.48
222.887	61.44
223.105	-43.01
223.323	73.73
223.541	61.44
223.759	69.63
223.977	51.2
224.195	96.25
224.413	65.54
224.631	16.38
224.849	43.01
225.067	88.06
225.285	-36.86
225.503	-36.86
225.721	0
225.939	65.54
226.157	18.43
226.375	153.6
226.592	28.67
226.81	16.38
227.028	126.97
227.246	96.25
227.464	22.53
227.682	110.59
227.9	67.58
228.117	51.2
228.335	10.24
228.553	67.58
228.771	75.77
228.989	22.53
229.206	28.67
229.424	26.62
229.642	28.67
229.86	-22.53
230.077	40.96
230.295	16.38
230.513	122.88
230.731	63.49
230.948	77.82
231.166	155.65
231.384	38.91
231.601	28.67
231.819	67.58
232.037	-45.06
232.254	36.86
232.472	-24.58
232.689	30.72
232.907	106.49
233.125	77.82
233.342	26.62
233.56	73.73
233.777	6.14
233.995	14.34
234.213	53.25
234.43	-28.67
234.648	4.1
234.865	-28.67
235.083	34.82
235.3	96.25
235.518	69.63
235.735	47.1
235.953	49.15
236.17	-22.53
236.388	-18.43
236.605	10.24
236.822	73.73
237.04	90.11
237.257	55.3
237.475	-30.72
237.692	108.54
237.909	8.19
238.127	57.34
238.344	43.01
238.562	57.34
238.779	12.29
238.996	10.24
239.214	-24.58
239.431	79.87
239.648	22.53
239.865	79.87
240.083	51.2
240.3	6.14
240.517	24.58
240.735	10.24
240.952	57.34
241.169	55.3
241.386	57.34
241.603	0
241.821	43.01
242.038	145.41
242.255	112.64
242.472	4.1
242.689	-4.1
242.907	77.82
243.124	102.4
243.341	73.73
243.558	0
243.775	0
243.992	-67.58
244.209	22.53
244.426	45.06
244.643	63.49
244.86	-22.53
245.078	100.35
245.295	47.1
245.512	32.77
245.729	-12.29
245.946	108.54
246.163	43.01
246.38	18.43
246.597	36.86
246.814	2.05
247.031	-26.62
247.248	108.54
247.464	69.63
247.681	-40.96
247.898	75.77
248.115	124.93
248.332	18.43
248.549	137.21
248.766	157.69
248.983	108.54
249.2	77.82
249.417	-2.05
249.633	8.19
249.85	77.82
250.067	34.82
250.284	94.21
250.501	59.39
250.717	137.21
250.934	-32.77
251.151	10.24
251.368	0
251.585	0
251.801	24.58
252.018	-34.82
252.235	10.24
252.451	26.62
252.668	43.01
252.885	47.1
253.102	14.34
253.318	112.64
253.535	-12.29
253.752	36.86
253.968	14.34
254.185	-16.38
254.401	26.62
254.618	59.39
254.835	-40.96
255.051	129.02
255.268	47.1
255.484	-26.62
255.701	-2.05
255.917	65.54
256.134	12.29
256.351	34.82
256.567	-43.01
256.784	10.24
257	-28.67
257.217	94.21
257.433	157.69
257.65	57.34
257.866	47.1
258.082	-28.67
258.299	12.29
258.515	-16.38
258.732	-16.38
258.948	24.58
259.165	18.43
259.381	55.3
259.597	18.43
259.814	40.96
260.03	-4.1
260.246	12.29
260.463	102.4
260.679	49.15
260.895	43.01
261.112	75.77
261.328	67.58
261.544	-26.62
261.761	126.97
261.977	-30.72
262.193	-26.62
262.409	-16.38
262.626	28.67
262.842	0
263.058	2.05
263.274	79.87
263.49	32.77
263.707	102.4
263.923	108.54
264.139	30.72
264.355	45.06
264.571	40.96
264.787	61.44
265.004	98.3
265.22	73.73
265.436	-6.14
265.652	61.44
265.868	71.68
266.084	18.43
266.3	34.82
266.516	-12.29
266.732	63.49
266.948	36.86
267.164	26.62
267.38	75.77
267.596	38.91
267.812	120.83
268.028	2.05
268.244	63.49
268.46	24.58
268.676	-6.14
268.892	71.68
269.108	71.68
269.324	32.77
269.54	-55.3
269.756	14.34
269.972	36.86
270.188	12.29
270.403	94.21
270.619	47.1
270.835	45.06
271.051	-4.1
271.267	71.68
271.483	45.06
271.698	34.82
271.914	-12.29
272.13	57.34
272.346	16.38
272.562	-14.34
272.777	186.37
272.993	24.58
273.209	-34.82
273.425	34.82
273.64	-47.1
273.856	-18.43
274.072	-67.58
274.287	10.24
274.503	100.35
274.719	0
274.934	-10.24
275.15	-30.72
275.366	20.48
275.581	-16.38
275.797	-45.06
276.012	61.44
276.228	47.1
276.444	-30.72
276.659	40.96
276.875	-8.19
277.09	6.14
277.306	65.54
277.521	108.54
277.737	6.14
277.952	16.38
278.168	59.39
278.383	63.49
278.599	6.14
278.814	65.54
279.03	59.39
279.245	149.5
279.461	16.38
279.676	65.54
279.892	-45.06
280.107	-28.67
280.322	55.3
280.538	32.77
280.753	22.53
280.969	83.97
281.184	55.3
281.399	96.25
281.615	151.55
281.83	53.25
282.045	-57.34
282.26	43.01
282.476	20.48
282.691	114.69
282.906	55.3
283.122	65.54
283.337	-6.14
283.552	106.49
283.767	40.96
283.983	20.48
284.198	16.38
284.413	12.29
284.628	22.53
284.843	59.39
285.058	61.44
285.274	-12.29
285.489	-12.29
285.704	88.06
285.919	-2.05
286.134	55.3
286.349	40.96
286.564	-47.1
286.779	26.62
286.995	20.48
287.21	-8.19
287.425	51.2
287.64	38.91
287.855	88.06
288.07	-36.86
288.285	36.86
288.5	151.55
288.715	47.1
288.93	104.45
289.145	-55.3
289.36	59.39
289.575	0
289.79	40.96
290.004	-10.24
290.219	57.34
290.434	-18.43
290.649	-86.01
290.864	10.24
291.079	45.06
291.294	59.39
291.509	83.97
291.724	63.49
291.938	-26.62
292.153	67.58
292.368	16.38
292.583	92.16
292.798	30.72
293.012	4.1
293.227	24.58
293.442	65.54
293.657	63.49
293.871	71.68
294.086	6.14
294.301	104.45
294.516	51.2
294.73	67.58
294.945	-16.38
295.16	75.77
295.374	75.77
295.589	67.58
295.804	-10.24
296.018	-14.34
296.233	51.2
296.447	40.96
296.662	10.24
296.877	59.39
297.091	114.69
297.306	122.88
297.52	-2.05
297.735	59.39
297.949	51.2
298.164	106.49
298.378	-14.34
298.593	12.29
298.807	8.19
299.022	57.34
299.236	116.73
299.451	-2.05
299.665	104.45
299.88	16.38
300.094	24.58
300.309	59.39
300.523	30.72
300.737	88.06
300.952	32.77
301.166	-10.24
301.381	-22.53
301.595	4.1
301.809	22.53
302.024	38.91
302.238	49.15
302.452	51.2
302.667	-10.24
302.881	110.59
303.095	135.17
303.309	-36.86
303.524	18.43
303.738	-2.05
303.952	12.29
304.166	24.58
304.381	-8.19
304.595	69.63
304.809	18.43
305.023	104.45
305.237	12.29
305.452	-12.29
305.666	34.82
305.88	14.34
306.094	71.68
306.308	20.48
306.522	88.06
306.736	12.29
306.95	55.3
307.164	28.67
307.379	18.43
307.593	51.2
307.807	-16.38
308.021	81.92
308.235	69.63
308.449	8.19
308.663	-28.67
308.877	20.48
309.091	65.54
309.305	2.05
309.519	-57.34
309.733	108.54
309.947	-12.29
310.161	104.45
310.374	63.49
310.588	63.49
310.802	63.49
311.016	18.43
311.23	65.54
311.444	8.19
311.658	-40.96
311.872	96.25
312.085	20.48
312.299	69.63
312.513	133.12
312.727	18.43
312.941	-6.14
313.154	63.49
313.368	28.67
313.582	69.63
313.796	96.25
314.009	-4.1
314.223	88.06
314.437	20.48
314.651	114.69
314.864	16.38
315.078	8.19
315.292	-6.14
315.505	51.2
315.719	129.02
315.933	92.16
316.146	59.39
316.36	16.38
316.573	59.39
316.787	32.77
317.001	22.53
317.214	-34.82
317.428	22.53
317.641	26.62
317.855	20.48
318.068	73.73
318.282	79.87
318.495	143.36
318.709	94.21
318.922	16.38
319.136	124.93
319.349	92.16
319.563	2.05
319.776	28.67
319.99	-22.53
320.203	75.77
320.417	47.1
320.63	110.59
320.843	143.36
321.057	67.58
321.27	24.58
321.483	-6.14
321.697	55.3
321.91	-4.1
322.124	4.1
322.337	-2.05
322.55	-69.63
322.763	12.29
322.977	55.3
323.19	-49.15
323.403	10.24
323.617	77.82
323.83	126.97
324.043	106.49
324.256	36.86
324.469	32.77
324.683	61.44
324.896	45.06
325.109	0
325.322	24.58
325.535	45.06
325.748	2.05
325.962	61.44
326.175	63.49
326.388	73.73
326.601	12.29
326.814	2.05
327.027	-14.34
327.24	161.79
327.453	34.82
327.666	83.97
327.879	43.01
328.092	94.21
328.305	55.3
328.518	10.24
328.731	-47.1
328.944	20.48
329.157	53.25
329.37	12.29
329.583	57.34
329.796	155.65
330.009	6.14
330.222	69.63
330.435	92.16
330.648	47.1
330.861	26.62
331.073	49.15
331.286	112.64
331.499	65.54
331.712	47.1
331.925	61.44
332.138	-30.72
332.35	40.96
332.563	65.54
332.776	182.27
332.989	-22.53
333.202	88.06
333.414	98.3
333.627	-4.1
333.84	65.54
334.053	-30.72
334.265	40.96
334.478	-26.62
334.691	67.58
334.903	0
335.116	-120.83
335.329	34.82
335.541	49.15
335.754	81.92
335.966	-12.29
336.179	104.45
336.392	30.72
336.604	26.62
336.817	120.83
337.029	94.21
337.242	-51.2
337.454	40.96
337.667	36.86
337.88	122.88
338.092	122.88
338.305	65.54
338.517	-16.38
338.729	20.48
338.942	57.34
339.154	61.44
339.367	-61.44
339.579	88.06
339.792	-63.49
340.004	83.97
340.217	20.48
340.429	86.01
340.641	-24.58
340.854	28.67
341.066	30.72
341.278	0
341.491	194.56
341.703	30.72
341.915	28.67
342.128	6.14
342.34	51.2
342.552	20.48
342.764	38.91
342.977	47.1
343.189	59.39
343.401	71.68
343.613	6.14
343.826	55.3
344.038	22.53
344.25	65.54
344.462	4.1
344.674	116.73
344.886	51.2
345.099	47.1
345.311	16.38
345.523	22.53
345.735	-34.82
345.947	24.58
346.159	65.54
346.371	14.34
346.583	69.63
346.795	178.17
347.007	-10.24
347.219	88.06
347.431	67.58
347.643	53.25
347.855	47.1
348.067	69.63
348.279	20.48
348.491	59.39
348.703	120.83
348.915	86.01
349.127	14.34
349.339	73.73
349.551	16.38
349.763	129.02
349.975	-38.91
350.187	59.39
350.399	61.44
350.61	34.82
350.822	18.43
351.034	100.35
351.246	71.68
351.458	45.06
351.669	96.25
351.881	94.21
352.093	108.54
352.305	10.24
352.517	133.12
352.728	59.39
352.94	43.01
353.152	63.49
353.363	-55.3
353.575	83.97
353.787	186.37
353.999	88.06
354.21	147.45
354.422	36.86
354.633	-10.24
354.845	22.53
355.057	-2.05
355.268	45.06
355.48	110.59
355.692	63.49
355.903	86.01
356.115	6.14
356.326	26.62
356.538	75.77
356.749	90.11
356.961	114.69
357.172	16.38
357.384	-79.87
357.595	112.64
357.807	36.86
358.018	-24.58
358.23	61.44
358.441	135.17
358.653	51.2
358.864	6.14
359.075	-28.67
359.287	126.97
359.498	100.35
359.709	69.63
359.921	-12.29
360.132	98.3
360.344	61.44
360.555	-12.29
360.766	110.59
360.977	73.73
361.189	92.16
361.4	45.06
361.611	47.1
361.823	79.87
362.034	73.73
362.245	-6.14
362.456	71.68
362.667	112.64
362.879	28.67
363.09	118.78
363.301	45.06
363.512	45.06
363.723	-10.24
363.935	63.49
364.146	94.21
364.357	34.82
364.568	47.1
364.779	51.2
364.99	65.54
365.201	-55.3
365.412	131.07
365.623	45.06
365.834	36.86
366.045	34.82
366.256	94.21
366.467	81.92
366.678	-10.24
366.889	67.58
367.1	61.44
367.311	79.87
367.522	22.53
367.733	81.92
367.944	65.54
368.155	-47.1
368.366	20.48
368.577	88.06
368.788	135.17
368.999	51.2
369.209	51.2
369.42	79.87
369.631	133.12
369.842	79.87
370.053	49.15
370.264	106.49
370.474	4.1
370.685	16.38
370.896	28.67
371.107	196.61
371.317	63.49
371.528	2.05
371.739	61.44
371.95	61.44
372.16	26.62
372.371	-61.44
372.582	-2.05
372.792	118.78
373.003	83.97
373.214	-36.86
373.424	28.67
373.635	-36.86
373.846	153.6
374.056	77.82
374.267	45.06
374.477	90.11
374.688	38.91
374.898	47.1
375.109	32.77
375.319	40.96
375.53	102.4
375.74	92.16
375.951	51.2
376.161	90.11
376.372	24.58
376.582	-18.43
376.793	63.49
377.003	-36.86
377.214	49.15
377.424	81.92
377.635	79.87
377.845	26.62
378.055	153.6
378.266	59.39
378.476	69.63
378.686	57.34
378.897	110.59
379.107	129.02
379.317	114.69
379.528	45.06
379.738	86.01
379.948	-10.24
380.158	73.73
380.369	-28.67
380.579	122.88
380.789	26.62
380.999	77.82
381.21	6.14
381.42	206.84
381.63	20.48
381.84	-2.05
382.05	4.1
382.261	49.15
382.471	88.06
382.681	-12.29
382.891	118.78
383.101	32.77
383.311	16.38
383.521	88.06
383.731	75.77
383.941	135.17
384.151	14.34
384.361	49.15
384.571	118.78
384.781	77.82
384.991	165.89
385.201	102.4
385.411	151.55
385.621	92.16
385.831	71.68
386.041	55.3
386.251	45.06
386.461	81.92
386.671	77.82
386.881	71.68
387.091	71.68
387.301	110.59
387.511	61.44
387.72	139.26
387.93	51.2
388.14	28.67
388.35	106.49
388.56	88.06
388.769	104.45
388.979	43.01
389.189	59.39
389.399	38.91
389.609	73.73
389.818	90.11
390.028	30.72
390.238	92.16
390.447	24.58
390.657	86.01
390.867	-20.48
391.076	-71.68
391.286	28.67
391.496	71.68
391.705	16.38
391.915	96.25
392.125	108.54
392.334	110.59
392.544	139.26
392.753	71.68
392.963	53.25
393.172	24.58
393.382	12.29
393.591	204.8
393.801	53.25
394.01	102.4
394.22	81.92
394.429	129.02
394.639	100.35
394.848	63.49
395.058	51.2
395.267	43.01
395.477	79.87
395.686	79.87
395.895	155.65
396.105	186.37
396.314	81.92
396.524	153.6
396.733	92.16
396.942	206.84
397.152	90.11
397.361	147.45
397.57	18.43
397.78	77.82
397.989	100.35
398.198	180.22
398.407	92.16
398.617	114.69
398.826	20.48
399.035	118.78
399.244	184.32
399.453	133.12
399.663	59.39
399.872	96.25
400.081	106.49
400.29	192.51
400.499	169.98
400.708	155.65
400.917	149.5
401.127	176.13
401.336	75.77
401.545	180.22
401.754	137.21
401.963	114.69
402.172	77.82
402.381	83.97
402.59	90.11
402.799	120.83
403.008	135.17
403.217	151.55
403.426	172.03
403.635	2.05
403.844	169.98
404.053	98.3
404.262	129.02
404.471	258.04
404.68	143.36
404.888	147.45
405.097	225.28
405.306	135.17
405.515	249.85
405.724	178.17
405.933	176.13
406.142	182.27
406.35	210.94
406.559	190.46
406.768	137.21
406.977	188.41
407.185	169.98
407.394	235.52
407.603	182.27
407.812	264.19
408.02	233.47
408.229	229.37
408.438	266.24
408.646	196.61
408.855	212.99
409.064	280.57
409.272	217.08
409.481	399.35
409.69	270.33
409.898	282.62
410.107	378.87
410.315	352.25
410.524	301.05
410.733	374.78
410.941	329.72
411.15	307.2
411.358	399.35
411.567	495.61
411.775	391.16
411.984	503.8
412.192	430.07
412.401	499.7
412.609	612.34
412.818	567.29
413.026	450.55
413.234	540.66
413.443	495.61
413.651	462.84
413.86	569.34
414.068	626.68
414.276	708.6
414.485	610.29
414.693	733.17
414.901	733.17
415.11	641.01
415.318	731.12
415.526	727.03
415.734	755.7
415.943	849.91
416.151	845.81
416.359	884.72
416.567	866.29
416.776	952.31
416.984	1005.55
417.192	1091.57
417.4	1023.98
417.608	1054.7
417.817	1103.86
418.025	1157.1
418.233	1232.88
418.441	1189.87
418.649	1200.11
418.857	1282.03
419.065	1296.36
419.273	1327.08
419.481	1359.85
419.689	1437.67
419.897	1452.01
420.105	1527.78
420.313	1624.04
420.521	1658.85
420.729	1718.25
420.937	1763.3
421.145	1777.64
421.353	1912.8
421.561	1972.19
421.769	1933.28
421.977	2019.3
422.185	2150.37
422.393	2179.04
422.601	2326.49
422.809	2351.07
423.017	2398.17
423.224	2455.51
423.432	2451.42
423.64	2486.23
423.848	2797.53
424.056	2674.65
424.263	2848.72
424.471	2811.86
424.679	3024.85
424.887	3139.54
425.094	3262.41
425.302	3241.93
425.51	3395.53
425.718	3481.55
425.925	3542.99
426.133	3641.29
426.341	3968.96
426.548	3813.32
426.756	4034.5
426.964	3936.2
427.171	4100.03
427.379	4341.69
427.586	4437.95
427.794	4571.07
428.001	4884.41
428.209	4831.16
428.417	4962.23
428.624	5132.21
428.832	5279.66
429.039	5158.83
429.247	5244.85
429.454	5846.95
429.662	6170.53
429.869	5793.7
430.076	6078.37
430.284	5799.85
430.491	6137.76
430.699	6541.21
430.906	6576.03
431.114	6539.16
431.321	6897.56
431.528	6780.82
431.736	7464.85
431.943	7616.4
432.15	7665.55
432.358	7583.63
432.565	8032.13
432.772	8009.61
432.979	8501.12
433.187	8836.99
433.394	8431.49
433.601	9107.32
433.808	9217.91
434.016	9135.99
434.223	9394.03
434.43	10043.24
434.637	9891.69
434.844	10665.82
435.052	10831.71
435.259	10700.64
435.466	10600.29
435.673	10686.3
435.88	11501.39
436.087	11994.95
436.294	12083.02
436.501	11585.36
436.708	11919.18
436.915	12267.33
437.122	12957.5
437.329	12785.47
437.537	13229.88
437.743	13688.62
437.95	13729.58
438.157	13961
438.364	14530.34
438.571	14663.46
438.778	14495.52
438.985	15970.06
439.192	15277.85
439.399	15675.15
439.606	15630.1
439.813	16217.86
440.02	17360.63
440.227	16766.72
440.433	16936.7
440.64	17686.26
440.847	17503.99
441.054	17938.16
441.261	18898.66
441.467	18618.08
441.674	18919.14
441.881	19867.34
442.088	19508.95
442.294	19625.68
442.501	19818.19
442.708	20514.5
442.914	21386.94
443.121	21976.75
443.328	21630.65
443.534	22804.13
443.741	22484.65
443.948	21986.99
444.154	23789.2
444.361	23404.19
444.568	23715.48
444.774	23668.37
444.981	23778.97
445.187	24843.91
445.394	25794.17
445.6	25435.77
445.807	27854.42
446.013	26654.31
446.22	27209.31
446.426	28415.57
446.633	28757.58
446.839	29279.81
447.046	28448.33
447.252	30066.23
447.459	29902.39
447.665	29646.4
447.871	31168.04
448.078	32441.87
448.284	30838.31
448.491	31659.55
448.697	33168.9
448.903	33211.91
449.11	33705.47
449.316	33025.54
449.522	33539.58
449.728	34854.38
449.935	34885.1
450.141	34866.67
450.347	35390.95
450.553	34672.11
450.76	34874.86
450.966	36007.39
451.172	35851.74
451.378	36607.44
451.584	35671.52
451.791	36724.18
451.997	36951.5
452.203	37311.94
452.409	37459.4
452.615	37086.67
452.821	35821.02
453.027	35429.86
453.233	37115.34
453.44	36019.67
453.646	36408.79
453.852	36363.73
454.058	36818.38
454.264	35771.87
454.47	36609.49
454.676	35409.38
454.882	36922.83
455.088	33740.29
455.294	34258.42
455.5	34985.45
455.705	35184.1
455.911	33932.79
456.117	32847.37
456.323	32362
456.529	30821.93
456.735	32232.98
456.941	31493.66
457.147	31079.97
457.352	30117.43
457.558	29847.1
457.764	29834.81
457.97	28956.23
458.176	28599.88
458.381	28423.76
458.587	26943.08
458.793	27182.69
458.999	25794.17
459.204	27276.9
459.41	26678.89
459.616	25044.61
459.821	25060.99
460.027	25136.77
460.233	24483.47
460.438	23350.94
460.644	23281.31
460.85	22177.45
461.055	22150.83
461.261	22273.71
461.466	20532.93
461.672	19662.55
461.878	21307.07
462.083	19752.66
462.289	19298.01
462.494	18953.95
462.7	18509.54
462.905	17903.34
463.111	18644.71
463.316	18661.09
463.522	17901.29
463.727	18065.13
463.932	18233.07
464.138	17962.73
464.343	17917.68
464.549	17188.6
464.754	17858.29
464.959	17962.73
465.165	17751.79
465.37	16959.23
465.575	16408.33
465.781	17258.23
465.986	17348.34
466.191	16750.34
466.397	16338.69
466.602	15707.92
466.807	16267.02
467.012	16482.05
467.218	16094.99
467.423	16033.55
467.628	16076.55
467.833	16568.07
468.038	16019.21
468.244	15478.55
468.449	16371.46
468.654	15636.24
468.859	15499.03
469.064	15480.6
469.269	15183.64
469.474	15318.81
469.679	15294.23
469.885	14911.26
470.09	14935.84
470.295	14999.32
470.5	14538.53
470.705	14823.2
470.91	14061.35
471.115	14180.14
471.32	14382.88
471.525	14202.66
471.73	13836.08
471.935	13807.41
472.139	13586.22
472.344	13635.38
472.549	13543.22
472.754	13463.35
472.959	13102.9
473.164	12838.72
473.369	12638.02
473.574	13233.97
473.778	12986.17
473.983	13178.68
474.188	12724.03
474.393	12119.88
474.598	12296
474.802	12107.59
475.007	12144.45
475.212	12199.75
475.417	11894.6
475.621	11720.53
475.826	11794.25
476.031	11632.46
476.235	11312.98
476.44	11571.02
476.645	11368.27
476.849	11235.16
477.054	11173.72
477.259	10997.59
477.463	11149.14
477.668	10876.76
477.872	10852.19
478.077	10651.49
478.282	10387.3
478.486	10530.66
478.691	10323.81
478.895	10133.35
479.1	10198.88
479.304	10274.66
479.509	9918.31
479.713	10198.88
479.918	9547.63
480.122	9660.27
480.326	9846.63
480.531	9641.84
480.735	9647.98
480.94	9725.8
481.144	9832.3
481.348	9342.83
481.553	9625.45
481.757	9418.61
481.961	9572.21
482.166	9557.87
482.37	9516.91
482.574	9312.11
482.778	9240.43
482.983	9484.14
483.187	9279.35
483.391	9379.7
483.595	9265.01
483.8	9334.64
484.004	9484.14
484.208	9359.22
484.412	9418.61
484.616	9432.94
484.821	9557.87
485.025	9252.72
485.229	9521.01
485.433	9396.08
485.637	9406.32
485.841	9133.94
486.045	9273.2
486.249	9258.87
486.453	9441.14
486.657	9293.68
486.861	9391.98
487.065	9222
487.269	9336.69
487.473	9181.04
487.677	9394.03
487.881	9613.17
488.085	9291.63
488.289	9340.79
488.493	9324.4
488.697	9451.38
488.901	9334.64
489.105	9410.42
489.309	9369.46
489.512	9463.66
489.716	9588.59
489.92	9535.34
490.124	9432.94
490.328	9750.38
490.531	9385.84
490.735	9639.79
490.939	9609.07
491.143	9572.21
491.346	9588.59
491.55	9893.74
491.754	9652.08
491.958	10012.52
492.161	9863.02
492.365	9858.92
492.569	9820.01
492.772	9781.1
492.976	9969.51
493.18	9903.98
493.383	10049.38
493.587	10194.79
493.79	10157.92
493.994	10159.97
494.197	10309.47
494.401	10268.52
494.605	10334.05
494.808	10463.07
495.012	10409.83
495.215	10690.4
495.419	10540.9
495.622	10725.21
495.825	10688.35
496.029	10725.21
496.232	10876.76
496.436	10829.66
496.639	11186.01
496.843	11167.57
497.046	11452.24
497.249	11538.26
497.453	11562.83
497.656	11751.24
497.859	11695.95
498.063	11886.41
498.266	12302.15
498.469	12232.52
498.673	12177.22
498.876	12240.71
499.079	12308.29
499.282	12513.09
499.485	12955.45
499.689	12652.35
499.892	12853.05
500.095	12959.55
500.298	13332.28
500.501	13184.82
500.705	13592.37
500.908	13809.45
501.111	13680.43
501.314	13793.07
501.517	14044.97
501.72	14434.08
501.923	14229.29
502.126	14626.59
502.329	14587.68
502.532	14763.81
502.735	14796.57
502.938	15470.36
503.141	15216.41
503.344	15527.7
503.547	15468.31
503.75	15638.29
503.953	15935.24
504.156	16103.18
504.359	16092.94
504.562	16226.06
504.765	16408.33
504.968	16719.62
505.17	17151.74
505.373	17116.92
505.576	17495.8
505.779	17346.3
505.982	17460.98
506.185	18198.25
506.387	17921.77
506.59	18005.74
506.793	18310.89
506.996	18243.31
507.198	19076.83
507.401	18814.69
507.604	18923.23
507.807	19349.21
508.009	19306.2
508.212	19476.18
508.415	19783.38
508.617	20080.33
508.82	20211.4
509.022	20149.96
509.225	20645.57
509.428	20633.29
509.63	20799.17
509.833	20780.74
510.035	21063.36
510.238	21120.7
510.44	21763.76
510.643	22056.62
510.845	22089.39
511.048	21982.9
511.25	22005.42
511.453	22392.49
511.655	23332.51
511.858	22818.47
512.06	23086.75
512.262	23293.6
512.465	23240.35
512.667	23803.54
512.87	23608.98
513.072	23697.05
513.274	24137.36
513.477	24688.26
513.679	24800.9
513.881	25065.09
514.084	24897.16
514.286	25343.61
514.488	25314.94
514.69	25908.85
514.893	25906.8
515.095	25810.55
515.297	26218.1
515.499	26310.25
515.701	26492.52
515.904	26752.62
516.106	27188.83
516.308	27246.18
516.51	27721.31
516.712	27496.03
516.914	27756.12
517.116	28022.36
517.318	28296.78
517.52	28200.53
517.722	28579.4
517.925	28651.08
518.127	29017.67
518.329	28982.85
518.531	29349.44
518.733	29541.95
518.935	29689.4
519.136	29797.95
519.338	30219.83
519.54	30465.58
519.742	30547.5
519.944	30610.99
520.146	30993.96
520.348	31131.17
520.55	30862.89
520.752	31503.9
520.954	31772.19
521.155	31823.39
521.357	31913.5
521.559	32253.46
521.761	32439.83
521.963	32329.23
522.164	32884.23
522.366	32589.33
522.568	33197.57
522.77	33328.64
522.971	33689.09
523.173	33160.71
523.375	33242.63
523.576	33830.4
523.778	33580.54
523.98	33693.18
524.181	34313.72
524.383	34057.72
524.584	34592.24
524.786	34571.76
524.988	34373.11
525.189	34899.44
525.391	34999.79
525.592	34729.45
525.794	35345.89
525.995	35210.73
526.197	35147.24
526.398	35192.29
526.6	35259.88
526.801	35233.25
527.003	35487.2
527.204	35855.84
527.406	35845.6
527.607	36271.57
527.808	36013.53
528.01	35411.43
528.211	35769.82
528.412	36660.69
528.614	36703.7
528.815	36140.5
529.016	36453.84
529.218	36373.97
529.419	36582.87
529.62	36396.5
529.822	36355.54
530.023	36484.56
530.224	36498.9
530.425	36081.11
530.626	36107.74
530.828	36070.87
531.029	37174.73
531.23	36449.75
531.431	36367.83
531.632	36414.93
531.833	36500.95
532.035	36603.35
532.236	36812.24
532.437	36830.67
532.638	36433.36
532.839	36605.39
533.04	36867.53
533.241	36847.05
533.442	37268.94
533.643	36836.81
533.844	36695.5
534.045	36648.4
534.246	36527.57
534.447	37113.29
534.648	36822.48
534.849	36654.54
535.05	36494.8
535.251	36552.15
535.451	36197.85
535.652	36527.57
535.853	36849.1
536.054	36683.22
536.255	36885.97
536.456	36787.66
536.657	37021.13
536.857	36638.16
537.058	36371.92
537.259	36845.01
537.46	36832.72
537.66	36574.67
537.861	36711.89
538.062	36918.73
538.263	36943.31
538.463	36662.74
538.664	36797.9
538.865	36707.79
539.065	37101
539.266	36505.04
539.466	36912.59
539.667	36357.59
539.868	36654.54
540.068	37027.27
540.269	36494.8
540.469	36967.88
540.67	36480.47
540.87	36386.26
541.071	36193.75
541.271	36582.87
541.472	36726.22
541.672	36077.02
541.873	36546
542.073	35726.81
542.274	36746.7
542.474	36457.94
542.675	36394.45
542.875	36933.07
543.075	36384.21
543.276	35796.45
543.476	37051.85
543.676	36365.78
543.877	36402.64
544.077	36505.04
544.277	36392.4
544.478	36474.32
544.678	36830.67
544.878	36322.77
545.078	36597.2
545.279	35966.43
545.479	35984.86
545.679	36263.38
545.879	36259.29
546.079	36638.16
546.28	36539.86
546.48	35859.93
546.68	36185.56
546.88	36455.89
547.08	36492.76
547.28	36255.19
547.48	36296.15
547.68	36265.43
547.88	36126.17
548.081	36525.52
548.281	35966.43
548.481	36136.41
548.681	36584.91
548.881	36132.31
549.081	36056.54
549.28	36269.53
549.48	36562.39
549.68	36171.22
549.88	36353.49
550.08	35806.69
550.28	36318.68
550.48	36111.83
550.68	36554.19
550.88	36029.91
551.08	36312.53
551.279	36101.59
551.479	35384.8
551.679	36335.06
551.879	35849.69
552.079	36312.53
552.278	35655.14
552.478	36079.07
552.678	36052.44
552.878	36302.29
553.077	35851.74
553.277	35468.77
553.477	36386.26
553.676	36087.26
553.876	35724.77
554.076	35712.48
554.275	36148.7
554.475	35155.43
554.674	36154.84
554.874	36003.29
555.074	35720.67
555.273	35974.62
555.473	36287.96
555.672	35612.13
555.872	35798.49
556.071	35923.42
556.271	36234.71
556.47	36105.69
556.67	35704.29
556.869	36107.74
557.068	36122.07
557.268	36077.02
557.467	36107.74
557.667	36122.07
557.866	35970.52
558.065	36068.83
558.265	35685.86
558.464	35827.17
558.663	35913.18
558.863	35524.07
559.062	36228.57
559.261	35419.62
559.461	36425.17
559.66	35198.44
559.859	35479.01
560.058	35352.04
560.258	35393
560.457	35425.76
560.656	35726.81
560.855	35124.71
561.054	35974.62
561.253	35466.72
561.453	35470.82
561.652	35622.37
561.851	35778.01
562.05	35474.91
562.249	35524.07
562.448	36040.15
562.647	35681.76
562.846	35612.13
563.045	35532.26
563.244	35208.68
563.443	35728.86
563.642	35268.07
563.841	35599.84
564.04	35196.39
564.239	35640.8
564.438	35040.75
564.637	35280.36
564.836	35286.5
565.035	35085.8
565.234	35382.76
565.432	35276.26
565.631	35247.59
565.83	35575.27
566.029	35141.1
566.228	34848.24
566.427	35261.93
566.625	34751.98
566.824	34835.95
567.023	35364.32
567.222	34457.07
567.42	35370.47
567.619	35020.27
567.818	34856.43
568.016	35188.2
568.215	35079.66
568.414	34731.5
568.612	35048.94
568.811	34770.41
569.01	34711.02
569.208	34473.46
569.407	34991.59
569.605	34856.43
569.804	35304.93
570.002	34618.86
570.201	34672.11
570.4	34442.74
570.598	34452.98
570.797	34444.79
570.995	34303.48
571.193	34172.41
571.392	34735.6
571.59	34225.65
571.789	34448.88
571.987	34409.97
572.186	34291.19
572.384	34104.82
572.582	35075.56
572.781	34905.58
572.979	34117.11
573.177	34115.06
573.376	34207.22
573.574	33877.5
573.772	34502.13
573.971	34090.49
574.169	33756.67
574.367	33746.43
574.565	34156.02
574.763	34067.96
574.962	34123.26
575.16	33584.64
575.358	33961.47
575.556	33431.04
575.754	34008.57
575.952	33658.37
576.151	34014.71
576.349	33492.48
576.547	33357.31
576.745	33656.32
576.943	33586.69
577.141	33441.28
577.339	33549.82
577.537	33297.92
577.735	33445.38
577.933	33132.04
578.131	33170.95
578.329	33263.11
578.527	32876.04
578.725	33005.06
578.923	32896.52
579.121	33072.65
579.319	33013.26
579.516	33089.03
579.714	33472
579.912	33054.22
580.11	32941.58
580.308	33009.16
580.506	32691.73
580.704	32087.57
580.901	32839.18
581.099	32867.85
581.297	32474.64
581.495	32472.59
581.692	32671.25
581.89	32222.74
582.088	32339.47
582.285	32243.22
582.483	32183.83
582.681	32362
582.878	32521.74
583.076	31598.11
583.274	32271.89
583.471	31831.58
583.669	32087.57
583.866	31825.43
584.064	32294.42
584.262	31729.18
584.459	32001.56
584.657	31823.39
584.854	32077.33
585.052	31530.53
585.249	31989.27
585.447	31632.93
585.644	31497.76
585.841	31739.42
586.039	31923.74
586.236	31274.53
586.434	31219.24
586.631	31358.5
586.828	31436.32
587.026	31067.69
587.223	30998.06
587.42	30950.95
587.618	31225.38
587.815	30567.98
588.012	30574.13
588.21	30543.41
588.407	31122.98
588.604	30823.98
588.801	30256.69
588.999	30836.27
589.196	30879.27
589.393	30539.31
589.59	30283.31
589.787	30338.61
589.984	30449.2
590.182	30338.61
590.379	30668.33
590.576	30221.87
590.773	30324.27
590.97	30281.27
591.167	30158.39
591.364	29699.64
591.561	30357.04
591.758	29871.67
591.955	29873.72
592.152	30041.65
592.349	29752.89
592.546	29978.17
592.743	29652.54
592.94	28907.08
593.137	29621.82
593.334	29597.24
593.531	29089.35
593.727	29623.87
593.924	29468.22
594.121	29109.83
594.318	29410.88
594.515	28984.9
594.712	29474.37
594.908	28939.85
595.105	29236.8
595.302	28513.87
595.499	29175.36
595.696	29025.86
595.892	28692.04
596.089	28839.5
596.286	28710.47
596.482	28499.53
596.679	28749.39
596.876	28569.16
597.072	28565.07
597.269	28513.87
597.466	28137.04
597.662	28257.87
597.859	28055.12
598.055	28102.23
598.252	28128.85
598.448	28155.47
598.645	28100.18
598.841	28241.49
599.038	28001.88
599.234	28122.71
599.431	27932.25
599.627	27631.19
599.824	28401.23
600.02	27442.78
600.217	27928.15
600.413	27821.66
600.609	27915.86
600.806	27795.03
601.002	27473.5
601.198	27397.73
601.395	27328.09
601.591	27459.16
601.787	27715.16
601.984	27301.47
602.18	27291.23
602.376	26988.13
602.572	27324
602.769	27209.31
602.965	27068
603.161	27168.35
603.357	26885.73
603.553	26799.72
603.75	26953.32
603.946	26754.66
604.142	27047.52
604.338	26551.91
604.534	26723.94
604.73	26513
604.926	26568.3
605.122	26662.51
605.318	26447.47
605.514	26386.03
605.71	26132.08
605.906	26814.05
606.102	26539.63
606.298	26529.39
606.494	26269.3
606.69	26261.1
606.886	26293.87
607.082	25839.22
607.278	26474.09
607.474	25929.33
607.67	26244.72
607.866	26103.41
608.062	26279.53
608.257	26074.74
608.453	25845.37
608.649	25720.44
608.845	25609.85
609.041	26127.99
609.236	25925.24
609.432	25673.34
609.628	26035.83
609.824	25841.27
610.019	25652.86
610.215	25777.78
610.411	25747.06
610.606	25800.31
610.802	25853.56
610.998	25990.77
611.193	25552.51
611.389	25417.34
611.584	25472.64
611.78	25476.73
611.976	25499.26
612.171	25841.27
612.367	25339.52
612.562	25190.02
612.758	24981.12
612.953	25030.27
613.149	25609.85
613.344	25331.33
613.539	25710.2
613.735	25601.66
613.93	25200.26
614.126	25116.29
614.321	25251.45
614.517	25194.11
614.712	25396.86
614.907	24895.11
615.103	25316.99
615.298	25335.42
615.493	25294.46
615.688	24843.91
615.884	25413.24
616.079	24667.78
616.274	25079.43
616.47	25218.69
616.665	24878.72
616.86	24911.49
617.055	24671.88
617.25	24786.57
617.445	25030.27
617.641	24696.46
617.836	24671.88
618.031	24491.66
618.226	24673.93
618.421	24565.39
618.616	24487.56
618.811	23895.7
619.006	24282.77
619.201	24188.56
619.396	24270.48
619.591	23805.59
619.786	24417.93
619.981	23680.66
620.176	24186.51
620.371	23557.78
620.566	23553.69
620.761	23631.51
620.956	23961.23
621.151	23373.47
621.346	23799.44
621.541	23035.55
621.735	23178.91
621.93	22906.53
622.125	22961.83
622.32	22863.52
622.515	23103.14
622.709	22529.7
622.904	22945.44
623.099	22331.05
623.294	22650.53
623.488	22333.1
623.683	22388.39
623.878	22021.81
624.072	22036.14
624.267	22171.31
624.462	22120.11
624.656	21644.98
624.851	21647.03
625.046	21618.36
625.24	21444.28
625.435	21192.38
625.629	21427.9
625.824	21151.42
626.018	21276.35
626.213	20850.37
626.407	21198.52
626.602	20606.66
626.796	20926.14
626.991	20901.57
627.185	20534.98
627.38	20420.3
627.574	20260.55
627.768	20446.92
627.963	20379.34
628.157	20084.43
628.352	20002.51
628.546	19521.24
628.74	19732.18
628.935	19693.27
629.129	19529.43
629.323	19431.13
629.517	19267.29
629.712	19191.52
629.906	19224.28
630.1	18947.81
630.294	19123.93
630.489	19007.2
630.683	18882.27
630.877	18593.51
631.071	18628.32
631.265	18519.78
631.459	18808.54
631.653	18429.67
631.848	18484.97
632.042	18124.52
632.236	18362.09
632.43	18067.18
632.624	18042.6
632.818	17948.4
633.012	17846
633.206	17731.31
633.4	17858.29
633.594	17716.98
633.788	17626.87
633.982	17282.81
634.176	17372.92
634.369	17340.15
634.563	17327.86
634.757	17069.82
634.951	17432.31
635.145	17082.11
635.339	16955.13
635.533	16662.27
635.726	16459.52
635.92	16635.65
636.114	16584.45
636.308	16363.27
636.501	16277.26
636.695	16518.92
636.889	16336.65
637.083	16119.56
637.276	16068.36
637.47	16006.92
637.664	16140.04
637.857	15744.78
638.051	15744.78
638.244	15537.94
638.438	15628.05
638.632	15546.13
638.825	15351.57
639.019	15462.16
639.212	15400.72
639.406	15283.99
639.599	15009.56
639.793	15071
639.986	14901.02
640.18	15011.61
640.373	14642.98
640.567	14487.33
640.76	14679.84
640.954	14538.53
641.147	14303.01
641.34	14440.23
641.534	14300.97
641.727	14473
641.92	14126.89
642.114	13920.04
642.307	13836.08
642.5	13926.19
642.694	13774.64
642.887	13676.34
643.08	13899.56
643.273	13694.77
643.467	13750.06
643.66	13344.56
643.853	13453.11
644.046	13475.63
644.239	13367.09
644.432	13219.64
644.626	12941.11
644.819	13012.79
645.012	13236.02
645.205	12797.76
645.398	13025.08
645.591	12861.24
645.784	12803.9
645.977	12586.82
646.17	12560.19
646.363	12425.03
646.556	12422.98
646.749	12291.91
646.942	12281.67
647.135	12203.85
647.328	12017.48
647.521	12107.59
647.714	11921.23
647.907	12003.14
648.099	11788.11
648.292	11906.89
648.485	11609.93
648.678	11724.62
648.871	11609.93
649.064	11554.64
649.256	11417.43
649.449	11345.75
649.642	11337.56
649.835	11208.53
650.027	11077.46
650.22	11099.99
650.413	10878.81
650.605	11071.32
650.798	10913.63
650.991	10721.12
651.183	10880.86
651.376	10714.97
651.568	10837.85
651.761	10778.46
651.954	10512.22
652.146	10504.03
652.339	10465.12
652.531	10635.1
652.724	10288.99
652.916	10260.32
653.109	10137.45
653.301	10149.73
653.494	10168.16
653.686	9860.97
653.879	10108.77
654.071	9820.01
654.263	9652.08
654.456	9719.66
654.648	9858.92
654.84	9525.1
655.033	9703.28
655.225	9555.82
655.417	9512.81
655.61	9426.8
655.802	9391.98
655.994	9236.34
656.186	9244.53
656.379	9250.67
656.571	9146.23
656.763	9162.61
656.955	8898.42
657.148	9092.98
657.34	8949.62
657.532	9011.06
657.724	8898.42
657.916	8697.72
658.108	8771.45
658.3	8675.2
658.492	8615.8
658.684	8548.22
658.876	8494.97
659.068	8247.17
659.26	8255.36
659.452	8339.33
659.644	8331.14
659.836	8310.66
660.028	8374.14
660.22	8173.44
660.412	8118.15
660.604	8206.21
660.796	7909.26
660.988	7933.83
661.18	7946.12
661.372	7913.35
661.563	7872.39
661.755	7659.4
661.947	7681.93
662.139	7726.99
662.331	7610.25
662.522	7575.44
662.714	7507.85
662.906	7509.9
663.097	7460.75
663.289	7405.45
663.481	7206.8
663.673	7333.78
663.864	7276.43
664.056	7274.39
664.247	7190.42
664.439	7147.41
664.631	7032.72
664.822	7075.73
665.014	7163.79
665.205	6963.09
665.397	6950.81
665.588	6946.71
665.78	6893.46
665.971	6750.1
666.163	6743.96
666.354	6838.17
666.546	6764.44
666.737	6651.8
666.929	6555.55
667.12	6569.88
667.311	6584.22
667.503	6533.02
667.694	6457.25
667.885	6389.66
668.077	6401.95
668.268	6227.87
668.459	6356.9
668.651	6365.09
668.842	6248.35
669.033	6309.79
669.224	6303.65
669.416	6295.46
669.607	6234.02
669.798	6322.08
669.989	6260.64
670.18	6002.6
670.371	6148
670.563	6004.64
670.754	5973.92
670.945	5988.26
671.136	6244.26
671.327	5865.38
671.518	5978.02
671.709	5828.52
671.9	6074.28
672.091	5863.33
672.282	5857.19
672.473	5844.9
672.664	5791.66
672.855	5863.33
673.046	6053.8
673.237	5752.74
673.428	5746.6
673.619	5777.32
673.809	5830.57
674	5646.25
674.191	5539.76
674.382	5613.48
674.573	5539.76
674.764	5789.61
674.954	5685.16
675.145	5459.88
675.336	5539.76
675.527	5527.47
675.717	5453.74
675.908	5623.72
676.099	5550
676.289	5320.62
676.48	5361.58
676.671	5511.08
676.861	5564.33
677.052	5390.25
677.243	5326.77
677.433	5511.08
677.624	5484.46
677.814	5384.11
678.005	5400.49
678.195	5552.04
678.386	5423.02
678.576	5197.74
678.767	5285.81
678.957	5437.36
679.148	5255.09
679.338	5160.88
679.529	5265.33
679.719	5316.53
679.909	5246.9
680.1	5191.6
680.29	5375.92
680.481	5169.07
680.671	5427.12
680.861	5171.12
681.052	5216.18
681.242	5187.5
681.432	5121.97
681.622	5160.88
681.813	4990.9
682.003	5087.15
682.193	5062.58
682.383	5216.18
682.573	5103.54
682.764	5001.14
682.954	5246.9
683.144	5142.45
683.334	4999.09
683.524	5109.68
683.714	5124.02
683.904	4951.99
684.094	5060.53
684.284	5089.2
684.474	5152.69
684.664	4995
684.854	5029.81
685.044	4884.41
685.234	4882.36
685.424	4923.32
685.614	4958.13
685.804	5021.62
685.994	4861.88
686.184	4986.8
686.374	4872.12
686.564	4966.32
686.753	4958.13
686.943	4849.59
687.133	4927.41
687.323	4847.54
687.513	4886.45
687.702	4931.51
687.892	4736.95
688.082	4720.57
688.272	4941.75
688.461	4759.48
688.651	4788.15
688.841	4782.01
689.03	4784.06
689.22	4591.55
689.41	4689.85
689.599	4702.14
689.789	4556.73
689.979	4702.14
690.168	4638.65
690.358	4620.22
690.547	4538.3
690.737	4599.74
690.926	4691.9
691.116	4417.47
691.305	4642.75
691.495	4480.96
691.684	4425.66
691.874	4624.31
692.063	4491.2
692.252	4593.59
692.442	4532.15
692.631	4519.87
692.82	4550.59
693.01	4530.11
693.199	4425.66
693.388	4536.25
693.578	4405.18
693.767	4607.93
693.956	4480.96
694.146	4489.15
694.335	4415.42
694.524	4446.14
694.713	4571.07
694.902	4585.4
695.092	4413.37
695.281	4384.7
695.47	4515.77
695.659	4538.3
695.848	4425.66
696.037	4571.07
696.226	4382.65
696.415	4450.24
696.604	4591.55
696.793	4456.38
696.982	4538.3
697.171	4523.96
697.36	4384.7
697.549	4603.83
697.738	4616.12
697.927	4499.39
698.116	4435.9
698.305	4566.97
698.494	4458.43
698.683	4480.96
698.872	4589.5
699.061	4474.81
699.25	4396.99
699.438	4663.22
699.627	4556.73
699.816	4558.78
700.005	4552.63
700.193	4452.28
700.382	4544.44
700.571	4478.91
700.76	4448.19
700.948	4442.04
701.137	4569.02
701.326	4593.59
701.514	4409.28
701.703	4687.8
701.892	4503.48
702.08	4855.73
702.269	4571.07
702.457	4396.99
702.646	4753.34
702.834	4503.48
703.023	4577.21
703.212	4667.32
703.4	4399.04
703.589	4392.89
703.777	4468.67
703.965	4505.53
704.154	4460.48
704.342	4401.08
704.531	4652.98
704.719	4366.27
704.907	4628.41
705.096	4384.7
705.284	4419.52
705.472	4552.63
705.661	4581.31
705.849	4571.07
706.037	4534.2
706.226	4485.05
706.414	4693.94
706.602	4415.42
706.79	4478.91
706.979	4478.91
707.167	4407.23
707.355	4265.92
707.543	4605.88
707.731	4587.45
707.919	4581.31
708.107	4433.85
708.296	4513.72
708.484	4343.74
708.672	4544.44
708.86	4540.35
709.048	4583.35
709.236	4431.8
709.424	4558.78
709.612	4466.62
709.8	4458.43
709.988	4454.33
710.176	4396.99
710.364	4495.29
710.551	4382.65
710.739	4388.8
710.927	4450.24
711.115	4528.06
711.303	4489.15
711.491	4401.08
711.679	4440
711.866	4380.61
712.054	4450.24
712.242	4401.08
712.43	4474.81
712.617	4298.69
712.805	4423.61
712.993	4562.87
713.181	4296.64
713.368	4374.46
713.556	4384.7
713.744	4327.36
713.931	4474.81
714.119	4425.66
714.306	4290.49
714.494	4132.8
714.682	4274.11
714.869	4343.74
715.057	4519.87
715.244	4237.25
715.432	4351.93
715.619	4274.11
715.807	4384.7
715.994	4347.84
716.182	4251.58
716.369	4241.34
716.556	4370.37
716.744	4132.8
716.931	4253.63
717.119	4390.85
717.306	4335.55
717.493	4214.72
717.681	4247.49
717.868	4147.14
718.055	4366.27
718.242	4138.94
718.43	4247.49
718.617	4349.89
718.804	4173.76
718.991	4237.25
719.179	4229.06
719.366	4165.57
719.553	4171.71
719.74	4270.01
719.927	4308.93
720.114	4145.09
720.301	4087.75
720.488	4222.91
720.676	4140.99
720.863	4116.42
721.05	4179.9
721.237	4218.82
721.424	4159.42
721.611	4149.18
721.798	4184
721.985	4165.57
722.172	4114.37
722.358	3999.68
722.545	4132.8
722.732	3977.16
722.919	4140.99
723.106	3885
723.293	4069.31
723.48	4073.41
723.667	3823.56
723.853	4050.88
724.04	4061.12
724.227	4102.08
724.414	3971.01
724.6	3948.48
724.787	4116.42
724.974	3966.92
725.161	3962.82
725.347	4106.18
725.534	3958.72
725.72	3995.59
725.907	4097.99
726.094	3905.48
726.28	3968.96
726.467	3809.22
726.653	4046.79
726.84	4022.21
727.027	3995.59
727.213	4048.83
727.4	3913.67
727.586	3964.87
727.773	4040.64
727.959	4001.73
728.145	3866.57
728.332	3930.05
728.518	3866.57
728.705	3887.04
728.891	3819.46
729.077	3815.37
729.264	3821.51
729.45	3827.65
729.636	3844.04
729.823	3774.41
730.009	3995.59
730.195	3831.75
730.382	3719.11
730.568	3782.6
730.754	3692.49
730.94	3710.92
731.126	3778.5
731.313	3758.02
731.499	3741.64
731.685	3747.78
731.871	3766.21
732.057	3739.59
732.243	3692.49
732.429	3852.23
732.615	3712.97
732.801	3794.89
732.987	3540.94
733.173	3602.38
733.359	3588.04
733.545	3669.96
733.731	3667.91
733.917	3647.43
734.103	3602.38
734.289	3588.04
734.475	3571.66
734.661	3600.33
734.847	3502.03
735.033	3723.21
735.219	3590.09
735.404	3698.63
735.59	3481.55
735.776	3428.3
735.962	3579.85
736.148	3522.51
736.333	3563.47
736.519	3477.45
736.705	3565.51
736.89	3471.31
737.076	3577.8
737.262	3391.44
737.447	3385.29
737.633	3299.28
737.819	3569.61
738.004	3426.25
738.19	3432.4
738.375	3358.67
738.561	3416.01
738.747	3381.2
738.932	3364.81
739.118	3409.87
739.303	3307.47
739.489	3442.64
739.674	3213.26
739.859	3332.05
740.045	3344.33
740.23	3260.37
740.416	3301.33
740.601	3391.44
740.786	3268.56
740.972	3106.77
741.157	3153.87
741.342	3153.87
741.528	3149.78
741.713	3237.84
741.898	3127.25
742.084	3186.64
742.269	3076.05
742.454	3145.68
742.639	3168.21
742.824	3074
743.01	3188.69
743.195	3080.15
743.38	3151.82
743.565	3157.97
743.75	3123.15
743.935	3033.04
744.12	3086.29
744.305	2951.12
744.49	2840.53
744.675	3043.28
744.86	2813.91
745.045	2940.88
745.23	2889.68
745.415	2865.11
745.6	2908.12
745.785	2828.24
745.97	2906.07
746.155	2938.84
746.34	2811.86
746.525	2813.91
746.71	2832.34
746.895	2768.85
747.079	2672.6
747.264	2815.96
747.449	2697.17
747.634	2715.61
747.819	2670.55
748.003	2553.82
748.188	2637.78
748.373	2662.36
748.557	2701.27
748.742	2480.09
748.927	2514.91
749.111	2559.96
749.296	2623.45
749.481	2547.67
749.665	2574.3
749.85	2439.13
750.034	2539.48
750.219	2338.78
750.404	2475.99
750.588	2439.13
750.773	2353.12
750.957	2373.6
751.141	2451.42
751.326	2490.33
751.51	2269.15
751.695	2244.57
751.879	2297.82
752.064	2332.64
752.248	2256.86
752.432	2344.92
752.617	2297.82
752.801	2263.01
752.985	2189.28
753.17	2244.57
753.354	2252.77
753.538	2252.77
753.722	2201.57
753.907	2115.55
754.091	2109.41
754.275	2066.4
754.459	2035.68
754.643	2033.63
754.828	2174.94
755.012	1980.39
755.196	2088.93
755.38	2103.26
755.564	1931.23
755.748	2002.91
755.932	2101.22
756.116	2033.63
756.3	1939.43
756.484	1896.42
756.668	1910.75
756.852	1867.75
757.036	1966.05
757.22	1968.1
757.404	1898.47
757.588	1818.6
757.772	1935.33
757.956	1859.56
758.14	1943.52
758.323	1816.55
758.507	1785.83
758.691	1824.74
758.875	1814.5
759.059	1814.5
759.242	1736.68
759.426	1708.01
759.61	1832.93
759.794	1562.6
759.977	1611.75
760.161	1753.06
760.345	1738.73
760.528	1671.14
760.712	1646.57
760.895	1763.3
761.079	1728.49
761.263	1611.75
761.446	1652.71
761.63	1644.52
761.813	1724.39
761.997	1531.88
762.18	1511.4
762.364	1652.71
762.547	1437.67
762.731	1599.46
762.914	1638.38
763.098	1576.94
763.281	1515.5
763.464	1501.16
763.648	1601.51
763.831	1507.31
764.015	1449.96
764.198	1464.3
764.381	1445.87
764.564	1601.51
764.748	1429.48
764.931	1513.45
765.114	1529.83
765.297	1521.64
765.481	1497.07
765.664	1525.74
765.847	1505.26
766.03	1476.59
766.213	1349.61
766.397	1423.34
766.58	1361.9
766.763	1462.25
766.946	1462.25
767.129	1437.67
767.312	1456.11
767.495	1472.49
767.678	1361.9
767.861	1333.23
768.044	1304.56
768.227	1466.35
768.41	1452.01
768.593	1341.42
768.776	1345.52
768.959	1456.11
769.142	1435.63
769.324	1337.32
769.507	1366
769.69	1239.02
769.873	1409
770.056	1445.87
770.239	1325.04
770.421	1468.39
770.604	1337.32
770.787	1222.64
770.97	1384.43
771.152	1187.82
771.335	1404.91
771.518	1181.68
771.7	1447.91
771.883	1198.06
772.066	1282.03
772.248	1384.43
772.431	1366
772.613	1253.36
772.796	1216.49
772.978	1232.88
773.161	1322.99
773.343	1155.05
773.526	1181.68
773.708	1054.7
773.891	1105.9
774.073	1236.97
774.256	1087.47
774.438	1234.93
774.621	1075.18
774.803	1228.78
774.985	1030.13
775.168	1216.49
775.35	1130.48
775.532	1118.19
775.715	1054.7
775.897	1148.91
776.079	1083.38
776.261	1087.47
776.444	997.36
776.626	1091.57
776.808	1019.89
776.99	960.5
777.173	1042.42
777.355	960.5
777.537	1046.51
777.719	983.02
777.901	1023.98
778.083	989.17
778.265	974.83
778.447	985.07
778.629	976.88
778.811	925.68
778.993	1028.08
779.175	1032.18
779.357	997.36
779.539	978.93
779.721	929.78
779.903	970.74
780.085	954.35
780.267	915.44
780.449	964.59
780.631	880.63
780.812	917.49
780.994	882.67
781.176	827.38
781.358	780.28
781.54	878.58
781.721	866.29
781.903	860.15
782.085	866.29
782.267	860.15
782.448	770.04
782.63	790.52
782.812	841.72
782.993	921.59
783.175	755.7
783.357	763.89
783.538	749.56
783.72	716.79
783.901	808.95
784.083	784.37
784.264	753.65
784.446	663.54
784.627	724.98
784.809	776.18
784.99	735.22
785.172	780.28
785.353	698.36
785.535	745.46
785.716	741.36
785.897	618.49
786.079	606.2
786.26	704.5
786.441	690.17
786.623	663.54
786.804	702.45
786.985	643.06
787.167	724.98
787.348	616.44
787.529	620.53
787.71	790.52
787.891	602.1
788.073	614.39
788.254	645.11
788.435	704.5
788.616	552.95
788.797	600.05
788.978	665.59
789.159	493.56
789.34	632.82
789.522	585.72
789.703	600.05
789.884	606.2
790.065	581.62
790.246	704.5
790.427	587.77
790.607	632.82
790.788	528.38
790.969	559.1
791.15	503.8
791.331	522.23
791.512	493.56
791.693	569.34
791.874	499.7
792.054	653.3
792.235	530.42
792.416	417.79
792.597	471.03
792.778	532.47
792.958	555
793.139	538.62
793.32	505.85
793.5	466.94
793.681	514.04
793.862	495.61
794.042	454.65
794.223	415.74
794.404	511.99
794.584	407.55
794.765	491.51
794.945	460.79
795.126	462.84
795.306	434.17
795.487	452.6
795.667	471.03
795.848	538.62
796.028	413.69
796.209	448.51
796.389	417.79
796.57	389.11
796.75	448.51
796.93	438.27
797.111	364.54
797.291	380.92
797.471	450.55
797.652	417.79
797.832	413.69
798.012	409.59
798.192	344.06
798.373	339.96
798.553	382.97
798.733	413.69
798.913	466.94
799.093	382.97
799.274	352.25
799.454	335.87
799.634	413.69
799.814	434.17
799.994	491.51
800.174	499.7
800.354	333.82
800.534	303.1
800.714	382.97
800.894	380.92
801.074	346.11
801.254	397.31
801.434	421.88
801.614	323.58
801.794	305.15
801.974	1370.09
802.154	382.97
802.334	446.46
802.514	413.69
802.693	368.63
802.873	362.49
803.053	428.03
803.233	344.06
803.413	335.87
803.592	286.72
803.772	303.1
803.952	323.58
804.131	313.34
804.311	294.91
804.491	360.44
804.67	323.58
804.85	366.59
805.03	399.35
805.209	415.74
805.389	280.57
805.568	237.56
805.748	274.43
805.928	247.8
806.107	284.67
806.287	356.35
806.466	274.43
806.646	235.52
806.825	245.76
807.004	251.9
807.184	301.05
807.363	299
807.543	305.15
807.722	249.85
807.901	235.52
808.081	292.86
808.26	192.51
808.439	262.14
808.619	292.86
808.798	260.09
808.977	249.85
809.156	270.33
809.336	280.57
809.515	348.15
809.694	256
809.873	237.56
810.052	268.28
810.231	290.81
810.411	243.71
810.59	266.24
810.769	239.61
810.948	237.56
811.127	266.24
811.306	153.6
811.485	227.32
811.664	362.49
811.843	301.05
812.022	331.77
812.201	233.47
812.38	292.86
812.559	198.65
812.737	217.08
812.916	190.46
813.095	194.56
813.274	247.8
813.453	258.04
813.632	227.32
813.811	352.25
813.989	221.18
814.168	268.28
814.347	129.02
814.526	165.89
814.704	266.24
814.883	229.37
815.062	167.93
815.24	278.52
815.419	190.46
815.598	176.13
815.776	167.93
815.955	217.08
816.133	118.78
816.312	133.12
816.49	241.66
816.669	219.13
816.847	219.13
817.026	151.55
817.204	186.37
817.383	174.08
817.561	147.45
817.74	241.66
817.918	159.74
818.097	149.5
818.275	196.61
818.453	219.13
818.632	233.47
818.81	98.3
818.988	110.59
819.167	204.8
819.345	196.61
819.523	163.84
819.701	198.65
819.879	225.28
820.058	198.65
820.236	186.37
820.414	137.21
820.592	145.41
820.77	159.74
820.948	147.45
821.127	188.41
821.305	237.56
821.483	167.93
821.661	153.6
821.839	192.51
822.017	141.31
822.195	165.89
822.373	145.41
822.551	188.41
822.729	133.12
822.907	73.73
823.085	231.42
823.262	167.93
823.44	133.12
823.618	206.84
823.796	94.21
823.974	163.84
824.152	102.4
824.329	184.32
824.507	176.13
824.685	155.65
824.863	133.12
825.04	178.17
825.218	225.28
825.396	135.17
825.574	116.73
825.751	147.45
825.929	186.37
826.107	161.79
826.284	196.61
826.462	106.49
826.639	155.65
826.817	112.64
826.994	163.84
827.172	155.65
827.349	219.13
827.527	161.79
827.704	114.69
827.882	155.65
828.059	145.41
828.237	98.3
828.414	212.99
828.591	61.44
828.769	106.49
828.946	67.58
829.124	159.74
829.301	155.65
829.478	165.89
829.655	163.84
829.833	145.41
830.01	118.78
830.187	182.27
830.364	157.69
830.542	114.69
830.719	135.17
830.896	147.45
831.073	184.32
831.25	88.06
831.427	137.21
831.604	176.13
831.782	34.82
831.959	122.88
832.136	110.59
832.313	190.46
832.49	126.97
832.667	6.14
832.844	178.17
833.021	155.65
833.198	120.83
833.374	159.74
833.551	135.17
833.728	102.4
833.905	174.08
834.082	61.44
834.259	77.82
834.436	167.93
834.612	92.16
834.789	151.55
834.966	126.97
835.143	75.77
835.319	10.24
835.496	192.51
835.673	90.11
835.85	219.13
836.026	94.21
836.203	120.83
836.38	77.82
836.556	129.02
836.733	77.82
836.909	157.69
837.086	51.2
837.262	14.34
837.439	38.91
837.616	55.3
837.792	59.39
837.968	12.29
838.145	22.53
838.321	20.48
838.498	129.02
838.674	67.58
838.851	53.25
839.027	30.72
839.203	139.26
839.38	51.2
839.556	47.1
839.732	122.88
839.909	61.44
840.085	149.5
840.261	26.62
840.437	79.87
840.614	51.2
840.79	141.31
840.966	51.2
841.142	88.06
841.318	49.15
841.494	112.64
841.671	161.79
841.847	118.78
842.023	49.15
842.199	129.02
842.375	116.73
842.551	61.44
842.727	10.24
842.903	102.4
843.079	20.48
843.255	112.64
843.431	49.15
843.607	88.06
843.783	-69.63
843.959	32.77
844.134	57.34
844.31	135.17
844.486	88.06
844.662	129.02
844.838	77.82
845.013	28.67
845.189	55.3
845.365	26.62
845.541	40.96
845.716	69.63
845.892	92.16
846.068	28.67
846.244	65.54
846.419	143.36
846.595	26.62
846.77	92.16
846.946	172.03
847.122	47.1
847.297	69.63
847.473	83.97
847.648	-22.53
847.824	14.34
847.999	14.34
848.175	43.01
848.35	38.91
848.526	124.93
848.701	38.91
848.876	36.86
849.052	120.83
849.227	112.64
849.403	104.45
849.578	69.63
849.753	45.06
849.929	65.54
850.104	-12.29
850.279	47.1
850.454	49.15
850.63	57.34
850.805	90.11
850.98	49.15
851.155	40.96
851.33	51.2
851.505	51.2
851.681	94.21
851.856	73.73
852.031	61.44
852.206	49.15
852.381	55.3
852.556	8.19
852.731	110.59
852.906	102.4
853.081	114.69
853.256	63.49
853.431	49.15
853.606	-30.72
853.781	53.25
853.956	-32.77
854.131	69.63
854.305	-14.34
854.48	45.06
854.655	45.06
854.83	65.54
855.005	67.58
855.18	20.48
855.354	-18.43
855.529	24.58
855.704	-10.24
855.879	49.15
856.053	61.44
856.228	53.25
856.403	90.11
856.577	88.06
856.752	-88.06
856.926	51.2
857.101	63.49
857.276	2.05
857.45	43.01
857.625	118.78
857.799	-2.05
857.974	-43.01
858.148	-104.45
858.323	51.2
858.497	-20.48
858.672	63.49
858.846	-18.43
859.02	114.69
859.195	6.14
859.369	75.77
859.543	45.06
859.718	71.68
859.892	98.3
860.066	20.48
860.241	32.77
860.415	-18.43
860.589	-8.19
860.763	45.06
860.938	100.35
861.112	51.2
861.286	-28.67
861.46	4.1
861.634	65.54
861.808	69.63
861.982	24.58
862.157	-2.05
862.331	-65.53
862.505	-6.14
862.679	12.29
862.853	-49.15
863.027	16.38
863.201	65.54
863.375	-61.44
863.549	32.77
863.722	28.67
863.896	73.73
864.07	14.34
864.244	2.05
864.418	-14.34
864.592	57.34
864.766	-32.77
864.939	120.83
865.113	22.53
865.287	53.25
865.461	59.39
865.634	22.53
865.808	16.38
865.982	6.14
866.156	4.1
866.329	-43.01
866.503	-28.67
866.676	102.4
866.85	24.58
867.024	-36.86
867.197	88.06
867.371	81.92
867.544	34.82
867.718	34.82
867.891	92.16
868.065	2.05
868.238	67.58
868.412	94.21
868.585	49.15
868.759	24.58
868.932	14.34
869.105	-57.34
869.279	-12.29
869.452	4.1
869.625	-18.43
869.799	77.82
869.972	-32.77
870.145	69.63
870.319	55.3
870.492	36.86
870.665	47.1
870.838	-4.1
871.011	-61.44
871.185	12.29
871.358	-4.1
871.531	22.53
871.704	16.38
871.877	-8.19
872.05	24.58
872.223	-2.05
872.396	28.67
872.569	2.05
872.742	-38.91
872.915	65.54
873.088	-45.06
873.261	-43.01
873.434	6.14
873.607	22.53
873.78	108.54
873.953	-22.53
874.126	69.63
874.299	22.53
874.471	-53.25
874.644	2.05
874.817	40.96
874.99	114.69
875.163	36.86
875.335	-36.86
875.508	26.62
875.681	77.82
875.853	10.24
876.026	51.2
876.199	49.15
876.371	38.91
876.544	38.91
876.717	18.43
876.889	4.1
877.062	-34.82
877.234	-75.77
877.407	-45.06
877.579	-36.86
877.752	20.48
877.924	53.25
878.097	55.3
878.269	22.53
878.442	-18.43
878.614	30.72
878.786	34.82
878.959	30.72
879.131	-20.48
879.303	-55.3
879.476	-53.25
879.648	-10.24
879.82	22.53
879.993	43.01
880.165	0
880.337	-69.63
880.509	30.72
880.681	-43.01
880.854	32.77
881.026	90.11
881.198	108.54
881.37	22.53
881.542	0
881.714	16.38
881.886	-4.1
882.058	55.3
882.23	26.62
882.402	8.19
882.574	22.53
882.746	73.73
882.918	75.77
883.09	45.06
883.262	0
883.434	49.15
883.606	-102.4
883.778	6.14
883.95	47.1
884.122	-26.62
884.293	120.83
884.465	-51.2
884.637	73.73
884.809	-90.11
884.98	104.45
885.152	8.19
885.324	-12.29
885.496	2.05
885.667	14.34
885.839	-22.53
886.011	-40.96
886.182	-79.87
886.354	6.14
886.525	24.58
886.697	16.38
886.869	10.24
887.04	-77.82
887.212	30.72
887.383	55.3
887.555	12.29
887.726	-6.14
887.897	6.14
888.069	53.25
888.24	51.2
888.412	67.58
888.583	-18.43
888.754	-36.86
888.926	-57.34
889.097	-36.86
889.268	-30.72
889.44	53.25
889.611	-10.24
889.782	-12.29
889.953	-67.58
890.125	75.77
890.296	-26.62
890.467	-55.3
890.638	10.24
890.809	10.24
890.98	28.67
891.151	61.44
891.323	-16.38
891.494	30.72
891.665	-16.38
891.836	20.48
892.007	-18.43
892.178	40.96
892.349	0
892.52	-24.58
892.691	16.38
892.862	-8.19
893.032	-75.77
893.203	-8.19
893.374	67.58
893.545	96.25
893.716	0
893.887	51.2
894.057	-6.14
894.228	51.2
894.399	-6.14
894.57	47.1
894.74	-22.53
894.911	38.91
895.082	-32.77
895.253	-14.34
895.423	24.58
895.594	94.21
895.764	45.06
895.935	10.24
896.106	110.59
896.276	12.29
896.447	-49.15
896.617	-57.34
896.788	-40.96
896.958	-24.58
897.129	24.58
897.299	71.68
897.47	47.1
897.64	-30.72
897.81	0
897.981	-24.58
898.151	-32.77
898.322	-20.48
898.492	26.62
898.662	-36.86
898.832	10.24
899.003	12.29
899.173	57.34
899.343	-38.91
899.513	-32.77
