Data from USB4F104151__69__12-12-33-103.txt Node

Date: Fri Mar 14 12:12:33 EDT 2025
User: louis
Spectrometer: USB4F10415
Trigger mode: 4
Integration Time (sec): 5.000000E-2
Scans to average: 1
Electric dark correction enabled: true
Nonlinearity correction enabled: false
Boxcar width: 0
XAxis mode: Wavelengths
Number of Pixels in Spectrum: 3648
>>>>>Begin Spectral Data<<<<<
178.204	-261.97
178.424	-261.97
178.644	-261.97
178.864	-270.16
179.084	-165.71
179.304	-5.97
179.524	-100.18
179.744	20.65
179.964	22.7
180.184	0.17
180.404	4.27
180.624	-83.8
180.844	80.04
181.064	-69.46
181.283	26.79
181.503	6.31
181.723	98.47
181.943	-26.45
182.163	155.82
182.383	67.75
182.602	88.23
182.822	69.8
183.042	49.32
183.262	80.04
183.482	-40.79
183.701	90.28
183.921	73.9
184.141	26.79
184.361	8.36
184.58	26.79
184.8	6.31
185.02	90.28
185.239	96.43
185.459	-20.31
185.679	96.43
185.898	-10.07
186.118	73.9
186.338	-46.93
186.557	100.52
186.777	47.27
186.997	34.99
187.216	18.6
187.436	106.67
187.655	51.37
187.875	198.82
188.095	41.13
188.314	102.57
188.534	39.08
188.753	-28.5
188.973	168.1
189.192	100.52
189.412	67.75
189.631	53.42
189.851	65.71
190.07	127.14
190.29	30.89
190.509	47.27
190.729	53.42
190.948	86.19
191.168	207.02
191.387	73.9
191.607	18.6
191.826	18.6
192.045	6.31
192.265	41.13
192.484	69.8
192.704	51.37
192.923	-5.97
193.142	157.86
193.362	59.56
193.581	96.43
193.8	84.14
194.02	59.56
194.239	90.28
194.458	0.17
194.678	88.23
194.897	6.31
195.116	34.99
195.335	-12.12
195.555	43.18
195.774	65.71
195.993	53.42
196.212	-8.02
196.432	84.14
196.651	-12.12
196.87	-40.79
197.089	131.24
197.308	73.9
197.528	86.19
197.747	-73.56
197.966	16.55
198.185	121
198.404	47.27
198.623	71.85
198.842	84.14
199.062	71.85
199.281	12.46
199.5	-8.02
199.719	8.36
199.938	34.99
200.157	96.43
200.376	96.43
200.595	-8.02
200.814	63.66
201.033	45.23
201.252	63.66
201.471	-1.88
201.69	145.58
201.909	6.31
202.128	43.18
202.347	45.23
202.566	47.27
202.785	10.41
203.004	-16.21
203.223	88.23
203.442	34.99
203.661	20.65
203.879	14.51
204.098	86.19
204.317	-96.08
204.536	22.7
204.755	53.42
204.974	47.27
205.193	82.09
205.411	166.06
205.63	41.13
205.849	80.04
206.068	47.27
206.287	24.75
206.505	88.23
206.724	-1.88
206.943	20.65
207.162	55.47
207.381	28.84
207.599	20.65
207.818	45.23
208.037	-1.88
208.255	16.55
208.474	37.03
208.693	-5.97
208.911	6.31
209.13	90.28
209.349	98.47
209.567	121
209.786	123.05
210.005	14.51
210.223	10.41
210.442	-20.31
210.661	2.22
210.879	32.94
211.098	4.27
211.316	69.8
211.535	63.66
211.753	45.23
211.972	14.51
212.191	14.51
212.409	16.55
212.628	61.61
212.846	-77.65
213.065	92.33
213.283	73.9
213.502	57.51
213.72	55.47
213.938	53.42
214.157	43.18
214.375	139.43
214.594	16.55
214.812	116.9
215.031	90.28
215.249	61.61
215.467	30.89
215.686	22.7
215.904	155.82
216.122	26.79
216.341	77.99
216.559	45.23
216.778	84.14
216.996	151.72
217.214	-10.07
217.432	-30.55
217.651	61.61
217.869	-14.17
218.087	-3.93
218.306	37.03
218.524	63.66
218.742	-28.5
218.96	90.28
219.179	8.36
219.397	-3.93
219.615	129.19
219.833	65.71
220.051	24.75
220.27	112.81
220.488	51.37
220.706	73.9
220.924	34.99
221.142	8.36
221.36	77.99
221.578	96.43
221.796	4.27
222.015	131.24
222.233	10.41
222.451	194.73
222.669	-12.12
222.887	84.14
223.105	6.31
223.323	67.75
223.541	-28.5
223.759	47.27
223.977	-18.26
224.195	100.52
224.413	67.75
224.631	41.13
224.849	45.23
225.067	65.71
225.285	49.32
225.503	34.99
225.721	-116.56
225.939	47.27
226.157	20.65
226.375	174.25
226.592	-48.98
226.81	0.17
227.028	180.39
227.246	127.14
227.464	-28.5
227.682	51.37
227.9	88.23
228.117	57.51
228.335	67.75
228.553	108.71
228.771	65.71
228.989	82.09
229.206	100.52
229.424	-42.84
229.642	-5.97
229.86	-28.5
230.077	100.52
230.295	45.23
230.513	34.99
230.731	55.47
230.948	67.75
231.166	100.52
231.384	30.89
231.601	20.65
231.819	102.57
232.037	24.75
232.254	22.7
232.472	41.13
232.689	43.18
232.907	22.7
233.125	-18.26
233.342	-36.69
233.56	61.61
233.777	39.08
233.995	24.75
234.213	59.56
234.43	106.67
234.648	67.75
234.865	84.14
235.083	67.75
235.3	34.99
235.518	88.23
235.735	145.58
235.953	88.23
236.17	26.79
236.388	51.37
236.605	61.61
236.822	67.75
237.04	53.42
237.257	65.71
237.475	-57.17
237.692	53.42
237.909	47.27
238.127	-34.64
238.344	147.62
238.562	59.56
238.779	-14.17
238.996	-12.12
239.214	37.03
239.431	106.67
239.648	-75.6
239.865	6.31
240.083	61.61
240.3	57.51
240.517	30.89
240.735	30.89
240.952	61.61
241.169	114.86
241.386	71.85
241.603	55.47
241.821	-36.69
242.038	73.9
242.255	94.38
242.472	20.65
242.689	96.43
242.907	16.55
243.124	45.23
243.341	-28.5
243.558	59.56
243.775	-16.21
243.992	-14.17
244.209	34.99
244.426	104.62
244.643	37.03
244.86	22.7
245.078	37.03
245.295	-12.12
245.512	84.14
245.729	20.65
245.946	6.31
246.163	49.32
246.38	-42.84
246.597	57.51
246.814	43.18
247.031	45.23
247.248	12.46
247.464	73.9
247.681	-34.64
247.898	77.99
248.115	39.08
248.332	16.55
248.549	53.42
248.766	131.24
248.983	51.37
249.2	67.75
249.417	34.99
249.633	14.51
249.85	37.03
250.067	61.61
250.284	20.65
250.501	131.24
250.717	118.95
250.934	-20.31
251.151	65.71
251.368	47.27
251.585	57.51
251.801	41.13
252.018	-30.55
252.235	94.38
252.451	-59.22
252.668	-28.5
252.885	43.18
253.102	59.56
253.318	57.51
253.535	34.99
253.752	53.42
253.968	-1.88
254.185	24.75
254.401	-42.84
254.618	47.27
254.835	10.41
255.051	155.82
255.268	96.43
255.484	77.99
255.701	65.71
255.917	69.8
256.134	-8.02
256.351	39.08
256.567	51.37
256.784	-8.02
257	-44.88
257.217	63.66
257.433	39.08
257.65	67.75
257.866	135.34
258.082	-26.45
258.299	10.41
258.515	-42.84
258.732	26.79
258.948	14.51
259.165	59.56
259.381	-32.6
259.597	112.81
259.814	4.27
260.03	24.75
260.246	0.17
260.463	77.99
260.679	51.37
260.895	6.31
261.112	57.51
261.328	22.7
261.544	0.17
261.761	123.05
261.977	-55.12
262.193	53.42
262.409	41.13
262.626	77.99
262.842	73.9
263.058	-30.55
263.274	57.51
263.49	86.19
263.707	63.66
263.923	59.56
264.139	-59.22
264.355	61.61
264.571	106.67
264.787	-36.69
265.004	82.09
265.22	75.95
265.436	45.23
265.652	28.84
265.868	65.71
266.084	-3.93
266.3	14.51
266.516	88.23
266.732	47.27
266.948	90.28
267.164	55.47
267.38	57.51
267.596	45.23
267.812	164.01
268.028	8.36
268.244	-5.97
268.46	51.37
268.676	-67.41
268.892	6.31
269.108	-5.97
269.324	37.03
269.54	-53.08
269.756	86.19
269.972	-44.88
270.188	14.51
270.403	-32.6
270.619	-32.6
270.835	6.31
271.051	20.65
271.267	-40.79
271.483	-22.36
271.698	65.71
271.914	-12.12
272.13	43.18
272.346	94.38
272.562	16.55
272.777	80.04
272.993	22.7
273.209	30.89
273.425	57.51
273.64	-28.5
273.856	10.41
274.072	22.7
274.287	8.36
274.503	47.27
274.719	94.38
274.934	45.23
275.15	4.27
275.366	24.75
275.581	22.7
275.797	16.55
276.012	34.99
276.228	43.18
276.444	84.14
276.659	104.62
276.875	6.31
277.09	69.8
277.306	-48.98
277.521	80.04
277.737	-32.6
277.952	90.28
278.168	75.95
278.383	47.27
278.599	53.42
278.814	61.61
279.03	22.7
279.245	121
279.461	61.61
279.676	80.04
279.892	10.41
280.107	26.79
280.322	-32.6
280.538	141.48
280.753	80.04
280.969	75.95
281.184	51.37
281.399	63.66
281.615	69.8
281.83	94.38
282.045	16.55
282.26	47.27
282.476	110.76
282.691	98.47
282.906	43.18
283.122	12.46
283.337	-40.79
283.552	77.99
283.767	84.14
283.983	57.51
284.198	-20.31
284.413	73.9
284.628	-79.7
284.843	116.9
285.058	39.08
285.274	6.31
285.489	20.65
285.704	82.09
285.919	30.89
286.134	49.32
286.349	26.79
286.564	-40.79
286.779	123.05
286.995	82.09
287.21	-85.84
287.425	18.6
287.64	8.36
287.855	30.89
288.07	-8.02
288.285	20.65
288.5	73.9
288.715	47.27
288.93	4.27
289.145	110.76
289.36	49.32
289.575	37.03
289.79	14.51
290.004	30.89
290.219	67.75
290.434	86.19
290.649	-38.74
290.864	6.31
291.079	73.9
291.294	20.65
291.509	96.43
291.724	-10.07
291.938	-12.12
292.153	-16.21
292.368	108.71
292.583	92.33
292.798	121
293.012	-42.84
293.227	100.52
293.442	65.71
293.657	118.95
293.871	67.75
294.086	53.42
294.301	135.34
294.516	51.37
294.73	55.47
294.945	-28.5
295.16	-10.07
295.374	106.67
295.589	118.95
295.804	104.62
296.018	65.71
296.233	96.43
296.447	114.86
296.662	-8.02
296.877	106.67
297.091	67.75
297.306	39.08
297.52	41.13
297.735	16.55
297.949	118.95
298.164	45.23
298.378	47.27
298.593	-10.07
298.807	18.6
299.022	116.9
299.236	164.01
299.451	12.46
299.665	90.28
299.88	133.29
300.094	-34.64
300.309	12.46
300.523	53.42
300.737	82.09
300.952	86.19
301.166	-12.12
301.381	-5.97
301.595	34.99
301.809	73.9
302.024	2.22
302.238	-34.64
302.452	94.38
302.667	-5.97
302.881	37.03
303.095	4.27
303.309	26.79
303.524	-1.88
303.738	47.27
303.952	-14.17
304.166	22.7
304.381	-79.7
304.595	123.05
304.809	39.08
305.023	73.9
305.237	8.36
305.452	24.75
305.666	32.94
305.88	96.43
306.094	24.75
306.308	84.14
306.522	55.47
306.736	98.47
306.95	82.09
307.164	45.23
307.379	77.99
307.593	166.06
307.807	43.18
308.021	139.43
308.235	39.08
308.449	12.46
308.663	8.36
308.877	131.24
309.091	82.09
309.305	104.62
309.519	-20.31
309.733	65.71
309.947	-44.88
310.161	53.42
310.374	53.42
310.588	123.05
310.802	-32.6
311.016	30.89
311.23	63.66
311.444	34.99
311.658	37.03
311.872	106.67
312.085	98.47
312.299	133.29
312.513	88.23
312.727	82.09
312.941	2.22
313.154	20.65
313.368	32.94
313.582	61.61
313.796	47.27
314.009	67.75
314.223	71.85
314.437	22.7
314.651	20.65
314.864	37.03
315.078	-8.02
315.292	18.6
315.505	-14.17
315.719	69.8
315.933	143.53
316.146	39.08
316.36	4.27
316.573	127.14
316.787	53.42
317.001	65.71
317.214	-24.4
317.428	73.9
317.641	4.27
317.855	88.23
318.068	63.66
318.282	80.04
318.495	98.47
318.709	61.61
318.922	41.13
319.136	151.72
319.349	65.71
319.563	-36.69
319.776	24.75
319.99	24.75
320.203	-1.88
320.417	-10.07
320.63	26.79
320.843	104.62
321.057	51.37
321.27	49.32
321.483	143.53
321.697	135.34
321.91	37.03
322.124	92.33
322.337	90.28
322.55	84.14
322.763	82.09
322.977	102.57
323.19	39.08
323.403	67.75
323.617	92.33
323.83	82.09
324.043	16.55
324.256	32.94
324.469	59.56
324.683	204.97
324.896	-61.27
325.109	80.04
325.322	-12.12
325.535	75.95
325.748	63.66
325.962	82.09
326.175	114.86
326.388	102.57
326.601	80.04
326.814	8.36
327.027	98.47
327.24	61.61
327.453	0.17
327.666	-8.02
327.879	114.86
328.092	43.18
328.305	77.99
328.518	43.18
328.731	14.51
328.944	26.79
329.157	188.58
329.37	8.36
329.583	106.67
329.796	198.82
330.009	18.6
330.222	104.62
330.435	102.57
330.648	108.71
330.861	73.9
331.073	-38.74
331.286	116.9
331.499	30.89
331.712	-3.93
331.925	-48.98
332.138	73.9
332.35	84.14
332.563	28.84
332.776	104.62
332.989	-26.45
333.202	34.99
333.414	88.23
333.627	0.17
333.84	32.94
334.053	67.75
334.265	80.04
334.478	-8.02
334.691	30.89
334.903	59.56
335.116	-1.88
335.329	26.79
335.541	37.03
335.754	61.61
335.966	49.32
336.179	0.17
336.392	65.71
336.604	-10.07
336.817	24.75
337.029	53.42
337.242	106.67
337.454	121
337.667	63.66
337.88	170.15
338.092	41.13
338.305	194.73
338.517	4.27
338.729	106.67
338.942	90.28
339.154	18.6
339.367	82.09
339.579	4.27
339.792	30.89
340.004	80.04
340.217	6.31
340.429	63.66
340.641	18.6
340.854	-1.88
341.066	8.36
341.278	106.67
341.491	77.99
341.703	131.24
341.915	14.51
342.128	94.38
342.34	139.43
342.552	6.31
342.764	75.95
342.977	100.52
343.189	77.99
343.401	2.22
343.613	12.46
343.826	47.27
344.038	12.46
344.25	32.94
344.462	55.47
344.674	114.86
344.886	-20.31
345.099	12.46
345.311	16.55
345.523	45.23
345.735	45.23
345.947	94.38
346.159	127.14
346.371	-3.93
346.583	110.76
346.795	157.86
347.007	90.28
347.219	57.51
347.431	18.6
347.643	147.62
347.855	12.46
348.067	96.43
348.279	47.27
348.491	28.84
348.703	88.23
348.915	41.13
349.127	41.13
349.339	75.95
349.551	2.22
349.763	53.42
349.975	-40.79
350.187	172.2
350.399	65.71
350.61	96.43
350.822	82.09
351.034	127.14
351.246	90.28
351.458	106.67
351.669	100.52
351.881	143.53
352.093	94.38
352.305	47.27
352.517	100.52
352.728	63.66
352.94	34.99
353.152	88.23
353.363	28.84
353.575	41.13
353.787	129.19
353.999	6.31
354.21	174.25
354.422	65.71
354.633	0.17
354.845	55.47
355.057	86.19
355.268	14.51
355.48	188.58
355.692	49.32
355.903	102.57
356.115	2.22
356.326	8.36
356.538	145.58
356.749	84.14
356.961	104.62
357.172	14.51
357.384	22.7
357.595	96.43
357.807	37.03
358.018	30.89
358.23	45.23
358.441	71.85
358.653	151.72
358.864	28.84
359.075	6.31
359.287	-20.31
359.498	47.27
359.709	90.28
359.921	67.75
360.132	86.19
360.344	88.23
360.555	-20.31
360.766	80.04
360.977	57.51
361.189	61.61
361.4	-59.22
361.611	59.56
361.823	47.27
362.034	8.36
362.245	-67.41
362.456	39.08
362.667	59.56
362.879	112.81
363.09	47.27
363.301	108.71
363.512	41.13
363.723	22.7
363.935	26.79
364.146	94.38
364.357	18.6
364.568	8.36
364.779	49.32
364.99	114.86
365.201	53.42
365.412	110.76
365.623	-40.79
365.834	43.18
366.045	71.85
366.256	80.04
366.467	77.99
366.678	86.19
366.889	69.8
367.1	73.9
367.311	90.28
367.522	0.17
367.733	121
367.944	121
368.155	39.08
368.366	80.04
368.577	102.57
368.788	96.43
368.999	90.28
369.209	104.62
369.42	106.67
369.631	104.62
369.842	67.75
370.053	-40.79
370.264	188.58
370.474	30.89
370.685	65.71
370.896	-30.55
371.107	131.24
371.317	10.41
371.528	112.81
371.739	90.28
371.95	125.1
372.16	47.27
372.371	-51.03
372.582	30.89
372.792	-26.45
373.003	57.51
373.214	69.8
373.424	143.53
373.635	8.36
373.846	98.47
374.056	39.08
374.267	14.51
374.477	104.62
374.688	20.65
374.898	28.84
375.109	57.51
375.319	41.13
375.53	96.43
375.74	98.47
375.951	45.23
376.161	39.08
376.372	145.58
376.582	92.33
376.793	32.94
377.003	92.33
377.214	63.66
377.424	8.36
377.635	67.75
377.845	24.75
378.055	149.67
378.266	-14.17
378.476	37.03
378.686	47.27
378.897	-22.36
379.107	108.71
379.317	168.1
379.528	16.55
379.738	80.04
379.948	110.76
380.158	82.09
380.369	69.8
380.579	123.05
380.789	0.17
380.999	80.04
381.21	71.85
381.42	170.15
381.63	37.03
381.84	16.55
382.05	75.95
382.261	90.28
382.471	168.1
382.681	18.6
382.891	166.06
383.101	213.16
383.311	28.84
383.521	100.52
383.731	114.86
383.941	84.14
384.151	84.14
384.361	34.99
384.571	102.57
384.781	96.43
384.991	104.62
385.201	188.58
385.411	123.05
385.621	69.8
385.831	67.75
386.041	77.99
386.251	-65.36
386.461	131.24
386.671	51.37
386.881	104.62
387.091	51.37
387.301	102.57
387.511	96.43
387.72	116.9
387.93	100.52
388.14	30.89
388.35	55.47
388.56	129.19
388.769	127.14
388.979	80.04
389.189	82.09
389.399	43.18
389.609	75.95
389.818	96.43
390.028	116.9
390.238	55.47
390.447	-12.12
390.657	110.76
390.867	104.62
391.076	41.13
391.286	141.48
391.496	77.99
391.705	102.57
391.915	161.96
392.125	159.91
392.334	133.29
392.544	65.71
392.753	12.46
392.963	96.43
393.172	137.38
393.382	104.62
393.591	170.15
393.801	137.38
394.01	145.58
394.22	190.63
394.429	18.6
394.639	69.8
394.848	67.75
395.058	65.71
395.267	86.19
395.477	121
395.686	131.24
395.895	229.54
396.105	168.1
396.314	143.53
396.524	69.8
396.733	147.62
396.942	129.19
397.152	86.19
397.361	180.39
397.57	184.49
397.78	137.38
397.989	112.81
398.198	131.24
398.407	123.05
398.617	164.01
398.826	53.42
399.035	172.2
399.244	161.96
399.453	172.2
399.663	147.62
399.872	155.82
400.081	129.19
400.29	231.59
400.499	157.86
400.708	141.48
400.917	127.14
401.127	63.66
401.336	106.67
401.545	186.54
401.754	219.3
401.963	135.34
402.172	88.23
402.381	180.39
402.59	215.21
402.799	104.62
403.008	172.2
403.217	170.15
403.426	239.78
403.635	75.95
403.844	186.54
404.053	172.2
404.262	243.88
404.471	272.55
404.68	168.1
404.888	118.95
405.097	170.15
405.306	276.65
405.515	219.3
405.724	180.39
405.933	309.41
406.142	268.45
406.35	247.97
406.559	274.6
406.768	192.68
406.977	372.9
407.185	307.37
407.394	288.93
407.603	258.21
407.812	286.89
408.02	274.6
408.229	420
408.438	377
408.646	293.03
408.855	356.52
409.064	411.81
409.272	381.09
409.481	467.11
409.69	379.04
409.898	377
410.107	471.2
410.315	444.58
410.524	450.72
410.733	495.78
410.941	473.25
411.15	573.6
411.358	528.55
411.567	639.14
411.775	563.36
411.984	573.6
412.192	661.66
412.401	549.03
412.609	731.3
412.818	753.82
413.026	714.91
413.234	676
413.443	747.68
413.651	719.01
413.86	823.45
414.068	866.46
414.276	944.28
414.485	925.85
414.693	995.48
414.901	1030.3
415.11	1077.4
415.318	1081.5
415.526	1093.79
415.734	1050.78
415.943	1161.37
416.151	1261.72
416.359	1118.36
416.567	1212.57
416.776	1294.49
416.984	1394.84
417.192	1487
417.4	1403.03
417.608	1398.93
417.817	1433.75
418.025	1581.2
418.233	1603.73
418.441	1573.01
418.649	1728.66
418.857	1790.1
419.065	1857.68
419.273	1874.06
419.481	1833.1
419.689	2154.63
419.897	2267.27
420.105	2216.07
420.313	2285.7
420.521	2314.38
420.729	2408.58
420.937	2521.22
421.145	2478.21
421.353	2625.67
421.561	2691.2
421.769	2721.92
421.977	2967.68
422.185	2863.23
422.393	2994.3
422.601	3352.7
422.809	3201.15
423.017	3147.9
423.224	3192.95
423.432	3571.83
423.64	3463.29
423.848	3817.58
424.056	3799.15
424.263	4016.24
424.471	3934.32
424.679	3987.57
424.887	4079.72
425.094	4382.82
425.302	4290.67
425.51	4421.74
425.718	4724.83
425.925	4733.03
426.133	4810.85
426.341	5126.24
426.548	5308.51
426.756	5367.9
426.964	5382.23
427.171	5754.96
427.379	5656.66
427.586	5859.41
427.794	6064.21
428.001	6295.63
428.209	6541.38
428.417	6688.84
428.624	7055.42
428.832	6852.67
429.039	7053.38
429.247	6912.07
429.454	7544.89
429.662	8204.33
429.869	7354.43
430.076	8001.58
430.284	7934
430.491	8245.29
430.699	8640.55
430.906	8745
431.114	8730.66
431.321	9185.31
431.528	9216.03
431.736	9787.41
431.943	10082.32
432.15	9908.24
432.358	10018.83
432.565	10702.86
432.772	10477.58
432.979	11094.02
433.187	10971.14
433.394	11239.42
433.601	11909.11
433.808	12220.4
434.016	11956.21
434.223	12355.57
434.43	13105.12
434.637	12656.62
434.844	13520.86
435.052	14041.04
435.259	13637.59
435.466	13764.57
435.673	13621.21
435.88	14524.37
436.087	15134.66
436.294	15302.59
436.501	14946.25
436.708	15110.08
436.915	15730.62
437.122	16175.03
437.329	16224.18
437.537	16578.48
437.743	16828.33
437.95	17031.08
438.157	17606.56
438.364	18091.93
438.571	17856.41
438.778	18358.16
438.985	20004.73
439.192	19179.4
439.399	19713.92
439.606	19230.6
439.813	20168.57
440.02	21280.61
440.227	21344.1
440.433	20643.7
440.64	21264.23
440.847	21370.72
441.054	21563.23
441.261	23017.29
441.467	22697.81
441.674	22994.76
441.881	24002.36
442.088	23959.36
442.294	23721.79
442.501	24098.62
442.708	24696.63
442.914	25849.63
443.121	26523.41
443.328	25745.19
443.534	27406.09
443.741	26566.42
443.948	26154.78
444.154	28604.15
444.361	28137.21
444.568	28253.95
444.774	28043.01
444.981	28249.85
445.187	29136.62
445.394	30285.53
445.6	29861.6
445.807	32407.23
446.013	31209.17
446.22	31592.14
446.426	32988.85
446.633	32956.08
446.839	34139.81
447.046	32577.21
447.252	34422.43
447.459	34498.2
447.665	34014.88
447.871	35778.18
448.078	37234.29
448.284	35161.75
448.491	36290.18
448.697	37523.05
448.903	37965.42
449.11	38231.65
449.316	37181.04
449.522	38483.55
449.728	39396.95
449.935	39036.5
450.141	39073.37
450.347	39741
450.553	38620.77
450.76	38952.54
450.966	40250.95
451.172	39790.16
451.378	40728.13
451.584	39841.35
451.791	40861.24
451.997	40449.6
452.203	41023.03
452.409	40957.5
452.615	40547.9
452.821	38927.96
453.027	38700.64
453.233	40697.41
453.44	38897.24
453.646	39120.47
453.852	39446.1
454.058	39716.43
454.264	38612.57
454.47	39358.03
454.676	38434.4
454.882	39845.45
455.088	35999.37
455.294	36611.71
455.5	37230.19
455.705	37412.46
455.911	35706.51
456.117	35128.98
456.323	34580.12
456.529	32794.29
456.735	34322.08
456.941	33300.14
457.147	32720.57
457.352	31325.9
457.558	30961.36
457.764	31006.42
457.97	30559.96
458.176	29976.29
458.381	29896.42
458.587	28124.93
458.793	28028.67
458.999	26572.57
459.204	28307.19
459.41	27842.31
459.616	25949.98
459.821	25759.52
460.027	25468.71
460.233	25360.17
460.438	23832.38
460.644	24170.3
460.85	23181.13
461.055	22503.25
461.261	22273.88
461.466	20871.02
461.672	20143.99
461.878	21280.61
462.083	20060.02
462.289	19701.63
462.494	19353.48
462.7	18218.9
462.905	17790.88
463.111	18634.64
463.316	18577.3
463.522	18177.94
463.727	18149.27
463.932	18161.56
464.138	17909.66
464.343	17799.07
464.549	17432.48
464.754	18032.54
464.959	17532.83
465.165	17758.11
465.37	16967.59
465.575	16398.26
465.781	16861.1
465.986	16928.68
466.191	16330.67
466.397	16076.73
466.602	15499.2
466.807	16005.05
467.012	15820.73
467.218	15630.27
467.423	15327.17
467.628	15636.41
467.833	16136.12
468.038	15513.53
468.244	15179.72
468.449	15765.43
468.654	15138.76
468.859	15050.69
469.064	14774.22
469.269	14151.63
469.474	14350.29
469.679	14888.9
469.885	14317.52
470.09	14469.07
470.295	14372.82
470.5	14041.04
470.705	14020.56
470.91	13705.18
471.115	13416.41
471.32	13965.27
471.525	13662.17
471.73	13203.43
471.935	13123.55
472.139	12591.08
472.344	12695.53
472.549	12582.89
472.754	12484.59
472.959	12234.74
473.164	11898.87
473.369	11870.2
473.574	12224.5
473.778	12122.1
473.983	11976.69
474.188	12021.75
474.393	11294.72
474.598	11290.62
474.802	11356.16
475.007	11094.02
475.212	11266.05
475.417	10684.42
475.621	10571.79
475.826	10668.04
476.031	10541.07
476.235	10590.22
476.44	10573.83
476.645	10215.44
476.849	10244.11
477.054	10131.47
477.259	9791.51
477.463	9943.06
477.668	9922.58
477.872	9949.2
478.077	9676.82
478.282	9519.13
478.486	9146.4
478.691	9185.31
478.895	9173.02
479.1	9304.09
479.304	9082.91
479.509	8785.96
479.713	8896.55
479.918	8716.33
480.122	8638.5
480.326	8904.74
480.531	8626.22
480.735	8587.3
480.94	8509.48
481.144	8931.36
481.348	8417.32
481.553	8620.07
481.757	8296.49
481.961	8552.49
482.166	8486.95
482.37	8341.55
482.574	8155.18
482.778	8376.36
482.983	8286.25
483.187	8411.18
483.391	8431.66
483.595	8259.63
483.8	8190
484.004	8140.85
484.208	8284.2
484.412	8149.04
484.616	8357.93
484.821	8319.02
485.025	7974.96
485.229	8245.29
485.433	8110.13
485.637	8036.4
485.841	8011.82
486.045	8165.42
486.249	8136.75
486.453	8005.68
486.657	8142.89
486.861	8060.98
487.065	7929.91
487.269	7977.01
487.473	7831.6
487.677	8175.66
487.881	8165.42
488.085	8118.32
488.289	8083.5
488.493	8089.65
488.697	8159.28
488.901	8103.98
489.105	8118.32
489.309	8099.89
489.512	8093.74
489.716	8128.56
489.92	8167.47
490.124	7999.54
490.328	8433.71
490.531	8255.53
490.735	8472.62
490.939	8288.3
491.143	7968.82
491.346	8298.54
491.55	8489
491.754	8144.94
491.958	8374.31
492.161	8228.91
492.365	8378.41
492.569	8280.11
492.772	8445.99
492.976	8484.91
493.18	8534.06
493.383	8581.16
493.587	8509.48
493.79	8646.69
493.994	8595.5
494.197	8601.64
494.401	8699.94
494.605	8620.07
494.808	8953.89
495.012	9099.3
495.215	9039.9
495.419	9074.72
495.622	8818.72
495.825	9179.17
496.029	8990.75
496.232	9316.38
496.436	9259.04
496.639	9412.64
496.843	9437.21
497.046	9529.37
497.249	9742.36
497.453	9730.07
497.656	9924.63
497.859	9873.43
498.063	9855
498.266	9945.11
498.469	10004.5
498.673	10287.12
498.876	10330.13
499.079	10260.49
499.282	10430.48
499.485	10670.09
499.689	10709
499.892	10913.8
500.095	10840.07
500.298	11149.31
500.501	10948.61
500.705	11337.73
500.908	11356.16
501.111	11350.01
501.314	11448.32
501.517	11644.92
501.72	11634.68
501.923	11673.59
502.126	12163.06
502.329	12220.4
502.532	12261.36
502.735	12259.31
502.938	12519.4
503.141	12599.27
503.344	12802.02
503.547	12771.3
503.75	13058.02
503.953	13354.97
504.156	13168.61
504.359	13328.35
504.562	13414.37
504.765	13811.67
504.968	14143.44
505.17	13768.66
505.373	13889.49
505.576	14149.59
505.779	14213.07
505.982	14530.51
506.185	14409.68
506.387	14493.65
506.59	14565.32
506.793	15022.02
506.996	14960.58
507.198	15220.67
507.401	15230.91
507.604	15521.73
507.807	15812.54
508.009	15824.83
508.212	15992.76
508.415	16105.4
508.617	16375.73
508.82	16435.12
509.022	16275.38
509.225	16740.27
509.428	17067.94
509.63	17106.85
509.833	17088.42
510.035	17602.46
510.238	17401.76
510.44	17598.37
510.643	18036.63
510.845	17794.97
511.048	17928.09
511.25	18216.85
511.453	18347.92
511.655	18892.68
511.858	18839.44
512.06	18939.79
512.262	18880.39
512.465	18790.28
512.667	19390.34
512.87	19298.18
513.072	19543.94
513.274	19763.07
513.477	19914.62
513.679	20107.13
513.881	20481.91
514.084	20332.4
514.286	20469.62
514.488	20742
514.69	21041
514.893	21153.64
515.095	21253.99
515.297	21512.03
515.499	21340.01
515.701	21839.71
515.904	22050.65
516.106	22052.7
516.308	22437.72
516.51	22751.06
516.712	22374.23
516.914	22490.96
517.116	22851.41
517.318	23062.35
517.52	23152.46
517.722	23033.68
517.925	23605.06
518.127	23871.29
518.329	24057.66
518.531	23838.53
518.733	24196.92
518.935	24360.76
519.136	23971.64
519.338	24735.54
519.54	24880.94
519.742	25069.36
519.944	24954.67
520.146	25452.33
520.348	25397.03
520.55	25466.66
520.752	25081.64
520.954	25849.63
521.155	25653.03
521.357	26001.18
521.559	26105.63
521.761	26724.11
521.963	26681.11
522.164	26468.12
522.366	26695.44
522.568	27000.59
522.77	27254.54
522.971	27477.77
523.173	26951.44
523.375	27250.44
523.576	27270.92
523.778	27414.28
523.98	27895.55
524.181	27899.65
524.383	28053.25
524.584	28004.1
524.786	28112.64
524.988	28108.54
525.189	28430.07
525.391	28595.96
525.592	28350.2
525.794	28774.13
525.995	28620.53
526.197	28856.05
526.398	28782.32
526.6	28972.78
526.801	28600.05
527.003	28940.02
527.204	28763.89
527.406	29189.87
527.607	29259.5
527.808	29423.34
528.01	29394.67
528.211	29046.51
528.412	29642.47
528.614	29853.41
528.815	29716.2
529.016	29933.28
529.218	29480.68
529.419	29468.39
529.62	29767.4
529.822	29583.08
530.023	29558.5
530.224	29761.25
530.425	29535.98
530.626	29347.56
530.828	29456.11
531.029	29939.43
531.23	29654.76
531.431	29964
531.632	30074.59
531.833	30152.41
532.035	30117.6
532.236	29947.62
532.437	30332.64
532.638	29769.44
532.839	30029.54
533.04	30150.37
533.241	29761.25
533.442	30504.67
533.643	30090.98
533.844	29970.15
534.045	30297.82
534.246	29769.44
534.447	30228.19
534.648	30084.83
534.849	30148.32
535.05	29966.05
535.251	30168.8
535.451	30015.2
535.652	30291.68
535.853	29912.8
536.054	30267.1
536.255	30097.12
536.456	29742.82
536.657	30246.62
536.857	29904.61
537.058	29832.93
537.259	29857.51
537.46	30133.98
537.66	29951.71
537.861	29730.53
538.062	30076.64
538.263	30197.47
538.463	29589.22
538.664	29769.44
538.865	29894.37
539.065	29974.24
539.266	29693.67
539.466	30004.96
539.667	29566.7
539.868	30070.5
540.068	29945.57
540.269	29927.14
540.469	29943.52
540.67	29892.32
540.87	29943.52
541.071	29681.38
541.271	30113.5
541.472	30062.3
541.672	29779.68
541.873	29777.64
542.073	29533.93
542.274	30011.1
542.474	29773.54
542.675	29759.2
542.875	30217.95
543.075	29912.8
543.276	29529.83
543.476	29906.66
543.676	29880.03
543.877	29701.86
544.077	29738.72
544.277	29908.71
544.478	29525.74
544.678	29699.81
544.878	29816.55
545.078	29849.32
545.279	29642.47
545.479	29732.58
545.679	29685.48
545.879	29564.65
546.079	29736.68
546.28	29505.26
546.48	29445.87
546.68	29964
546.88	29955.81
547.08	29857.51
547.28	29621.99
547.48	29538.02
547.68	29851.36
547.88	29531.88
548.081	29572.84
548.281	29492.97
548.481	29482.73
548.681	29939.43
548.881	29581.03
549.081	30023.39
549.28	29550.31
549.48	29671.14
549.68	29355.75
549.88	30027.49
550.08	29337.32
550.28	29525.74
550.48	29679.33
550.68	29818.6
550.88	29112.05
551.08	29347.56
551.279	29431.53
551.479	29482.73
551.679	29550.31
551.879	29433.58
552.079	29652.71
552.278	29998.82
552.478	29499.11
552.678	29511.4
552.878	29806.31
553.077	29419.24
553.277	29292.27
553.477	29953.76
553.676	29259.5
553.876	29751.01
554.076	29433.58
554.275	29710.05
554.475	29341.42
554.674	29386.47
554.874	29562.6
555.074	29628.13
555.273	29501.16
555.473	29746.92
555.672	29578.98
555.872	29343.47
556.071	29562.6
556.271	29587.18
556.47	29449.96
556.67	29404.91
556.869	29327.08
557.068	29486.82
557.268	29095.66
557.467	29378.28
557.667	29230.83
557.866	29435.63
558.065	29191.92
558.265	29343.47
558.464	29171.44
558.663	29519.59
558.863	29228.78
559.062	29353.71
559.261	29114.09
559.461	29525.74
559.66	29019.89
559.859	29396.71
560.058	29122.29
560.258	29294.32
560.457	29431.53
560.656	29378.28
560.855	29095.66
561.054	29544.17
561.253	29021.94
561.453	29052.66
561.652	29400.81
561.851	29318.89
562.05	28978.93
562.249	29202.16
562.448	29558.5
562.647	29036.27
562.846	29118.19
563.045	29478.63
563.244	28989.17
563.443	29533.93
563.642	29220.59
563.841	29431.53
564.04	29169.39
564.239	29523.69
564.438	28727.03
564.637	29136.62
564.836	29404.91
565.035	29005.55
565.234	29282.03
565.432	28835.57
565.631	28843.76
565.83	29142.77
566.029	29185.77
566.228	29212.4
566.427	28905.2
566.625	28925.68
566.824	28782.32
567.023	28991.22
567.222	28743.41
567.42	29038.32
567.619	29234.92
567.818	29081.33
568.016	29066.99
568.215	29179.63
568.414	28905.2
568.612	29290.22
568.811	28772.08
569.01	29144.81
569.208	29015.79
569.407	28849.91
569.605	28706.55
569.804	28743.41
570.002	29183.73
570.201	29046.51
570.4	28811
570.598	28978.93
570.797	28702.45
570.995	28886.77
571.193	28620.53
571.392	28817.14
571.59	28643.06
571.789	28667.64
571.987	28802.8
572.186	29054.7
572.384	28737.27
572.582	29011.7
572.781	29021.94
572.979	28479.22
573.177	28903.15
573.376	28942.07
573.574	28380.92
573.772	29114.09
573.971	28774.13
574.169	28886.77
574.367	28483.32
574.565	28743.41
574.763	28518.14
574.962	28626.68
575.16	28421.88
575.358	28628.73
575.556	28454.65
575.754	28641.01
575.952	28401.4
576.151	28659.45
576.349	28399.35
576.547	28794.61
576.745	28548.86
576.943	28370.68
577.141	28563.19
577.339	28546.81
577.537	28509.94
577.735	28468.98
577.933	28251.9
578.131	28624.63
578.329	28540.66
578.527	28450.55
578.725	28628.73
578.923	28645.11
579.121	28737.27
579.319	28327.67
579.516	28931.83
579.714	28727.03
579.912	28548.86
580.11	28544.76
580.308	28620.53
580.506	28043.01
580.704	28069.63
580.901	28477.18
581.099	28397.31
581.297	28233.47
581.495	28524.28
581.692	28591.86
581.89	28305.15
582.088	28649.21
582.285	28315.39
582.483	28368.63
582.681	28335.87
582.878	28448.5
583.076	28225.28
583.274	28561.14
583.471	28139.26
583.669	28503.8
583.866	28188.41
584.064	28583.67
584.262	28479.22
584.459	28356.35
584.657	28428.02
584.854	28843.76
585.052	28157.69
585.249	28589.81
585.447	28645.11
585.644	27961.09
585.841	28610.29
586.039	28681.97
586.236	28305.15
586.434	28514.04
586.631	28645.11
586.828	28583.67
587.026	28262.14
587.223	28477.18
587.42	28305.15
587.618	28458.74
587.815	28284.67
588.012	28479.22
588.21	28485.37
588.407	28534.52
588.604	28604.15
588.801	28497.66
588.999	28710.64
589.196	28344.06
589.393	28802.8
589.59	28856.05
589.787	28614.39
589.984	28536.57
590.182	28452.6
590.379	29054.7
590.576	28448.5
590.773	28604.15
590.97	28657.4
591.167	28823.28
591.364	28882.67
591.561	28808.95
591.758	28665.59
591.955	28849.91
592.152	29153.01
592.349	29089.52
592.546	29417.19
592.743	29110
592.94	28942.07
593.137	29363.95
593.334	29169.39
593.531	29150.96
593.727	29392.62
593.924	29603.56
594.121	29466.35
594.318	29849.32
594.515	29079.28
594.712	29538.02
594.908	29703.91
595.105	29681.38
595.302	29667.05
595.499	30133.98
595.696	30170.85
595.892	29497.06
596.089	30127.84
596.286	29925.09
596.482	30127.84
596.679	30144.22
596.876	30064.35
597.072	30133.98
597.269	30054.11
597.466	30195.42
597.662	30539.48
597.859	30635.74
598.055	31141.58
598.252	30820.05
598.448	30797.52
598.645	30762.71
598.841	30828.24
599.038	30742.23
599.234	31035.09
599.431	30893.78
599.627	31307.47
599.824	31424.2
600.02	31635.14
600.217	31454.92
600.413	31319.76
600.609	31354.57
600.806	31284.94
601.002	31862.47
601.198	31895.24
601.395	31962.82
601.591	32274.11
601.787	32284.35
601.984	32241.34
602.18	32589.5
602.376	32304.83
602.572	32620.22
602.769	32726.71
602.965	32712.38
603.161	33007.28
603.357	32863.93
603.553	33400.49
603.75	33261.23
603.946	32964.28
604.142	33547.95
604.338	33529.52
604.534	33832.61
604.73	33875.62
604.926	33787.56
605.122	34064.03
605.318	34322.08
605.514	34199.2
605.71	34580.12
605.906	34774.68
606.102	34860.69
606.298	34891.41
606.494	35364.5
606.69	35309.2
606.886	35440.27
607.082	35231.38
607.278	35763.85
607.474	35446.41
607.67	36134.53
607.866	35729.03
608.062	36839.03
608.257	36406.91
608.453	36599.42
608.649	37037.69
608.845	36589.18
609.041	37066.36
609.236	37670.51
609.432	37301.87
609.628	37852.78
609.824	37809.77
610.019	38237.8
610.215	38647.39
610.411	38631.01
610.606	38397.54
610.802	38884.95
610.998	38680.16
611.193	39429.71
611.389	39253.59
611.584	39355.99
611.78	39171.67
611.976	39958.09
612.171	40183.37
612.367	40379.97
612.562	40668.73
612.758	40253
612.953	40568.38
613.149	41305.65
613.344	41301.56
613.539	42028.59
613.735	41862.7
613.93	41743.92
614.126	42309.16
614.321	42593.82
614.517	42356.26
614.712	43066.91
614.907	42565.15
615.103	43279.89
615.298	42901.02
615.493	43853.33
615.688	43101.72
615.884	44228.1
616.079	43574.8
616.274	44590.59
616.47	44279.3
616.665	44686.85
616.86	44781.06
617.055	44910.08
617.25	44781.06
617.445	45334.01
617.641	45061.63
617.836	45526.52
618.031	45225.46
618.226	46028.27
618.421	45659.63
618.616	46290.41
618.811	45780.46
619.006	46665.19
619.201	45821.42
619.396	46607.84
619.591	46224.87
619.786	46820.83
619.981	46081.52
620.176	46831.07
620.371	46296.55
620.566	46501.35
620.761	46982.62
620.956	46988.77
621.151	46732.77
621.346	47218.14
621.541	46624.23
621.735	47431.13
621.93	46622.18
622.125	47338.97
622.32	46806.5
622.515	47195.61
622.709	47275.48
622.904	47111.64
623.099	47179.23
623.294	47332.82
623.488	46818.78
623.683	47332.82
623.878	46626.28
624.072	47310.3
624.267	47562.2
624.462	47646.16
624.656	47130.08
624.851	47244.76
625.046	46925.28
625.24	47504.85
625.435	46974.43
625.629	46898.66
625.824	46951.9
626.018	46697.95
626.213	46216.68
626.407	46644.71
626.602	46650.85
626.796	46718.43
626.991	46411.24
627.185	46687.71
627.38	46513.64
627.574	45895.15
627.768	45905.39
627.963	46343.66
628.157	45653.49
628.352	46202.35
628.546	45217.27
628.74	46151.15
628.935	45739.5
629.129	46226.92
629.323	45262.33
629.517	45606.39
629.712	45350.39
629.906	45127.16
630.1	44647.94
630.294	45057.53
630.489	44967.42
630.683	45286.9
630.877	44494.34
631.071	44389.89
631.265	44887.55
631.459	44361.22
631.653	44316.17
631.848	45061.63
632.042	44103.18
632.236	44541.44
632.43	43970.06
632.624	44596.74
632.818	43709.97
633.012	43550.23
633.206	43859.47
633.4	43935.24
633.594	43318.81
633.788	43386.39
633.982	43361.81
634.176	43200.02
634.369	42921.5
634.563	43046.43
634.757	42958.36
634.951	43277.85
635.145	42368.55
635.339	42726.94
635.533	42466.85
635.726	42112.55
635.92	41793.07
636.114	42049.07
636.308	42010.15
636.501	41938.47
636.695	42075.69
636.889	41356.85
637.083	40949.31
637.276	41113.14
637.47	40949.31
637.664	41188.92
637.857	41150.01
638.051	40568.38
638.244	40310.34
638.438	40746.56
638.632	40504.9
638.825	40156.74
639.019	40111.69
639.212	39906.89
639.406	39470.67
639.599	39691.85
639.793	39773.77
639.986	38856.28
640.18	39304.79
640.373	39188.05
640.567	38729.31
640.76	38725.21
640.954	38501.98
641.147	38307.43
641.34	38121.06
641.534	38090.34
641.727	38213.22
641.92	37901.93
642.114	37459.57
642.307	37490.29
642.5	37615.21
642.694	36832.89
642.887	36812.41
643.08	37697.13
643.273	37166.71
643.467	36779.64
643.66	36451.97
643.853	36363.9
644.046	36138.63
644.239	36124.29
644.432	35823.24
644.626	35622.54
644.819	35270.29
645.012	35948.17
645.205	35315.34
645.398	35206.8
645.591	35425.93
645.784	35008.15
645.977	34242.21
646.17	34926.23
646.363	34176.67
646.556	33955.49
646.749	33881.77
646.942	34508.44
647.135	33719.98
647.328	33789.61
647.521	33361.58
647.714	33040.05
647.907	33310.38
648.099	32898.74
648.292	32964.28
648.485	32882.36
648.678	32120.51
648.871	31999.68
649.064	31676.1
649.256	32415.42
649.449	31467.21
649.642	31985.35
649.835	31338.19
650.027	31313.61
650.22	31020.75
650.413	31418.06
650.605	31020.75
650.798	30830.29
650.991	30277.34
651.183	30404.31
651.376	30174.94
651.568	30054.11
651.761	30310.11
651.954	29906.66
652.146	29824.74
652.339	29466.35
652.531	29527.78
652.724	29267.69
652.916	28739.32
653.109	29019.89
653.301	28786.42
653.494	28858.1
653.686	28372.73
653.879	28479.22
654.071	28313.34
654.263	28067.58
654.456	27946.75
654.648	28020.48
654.84	27406.09
655.033	27729.67
655.225	27238.16
655.417	27074.32
655.61	27004.69
655.802	27352.84
655.994	26638.1
656.186	26875.66
656.379	26353.43
656.571	26281.75
656.763	26191.64
656.955	25982.75
657.148	25847.58
657.34	26056.48
657.532	25354.02
657.724	25571.11
657.916	25427.75
658.108	25298.73
658.3	24952.62
658.492	25241.39
658.684	24874.8
658.876	24274.74
659.068	24659.76
659.26	24356.66
659.452	24508.21
659.644	23893.82
659.836	23785.28
660.028	23969.6
660.22	23373.64
660.412	23566.15
660.604	23252.81
660.796	23361.35
660.988	23068.49
661.18	22945.61
661.372	22574.93
661.563	22873.93
661.755	22331.22
661.947	22622.03
662.139	22437.72
662.331	22005.59
662.522	21819.23
662.714	22052.7
662.906	21763.93
663.097	21653.34
663.289	21276.52
663.481	21268.33
663.673	21196.65
663.864	20909.93
664.056	20731.76
664.247	20836.2
664.439	20281.21
664.631	20541.3
664.822	20463.47
665.014	20395.89
665.205	20152.18
665.397	20135.8
665.588	19906.43
665.78	19892.09
665.971	19486.59
666.163	19619.71
666.354	19412.87
666.546	19165.06
666.737	19333
666.929	19023.75
667.12	18775.95
667.311	18990.98
667.503	18620.3
667.694	18888.59
667.885	18438.03
668.077	18532.24
668.268	18304.92
668.459	18116.5
668.651	17897.37
668.842	17852.31
669.033	18059.16
669.224	17719.2
669.416	17643.42
669.607	17475.49
669.798	17395.62
669.989	17526.69
670.18	17184.68
670.371	17389.47
670.563	17037.22
670.754	17051.56
670.945	16775.08
671.136	17026.98
671.327	16619.44
671.518	16365.49
671.709	16416.69
671.9	16578.48
672.091	16037.81
672.282	16099.25
672.473	15802.3
672.664	16054.2
672.855	15558.59
673.046	15634.36
673.237	15906.74
673.428	15794.11
673.619	15464.38
673.809	15593.4
674	15355.84
674.191	15294.4
674.382	14991.3
674.573	15343.55
674.764	14870.47
674.954	15204.29
675.145	14585.8
675.336	14682.06
675.527	14688.2
675.717	14696.39
675.908	14473.17
676.099	14526.41
676.289	14583.76
676.48	14483.41
676.671	14198.74
676.861	14237.65
677.052	14120.92
677.243	13969.37
677.433	14063.57
677.624	13912.02
677.814	13809.62
678.005	13967.32
678.195	13850.58
678.386	13531.1
678.576	13414.37
678.767	13432.8
678.957	13043.68
679.148	13365.21
679.338	13508.57
679.529	13191.14
679.719	13096.93
679.909	13064.16
680.1	13094.88
680.29	12922.85
680.481	12978.15
680.671	13107.17
680.861	12609.51
681.052	12842.98
681.242	12707.82
681.432	12830.69
681.622	12435.44
681.813	12677.1
682.003	12591.08
682.193	12408.81
682.383	12394.48
682.573	12505.07
682.764	12130.29
682.954	12138.48
683.144	12204.02
683.334	12337.13
683.524	12034.04
683.714	12226.54
683.904	11714.55
684.094	11984.88
684.284	11964.4
684.474	11911.16
684.664	11808.76
684.854	11829.24
685.044	11673.59
685.234	11743.22
685.424	11556.86
685.614	11476.99
685.804	11558.91
685.994	11573.24
686.184	11462.65
686.374	11415.55
686.564	11190.27
686.753	11624.44
686.943	11235.33
687.133	11253.76
687.323	11321.34
687.513	10997.76
687.702	11071.49
687.892	11104.26
688.082	10948.61
688.272	10971.14
688.461	10969.09
688.651	11235.33
688.841	10831.88
689.03	10889.22
689.22	10672.14
689.41	10776.58
689.599	10618.89
689.789	10756.1
689.979	10455.05
690.168	10768.39
690.358	10622.98
690.547	10663.94
690.737	10422.28
690.926	10573.83
691.116	10295.31
691.305	10424.33
691.495	10287.12
691.684	10106.9
691.874	10237.97
692.063	10250.25
692.252	10260.49
692.442	10133.52
692.631	10072.08
692.82	10188.82
693.01	9875.48
693.199	10219.53
693.388	9693.21
693.578	9975.83
693.767	9842.71
693.956	9801.75
694.146	9723.93
694.335	9809.94
694.524	9705.49
694.713	9603.1
694.902	9680.92
695.092	9605.14
695.281	9570.33
695.47	9607.19
695.659	9582.62
695.848	9308.19
696.037	9351.2
696.226	9461.79
696.415	9289.76
696.604	9256.99
696.793	9218.08
696.982	9216.03
697.171	9216.03
697.36	9224.22
697.549	9021.47
697.738	8894.5
697.927	8798.24
698.116	9197.6
698.305	8945.7
698.494	8972.32
698.683	8876.07
698.872	8908.83
699.061	8867.88
699.25	8691.75
699.438	8796.2
699.627	8673.32
699.816	8675.37
700.005	8583.21
700.193	8491.05
700.382	8646.69
700.571	8411.18
700.76	8562.73
700.948	8529.96
701.137	8308.78
701.326	8226.86
701.514	8276.01
701.703	8243.24
701.892	8022.06
702.08	8206.38
702.269	8138.8
702.457	7858.23
702.646	8007.73
702.834	7833.65
703.023	7979.06
703.212	7989.3
703.4	7931.95
703.589	7921.71
703.777	7917.62
703.965	7532.6
704.154	7727.16
704.342	7542.84
704.531	7589.94
704.719	7538.74
704.907	7598.13
705.096	7274.56
705.284	7526.46
705.472	7432.25
705.661	7323.71
705.849	7348.28
706.037	7319.61
706.226	7196.73
706.414	7452.73
706.602	7301.18
706.79	7274.56
706.979	7088.19
707.167	6996.03
707.355	7231.55
707.543	6979.65
707.731	7073.85
707.919	7039.04
708.107	7014.46
708.296	6811.71
708.484	6817.86
708.672	7067.71
708.86	6737.99
709.048	6723.65
709.236	6578.25
709.424	6701.12
709.612	6588.49
709.8	6731.84
709.988	6404.17
710.176	6699.08
710.364	6428.74
710.551	6475.85
710.739	6361.16
710.927	6574.15
711.115	6301.77
711.303	6486.09
711.491	6348.87
711.679	6176.84
711.866	6293.58
712.054	6211.66
712.242	6279.24
712.43	6150.22
712.617	6053.97
712.805	6146.12
712.993	6084.69
713.181	5963.86
713.368	6127.69
713.556	6033.49
713.744	5693.52
713.931	5851.22
714.119	5724.24
714.306	5890.13
714.494	5775.44
714.682	5613.65
714.869	5601.37
715.057	5757.01
715.244	5654.61
715.432	5689.43
715.619	5605.46
715.807	5642.32
715.994	5503.06
716.182	5408.86
716.369	5503.06
716.556	5455.96
716.744	5308.51
716.931	5273.69
717.119	5376.09
717.306	5279.83
717.493	5285.98
717.681	5421.14
717.868	5126.24
718.055	5236.83
718.242	5185.63
718.43	5240.92
718.617	5150.81
718.804	5032.03
718.991	5052.51
719.179	4986.97
719.366	4903.01
719.553	4896.86
719.74	4929.63
719.927	4849.76
720.114	4661.35
720.301	4845.66
720.488	4669.54
720.676	4657.25
720.863	4730.98
721.05	4829.28
721.237	4722.79
721.424	4614.24
721.611	4579.43
721.798	4474.98
721.985	4579.43
722.172	4452.45
722.358	4397.16
722.545	4458.6
722.732	4458.6
722.919	4401.26
723.106	4477.03
723.293	4409.45
723.48	4450.41
723.667	4386.92
723.853	4204.65
724.04	4190.31
724.227	4251.75
724.414	4294.76
724.6	4098.16
724.787	4175.98
724.974	4159.6
725.161	4135.02
725.347	4063.34
725.534	4171.88
725.72	4028.53
725.907	4006
726.094	3973.23
726.28	4012.14
726.467	3995.76
726.653	3805.3
726.84	3917.93
727.027	3958.89
727.213	3856.5
727.4	3924.08
727.586	3848.3
727.773	3762.29
727.959	3819.63
728.145	3833.97
728.332	3817.58
728.518	3838.06
728.705	3674.23
728.891	3690.61
729.077	3661.94
729.264	3639.41
729.45	3733.62
729.636	3661.94
729.823	3594.36
730.009	3543.16
730.195	3506.29
730.382	3569.78
730.568	3381.37
730.754	3514.49
730.94	3424.37
731.126	3360.89
731.313	3528.82
731.499	3377.27
731.685	3422.33
731.871	3420.28
732.057	3389.56
732.243	3293.3
732.429	3424.37
732.615	3340.41
732.801	3242.11
732.987	3231.87
733.173	3225.72
733.359	3201.15
733.545	3231.87
733.731	3287.16
733.917	3240.06
734.103	3223.67
734.289	3096.7
734.475	3174.52
734.661	3133.56
734.847	3094.65
735.033	3160.19
735.219	2990.21
735.404	2963.58
735.59	3031.16
735.776	3063.93
735.962	3135.61
736.148	2961.53
736.333	3053.69
736.519	2826.37
736.705	2893.95
736.89	2928.77
737.076	2941.05
737.262	2947.2
737.447	2779.26
737.633	2758.78
737.819	2842.75
738.004	2863.23
738.19	2726.02
738.375	2760.83
738.561	2844.8
738.747	2699.39
738.932	2676.87
739.118	2795.65
739.303	2756.74
739.489	2711.68
739.674	2492.55
739.859	2683.01
740.045	2734.21
740.23	2689.15
740.416	2459.78
740.601	2566.28
740.786	2574.47
740.972	2537.6
741.157	2556.04
741.342	2635.91
741.528	2384.01
741.713	2588.8
741.898	2373.77
742.084	2474.12
742.269	2439.3
742.454	2424.97
742.639	2476.16
742.824	2367.62
743.01	2472.07
743.195	2418.82
743.38	2447.49
743.565	2373.77
743.75	2338.95
743.935	2367.62
744.12	2281.61
744.305	2191.5
744.49	2214.02
744.675	2236.55
744.86	2318.47
745.045	2185.35
745.23	2168.97
745.415	2203.79
745.6	2269.32
745.785	2054.28
745.97	2310.28
746.155	2146.44
746.34	2160.78
746.525	2205.83
746.71	2162.83
746.895	2015.37
747.079	1962.12
747.264	2031.76
747.449	2054.28
747.634	2121.87
747.819	2007.18
748.003	2039.95
748.188	2062.48
748.373	2015.37
748.557	2019.47
748.742	1906.83
748.927	1941.65
749.111	1915.02
749.296	1988.75
749.481	1882.25
749.665	1880.21
749.85	1777.81
750.034	1945.74
750.219	1861.77
750.404	1822.86
750.588	1769.62
750.773	1708.18
750.957	1808.53
751.141	1695.89
751.326	1843.34
751.51	1695.89
751.695	1872.01
751.879	1747.09
752.064	1812.62
752.248	1669.27
752.432	1849.49
752.617	1693.84
752.801	1761.42
752.985	1724.56
753.17	1652.88
753.354	1708.18
753.538	1663.12
753.722	1630.35
753.907	1599.63
754.091	1599.63
754.275	1620.11
754.459	1659.03
754.643	1597.59
754.828	1603.73
755.012	1593.49
755.196	1450.13
755.38	1525.91
755.564	1497.24
755.748	1624.21
755.932	1464.47
756.116	1546.39
756.3	1620.11
756.484	1564.82
756.668	1587.35
756.852	1446.04
757.036	1493.14
757.22	1417.37
757.404	1482.9
757.588	1470.61
757.772	1515.67
757.956	1380.5
758.14	1405.08
758.323	1345.69
758.507	1505.43
758.691	1300.63
758.875	1411.22
759.059	1425.56
759.242	1327.25
759.426	1403.03
759.61	1390.74
759.794	1384.6
759.977	1384.6
760.161	1493.14
760.345	1368.21
760.528	1282.2
760.712	1415.32
760.895	1204.38
761.079	1237.14
761.263	1257.62
761.446	1263.77
761.63	1269.91
761.813	1327.25
761.997	1116.31
762.18	1269.91
762.364	1276.06
762.547	1265.82
762.731	1306.77
762.914	1237.14
763.098	1198.23
763.281	1200.28
763.464	1198.23
763.648	1198.23
763.831	1198.23
764.015	1116.31
764.198	1239.19
764.381	1218.71
764.564	1298.58
764.748	1179.8
764.931	1243.29
765.114	1149.08
765.297	1251.48
765.481	1220.76
765.664	1196.18
765.847	1104.03
766.03	1228.95
766.213	1149.08
766.397	1175.7
766.58	1028.25
766.763	1206.42
766.946	1134.75
767.129	1046.68
767.312	1116.31
767.495	1214.62
767.678	1167.51
767.861	1140.89
768.044	1091.74
768.227	1157.27
768.41	1155.23
768.593	1128.6
768.776	1095.83
768.959	1106.07
769.142	1177.75
769.324	1044.63
769.507	1169.56
769.69	1187.99
769.873	1054.87
770.056	1149.08
770.239	1089.69
770.421	1054.87
770.604	1116.31
770.787	1015.96
770.97	1052.83
771.152	989.34
771.335	1042.59
771.518	981.15
771.7	1093.79
771.883	1052.83
772.066	977.05
772.248	1095.83
772.431	1130.65
772.613	1097.88
772.796	1056.92
772.978	1032.35
773.161	1061.02
773.343	1028.25
773.526	958.62
773.708	997.53
773.891	893.09
774.073	970.91
774.256	913.56
774.438	1118.36
774.621	960.67
774.803	966.81
774.985	862.37
775.168	987.29
775.35	983.2
775.532	977.05
775.715	907.42
775.897	993.44
776.079	833.69
776.261	962.72
776.444	905.37
776.626	970.91
776.808	970.91
776.99	848.03
777.173	932
777.355	856.22
777.537	895.13
777.719	917.66
777.901	835.74
778.083	802.97
778.265	792.73
778.447	884.89
778.629	802.97
778.811	911.52
778.993	899.23
779.175	891.04
779.357	827.55
779.539	770.21
779.721	893.09
779.903	827.55
780.085	784.54
780.267	764.06
780.449	782.49
780.631	850.08
780.812	835.74
780.994	700.58
781.176	702.62
781.358	637.09
781.54	743.58
781.721	774.3
781.903	759.97
782.085	747.68
782.267	786.59
782.448	704.67
782.63	762.02
782.812	690.34
782.993	663.71
783.175	723.1
783.357	735.39
783.538	706.72
783.72	630.95
783.901	692.38
784.083	745.63
784.264	735.39
784.446	600.23
784.627	594.08
784.809	661.66
784.99	737.44
785.172	594.08
785.353	573.6
785.535	594.08
785.716	676
785.897	592.03
786.079	655.52
786.26	626.85
786.441	639.14
786.623	594.08
786.804	585.89
786.985	553.12
787.167	620.71
787.348	587.94
787.529	577.7
787.71	702.62
787.891	536.74
788.073	532.64
788.254	546.98
788.435	614.56
788.616	569.51
788.797	522.4
788.978	536.74
789.159	506.02
789.34	522.4
789.522	493.73
789.703	530.59
789.884	583.84
790.065	520.35
790.246	637.09
790.427	520.35
790.607	581.79
790.788	481.44
790.969	448.68
791.15	475.3
791.331	475.3
791.512	487.59
791.693	467.11
791.874	524.45
792.054	512.16
792.235	514.21
792.416	483.49
792.597	401.57
792.778	485.54
792.958	456.87
793.139	444.58
793.32	448.68
793.5	452.77
793.681	456.87
793.862	532.64
794.042	440.48
794.223	364.71
794.404	405.67
794.584	434.34
794.765	454.82
794.945	420
795.126	426.15
795.306	424.1
795.487	401.57
795.667	395.43
795.848	438.44
796.028	454.82
796.209	393.38
796.389	403.62
796.57	467.11
796.75	356.52
796.93	417.96
797.111	313.51
797.291	358.57
797.471	374.95
797.652	456.87
797.832	325.8
798.012	397.48
798.192	340.13
798.373	342.18
798.553	356.52
798.733	336.04
798.913	352.42
799.093	348.33
799.274	336.04
799.454	381.09
799.634	323.75
799.814	463.01
799.994	272.55
800.174	342.18
800.354	352.42
800.534	282.79
800.714	321.7
800.894	348.33
801.074	268.45
801.254	307.37
801.434	338.09
801.614	315.56
801.794	303.27
801.974	1122.46
802.154	262.31
802.334	383.14
802.514	270.5
802.693	348.33
802.873	317.61
803.053	303.27
803.233	348.33
803.413	278.69
803.592	233.64
803.772	243.88
803.952	325.8
804.131	215.21
804.311	264.36
804.491	272.55
804.67	362.66
804.85	268.45
805.03	319.65
805.209	276.65
805.389	286.89
805.568	239.78
805.748	305.32
805.928	323.75
806.107	270.5
806.287	241.83
806.466	350.37
806.646	321.7
806.825	247.97
807.004	223.4
807.184	245.93
807.363	235.69
807.543	288.93
807.722	241.83
807.901	270.5
808.081	321.7
808.26	207.02
808.439	241.83
808.619	258.21
808.798	235.69
808.977	288.93
809.156	245.93
809.336	231.59
809.515	219.3
809.694	164.01
809.873	168.1
810.052	278.69
810.231	250.02
810.411	256.17
810.59	305.32
810.769	329.89
810.948	262.31
811.127	127.14
811.306	198.82
811.485	182.44
811.664	342.18
811.843	217.26
812.022	209.06
812.201	204.97
812.38	237.74
812.559	172.2
812.737	274.6
812.916	172.2
813.095	133.29
813.274	217.26
813.453	229.54
813.632	276.65
813.811	241.83
813.989	219.3
814.168	231.59
814.347	168.1
814.526	112.81
814.704	295.08
814.883	213.16
815.062	131.24
815.24	202.92
815.419	180.39
815.598	192.68
815.776	147.62
815.955	286.89
816.133	67.75
816.312	114.86
816.49	137.38
816.669	166.06
816.847	94.38
817.026	252.07
817.204	86.19
817.383	166.06
817.561	82.09
817.74	225.45
817.918	196.78
818.097	153.77
818.275	178.34
818.453	123.05
818.632	178.34
818.81	186.54
818.988	211.11
819.167	90.28
819.345	194.73
819.523	147.62
819.701	147.62
819.879	219.3
820.058	112.81
820.236	223.4
820.414	135.34
820.592	196.78
820.77	159.91
820.948	215.21
821.127	131.24
821.305	157.86
821.483	137.38
821.661	213.16
821.839	223.4
822.017	75.95
822.195	159.91
822.373	129.19
822.551	143.53
822.729	157.86
822.907	69.8
823.085	260.26
823.262	133.29
823.44	182.44
823.618	106.67
823.796	71.85
823.974	153.77
824.152	153.77
824.329	80.04
824.507	127.14
824.685	129.19
824.863	88.23
825.04	90.28
825.218	157.86
825.396	155.82
825.574	161.96
825.751	123.05
825.929	137.38
826.107	65.71
826.284	147.62
826.462	131.24
826.639	157.86
826.817	16.55
826.994	188.58
827.172	106.67
827.349	194.73
827.527	145.58
827.704	114.86
827.882	118.95
828.059	71.85
828.237	71.85
828.414	69.8
828.591	18.6
828.769	116.9
828.946	121
829.124	61.61
829.301	254.12
829.478	88.23
829.655	237.74
829.833	231.59
830.01	57.51
830.187	121
830.364	112.81
830.542	164.01
830.719	235.69
830.896	121
831.073	157.86
831.25	118.95
831.427	219.3
831.604	133.29
831.782	47.27
831.959	84.14
832.136	53.42
832.313	53.42
832.49	114.86
832.667	57.51
832.844	118.95
833.021	172.2
833.198	147.62
833.374	118.95
833.551	137.38
833.728	53.42
833.905	125.1
834.082	65.71
834.259	108.71
834.436	155.82
834.612	98.47
834.789	188.58
834.966	41.13
835.143	166.06
835.319	129.19
835.496	114.86
835.673	84.14
835.85	92.33
836.026	96.43
836.203	149.67
836.38	63.66
836.556	47.27
836.733	90.28
836.909	186.54
837.086	110.76
837.262	0.17
837.439	73.9
837.616	135.34
837.792	28.84
837.968	88.23
838.145	22.7
838.321	92.33
838.498	51.37
838.674	102.57
838.851	69.8
839.027	86.19
839.203	75.95
839.38	49.32
839.556	10.41
839.732	59.56
839.909	102.57
840.085	143.53
840.261	69.8
840.437	73.9
840.614	57.51
840.79	69.8
840.966	125.1
841.142	90.28
841.318	34.99
841.494	88.23
841.671	131.24
841.847	104.62
842.023	28.84
842.199	41.13
842.375	143.53
842.551	-81.75
842.727	28.84
842.903	159.91
843.079	96.43
843.255	100.52
843.431	57.51
843.607	67.75
843.783	-20.31
843.959	47.27
844.134	41.13
844.31	133.29
844.486	92.33
844.662	8.36
844.838	57.51
845.013	104.62
845.189	77.99
845.365	98.47
845.541	49.32
845.716	12.46
845.892	45.23
846.068	127.14
846.244	118.95
846.419	73.9
846.595	22.7
846.77	-32.6
846.946	118.95
847.122	-20.31
847.297	22.7
847.473	159.91
847.648	22.7
847.824	100.52
847.999	-18.26
848.175	100.52
848.35	73.9
848.526	131.24
848.701	121
848.876	157.86
849.052	88.23
849.227	47.27
849.403	-1.88
849.578	4.27
849.753	20.65
849.929	-8.02
850.104	57.51
850.279	67.75
850.454	4.27
850.63	67.75
850.805	32.94
850.98	75.95
851.155	104.62
851.33	24.75
851.505	37.03
851.681	168.1
851.856	-20.31
852.031	75.95
852.206	73.9
852.381	2.22
852.556	26.79
852.731	4.27
852.906	47.27
853.081	41.13
853.256	104.62
853.431	94.38
853.606	-16.21
853.781	-8.02
853.956	49.32
854.131	51.37
854.305	32.94
854.48	16.55
854.655	-1.88
854.83	32.94
855.005	20.65
855.18	63.66
855.354	43.18
855.529	51.37
855.704	82.09
855.879	90.28
856.053	4.27
856.228	-10.07
856.403	-55.12
856.577	82.09
856.752	-18.26
856.926	57.51
857.101	34.99
857.276	-26.45
857.45	77.99
857.625	55.47
857.799	-14.17
857.974	63.66
858.148	-10.07
858.323	121
858.497	43.18
858.672	30.89
858.846	-24.4
859.02	110.76
859.195	-104.28
859.369	41.13
859.543	84.14
859.718	55.47
859.892	53.42
860.066	80.04
860.241	39.08
860.415	47.27
860.589	-1.88
860.763	41.13
860.938	61.61
861.112	37.03
861.286	-3.93
861.46	20.65
861.634	28.84
861.808	49.32
861.982	-14.17
862.157	112.81
862.331	-22.36
862.505	47.27
862.679	24.75
862.853	0.17
863.027	24.75
863.201	86.19
863.375	-14.17
863.549	22.7
863.722	69.8
863.896	45.23
864.07	6.31
864.244	18.6
864.418	65.71
864.592	49.32
864.766	71.85
864.939	20.65
865.113	28.84
865.287	114.86
865.461	-51.03
865.634	65.71
865.808	24.75
865.982	-69.46
866.156	-14.17
866.329	-18.26
866.503	133.29
866.676	18.6
866.85	6.31
867.024	32.94
867.197	28.84
867.371	14.51
867.544	55.47
867.718	10.41
867.891	28.84
868.065	-22.36
868.238	6.31
868.412	55.47
868.585	28.84
868.759	-38.74
868.932	30.89
869.105	-51.03
869.279	4.27
869.452	10.41
869.625	0.17
869.799	65.71
869.972	-38.74
870.145	80.04
870.319	32.94
870.492	16.55
870.665	47.27
870.838	45.23
871.011	-30.55
871.185	6.31
871.358	10.41
871.531	8.36
871.704	8.36
871.877	16.55
872.05	53.42
872.223	-24.4
872.396	37.03
872.569	43.18
872.742	-112.47
872.915	71.85
873.088	77.99
873.261	34.99
873.434	8.36
873.607	18.6
873.78	61.61
873.953	8.36
874.126	20.65
874.299	127.14
874.471	59.56
874.644	0.17
874.817	69.8
874.99	178.34
875.163	-38.74
875.335	34.99
875.508	20.65
875.681	92.33
875.853	-20.31
876.026	28.84
876.199	-18.26
876.371	0.17
876.544	43.18
876.717	-28.5
876.889	-16.21
877.062	-1.88
877.234	-8.02
877.407	8.36
877.579	-20.31
877.752	-8.02
877.924	129.19
878.097	61.61
878.269	-5.97
878.442	69.8
878.614	49.32
878.786	80.04
878.959	-3.93
879.131	14.51
879.303	20.65
879.476	47.27
879.648	57.51
879.82	63.66
879.993	20.65
880.165	-22.36
880.337	-20.31
880.509	-8.02
880.681	-20.31
880.854	-30.55
881.026	47.27
881.198	94.38
881.37	22.7
881.542	-12.12
881.714	-32.6
881.886	-24.4
882.058	80.04
882.23	139.43
882.402	32.94
882.574	26.79
882.746	73.9
882.918	159.91
883.09	18.6
883.262	0.17
883.434	41.13
883.606	-1.88
883.778	-36.69
883.95	96.43
884.122	-10.07
884.293	39.08
884.465	24.75
884.637	37.03
884.809	-32.6
884.98	43.18
885.152	-1.88
885.324	20.65
885.496	-12.12
885.667	-12.12
885.839	4.27
886.011	67.75
886.182	92.33
886.354	41.13
886.525	-18.26
886.697	8.36
886.869	0.17
887.04	-10.07
887.212	8.36
887.383	116.9
887.555	-26.45
887.726	-8.02
887.897	47.27
888.069	110.76
888.24	28.84
888.412	-1.88
888.583	51.37
888.754	2.22
888.926	-5.97
889.097	-57.17
889.268	-67.41
889.44	8.36
889.611	14.51
889.782	-59.22
889.953	-67.41
890.125	80.04
890.296	-18.26
890.467	43.18
890.638	-32.6
890.809	24.75
890.98	20.65
891.151	-16.21
891.323	28.84
891.494	-5.97
891.665	-1.88
891.836	32.94
892.007	18.6
892.178	80.04
892.349	43.18
892.52	-87.89
892.691	30.89
892.862	-30.55
893.032	-20.31
893.203	-67.41
893.374	-20.31
893.545	73.9
893.716	-34.64
893.887	59.56
894.057	-1.88
894.228	20.65
894.399	-42.84
894.57	47.27
894.74	102.57
894.911	30.89
895.082	-65.36
895.253	-28.5
895.423	22.7
895.594	24.75
895.764	-16.21
895.935	-22.36
896.106	32.94
896.276	-24.4
896.447	-10.07
896.617	16.55
896.788	30.89
896.958	88.23
897.129	-28.5
897.299	-91.99
897.47	137.38
897.64	4.27
897.81	-44.88
897.981	-32.6
898.151	-26.45
898.322	90.28
898.492	6.31
898.662	-3.93
898.832	-8.02
899.003	-34.64
899.173	34.99
899.343	69.8
899.513	14.51
