Data from USB4F104151__2__12-11-10-462.txt Node

Date: Fri Mar 14 12:11:10 EDT 2025
User: louis
Spectrometer: USB4F10415
Trigger mode: 4
Integration Time (sec): 5.000000E-2
Scans to average: 1
Electric dark correction enabled: true
Nonlinearity correction enabled: false
Boxcar width: 0
XAxis mode: Wavelengths
Number of Pixels in Spectrum: 3648
>>>>>Begin Spectral Data<<<<<
178.204	-262.31
178.424	-262.31
178.644	-262.31
178.864	-151.72
179.084	-237.74
179.304	98.13
179.524	20.31
179.744	8.02
179.964	69.46
180.184	-43.18
180.404	26.45
180.624	32.6
180.844	-47.27
181.064	-92.33
181.283	30.55
181.503	-45.23
181.723	-57.51
181.943	-34.99
182.163	130.9
182.383	1.88
182.602	75.6
182.822	61.27
183.042	69.46
183.262	-39.08
183.482	32.6
183.701	-8.36
183.921	14.17
184.141	-4.27
184.361	-24.75
184.58	122.71
184.8	61.27
185.02	65.36
185.239	139.09
185.459	14.17
185.679	100.18
185.898	34.64
186.118	100.18
186.338	51.03
186.557	77.65
186.777	77.65
186.997	-39.08
187.216	14.17
187.436	30.55
187.655	118.61
187.875	122.71
188.095	48.98
188.314	77.65
188.534	51.03
188.753	-88.23
188.973	69.46
189.192	73.56
189.412	3.93
189.631	28.5
189.851	38.74
190.07	89.94
190.29	14.17
190.509	-34.99
190.729	46.93
190.948	141.14
191.168	266.07
191.387	96.08
191.607	-28.84
191.826	10.07
192.045	51.03
192.265	8.02
192.484	126.8
192.704	12.12
192.923	-16.55
193.142	77.65
193.362	81.75
193.581	130.9
193.8	53.08
194.02	83.8
194.239	87.89
194.458	5.97
194.678	67.41
194.897	116.56
195.116	24.4
195.335	-37.03
195.555	69.46
195.774	-10.41
195.993	77.65
196.212	24.4
196.432	75.6
196.651	22.36
196.87	-6.31
197.089	126.8
197.308	128.85
197.528	79.7
197.747	-57.51
197.966	8.02
198.185	61.27
198.404	30.55
198.623	38.74
198.842	53.08
199.062	51.03
199.281	124.76
199.5	89.94
199.719	46.93
199.938	118.61
200.157	79.7
200.376	57.17
200.595	122.71
200.814	8.02
201.033	69.46
201.252	106.32
201.471	75.6
201.69	73.56
201.909	46.93
202.128	98.13
202.347	61.27
202.566	28.5
202.785	5.97
203.004	-24.75
203.223	178
203.442	55.12
203.661	46.93
203.879	22.36
204.098	89.94
204.317	36.69
204.536	79.7
204.755	89.94
204.974	67.41
205.193	22.36
205.411	143.19
205.63	89.94
205.849	51.03
206.068	-32.94
206.287	12.12
206.505	137.04
206.724	61.27
206.943	-12.46
207.162	22.36
207.381	16.21
207.599	30.55
207.818	98.13
208.037	-8.36
208.255	22.36
208.474	75.6
208.693	79.7
208.911	8.02
209.13	65.36
209.349	28.5
209.567	89.94
209.786	36.69
210.005	110.42
210.223	5.97
210.442	-49.32
210.661	98.13
210.879	75.6
211.098	53.08
211.316	83.8
211.535	118.61
211.753	24.4
211.972	65.36
212.191	-14.51
212.409	-20.65
212.628	61.27
212.846	36.69
213.065	108.37
213.283	114.52
213.502	-22.7
213.72	63.32
213.938	42.84
214.157	18.26
214.375	128.85
214.594	34.64
214.812	-22.7
215.031	96.08
215.249	28.5
215.467	69.46
215.686	-6.31
215.904	77.65
216.122	10.07
216.341	96.08
216.559	-8.36
216.778	141.14
216.996	167.76
217.214	53.08
217.432	36.69
217.651	46.93
217.869	106.32
218.087	-20.65
218.306	38.74
218.524	98.13
218.742	-14.51
218.96	67.41
219.179	-14.51
219.397	8.02
219.615	89.94
219.833	-90.28
220.051	24.4
220.27	57.17
220.488	75.6
220.706	83.8
220.924	32.6
221.142	114.52
221.36	61.27
221.578	100.18
221.796	20.31
222.015	53.08
222.233	44.88
222.451	135
222.669	10.07
222.887	26.45
223.105	51.03
223.323	14.17
223.541	-43.18
223.759	116.56
223.977	10.07
224.195	120.66
224.413	114.52
224.631	73.56
224.849	5.97
225.067	151.38
225.285	-20.65
225.503	32.6
225.721	5.97
225.939	110.42
226.157	40.79
226.375	216.91
226.592	-43.18
226.81	73.56
227.028	26.45
227.246	69.46
227.464	-12.46
227.682	48.98
227.9	34.64
228.117	55.12
228.335	40.79
228.553	67.41
228.771	34.64
228.989	51.03
229.206	132.95
229.424	46.93
229.642	42.84
229.86	1.88
230.077	59.22
230.295	73.56
230.513	63.32
230.731	85.84
230.948	155.47
231.166	85.84
231.384	116.56
231.601	53.08
231.819	149.33
232.037	-37.03
232.254	-32.94
232.472	81.75
232.689	-37.03
232.907	30.55
233.125	18.26
233.342	38.74
233.56	1.88
233.777	1.88
233.995	89.94
234.213	159.57
234.43	59.22
234.648	48.98
234.865	38.74
235.083	-20.65
235.3	38.74
235.518	8.02
235.735	110.42
235.953	55.12
236.17	71.51
236.388	48.98
236.605	59.22
236.822	180.05
237.04	77.65
237.257	14.17
237.475	16.21
237.692	38.74
237.909	18.26
238.127	42.84
238.344	38.74
238.562	73.56
238.779	22.36
238.996	-92.33
239.214	-0.17
239.431	55.12
239.648	-30.89
239.865	77.65
240.083	89.94
240.3	22.36
240.517	-20.65
240.735	32.6
240.952	135
241.169	67.41
241.386	65.36
241.603	-20.65
241.821	-28.84
242.038	96.08
242.255	28.5
242.472	81.75
242.689	89.94
242.907	63.32
243.124	36.69
243.341	3.93
243.558	-24.75
243.775	1.88
243.992	-51.37
244.209	81.75
244.426	100.18
244.643	10.07
244.86	36.69
245.078	165.71
245.295	12.12
245.512	22.36
245.729	-41.13
245.946	67.41
246.163	55.12
246.38	42.84
246.597	65.36
246.814	40.79
247.031	40.79
247.248	83.8
247.464	46.93
247.681	30.55
247.898	34.64
248.115	59.22
248.332	110.42
248.549	85.84
248.766	114.52
248.983	57.17
249.2	112.47
249.417	96.08
249.633	-2.22
249.85	67.41
250.067	61.27
250.284	32.6
250.501	147.28
250.717	24.4
250.934	10.07
251.151	26.45
251.368	12.12
251.585	143.19
251.801	108.37
252.018	-24.75
252.235	38.74
252.451	14.17
252.668	-14.51
252.885	44.88
253.102	24.4
253.318	73.56
253.535	-24.75
253.752	46.93
253.968	38.74
254.185	-51.37
254.401	5.97
254.618	110.42
254.835	53.08
255.051	77.65
255.268	108.37
255.484	122.71
255.701	53.08
255.917	106.32
256.134	36.69
256.351	22.36
256.567	14.17
256.784	8.02
257	81.75
257.217	12.12
257.433	89.94
257.65	85.84
257.866	-26.79
258.082	26.45
258.299	-0.17
258.515	46.93
258.732	85.84
258.948	26.45
259.165	38.74
259.381	-8.36
259.597	87.89
259.814	3.93
260.03	46.93
260.246	42.84
260.463	79.7
260.679	16.21
260.895	79.7
261.112	81.75
261.328	83.8
261.544	8.02
261.761	108.37
261.977	89.94
262.193	-53.42
262.409	28.5
262.626	55.12
262.842	-18.6
263.058	-20.65
263.274	85.84
263.49	14.17
263.707	24.4
263.923	85.84
264.139	-69.8
264.355	-4.27
264.571	67.41
264.787	75.6
265.004	61.27
265.22	40.79
265.436	-0.17
265.652	30.55
265.868	59.22
266.084	53.08
266.3	36.69
266.516	-18.6
266.732	139.09
266.948	-4.27
267.164	51.03
267.38	36.69
267.596	30.55
267.812	130.9
268.028	10.07
268.244	36.69
268.46	81.75
268.676	91.99
268.892	3.93
269.108	10.07
269.324	-14.51
269.54	-67.75
269.756	102.23
269.972	14.17
270.188	34.64
270.403	26.45
270.619	-14.51
270.835	24.4
271.051	94.04
271.267	-6.31
271.483	32.6
271.698	85.84
271.914	-18.6
272.13	91.99
272.346	71.51
272.562	18.26
272.777	61.27
272.993	91.99
273.209	51.03
273.425	51.03
273.64	-73.9
273.856	1.88
274.072	26.45
274.287	-14.51
274.503	167.76
274.719	71.51
274.934	16.21
275.15	-77.99
275.366	26.45
275.581	5.97
275.797	26.45
276.012	36.69
276.228	-14.51
276.444	34.64
276.659	77.65
276.875	-61.61
277.09	12.12
277.306	40.79
277.521	85.84
277.737	94.04
277.952	96.08
278.168	75.6
278.383	42.84
278.599	55.12
278.814	-6.31
279.03	59.22
279.245	53.08
279.461	-41.13
279.676	112.47
279.892	12.12
280.107	20.31
280.322	30.55
280.538	32.6
280.753	-8.36
280.969	-8.36
281.184	14.17
281.399	79.7
281.615	67.41
281.83	94.04
282.045	-51.37
282.26	48.98
282.476	8.02
282.691	26.45
282.906	55.12
283.122	63.32
283.337	-39.08
283.552	100.18
283.767	53.08
283.983	67.41
284.198	8.02
284.413	61.27
284.628	-18.6
284.843	5.97
285.058	1.88
285.274	-4.27
285.489	-2.22
285.704	32.6
285.919	-16.55
286.134	63.32
286.349	51.03
286.564	20.31
286.779	65.36
286.995	46.93
287.21	-65.71
287.425	42.84
287.64	36.69
287.855	53.08
288.07	-2.22
288.285	42.84
288.5	87.89
288.715	42.84
288.93	5.97
289.145	59.22
289.36	128.85
289.575	8.02
289.79	120.66
290.004	44.88
290.219	89.94
290.434	22.36
290.649	-26.79
290.864	51.03
291.079	-8.36
291.294	53.08
291.509	81.75
291.724	40.79
291.938	42.84
292.153	67.41
292.368	77.65
292.583	-16.55
292.798	34.64
293.012	87.89
293.227	102.23
293.442	57.17
293.657	118.61
293.871	157.52
294.086	81.75
294.301	135
294.516	122.71
294.73	-22.7
294.945	28.5
295.16	71.51
295.374	94.04
295.589	87.89
295.804	-10.41
296.018	32.6
296.233	96.08
296.447	77.65
296.662	46.93
296.877	163.67
297.091	40.79
297.306	10.07
297.52	48.98
297.735	-10.41
297.949	36.69
298.164	36.69
298.378	104.28
298.593	63.32
298.807	-2.22
299.022	26.45
299.236	98.13
299.451	83.8
299.665	59.22
299.88	40.79
300.094	38.74
300.309	12.12
300.523	122.71
300.737	98.13
300.952	98.13
301.166	87.89
301.381	-16.55
301.595	53.08
301.809	48.98
302.024	100.18
302.238	28.5
302.452	104.28
302.667	34.64
302.881	114.52
303.095	34.64
303.309	-30.89
303.524	-41.13
303.738	55.12
303.952	75.6
304.166	87.89
304.381	-108.71
304.595	67.41
304.809	36.69
305.023	75.6
305.237	-2.22
305.452	36.69
305.666	96.08
305.88	94.04
306.094	106.32
306.308	26.45
306.522	65.36
306.736	85.84
306.95	96.08
307.164	18.26
307.379	42.84
307.593	96.08
307.807	96.08
308.021	65.36
308.235	46.93
308.449	5.97
308.663	46.93
308.877	135
309.091	71.51
309.305	151.38
309.519	-67.75
309.733	106.32
309.947	-14.51
310.161	24.4
310.374	102.23
310.588	112.47
310.802	-10.41
311.016	48.98
311.23	65.36
311.444	14.17
311.658	61.27
311.872	85.84
312.085	98.13
312.299	79.7
312.513	79.7
312.727	36.69
312.941	-18.6
313.154	63.32
313.368	38.74
313.582	87.89
313.796	34.64
314.009	104.28
314.223	83.8
314.437	59.22
314.651	42.84
314.864	28.5
315.078	-53.42
315.292	-32.94
315.505	46.93
315.719	77.65
315.933	42.84
316.146	57.17
316.36	75.6
316.573	71.51
316.787	137.04
317.001	53.08
317.214	36.69
317.428	26.45
317.641	20.31
317.855	14.17
318.068	94.04
318.282	40.79
318.495	126.8
318.709	77.65
318.922	114.52
319.136	63.32
319.349	24.4
319.563	67.41
319.776	32.6
319.99	8.02
320.203	100.18
320.417	51.03
320.63	75.6
320.843	167.76
321.057	5.97
321.27	59.22
321.483	118.61
321.697	67.41
321.91	53.08
322.124	55.12
322.337	53.08
322.55	-2.22
322.763	69.46
322.977	26.45
323.19	-8.36
323.403	18.26
323.617	53.08
323.83	28.5
324.043	77.65
324.256	-12.46
324.469	10.07
324.683	114.52
324.896	63.32
325.109	14.17
325.322	-41.13
325.535	102.23
325.748	44.88
325.962	-10.41
326.175	73.56
326.388	79.7
326.601	124.76
326.814	-4.27
327.027	61.27
327.24	120.66
327.453	8.02
327.666	-0.17
327.879	100.18
328.092	44.88
328.305	36.69
328.518	8.02
328.731	40.79
328.944	26.45
329.157	110.42
329.37	-39.08
329.583	155.47
329.796	89.94
330.009	-47.27
330.222	108.37
330.435	102.23
330.648	53.08
330.861	36.69
331.073	53.08
331.286	69.46
331.499	96.08
331.712	-37.03
331.925	-2.22
332.138	10.07
332.35	36.69
332.563	46.93
332.776	63.32
332.989	-14.51
333.202	26.45
333.414	-22.7
333.627	38.74
333.84	69.46
334.053	22.36
334.265	124.76
334.478	46.93
334.691	40.79
334.903	130.9
335.116	3.93
335.329	14.17
335.541	79.7
335.754	44.88
335.966	-2.22
336.179	34.64
336.392	-2.22
336.604	108.37
336.817	10.07
337.029	16.21
337.242	24.4
337.454	87.89
337.667	63.32
337.88	34.64
338.092	28.5
338.305	67.41
338.517	-24.75
338.729	106.32
338.942	106.32
339.154	32.6
339.367	-8.36
339.579	94.04
339.792	-51.37
340.004	77.65
340.217	-0.17
340.429	-16.55
340.641	40.79
340.854	28.5
341.066	51.03
341.278	182.1
341.491	104.28
341.703	28.5
341.915	42.84
342.128	61.27
342.34	53.08
342.552	40.79
342.764	83.8
342.977	38.74
343.189	30.55
343.401	44.88
343.613	1.88
343.826	-14.51
344.038	59.22
344.25	22.36
344.462	24.4
344.674	48.98
344.886	128.85
345.099	139.09
345.311	59.22
345.523	79.7
345.735	38.74
345.947	128.85
346.159	-26.79
346.371	40.79
346.583	188.24
346.795	147.28
347.007	-32.94
347.219	28.5
347.431	65.36
347.643	96.08
347.855	34.64
348.067	96.08
348.279	-18.6
348.491	1.88
348.703	8.02
348.915	48.98
349.127	12.12
349.339	81.75
349.551	-2.22
349.763	69.46
349.975	53.08
350.187	102.23
350.399	85.84
350.61	89.94
350.822	-6.31
351.034	75.6
351.246	53.08
351.458	44.88
351.669	46.93
351.881	98.13
352.093	77.65
352.305	44.88
352.517	57.17
352.728	137.04
352.94	116.56
353.152	128.85
353.363	22.36
353.575	51.03
353.787	96.08
353.999	79.7
354.21	130.9
354.422	28.5
354.633	32.6
354.845	55.12
355.057	20.31
355.268	32.6
355.48	98.13
355.692	-20.65
355.903	96.08
356.115	73.56
356.326	-51.37
356.538	120.66
356.749	38.74
356.961	81.75
357.172	-43.18
357.384	5.97
357.595	124.76
357.807	38.74
358.018	46.93
358.23	85.84
358.441	42.84
358.653	120.66
358.864	57.17
359.075	20.31
359.287	30.55
359.498	18.26
359.709	87.89
359.921	87.89
360.132	135
360.344	46.93
360.555	-4.27
360.766	73.56
360.977	8.02
361.189	102.23
361.4	63.32
361.611	-18.6
361.823	73.56
362.034	38.74
362.245	20.31
362.456	26.45
362.667	139.09
362.879	-16.55
363.09	3.93
363.301	51.03
363.512	81.75
363.723	81.75
363.935	38.74
364.146	149.33
364.357	100.18
364.568	32.6
364.779	-26.79
364.99	55.12
365.201	8.02
365.412	53.08
365.623	-2.22
365.834	116.56
366.045	10.07
366.256	98.13
366.467	87.89
366.678	46.93
366.889	75.6
367.1	26.45
367.311	57.17
367.522	22.36
367.733	53.08
367.944	122.71
368.155	87.89
368.366	157.52
368.577	65.36
368.788	44.88
368.999	53.08
369.209	57.17
369.42	122.71
369.631	175.95
369.842	30.55
370.053	98.13
370.264	42.84
370.474	-18.6
370.685	94.04
370.896	48.98
371.107	57.17
371.317	81.75
371.528	73.56
371.739	89.94
371.95	77.65
372.16	85.84
372.371	26.45
372.582	18.26
372.792	77.65
373.003	118.61
373.214	147.28
373.424	77.65
373.635	34.64
373.846	96.08
374.056	85.84
374.267	75.6
374.477	69.46
374.688	48.98
374.898	28.5
375.109	112.47
375.319	61.27
375.53	157.52
375.74	36.69
375.951	59.22
376.161	55.12
376.372	104.28
376.582	42.84
376.793	55.12
377.003	-6.31
377.214	42.84
377.424	96.08
377.635	32.6
377.845	42.84
378.055	57.17
378.266	-32.94
378.476	-4.27
378.686	28.5
378.897	53.08
379.107	118.61
379.317	98.13
379.528	12.12
379.738	42.84
379.948	55.12
380.158	69.46
380.369	28.5
380.579	77.65
380.789	22.36
380.999	112.47
381.21	169.81
381.42	143.19
381.63	57.17
381.84	94.04
382.05	51.03
382.261	135
382.471	73.56
382.681	30.55
382.891	116.56
383.101	51.03
383.311	69.46
383.521	22.36
383.731	53.08
383.941	173.91
384.151	98.13
384.361	55.12
384.571	114.52
384.781	28.5
384.991	130.9
385.201	139.09
385.411	81.75
385.621	124.76
385.831	32.6
386.041	87.89
386.251	32.6
386.461	85.84
386.671	-14.51
386.881	53.08
387.091	-12.46
387.301	139.09
387.511	79.7
387.72	69.46
387.93	112.47
388.14	20.31
388.35	128.85
388.56	94.04
388.769	106.32
388.979	112.47
389.189	22.36
389.399	145.24
389.609	104.28
389.818	188.24
390.028	79.7
390.238	67.41
390.447	22.36
390.657	126.8
390.867	18.26
391.076	51.03
391.286	36.69
391.496	55.12
391.705	83.8
391.915	175.95
392.125	112.47
392.334	24.4
392.544	137.04
392.753	100.18
392.963	55.12
393.172	108.37
393.382	55.12
393.591	139.09
393.801	69.46
394.01	110.42
394.22	169.81
394.429	116.56
394.639	57.17
394.848	145.24
395.058	145.24
395.267	46.93
395.477	10.07
395.686	182.1
395.895	167.76
396.105	231.25
396.314	147.28
396.524	153.43
396.733	112.47
396.942	106.32
397.152	128.85
397.361	190.29
397.57	91.99
397.78	128.85
397.989	169.81
398.198	200.53
398.407	165.71
398.617	96.08
398.826	128.85
399.035	83.8
399.244	194.39
399.453	79.7
399.663	69.46
399.872	153.43
400.081	73.56
400.29	149.33
400.499	106.32
400.708	135
400.917	173.91
401.127	151.38
401.336	85.84
401.545	214.87
401.754	143.19
401.963	155.47
402.172	85.84
402.381	175.95
402.59	3.93
402.799	153.43
403.008	200.53
403.217	167.76
403.426	124.76
403.635	114.52
403.844	173.91
404.053	165.71
404.262	122.71
404.471	288.59
404.68	71.51
404.888	139.09
405.097	135
405.306	145.24
405.515	206.67
405.724	188.24
405.933	245.59
406.142	229.2
406.35	216.91
406.559	208.72
406.768	163.67
406.977	208.72
407.185	163.67
407.394	184.15
407.603	167.76
407.812	276.31
408.02	286.54
408.229	241.49
408.438	194.39
408.646	186.19
408.855	282.45
409.064	261.97
409.272	266.07
409.481	286.54
409.69	239.44
409.898	296.78
410.107	304.98
410.315	364.37
410.524	274.26
410.733	304.98
410.941	388.94
411.15	462.67
411.358	468.81
411.567	442.19
411.775	384.85
411.984	485.2
412.192	522.06
412.401	479.05
412.609	503.63
412.818	550.73
413.026	560.97
413.234	472.91
413.443	550.73
413.651	532.3
413.86	644.94
414.068	689.99
414.276	651.08
414.485	669.52
414.693	661.32
414.901	784.2
415.11	769.87
415.318	800.59
415.526	880.46
415.734	821.06
415.943	853.83
416.151	880.46
416.359	896.84
416.567	972.61
416.776	1040.2
416.984	954.18
417.192	1017.67
417.4	1105.73
417.608	1050.44
417.817	1052.49
418.025	1128.26
418.233	1181.51
418.441	1376.06
418.649	1259.33
418.857	1326.91
419.065	1412.93
419.273	1324.87
419.481	1455.94
419.689	1462.08
419.897	1597.24
420.105	1625.92
420.313	1529.66
420.521	1613.63
420.729	1718.08
420.937	1695.55
421.145	1785.66
421.353	2027.32
421.561	2074.42
421.769	2070.33
421.977	2066.23
422.185	2094.9
422.393	2273.07
422.601	2316.08
422.809	2303.79
423.017	2287.41
423.224	2606.89
423.432	2658.09
423.64	2619.18
423.848	2914.09
424.056	2711.34
424.263	2891.56
424.471	2967.34
424.679	3012.39
424.887	3270.44
425.094	3376.93
425.302	3254.05
425.51	3409.7
425.718	3569.44
425.925	3690.27
426.133	3622.69
426.341	3991.32
426.548	4040.47
426.756	4044.57
426.964	4173.59
427.171	4337.43
427.379	4507.41
427.586	4517.65
427.794	4560.66
428.001	5015.3
428.209	5076.74
428.417	4970.25
428.624	5435.14
428.832	5424.9
429.039	5342.98
429.247	5320.45
429.454	5861.12
429.662	6280.95
429.869	5902.08
430.076	6319.86
430.284	6041.34
430.491	6436.6
430.699	6786.8
430.906	6747.89
431.114	6829.81
431.321	6956.78
431.528	7218.92
431.736	7706.34
431.943	8070.87
432.15	7814.88
432.358	7622.37
432.565	8378.07
432.772	8333.01
432.979	8824.53
433.187	8824.53
433.394	8873.68
433.601	9391.81
433.808	9651.91
434.016	9361.09
434.223	9836.22
434.43	10307.26
434.637	10270.39
434.844	10950.32
435.052	11110.06
435.259	10962.61
435.466	11206.31
435.673	10987.18
435.88	11562.66
436.087	12416.66
436.294	12232.35
436.501	11949.73
436.708	12293.79
436.915	12701.33
437.122	13088.4
437.329	13233.8
437.537	13760.13
437.743	13694.6
437.95	13717.12
438.157	14517.88
438.364	14978.67
438.571	15027.82
438.778	14978.67
438.985	16445.02
439.192	15801.96
439.399	16578.14
439.606	15849.06
439.813	16719.45
440.02	17600.07
440.227	17460.81
440.433	17110.61
440.64	17911.36
440.847	17677.9
441.054	18134.59
441.261	19469.87
441.467	18921.01
441.674	19586.6
441.881	19910.18
442.088	20053.54
442.294	19766.82
442.501	20717.08
442.708	20893.21
442.914	21802.5
443.121	22754.81
443.328	21810.7
443.534	23588.33
443.741	22984.18
443.948	22349.31
444.154	24278.5
444.361	24157.67
444.568	24100.33
444.774	24258.02
444.981	24688.09
445.187	25329.11
445.394	26248.64
445.6	25902.54
445.807	28382.63
446.013	27483.57
446.22	27913.64
446.426	28886.43
446.633	29089.18
446.839	30131.59
447.046	28878.24
447.252	30555.52
447.459	30391.69
447.665	30049.67
447.871	31794.54
448.078	33072.48
448.284	31118.71
448.491	31989.1
448.697	33787.22
448.903	34311.5
449.11	34633.03
449.316	33680.72
449.522	33926.48
449.728	34989.38
449.935	35351.87
450.141	35413.3
450.347	35956.02
450.553	35075.39
450.76	35444.02
450.966	36797.73
451.172	35988.78
451.378	37233.95
451.584	36521.26
451.791	37020.96
451.997	36959.52
452.203	37657.88
452.409	37840.15
452.615	37496.09
452.821	35925.3
453.027	35775.8
453.233	37295.39
453.44	36470.06
453.646	36744.48
453.852	36670.76
454.058	37303.58
454.264	35988.78
454.47	36889.89
454.676	35581.24
454.882	37387.55
455.088	34303.31
455.294	34477.38
455.5	34755.91
455.705	35474.74
455.911	33801.55
456.117	32914.78
456.323	32767.33
456.529	30721.41
456.735	32214.38
456.941	31608.18
457.147	31255.93
457.352	29906.32
457.558	29529.49
457.764	29916.56
457.97	28886.43
458.176	28779.93
458.381	28550.56
458.587	27020.73
458.793	27182.52
458.999	25988.55
459.204	27712.94
459.41	26535.36
459.616	24931.8
459.821	24714.72
460.027	24933.85
460.233	24483.3
460.438	23336.43
460.644	23279.09
460.85	22418.94
461.055	21734.92
461.261	21878.28
461.466	20153.89
461.672	19303.98
461.878	20887.06
462.083	19752.49
462.289	19041.84
462.494	18896.44
462.7	17946.18
462.905	17886.79
463.111	18241.09
463.316	18353.73
463.522	17958.47
463.727	18056.77
463.932	17727.05
464.138	17632.84
464.343	18036.29
464.549	17348.17
464.754	17827.4
464.959	17835.59
465.165	17469
465.37	16709.21
465.575	16291.42
465.781	17086.03
465.986	16950.87
466.191	16488.03
466.397	16125.54
466.602	15242.86
466.807	15865.44
467.012	15900.26
467.218	15851.11
467.423	15423.08
467.628	15691.37
467.833	16352.86
468.038	15894.11
468.244	15380.07
468.449	16025.18
468.654	15416.94
468.859	15152.75
469.064	15027.82
469.269	14720.63
469.474	14501.5
469.679	15074.93
469.885	14605.94
470.09	14702.2
470.295	14503.54
470.5	14255.74
470.705	14481.02
470.91	14190.2
471.115	13616.77
471.32	14098.05
471.525	13878.91
471.73	13729.41
471.935	13651.59
472.139	13117.07
472.344	13280.91
472.549	13137.55
472.754	12990.1
472.959	12834.45
473.164	12480.15
473.369	12215.96
473.574	12668.56
473.778	12820.11
473.983	12519.06
474.188	12521.11
474.393	11816.61
474.598	12027.55
474.802	11624.1
475.007	11908.77
475.212	11890.34
475.417	11447.97
475.621	11515.56
475.826	11347.62
476.031	11144.88
476.235	10948.27
476.44	11030.19
476.645	10757.81
476.849	10776.24
477.054	10655.41
477.259	10757.81
477.463	10622.64
477.668	10573.49
477.872	10389.17
478.077	10112.7
478.282	9969.34
478.486	10006.2
478.691	10002.11
478.895	9912
479.1	9846.46
479.304	9758.4
479.509	9494.21
479.713	9770.69
479.918	9459.4
480.122	9295.56
480.326	9561.8
480.531	9569.99
480.735	9363.14
480.94	9189.07
481.144	9672.39
481.348	9082.57
481.553	9086.67
481.757	9023.18
481.961	9211.59
482.166	9256.65
482.37	9082.57
482.574	9066.19
482.778	8931.02
482.983	9203.4
483.187	9019.08
483.391	9078.47
483.595	9045.71
483.8	8922.83
484.004	9084.62
484.208	9111.24
484.412	8990.41
484.616	9080.52
484.821	8974.03
485.025	8808.14
485.229	9039.56
485.433	8683.22
485.637	8928.97
485.841	8941.26
486.045	9004.75
486.249	8957.64
486.453	8855.25
486.657	8996.56
486.861	8959.69
487.065	8820.43
487.269	9086.67
487.473	8795.86
487.677	9101
487.881	9082.57
488.085	8793.81
488.289	8820.43
488.493	9082.57
488.697	9109.19
488.901	8937.16
489.105	9119.43
489.309	8918.73
489.512	9025.23
489.716	8976.08
489.92	9029.32
490.124	9047.76
490.328	9189.07
490.531	9203.4
490.735	9336.52
490.939	9289.42
491.143	9211.59
491.346	8969.93
491.55	9199.3
491.754	9367.24
491.958	9174.73
492.161	9324.23
492.365	9303.75
492.569	9469.64
492.772	9486.02
492.976	9535.17
493.18	9547.46
493.383	9750.21
493.587	9547.46
493.79	9895.61
493.994	9776.83
494.197	9889.47
494.401	9873.09
494.605	9877.18
494.808	9985.72
495.012	9973.44
495.215	9993.92
495.419	10299.06
495.622	10094.27
495.825	10288.82
496.029	10440.37
496.232	10563.25
496.436	10436.28
496.639	10811.06
496.843	10770.1
497.046	10858.16
497.249	10849.97
497.453	11069.1
497.656	11069.1
497.859	11071.15
498.063	11234.99
498.266	11603.62
498.469	11493.03
498.673	11394.73
498.876	11826.85
499.079	12027.55
499.282	11931.3
499.485	12361.37
499.689	12263.07
499.892	12209.82
500.095	12498.58
500.298	12758.67
500.501	12572.31
500.705	12914.32
500.908	13049.49
501.111	13242
501.314	13194.89
501.517	13622.92
501.72	13639.3
501.923	13590.15
502.126	13958.78
502.329	14024.32
502.532	14003.84
502.735	14284.41
502.938	14474.87
503.141	14507.64
503.344	14845.55
503.547	14798.45
503.75	14915.19
503.953	15285.87
504.156	15439.47
504.359	15449.71
504.562	15693.41
504.765	15830.63
504.968	15953.51
505.17	16234.08
505.373	16258.65
505.576	16557.66
505.779	16729.69
505.982	16911.96
506.185	17010.26
506.387	16864.85
506.59	17079.89
506.793	17581.64
506.996	17602.12
507.198	17948.23
507.401	17669.7
507.604	18134.59
507.807	18083.39
508.009	18693.69
508.212	18646.58
508.415	18839.09
508.617	19136.05
508.82	19099.19
509.022	19191.34
509.225	19744.3
509.428	19992.1
509.63	20020.77
509.833	19717.67
510.035	20514.33
510.238	20397.6
510.44	20721.18
510.643	20866.58
510.845	21114.39
511.048	21046.8
511.25	21364.24
511.453	21321.23
511.655	22228.48
511.858	22021.64
512.06	21954.05
512.262	22165
512.465	22244.87
512.667	22642.17
512.87	22797.82
513.072	22828.54
513.274	23213.56
513.477	23358.96
513.679	23584.24
513.881	24149.48
514.084	24028.65
514.286	23827.95
514.488	24116.71
514.69	25157.08
514.893	24915.42
515.095	24751.58
515.297	25071.06
515.499	25173.46
515.701	25159.13
515.904	25781.71
516.106	25722.32
516.308	25697.74
516.51	26154.44
516.712	26281.41
516.914	26854.84
517.116	26903.99
517.318	26963.39
517.52	26969.53
517.722	27323.83
517.925	27676.08
518.127	27993.51
518.329	27784.62
518.531	27921.84
518.733	28564.9
518.935	28452.26
519.136	28677.54
519.338	28941.72
519.54	28689.82
519.742	29341.08
519.944	29529.49
520.146	30025.1
520.348	29799.82
520.55	29623.7
520.752	29932.94
520.954	30727.55
521.155	29848.97
521.357	30606.72
521.559	30905.73
521.761	31229.3
521.963	31137.15
522.164	31169.91
522.366	31415.67
522.568	31935.85
522.77	31280.5
522.971	32286.06
523.173	31849.84
523.375	32181.61
523.576	32191.85
523.778	32312.68
523.98	32589.16
524.181	32648.55
524.383	32363.88
524.584	33008.99
524.786	32845.15
524.988	32513.38
525.189	33328.47
525.391	33156.44
525.592	33361.24
525.794	33647.96
525.995	33619.28
526.197	33684.82
526.398	33443.16
526.6	34090.32
526.801	34073.93
527.003	33828.18
527.204	34073.93
527.406	34436.42
527.607	34151.76
527.808	34118.99
528.01	33955.15
528.211	34368.84
528.412	34630.98
528.614	34147.66
528.815	34573.64
529.016	34952.51
529.218	34370.89
529.419	34575.69
529.62	34366.79
529.822	34757.95
530.023	34700.61
530.224	34823.49
530.425	34354.51
530.626	34280.78
530.828	34217.29
531.029	35118.4
531.23	34561.35
531.431	34772.29
531.632	34977.09
531.833	35218.75
532.035	34962.75
532.236	34897.22
532.437	35020.09
532.638	34925.89
532.839	34993.47
533.04	35038.53
533.241	34760
533.442	35378.49
533.643	34786.63
533.844	34993.47
534.045	35013.95
534.246	34762.05
534.447	34913.6
534.648	34549.06
534.849	34714.95
535.05	34542.92
535.251	35018.05
535.451	34663.75
535.652	34841.92
535.853	34676.04
536.054	34862.4
536.255	34702.66
536.456	34477.38
536.657	35241.28
536.857	34645.32
537.058	34704.71
537.259	34649.41
537.46	34659.65
537.66	34553.16
537.861	34958.66
538.062	34434.38
538.263	34663.75
538.463	34430.28
538.664	34440.52
538.865	34846.02
539.065	34702.66
539.266	34354.51
539.466	34557.25
539.667	34444.62
539.868	35095.87
540.068	34487.62
540.269	34213.2
540.469	34739.52
540.67	34491.72
540.87	34432.33
541.071	34458.95
541.271	34463.05
541.472	34430.28
541.672	34399.56
541.873	34223.44
542.073	33822.03
542.274	34178.38
542.474	34260.3
542.675	33885.52
542.875	34317.64
543.075	34258.25
543.276	33723.73
543.476	34188.62
543.676	34053.45
543.877	34026.83
544.077	34272.59
544.277	34106.7
544.478	33959.25
544.678	34194.76
544.878	34002.25
545.078	33838.42
545.279	33883.47
545.479	33719.63
545.679	33891.66
545.879	33639.76
546.079	34069.84
546.28	33910.1
546.48	33439.06
546.68	33688.92
546.88	33826.13
547.08	33879.38
547.28	33631.57
547.48	33731.92
547.68	33910.1
547.88	33740.11
548.081	33629.52
548.281	33391.96
548.481	33459.54
548.681	33953.1
548.881	33627.48
549.081	33713.49
549.28	33682.77
549.48	33910.1
549.68	33465.69
549.88	33797.46
550.08	33494.36
550.28	33705.3
550.48	33774.93
550.68	33826.13
550.88	32959.84
551.08	33256.79
551.279	33611.09
551.479	33054.04
551.679	33520.98
551.879	33238.36
552.079	33795.41
552.278	32916.83
552.478	33658.2
552.678	33461.59
552.878	33549.65
553.077	33422.68
553.277	33201.5
553.477	33805.65
553.676	33310.04
553.876	32990.56
554.076	33359.19
554.275	33144.16
554.475	32845.15
554.674	33287.51
554.874	33017.18
555.074	32787.81
555.273	33262.94
555.473	33260.89
555.672	32974.17
555.872	33035.61
556.071	33148.25
556.271	33396.06
556.47	33178.97
556.67	32394.6
556.869	33201.5
557.068	32816.48
557.268	32552.29
557.467	32949.6
557.667	32857.44
557.866	33105.24
558.065	32656.74
558.265	32767.33
558.464	32675.17
558.663	32990.56
558.863	32521.57
559.062	32875.87
559.261	32638.31
559.461	33076.57
559.66	32488.81
559.859	32677.22
560.058	32478.57
560.258	32726.37
560.457	32433.51
560.656	32658.79
560.855	32476.52
561.054	32607.59
561.253	32339.3
561.453	32398.69
561.652	32761.19
561.851	32767.33
562.05	32296.3
562.249	32118.12
562.448	32560.48
562.647	32226.67
562.846	32230.76
563.045	32286.06
563.244	32048.49
563.443	32619.88
563.642	32015.72
563.841	31884.65
564.04	31964.53
564.239	32482.66
564.438	31976.81
564.637	32499.05
564.836	32417.13
565.035	31833.46
565.234	32443.75
565.432	31778.16
565.631	31722.87
565.83	31878.51
566.029	31624.56
566.228	31706.48
566.427	31749.49
566.625	31606.13
566.824	31495.54
567.023	31882.61
567.222	31473.01
567.42	32028.01
567.619	31622.51
567.818	31614.32
568.016	31530.36
568.215	32019.82
568.414	31288.7
568.612	31845.74
568.811	31616.37
569.01	31638.9
569.208	31165.82
569.407	31659.38
569.605	31327.61
569.804	31669.62
570.002	31450.49
570.201	31485.3
570.4	31315.32
570.598	31210.87
570.797	31282.55
570.995	31235.45
571.193	30788.99
571.392	31223.16
571.59	31204.73
571.789	31106.43
571.987	31147.39
572.186	30731.65
572.384	30930.3
572.582	31245.69
572.781	31012.22
572.979	30467.46
573.177	30854.53
573.376	31180.15
573.574	30537.09
573.772	30686.59
573.971	30494.08
574.169	30657.92
574.367	30788.99
574.565	30696.83
574.763	30385.54
574.962	30223.75
575.16	30016.91
575.358	30522.76
575.556	30356.87
575.754	30455.17
575.952	30281.1
576.151	30332.29
576.349	29801.87
576.547	30254.47
576.745	30010.76
576.943	29648.27
577.141	29934.99
577.339	29965.71
577.537	29969.8
577.735	29744.53
577.933	29640.08
578.131	30023.05
578.329	29765.01
578.527	29457.81
578.725	29590.93
578.923	29652.37
579.121	29631.89
579.319	29060.51
579.516	29470.1
579.714	29515.15
579.912	29609.36
580.11	29183.38
580.308	29474.2
580.506	29244.82
580.704	28798.37
580.901	29351.32
581.099	29128.09
581.297	28816.8
581.495	28827.04
581.692	29019.55
581.89	28810.65
582.088	29107.61
582.285	28704.16
582.483	28868
582.681	28564.9
582.878	28743.07
583.076	28392.87
583.274	28839.33
583.471	28489.12
583.669	28892.57
583.866	28286.37
584.064	28763.55
584.262	27944.36
584.459	28558.75
584.657	28026.28
584.854	28272.04
585.052	27874.73
585.249	28407.2
585.447	28112.3
585.644	27909.55
585.841	27882.92
586.039	28087.72
586.236	27456.95
586.434	27596.21
586.631	27788.72
586.828	27776.43
587.026	27647.41
587.223	27356.6
587.42	27575.73
587.618	27618.74
587.815	27229.62
588.012	27125.18
588.21	27119.03
588.407	27659.7
588.604	27405.75
588.801	27274.68
588.999	27129.27
589.196	27184.57
589.393	27217.33
589.59	26930.62
589.787	26912.19
589.984	26934.71
590.182	26826.17
590.379	26947
590.576	26860.99
590.773	26895.8
590.97	26758.59
591.167	26789.31
591.364	26543.55
591.561	26736.06
591.758	26359.24
591.955	26324.42
592.152	26617.28
592.349	26246.6
592.546	26439.11
592.743	26281.41
592.94	25865.67
593.137	26211.78
593.334	26234.31
593.531	25501.14
593.727	26314.18
593.924	25796.04
594.121	25923.02
594.318	25884.11
594.515	25458.13
594.712	26009.03
594.908	25642.45
595.105	26031.56
595.302	25617.87
595.499	25591.25
595.696	25556.43
595.892	25527.76
596.089	25540.05
596.286	25462.22
596.482	25419.22
596.679	25136.6
596.876	25517.52
597.072	25042.39
597.269	25273.81
597.466	25120.21
597.662	24858.07
597.859	24993.24
598.055	25019.86
598.252	24880.6
598.448	25107.93
598.645	24903.13
598.841	24618.46
599.038	24950.23
599.234	24847.83
599.431	24823.26
599.627	24462.82
599.824	24767.96
600.02	24618.46
600.217	24810.97
600.413	24438.24
600.609	24380.9
600.806	24284.64
601.002	24604.13
601.198	23993.83
601.395	24409.57
601.591	24190.44
601.787	24186.34
601.984	24090.09
602.18	24499.68
602.376	23885.29
602.572	24100.33
602.769	24014.31
602.965	24061.41
603.161	24135.14
603.357	23895.53
603.553	24096.23
603.75	23993.83
603.946	23664.11
604.142	23889.38
604.338	23756.27
604.534	23844.33
604.73	23582.19
604.926	23680.49
605.122	23850.47
605.318	23664.11
605.514	23541.23
605.71	23346.67
605.906	23080.44
606.102	23256.56
606.298	23518.7
606.494	23309.81
606.69	23338.48
606.886	23270.9
607.082	23252.47
607.278	23422.45
607.474	23143.92
607.67	23031.29
607.866	22873.59
608.062	23293.43
608.257	23215.6
608.453	23367.15
608.649	23348.72
608.845	23014.9
609.041	22803.96
609.236	23260.66
609.432	22797.82
609.628	23059.96
609.824	23125.49
610.019	22728.19
610.215	22877.69
610.411	23199.22
610.606	22863.35
610.802	22859.26
610.998	23021.05
611.193	22705.66
611.389	22900.22
611.584	22760.95
611.78	22550.01
611.976	22785.53
612.171	22877.69
612.367	22717.95
612.562	22629.88
612.758	22572.54
612.953	22187.52
613.149	22775.29
613.344	22543.87
613.539	22801.91
613.735	22633.98
613.93	22537.73
614.126	22631.93
614.321	22822.39
614.517	22664.7
614.712	22521.34
614.907	22416.9
615.103	22527.49
615.298	22187.52
615.493	22689.28
615.688	22248.96
615.884	22943.22
616.079	22238.72
616.274	22564.35
616.47	22236.67
616.665	22287.87
616.86	22115.84
617.055	22216.19
617.25	22183.43
617.445	22128.13
617.641	22150.66
617.836	22142.47
618.031	21659.15
618.226	22461.95
618.421	21812.74
618.616	21958.15
618.811	21655.05
619.006	22156.8
619.201	21597.71
619.396	21825.03
619.591	21468.69
619.786	21622.28
619.981	21224.98
620.176	21620.24
620.371	21409.29
620.566	21317.14
620.761	21184.02
620.956	21298.7
621.151	21132.82
621.346	21085.72
621.541	20794.9
621.735	20827.67
621.93	20647.45
622.125	20586.01
622.32	20237.86
622.515	20551.2
622.709	20350.49
622.904	20510.24
623.099	20112.93
623.294	20297.25
623.488	19975.72
623.683	19981.86
623.878	19539.5
624.072	19945
624.267	19650.09
624.462	19572.27
624.656	19248.69
624.851	19525.16
625.046	19449.39
625.24	19260.98
625.435	19134
625.629	18918.96
625.824	18845.24
626.018	19203.63
626.213	18708.02
626.407	19052.08
626.602	18642.49
626.796	18626.11
626.991	18701.88
627.185	18280
627.38	18353.73
627.574	18218.56
627.768	18050.63
627.963	18251.33
628.157	17978.95
628.352	17835.59
628.546	17387.08
628.74	17970.76
628.935	17534.54
629.129	17473.1
629.323	17428.04
629.517	17469
629.712	17258.06
629.906	17299.02
630.1	17188.43
630.294	16957.01
630.489	16993.87
630.683	16940.63
630.877	16907.86
631.071	16655.96
631.265	16598.62
631.459	16664.15
631.653	16305.76
631.848	16600.66
632.042	16469.59
632.236	16352.86
632.43	16500.31
632.624	16332.38
632.818	15840.87
633.012	16049.76
633.206	15953.51
633.4	15838.82
633.594	15619.69
633.788	15920.74
633.982	15799.91
634.176	15607.4
634.369	15531.62
634.563	15400.55
634.757	15222.38
634.951	15394.41
635.145	15249
635.339	15134.32
635.533	14990.96
635.726	14900.85
635.92	14802.55
636.114	14909.04
636.308	14976.62
636.501	14638.71
636.695	14677.62
636.889	14331.51
637.083	14444.15
637.276	14290.56
637.47	14120.57
637.664	14227.07
637.857	14290.56
638.051	14161.53
638.244	13973.12
638.438	13717.12
638.632	13930.11
638.825	13702.79
639.019	13796.99
639.212	13504.14
639.406	13538.95
639.599	13461.13
639.793	13420.17
639.986	13373.07
640.18	13321.87
640.373	13192.84
640.567	12807.83
640.76	12951.18
640.954	12662.42
641.147	12838.55
641.34	12830.35
641.534	12840.59
641.727	12693.14
641.92	12717.72
642.114	12478.1
642.307	12428.95
642.5	12562.07
642.694	12068.51
642.887	12240.54
643.08	12263.07
643.273	12222.11
643.467	12027.55
643.66	11945.63
643.853	11679.4
644.046	11787.94
644.239	11728.55
644.432	11701.92
644.626	11421.35
644.819	11527.85
645.012	11546.28
645.205	11359.91
645.398	11411.11
645.591	11048.62
645.784	11277.99
645.977	11085.48
646.17	11026.09
646.363	11183.79
646.556	10917.55
646.749	10972.85
646.942	11044.52
647.135	10919.6
647.328	10811.06
647.521	10729.14
647.714	10423.99
647.907	10559.16
648.099	10550.96
648.292	10331.83
648.485	10409.65
648.678	10358.46
648.871	10114.75
649.064	10127.03
649.256	10145.47
649.449	9885.37
649.642	9809.6
649.835	10110.65
650.027	9803.46
650.22	9770.69
650.413	9709.25
650.605	9774.78
650.798	9799.36
650.991	9557.7
651.183	9533.12
651.376	9397.96
651.568	9494.21
651.761	9287.37
651.954	9440.97
652.146	9342.66
652.339	9250.5
652.531	9260.74
652.724	9090.76
652.916	8822.48
653.109	8965.84
653.301	8904.4
653.494	8939.21
653.686	8834.77
653.879	8976.08
654.071	8779.47
654.263	8546
654.456	8709.84
654.648	8754.9
654.84	8691.41
655.033	8484.56
655.225	8445.65
655.417	8173.27
655.61	8431.32
655.802	8611.54
655.994	8146.65
656.186	8203.99
656.379	8294.1
656.571	7988.96
656.763	8044.25
656.955	8107.74
657.148	8152.79
657.34	8058.59
657.532	7837.41
657.724	7956.19
657.916	7915.23
658.108	7950.04
658.3	7812.83
658.492	7632.61
658.684	7739.1
658.876	7624.42
659.068	7538.4
659.26	7567.07
659.452	7462.63
659.644	7399.14
659.836	7429.86
660.028	7454.44
660.22	7198.44
660.412	7384.8
660.604	7175.91
660.796	7112.42
660.988	7182.06
661.18	7173.86
661.372	6991.59
661.563	6964.97
661.755	6911.72
661.947	6975.21
662.139	6756.08
662.331	6774.51
662.522	6659.82
662.714	6819.57
662.906	6803.18
663.097	6684.4
663.289	6575.86
663.481	6586.1
663.673	6598.38
663.864	6358.77
664.056	6495.99
664.247	6344.44
664.439	6239.99
664.631	6287.09
664.822	6412.02
665.014	6401.78
665.205	6342.39
665.397	6151.93
665.588	6227.7
665.78	6328.05
665.971	6295.29
666.163	6235.89
666.354	6178.55
666.546	6037.24
666.737	5957.37
666.929	5983.99
667.12	5998.33
667.311	5943.03
667.503	5809.92
667.694	5938.94
667.885	5881.6
668.077	6008.57
668.268	5648.13
668.459	5816.06
668.651	5906.17
668.842	5768.96
669.033	5650.18
669.224	5766.91
669.416	5742.33
669.607	5676.8
669.798	5558.02
669.989	5668.61
670.18	5527.3
670.371	5527.3
670.563	5439.23
670.754	5416.71
670.945	5420.8
671.136	5555.97
671.327	5408.51
671.518	5437.19
671.709	5367.56
671.9	5426.95
672.091	5338.88
672.282	5420.8
672.473	5441.28
672.664	5359.36
672.855	5261.06
673.046	5273.35
673.237	5318.4
673.428	5291.78
673.619	5166.85
673.809	5183.24
674	5224.2
674.191	5189.38
674.382	5123.85
674.573	5199.62
674.764	4939.53
674.954	5205.77
675.145	4849.42
675.336	4974.35
675.527	5074.7
675.717	5070.6
675.908	5039.88
676.099	5000.97
676.289	4861.71
676.48	5013.26
676.671	4876.04
676.861	4966.15
677.052	4966.15
677.243	4902.67
677.433	4810.51
677.624	4884.23
677.814	4839.18
678.005	4904.71
678.195	5003.02
678.386	4964.11
678.576	4808.46
678.767	4802.32
678.957	4814.6
679.148	4808.46
679.338	4849.42
679.529	4894.47
679.719	4669.2
679.909	4769.55
680.1	4894.47
680.29	4755.21
680.481	4689.68
680.671	4740.88
680.861	4706.06
681.052	4796.17
681.242	4730.64
681.432	4810.51
681.622	4656.91
681.813	4806.41
682.003	4736.78
682.193	4634.38
682.383	4755.21
682.573	4667.15
682.764	4548.37
682.954	4689.68
683.144	4749.07
683.334	4843.28
683.524	4560.66
683.714	4669.2
683.904	4638.48
684.094	4611.85
684.284	4640.53
684.474	4658.96
684.664	4550.42
684.854	4628.24
685.044	4482.83
685.234	4488.98
685.424	4468.5
685.614	4507.41
685.804	4548.37
685.994	4542.22
686.184	4564.75
686.374	4513.55
686.564	4560.66
686.753	4507.41
686.943	4319
687.133	4435.73
687.323	4357.91
687.513	4329.24
687.702	4370.19
687.892	4493.07
688.082	4482.83
688.272	4488.98
688.461	4384.53
688.651	4464.4
688.841	4216.6
689.03	4294.42
689.22	4230.93
689.41	4390.67
689.599	4339.48
689.789	4204.31
689.979	4345.62
690.168	4364.05
690.358	4323.09
690.547	4130.58
690.737	4179.73
690.926	4343.57
691.116	4212.5
691.305	4331.28
691.495	4151.06
691.684	4118.29
691.874	4116.25
692.063	4060.95
692.252	4237.08
692.442	4146.97
692.631	4112.15
692.82	4138.77
693.01	4177.69
693.199	4081.43
693.388	4028.18
693.578	4261.65
693.767	4216.6
693.956	4044.57
694.146	4181.78
694.335	4187.93
694.524	4257.56
694.713	4169.49
694.902	4042.52
695.092	4038.42
695.281	4173.59
695.47	4130.58
695.659	4130.58
695.848	4245.27
696.037	4128.53
696.226	4218.64
696.415	4044.57
696.604	4267.8
696.793	4255.51
696.982	4048.66
697.171	4216.6
697.36	4319
697.549	4063
697.738	4189.97
697.927	4091.67
698.116	4165.4
698.305	4122.39
698.494	4187.93
698.683	4179.73
698.872	4237.08
699.061	4177.69
699.25	4110.1
699.438	4085.53
699.627	4302.61
699.816	4286.23
700.005	4286.23
700.193	4245.27
700.382	4259.6
700.571	4323.09
700.76	4222.74
700.948	4280.08
701.137	4253.46
701.326	4394.77
701.514	4321.04
701.703	4306.71
701.892	4331.28
702.08	4511.5
702.269	4216.6
702.457	4222.74
702.646	4278.04
702.834	4132.63
703.023	4337.43
703.212	4462.35
703.4	4333.33
703.589	4366.1
703.777	4335.38
703.965	4230.93
704.154	4355.86
704.342	4259.6
704.531	4427.54
704.719	4337.43
704.907	4347.67
705.096	4189.97
705.284	4407.06
705.472	4405.01
705.661	4368.15
705.849	4298.52
706.037	4357.91
706.226	4161.3
706.414	4312.85
706.602	4396.82
706.79	4288.28
706.979	4353.81
707.167	4402.96
707.355	4259.6
707.543	4329.24
707.731	4499.22
707.919	4472.59
708.107	4431.63
708.296	4329.24
708.484	4210.45
708.672	4452.11
708.86	4443.92
709.048	4411.15
709.236	4321.04
709.424	4351.76
709.612	4534.03
709.8	4464.4
709.988	4359.95
710.176	4351.76
710.364	4415.25
710.551	4376.34
710.739	4411.15
710.927	4304.66
711.115	4284.18
711.303	4378.39
711.491	4364.05
711.679	4269.84
711.866	4364.05
712.054	4484.88
712.242	4265.75
712.43	4398.87
712.617	4175.64
712.805	4419.35
712.993	4384.53
713.181	4362
713.368	4398.87
713.556	4316.95
713.744	4173.59
713.931	4497.17
714.119	4306.71
714.306	4310.8
714.494	4513.55
714.682	4142.87
714.869	4370.19
715.057	4347.67
715.244	4222.74
715.432	4433.68
715.619	4296.47
715.807	4329.24
715.994	4400.91
716.182	4374.29
716.369	4376.34
716.556	4331.28
716.744	4400.91
716.931	4497.17
717.119	4286.23
717.306	4493.07
717.493	4370.19
717.681	4206.36
717.868	4286.23
718.055	4507.41
718.242	4304.66
718.43	4454.16
718.617	4370.19
718.804	4183.83
718.991	4306.71
719.179	4413.2
719.366	4142.87
719.553	4472.59
719.74	4202.26
719.927	4294.42
720.114	4323.09
720.301	4388.63
720.488	4435.73
720.676	4304.66
720.863	4351.76
721.05	4237.08
721.237	4169.49
721.424	4341.52
721.611	4237.08
721.798	4290.32
721.985	4218.64
722.172	4177.69
722.358	4306.71
722.545	4171.54
722.732	4265.75
722.919	4316.95
723.106	4296.47
723.293	4097.81
723.48	4251.41
723.667	4329.24
723.853	4253.46
724.04	4144.92
724.227	4333.33
724.414	4132.63
724.6	4271.89
724.787	4298.52
724.974	4370.19
725.161	4134.68
725.347	4085.53
725.534	4300.56
725.72	4194.07
725.907	4265.75
726.094	4255.51
726.28	4220.69
726.467	4108.05
726.653	4093.72
726.84	4169.49
727.027	4253.46
727.213	4087.57
727.4	4171.54
727.586	4126.49
727.773	4103.96
727.959	4017.94
728.145	4124.44
728.332	4210.45
728.518	3979.03
728.705	4177.69
728.891	4118.29
729.077	3872.54
729.264	4142.87
729.45	4101.91
729.636	4243.22
729.823	4032.28
730.009	4157.21
730.195	4015.9
730.382	4341.52
730.568	3901.21
730.754	4005.66
730.94	3985.18
731.126	4075.29
731.313	4095.77
731.499	4179.73
731.685	4110.1
731.871	3999.51
732.057	3989.27
732.243	4161.3
732.429	3997.46
732.615	4034.33
732.801	4030.23
732.987	3882.78
733.173	4091.67
733.359	4069.14
733.545	3931.93
733.731	3907.35
733.917	3878.68
734.103	3923.74
734.289	4087.57
734.475	4034.33
734.661	3981.08
734.847	3749.66
735.033	3843.87
735.219	3905.31
735.404	3868.44
735.59	3913.5
735.776	3837.72
735.962	3882.78
736.148	3837.72
736.333	3804.96
736.519	3923.74
736.705	3759.9
736.89	3890.97
737.076	3764
737.262	3772.19
737.447	3845.91
737.633	3911.45
737.819	3688.22
738.004	3761.95
738.19	3856.15
738.375	3753.76
738.561	3745.56
738.747	3686.17
738.932	3604.25
739.118	3757.85
739.303	3704.6
739.489	3673.89
739.674	3538.72
739.859	3684.13
740.045	3671.84
740.23	3594.01
740.416	3596.06
740.601	3567.39
740.786	3510.05
740.972	3530.53
741.157	3460.9
741.342	3464.99
741.528	3495.71
741.713	3579.68
741.898	3354.4
742.084	3354.4
742.269	3518.24
742.454	3372.83
742.639	3333.92
742.824	3395.36
743.01	3354.4
743.195	3399.46
743.38	3444.51
743.565	3270.44
743.75	3395.36
743.935	3364.64
744.12	3295.01
744.305	3139.37
744.49	3069.73
744.675	3139.37
744.86	3079.97
745.045	3155.75
745.23	3202.85
745.415	3168.04
745.6	3198.76
745.785	3141.41
745.97	3055.4
746.155	3092.26
746.34	3069.73
746.525	3086.12
746.71	3135.27
746.895	2944.81
747.079	3020.58
747.264	3045.16
747.449	3143.46
747.634	2944.81
747.819	2989.86
748.003	3028.78
748.188	2924.33
748.373	2938.66
748.557	2797.35
748.742	2897.71
748.927	2850.6
749.111	2862.89
749.296	2670.38
749.481	2729.77
749.665	2750.25
749.85	2617.13
750.034	2805.55
750.219	2629.42
750.404	2656.04
750.588	2713.39
750.773	2635.57
750.957	2633.52
751.141	2627.37
751.326	2740.01
751.51	2484.02
751.695	2502.45
751.879	2504.5
752.064	2594.61
752.248	2666.28
752.432	2606.89
752.617	2623.28
752.801	2486.06
752.985	2449.2
753.17	2471.73
753.354	2287.41
753.538	2375.47
753.722	2295.6
753.907	2443.06
754.091	2367.28
754.275	2477.87
754.459	2324.27
754.643	2346.8
754.828	2307.89
755.012	2166.58
755.196	2281.27
755.38	2266.93
755.564	2289.46
755.748	2182.96
755.932	2307.89
756.116	2154.29
756.3	2139.96
756.484	2195.25
756.668	2250.55
756.852	2051.89
757.036	1988.41
757.22	1965.88
757.404	1994.55
757.588	1920.82
757.772	2066.23
757.956	2068.28
758.14	2033.46
758.323	1922.87
758.507	2053.94
758.691	1914.68
758.875	2041.65
759.059	1969.98
759.242	2019.13
759.426	1953.59
759.61	1806.14
759.794	1937.21
759.977	1929.02
760.161	2006.84
760.345	1830.71
760.528	1908.54
760.712	1877.82
760.895	1799.99
761.079	1859.38
761.263	1789.75
761.446	1816.38
761.63	1713.98
761.813	1910.58
761.997	1783.61
762.18	1806.14
762.364	1765.18
762.547	1718.08
762.731	1691.45
762.914	1701.69
763.098	1668.92
763.281	1779.51
763.464	1718.08
763.648	1767.23
763.831	1711.93
764.015	1742.65
764.198	1765.18
764.381	1703.74
764.564	1687.36
764.748	1660.73
764.931	1666.88
765.114	1709.88
765.297	1650.49
765.481	1711.93
765.664	1609.53
765.847	1570.62
766.03	1630.01
766.213	1584.96
766.397	1652.54
766.58	1521.47
766.763	1664.83
766.946	1568.57
767.129	1564.48
767.312	1558.33
767.495	1472.32
767.678	1535.81
767.861	1566.53
768.044	1498.94
768.227	1455.94
768.41	1539.9
768.593	1517.37
768.776	1550.14
768.959	1488.7
769.142	1556.29
769.324	1544
769.507	1535.81
769.69	1423.17
769.873	1523.52
770.056	1427.26
770.239	1507.13
770.421	1498.94
770.604	1484.61
770.787	1470.27
770.97	1470.27
771.152	1380.16
771.335	1423.17
771.518	1451.84
771.7	1400.64
771.883	1421.12
772.066	1333.06
772.248	1361.73
772.431	1533.76
772.613	1453.89
772.796	1462.08
772.978	1439.55
773.161	1433.41
773.343	1443.65
773.526	1367.87
773.708	1271.62
773.891	1253.19
774.073	1341.25
774.256	1328.96
774.438	1406.78
774.621	1283.91
774.803	1302.34
774.985	1208.13
775.168	1326.91
775.35	1326.91
775.532	1333.06
775.715	1228.61
775.897	1263.43
776.079	1222.47
776.261	1179.46
776.444	1130.31
776.626	1195.84
776.808	1312.58
776.99	1111.88
777.173	1142.6
777.355	1148.74
777.537	1204.03
777.719	1156.93
777.901	1165.12
778.083	1079.11
778.265	1083.2
778.447	1136.45
778.629	1025.86
778.811	1087.3
778.993	1072.96
779.175	1081.16
779.357	1066.82
779.539	917.32
779.721	1072.96
779.903	1032.01
780.085	972.61
780.267	1046.34
780.449	984.9
780.631	1027.91
780.812	960.33
780.994	989
781.176	982.85
781.358	1015.62
781.54	902.98
781.721	964.42
781.903	976.71
782.085	923.46
782.267	950.09
782.448	923.46
782.63	997.19
782.812	864.07
782.993	907.08
783.175	857.93
783.357	849.74
783.538	941.89
783.72	905.03
783.901	884.55
784.083	929.61
784.264	845.64
784.446	878.41
784.627	796.49
784.809	831.3
784.99	773.96
785.172	827.21
785.353	808.78
785.535	790.35
785.716	773.96
785.897	870.22
786.079	771.91
786.26	853.83
786.441	761.67
786.623	667.47
786.804	788.3
786.985	771.91
787.167	767.82
787.348	782.15
787.529	710.47
787.71	810.82
787.891	794.44
788.073	671.56
788.254	683.85
788.435	692.04
788.616	726.86
788.797	642.89
788.978	669.52
789.159	698.19
789.34	724.81
789.522	679.75
789.703	646.99
789.884	659.28
790.065	665.42
790.246	681.8
790.427	696.14
790.607	722.76
790.788	661.32
790.969	644.94
791.15	634.7
791.331	622.41
791.512	503.63
791.693	601.93
791.874	636.75
792.054	683.85
792.235	603.98
792.416	581.45
792.597	560.97
792.778	622.41
792.958	587.6
793.139	565.07
793.32	608.08
793.5	505.68
793.681	622.41
793.862	528.21
794.042	567.12
794.223	419.66
794.404	534.35
794.584	485.2
794.765	532.3
794.945	606.03
795.126	530.25
795.306	583.5
795.487	554.83
795.667	569.16
795.848	479.05
796.028	534.35
796.209	528.21
796.389	520.01
796.57	481.1
796.75	515.92
796.93	483.15
797.111	470.86
797.291	485.2
797.471	501.58
797.652	489.29
797.832	456.53
798.012	497.49
798.192	407.38
798.373	479.05
798.553	528.21
798.733	444.24
798.913	470.86
799.093	429.9
799.274	493.39
799.454	466.77
799.634	464.72
799.814	479.05
799.994	501.58
800.174	485.2
800.354	384.85
800.534	380.75
800.714	436.05
800.894	384.85
801.074	384.85
801.254	372.56
801.434	401.23
801.614	266.07
801.794	415.57
801.974	1273.67
802.154	364.37
802.334	360.27
802.514	372.56
802.693	350.03
802.873	364.37
803.053	386.9
803.233	419.66
803.413	421.71
803.592	341.84
803.772	302.93
803.952	411.47
804.131	339.79
804.311	388.94
804.491	446.29
804.67	345.94
804.85	333.65
805.03	366.42
805.209	429.9
805.389	380.75
805.568	425.81
805.748	384.85
805.928	335.7
806.107	327.5
806.287	464.72
806.466	350.03
806.646	350.03
806.825	261.97
807.004	397.14
807.184	345.94
807.363	339.79
807.543	390.99
807.722	290.64
807.901	378.7
808.081	372.56
808.26	210.77
808.439	327.5
808.619	300.88
808.798	270.16
808.977	274.26
809.156	304.98
809.336	350.03
809.515	323.41
809.694	235.35
809.873	259.92
810.052	321.36
810.231	304.98
810.411	300.88
810.59	425.81
810.769	309.07
810.948	294.74
811.127	276.31
811.306	264.02
811.485	255.83
811.664	384.85
811.843	241.49
812.022	350.03
812.201	241.49
812.38	214.87
812.559	251.73
812.737	286.54
812.916	231.25
813.095	257.87
813.274	325.46
813.453	208.72
813.632	282.45
813.811	298.83
813.989	186.19
814.168	208.72
814.347	233.3
814.526	284.5
814.704	325.46
814.883	284.5
815.062	249.68
815.24	321.36
815.419	137.04
815.598	186.19
815.776	243.54
815.955	208.72
816.133	204.63
816.312	231.25
816.49	190.29
816.669	276.31
816.847	145.24
817.026	298.83
817.204	98.13
817.383	178
817.561	135
817.74	253.78
817.918	286.54
818.097	180.05
818.275	237.39
818.453	180.05
818.632	227.15
818.81	276.31
818.988	145.24
819.167	216.91
819.345	198.48
819.523	190.29
819.701	233.3
819.879	202.58
820.058	227.15
820.236	233.3
820.414	180.05
820.592	151.38
820.77	194.39
820.948	175.95
821.127	173.91
821.305	206.67
821.483	186.19
821.661	261.97
821.839	257.87
822.017	147.28
822.195	212.82
822.373	190.29
822.551	190.29
822.729	231.25
822.907	186.19
823.085	206.67
823.262	231.25
823.44	196.43
823.618	126.8
823.796	102.23
823.974	212.82
824.152	245.59
824.329	114.52
824.507	186.19
824.685	151.38
824.863	180.05
825.04	157.52
825.218	161.62
825.396	223.06
825.574	167.76
825.751	194.39
825.929	210.77
826.107	173.91
826.284	126.8
826.462	264.02
826.639	98.13
826.817	128.85
826.994	104.28
827.172	98.13
827.349	249.68
827.527	120.66
827.704	128.85
827.882	239.44
828.059	198.48
828.237	186.19
828.414	194.39
828.591	83.8
828.769	180.05
828.946	159.57
829.124	192.34
829.301	188.24
829.478	104.28
829.655	169.81
829.833	178
830.01	104.28
830.187	173.91
830.364	141.14
830.542	153.43
830.719	155.47
830.896	87.89
831.073	122.71
831.25	120.66
831.427	184.15
831.604	163.67
831.782	57.17
831.959	188.24
832.136	145.24
832.313	143.19
832.49	89.94
832.667	169.81
832.844	75.6
833.021	184.15
833.198	143.19
833.374	161.62
833.551	149.33
833.728	30.55
833.905	155.47
834.082	126.8
834.259	157.52
834.436	126.8
834.612	67.41
834.789	155.47
834.966	118.61
835.143	91.99
835.319	38.74
835.496	184.15
835.673	96.08
835.85	118.61
836.026	85.84
836.203	192.34
836.38	124.76
836.556	102.23
836.733	51.03
836.909	135
837.086	116.56
837.262	24.4
837.439	112.47
837.616	69.46
837.792	151.38
837.968	130.9
838.145	-4.27
838.321	116.56
838.498	81.75
838.674	112.47
838.851	79.7
839.027	57.17
839.203	171.86
839.38	130.9
839.556	100.18
839.732	55.12
839.909	51.03
840.085	81.75
840.261	26.45
840.437	91.99
840.614	128.85
840.79	132.95
840.966	145.24
841.142	128.85
841.318	108.37
841.494	165.71
841.671	161.62
841.847	38.74
842.023	32.6
842.199	157.52
842.375	157.52
842.551	44.88
842.727	44.88
842.903	198.48
843.079	1.88
843.255	167.76
843.431	63.32
843.607	118.61
843.783	-39.08
843.959	77.65
844.134	85.84
844.31	169.81
844.486	112.47
844.662	87.89
844.838	116.56
845.013	40.79
845.189	112.47
845.365	135
845.541	75.6
845.716	18.26
845.892	110.42
846.068	20.31
846.244	53.08
846.419	159.57
846.595	55.12
846.77	65.36
846.946	159.57
847.122	69.46
847.297	48.98
847.473	98.13
847.648	10.07
847.824	12.12
847.999	-100.52
848.175	112.47
848.35	94.04
848.526	135
848.701	116.56
848.876	182.1
849.052	100.18
849.227	24.4
849.403	51.03
849.578	61.27
849.753	71.51
849.929	108.37
850.104	48.98
850.279	61.27
850.454	110.42
850.63	120.66
850.805	147.28
850.98	61.27
851.155	69.46
851.33	-8.36
851.505	-47.27
851.681	135
851.856	10.07
852.031	48.98
852.206	1.88
852.381	12.12
852.556	67.41
852.731	85.84
852.906	159.57
853.081	42.84
853.256	85.84
853.431	22.36
853.606	42.84
853.781	83.8
853.956	-106.67
854.131	81.75
854.305	69.46
854.48	-0.17
854.655	3.93
854.83	10.07
855.005	55.12
855.18	96.08
855.354	40.79
855.529	-12.46
855.704	145.24
855.879	40.79
856.053	26.45
856.228	126.8
856.403	61.27
856.577	81.75
856.752	-30.89
856.926	135
857.101	48.98
857.276	-30.89
857.45	30.55
857.625	91.99
857.799	24.4
857.974	-12.46
858.148	18.26
858.323	63.32
858.497	14.17
858.672	-6.31
858.846	16.21
859.02	-2.22
859.195	14.17
859.369	18.26
859.543	73.56
859.718	38.74
859.892	83.8
860.066	46.93
860.241	71.51
860.415	36.69
860.589	42.84
860.763	30.55
860.938	14.17
861.112	91.99
861.286	10.07
861.46	46.93
861.634	32.6
861.808	102.23
861.982	100.18
862.157	48.98
862.331	12.12
862.505	-4.27
862.679	3.93
862.853	75.6
863.027	-6.31
863.201	104.28
863.375	3.93
863.549	91.99
863.722	38.74
863.896	75.6
864.07	51.03
864.244	8.02
864.418	89.94
864.592	59.22
864.766	-24.75
864.939	8.02
865.113	16.21
865.287	106.32
865.461	-63.66
865.634	12.12
865.808	28.5
865.982	79.7
866.156	16.21
866.329	-34.99
866.503	71.51
866.676	112.47
866.85	1.88
867.024	-6.31
867.197	53.08
867.371	116.56
867.544	79.7
867.718	20.31
867.891	38.74
868.065	-73.9
868.238	38.74
868.412	100.18
868.585	32.6
868.759	28.5
868.932	16.21
869.105	14.17
869.279	32.6
869.452	22.36
869.625	130.9
869.799	53.08
869.972	61.27
870.145	24.4
870.319	55.12
870.492	24.4
870.665	-4.27
870.838	53.08
871.011	-24.75
871.185	55.12
871.358	1.88
871.531	94.04
871.704	-49.32
871.877	38.74
872.05	-4.27
872.223	-16.55
872.396	132.95
872.569	79.7
872.742	3.93
872.915	75.6
873.088	63.32
873.261	-53.42
873.434	96.08
873.607	-32.94
873.78	116.56
873.953	18.26
874.126	61.27
874.299	28.5
874.471	-20.65
874.644	12.12
874.817	65.36
874.99	94.04
875.163	-6.31
875.335	40.79
875.508	46.93
875.681	94.04
875.853	10.07
876.026	-51.37
876.199	63.32
876.371	12.12
876.544	18.26
876.717	83.8
876.889	-37.03
877.062	53.08
877.234	-47.27
877.407	5.97
877.579	-12.46
877.752	-16.55
877.924	30.55
878.097	24.4
878.269	-18.6
878.442	-2.22
878.614	61.27
878.786	51.03
878.959	26.45
879.131	24.4
879.303	-24.75
879.476	22.36
879.648	-18.6
879.82	16.21
879.993	-18.6
880.165	40.79
880.337	-43.18
880.509	8.02
880.681	-28.84
880.854	-39.08
881.026	108.37
881.198	102.23
881.37	-2.22
881.542	-2.22
881.714	28.5
881.886	57.17
882.058	51.03
882.23	65.36
882.402	-24.75
882.574	-0.17
882.746	96.08
882.918	53.08
883.09	63.32
883.262	-14.51
883.434	-14.51
883.606	48.98
883.778	38.74
883.95	-28.84
884.122	44.88
884.293	59.22
884.465	-34.99
884.637	24.4
884.809	-26.79
884.98	38.74
885.152	102.23
885.324	18.26
885.496	-10.41
885.667	-14.51
885.839	-34.99
886.011	112.47
886.182	-4.27
886.354	104.28
886.525	55.12
886.697	38.74
886.869	26.45
887.04	67.41
887.212	12.12
887.383	104.28
887.555	1.88
887.726	-61.61
887.897	-24.75
888.069	-28.84
888.24	44.88
888.412	46.93
888.583	20.31
888.754	46.93
888.926	38.74
889.097	-8.36
889.268	-55.47
889.44	-22.7
889.611	-41.13
889.782	-39.08
889.953	12.12
890.125	24.4
890.296	-12.46
890.467	16.21
890.638	-16.55
890.809	12.12
890.98	-77.99
891.151	30.55
891.323	87.89
891.494	-28.84
891.665	-39.08
891.836	20.31
892.007	79.7
892.178	-4.27
892.349	8.02
892.52	16.21
892.691	-20.65
892.862	-53.42
893.032	-106.67
893.203	28.5
893.374	30.55
893.545	14.17
893.716	22.36
893.887	69.46
894.057	32.6
894.228	-10.41
894.399	-4.27
894.57	53.08
894.74	-41.13
894.911	16.21
895.082	55.12
895.253	-69.8
895.423	16.21
895.594	34.64
895.764	59.22
895.935	-67.75
896.106	5.97
896.276	67.41
896.447	-16.55
896.617	-37.03
896.788	5.97
896.958	-49.32
897.129	-51.37
897.299	-16.55
897.47	40.79
897.64	67.41
897.81	89.94
897.981	3.93
898.151	-26.79
898.322	61.27
898.492	-2.22
898.662	-34.99
898.832	-28.84
899.003	18.26
899.173	116.56
899.343	-4.27
899.513	32.6
