Data from USB4F104151__20__12-11-41-160.txt Node

Date: Fri Mar 14 12:11:41 EDT 2025
User: louis
Spectrometer: USB4F10415
Trigger mode: 4
Integration Time (sec): 5.000000E-2
Scans to average: 1
Electric dark correction enabled: true
Nonlinearity correction enabled: false
Boxcar width: 0
XAxis mode: Wavelengths
Number of Pixels in Spectrum: 3648
>>>>>Begin Spectral Data<<<<<
178.204	-206.67
178.424	-206.67
178.644	-206.67
178.864	-196.43
179.084	-171.86
179.304	51.37
179.524	-61.27
179.744	-20.31
179.964	24.75
180.184	-46.93
180.404	45.23
180.624	45.23
180.844	14.51
181.064	-5.97
181.283	-26.45
181.503	-61.27
181.723	41.13
181.943	-87.89
182.163	90.28
182.383	-10.07
182.602	14.51
182.822	102.57
183.042	82.09
183.262	41.13
183.482	-14.17
183.701	0.17
183.921	20.65
184.141	0.17
184.361	92.33
184.58	39.08
184.8	6.31
185.02	-53.08
185.239	106.67
185.459	4.27
185.679	55.47
185.898	51.37
186.118	57.51
186.338	34.99
186.557	24.75
186.777	20.65
186.997	6.31
187.216	43.18
187.436	84.14
187.655	98.47
187.875	47.27
188.095	22.7
188.314	73.9
188.534	22.7
188.753	18.6
188.973	53.42
189.192	67.75
189.412	90.28
189.631	47.27
189.851	37.03
190.07	55.47
190.29	-5.97
190.509	69.8
190.729	65.71
190.948	77.99
191.168	155.82
191.387	24.75
191.607	-14.17
191.826	37.03
192.045	-18.26
192.265	8.36
192.484	45.23
192.704	10.41
192.923	51.37
193.142	139.43
193.362	127.14
193.581	39.08
193.8	57.51
194.02	51.37
194.239	-3.93
194.458	53.42
194.678	-16.21
194.897	-3.93
195.116	39.08
195.335	47.27
195.555	26.79
195.774	53.42
195.993	73.9
196.212	2.22
196.432	41.13
196.651	-48.98
196.87	-55.12
197.089	96.43
197.308	26.79
197.528	6.31
197.747	37.03
197.966	37.03
198.185	77.99
198.404	16.55
198.623	-1.88
198.842	53.42
199.062	41.13
199.281	161.96
199.5	12.46
199.719	57.51
199.938	57.51
200.157	69.8
200.376	61.61
200.595	34.99
200.814	16.55
201.033	22.7
201.252	116.9
201.471	24.75
201.69	61.61
201.909	114.86
202.128	65.71
202.347	28.84
202.566	43.18
202.785	-26.45
203.004	-40.79
203.223	92.33
203.442	86.19
203.661	2.22
203.879	73.9
204.098	53.42
204.317	-44.88
204.536	102.57
204.755	-18.26
204.974	75.95
205.193	71.85
205.411	157.86
205.63	84.14
205.849	63.66
206.068	-5.97
206.287	-18.26
206.505	147.62
206.724	10.41
206.943	51.37
207.162	10.41
207.381	0.17
207.599	-10.07
207.818	77.99
208.037	-5.97
208.255	10.41
208.474	59.56
208.693	141.48
208.911	55.47
209.13	34.99
209.349	65.71
209.567	57.51
209.786	47.27
210.005	98.47
210.223	34.99
210.442	-34.64
210.661	69.8
210.879	43.18
211.098	51.37
211.316	32.94
211.535	100.52
211.753	63.66
211.972	108.71
212.191	55.47
212.409	77.99
212.628	49.32
212.846	-10.07
213.065	41.13
213.283	22.7
213.502	90.28
213.72	16.55
213.938	37.03
214.157	24.75
214.375	2.22
214.594	26.79
214.812	61.61
215.031	8.36
215.249	-16.21
215.467	98.47
215.686	57.51
215.904	116.9
216.122	-67.41
216.341	26.79
216.559	49.32
216.778	80.04
216.996	80.04
217.214	24.75
217.432	-5.97
217.651	-48.98
217.869	57.51
218.087	71.85
218.306	20.65
218.524	39.08
218.742	43.18
218.96	86.19
219.179	14.51
219.397	73.9
219.615	92.33
219.833	18.6
220.051	-42.84
220.27	73.9
220.488	121
220.706	55.47
220.924	-22.36
221.142	28.84
221.36	-5.97
221.578	22.7
221.796	30.89
222.015	41.13
222.233	69.8
222.451	6.31
222.669	84.14
222.887	73.9
223.105	34.99
223.323	22.7
223.541	4.27
223.759	28.84
223.977	45.23
224.195	51.37
224.413	-3.93
224.631	67.75
224.849	59.56
225.067	157.86
225.285	-55.12
225.503	34.99
225.721	45.23
225.939	41.13
226.157	59.56
226.375	153.77
226.592	-46.93
226.81	22.7
227.028	30.89
227.246	69.8
227.464	51.37
227.682	77.99
227.9	108.71
228.117	92.33
228.335	39.08
228.553	12.46
228.771	8.36
228.989	30.89
229.206	8.36
229.424	-96.08
229.642	-57.17
229.86	26.79
230.077	49.32
230.295	84.14
230.513	82.09
230.731	69.8
230.948	49.32
231.166	88.23
231.384	-22.36
231.601	39.08
231.819	145.58
232.037	-16.21
232.254	-16.21
232.472	16.55
232.689	84.14
232.907	102.57
233.125	43.18
233.342	-12.12
233.56	53.42
233.777	-75.6
233.995	80.04
234.213	86.19
234.43	-34.64
234.648	32.94
234.865	47.27
235.083	88.23
235.3	-14.17
235.518	18.6
235.735	125.1
235.953	43.18
236.17	67.75
236.388	43.18
236.605	-16.21
236.822	10.41
237.04	28.84
237.257	49.32
237.475	47.27
237.692	2.22
237.909	0.17
238.127	55.47
238.344	16.55
238.562	75.95
238.779	45.23
238.996	12.46
239.214	49.32
239.431	26.79
239.648	16.55
239.865	67.75
240.083	59.56
240.3	41.13
240.517	22.7
240.735	51.37
240.952	37.03
241.169	-16.21
241.386	69.8
241.603	39.08
241.821	-57.17
242.038	41.13
242.255	47.27
242.472	73.9
242.689	77.99
242.907	98.47
243.124	22.7
243.341	86.19
243.558	28.84
243.775	57.51
243.992	-20.31
244.209	63.66
244.426	123.05
244.643	51.37
244.86	-40.79
245.078	82.09
245.295	43.18
245.512	22.7
245.729	-3.93
245.946	84.14
246.163	69.8
246.38	41.13
246.597	-36.69
246.814	22.7
247.031	14.51
247.248	86.19
247.464	43.18
247.681	4.27
247.898	18.6
248.115	-32.6
248.332	34.99
248.549	28.84
248.766	123.05
248.983	22.7
249.2	-18.26
249.417	63.66
249.633	8.36
249.85	22.7
250.067	-22.36
250.284	104.62
250.501	4.27
250.717	57.51
250.934	6.31
251.151	30.89
251.368	-61.27
251.585	90.28
251.801	63.66
252.018	32.94
252.235	2.22
252.451	-61.27
252.668	67.75
252.885	82.09
253.102	18.6
253.318	51.37
253.535	24.75
253.752	4.27
253.968	-10.07
254.185	-46.93
254.401	63.66
254.618	41.13
254.835	18.6
255.051	90.28
255.268	57.51
255.484	77.99
255.701	37.03
255.917	2.22
256.134	24.75
256.351	-44.88
256.567	-75.6
256.784	47.27
257	-34.64
257.217	65.71
257.433	82.09
257.65	32.94
257.866	129.19
258.082	-5.97
258.299	-51.03
258.515	129.19
258.732	-24.4
258.948	65.71
259.165	12.46
259.381	16.55
259.597	20.65
259.814	2.22
260.03	37.03
260.246	65.71
260.463	57.51
260.679	55.47
260.895	55.47
261.112	73.9
261.328	0.17
261.544	47.27
261.761	182.44
261.977	94.38
262.193	2.22
262.409	55.47
262.626	65.71
262.842	121
263.058	-28.5
263.274	-28.5
263.49	65.71
263.707	47.27
263.923	45.23
264.139	-8.02
264.355	57.51
264.571	90.28
264.787	98.47
265.004	121
265.22	43.18
265.436	20.65
265.652	-3.93
265.868	-10.07
266.084	-12.12
266.3	12.46
266.516	55.47
266.732	34.99
266.948	18.6
267.164	-44.88
267.38	86.19
267.596	-16.21
267.812	143.53
268.028	80.04
268.244	55.47
268.46	80.04
268.676	55.47
268.892	86.19
269.108	84.14
269.324	6.31
269.54	-1.88
269.756	49.32
269.972	-40.79
270.188	26.79
270.403	-30.55
270.619	26.79
270.835	59.56
271.051	55.47
271.267	45.23
271.483	30.89
271.698	16.55
271.914	24.75
272.13	8.36
272.346	0.17
272.562	55.47
272.777	26.79
272.993	14.51
273.209	55.47
273.425	61.61
273.64	10.41
273.856	55.47
274.072	32.94
274.287	20.65
274.503	24.75
274.719	82.09
274.934	8.36
275.15	-67.41
275.366	-40.79
275.581	-24.4
275.797	18.6
276.012	10.41
276.228	32.94
276.444	2.22
276.659	94.38
276.875	-71.51
277.09	-3.93
277.306	-8.02
277.521	67.75
277.737	49.32
277.952	102.57
278.168	82.09
278.383	100.52
278.599	39.08
278.814	-3.93
279.03	0.17
279.245	82.09
279.461	-10.07
279.676	37.03
279.892	-14.17
280.107	-40.79
280.322	-8.02
280.538	71.85
280.753	24.75
280.969	110.76
281.184	14.51
281.399	47.27
281.615	14.51
281.83	-3.93
282.045	22.7
282.26	32.94
282.476	69.8
282.691	12.46
282.906	28.84
283.122	14.51
283.337	12.46
283.552	57.51
283.767	86.19
283.983	102.57
284.198	30.89
284.413	-26.45
284.628	28.84
284.843	82.09
285.058	10.41
285.274	59.56
285.489	0.17
285.704	-46.93
285.919	-14.17
286.134	6.31
286.349	-3.93
286.564	-36.69
286.779	69.8
286.995	49.32
287.21	-83.8
287.425	41.13
287.64	18.6
287.855	32.94
288.07	-30.55
288.285	104.62
288.5	49.32
288.715	129.19
288.93	110.76
289.145	-5.97
289.36	43.18
289.575	67.75
289.79	145.58
290.004	14.51
290.219	69.8
290.434	10.41
290.649	-20.31
290.864	-30.55
291.079	-40.79
291.294	-3.93
291.509	32.94
291.724	8.36
291.938	-63.32
292.153	16.55
292.368	43.18
292.583	57.51
292.798	65.71
293.012	98.47
293.227	10.41
293.442	8.36
293.657	116.9
293.871	53.42
294.086	28.84
294.301	137.38
294.516	61.61
294.73	-10.07
294.945	37.03
295.16	71.85
295.374	69.8
295.589	71.85
295.804	-10.07
296.018	32.94
296.233	71.85
296.447	69.8
296.662	-16.21
296.877	69.8
297.091	32.94
297.306	47.27
297.52	28.84
297.735	14.51
297.949	43.18
298.164	49.32
298.378	-20.31
298.593	-61.27
298.807	-48.98
299.022	16.55
299.236	53.42
299.451	-18.26
299.665	10.41
299.88	49.32
300.094	-12.12
300.309	-28.5
300.523	-3.93
300.737	-5.97
300.952	2.22
301.166	30.89
301.381	16.55
301.595	53.42
301.809	67.75
302.024	16.55
302.238	-1.88
302.452	69.8
302.667	-3.93
302.881	139.43
303.095	118.95
303.309	67.75
303.524	10.41
303.738	-1.88
303.952	51.37
304.166	98.47
304.381	-91.99
304.595	141.48
304.809	34.99
305.023	77.99
305.237	-79.7
305.452	34.99
305.666	63.66
305.88	57.51
306.094	8.36
306.308	61.61
306.522	55.47
306.736	34.99
306.95	65.71
307.164	24.75
307.379	-40.79
307.593	151.72
307.807	45.23
308.021	90.28
308.235	94.38
308.449	-14.17
308.663	12.46
308.877	86.19
309.091	63.66
309.305	49.32
309.519	-57.17
309.733	63.66
309.947	0.17
310.161	18.6
310.374	39.08
310.588	8.36
310.802	-18.26
311.016	-34.64
311.23	12.46
311.444	26.79
311.658	32.94
311.872	8.36
312.085	96.43
312.299	8.36
312.513	92.33
312.727	-5.97
312.941	2.22
313.154	28.84
313.368	84.14
313.582	73.9
313.796	90.28
314.009	77.99
314.223	67.75
314.437	12.46
314.651	37.03
314.864	-24.4
315.078	18.6
315.292	-48.98
315.505	-10.07
315.719	77.99
315.933	47.27
316.146	14.51
316.36	-20.31
316.573	-24.4
316.787	86.19
317.001	-5.97
317.214	-73.56
317.428	14.51
317.641	2.22
317.855	-38.74
318.068	55.47
318.282	45.23
318.495	127.14
318.709	90.28
318.922	53.42
319.136	110.76
319.349	75.95
319.563	-16.21
319.776	49.32
319.99	-40.79
320.203	-16.21
320.417	57.51
320.63	30.89
320.843	69.8
321.057	0.17
321.27	18.6
321.483	51.37
321.697	121
321.91	100.52
322.124	47.27
322.337	98.47
322.55	10.41
322.763	14.51
322.977	45.23
323.19	16.55
323.403	12.46
323.617	57.51
323.83	112.81
324.043	24.75
324.256	34.99
324.469	-20.31
324.683	112.81
324.896	0.17
325.109	39.08
325.322	-24.4
325.535	55.47
325.748	2.22
325.962	12.46
326.175	49.32
326.388	102.57
326.601	-38.74
326.814	57.51
327.027	30.89
327.24	14.51
327.453	8.36
327.666	73.9
327.879	102.57
328.092	71.85
328.305	57.51
328.518	37.03
328.731	10.41
328.944	28.84
329.157	61.61
329.37	-12.12
329.583	168.1
329.796	61.61
330.009	6.31
330.222	37.03
330.435	104.62
330.648	102.57
330.861	24.75
331.073	41.13
331.286	155.82
331.499	-30.55
331.712	-18.26
331.925	-10.07
332.138	-1.88
332.35	110.76
332.563	59.56
332.776	96.43
332.989	47.27
333.202	-8.02
333.414	14.51
333.627	20.65
333.84	14.51
334.053	100.52
334.265	2.22
334.478	-44.88
334.691	-38.74
334.903	51.37
335.116	-5.97
335.329	20.65
335.541	34.99
335.754	63.66
335.966	-42.84
336.179	10.41
336.392	-42.84
336.604	71.85
336.817	6.31
337.029	63.66
337.242	94.38
337.454	77.99
337.667	-12.12
337.88	145.58
338.092	51.37
338.305	14.51
338.517	2.22
338.729	30.89
338.942	84.14
339.154	-12.12
339.367	32.94
339.579	106.67
339.792	-1.88
340.004	110.76
340.217	-46.93
340.429	30.89
340.641	-26.45
340.854	28.84
341.066	-81.75
341.278	39.08
341.491	69.8
341.703	69.8
341.915	39.08
342.128	63.66
342.34	108.71
342.552	55.47
342.764	77.99
342.977	55.47
343.189	37.03
343.401	43.18
343.613	-26.45
343.826	10.41
344.038	26.79
344.25	51.37
344.462	-79.7
344.674	63.66
344.886	-5.97
345.099	2.22
345.311	12.46
345.523	123.05
345.735	-3.93
345.947	100.52
346.159	37.03
346.371	24.75
346.583	28.84
346.795	28.84
347.007	-16.21
347.219	4.27
347.431	57.51
347.643	73.9
347.855	39.08
348.067	73.9
348.279	-14.17
348.491	45.23
348.703	24.75
348.915	41.13
349.127	32.94
349.339	30.89
349.551	32.94
349.763	82.09
349.975	51.37
350.187	129.19
350.399	69.8
350.61	88.23
350.822	45.23
351.034	8.36
351.246	30.89
351.458	90.28
351.669	90.28
351.881	59.56
352.093	145.58
352.305	-14.17
352.517	41.13
352.728	73.9
352.94	24.75
353.152	92.33
353.363	24.75
353.575	26.79
353.787	80.04
353.999	-18.26
354.21	53.42
354.422	-3.93
354.633	47.27
354.845	16.55
355.057	45.23
355.268	12.46
355.48	-14.17
355.692	57.51
355.903	-1.88
356.115	-28.5
356.326	37.03
356.538	207.02
356.749	-22.36
356.961	102.57
357.172	61.61
357.384	100.52
357.595	149.67
357.807	6.31
358.018	-18.26
358.23	14.51
358.441	127.14
358.653	34.99
358.864	71.85
359.075	-51.03
359.287	110.76
359.498	14.51
359.709	65.71
359.921	34.99
360.132	41.13
360.344	-14.17
360.555	-32.6
360.766	-36.69
360.977	-1.88
361.189	41.13
361.4	-8.02
361.611	110.76
361.823	41.13
362.034	20.65
362.245	41.13
362.456	100.52
362.667	34.99
362.879	-16.21
363.09	41.13
363.301	100.52
363.512	-12.12
363.723	26.79
363.935	-24.4
364.146	90.28
364.357	30.89
364.568	67.75
364.779	-44.88
364.99	100.52
365.201	16.55
365.412	55.47
365.623	-34.64
365.834	106.67
366.045	67.75
366.256	24.75
366.467	102.57
366.678	12.46
366.889	90.28
367.1	2.22
367.311	80.04
367.522	26.79
367.733	47.27
367.944	49.32
368.155	51.37
368.366	67.75
368.577	82.09
368.788	57.51
368.999	-85.84
369.209	41.13
369.42	149.67
369.631	186.54
369.842	57.51
370.053	24.75
370.264	98.47
370.474	-18.26
370.685	63.66
370.896	59.56
371.107	92.33
371.317	143.53
371.528	-96.08
371.739	108.71
371.95	34.99
372.16	82.09
372.371	2.22
372.582	37.03
372.792	2.22
373.003	32.94
373.214	45.23
373.424	8.36
373.635	-32.6
373.846	43.18
374.056	73.9
374.267	-42.84
374.477	16.55
374.688	18.6
374.898	69.8
375.109	37.03
375.319	-1.88
375.53	131.24
375.74	69.8
375.951	59.56
376.161	-12.12
376.372	75.95
376.582	32.94
376.793	51.37
377.003	34.99
377.214	39.08
377.424	14.51
377.635	145.58
377.845	-24.4
378.055	102.57
378.266	10.41
378.476	63.66
378.686	80.04
378.897	65.71
379.107	92.33
379.317	59.56
379.528	26.79
379.738	90.28
379.948	2.22
380.158	82.09
380.369	34.99
380.579	32.94
380.789	51.37
380.999	57.51
381.21	67.75
381.42	82.09
381.63	-67.41
381.84	112.81
382.05	57.51
382.261	63.66
382.471	116.9
382.681	0.17
382.891	151.72
383.101	104.62
383.311	-51.03
383.521	61.61
383.731	90.28
383.941	151.72
384.151	30.89
384.361	32.94
384.571	82.09
384.781	77.99
384.991	125.1
385.201	145.58
385.411	114.86
385.621	129.19
385.831	12.46
386.041	45.23
386.251	22.7
386.461	94.38
386.671	59.56
386.881	20.65
387.091	30.89
387.301	86.19
387.511	-8.02
387.72	8.36
387.93	77.99
388.14	32.94
388.35	49.32
388.56	86.19
388.769	110.76
388.979	41.13
389.189	-20.31
389.399	45.23
389.609	125.1
389.818	88.23
390.028	59.56
390.238	90.28
390.447	-40.79
390.657	59.56
390.867	14.51
391.076	-14.17
391.286	82.09
391.496	80.04
391.705	65.71
391.915	37.03
392.125	71.85
392.334	98.47
392.544	114.86
392.753	45.23
392.963	6.31
393.172	30.89
393.382	51.37
393.591	98.47
393.801	47.27
394.01	82.09
394.22	59.56
394.429	106.67
394.639	116.9
394.848	69.8
395.058	55.47
395.267	71.85
395.477	41.13
395.686	67.75
395.895	153.77
396.105	102.57
396.314	84.14
396.524	80.04
396.733	30.89
396.942	137.38
397.152	116.9
397.361	82.09
397.57	80.04
397.78	110.76
397.989	121
398.198	184.49
398.407	51.37
398.617	45.23
398.826	86.19
399.035	45.23
399.244	174.25
399.453	55.47
399.663	73.9
399.872	147.62
400.081	14.51
400.29	168.1
400.499	133.29
400.708	139.43
400.917	102.57
401.127	41.13
401.336	125.1
401.545	188.58
401.754	61.61
401.963	100.52
402.172	151.72
402.381	114.86
402.59	71.85
402.799	88.23
403.008	223.4
403.217	106.67
403.426	184.49
403.635	24.75
403.844	53.42
404.053	106.67
404.262	114.86
404.471	262.31
404.68	98.47
404.888	164.01
405.097	127.14
405.306	84.14
405.515	170.15
405.724	157.86
405.933	184.49
406.142	164.01
406.35	159.91
406.559	86.19
406.768	147.62
406.977	182.44
407.185	209.06
407.394	145.58
407.603	186.54
407.812	211.11
408.02	247.97
408.229	207.02
408.438	284.84
408.646	143.53
408.855	211.11
409.064	288.93
409.272	217.26
409.481	325.8
409.69	221.35
409.898	223.4
410.107	338.09
410.315	340.13
410.524	331.94
410.733	268.45
410.941	430.24
411.15	393.38
411.358	325.8
411.567	385.19
411.775	354.47
411.984	407.72
412.192	467.11
412.401	469.16
412.609	520.35
412.818	460.96
413.026	532.64
413.234	542.88
413.443	442.53
413.651	532.64
413.86	508.07
414.068	557.22
414.276	680.1
414.485	538.79
414.693	624.8
414.901	682.14
415.11	694.43
415.318	665.76
415.526	655.52
415.734	676
415.943	727.2
416.151	864.41
416.359	827.55
416.567	837.79
416.776	886.94
416.984	948.38
417.192	981.15
417.4	888.99
417.608	929.95
417.817	897.18
418.025	1038.49
418.233	1165.46
418.441	1067.16
418.649	1122.46
418.857	1257.62
419.065	1265.82
419.273	1173.66
419.481	1292.44
419.689	1317.01
419.897	1443.99
420.105	1464.47
420.313	1542.29
420.521	1554.58
420.729	1644.69
420.937	1634.45
421.145	1681.55
421.353	1742.99
421.561	1878.16
421.769	1824.91
421.977	1923.21
422.185	1968.27
422.393	2173.07
422.601	2265.22
422.809	2177.16
423.017	2304.14
423.224	2347.14
423.432	2392.2
423.64	2324.62
423.848	2676.87
424.056	2453.64
424.263	2695.3
424.471	2670.72
424.679	2779.26
424.887	2857.09
425.094	3053.69
425.302	3094.65
425.51	3272.82
425.718	3225.72
425.925	3262.58
426.133	3319.93
426.341	3668.08
426.548	3735.67
426.756	3778.67
426.964	3836.02
427.171	3979.37
427.379	4196.46
427.586	4229.23
427.794	4354.15
428.001	4515.94
428.209	4687.97
428.417	4655.2
428.624	4931.68
428.832	4978.78
429.039	4927.58
429.247	4937.82
429.454	5470.3
429.662	5754.96
429.869	5494.87
430.076	5761.11
430.284	5621.84
430.491	6053.97
430.699	6199.37
430.906	6201.42
431.114	6432.84
431.321	6686.79
431.528	6709.32
431.736	7129.15
431.943	7477.3
432.15	7213.12
432.358	7278.65
432.565	7759.92
432.772	7620.66
432.979	8069.17
433.187	8216.62
433.394	8224.81
433.601	8699.94
433.808	8843.3
434.016	8661.03
434.223	9185.31
434.43	9631.77
434.637	9459.74
434.844	9990.16
435.052	10186.77
435.259	10211.34
435.466	10412.04
435.673	10231.82
435.88	10913.8
436.087	11374.59
436.294	11429.88
436.501	11206.66
436.708	11280.38
436.915	11792.37
437.122	12324.85
437.329	12171.25
437.537	12445.68
437.743	12910.57
437.95	12939.24
438.157	13332.45
438.364	13850.58
438.571	13815.77
438.778	14051.28
438.985	15222.72
439.192	14641.1
439.399	15169.48
439.606	14669.77
439.813	15613.88
440.02	16570.29
440.227	16146.36
440.433	16125.88
440.64	16553.9
440.847	16617.39
441.054	17035.17
441.261	18046.87
441.467	17754.01
441.674	17923.99
441.881	19062.66
442.088	18749.32
442.294	18608.01
442.501	18970.51
442.708	19531.65
442.914	19974.01
443.121	21067.63
443.328	20615.02
443.534	21931.87
443.741	21401.44
443.948	21147.5
444.154	22720.34
444.361	22847.31
444.568	22640.47
444.774	22550.35
444.981	23009.1
445.187	23691.07
445.394	24616.76
445.6	24184.63
445.807	26267.42
446.013	25607.97
446.22	26175.26
446.426	27070.22
446.633	27268.87
446.839	27991.81
447.046	26978.06
447.252	28653.3
447.459	28219.13
447.665	28456.7
447.871	29454.06
448.078	31295.18
448.284	29535.98
448.491	29970.15
448.697	31076.05
448.903	31897.28
449.11	31940.29
449.316	31348.43
449.522	32341.69
449.728	32945.84
449.935	32941.75
450.141	33060.53
450.347	33738.41
450.553	32655.03
450.76	33031.86
450.966	34285.22
451.172	33965.73
451.378	34619.03
451.584	33502.89
451.791	35008.15
451.997	34590.36
452.203	35241.62
452.409	35106.45
452.615	34850.45
452.821	33597.1
453.027	33277.61
453.233	35026.58
453.44	33515.18
453.646	34076.32
453.852	34547.36
454.058	34973.33
454.264	33523.37
454.47	34711.19
454.676	33392.3
454.882	34764.44
455.088	31542.99
455.294	32085.7
455.5	32896.69
455.705	33203.89
455.911	31571.66
456.117	31176.4
456.323	30666.45
456.529	29193.97
456.735	30326.49
456.941	29224.68
457.147	29009.65
457.352	27948.8
457.558	27741.96
457.764	28002.05
457.97	26857.23
458.176	26621.72
458.381	26472.21
458.587	25265.96
458.793	25362.22
458.999	23854.91
459.204	25917.22
459.41	24784.69
459.616	23471.94
459.821	23234.38
460.027	23166.79
460.233	22814.54
460.438	21643.1
460.644	21780.32
460.85	21084.01
461.055	20324.21
461.261	20580.21
461.466	18933.64
461.672	18337.68
461.878	19666.81
462.083	18466.7
462.289	18032.54
462.494	17921.95
462.7	17080.23
462.905	16840.62
463.111	17315.75
463.316	17209.25
463.522	16967.59
463.727	17041.32
463.932	16887.72
464.138	16803.75
464.343	16822.19
464.549	16127.92
464.754	16770.99
464.959	16588.72
465.165	16508.85
465.37	15835.07
465.575	15484.86
465.781	15957.94
465.986	16177.08
466.191	15628.22
466.397	15024.07
466.602	14555.08
466.807	15019.97
467.012	15097.8
467.218	14854.09
467.423	14782.41
467.628	15013.83
467.833	15589.31
468.038	14763.98
468.244	14639.05
468.449	15079.36
468.654	14718.92
468.859	14469.07
469.064	14213.07
469.269	13860.82
469.474	13717.47
469.679	14424.01
469.885	13760.47
470.09	14178.26
470.295	13742.04
470.5	13590.49
470.705	13432.8
470.91	13285.34
471.115	13168.61
471.32	13305.82
471.525	13348.83
471.73	12664.81
471.935	12976.1
472.139	12480.49
472.344	12584.94
472.549	12562.41
472.754	12394.48
472.959	12072.95
473.164	11737.08
473.369	11718.65
473.574	12124.15
473.778	12138.48
473.983	11898.87
474.188	11839.48
474.393	11276.29
474.598	11237.38
474.802	11276.29
475.007	11077.63
475.212	11200.51
475.417	10866.69
475.621	10586.12
475.826	10676.23
476.031	10475.53
476.235	10434.57
476.44	10457.1
476.645	10387.47
476.849	10313.74
477.054	10074.13
477.259	9859.09
477.463	10084.37
477.668	9740.31
477.872	10012.69
478.077	9719.83
478.282	9578.52
478.486	9408.54
478.691	9265.18
478.895	9209.89
479.1	9316.38
479.304	9404.44
479.509	9000.99
479.713	9168.93
479.918	9039.9
480.122	8734.76
480.326	9093.15
480.531	8921.12
480.735	8923.17
480.94	8663.08
481.144	9205.79
481.348	8798.24
481.553	8779.81
481.757	8495.15
481.961	8742.95
482.166	8775.72
482.37	8757.29
482.574	8521.77
482.778	8611.88
482.983	8749.09
483.187	8538.15
483.391	8790.05
483.595	8620.07
483.8	8380.46
484.004	8587.3
484.208	8642.6
484.412	8742.95
484.616	8775.72
484.821	8667.17
485.025	8394.79
485.229	8630.31
485.433	8681.51
485.637	8595.5
485.841	8314.92
486.045	8396.84
486.249	8599.59
486.453	8462.38
486.657	8824.87
486.861	8466.47
487.065	8228.91
487.269	8489
487.473	8341.55
487.677	8724.52
487.881	8613.93
488.085	8472.62
488.289	8587.3
488.493	8572.97
488.697	8548.39
488.901	8730.66
489.105	8638.5
489.309	8585.26
489.512	8683.56
489.716	8554.54
489.92	8790.05
490.124	8626.22
490.328	8749.09
490.531	8783.91
490.735	8718.37
490.939	8695.85
491.143	8701.99
491.346	8800.29
491.55	8802.34
491.754	8855.59
491.958	8878.12
492.161	8972.32
492.365	8962.08
492.569	9089.06
492.772	9230.37
492.976	9189.41
493.18	9293.85
493.383	9048.1
493.587	9213.98
493.79	9420.83
493.994	9191.45
494.197	9326.62
494.401	9416.73
494.605	9412.64
494.808	9517.08
495.012	9685.01
495.215	9648.15
495.419	9836.56
495.622	9545.75
495.825	9953.3
496.029	9895.96
496.232	10301.45
496.436	9859.09
496.639	10440.72
496.843	10213.39
497.046	10579.98
497.249	10692.62
497.453	10745.86
497.656	10733.57
497.859	10633.22
498.063	10631.18
498.266	10891.27
498.469	10860.55
498.673	10948.61
498.876	11229.18
499.079	11536.38
499.282	11370.49
499.485	11796.47
499.689	11608.06
499.892	11913.2
500.095	11763.7
500.298	12081.14
500.501	11976.69
500.705	12382.19
500.908	12492.78
501.111	12605.42
501.314	12824.55
501.517	12783.59
501.72	12824.55
501.923	12945.38
502.126	13383.65
502.329	13492.19
502.532	13471.71
502.735	13756.38
502.938	13924.31
503.141	13940.69
503.344	14041.04
503.547	14196.69
503.75	14378.96
503.953	14680.01
504.156	14751.69
504.359	14821.32
504.562	14649.29
504.765	15038.41
504.968	15214.53
505.17	15476.67
505.373	15544.25
505.576	15910.84
505.779	16021.43
505.982	16097.21
506.185	16197.56
506.387	16162.74
506.59	16639.92
506.793	16797.61
506.996	16691.12
507.198	17188.77
507.401	17051.56
507.604	17375.14
507.807	17715.1
508.009	17909.66
508.212	18100.12
508.415	18016.15
508.617	18208.66
508.82	18368.4
509.022	18200.47
509.225	18640.78
509.428	18847.63
509.63	19175.3
509.833	19298.18
510.035	19629.95
510.238	19539.84
510.44	19900.28
510.643	20060.02
510.845	20277.11
511.048	19820.41
511.25	20195.19
511.453	20387.7
511.655	20877.16
511.858	21094.25
512.06	20961.13
512.262	21372.77
512.465	20760.43
512.667	21886.81
512.87	22054.75
513.072	21444.45
513.274	22329.17
513.477	22175.58
513.679	22720.34
513.881	22853.45
514.084	22959.95
514.286	22804.3
514.488	23252.81
514.69	23627.59
514.893	23580.48
515.095	24119.1
515.297	23914.3
515.499	24067.9
515.701	24450.87
515.904	24450.87
516.106	24983.34
516.308	24958.77
516.51	25036.59
516.712	25241.39
516.914	25583.4
517.116	25810.72
517.318	26015.52
517.52	26031.9
517.722	25937.69
517.925	26453.78
518.127	26656.53
518.329	26752.79
518.531	26427.16
518.733	27207.44
518.935	27467.53
519.136	27330.31
519.338	27705.09
519.54	27768.58
519.742	28030.72
519.944	28311.29
520.146	28460.79
520.348	28491.51
520.55	28323.58
520.752	28661.49
520.954	29302.51
521.155	28847.86
521.357	29304.56
521.559	29712.1
521.761	29708.01
521.963	29689.57
522.164	29894.37
522.366	30383.84
522.568	30037.73
522.77	30437.08
522.971	30838.48
523.173	30271.2
523.375	30953.17
523.576	30734.04
523.778	30901.97
523.98	31221.45
524.181	31334.09
524.383	31450.83
524.584	31764.17
524.786	31891.14
524.988	31393.48
525.189	31862.47
525.391	31973.06
525.592	32282.3
525.794	32468.67
525.995	32272.06
526.197	32173.76
526.398	32540.35
526.6	32736.95
526.801	32462.52
527.003	32517.82
527.204	32808.63
527.406	33003.19
527.607	32937.65
527.808	32945.84
528.01	32507.58
528.211	33142.45
528.412	33820.33
528.614	33459.88
528.815	33519.28
529.016	33533.61
529.218	33150.64
529.419	32968.37
529.62	33349.29
529.822	33345.2
530.023	33259.18
530.224	33580.71
530.425	33533.61
530.626	33189.55
530.828	33398.45
531.029	33711.78
531.23	33115.83
531.431	33449.64
531.632	33717.93
531.833	33795.75
532.035	33367.73
532.236	33437.36
532.437	33613.48
532.638	33330.86
532.839	33638.06
533.04	33965.73
533.241	33435.31
533.442	34188.96
533.643	33846.95
533.844	33719.98
534.045	33466.03
534.246	33404.59
534.447	33732.26
534.648	33681.06
534.849	33351.34
535.05	33156.78
535.251	33529.52
535.451	33492.65
535.652	33568.43
535.853	33549.99
536.054	33636.01
536.255	33584.81
536.456	33205.94
536.657	33687.21
536.857	33672.87
537.058	33584.81
537.259	33537.71
537.46	33439.4
537.66	33558.19
537.861	33367.73
538.062	33269.42
538.263	33490.6
538.463	33314.48
538.664	33265.33
538.865	33357.49
539.065	33664.68
539.266	33298.09
539.466	33384.11
539.667	33144.5
539.868	33978.02
540.068	33119.92
540.269	33038
540.469	33482.41
540.67	33134.26
540.87	32990.9
541.071	33103.54
541.271	33496.75
541.472	33091.25
541.672	33195.7
541.873	32962.23
542.073	32712.38
542.274	33613.48
542.474	33146.54
542.675	32964.28
542.875	33556.14
543.075	33218.22
543.276	32632.5
543.476	33253.04
543.676	32913.08
543.877	32931.51
544.077	32837.3
544.277	33054.39
544.478	32601.79
544.678	33234.61
544.878	32820.92
545.078	32839.35
545.279	32624.31
545.479	32693.94
545.679	32843.45
545.879	33044.15
546.079	33040.05
546.28	32648.89
546.48	32364.22
546.68	32992.95
546.88	32992.95
547.08	32804.53
547.28	32929.46
547.48	32472.76
547.68	33040.05
547.88	32673.46
548.081	32835.25
548.281	32765.62
548.481	32792.25
548.681	32599.74
548.881	32872.12
549.081	32556.73
549.28	32253.63
549.48	32485.05
549.68	32739
549.88	33066.67
550.08	32542.39
550.28	32413.37
550.48	32466.62
550.68	32908.98
550.88	32585.4
551.08	32351.93
551.279	32384.7
551.479	32437.95
551.679	32487.1
551.879	32388.8
552.079	32376.51
552.278	32351.93
552.478	32681.66
552.678	32337.6
552.878	32276.16
553.077	32341.69
553.277	31858.37
553.477	32444.09
553.676	32243.39
553.876	32196.29
554.076	31844.04
554.275	32544.44
554.475	31790.79
554.674	32282.3
554.874	31796.93
555.074	32028.35
555.273	32288.45
555.473	32259.77
555.672	31792.84
555.872	31819.46
556.071	32220.86
556.271	32231.1
556.47	32161.47
556.67	31700.68
556.869	32136.9
557.068	32171.71
557.268	31698.63
557.467	31848.13
557.667	32061.12
557.866	31960.77
558.065	31364.81
558.265	31663.82
558.464	31669.96
558.663	31764.17
558.863	31377.1
559.062	32048.83
559.261	31184.59
559.461	32057.03
559.66	31450.83
559.859	31684.3
560.058	31659.72
560.258	31676.1
560.457	31184.59
560.656	31696.58
560.855	31426.25
561.054	31893.19
561.253	31567.56
561.453	31350.48
561.652	31831.75
561.851	31837.89
562.05	31069.9
562.249	31332.04
562.448	31536.84
562.647	31590.09
562.846	31295.18
563.045	31266.51
563.244	31037.14
563.443	31291.09
563.642	31004.37
563.841	31155.92
564.04	31090.38
564.239	31585.99
564.438	31000.27
564.637	31377.1
564.836	31299.28
565.035	30983.89
565.234	31182.54
565.432	30947.03
565.631	30940.88
565.83	31266.51
566.029	30721.75
566.228	30623.45
566.427	30549.72
566.625	30668.5
566.824	30514.91
567.023	30594.78
567.222	30465.75
567.42	30908.12
567.619	30648.02
567.818	30535.38
568.016	30785.24
568.215	30832.34
568.414	30574.3
568.612	30648.02
568.811	30285.53
569.01	30785.24
569.208	29908.71
569.407	30658.26
569.605	30195.42
569.804	30449.37
570.002	30146.27
570.201	30050.02
570.4	30301.92
570.598	29816.55
570.797	30320.35
570.995	30258.91
571.193	29808.36
571.392	30138.08
571.59	29757.16
571.789	29982.43
571.987	29972.19
572.186	29929.19
572.384	29767.4
572.582	30203.61
572.781	29947.62
572.979	29509.35
573.177	29837.03
573.376	29873.89
573.574	29466.35
573.772	29710.05
573.971	29454.06
574.169	29277.93
574.367	29525.74
574.565	29454.06
574.763	29036.27
574.962	29292.27
575.16	28952.3
575.358	29335.28
575.556	28884.72
575.754	29193.97
575.952	28786.42
576.151	29329.13
576.349	28782.32
576.547	29005.55
576.745	28782.32
576.943	28935.92
577.141	28684.02
577.339	28714.74
577.537	28516.09
577.735	28704.5
577.933	28206.84
578.131	28968.69
578.329	28786.42
578.527	28002.05
578.725	28546.81
578.923	28587.77
579.121	28294.91
579.319	28057.34
579.516	28237.56
579.714	28401.4
579.912	27909.89
580.11	28094.21
580.308	27983.62
580.506	28206.84
580.704	27604.74
580.901	27922.18
581.099	27952.9
581.297	27342.6
581.495	27848.45
581.692	27940.61
581.89	27649.8
582.088	27801.35
582.285	27619.08
582.483	27596.55
582.681	27561.73
582.878	27623.17
583.076	27256.59
583.274	27541.25
583.471	27041.55
583.669	27295.5
583.866	26914.58
584.064	27072.27
584.262	26275.61
584.459	27170.57
584.657	26949.39
584.854	26973.97
585.052	26488.6
585.249	27070.22
585.447	26654.48
585.644	26537.75
585.841	26631.96
586.039	26840.85
586.236	26511.13
586.434	26464.02
586.631	26326.81
586.828	26443.54
587.026	26345.24
587.223	25931.55
587.42	25876.26
587.618	26294.04
587.815	25929.5
588.012	26052.38
588.21	25622.31
588.407	25823.01
588.604	25943.84
588.801	25489.19
588.999	25915.17
589.196	25616.16
589.393	25685.79
589.59	25485.09
589.787	25556.77
589.984	25370.41
590.182	25134.89
590.379	25370.41
590.576	24885.04
590.773	25114.41
590.97	24901.42
591.167	25290.54
591.364	24739.63
591.561	25018.16
591.758	24835.89
591.955	24510.26
592.152	24778.54
592.349	24397.62
592.546	24686.39
592.743	24565.56
592.94	24442.68
593.137	24653.62
593.334	24682.29
593.531	24139.58
593.727	24688.43
593.924	24209.21
594.121	24291.13
594.318	24192.83
594.515	23623.49
594.712	24201.02
594.908	23904.06
595.105	23940.93
595.302	23709.5
595.499	23942.97
595.696	23648.07
595.892	23748.42
596.089	23701.31
596.286	23613.25
596.482	23635.78
596.679	23682.88
596.876	23402.31
597.072	23314.25
597.269	23435.08
597.466	23119.69
597.662	23277.38
597.859	22916.94
598.055	23168.84
598.252	22851.41
598.448	23166.79
598.645	23023.44
598.841	22918.99
599.038	22933.32
599.234	22640.47
599.431	22288.21
599.627	22476.63
599.824	22814.54
600.02	22189.91
600.217	22431.57
600.413	22212.44
600.609	22089.56
600.806	22355.8
601.002	22742.86
601.198	22142.81
601.395	21960.54
601.591	21841.76
601.787	22083.42
601.984	21991.26
602.18	22058.84
602.376	21774.17
602.572	21639.01
602.769	21976.92
602.965	21542.75
603.161	21731.17
603.357	21450.6
603.553	21501.79
603.75	21593.95
603.946	21538.66
604.142	21471.08
604.338	21247.85
604.534	21288.81
604.73	21260.13
604.926	21237.61
605.122	21268.33
605.318	20948.84
605.514	21067.63
605.71	20924.27
605.906	20854.64
606.102	20559.73
606.298	20694.89
606.494	21104.49
606.69	20795.25
606.886	20717.42
607.082	20479.86
607.278	20598.64
607.474	20230.01
607.67	20754.29
607.866	20418.42
608.062	20647.79
608.257	20313.97
608.453	20471.67
608.649	20215.67
608.845	20293.49
609.041	20160.38
609.236	20236.15
609.432	19963.77
609.628	20260.73
609.824	20100.98
610.019	20215.67
610.215	20006.78
610.411	20125.56
610.606	20211.57
610.802	20180.85
610.998	19945.34
611.193	19865.47
611.389	19818.36
611.584	19730.3
611.78	19584.9
611.976	19470.21
612.171	19715.97
612.367	19625.86
612.562	19361.67
612.758	19091.34
612.953	19459.97
613.149	19744.64
613.344	19279.75
613.539	19720.06
613.735	19601.28
613.93	19302.28
614.126	19322.76
614.321	19312.52
614.517	19388.29
614.712	19298.18
614.907	19052.42
615.103	19373.96
615.298	19163.01
615.493	19367.81
615.688	18628.49
615.884	19335.04
616.079	18798.48
616.274	19154.82
616.47	18573.2
616.665	18880.39
616.86	18739.08
617.055	18536.34
617.25	18616.21
617.445	18798.48
617.641	18325.4
617.836	18980.75
618.031	18339.73
618.226	18651.02
618.421	18128.79
618.616	18325.4
618.811	18198.42
619.006	18501.52
619.201	17938.33
619.396	18345.87
619.591	17809.31
619.786	18106.26
619.981	17799.07
620.176	17887.13
620.371	17620.89
620.566	17866.65
620.761	17895.32
620.956	17637.28
621.151	17553.31
621.346	17428.38
621.541	17321.89
621.735	17412
621.93	17008.55
622.125	17016.74
622.32	16750.51
622.515	16836.52
622.709	16793.51
622.904	16893.86
623.099	16699.31
623.294	16783.27
623.488	16291.76
623.683	16574.38
623.878	16226.23
624.072	16433.07
624.267	16236.47
624.462	16295.86
624.656	15900.6
624.851	16252.85
625.046	15757.24
625.24	16011.19
625.435	15757.24
625.629	15790.01
625.824	15718.33
626.018	15439.81
626.213	15187.91
626.407	15200.19
626.602	15024.07
626.796	15284.16
626.991	15327.17
627.185	14991.3
627.38	14630.86
627.574	14792.65
627.768	14811.08
627.963	14735.31
628.157	14573.52
628.352	14780.36
628.546	14309.33
628.74	14323.66
628.935	14297.04
629.129	14245.84
629.323	14096.34
629.517	14034.9
629.712	13934.55
629.906	14061.52
630.1	13948.89
630.294	13864.92
630.489	13795.29
630.683	13789.14
630.877	13502.43
631.071	13416.41
631.265	13641.69
631.459	13336.54
631.653	13385.69
631.848	13361.12
632.042	13281.25
632.236	13146.08
632.43	13197.28
632.624	13051.88
632.818	13125.6
633.012	12865.51
633.206	12945.38
633.4	12994.53
633.594	12627.95
633.788	12617.71
633.982	12894.18
634.176	12591.08
634.369	12445.68
634.563	12629.99
634.757	12285.94
634.951	12427.25
635.145	12025.84
635.339	12253.17
635.533	11960.31
635.726	12175.34
635.92	11954.16
636.114	11872.25
636.308	11767.8
636.501	11884.53
636.695	11790.33
636.889	11706.36
637.083	11601.91
637.276	11599.87
637.47	11454.46
637.664	11563
637.857	11382.78
638.051	11313.15
638.244	11247.62
638.438	11212.8
638.632	11255.81
638.825	11026.43
639.019	11077.63
639.212	10993.67
639.406	10928.13
639.599	10661.9
639.793	10788.87
639.986	10586.12
640.18	10881.03
640.373	10536.97
640.567	10532.87
640.76	10614.79
640.954	10600.46
641.147	10237.97
641.34	10178.58
641.534	10319.89
641.727	10315.79
641.92	10233.87
642.114	10104.85
642.307	9879.57
642.5	10065.94
642.694	9887.76
642.887	9859.09
643.08	9912.34
643.273	9764.89
643.467	9955.35
643.66	9756.69
643.853	9596.95
644.046	9484.31
644.239	9633.82
644.432	9453.59
644.626	9480.22
644.819	9472.03
645.012	9375.77
645.205	9353.24
645.398	9228.32
645.591	9130.02
645.784	9093.15
645.977	9031.71
646.17	9070.62
646.363	9035.81
646.556	8804.39
646.749	8790.05
646.942	8970.27
647.135	8947.75
647.328	8615.98
647.521	8839.2
647.714	8628.26
647.907	8716.33
648.099	8542.25
648.292	8650.79
648.485	8560.68
648.678	8376.36
648.871	8402.99
649.064	8370.22
649.256	8376.36
649.449	8173.61
649.642	8278.06
649.835	8118.32
650.027	8376.36
650.22	8114.22
650.413	8091.7
650.605	8009.78
650.798	7880.75
650.991	8009.78
651.183	7897.14
651.376	7997.49
651.568	7831.6
651.761	7731.25
651.954	7757.88
652.146	7970.87
652.339	7532.6
652.531	7538.74
652.724	7483.45
652.916	7438.39
653.109	7536.7
653.301	7657.53
653.494	7393.34
653.686	7381.05
653.879	7397.43
654.071	7389.24
654.263	7381.05
654.456	7297.08
654.648	7266.36
654.84	7221.31
655.033	6989.89
655.225	6950.98
655.417	6959.17
655.61	6950.98
655.802	7141.44
655.994	6910.02
656.186	6983.74
656.379	6924.35
656.571	7041.09
656.763	6654.02
656.955	6715.46
657.148	6832.19
657.34	6772.8
657.532	6688.84
657.724	6619.21
657.916	6651.97
658.108	6615.11
658.3	6649.93
658.492	6717.51
658.684	6555.72
658.876	6525
659.068	6461.51
659.26	6215.76
659.452	6430.79
659.644	6393.93
659.836	6254.67
660.028	6395.98
660.22	6277.19
660.412	6242.38
660.604	6051.92
660.796	6027.34
660.988	6203.47
661.18	6142.03
661.372	6082.64
661.563	6176.84
661.755	6049.87
661.947	5912.66
662.139	6033.49
662.331	5965.9
662.522	5816.4
662.714	5906.51
662.906	5883.98
663.097	5806.16
663.289	5718.1
663.481	5830.74
663.673	5664.85
663.864	5570.65
664.056	5808.21
664.247	5564.5
664.439	5582.93
664.631	5464.15
664.822	5642.32
665.014	5611.61
665.205	5480.54
665.397	5593.17
665.588	5474.39
665.78	5544.02
665.971	5494.87
666.163	5378.14
666.354	5318.75
666.546	5290.07
666.737	5394.52
666.929	5273.69
667.12	5441.62
667.311	5384.28
667.503	5302.36
667.694	5294.17
667.885	5337.18
668.077	5275.74
668.268	5138.52
668.459	5171.29
668.651	5220.44
668.842	5058.65
669.033	5038.17
669.224	4929.63
669.416	4892.77
669.607	5017.69
669.798	5046.37
669.989	5232.73
670.18	4894.82
670.371	5003.36
670.563	5003.36
670.754	4835.42
670.945	4816.99
671.136	5017.69
671.327	4905.06
671.518	4872.29
671.709	4995.17
671.9	4816.99
672.091	4935.78
672.282	4929.63
672.473	4694.12
672.664	4778.08
672.855	4733.03
673.046	4679.78
673.237	4903.01
673.428	4841.57
673.619	4786.27
673.809	4604
674	4700.26
674.191	4642.92
674.382	4550.76
674.573	4798.56
674.764	4630.63
674.954	4657.25
675.145	4593.76
675.336	4593.76
675.527	4610.15
675.717	4690.02
675.908	4446.31
676.099	4706.4
676.289	4515.94
676.48	4450.41
676.671	4530.28
676.861	4642.92
677.052	4466.79
677.243	4636.77
677.433	4593.76
677.624	4677.73
677.814	4399.21
678.005	4468.84
678.195	4466.79
678.386	4419.69
678.576	4493.41
678.767	4483.17
678.957	4438.12
679.148	4558.95
679.338	4421.74
679.529	4524.13
679.719	4356.2
679.909	4565.09
680.1	4481.13
680.29	4440.17
680.481	4434.02
680.671	4474.98
680.861	4327.53
681.052	4395.11
681.242	4438.12
681.432	4477.03
681.622	4341.86
681.813	4335.72
682.003	4313.19
682.193	4388.97
682.383	4337.77
682.573	4343.91
682.764	4341.86
682.954	4550.76
683.144	4450.41
683.334	4462.69
683.524	4382.82
683.714	4305
683.904	4329.58
684.094	4307.05
684.284	4388.97
684.474	4411.5
684.664	4464.74
684.854	4360.3
685.044	4391.02
685.234	4325.48
685.424	4208.75
685.614	4169.84
685.804	4356.2
685.994	4167.79
686.184	4216.94
686.374	4305
686.564	4227.18
686.753	4212.84
686.943	4221.03
687.133	4270.19
687.323	4153.45
687.513	4210.79
687.702	4112.49
687.892	3993.71
688.082	4272.23
688.272	4147.31
688.461	3995.76
688.651	4116.59
688.841	4067.44
689.03	3979.37
689.22	3868.78
689.41	4020.33
689.599	3995.76
689.789	3838.06
689.979	4071.53
690.168	3874.93
690.358	3700.85
690.547	3784.82
690.737	3788.91
690.926	3850.35
691.116	3799.15
691.305	3938.41
691.495	3784.82
691.684	3653.75
691.874	3741.81
692.063	3752.05
692.252	3793.01
692.442	3702.9
692.631	3663.99
692.82	3698.8
693.01	3588.21
693.199	3661.94
693.388	3602.55
693.578	3510.39
693.767	3637.36
693.956	3563.64
694.146	3649.65
694.335	3629.17
694.524	3522.68
694.713	3747.95
694.902	3592.31
695.092	3625.08
695.281	3653.75
695.47	3479.67
695.659	3586.16
695.848	3541.11
696.037	3451
696.226	3481.72
696.415	3485.81
696.604	3569.78
696.793	3438.71
696.982	3555.44
697.171	3481.72
697.36	3549.3
697.549	3635.32
697.738	3403.89
697.927	3465.33
698.116	3393.65
698.305	3545.2
698.494	3510.39
698.683	3530.87
698.872	3594.36
699.061	3502.2
699.25	3506.29
699.438	3481.72
699.627	3510.39
699.816	3610.74
700.005	3504.25
700.193	3385.46
700.382	3428.47
700.571	3528.82
700.76	3573.88
700.948	3504.25
701.137	3483.77
701.326	3465.33
701.514	3512.44
701.703	3620.98
701.892	3453.05
702.08	3625.08
702.269	3629.17
702.457	3344.5
702.646	3539.06
702.834	3543.16
703.023	3657.84
703.212	3580.02
703.4	3534.96
703.589	3569.78
703.777	3651.7
703.965	3663.99
704.154	3549.3
704.342	3520.63
704.531	3575.92
704.719	3592.31
704.907	3596.4
705.096	3631.22
705.284	3528.82
705.472	3666.03
705.661	3610.74
705.849	3692.66
706.037	3659.89
706.226	3706.99
706.414	3600.5
706.602	3596.4
706.79	3727.47
706.979	3678.32
707.167	3836.02
707.355	3739.76
707.543	3584.12
707.731	3727.47
707.919	3582.07
708.107	3694.71
708.296	3678.32
708.484	3543.16
708.672	3629.17
708.86	3862.64
709.048	3684.47
709.236	3725.43
709.424	3768.43
709.612	3723.38
709.8	3647.6
709.988	3852.4
710.176	3668.08
710.364	3661.94
710.551	3735.67
710.739	3790.96
710.927	3821.68
711.115	3752.05
711.303	3817.58
711.491	3795.06
711.679	3713.14
711.866	3659.89
712.054	3747.95
712.242	3649.65
712.43	3860.59
712.617	3891.31
712.805	3856.5
712.993	3729.52
713.181	3709.04
713.368	3811.44
713.556	3788.91
713.744	3917.93
713.931	3940.46
714.119	3864.69
714.306	3868.78
714.494	3842.16
714.682	3813.49
714.869	3829.87
715.057	3678.32
715.244	3739.76
715.432	3868.78
715.619	3735.67
715.807	3858.54
715.994	3803.25
716.182	3836.02
716.369	3895.41
716.556	4036.72
716.744	3713.14
716.931	3889.26
717.119	3987.57
717.306	3766.39
717.493	3895.41
717.681	3840.11
717.868	3924.08
718.055	3930.22
718.242	3977.33
718.43	3993.71
718.617	3948.65
718.804	3864.69
718.991	3919.98
719.179	3948.65
719.366	3960.94
719.553	3934.32
719.74	3885.17
719.927	4016.24
720.114	3784.82
720.301	3952.75
720.488	3983.47
720.676	3954.8
720.863	3993.71
721.05	4008.05
721.237	3827.82
721.424	3926.13
721.611	3905.65
721.798	3919.98
721.985	4006
722.172	3846.26
722.358	3917.93
722.545	4024.43
722.732	3954.8
722.919	4001.9
723.106	3858.54
723.293	3858.54
723.48	4024.43
723.667	3930.22
723.853	3926.13
724.04	4106.35
724.227	4046.96
724.414	3944.56
724.6	3999.85
724.787	3901.55
724.974	4100.2
725.161	3979.37
725.347	3858.54
725.534	4102.25
725.72	4003.95
725.907	4073.58
726.094	4001.9
726.28	4098.16
726.467	3936.37
726.653	3950.7
726.84	3848.3
727.027	4141.16
727.213	3893.36
727.4	4071.53
727.586	3932.27
727.773	3985.52
727.959	3944.56
728.145	3977.33
728.332	3987.57
728.518	3969.13
728.705	3936.37
728.891	3965.04
729.077	3901.55
729.264	4153.45
729.45	4038.77
729.636	4053.1
729.823	3891.31
730.009	4036.72
730.195	4042.86
730.382	4012.14
730.568	4110.44
730.754	4020.33
730.94	4055.15
731.126	4001.9
731.313	4003.95
731.499	4020.33
731.685	3993.71
731.871	3960.94
732.057	4135.02
732.243	4128.88
732.429	4075.63
732.615	4001.9
732.801	4010.09
732.987	3915.89
733.173	3956.85
733.359	3940.46
733.545	3922.03
733.731	3989.61
733.917	3989.61
734.103	4030.57
734.289	3977.33
734.475	3825.78
734.661	3999.85
734.847	3989.61
735.033	4003.95
735.219	4014.19
735.404	3928.17
735.59	3817.58
735.776	3805.3
735.962	3893.36
736.148	4092.01
736.333	3995.76
736.519	3897.46
736.705	3907.7
736.89	3803.25
737.076	3780.72
737.262	3821.68
737.447	3924.08
737.633	3829.87
737.819	3840.11
738.004	3772.53
738.19	3825.78
738.375	3797.1
738.561	3917.93
738.747	3903.6
738.932	3790.96
739.118	3895.41
739.303	3768.43
739.489	3801.2
739.674	3713.14
739.859	3815.54
740.045	3741.81
740.23	3657.84
740.416	3500.15
740.601	3758.19
740.786	3668.08
740.972	3674.23
741.157	3627.12
741.342	3567.73
741.528	3549.3
741.713	3670.13
741.898	3639.41
742.084	3606.64
742.269	3676.27
742.454	3586.16
742.639	3610.74
742.824	3479.67
743.01	3514.49
743.195	3477.62
743.38	3442.81
743.565	3528.82
743.75	3569.78
743.935	3412.09
744.12	3547.25
744.305	3508.34
744.49	3377.27
744.675	3397.75
744.86	3385.46
745.045	3324.02
745.23	3348.6
745.415	3293.3
745.6	3426.42
745.785	3311.74
745.97	3233.91
746.155	3281.02
746.34	3291.26
746.525	3248.25
746.71	3244.15
746.895	3180.67
747.079	3154.04
747.264	3018.88
747.449	3172.47
747.634	3197.05
747.819	3125.37
748.003	3018.88
748.188	3143.8
748.373	3047.55
748.557	3113.08
748.742	3176.57
748.927	2955.39
749.111	2891.9
749.296	2961.53
749.481	3037.31
749.665	2967.68
749.85	2891.9
750.034	2949.25
750.219	2838.66
750.404	2885.76
750.588	2836.61
750.773	2805.89
750.957	2756.74
751.141	2760.83
751.326	2709.63
751.51	2797.7
751.695	2660.48
751.879	2693.25
752.064	2781.31
752.248	2754.69
752.432	2738.3
752.617	2728.07
752.801	2605.19
752.985	2619.52
753.17	2644.1
753.354	2580.61
753.538	2566.28
753.722	2527.36
753.907	2461.83
754.091	2433.16
754.275	2510.98
754.459	2490.5
754.643	2373.77
754.828	2416.77
755.012	2351.24
755.196	2375.81
755.38	2392.2
755.564	2388.1
755.748	2330.76
755.932	2455.69
756.116	2369.67
756.3	2320.52
756.484	2179.21
756.668	2300.04
756.852	2257.03
757.036	2201.74
757.22	2334.86
757.404	2179.21
757.588	2138.25
757.772	2203.79
757.956	2070.67
758.14	2179.21
758.323	2115.72
758.507	2154.63
758.691	2076.81
758.875	2134.15
759.059	2105.48
759.242	2056.33
759.426	2017.42
759.61	2011.28
759.794	1937.55
759.977	2103.43
760.161	2199.69
760.345	2095.24
760.528	2021.52
760.712	2007.18
760.895	1982.6
761.079	2019.47
761.263	1968.27
761.446	2015.37
761.63	1892.49
761.813	1831.05
761.997	1915.02
762.18	1865.87
762.364	1822.86
762.547	1771.66
762.731	1794.19
762.914	1882.25
763.098	1882.25
763.281	1771.66
763.464	1691.79
763.648	1761.42
763.831	1792.14
764.015	1745.04
764.198	1841.29
764.381	1790.1
764.564	1773.71
764.748	1794.19
764.931	1745.04
765.114	1722.51
765.297	1638.55
765.481	1810.58
765.664	1687.7
765.847	1702.03
766.03	1745.04
766.213	1640.59
766.397	1597.59
766.58	1699.98
766.763	1689.74
766.946	1616.02
767.129	1656.98
767.312	1609.87
767.495	1548.44
767.678	1671.31
767.861	1673.36
768.044	1609.87
768.227	1548.44
768.41	1548.44
768.593	1634.45
768.776	1603.73
768.959	1554.58
769.142	1560.72
769.324	1468.56
769.507	1566.87
769.69	1542.29
769.873	1472.66
770.056	1665.17
770.239	1558.67
770.421	1554.58
770.604	1538.2
770.787	1472.66
770.97	1523.86
771.152	1550.48
771.335	1556.63
771.518	1530
771.7	1530
771.883	1417.37
772.066	1456.28
772.248	1407.13
772.431	1493.14
772.613	1417.37
772.796	1433.75
772.978	1386.65
773.161	1460.37
773.343	1382.55
773.526	1269.91
773.708	1353.88
773.891	1255.58
774.073	1319.06
774.256	1400.98
774.438	1421.46
774.621	1288.34
774.803	1423.51
774.985	1192.09
775.168	1335.45
775.35	1274.01
775.532	1333.4
775.715	1241.24
775.897	1296.53
776.079	1210.52
776.261	1263.77
776.444	1187.99
776.626	1198.23
776.808	1259.67
776.99	1128.6
777.173	1255.58
777.355	1190.04
777.537	1181.85
777.719	1104.03
777.901	1177.75
778.083	1183.9
778.265	1112.22
778.447	1206.42
778.629	1112.22
778.811	1214.62
778.993	1198.23
779.175	1210.52
779.357	1149.08
779.539	1058.97
779.721	1087.64
779.903	1095.83
780.085	1063.07
780.267	1104.03
780.449	1091.74
780.631	1063.07
780.812	1015.96
780.994	1009.82
781.176	985.24
781.358	1034.39
781.54	1011.87
781.721	964.76
781.903	1022.11
782.085	1013.92
782.267	927.9
782.448	960.67
782.63	946.33
782.812	958.62
782.993	899.23
783.175	1058.97
783.357	856.22
783.538	899.23
783.72	923.8
783.901	893.09
784.083	942.24
784.264	874.65
784.446	874.65
784.627	768.16
784.809	915.61
784.99	868.51
785.172	815.26
785.353	823.45
785.535	800.93
785.716	809.12
785.897	770.21
786.079	743.58
786.26	817.31
786.441	772.25
786.623	714.91
786.804	805.02
786.985	784.54
787.167	762.02
787.348	721.06
787.529	700.58
787.71	780.45
787.891	686.24
788.073	731.3
788.254	671.9
788.435	813.21
788.616	714.91
788.797	686.24
788.978	729.25
789.159	604.32
789.34	594.08
789.522	712.86
789.703	624.8
789.884	739.49
790.065	680.1
790.246	598.18
790.427	692.38
790.607	809.12
790.788	680.1
790.969	626.85
791.15	628.9
791.331	618.66
791.512	639.14
791.693	661.66
791.874	688.29
792.054	714.91
792.235	671.9
792.416	501.92
792.597	516.26
792.778	573.6
792.958	643.23
793.139	628.9
793.32	608.42
793.5	577.7
793.681	628.9
793.862	602.27
794.042	530.59
794.223	565.41
794.404	549.03
794.584	448.68
794.765	495.78
794.945	526.5
795.126	516.26
795.306	491.68
795.487	579.75
795.667	465.06
795.848	534.69
796.028	510.11
796.209	493.73
796.389	526.5
796.57	555.17
796.75	479.4
796.93	481.44
797.111	467.11
797.291	506.02
797.471	489.64
797.652	465.06
797.832	430.24
798.012	495.78
798.192	493.73
798.373	407.72
798.553	465.06
798.733	430.24
798.913	417.96
799.093	456.87
799.274	397.48
799.454	465.06
799.634	430.24
799.814	524.45
799.994	467.11
800.174	512.16
800.354	440.48
800.534	295.08
800.714	528.55
800.894	374.95
801.074	399.52
801.254	340.13
801.434	450.72
801.614	422.05
801.794	356.52
801.974	1419.41
802.154	428.2
802.334	450.72
802.514	311.46
802.693	413.86
802.873	383.14
803.053	413.86
803.233	420
803.413	362.66
803.592	325.8
803.772	370.85
803.952	385.19
804.131	350.37
804.311	356.52
804.491	428.2
804.67	360.61
804.85	364.71
805.03	428.2
805.209	424.1
805.389	290.98
805.568	309.41
805.748	399.52
805.928	321.7
806.107	424.1
806.287	311.46
806.466	342.18
806.646	350.37
806.825	293.03
807.004	336.04
807.184	377
807.363	377
807.543	321.7
807.722	213.16
807.901	336.04
808.081	315.56
808.26	278.69
808.439	327.85
808.619	305.32
808.798	325.8
808.977	327.85
809.156	333.99
809.336	331.94
809.515	397.48
809.694	225.45
809.873	268.45
810.052	348.33
810.231	389.28
810.411	340.13
810.59	385.19
810.769	331.94
810.948	317.61
811.127	211.11
811.306	266.41
811.485	280.74
811.664	358.57
811.843	215.21
812.022	301.22
812.201	243.88
812.38	241.83
812.559	213.16
812.737	311.46
812.916	166.06
813.095	211.11
813.274	264.36
813.453	260.26
813.632	280.74
813.811	239.78
813.989	229.54
814.168	327.85
814.347	229.54
814.526	239.78
814.704	264.36
814.883	383.14
815.062	190.63
815.24	245.93
815.419	219.3
815.598	270.5
815.776	233.64
815.955	286.89
816.133	157.86
816.312	164.01
816.49	213.16
816.669	250.02
816.847	256.17
817.026	221.35
817.204	311.46
817.383	137.38
817.561	196.78
817.74	290.98
817.918	227.5
818.097	233.64
818.275	239.78
818.453	170.15
818.632	188.58
818.81	176.3
818.988	243.88
819.167	129.19
819.345	200.87
819.523	198.82
819.701	237.74
819.879	178.34
820.058	270.5
820.236	254.12
820.414	233.64
820.592	209.06
820.77	178.34
820.948	198.82
821.127	227.5
821.305	219.3
821.483	250.02
821.661	329.89
821.839	143.53
822.017	125.1
822.195	241.83
822.373	198.82
822.551	149.67
822.729	245.93
822.907	137.38
823.085	204.97
823.262	84.14
823.44	149.67
823.618	135.34
823.796	170.15
823.974	231.59
824.152	161.96
824.329	145.58
824.507	196.78
824.685	108.71
824.863	153.77
825.04	198.82
825.218	159.91
825.396	143.53
825.574	161.96
825.751	164.01
825.929	118.95
826.107	155.82
826.284	186.54
826.462	182.44
826.639	73.9
826.817	180.39
826.994	207.02
827.172	141.48
827.349	231.59
827.527	164.01
827.704	209.06
827.882	182.44
828.059	147.62
828.237	149.67
828.414	170.15
828.591	69.8
828.769	180.39
828.946	67.75
829.124	149.67
829.301	141.48
829.478	164.01
829.655	155.82
829.833	157.86
830.01	18.6
830.187	188.58
830.364	159.91
830.542	125.1
830.719	131.24
830.896	108.71
831.073	127.14
831.25	164.01
831.427	98.47
831.604	219.3
831.782	174.25
831.959	172.2
832.136	71.85
832.313	98.47
832.49	86.19
832.667	153.77
832.844	22.7
833.021	135.34
833.198	121
833.374	139.43
833.551	166.06
833.728	75.95
833.905	161.96
834.082	30.89
834.259	114.86
834.436	188.58
834.612	110.76
834.789	176.3
834.966	118.95
835.143	139.43
835.319	159.91
835.496	143.53
835.673	82.09
835.85	98.47
836.026	143.53
836.203	65.71
836.38	67.75
836.556	53.42
836.733	71.85
836.909	174.25
837.086	88.23
837.262	12.46
837.439	116.9
837.616	94.38
837.792	112.81
837.968	127.14
838.145	63.66
838.321	133.29
838.498	129.19
838.674	100.52
838.851	174.25
839.027	129.19
839.203	106.67
839.38	157.86
839.556	104.62
839.732	161.96
839.909	125.1
840.085	170.15
840.261	118.95
840.437	65.71
840.614	63.66
840.79	153.77
840.966	108.71
841.142	30.89
841.318	37.03
841.494	108.71
841.671	100.52
841.847	-57.17
842.023	86.19
842.199	77.99
842.375	96.43
842.551	-10.07
842.727	18.6
842.903	186.54
843.079	71.85
843.255	114.86
843.431	34.99
843.607	-3.93
843.783	0.17
843.959	137.38
844.134	12.46
844.31	133.29
844.486	6.31
844.662	-1.88
844.838	37.03
845.013	159.91
845.189	135.34
845.365	22.7
845.541	49.32
845.716	14.51
845.892	133.29
846.068	-16.21
846.244	65.71
846.419	55.47
846.595	18.6
846.77	67.75
846.946	96.43
847.122	104.62
847.297	-20.31
847.473	82.09
847.648	22.7
847.824	51.37
847.999	98.47
848.175	24.75
848.35	147.62
848.526	168.1
848.701	110.76
848.876	67.75
849.052	116.9
849.227	71.85
849.403	37.03
849.578	59.56
849.753	59.56
849.929	28.84
850.104	73.9
850.279	82.09
850.454	30.89
850.63	77.99
850.805	102.57
850.98	4.27
851.155	86.19
851.33	77.99
851.505	47.27
851.681	153.77
851.856	-26.45
852.031	90.28
852.206	145.58
852.381	-24.4
852.556	75.95
852.731	14.51
852.906	24.75
853.081	123.05
853.256	77.99
853.431	30.89
853.606	-1.88
853.781	43.18
853.956	-10.07
854.131	100.52
854.305	22.7
854.48	6.31
854.655	18.6
854.83	51.37
855.005	26.79
855.18	114.86
855.354	-34.64
855.529	110.76
855.704	80.04
855.879	6.31
856.053	-34.64
856.228	61.61
856.403	-8.02
856.577	30.89
856.752	-16.21
856.926	-16.21
857.101	77.99
857.276	-65.36
857.45	4.27
857.625	84.14
857.799	47.27
857.974	55.47
858.148	69.8
858.323	118.95
858.497	-14.17
858.672	-26.45
858.846	-10.07
859.02	37.03
859.195	-67.41
859.369	30.89
859.543	98.47
859.718	41.13
859.892	-14.17
860.066	137.38
860.241	-46.93
860.415	47.27
860.589	47.27
860.763	20.65
860.938	-1.88
861.112	67.75
861.286	39.08
861.46	28.84
861.634	26.79
861.808	90.28
861.982	49.32
862.157	18.6
862.331	18.6
862.505	18.6
862.679	-28.5
862.853	-38.74
863.027	63.66
863.201	82.09
863.375	-3.93
863.549	-8.02
863.722	41.13
863.896	133.29
864.07	34.99
864.244	10.41
864.418	63.66
864.592	71.85
864.766	4.27
864.939	55.47
865.113	8.36
865.287	61.61
865.461	43.18
865.634	22.7
865.808	10.41
865.982	-44.88
866.156	28.84
866.329	-30.55
866.503	98.47
866.676	80.04
866.85	49.32
867.024	18.6
867.197	4.27
867.371	116.9
867.544	118.95
867.718	41.13
867.891	51.37
868.065	14.51
868.238	10.41
868.412	170.15
868.585	73.9
868.759	41.13
868.932	34.99
869.105	-10.07
869.279	24.75
869.452	-69.46
869.625	45.23
869.799	14.51
869.972	-51.03
870.145	24.75
870.319	71.85
870.492	-61.27
870.665	24.75
870.838	20.65
871.011	4.27
871.185	55.47
871.358	-40.79
871.531	-10.07
871.704	-69.46
871.877	30.89
872.05	-8.02
872.223	-18.26
872.396	75.95
872.569	55.47
872.742	-57.17
872.915	149.67
873.088	-22.36
873.261	12.46
873.434	51.37
873.607	24.75
873.78	53.42
873.953	-42.84
874.126	77.99
874.299	18.6
874.471	30.89
874.644	-18.26
874.817	0.17
874.99	80.04
875.163	20.65
875.335	-8.02
875.508	18.6
875.681	90.28
875.853	-57.17
876.026	39.08
876.199	67.75
876.371	-3.93
876.544	55.47
876.717	26.79
876.889	18.6
877.062	-38.74
877.234	24.75
877.407	20.65
877.579	-12.12
877.752	2.22
877.924	6.31
878.097	-53.08
878.269	-14.17
878.442	-1.88
878.614	-10.07
878.786	-8.02
878.959	26.79
879.131	-51.03
879.303	0.17
879.476	-8.02
879.648	92.33
879.82	-69.46
879.993	2.22
880.165	-77.65
880.337	-57.17
880.509	16.55
880.681	-44.88
880.854	-1.88
881.026	114.86
881.198	106.67
881.37	34.99
881.542	8.36
881.714	43.18
881.886	-32.6
882.058	-24.4
882.23	-3.93
882.402	49.32
882.574	-16.21
882.746	69.8
882.918	16.55
883.09	-65.36
883.262	14.51
883.434	57.51
883.606	-26.45
883.778	-30.55
883.95	45.23
884.122	-5.97
884.293	20.65
884.465	28.84
884.637	71.85
884.809	-46.93
884.98	6.31
885.152	8.36
885.324	28.84
885.496	57.51
885.667	8.36
885.839	112.81
886.011	55.47
886.182	0.17
886.354	106.67
886.525	24.75
886.697	-63.32
886.869	-8.02
887.04	10.41
887.212	39.08
887.383	131.24
887.555	10.41
887.726	0.17
887.897	-14.17
888.069	16.55
888.24	-5.97
888.412	37.03
888.583	-20.31
888.754	-51.03
888.926	-67.41
889.097	-42.84
889.268	-8.02
889.44	59.56
889.611	-5.97
889.782	-42.84
889.953	32.94
890.125	28.84
890.296	-67.41
890.467	-20.31
890.638	-42.84
890.809	32.94
890.98	20.65
891.151	-22.36
891.323	32.94
891.494	-18.26
891.665	-16.21
891.836	86.19
892.007	-32.6
892.178	51.37
892.349	32.94
892.52	-79.7
892.691	106.67
892.862	-57.17
893.032	-61.27
893.203	39.08
893.374	-1.88
893.545	47.27
893.716	41.13
893.887	-1.88
894.057	4.27
894.228	-32.6
894.399	26.79
894.57	73.9
894.74	-83.8
894.911	8.36
895.082	2.22
895.253	41.13
895.423	63.66
895.594	75.95
895.764	32.94
895.935	-77.65
896.106	16.55
896.276	-36.69
896.447	-83.8
896.617	-44.88
896.788	-24.4
896.958	2.22
897.129	8.36
897.299	-26.45
897.47	51.37
897.64	71.85
897.81	0.17
897.981	-53.08
898.151	8.36
898.322	34.99
898.492	53.42
898.662	-34.64
898.832	77.99
899.003	18.6
899.173	90.28
899.343	-51.03
899.513	-24.4
