Data from USB4F104151__0__12-11-08-529.txt Node

Date: Fri Mar 14 12:11:08 EDT 2025
User: louis
Spectrometer: USB4F10415
Trigger mode: 4
Integration Time (sec): 5.000000E-2
Scans to average: 1
Electric dark correction enabled: true
Nonlinearity correction enabled: false
Boxcar width: 0
XAxis mode: Wavelengths
Number of Pixels in Spectrum: 3648
>>>>>Begin Spectral Data<<<<<
178.204	-233.13
178.424	-233.13
178.644	-233.13
178.864	-235.18
179.084	-175.78
179.304	-42.67
179.524	53.59
179.744	-7.85
179.964	43.35
180.184	2.39
180.404	-22.19
180.624	24.92
180.844	-50.86
181.064	-32.43
181.283	2.39
181.503	-22.19
181.723	51.54
181.943	-61.1
182.163	119.12
182.383	14.68
182.602	-18.09
182.822	76.12
183.042	18.77
183.262	-20.14
183.482	-54.95
183.701	43.35
183.921	106.84
184.141	-44.71
184.361	20.82
184.58	22.87
184.8	37.2
185.02	-3.75
185.239	98.64
185.459	10.58
185.679	92.5
185.898	-7.85
186.118	92.5
186.338	-1.71
186.557	86.36
186.777	-9.9
186.997	26.96
187.216	-24.23
187.436	117.08
187.655	61.78
187.875	141.65
188.095	-5.8
188.314	88.4
188.534	84.31
188.753	-13.99
188.973	94.55
189.192	135.51
189.412	67.92
189.631	0.34
189.851	63.83
190.07	47.44
190.29	-112.3
190.509	98.64
190.729	39.25
190.948	10.58
191.168	147.8
191.387	78.16
191.607	-7.85
191.826	33.11
192.045	8.53
192.265	29.01
192.484	53.59
192.704	-13.99
192.923	-65.19
193.142	147.8
193.362	14.68
193.581	6.49
193.8	16.73
194.02	59.73
194.239	76.12
194.458	57.68
194.678	29.01
194.897	92.5
195.116	78.16
195.335	96.6
195.555	-57
195.774	16.73
195.993	6.49
196.212	-34.47
196.432	16.73
196.651	22.87
196.87	-32.43
197.089	141.65
197.308	65.88
197.528	86.36
197.747	16.73
197.966	-1.71
198.185	112.98
198.404	47.44
198.623	63.83
198.842	78.16
199.062	20.82
199.281	51.54
199.5	-7.85
199.719	100.69
199.938	61.78
200.157	88.4
200.376	53.59
200.595	49.49
200.814	4.44
201.033	-52.91
201.252	37.2
201.471	29.01
201.69	26.96
201.909	-36.52
202.128	45.4
202.347	104.79
202.566	153.94
202.785	51.54
203.004	-57
203.223	131.41
203.442	43.35
203.661	-9.9
203.879	82.26
204.098	14.68
204.317	-85.67
204.536	-1.71
204.755	0.34
204.974	53.59
205.193	39.25
205.411	86.36
205.63	55.64
205.849	53.59
206.068	6.49
206.287	-22.19
206.505	35.16
206.724	-24.23
206.943	-7.85
207.162	-5.8
207.381	22.87
207.599	37.2
207.818	33.11
208.037	-34.47
208.255	31.06
208.474	-3.75
208.693	84.31
208.911	-11.95
209.13	-18.09
209.349	53.59
209.567	94.55
209.786	106.84
210.005	92.5
210.223	57.68
210.442	-61.1
210.661	-5.8
210.879	26.96
211.098	53.59
211.316	22.87
211.535	-16.04
211.753	45.4
211.972	84.31
212.191	-48.81
212.409	8.53
212.628	63.83
212.846	41.3
213.065	123.22
213.283	69.97
213.502	-16.04
213.72	-48.81
213.938	59.73
214.157	-3.75
214.375	78.16
214.594	37.2
214.812	88.4
215.031	76.12
215.249	6.49
215.467	96.6
215.686	37.2
215.904	26.96
216.122	69.97
216.341	115.03
216.559	-34.47
216.778	43.35
216.996	65.88
217.214	-7.85
217.432	-1.71
217.651	-63.15
217.869	0.34
218.087	37.2
218.306	12.63
218.524	-102.06
218.742	-30.38
218.96	-5.8
219.179	-13.99
219.397	-18.09
219.615	69.97
219.833	29.01
220.051	-30.38
220.27	57.68
220.488	98.64
220.706	61.78
220.924	41.3
221.142	4.44
221.36	22.87
221.578	29.01
221.796	108.88
222.015	49.49
222.233	-11.95
222.451	72.02
222.669	-48.81
222.887	69.97
223.105	10.58
223.323	-13.99
223.541	-38.57
223.759	51.54
223.977	51.54
224.195	90.45
224.413	-61.1
224.631	26.96
224.849	37.2
225.067	72.02
225.285	57.68
225.503	35.16
225.721	-42.67
225.939	26.96
226.157	106.84
226.375	215.38
226.592	51.54
226.81	82.26
227.028	82.26
227.246	51.54
227.464	-36.52
227.682	2.39
227.9	57.68
228.117	-13.99
228.335	55.64
228.553	4.44
228.771	26.96
228.989	47.44
229.206	69.97
229.424	108.88
229.642	20.82
229.86	-11.95
230.077	55.64
230.295	20.82
230.513	104.79
230.731	-9.9
230.948	80.21
231.166	141.65
231.384	24.92
231.601	18.77
231.819	69.97
232.037	20.82
232.254	-7.85
232.472	43.35
232.689	-18.09
232.907	37.2
233.125	20.82
233.342	-13.99
233.56	8.53
233.777	-44.71
233.995	55.64
234.213	59.73
234.43	65.88
234.648	8.53
234.865	-24.23
235.083	112.98
235.3	35.16
235.518	41.3
235.735	12.63
235.953	145.75
236.17	59.73
236.388	-40.62
236.605	55.64
236.822	65.88
237.04	16.73
237.257	4.44
237.475	-69.29
237.692	74.07
237.909	63.83
238.127	29.01
238.344	63.83
238.562	43.35
238.779	14.68
238.996	-32.43
239.214	55.64
239.431	-9.9
239.648	31.06
239.865	33.11
240.083	24.92
240.3	53.59
240.517	8.53
240.735	51.54
240.952	31.06
241.169	49.49
241.386	24.92
241.603	33.11
241.821	-83.63
242.038	90.45
242.255	88.4
242.472	-18.09
242.689	43.35
242.907	90.45
243.124	39.25
243.341	-11.95
243.558	14.68
243.775	-36.52
243.992	-63.15
244.209	45.4
244.426	125.27
244.643	-7.85
244.86	-1.71
245.078	69.97
245.295	92.5
245.512	29.01
245.729	2.39
245.946	18.77
246.163	31.06
246.38	108.88
246.597	29.01
246.814	39.25
247.031	-54.95
247.248	33.11
247.464	4.44
247.681	-9.9
247.898	65.88
248.115	-1.71
248.332	-5.8
248.549	-22.19
248.766	155.99
248.983	96.6
249.2	37.2
249.417	53.59
249.633	10.58
249.85	80.21
250.067	76.12
250.284	-5.8
250.501	92.5
250.717	78.16
250.934	-44.71
251.151	67.92
251.368	-59.05
251.585	-22.19
251.801	-30.38
252.018	39.25
252.235	31.06
252.451	-13.99
252.668	53.59
252.885	67.92
253.102	84.31
253.318	76.12
253.535	10.58
253.752	49.49
253.968	96.6
254.185	20.82
254.401	53.59
254.618	57.68
254.835	-22.19
255.051	117.08
255.268	8.53
255.484	26.96
255.701	72.02
255.917	26.96
256.134	-32.43
256.351	59.73
256.567	-79.53
256.784	-61.1
257	-57
257.217	110.93
257.433	51.54
257.65	37.2
257.866	55.64
258.082	-54.95
258.299	-16.04
258.515	-11.95
258.732	96.6
258.948	20.82
259.165	-28.33
259.381	2.39
259.597	29.01
259.814	49.49
260.03	49.49
260.246	4.44
260.463	117.08
260.679	115.03
260.895	37.2
261.112	76.12
261.328	-13.99
261.544	-30.38
261.761	80.21
261.977	20.82
262.193	-61.1
262.409	104.79
262.626	67.92
262.842	49.49
263.058	-36.52
263.274	63.83
263.49	88.4
263.707	92.5
263.923	51.54
264.139	-38.57
264.355	16.73
264.571	49.49
264.787	47.44
265.004	-3.75
265.22	108.88
265.436	2.39
265.652	-20.14
265.868	18.77
266.084	74.07
266.3	18.77
266.516	-50.86
266.732	115.03
266.948	84.31
267.164	10.58
267.38	65.88
267.596	55.64
267.812	117.08
268.028	14.68
268.244	-32.43
268.46	16.73
268.676	22.87
268.892	39.25
269.108	-32.43
269.324	-67.24
269.54	-3.75
269.756	100.69
269.972	6.49
270.188	55.64
270.403	-32.43
270.619	8.53
270.835	78.16
271.051	33.11
271.267	63.83
271.483	29.01
271.698	26.96
271.914	117.08
272.13	67.92
272.346	-30.38
272.562	31.06
272.777	6.49
272.993	22.87
273.209	-1.71
273.425	-50.86
273.64	18.77
273.856	69.97
274.072	-65.19
274.287	8.53
274.503	29.01
274.719	0.34
274.934	43.35
275.15	-59.05
275.366	51.54
275.581	-16.04
275.797	18.77
276.012	47.44
276.228	0.34
276.444	55.64
276.659	94.55
276.875	-22.19
277.09	8.53
277.306	-22.19
277.521	41.3
277.737	43.35
277.952	63.83
278.168	-38.57
278.383	153.94
278.599	35.16
278.814	61.78
279.03	22.87
279.245	47.44
279.461	24.92
279.676	-42.67
279.892	35.16
280.107	-40.62
280.322	-18.09
280.538	67.92
280.753	-22.19
280.969	16.73
281.184	41.3
281.399	119.12
281.615	102.74
281.83	117.08
282.045	14.68
282.26	-24.23
282.476	22.87
282.691	45.4
282.906	90.45
283.122	-3.75
283.337	-48.81
283.552	29.01
283.767	-36.52
283.983	141.65
284.198	4.44
284.413	100.69
284.628	-57
284.843	14.68
285.058	121.17
285.274	63.83
285.489	-16.04
285.704	63.83
285.919	20.82
286.134	16.73
286.349	-5.8
286.564	74.07
286.779	53.59
286.995	18.77
287.21	-38.57
287.425	127.32
287.64	37.2
287.855	22.87
288.07	-20.14
288.285	78.16
288.5	18.77
288.715	112.98
288.93	4.44
289.145	-5.8
289.36	98.64
289.575	-28.33
289.79	20.82
290.004	69.97
290.219	29.01
290.434	53.59
290.649	-34.47
290.864	24.92
291.079	12.63
291.294	47.44
291.509	10.58
291.724	10.58
291.938	-26.28
292.153	33.11
292.368	-5.8
292.583	37.2
292.798	108.88
293.012	8.53
293.227	-32.43
293.442	37.2
293.657	78.16
293.871	112.98
294.086	43.35
294.301	41.3
294.516	29.01
294.73	10.58
294.945	-36.52
295.16	12.63
295.374	84.31
295.589	88.4
295.804	8.53
296.018	47.44
296.233	115.03
296.447	4.44
296.662	82.26
296.877	-18.09
297.091	33.11
297.306	53.59
297.52	14.68
297.735	104.79
297.949	45.4
298.164	39.25
298.378	49.49
298.593	-32.43
298.807	-20.14
299.022	43.35
299.236	143.7
299.451	53.59
299.665	12.63
299.88	4.44
300.094	24.92
300.309	145.75
300.523	45.4
300.737	78.16
300.952	41.3
301.166	2.39
301.381	106.84
301.595	16.73
301.809	-3.75
302.024	57.68
302.238	2.39
302.452	80.21
302.667	8.53
302.881	86.36
303.095	141.65
303.309	-40.62
303.524	59.73
303.738	92.5
303.952	8.53
304.166	-50.86
304.381	-16.04
304.595	106.84
304.809	12.63
305.023	88.4
305.237	20.82
305.452	18.77
305.666	88.4
305.88	10.58
306.094	86.36
306.308	55.64
306.522	139.6
306.736	74.07
306.95	90.45
307.164	65.88
307.379	-24.23
307.593	80.21
307.807	39.25
308.021	69.97
308.235	84.31
308.449	-79.53
308.663	-24.23
308.877	86.36
309.091	49.49
309.305	31.06
309.519	-50.86
309.733	80.21
309.947	24.92
310.161	37.2
310.374	59.73
310.588	78.16
310.802	-44.71
311.016	-5.8
311.23	-24.23
311.444	29.01
311.658	24.92
311.872	47.44
312.085	80.21
312.299	10.58
312.513	110.93
312.727	-1.71
312.941	-16.04
313.154	123.22
313.368	33.11
313.582	18.77
313.796	63.83
314.009	35.16
314.223	2.39
314.437	-5.8
314.651	61.78
314.864	-20.14
315.078	-13.99
315.292	-63.15
315.505	57.68
315.719	88.4
315.933	16.73
316.146	-5.8
316.36	-22.19
316.573	86.36
316.787	80.21
317.001	76.12
317.214	-38.57
317.428	80.21
317.641	41.3
317.855	-13.99
318.068	24.92
318.282	59.73
318.495	102.74
318.709	69.97
318.922	22.87
319.136	92.5
319.349	43.35
319.563	-59.05
319.776	84.31
319.99	-28.33
320.203	139.6
320.417	-26.28
320.63	-34.47
320.843	43.35
321.057	-34.47
321.27	-3.75
321.483	-57
321.697	37.2
321.91	33.11
322.124	47.44
322.337	8.53
322.55	63.83
322.763	43.35
322.977	-22.19
323.19	-57
323.403	47.44
323.617	24.92
323.83	155.99
324.043	106.84
324.256	45.4
324.469	26.96
324.683	76.12
324.896	-40.62
325.109	24.92
325.322	-30.38
325.535	53.59
325.748	84.31
325.962	35.16
326.175	67.92
326.388	59.73
326.601	51.54
326.814	51.54
327.027	20.82
327.24	69.97
327.453	-32.43
327.666	104.79
327.879	67.92
328.092	53.59
328.305	4.44
328.518	59.73
328.731	29.01
328.944	51.54
329.157	26.96
329.37	0.34
329.583	47.44
329.796	82.26
330.009	2.39
330.222	76.12
330.435	74.07
330.648	33.11
330.861	39.25
331.073	43.35
331.286	57.68
331.499	37.2
331.712	33.11
331.925	47.44
332.138	29.01
332.35	78.16
332.563	-1.71
332.776	65.88
332.989	-52.91
333.202	-20.14
333.414	-5.8
333.627	2.39
333.84	4.44
334.053	59.73
334.265	-16.04
334.478	2.39
334.691	37.2
334.903	22.87
335.116	22.87
335.329	135.51
335.541	20.82
335.754	149.84
335.966	43.35
336.179	12.63
336.392	4.44
336.604	47.44
336.817	78.16
337.029	76.12
337.242	26.96
337.454	22.87
337.667	96.6
337.88	117.08
338.092	45.4
338.305	-9.9
338.517	35.16
338.729	110.93
338.942	82.26
339.154	-46.76
339.367	-16.04
339.579	37.2
339.792	8.53
340.004	61.78
340.217	-16.04
340.429	67.92
340.641	-13.99
340.854	31.06
341.066	-18.09
341.278	104.79
341.491	84.31
341.703	29.01
341.915	74.07
342.128	74.07
342.34	-32.43
342.552	26.96
342.764	35.16
342.977	63.83
343.189	33.11
343.401	24.92
343.613	-9.9
343.826	31.06
344.038	-7.85
344.25	53.59
344.462	-67.24
344.674	-44.71
344.886	84.31
345.099	88.4
345.311	92.5
345.523	88.4
345.735	-13.99
345.947	2.39
346.159	53.59
346.371	90.45
346.583	49.49
346.795	162.13
347.007	76.12
347.219	35.16
347.431	-18.09
347.643	92.5
347.855	-16.04
348.067	129.36
348.279	4.44
348.491	43.35
348.703	33.11
348.915	59.73
349.127	-42.67
349.339	115.03
349.551	49.49
349.763	53.59
349.975	-5.8
350.187	108.88
350.399	121.17
350.61	106.84
350.822	22.87
351.034	35.16
351.246	69.97
351.458	80.21
351.669	61.78
351.881	76.12
352.093	82.26
352.305	18.77
352.517	39.25
352.728	61.78
352.94	6.49
353.152	65.88
353.363	59.73
353.575	80.21
353.787	43.35
353.999	-7.85
354.21	166.23
354.422	63.83
354.633	-3.75
354.845	45.4
355.057	-1.71
355.268	72.02
355.48	45.4
355.692	14.68
355.903	26.96
356.115	80.21
356.326	-57
356.538	112.98
356.749	117.08
356.961	129.36
357.172	76.12
357.384	12.63
357.595	153.94
357.807	80.21
358.018	108.88
358.23	18.77
358.441	100.69
358.653	53.59
358.864	-20.14
359.075	-9.9
359.287	-85.67
359.498	121.17
359.709	26.96
359.921	20.82
360.132	61.78
360.344	-20.14
360.555	31.06
360.766	22.87
360.977	57.68
361.189	43.35
361.4	53.59
361.611	74.07
361.823	86.36
362.034	24.92
362.245	16.73
362.456	31.06
362.667	69.97
362.879	16.73
363.09	59.73
363.301	94.55
363.512	86.36
363.723	37.2
363.935	20.82
364.146	88.4
364.357	16.73
364.568	94.55
364.779	24.92
364.99	92.5
365.201	31.06
365.412	133.46
365.623	-69.29
365.834	76.12
366.045	22.87
366.256	35.16
366.467	74.07
366.678	-11.95
366.889	14.68
367.1	61.78
367.311	80.21
367.522	57.68
367.733	110.93
367.944	158.03
368.155	29.01
368.366	139.6
368.577	37.2
368.788	80.21
368.999	12.63
369.209	84.31
369.42	198.99
369.631	145.75
369.842	20.82
370.053	16.73
370.264	102.74
370.474	-3.75
370.685	90.45
370.896	82.26
371.107	127.32
371.317	53.59
371.528	-48.81
371.739	39.25
371.95	53.59
372.16	-16.04
372.371	-13.99
372.582	59.73
372.792	102.74
373.003	108.88
373.214	31.06
373.424	47.44
373.635	-50.86
373.846	135.51
374.056	65.88
374.267	2.39
374.477	-44.71
374.688	14.68
374.898	-7.85
375.109	20.82
375.319	102.74
375.53	61.78
375.74	51.54
375.951	65.88
376.161	127.32
376.372	137.56
376.582	82.26
376.793	92.5
377.003	-13.99
377.214	65.88
377.424	100.69
377.635	53.59
377.845	-40.62
378.055	82.26
378.266	-1.71
378.476	51.54
378.686	20.82
378.897	125.27
379.107	59.73
379.317	180.56
379.528	-50.86
379.738	84.31
379.948	37.2
380.158	72.02
380.369	78.16
380.579	67.92
380.789	63.83
380.999	41.3
381.21	2.39
381.42	86.36
381.63	43.35
381.84	170.32
382.05	94.55
382.261	53.59
382.471	78.16
382.681	2.39
382.891	63.83
383.101	33.11
383.311	-22.19
383.521	-36.52
383.731	145.75
383.941	80.21
384.151	104.79
384.361	35.16
384.571	67.92
384.781	26.96
384.991	106.84
385.201	76.12
385.411	35.16
385.621	-11.95
385.831	94.55
386.041	74.07
386.251	37.2
386.461	53.59
386.671	55.64
386.881	39.25
387.091	16.73
387.301	47.44
387.511	45.4
387.72	26.96
387.93	53.59
388.14	-9.9
388.35	117.08
388.56	88.4
388.769	133.46
388.979	78.16
389.189	14.68
389.399	0.34
389.609	115.03
389.818	78.16
390.028	29.01
390.238	59.73
390.447	-22.19
390.657	57.68
390.867	100.69
391.076	-11.95
391.286	61.78
391.496	78.16
391.705	100.69
391.915	86.36
392.125	82.26
392.334	-7.85
392.544	145.75
392.753	129.36
392.963	-32.43
393.172	76.12
393.382	26.96
393.591	149.84
393.801	104.79
394.01	102.74
394.22	92.5
394.429	65.88
394.639	121.17
394.848	119.12
395.058	6.49
395.267	100.69
395.477	51.54
395.686	67.92
395.895	145.75
396.105	186.71
396.314	133.46
396.524	12.63
396.733	8.53
396.942	129.36
397.152	84.31
397.361	104.79
397.57	41.3
397.78	160.08
397.989	49.49
398.198	190.8
398.407	88.4
398.617	127.32
398.826	65.88
399.035	98.64
399.244	121.17
399.453	151.89
399.663	69.97
399.872	155.99
400.081	121.17
400.29	186.71
400.499	131.41
400.708	143.7
400.917	63.83
401.127	145.75
401.336	63.83
401.545	235.86
401.754	143.7
401.963	188.75
402.172	106.84
402.381	61.78
402.59	96.6
402.799	125.27
403.008	250.19
403.217	82.26
403.426	194.9
403.635	92.5
403.844	115.03
404.053	137.56
404.262	55.64
404.471	215.38
404.68	225.62
404.888	67.92
405.097	178.51
405.306	96.6
405.515	233.81
405.724	207.19
405.933	198.99
406.142	141.65
406.35	164.18
406.559	203.09
406.768	153.94
406.977	264.53
407.185	190.8
407.394	174.42
407.603	219.47
407.812	266.58
408.02	262.48
408.229	299.34
408.438	305.49
408.646	293.2
408.855	305.49
409.064	276.82
409.272	229.71
409.481	303.44
409.69	274.77
409.898	219.47
410.107	321.87
410.315	344.4
410.524	248.15
410.733	397.65
410.941	303.44
411.15	387.41
411.358	459.09
411.567	495.95
411.775	368.98
411.984	409.94
412.192	401.74
412.401	420.17
412.609	516.43
412.818	559.44
413.026	581.96
413.234	516.43
413.443	498
413.651	637.26
413.86	567.63
414.068	592.2
414.276	710.99
414.485	723.27
414.693	719.18
414.901	756.04
415.11	635.21
415.318	733.51
415.526	708.94
415.734	766.28
415.943	758.09
416.151	942.41
416.359	850.25
416.567	897.35
416.776	1024.33
416.984	979.27
417.192	1055.05
417.4	1018.18
417.608	1100.1
417.817	1020.23
418.025	1132.87
418.233	1198.4
418.441	1122.63
418.649	1196.36
418.857	1331.52
419.065	1458.5
419.273	1374.53
419.481	1325.38
419.689	1452.35
419.897	1509.69
420.105	1564.99
420.313	1605.95
420.521	1689.92
420.729	1761.59
420.937	1712.44
421.145	1739.07
421.353	1978.68
421.561	1995.06
421.769	2056.5
421.977	2122.04
422.185	2160.95
422.393	2140.47
422.601	2320.69
422.809	2298.16
423.017	2517.29
423.224	2472.24
423.432	2566.45
423.64	2511.15
423.848	2926.89
424.056	2662.7
424.263	2941.22
424.471	3029.29
424.679	3131.69
424.887	3150.12
425.094	3281.19
425.302	3346.72
425.51	3369.25
425.718	3420.45
425.925	3531.04
426.133	3586.33
426.341	3883.29
426.548	3930.39
426.756	4022.55
426.964	4215.06
427.171	4342.04
427.379	4344.08
427.586	4555.02
427.794	4583.7
428.001	4942.09
428.209	5075.21
428.417	4968.71
428.624	5404.93
428.832	5273.86
429.039	5288.2
429.247	5347.59
429.454	5857.53
429.662	6203.64
429.869	5880.06
430.076	6271.22
430.284	6121.72
430.491	6471.92
430.699	6795.5
430.906	6633.71
431.114	6734.06
431.321	7106.79
431.528	7198.95
431.736	7573.73
431.943	8057.05
432.15	7680.22
432.358	7616.74
432.565	8376.53
432.772	8349.91
432.979	8642.77
433.187	8726.74
433.394	8913.1
433.601	9253.06
433.808	9552.07
434.016	9566.4
434.223	9648.32
434.43	10557.62
434.637	10135.74
434.844	10705.07
435.052	11094.19
435.259	10928.3
435.466	11155.63
435.673	10903.73
435.88	11710.63
436.087	12214.43
436.294	12544.15
436.501	11991.2
436.708	12130.46
436.915	12755.09
437.122	13252.75
437.329	12963.98
437.537	13435.02
437.743	13750.4
437.95	13785.22
438.157	14377.08
438.364	14770.29
438.571	14571.64
438.778	14852.21
438.985	16427.1
439.192	15454.31
439.399	16132.19
439.606	16152.67
439.813	16537.69
440.02	17803.33
440.227	17342.54
440.433	17205.33
440.64	17668.17
440.847	17840.2
441.054	18186.3
441.261	19284.02
441.467	19165.23
441.674	19511.34
441.881	20002.85
442.088	20156.45
442.294	19851.3
442.501	20578.33
442.708	20690.97
442.914	21633.04
443.121	22540.29
443.328	21889.03
443.534	23611.37
443.741	22714.36
443.948	22470.65
444.154	24158.18
444.361	23934.95
444.568	24201.19
444.774	24467.42
444.981	24410.08
445.187	25192.4
445.394	26226.63
445.6	25884.62
445.807	28665.76
446.013	26920.89
446.22	27490.23
446.426	28831.65
446.633	28839.84
446.839	30111.63
447.046	28563.36
447.252	30091.15
447.459	30214.02
447.665	30287.75
447.871	31668.08
448.078	32853.86
448.284	31428.47
448.491	32243.56
448.697	33439.58
448.903	34230.09
449.11	33994.57
449.316	33310.55
449.522	34066.25
449.728	35137.34
449.935	35202.88
450.141	35147.58
450.347	36190
450.553	35006.27
450.76	35161.92
450.966	36742.95
451.172	35903.28
451.378	37031.71
451.584	36190
451.791	37207.84
451.997	36925.22
452.203	37517.08
452.409	37586.71
452.615	37650.2
452.821	36171.57
453.027	35405.63
453.233	37619.48
453.44	36118.32
453.646	36380.46
453.852	36216.62
454.058	37158.69
454.264	35974.96
454.47	36450.09
454.676	35934
454.882	37068.58
455.088	33836.88
455.294	34203.47
455.5	34649.92
455.705	35135.29
455.911	33587.03
456.117	32964.45
456.323	32862.05
456.529	30879.61
456.735	32298.86
456.941	31319.93
457.147	31100.79
457.352	29681.55
457.558	29460.37
457.764	29441.94
457.97	29044.63
458.176	28512.16
458.381	28475.3
458.587	27058.1
458.793	26709.95
458.999	25626.57
459.204	27125.69
459.41	26441.67
459.616	24729.56
459.821	24725.47
460.027	24784.86
460.233	23963.62
460.438	23150.58
460.644	23234.55
460.85	22108.16
461.055	21850.12
461.261	21839.88
461.466	20027.43
461.672	19220.53
461.878	21153.81
462.083	19540.01
462.289	19200.05
462.494	18911.28
462.7	18325.57
462.905	17805.38
463.111	18204.74
463.316	18470.97
463.522	17993.79
463.727	17930.31
463.932	17829.96
464.138	17475.66
464.343	17774.66
464.549	17084.5
464.754	17641.54
464.959	17412.17
465.165	17414.22
465.37	16509.02
465.575	16388.19
465.781	16879.7
465.986	16920.66
466.191	16314.46
466.397	16437.34
466.602	15163.5
466.807	15972.45
467.012	16052.32
467.218	15695.97
467.423	15657.06
467.628	15638.63
467.833	16158.81
468.038	15671.4
468.244	15288.43
468.449	15779.94
468.654	15388.78
468.859	15272.04
469.064	15022.19
469.269	14395.51
469.474	14846.07
469.679	14954.61
469.885	14493.82
470.09	14731.38
470.295	14473.34
470.5	14119.04
470.705	14362.75
470.91	14051.45
471.115	13953.15
471.32	13930.62
471.525	14125.18
471.73	13686.92
471.935	13547.65
472.139	13146.25
472.344	13230.22
472.549	13152.4
472.754	13076.62
472.959	12707.99
473.164	12341.4
473.369	12413.08
473.574	12712.08
473.778	12624.02
473.983	12486.81
474.188	12427.42
474.393	11817.12
474.598	11788.45
474.802	11468.97
475.007	11550.89
475.212	11974.81
475.417	11360.42
475.621	11385
475.826	11454.63
476.031	11059.37
476.235	10670.26
476.44	11028.65
476.645	10803.38
476.849	10754.23
477.054	10606.77
477.259	10578.1
477.463	10629.3
477.668	10285.24
477.872	10451.13
478.077	10127.55
478.282	9863.36
478.486	9947.33
478.691	9779.39
478.895	9867.45
479.1	9773.25
479.304	9783.49
479.509	9300.17
479.713	9728.19
479.918	9300.17
480.122	9117.9
480.326	9414.85
480.531	9437.38
480.735	9388.23
480.94	9304.26
481.144	9492.68
481.348	9152.71
481.553	9033.93
481.757	8966.35
481.961	9101.51
482.166	9013.45
482.37	9177.29
482.574	8808.65
482.778	9085.13
482.983	9294.02
483.187	8943.82
483.391	9029.84
483.595	9035.98
483.8	8968.4
484.004	8956.11
484.208	9044.17
484.412	8857.81
484.616	8984.78
484.821	8984.78
485.025	8849.61
485.229	8966.35
485.433	8708.3
485.637	8960.2
485.841	8964.3
486.045	8966.35
486.249	8968.4
486.453	8868.05
486.657	8849.61
486.861	8947.92
487.065	8691.92
487.269	9023.69
487.473	8732.88
487.677	8933.58
487.881	9038.03
488.085	8878.29
488.289	8933.58
488.493	8618.19
488.697	9103.56
488.901	9208.01
489.105	9121.99
489.309	9046.22
489.512	9072.84
489.716	9115.85
489.92	9007.31
490.124	8933.58
490.328	9169.1
490.531	9031.88
490.735	9316.55
490.939	9064.65
491.143	9148.62
491.346	9226.44
491.55	9144.52
491.754	9265.35
491.958	9060.56
492.161	9144.52
492.365	9595.07
492.569	9373.89
492.772	9433.29
492.976	9697.47
493.18	9586.88
493.383	9703.62
493.587	9486.53
493.79	9621.7
493.994	9707.71
494.197	9660.61
494.401	10033.34
494.605	9820.35
494.808	10084.54
495.012	10047.68
495.215	10145.98
495.419	10254.52
495.622	9967.81
495.825	10240.19
496.029	10367.16
496.232	10528.95
496.436	10397.88
496.639	10811.57
496.843	10653.87
497.046	10891.44
497.249	10928.3
497.453	10932.4
497.656	11139.24
497.859	11284.65
498.063	11212.97
498.266	11319.46
498.469	11436.2
498.673	11550.89
498.876	11626.66
499.079	11942.05
499.282	11931.81
499.485	12427.42
499.689	12161.18
499.892	12673.17
500.095	12406.94
500.298	12773.52
500.501	12535.96
500.705	13019.28
500.908	12943.5
501.111	12972.18
501.314	13191.31
501.517	13408.39
501.72	13523.08
501.923	13537.41
502.126	13940.86
502.329	14041.22
502.532	14135.42
502.735	14147.71
502.938	14520.44
503.141	14659.7
503.344	14725.24
503.547	14997.62
503.75	14905.46
503.953	15276.14
504.156	15278.19
504.359	15403.11
504.562	15519.85
504.765	15863.91
504.968	15964.26
505.17	15999.07
505.373	16162.91
505.576	16416.86
505.779	16750.68
505.982	16670.81
506.185	16955.47
506.387	17250.38
506.59	17281.1
506.793	17383.5
506.996	17432.65
507.198	17754.18
507.401	17748.04
507.604	18288.7
507.807	18554.94
508.009	18307.13
508.212	18720.82
508.415	18892.85
508.617	18909.24
508.82	19128.37
509.022	19050.55
509.225	19568.68
509.428	19755.05
509.63	19861.54
509.833	19816.49
510.035	20506.65
510.238	20361.25
510.44	20342.81
510.643	20715.55
510.845	20914.2
511.048	20629.53
511.25	21139.47
511.453	21000.21
511.655	22159.36
511.858	21927.94
512.06	21751.82
512.262	22147.08
512.465	22028.29
512.667	22499.33
512.87	22822.91
513.072	22927.35
513.274	23234.55
513.477	23441.39
513.679	23396.34
513.881	23687.15
514.084	23814.12
514.286	23754.73
514.488	24141.8
514.69	24793.05
514.893	24887.26
515.095	25020.38
515.297	25143.25
515.499	25018.33
515.701	25290.71
515.904	25466.83
516.106	25849.8
516.308	26038.22
516.51	26247.11
516.712	26351.56
516.914	26456
517.116	26603.46
517.318	26941.37
517.52	27029.43
517.722	27275.19
517.925	27002.81
518.127	27991.98
518.329	27785.13
518.531	27865
518.733	28266.41
518.935	28415.91
519.136	28403.62
519.338	28768.16
519.54	28813.21
519.742	29349.78
519.944	29097.88
520.146	29333.4
520.348	29415.32
520.55	29611.92
520.752	29771.66
520.954	30332.81
521.155	29898.64
521.357	30367.62
521.559	30885.76
521.761	31016.83
521.963	30580.61
522.164	31188.86
522.366	31373.17
522.568	31084.41
522.77	31883.12
522.971	32073.58
523.173	31852.4
523.375	32145.26
523.576	31885.17
523.778	32055.15
523.98	32515.94
524.181	32821.09
524.383	32640.87
524.584	32561
524.786	32761.7
524.988	32692.07
525.189	33062.75
525.391	33265.5
525.592	33130.33
525.794	33568.6
525.995	33470.29
526.197	33482.58
526.398	33527.64
526.6	33740.63
526.801	33681.24
527.003	33828.69
527.204	34004.81
527.406	34242.38
527.607	33933.14
527.808	34449.22
528.01	33802.07
528.211	33589.08
528.412	34879.3
528.614	34426.7
528.815	34256.71
529.016	34760.51
529.218	34193.23
529.419	34408.26
529.62	34260.81
529.822	34735.94
530.023	34328.39
530.224	34705.22
530.425	34559.81
530.626	34447.18
530.828	34070.35
531.029	34899.78
531.23	34520.9
531.431	34602.82
531.632	34819.91
531.833	34836.29
532.035	34701.12
532.236	34785.09
532.437	35008.32
532.638	34514.76
532.839	34793.28
533.04	35098.43
533.241	34674.5
533.442	34891.58
533.643	34907.97
533.844	34629.44
534.045	34492.23
534.246	34553.67
534.447	34701.12
534.648	34858.82
534.849	34860.87
535.05	34543.43
535.251	35090.24
535.451	34559.81
535.652	34678.6
535.853	34783.04
536.054	34817.86
536.255	34971.46
536.456	34561.86
536.657	34996.03
536.857	34664.26
537.058	34518.85
537.259	34432.84
537.46	34877.25
537.66	34537.29
537.861	34256.71
538.062	34342.73
538.263	34557.77
538.463	34496.33
538.664	34758.47
538.865	34504.52
539.065	34787.14
539.266	34178.89
539.466	34338.63
539.667	34234.19
539.868	34678.6
540.068	34541.38
540.269	34408.26
540.469	34361.16
540.67	33937.23
540.87	33972.05
541.071	34154.32
541.271	34776.9
541.472	33879.89
541.672	34346.83
541.873	34115.4
542.073	33812.31
542.274	34651.97
542.474	34176.84
542.675	33738.58
542.875	34371.4
543.075	34142.03
543.276	34107.21
543.476	34402.12
543.676	33732.43
543.877	34074.45
544.077	34039.63
544.277	34060.11
544.478	33996.62
544.678	34010.96
544.878	33974.09
545.078	34107.21
545.279	33970
545.479	33576.79
545.679	34479.94
545.879	33963.86
546.079	33769.3
546.28	33355.61
546.48	33709.91
546.68	33623.89
546.88	33664.85
547.08	33701.72
547.28	34129.74
547.48	33371.99
547.68	33677.14
547.88	33507.16
548.081	33943.38
548.281	34178.89
548.481	33285.98
548.681	33707.86
548.881	33552.21
549.081	33716.05
549.28	33576.79
549.48	33646.42
549.68	33349.46
549.88	33865.55
550.08	33273.69
550.28	33609.56
550.48	33206.11
550.68	33656.66
550.88	33390.42
551.08	33558.36
551.279	33343.32
551.479	33208.15
551.679	33621.84
551.879	33320.79
552.079	33316.7
552.278	33261.4
552.478	33380.18
552.678	33236.83
552.878	33415
553.077	33091.42
553.277	33048.41
553.477	33515.35
553.676	33451.86
553.876	33355.61
554.076	32827.23
554.275	33183.58
554.475	32819.04
554.674	33214.3
554.874	33142.62
555.074	32866.14
555.273	33380.18
555.473	33472.34
555.672	32673.63
555.872	32833.38
556.071	33134.43
556.271	33064.8
556.47	32927.58
556.67	32833.38
556.869	32753.51
557.068	33408.86
557.268	32810.85
557.467	32876.38
557.667	32962.4
557.866	32743.27
558.065	32470.89
558.265	32952.16
558.464	32409.45
558.663	32761.7
558.863	32552.8
559.062	33240.92
559.261	32571.24
559.461	32583.52
559.66	31956.85
559.859	32671.59
560.058	32536.42
560.258	32003.95
560.457	32493.41
560.656	32515.94
560.855	32333.67
561.054	32298.86
561.253	32311.14
561.453	32173.93
561.652	32391.02
561.851	32464.74
562.05	32042.86
562.249	32130.92
562.448	32589.67
562.647	32401.25
562.846	32198.51
563.045	32266.09
563.244	32083.82
563.443	32382.82
563.642	31950.7
563.841	32526.18
564.04	32139.11
564.239	32178.03
564.438	32145.26
564.637	31919.98
564.836	31737.71
565.035	31770.48
565.234	31958.89
565.432	31620.98
565.631	31672.18
565.83	31913.84
566.029	31588.21
566.228	31799.15
566.427	31876.97
566.625	31510.39
566.824	31729.52
567.023	31467.38
567.222	30969.72
567.42	31778.67
567.619	31895.41
567.818	31356.79
568.016	31706.99
568.215	31506.29
568.414	31332.22
568.612	31508.34
568.811	31471.48
569.01	31137.66
569.208	30889.85
569.407	31590.26
569.605	31238.01
569.804	31377.27
570.002	31131.51
570.201	31303.54
570.4	31219.58
570.598	31395.7
570.797	30809.98
570.995	31061.88
571.193	30885.76
571.392	31111.03
571.59	30873.47
571.789	31258.49
571.987	30875.52
572.186	30996.35
572.384	30394.25
572.582	31104.89
572.781	30887.81
572.979	30541.7
573.177	30689.15
573.376	30973.82
573.574	30596.99
573.772	30678.91
573.971	30556.04
574.169	30562.18
574.367	29659.02
574.565	30627.71
574.763	30226.31
574.962	30621.57
575.16	29949.84
575.358	30158.73
575.556	30113.67
575.754	30304.13
575.952	29837.2
576.151	30220.17
576.349	29886.35
576.547	29882.25
576.745	30140.3
576.943	30041.99
577.141	29589.39
577.339	30007.18
577.537	29826.96
577.735	29786
577.933	29247.38
578.131	29546.39
578.329	29542.29
578.527	29454.23
578.725	29300.63
578.923	29759.38
579.121	29343.64
579.319	29298.58
579.516	29491.09
579.714	29376.41
579.912	28944.28
580.11	29179.8
580.308	28997.53
580.506	29187.99
580.704	28491.68
580.901	29220.76
581.099	29462.42
581.297	28557.22
581.495	29032.35
581.692	28780.45
581.89	28643.23
582.088	28942.24
582.285	28524.45
582.483	28665.76
582.681	28673.95
582.878	28561.31
583.076	28604.32
583.274	28506.02
583.471	28381.09
583.669	28245.93
583.866	28247.97
584.064	28510.11
584.262	27979.69
584.459	28260.26
584.657	28100.52
584.854	28325.8
585.052	27688.88
585.249	28331.94
585.447	28032.94
585.644	28008.36
585.841	28020.65
586.039	28327.85
586.236	27637.68
586.434	27774.89
586.631	27375.54
586.828	27652.02
587.026	27912.11
587.223	27549.62
587.42	27226.04
587.618	27529.14
587.815	26990.52
588.012	27086.78
588.21	27482.03
588.407	27312.05
588.604	27090.87
588.801	26806.2
588.999	26910.65
589.196	27289.52
589.393	27240.37
589.59	26871.74
589.787	26861.5
589.984	26824.64
590.182	26542.02
590.379	26570.69
590.576	26576.83
590.773	26693.57
590.97	26093.51
591.167	26449.86
591.364	26255.3
591.561	26937.27
591.758	26191.81
591.955	26240.96
592.152	26412.99
592.349	26179.53
592.546	26388.42
592.743	25907.15
592.94	25677.77
593.137	26154.95
593.334	26052.55
593.531	25868.23
593.727	26146.76
593.924	25757.64
594.121	25653.2
594.318	25673.68
594.515	25550.8
594.712	25620.43
594.908	25690.06
595.105	25896.91
595.302	25354.19
595.499	25872.33
595.696	25608.14
595.892	25128.92
596.089	25690.06
596.286	25472.98
596.482	25290.71
596.679	25143.25
596.876	25268.18
597.072	25237.46
597.269	25319.38
597.466	24920.03
597.662	25032.66
597.859	25077.72
598.055	24885.21
598.252	24852.44
598.448	25137.11
598.645	24885.21
598.841	24508.38
599.038	24555.49
599.234	24825.82
599.431	24209.38
599.627	24571.87
599.824	24877.02
600.02	24199.14
600.217	24535.01
600.413	24420.32
600.609	24471.52
600.806	24190.95
601.002	24721.37
601.198	24305.63
601.395	24233.96
601.591	23965.67
601.787	24301.54
601.984	24014.82
602.18	24446.94
602.376	24258.53
602.572	23916.52
602.769	24053.73
602.965	23865.32
603.161	23955.43
603.357	24061.93
603.553	23785.45
603.75	24037.35
603.946	23496.69
604.142	23623.66
604.338	23578.61
604.534	23568.37
604.73	23418.86
604.926	23441.39
605.122	23740.4
605.318	23420.91
605.514	23490.54
605.71	23162.87
605.906	23332.85
606.102	23431.15
606.298	23396.34
606.494	23183.35
606.69	23599.09
606.886	23070.71
607.082	22994.93
607.278	23539.69
607.474	22892.54
607.67	23445.49
607.866	22783.99
608.062	23365.62
608.257	23103.48
608.453	23025.65
608.649	23521.26
608.845	22675.45
609.041	23001.08
609.236	23097.33
609.432	22724.6
609.628	23111.67
609.824	23191.54
610.019	22650.88
610.215	22618.11
610.411	22917.11
610.606	22794.23
610.802	22814.71
610.998	22908.92
611.193	22720.51
611.389	22806.52
611.584	22628.35
611.78	22503.42
611.976	22538.24
612.171	22775.8
612.367	22706.17
612.562	22317.06
612.758	22149.12
612.953	22484.99
613.149	22636.54
613.344	22509.57
613.539	22677.5
613.735	22476.8
613.93	22661.12
614.126	22454.27
614.321	22859.77
614.517	22503.42
614.712	22206.47
614.907	22392.83
615.103	22405.12
615.298	22026.25
615.493	22513.66
615.688	22016.01
615.884	22398.98
616.079	22192.13
616.274	22194.18
616.47	22331.39
616.665	22380.54
616.86	22091.78
617.055	22065.16
617.25	22247.43
617.445	22593.53
617.641	21600.27
617.836	22013.96
618.031	21889.03
618.226	22208.51
618.421	21762.06
618.616	22056.96
618.811	21524.49
619.006	21641.23
619.201	21551.12
619.396	21725.19
619.591	21305.36
619.786	21757.96
619.981	21231.63
620.176	21637.13
620.371	21121.04
620.566	21090.32
620.761	21268.5
620.956	21213.2
621.151	20744.22
621.346	20906.01
621.541	20754.46
621.735	20836.38
621.93	20678.68
622.125	20604.95
622.32	20365.34
622.515	20375.58
622.709	20377.63
622.904	20465.69
623.099	20013.09
623.294	20195.36
623.488	19771.43
623.683	20105.25
623.878	19728.42
624.072	19753
624.267	19484.72
624.462	19568.68
624.656	19576.87
624.851	19576.87
625.046	19079.22
625.24	19271.73
625.435	18917.43
625.629	19232.82
625.824	18958.39
626.018	18892.85
626.213	18450.49
626.407	18690.1
626.602	18522.17
626.796	18671.67
626.991	18462.78
627.185	18339.9
627.38	18178.11
627.574	18092.1
627.768	18081.86
627.963	18157.63
628.157	18141.25
628.352	17887.3
628.546	17647.69
628.74	18008.13
628.935	17678.41
629.129	17696.84
629.323	17219.66
629.517	17287.25
629.712	17270.86
629.906	17219.66
630.1	17172.56
630.294	17039.44
630.489	16793.69
630.683	17037.39
630.877	16748.63
631.071	16509.02
631.265	16812.12
631.459	16494.68
631.653	16191.58
631.848	16375.9
632.042	16265.31
632.236	16269.41
632.43	16095.33
632.624	16197.73
632.818	15976.55
633.012	15761.51
633.206	15757.41
633.4	15853.67
633.594	15564.9
633.788	15868
633.982	15618.15
634.176	15714.41
634.369	15366.25
634.563	15409.26
634.757	15208.56
634.951	15399.02
635.145	15382.63
635.339	15202.41
635.533	15110.25
635.726	15102.06
635.92	14612.6
636.114	14723.19
636.308	14715
636.501	14608.5
636.695	14602.36
636.889	14585.97
637.083	14356.6
637.276	14258.3
637.47	14377.08
637.664	14250.11
637.857	14235.77
638.051	14280.83
638.244	14028.93
638.438	13725.83
638.632	13713.54
638.825	13557.89
639.019	13635.72
639.212	13621.38
639.406	13701.25
639.599	13363.34
639.793	13496.46
639.986	13318.28
640.18	13252.75
640.373	13430.92
640.567	13029.52
640.76	13025.42
640.954	12812.43
641.147	12832.91
641.34	12701.84
641.534	12624.02
641.727	12869.78
641.92	12755.09
642.114	12460.18
642.307	12548.25
642.5	12415.13
642.694	12069.02
642.887	12298.39
643.08	12318.87
643.273	12011.68
643.467	12075.17
643.66	11862.18
643.853	11767.97
644.046	11796.64
644.239	11593.89
644.432	11659.43
644.626	11526.31
644.819	11448.49
645.012	11380.9
645.205	11337.9
645.398	11339.94
645.591	11169.96
645.784	11116.72
645.977	10950.83
646.17	11303.08
646.363	10989.74
646.556	10973.36
646.749	10830
646.942	10797.23
647.135	10641.59
647.328	10668.21
647.521	10627.25
647.714	10797.23
647.907	10315.96
648.099	10336.44
648.292	10498.23
648.485	10412.21
648.678	10207.42
648.871	10297.53
649.064	10299.58
649.256	10115.26
649.449	10062.01
649.642	9986.24
649.835	9851.07
650.027	10041.53
650.22	9748.67
650.413	9758.91
650.605	9554.12
650.798	9633.99
650.991	9578.69
651.183	9568.45
651.376	9390.28
651.568	9267.4
651.761	9269.45
651.954	9449.67
652.146	9371.85
652.339	9193.67
652.531	9294.02
652.724	9185.48
652.916	8841.42
653.109	8970.44
653.301	8853.71
653.494	9232.58
653.686	8872.14
653.879	8917.2
654.071	8913.1
654.263	8698.06
654.456	8708.3
654.648	8689.87
654.84	8564.95
655.033	8526.04
655.225	8360.15
655.417	8220.89
655.61	8458.45
655.802	8351.96
655.994	8200.41
656.186	8339.67
656.379	8040.67
656.571	8153.3
656.763	8100.06
656.955	8165.59
657.148	8026.33
657.34	8038.62
657.532	7960.8
657.724	7700.7
657.916	7948.51
658.108	7803.1
658.3	7788.77
658.492	7633.12
658.684	7608.55
658.876	7678.18
659.068	7641.31
659.26	7452.9
659.452	7303.4
659.644	7432.42
659.836	7358.69
660.028	7317.73
660.22	7223.53
660.412	7233.77
660.604	7239.91
660.796	7203.05
660.988	7153.9
661.18	7102.7
661.372	7112.94
661.563	7071.98
661.755	6893.8
661.947	6871.28
662.139	6832.37
662.331	6752.49
662.522	6791.41
662.714	6906.09
662.906	6701.3
663.097	6756.59
663.289	6631.66
663.481	6619.38
663.673	6594.8
663.864	6533.36
664.056	6340.85
664.247	6516.98
664.439	6412.53
664.631	6355.19
664.822	6416.63
665.014	6369.52
665.205	6289.65
665.397	6125.82
665.588	6232.31
665.78	6166.78
665.971	6131.96
666.163	6070.52
666.354	6201.59
666.546	6236.41
666.737	6007.03
666.929	6009.08
667.12	5951.74
667.311	5939.45
667.503	5843.2
667.694	5966.07
667.885	5839.1
668.077	5818.62
668.268	5859.58
668.459	5726.46
668.651	5802.24
668.842	5759.23
669.033	5536
669.224	5503.23
669.416	5703.93
669.607	5814.52
669.798	5607.68
669.989	5724.41
670.18	5658.88
670.371	5503.23
670.563	5341.44
670.754	5536
670.945	5349.64
671.136	5597.44
671.327	5406.98
671.518	5427.46
671.709	5550.34
671.9	5443.84
672.091	5538.05
672.282	5284.1
672.473	5245.19
672.664	5140.74
672.855	5259.53
673.046	5171.46
673.237	5267.72
673.428	5224.71
673.619	5343.49
673.809	5239.05
674	5193.99
674.191	5255.43
674.382	5210.37
674.573	5187.85
674.764	5050.63
674.954	5095.69
675.145	5001.48
675.336	4919.56
675.527	5114.12
675.717	5142.79
675.908	5044.49
676.099	4917.51
676.289	4923.66
676.48	4886.79
676.671	4962.57
676.861	5110.02
677.052	4997.39
677.243	4884.75
677.433	4946.19
677.624	4897.03
677.814	4915.47
678.005	4919.56
678.195	4909.32
678.386	4948.23
678.576	4798.73
678.767	4845.84
678.957	4729.1
679.148	4952.33
679.338	4837.64
679.529	4827.4
679.719	4964.62
679.909	5011.72
680.1	4790.54
680.29	4794.64
680.481	4790.54
680.671	4606.22
680.861	4741.39
681.052	4696.33
681.242	4722.96
681.432	4778.25
681.622	4735.25
681.813	4620.56
682.003	4833.55
682.193	4606.22
682.383	4684.05
682.573	4813.07
682.764	4555.02
682.954	4651.28
683.144	4833.55
683.334	4710.67
683.524	4677.9
683.714	4593.94
683.904	4575.5
684.094	4720.91
684.284	4667.66
684.474	4688.14
684.664	4657.42
684.854	4499.73
685.044	4509.97
685.234	4536.59
685.424	4682
685.614	4538.64
685.804	4636.94
685.994	4583.7
686.184	4563.22
686.374	4630.8
686.564	4456.72
686.753	4434.19
686.943	4301.08
687.133	4344.08
687.323	4372.75
687.513	4559.12
687.702	4382.99
687.892	4430.1
688.082	4565.26
688.272	4528.4
688.461	4403.47
688.651	4579.6
688.841	4303.12
689.03	4301.08
689.22	4421.91
689.41	4299.03
689.599	4272.4
689.789	4266.26
689.979	4391.19
690.168	4436.24
690.358	4401.43
690.547	4143.38
690.737	4245.78
690.926	4219.16
691.116	4290.84
691.305	4219.16
691.495	4258.07
691.684	4174.1
691.874	4270.36
692.063	4137.24
692.252	4237.59
692.442	4196.63
692.631	4137.24
692.82	4143.38
693.01	4124.95
693.199	4110.61
693.388	4139.29
693.578	4184.34
693.767	4223.25
693.956	4139.29
694.146	4086.04
694.335	4188.44
694.524	4170.01
694.713	4112.66
694.902	4143.38
695.092	4159.77
695.281	4170.01
695.47	4096.28
695.659	4071.7
695.848	4116.76
696.037	4198.68
696.226	4151.57
696.415	4153.62
696.604	4114.71
696.793	4081.94
696.982	4135.19
697.171	4139.29
697.36	4188.44
697.549	4170.01
697.738	4122.9
697.927	4116.76
698.116	4233.49
698.305	4208.92
698.494	4346.13
698.683	4153.62
698.872	4464.91
699.061	4153.62
699.25	4313.36
699.438	4204.82
699.627	4272.4
699.816	4352.27
700.005	4264.21
700.193	4213.01
700.382	4262.16
700.571	4264.21
700.76	4354.32
700.948	4172.05
701.137	4354.32
701.326	4325.65
701.514	4221.2
701.703	4147.48
701.892	4356.37
702.08	4362.51
702.269	4313.36
702.457	4499.73
702.646	4286.74
702.834	4243.73
703.023	4325.65
703.212	4382.99
703.4	4282.64
703.589	4264.21
703.777	4395.28
703.965	4446.48
704.154	4231.44
704.342	4292.88
704.531	4413.71
704.719	4241.68
704.907	4491.54
705.096	4223.25
705.284	4399.38
705.472	4274.45
705.661	4303.12
705.849	4481.3
706.037	4444.43
706.226	4546.83
706.414	4274.45
706.602	4303.12
706.79	4331.8
706.979	4464.91
707.167	4327.7
707.355	4331.8
707.543	4339.99
707.731	4348.18
707.919	4483.34
708.107	4301.08
708.296	4378.9
708.484	4339.99
708.672	4309.27
708.86	4296.98
709.048	4329.75
709.236	4309.27
709.424	4374.8
709.612	4426
709.8	4321.56
709.988	4262.16
710.176	4405.52
710.364	4536.59
710.551	4301.08
710.739	4483.34
710.927	4516.11
711.115	4458.77
711.303	4407.57
711.491	4360.47
711.679	4178.2
711.866	4256.02
712.054	4444.43
712.242	4305.17
712.43	4499.73
712.617	4321.56
712.805	4403.47
712.993	4329.75
713.181	4403.47
713.368	4514.06
713.556	4483.34
713.744	4309.27
713.931	4346.13
714.119	4399.38
714.306	4360.47
714.494	4294.93
714.682	4339.99
714.869	4333.84
715.057	4290.84
715.244	4380.95
715.432	4401.43
715.619	4301.08
715.807	4360.47
715.994	4358.42
716.182	4403.47
716.369	4409.62
716.556	4546.83
716.744	4274.45
716.931	4469.01
717.119	4299.03
717.306	4360.47
717.493	4372.75
717.681	4372.75
717.868	4401.43
718.055	4307.22
718.242	4483.34
718.43	4487.44
718.617	4307.22
718.804	4346.13
718.991	4262.16
719.179	4331.8
719.366	4192.53
719.553	4325.65
719.74	4165.91
719.927	4299.03
720.114	4344.08
720.301	4186.39
720.488	4301.08
720.676	4260.12
720.863	4276.5
721.05	4358.42
721.237	4221.2
721.424	4368.66
721.611	4243.73
721.798	4157.72
721.985	4157.72
722.172	4231.44
722.358	4327.7
722.545	4354.32
722.732	4227.35
722.919	4344.08
723.106	4235.54
723.293	4178.2
723.48	4251.92
723.667	4247.83
723.853	4333.84
724.04	4299.03
724.227	4296.98
724.414	4178.2
724.6	4245.78
724.787	4131.09
724.974	4319.51
725.161	4167.96
725.347	4186.39
725.534	4231.44
725.72	4354.32
725.907	4204.82
726.094	4299.03
726.28	4104.47
726.467	4131.09
726.653	4145.43
726.84	4206.87
727.027	4256.02
727.213	4038.94
727.4	4120.85
727.586	4157.72
727.773	4235.54
727.959	4141.33
728.145	4186.39
728.332	4233.49
728.518	4120.85
728.705	4182.29
728.891	4104.47
729.077	4036.89
729.264	4079.9
729.45	4108.57
729.636	4303.12
729.823	4112.66
730.009	3971.35
730.195	3938.59
730.382	4075.8
730.568	4069.66
730.754	4090.13
730.94	4079.9
731.126	4167.96
731.313	4057.37
731.499	4065.56
731.685	4028.7
731.871	4040.98
732.057	4030.74
732.243	4063.51
732.429	4071.7
732.615	3989.78
732.801	3950.87
732.987	3979.54
733.173	3797.28
733.359	3959.06
733.545	3944.73
733.731	3842.33
733.917	4006.17
734.103	3967.26
734.289	3979.54
734.475	3981.59
734.661	4032.79
734.847	3928.35
735.033	4075.8
735.219	3948.83
735.404	3969.3
735.59	3670.3
735.776	3885.34
735.962	3885.34
736.148	3911.96
736.333	3909.91
736.519	3918.11
736.705	3836.19
736.89	3885.34
737.076	3842.33
737.262	3617.05
737.447	3739.93
737.633	3713.31
737.819	3733.79
738.004	3653.92
738.19	3725.6
738.375	3676.45
738.561	3789.08
738.747	3733.79
738.932	3660.06
739.118	3686.69
739.303	3572
739.489	3705.12
739.674	3664.16
739.859	3660.06
740.045	3590.43
740.23	3602.72
740.416	3475.74
740.601	3578.14
740.786	3631.39
740.972	3643.68
741.157	3477.79
741.342	3389.73
741.528	3457.31
741.713	3592.48
741.898	3447.07
742.084	3391.78
742.269	3485.98
742.454	3336.48
742.639	3543.33
742.824	3451.17
743.01	3490.08
743.195	3504.42
743.38	3404.07
743.565	3377.44
743.75	3416.35
743.935	3356.96
744.12	3440.93
744.305	3209.51
744.49	3158.31
744.675	3168.55
744.86	3150.12
745.045	3215.65
745.23	3324.19
745.415	3172.64
745.6	3277.09
745.785	3092.77
745.97	3229.99
746.155	3246.37
746.34	3150.12
746.525	3082.53
746.71	3186.98
746.895	3062.05
747.079	2908.46
747.264	3070.25
747.449	3047.72
747.634	3035.43
747.819	3027.24
748.003	2939.18
748.188	2883.88
748.373	2949.42
748.557	2836.78
748.742	2937.13
748.927	2836.78
749.111	2849.07
749.296	2838.83
749.481	2804.01
749.665	2851.11
749.85	2754.86
750.034	2763.05
750.219	2787.63
750.404	2595.12
750.588	2687.28
750.773	2670.89
750.957	2584.88
751.141	2640.17
751.326	2754.86
751.51	2619.69
751.695	2640.17
751.879	2593.07
752.064	2617.65
752.248	2554.16
752.432	2580.78
752.617	2494.77
752.801	2631.98
752.985	2455.86
753.17	2404.66
753.354	2380.08
753.538	2507.06
753.722	2367.79
753.907	2435.38
754.091	2384.18
754.275	2300.21
754.459	2212.15
754.643	2320.69
754.828	2189.62
755.012	2249.01
755.196	2210.1
755.38	2146.61
755.564	2193.72
755.748	2279.73
755.932	2251.06
756.116	2105.65
756.3	2183.48
756.484	2177.33
756.668	2148.66
756.852	2048.31
757.036	2218.29
757.22	2148.66
757.404	2218.29
757.588	2072.89
757.772	2060.6
757.956	2095.41
758.14	2115.89
758.323	2027.83
758.507	2050.36
758.691	1988.92
758.875	2093.37
759.059	2169.14
759.242	1818.94
759.426	2007.35
759.61	2101.56
759.794	1843.51
759.977	1913.14
760.161	2066.74
760.345	1978.68
760.528	1966.39
760.712	1943.86
760.895	1974.58
761.079	1784.12
761.263	1845.56
761.446	1843.51
761.63	1839.42
761.813	1767.74
761.997	1616.19
762.18	1882.42
762.364	1784.12
762.547	1702.2
762.731	1747.26
762.914	1849.66
763.098	1657.15
763.281	1665.34
763.464	1696.06
763.648	1685.82
763.831	1683.77
764.015	1593.66
764.198	1800.51
764.381	1784.12
764.564	1681.72
764.748	1651
764.931	1687.87
765.114	1618.24
765.297	1671.48
765.481	1657.15
765.664	1653.05
765.847	1569.09
766.03	1747.26
766.213	1599.8
766.397	1515.84
766.58	1554.75
766.763	1651
766.946	1595.71
767.129	1562.94
767.312	1644.86
767.495	1661.24
767.678	1485.12
767.861	1642.81
768.044	1526.08
768.227	1575.23
768.41	1610.04
768.593	1505.6
768.776	1493.31
768.959	1474.88
769.142	1466.69
769.324	1558.85
769.507	1487.17
769.69	1509.69
769.873	1505.6
770.056	1624.38
770.239	1552.7
770.421	1501.5
770.604	1552.7
770.787	1390.91
770.97	1405.25
771.152	1405.25
771.335	1446.21
771.518	1444.16
771.7	1444.16
771.883	1427.78
772.066	1315.14
772.248	1466.69
772.431	1474.88
772.613	1382.72
772.796	1384.77
772.978	1513.79
773.161	1456.45
773.343	1413.44
773.526	1343.81
773.708	1311.04
773.891	1278.27
774.073	1163.59
774.256	1321.28
774.438	1333.57
774.621	1179.97
774.803	1425.73
774.985	1218.88
775.168	1364.29
775.35	1216.83
775.532	1177.92
775.715	1196.36
775.897	1227.07
776.079	1161.54
776.261	1194.31
776.444	1202.5
776.626	1272.13
776.808	1169.73
776.99	1112.39
777.173	1225.03
777.355	1261.89
777.537	1210.69
777.719	1116.48
777.901	1134.92
778.083	1116.48
778.265	1122.63
778.447	1098.05
778.629	1171.78
778.811	1118.53
778.993	1139.01
779.175	1128.77
779.357	1108.29
779.539	1032.52
779.721	1102.15
779.903	1134.92
780.085	1042.76
780.267	1028.42
780.449	981.32
780.631	1042.76
780.812	1091.91
780.994	954.69
781.176	995.65
781.358	973.13
781.54	995.65
781.721	911.69
781.903	981.32
782.085	942.41
782.267	1009.99
782.448	825.67
782.63	915.78
782.812	901.45
782.993	923.98
783.175	958.79
783.357	883.02
783.538	901.45
783.72	846.15
783.901	911.69
784.083	797
784.264	946.5
784.446	745.8
784.627	774.47
784.809	753.99
784.99	774.47
785.172	749.9
785.353	807.24
785.535	823.62
785.716	784.71
785.897	825.67
786.079	762.19
786.26	770.38
786.441	837.96
786.623	651.6
786.804	667.98
786.985	713.03
787.167	749.9
787.348	661.84
787.529	717.13
787.71	848.2
787.891	739.66
788.073	710.99
788.254	698.7
788.435	756.04
788.616	672.08
788.797	594.25
788.978	674.12
789.159	622.92
789.34	661.84
789.522	633.16
789.703	633.16
789.884	610.64
790.065	655.69
790.246	698.7
790.427	743.75
790.607	696.65
790.788	715.08
790.969	555.34
791.15	663.88
791.331	561.48
791.512	579.92
791.693	598.35
791.874	543.05
792.054	690.51
792.235	629.07
792.416	555.34
792.597	465.23
792.778	555.34
792.958	629.07
793.139	547.15
793.32	467.28
793.5	520.53
793.681	577.87
793.862	620.88
794.042	633.16
794.223	514.38
794.404	508.24
794.584	491.85
794.765	467.28
794.945	530.77
795.126	592.2
795.306	528.72
795.487	510.29
795.667	426.32
795.848	530.77
796.028	569.68
796.209	561.48
796.389	477.52
796.57	512.33
796.75	454.99
796.93	483.66
797.111	481.61
797.291	506.19
797.471	543.05
797.652	368.98
797.832	344.4
798.012	526.67
798.192	452.94
798.373	414.03
798.553	416.08
798.733	428.37
798.913	407.89
799.093	473.42
799.274	411.98
799.454	524.62
799.634	534.86
799.814	450.89
799.994	430.41
800.174	416.08
800.354	422.22
800.534	297.3
800.714	487.76
800.894	317.78
801.074	444.75
801.254	303.44
801.434	416.08
801.614	397.65
801.794	383.31
801.974	1198.4
802.154	366.93
802.334	375.12
802.514	381.26
802.693	317.78
802.873	330.06
803.053	330.06
803.233	469.33
803.413	325.97
803.592	319.82
803.772	313.68
803.952	383.31
804.131	219.47
804.311	368.98
804.491	467.28
804.67	278.87
804.85	291.15
805.03	393.55
805.209	346.45
805.389	409.94
805.568	354.64
805.748	362.83
805.928	270.67
806.107	325.97
806.287	289.1
806.466	389.46
806.646	348.5
806.825	385.36
807.004	323.92
807.184	358.74
807.363	350.54
807.543	379.22
807.722	282.96
807.901	323.92
808.081	391.5
808.26	180.56
808.439	397.65
808.619	270.67
808.798	280.91
808.977	340.3
809.156	391.5
809.336	348.5
809.515	303.44
809.694	276.82
809.873	213.33
810.052	315.73
810.231	366.93
810.411	233.81
810.59	354.64
810.769	317.78
810.948	346.45
811.127	260.43
811.306	313.68
811.485	203.09
811.664	377.17
811.843	270.67
812.022	293.2
812.201	268.63
812.38	237.91
812.559	252.24
812.737	280.91
812.916	211.28
813.095	266.58
813.274	203.09
813.453	264.53
813.632	219.47
813.811	250.19
813.989	145.75
814.168	213.33
814.347	246.1
814.526	250.19
814.704	305.49
814.883	266.58
815.062	188.75
815.24	244.05
815.419	176.47
815.598	287.06
815.776	190.8
815.955	229.71
816.133	164.18
816.312	305.49
816.49	280.91
816.669	192.85
816.847	190.8
817.026	227.67
817.204	254.29
817.383	180.56
817.561	221.52
817.74	264.53
817.918	139.6
818.097	162.13
818.275	170.32
818.453	254.29
818.632	166.23
818.81	190.8
818.988	207.19
819.167	188.75
819.345	211.28
819.523	115.03
819.701	233.81
819.879	235.86
820.058	207.19
820.236	225.62
820.414	184.66
820.592	190.8
820.77	180.56
820.948	242
821.127	155.99
821.305	149.84
821.483	145.75
821.661	282.96
821.839	186.71
822.017	72.02
822.195	149.84
822.373	158.03
822.551	198.99
822.729	266.58
822.907	242
823.085	268.63
823.262	127.32
823.44	166.23
823.618	143.7
823.796	125.27
823.974	110.93
824.152	170.32
824.329	106.84
824.507	184.66
824.685	131.41
824.863	65.88
825.04	209.23
825.218	248.15
825.396	237.91
825.574	190.8
825.751	223.57
825.929	160.08
826.107	125.27
826.284	100.69
826.462	244.05
826.639	168.27
826.817	108.88
826.994	127.32
827.172	147.8
827.349	164.18
827.527	127.32
827.704	194.9
827.882	151.89
828.059	149.84
828.237	125.27
828.414	174.42
828.591	22.87
828.769	203.09
828.946	47.44
829.124	139.6
829.301	166.23
829.478	145.75
829.655	162.13
829.833	115.03
830.01	127.32
830.187	125.27
830.364	59.73
830.542	133.46
830.719	180.56
830.896	139.6
831.073	151.89
831.25	180.56
831.427	123.22
831.604	153.94
831.782	69.97
831.959	188.75
832.136	137.56
832.313	196.95
832.49	96.6
832.667	123.22
832.844	74.07
833.021	115.03
833.198	158.03
833.374	92.5
833.551	176.47
833.728	123.22
833.905	174.42
834.082	47.44
834.259	203.09
834.436	123.22
834.612	104.79
834.789	110.93
834.966	106.84
835.143	137.56
835.319	43.35
835.496	110.93
835.673	98.64
835.85	121.17
836.026	139.6
836.203	84.31
836.38	160.08
836.556	94.55
836.733	166.23
836.909	190.8
837.086	49.49
837.262	0.34
837.439	61.78
837.616	65.88
837.792	100.69
837.968	94.55
838.145	18.77
838.321	82.26
838.498	133.46
838.674	84.31
838.851	158.03
839.027	45.4
839.203	20.82
839.38	108.88
839.556	127.32
839.732	108.88
839.909	117.08
840.085	65.88
840.261	102.74
840.437	117.08
840.614	45.4
840.79	102.74
840.966	51.54
841.142	115.03
841.318	96.6
841.494	92.5
841.671	102.74
841.847	61.78
842.023	33.11
842.199	129.36
842.375	86.36
842.551	-120.49
842.727	37.2
842.903	149.84
843.079	-9.9
843.255	108.88
843.431	84.31
843.607	112.98
843.783	-11.95
843.959	67.92
844.134	18.77
844.31	153.94
844.486	43.35
844.662	20.82
844.838	49.49
845.013	-3.75
845.189	94.55
845.365	78.16
845.541	90.45
845.716	55.64
845.892	131.41
846.068	90.45
846.244	-3.75
846.419	162.13
846.595	47.44
846.77	35.16
846.946	112.98
847.122	69.97
847.297	98.64
847.473	125.27
847.648	-11.95
847.824	74.07
847.999	-18.09
848.175	45.4
848.35	100.69
848.526	160.08
848.701	35.16
848.876	100.69
849.052	98.64
849.227	67.92
849.403	-24.23
849.578	63.83
849.753	80.21
849.929	31.06
850.104	10.58
850.279	22.87
850.454	86.36
850.63	184.66
850.805	2.39
850.98	47.44
851.155	100.69
851.33	153.94
851.505	-3.75
851.681	141.65
851.856	-11.95
852.031	26.96
852.206	53.59
852.381	-11.95
852.556	55.64
852.731	86.36
852.906	45.4
853.081	51.54
853.256	26.96
853.431	76.12
853.606	14.68
853.781	35.16
853.956	-11.95
854.131	82.26
854.305	18.77
854.48	4.44
854.655	76.12
854.83	76.12
855.005	61.78
855.18	57.68
855.354	59.73
855.529	53.59
855.704	16.73
855.879	117.08
856.053	26.96
856.228	-11.95
856.403	33.11
856.577	96.6
856.752	12.63
856.926	47.44
857.101	49.49
857.276	-16.04
857.45	72.02
857.625	102.74
857.799	-24.23
857.974	39.25
858.148	12.63
858.323	35.16
858.497	4.44
858.672	-7.85
858.846	-30.38
859.02	80.21
859.195	-40.62
859.369	72.02
859.543	22.87
859.718	16.73
859.892	2.39
860.066	57.68
860.241	16.73
860.415	-63.15
860.589	14.68
860.763	67.92
860.938	-34.47
861.112	74.07
861.286	41.3
861.46	45.4
861.634	69.97
861.808	94.55
861.982	29.01
862.157	-36.52
862.331	26.96
862.505	-11.95
862.679	4.44
862.853	43.35
863.027	-9.9
863.201	188.75
863.375	-20.14
863.549	-24.23
863.722	-11.95
863.896	74.07
864.07	-48.81
864.244	4.44
864.418	47.44
864.592	61.78
864.766	-5.8
864.939	33.11
865.113	4.44
865.287	84.31
865.461	-18.09
865.634	45.4
865.808	-34.47
865.982	-11.95
866.156	16.73
866.329	-108.2
866.503	-42.67
866.676	78.16
866.85	8.53
867.024	18.77
867.197	65.88
867.371	98.64
867.544	8.53
867.718	2.39
867.891	55.64
868.065	-38.57
868.238	45.4
868.412	78.16
868.585	-13.99
868.759	-32.43
868.932	24.92
869.105	74.07
869.279	-34.47
869.452	-13.99
869.625	22.87
869.799	-26.28
869.972	-20.14
870.145	4.44
870.319	41.3
870.492	-28.33
870.665	6.49
870.838	51.54
871.011	-59.05
871.185	57.68
871.358	-69.29
871.531	-52.91
871.704	26.96
871.877	-16.04
872.05	-1.71
872.223	-48.81
872.396	51.54
872.569	16.73
872.742	-20.14
872.915	33.11
873.088	2.39
873.261	-65.19
873.434	8.53
873.607	16.73
873.78	39.25
873.953	-63.15
874.126	49.49
874.299	12.63
874.471	14.68
874.644	-22.19
874.817	102.74
874.99	67.92
875.163	76.12
875.335	20.82
875.508	45.4
875.681	26.96
875.853	-13.99
876.026	26.96
876.199	-5.8
876.371	22.87
876.544	22.87
876.717	43.35
876.889	-1.71
877.062	43.35
877.234	-34.47
877.407	-20.14
877.579	39.25
877.752	49.49
877.924	39.25
878.097	-16.04
878.269	76.12
878.442	-7.85
878.614	2.39
878.786	43.35
878.959	2.39
879.131	24.92
879.303	-87.72
879.476	-11.95
879.648	6.49
879.82	29.01
879.993	26.96
880.165	-7.85
880.337	-36.52
880.509	-7.85
880.681	-42.67
880.854	-20.14
881.026	96.6
881.198	74.07
881.37	-13.99
881.542	0.34
881.714	12.63
881.886	41.3
882.058	2.39
882.23	-32.43
882.402	41.3
882.574	0.34
882.746	37.2
882.918	45.4
883.09	65.88
883.262	-16.04
883.434	8.53
883.606	-73.39
883.778	14.68
883.95	18.77
884.122	18.77
884.293	-1.71
884.465	-18.09
884.637	74.07
884.809	10.58
884.98	43.35
885.152	6.49
885.324	57.68
885.496	-40.62
885.667	33.11
885.839	-28.33
886.011	-5.8
886.182	41.3
886.354	55.64
886.525	-63.15
886.697	108.88
886.869	20.82
887.04	65.88
887.212	16.73
887.383	67.92
887.555	31.06
887.726	12.63
887.897	-79.53
888.069	51.54
888.24	94.55
888.412	12.63
888.583	8.53
888.754	-11.95
888.926	-44.71
889.097	-34.47
889.268	-30.38
889.44	29.01
889.611	-77.48
889.782	-42.67
889.953	-52.91
890.125	31.06
890.296	-69.29
890.467	-28.33
890.638	-20.14
890.809	10.58
890.98	-24.23
891.151	86.36
891.323	88.4
891.494	-34.47
891.665	67.92
891.836	-22.19
892.007	65.88
892.178	-11.95
892.349	-18.09
892.52	-52.91
892.691	92.5
892.862	-11.95
893.032	-61.1
893.203	-30.38
893.374	6.49
893.545	35.16
893.716	-30.38
893.887	59.73
894.057	-1.71
894.228	41.3
894.399	14.68
894.57	55.64
894.74	14.68
894.911	-26.28
895.082	65.88
895.253	-46.76
895.423	4.44
895.594	35.16
895.764	49.49
895.935	-11.95
896.106	-46.76
896.276	14.68
896.447	-9.9
896.617	-44.71
896.788	-48.81
896.958	-57
897.129	29.01
897.299	-1.71
897.47	-22.19
897.64	2.39
897.81	18.77
897.981	-81.58
898.151	-9.9
898.322	47.44
898.492	10.58
898.662	-40.62
898.832	-13.99
899.003	0.34
899.173	-11.95
899.343	-30.38
899.513	-18.09
