Data from USB4F104151__46__12-12-13-655.txt Node

Date: Fri Mar 14 12:12:13 EDT 2025
User: louis
Spectrometer: USB4F10415
Trigger mode: 4
Integration Time (sec): 5.000000E-2
Scans to average: 1
Electric dark correction enabled: true
Nonlinearity correction enabled: false
Boxcar width: 0
XAxis mode: Wavelengths
Number of Pixels in Spectrum: 3648
>>>>>Begin Spectral Data<<<<<
178.204	-203.94
178.424	-203.94
178.644	-203.94
178.864	-263.33
179.084	-226.47
179.304	23.38
179.524	19.29
179.744	4.95
179.964	-1.19
180.184	-29.87
180.404	-13.48
180.624	11.09
180.844	-3.24
181.064	-42.15
181.283	-9.39
181.503	-29.87
181.723	70.48
181.943	37.72
182.163	86.87
182.383	52.05
182.602	84.82
182.822	13.14
183.042	11.09
183.262	31.57
183.482	23.38
183.701	70.48
183.921	74.58
184.141	-17.58
184.361	115.54
184.58	17.24
184.8	45.91
185.02	7
185.239	47.96
185.459	7
185.679	88.92
185.898	-46.25
186.118	43.86
186.338	25.43
186.557	52.05
186.777	47.96
186.997	-29.87
187.216	-23.72
187.436	133.97
187.655	39.76
187.875	13.14
188.095	27.48
188.314	166.74
188.534	15.19
188.753	0.85
188.973	47.96
189.192	56.15
189.412	17.24
189.631	138.07
189.851	158.55
190.07	29.52
190.29	0.85
190.509	7
190.729	13.14
190.948	95.06
191.168	197.46
191.387	31.57
191.607	19.29
191.826	19.29
192.045	62.29
192.265	7
192.484	99.16
192.704	-23.72
192.923	0.85
193.142	80.72
193.362	60.24
193.581	62.29
193.8	41.81
194.02	52.05
194.239	9.05
194.458	31.57
194.678	35.67
194.897	-15.53
195.116	45.91
195.335	52.05
195.555	78.68
195.774	41.81
195.993	72.53
196.212	-17.58
196.432	64.34
196.651	-7.34
196.87	50
197.089	191.31
197.308	125.78
197.528	47.96
197.747	-27.82
197.966	25.43
198.185	80.72
198.404	52.05
198.623	72.53
198.842	58.2
199.062	82.77
199.281	131.92
199.5	-93.35
199.719	80.72
199.938	88.92
200.157	64.34
200.376	45.91
200.595	52.05
200.814	43.86
201.033	-15.53
201.252	127.83
201.471	23.38
201.69	56.15
201.909	74.58
202.128	43.86
202.347	33.62
202.566	60.24
202.785	0.85
203.004	39.76
203.223	101.2
203.442	54.1
203.661	7
203.879	-5.29
204.098	109.4
204.317	-11.43
204.536	25.43
204.755	76.63
204.974	103.25
205.193	29.52
205.411	152.4
205.63	7
205.849	70.48
206.068	13.14
206.287	35.67
206.505	60.24
206.724	78.68
206.943	70.48
207.162	2.9
207.381	31.57
207.599	17.24
207.818	43.86
208.037	-31.91
208.255	64.34
208.474	62.29
208.693	78.68
208.911	-9.39
209.13	78.68
209.349	-1.19
209.567	84.82
209.786	105.3
210.005	84.82
210.223	23.38
210.442	-64.68
210.661	4.95
210.879	47.96
211.098	33.62
211.316	27.48
211.535	39.76
211.753	2.9
211.972	113.49
212.191	72.53
212.409	54.1
212.628	74.58
212.846	39.76
213.065	17.24
213.283	56.15
213.502	47.96
213.72	66.39
213.938	88.92
214.157	4.95
214.375	105.3
214.594	70.48
214.812	52.05
215.031	35.67
215.249	4.95
215.467	35.67
215.686	50
215.904	35.67
216.122	-50.35
216.341	113.49
216.559	11.09
216.778	23.38
216.996	17.24
217.214	52.05
217.432	-29.87
217.651	29.52
217.869	2.9
218.087	-15.53
218.306	-9.39
218.524	25.43
218.742	-40.11
218.96	45.91
219.179	35.67
219.397	-1.19
219.615	148.31
219.833	70.48
220.051	43.86
220.27	56.15
220.488	74.58
220.706	23.38
220.924	-36.01
221.142	39.76
221.36	13.14
221.578	72.53
221.796	50
222.015	23.38
222.233	47.96
222.451	93.01
222.669	9.05
222.887	123.73
223.105	-21.67
223.323	88.92
223.541	-1.19
223.759	31.57
223.977	33.62
224.195	62.29
224.413	121.68
224.631	-9.39
224.849	78.68
225.067	93.01
225.285	117.59
225.503	74.58
225.721	7
225.939	80.72
226.157	72.53
226.375	207.7
226.592	-50.35
226.81	4.95
227.028	82.77
227.246	127.83
227.464	101.2
227.682	103.25
227.9	62.29
228.117	43.86
228.335	-19.63
228.553	9.05
228.771	56.15
228.989	64.34
229.206	33.62
229.424	-15.53
229.642	25.43
229.86	27.48
230.077	21.33
230.295	60.24
230.513	58.2
230.731	109.4
230.948	181.07
231.166	78.68
231.384	31.57
231.601	-5.29
231.819	142.16
232.037	37.72
232.254	9.05
232.472	41.81
232.689	-5.29
232.907	86.87
233.125	11.09
233.342	-33.96
233.56	-27.82
233.777	39.76
233.995	-1.19
234.213	93.01
234.43	68.44
234.648	-1.19
234.865	-7.34
235.083	113.49
235.3	39.76
235.518	35.67
235.735	113.49
235.953	131.92
236.17	41.81
236.388	64.34
236.605	-27.82
236.822	123.73
237.04	54.1
237.257	47.96
237.475	15.19
237.692	-27.82
237.909	97.11
238.127	72.53
238.344	66.39
238.562	2.9
238.779	-19.63
238.996	-9.39
239.214	25.43
239.431	58.2
239.648	-40.11
239.865	72.53
240.083	13.14
240.3	11.09
240.517	-7.34
240.735	2.9
240.952	119.64
241.169	99.16
241.386	62.29
241.603	27.48
241.821	23.38
242.038	45.91
242.255	54.1
242.472	-50.35
242.689	31.57
242.907	82.77
243.124	76.63
243.341	4.95
243.558	56.15
243.775	74.58
243.992	-83.11
244.209	29.52
244.426	121.68
244.643	103.25
244.86	-23.72
245.078	43.86
245.295	103.25
245.512	47.96
245.729	27.48
245.946	21.33
246.163	76.63
246.38	29.52
246.597	31.57
246.814	2.9
247.031	17.24
247.248	7
247.464	60.24
247.681	33.62
247.898	78.68
248.115	4.95
248.332	47.96
248.549	43.86
248.766	84.82
248.983	78.68
249.2	68.44
249.417	50
249.633	-23.72
249.85	17.24
250.067	-9.39
250.284	45.91
250.501	21.33
250.717	107.35
250.934	-25.77
251.151	80.72
251.368	88.92
251.585	138.07
251.801	39.76
252.018	-13.48
252.235	64.34
252.451	52.05
252.668	33.62
252.885	86.87
253.102	66.39
253.318	-7.34
253.535	-15.53
253.752	27.48
253.968	-21.67
254.185	-27.82
254.401	0.85
254.618	31.57
254.835	43.86
255.051	111.44
255.268	27.48
255.484	-13.48
255.701	111.44
255.917	88.92
256.134	15.19
256.351	-7.34
256.567	0.85
256.784	86.87
257	-36.01
257.217	97.11
257.433	45.91
257.65	68.44
257.866	121.68
258.082	-95.4
258.299	-19.63
258.515	19.29
258.732	-29.87
258.948	-3.24
259.165	2.9
259.381	0.85
259.597	66.39
259.814	97.11
260.03	9.05
260.246	72.53
260.463	35.67
260.679	62.29
260.895	-1.19
261.112	15.19
261.328	74.58
261.544	2.9
261.761	119.64
261.977	-27.82
262.193	-29.87
262.409	54.1
262.626	74.58
262.842	2.9
263.058	60.24
263.274	60.24
263.49	58.2
263.707	35.67
263.923	43.86
264.139	-19.63
264.355	15.19
264.571	158.55
264.787	41.81
265.004	23.38
265.22	23.38
265.436	111.44
265.652	43.86
265.868	-40.11
266.084	-31.91
266.3	58.2
266.516	-13.48
266.732	11.09
266.948	50
267.164	-36.01
267.38	123.73
267.596	11.09
267.812	140.12
268.028	111.44
268.244	-1.19
268.46	-50.35
268.676	4.95
268.892	21.33
269.108	7
269.324	-66.73
269.54	-17.58
269.756	35.67
269.972	-56.49
270.188	88.92
270.403	-1.19
270.619	56.15
270.835	58.2
271.051	84.82
271.267	17.24
271.483	-48.3
271.698	99.16
271.914	19.29
272.13	29.52
272.346	17.24
272.562	-7.34
272.777	76.63
272.993	31.57
273.209	39.76
273.425	133.97
273.64	13.14
273.856	0.85
274.072	7
274.287	0.85
274.503	86.87
274.719	31.57
274.934	9.05
275.15	-25.77
275.366	66.39
275.581	17.24
275.797	27.48
276.012	50
276.228	0.85
276.444	101.2
276.659	103.25
276.875	-21.67
277.09	0.85
277.306	31.57
277.521	54.1
277.737	56.15
277.952	41.81
278.168	-15.53
278.383	7
278.599	41.81
278.814	72.53
279.03	0.85
279.245	41.81
279.461	62.29
279.676	43.86
279.892	23.38
280.107	-9.39
280.322	-91.31
280.538	90.96
280.753	-64.68
280.969	86.87
281.184	2.9
281.399	88.92
281.615	72.53
281.83	86.87
282.045	-52.39
282.26	2.9
282.476	7
282.691	41.81
282.906	74.58
283.122	47.96
283.337	17.24
283.552	45.91
283.767	-66.73
283.983	54.1
284.198	-9.39
284.413	15.19
284.628	-50.35
284.843	66.39
285.058	62.29
285.274	-36.01
285.489	-58.54
285.704	2.9
285.919	13.14
286.134	33.62
286.349	93.01
286.564	-33.96
286.779	107.35
286.995	21.33
287.21	-85.16
287.425	60.24
287.64	43.86
287.855	97.11
288.07	-9.39
288.285	80.72
288.5	25.43
288.715	99.16
288.93	41.81
289.145	15.19
289.36	-1.19
289.575	-68.78
289.79	80.72
290.004	41.81
290.219	82.77
290.434	37.72
290.649	2.9
290.864	-9.39
291.079	35.67
291.294	97.11
291.509	52.05
291.724	-29.87
291.938	-50.35
292.153	119.64
292.368	23.38
292.583	64.34
292.798	27.48
293.012	-13.48
293.227	72.53
293.442	-3.24
293.657	17.24
293.871	43.86
294.086	64.34
294.301	127.83
294.516	86.87
294.73	93.01
294.945	23.38
295.16	-31.91
295.374	119.64
295.589	95.06
295.804	64.34
296.018	101.2
296.233	144.21
296.447	29.52
296.662	64.34
296.877	115.54
297.091	72.53
297.306	15.19
297.52	74.58
297.735	97.11
297.949	23.38
298.164	113.49
298.378	29.52
298.593	4.95
298.807	-40.11
299.022	72.53
299.236	70.48
299.451	-44.2
299.665	52.05
299.88	37.72
300.094	17.24
300.309	43.86
300.523	0.85
300.737	39.76
300.952	105.3
301.166	47.96
301.381	41.81
301.595	58.2
301.809	21.33
302.024	31.57
302.238	-50.35
302.452	107.35
302.667	-50.35
302.881	76.63
303.095	105.3
303.309	62.29
303.524	-36.01
303.738	54.1
303.952	4.95
304.166	82.77
304.381	-52.39
304.595	95.06
304.809	33.62
305.023	99.16
305.237	-27.82
305.452	47.96
305.666	25.43
305.88	76.63
306.094	58.2
306.308	105.3
306.522	45.91
306.736	66.39
306.95	64.34
307.164	52.05
307.379	-38.06
307.593	121.68
307.807	39.76
308.021	64.34
308.235	74.58
308.449	-119.98
308.663	43.86
308.877	201.55
309.091	39.76
309.305	54.1
309.519	-40.11
309.733	7
309.947	-46.25
310.161	9.05
310.374	70.48
310.588	164.69
310.802	-1.19
311.016	54.1
311.23	70.48
311.444	56.15
311.658	13.14
311.872	47.96
312.085	111.44
312.299	127.83
312.513	84.82
312.727	111.44
312.941	31.57
313.154	-11.43
313.368	121.68
313.582	66.39
313.796	7
314.009	11.09
314.223	113.49
314.437	41.81
314.651	99.16
314.864	-27.82
315.078	-15.53
315.292	9.05
315.505	-19.63
315.719	39.76
315.933	31.57
316.146	54.1
316.36	-23.72
316.573	86.87
316.787	78.68
317.001	187.22
317.214	-31.91
317.428	-13.48
317.641	-42.15
317.855	9.05
318.068	11.09
318.282	17.24
318.495	93.01
318.709	88.92
318.922	146.26
319.136	15.19
319.349	60.24
319.563	27.48
319.776	47.96
319.99	19.29
320.203	168.79
320.417	35.67
320.63	97.11
320.843	181.07
321.057	45.91
321.27	50
321.483	101.2
321.697	82.77
321.91	29.52
322.124	39.76
322.337	47.96
322.55	-48.3
322.763	13.14
322.977	64.34
323.19	15.19
323.403	43.86
323.617	-3.24
323.83	105.3
324.043	47.96
324.256	7
324.469	-7.34
324.683	56.15
324.896	64.34
325.109	66.39
325.322	-31.91
325.535	138.07
325.748	123.73
325.962	54.1
326.175	138.07
326.388	31.57
326.601	138.07
326.814	80.72
327.027	60.24
327.24	185.17
327.453	-17.58
327.666	72.53
327.879	109.4
328.092	13.14
328.305	45.91
328.518	50
328.731	-17.58
328.944	4.95
329.157	54.1
329.37	-7.34
329.583	84.82
329.796	66.39
330.009	9.05
330.222	105.3
330.435	82.77
330.648	29.52
330.861	37.72
331.073	13.14
331.286	103.25
331.499	-1.19
331.712	-5.29
331.925	47.96
332.138	37.72
332.35	109.4
332.563	-3.24
332.776	72.53
332.989	-13.48
333.202	52.05
333.414	-5.29
333.627	90.96
333.84	-11.43
334.053	62.29
334.265	84.82
334.478	105.3
334.691	39.76
334.903	111.44
335.116	2.9
335.329	88.92
335.541	58.2
335.754	78.68
335.966	58.2
336.179	29.52
336.392	-13.48
336.604	-19.63
336.817	70.48
337.029	43.86
337.242	80.72
337.454	54.1
337.667	62.29
337.88	66.39
338.092	27.48
338.305	107.35
338.517	-46.25
338.729	35.67
338.942	76.63
339.154	37.72
339.367	-33.96
339.579	21.33
339.792	15.19
340.004	9.05
340.217	66.39
340.429	56.15
340.641	13.14
340.854	31.57
341.066	56.15
341.278	39.76
341.491	129.88
341.703	21.33
341.915	101.2
342.128	68.44
342.34	29.52
342.552	39.76
342.764	35.67
342.977	-5.29
343.189	7
343.401	50
343.613	-23.72
343.826	58.2
344.038	-66.73
344.25	113.49
344.462	-9.39
344.674	95.06
344.886	41.81
345.099	93.01
345.311	62.29
345.523	19.29
345.735	-101.55
345.947	0.85
346.159	64.34
346.371	74.58
346.583	39.76
346.795	164.69
347.007	-52.39
347.219	76.63
347.431	17.24
347.643	70.48
347.855	35.67
348.067	50
348.279	-19.63
348.491	111.44
348.703	52.05
348.915	-54.44
349.127	35.67
349.339	50
349.551	-17.58
349.763	133.97
349.975	99.16
350.187	60.24
350.399	129.88
350.61	43.86
350.822	78.68
351.034	90.96
351.246	88.92
351.458	62.29
351.669	56.15
351.881	52.05
352.093	33.62
352.305	64.34
352.517	70.48
352.728	74.58
352.94	45.91
353.152	107.35
353.363	-13.48
353.575	23.38
353.787	97.11
353.999	103.25
354.21	64.34
354.422	-76.97
354.633	68.44
354.845	39.76
355.057	84.82
355.268	45.91
355.48	-11.43
355.692	7
355.903	74.58
356.115	-17.58
356.326	7
356.538	97.11
356.749	76.63
356.961	131.92
357.172	101.2
357.384	-15.53
357.595	136.02
357.807	56.15
358.018	9.05
358.23	84.82
358.441	97.11
358.653	136.02
358.864	60.24
359.075	-5.29
359.287	27.48
359.498	82.77
359.709	64.34
359.921	37.72
360.132	41.81
360.344	-60.59
360.555	78.68
360.766	82.77
360.977	109.4
361.189	99.16
361.4	47.96
361.611	103.25
361.823	50
362.034	13.14
362.245	4.95
362.456	-11.43
362.667	43.86
362.879	15.19
363.09	45.91
363.301	43.86
363.512	2.9
363.723	19.29
363.935	47.96
364.146	41.81
364.357	-40.11
364.568	70.48
364.779	-11.43
364.99	131.92
365.201	-17.58
365.412	78.68
365.623	-1.19
365.834	82.77
366.045	37.72
366.256	11.09
366.467	82.77
366.678	64.34
366.889	39.76
367.1	88.92
367.311	148.31
367.522	29.52
367.733	105.3
367.944	154.45
368.155	19.29
368.366	-7.34
368.577	88.92
368.788	80.72
368.999	-7.34
369.209	11.09
369.42	172.88
369.631	195.41
369.842	138.07
370.053	76.63
370.264	74.58
370.474	-17.58
370.685	74.58
370.896	111.44
371.107	45.91
371.317	17.24
371.528	64.34
371.739	133.97
371.95	37.72
372.16	41.81
372.371	23.38
372.582	101.2
372.792	45.91
373.003	50
373.214	43.86
373.424	56.15
373.635	-46.25
373.846	27.48
374.056	47.96
374.267	76.63
374.477	111.44
374.688	31.57
374.898	86.87
375.109	129.88
375.319	-13.48
375.53	99.16
375.74	148.31
375.951	-40.11
376.161	93.01
376.372	90.96
376.582	2.9
376.793	43.86
377.003	23.38
377.214	39.76
377.424	133.97
377.635	93.01
377.845	56.15
378.055	158.55
378.266	37.72
378.476	127.83
378.686	62.29
378.897	113.49
379.107	66.39
379.317	86.87
379.528	7
379.738	117.59
379.948	11.09
380.158	62.29
380.369	52.05
380.579	127.83
380.789	43.86
380.999	95.06
381.21	47.96
381.42	138.07
381.63	115.54
381.84	152.4
382.05	43.86
382.261	97.11
382.471	43.86
382.681	78.68
382.891	99.16
383.101	111.44
383.311	56.15
383.521	80.72
383.731	117.59
383.941	21.33
384.151	33.62
384.361	47.96
384.571	129.88
384.781	103.25
384.991	105.3
385.201	121.68
385.411	78.68
385.621	74.58
385.831	50
386.041	103.25
386.251	31.57
386.461	185.17
386.671	82.77
386.881	50
387.091	11.09
387.301	111.44
387.511	74.58
387.72	56.15
387.93	66.39
388.14	-54.44
388.35	78.68
388.56	127.83
388.769	97.11
388.979	72.53
389.189	27.48
389.399	-23.72
389.609	86.87
389.818	43.86
390.028	90.96
390.238	68.44
390.447	2.9
390.657	68.44
390.867	41.81
391.076	9.05
391.286	164.69
391.496	66.39
391.705	93.01
391.915	166.74
392.125	99.16
392.334	84.82
392.544	185.17
392.753	54.1
392.963	9.05
393.172	54.1
393.382	74.58
393.591	111.44
393.801	103.25
394.01	160.59
394.22	88.92
394.429	119.64
394.639	56.15
394.848	152.4
395.058	93.01
395.267	185.17
395.477	162.64
395.686	47.96
395.895	129.88
396.105	193.36
396.314	154.45
396.524	107.35
396.733	78.68
396.942	183.12
397.152	144.21
397.361	222.03
397.57	64.34
397.78	166.74
397.989	166.74
398.198	193.36
398.407	117.59
398.617	99.16
398.826	168.79
399.035	148.31
399.244	129.88
399.453	179.03
399.663	121.68
399.872	146.26
400.081	93.01
400.29	170.83
400.499	99.16
400.708	236.37
400.917	142.16
401.127	123.73
401.336	201.55
401.545	195.41
401.754	172.88
401.963	172.88
402.172	187.22
402.381	236.37
402.59	156.5
402.799	111.44
403.008	179.03
403.217	195.41
403.426	131.92
403.635	176.98
403.844	146.26
404.053	158.55
404.262	158.55
404.471	179.03
404.68	176.98
404.888	275.28
405.097	248.66
405.306	125.78
405.515	275.28
405.724	195.41
405.933	222.03
406.142	222.03
406.35	262.99
406.559	254.8
406.768	232.27
406.977	346.96
407.185	340.82
407.394	306
407.603	303.95
407.812	267.09
408.02	392.02
408.229	371.54
408.438	332.62
408.646	299.86
408.855	324.43
409.064	420.69
409.272	322.38
409.481	478.03
409.69	400.21
409.898	400.21
410.107	549.71
410.315	455.5
410.524	392.02
410.733	549.71
410.941	453.45
411.15	547.66
411.358	545.61
411.567	586.57
411.775	637.77
411.984	523.09
412.192	656.2
412.401	609.1
412.609	783.18
412.818	676.68
413.026	731.98
413.234	682.83
413.443	660.3
413.651	787.27
413.86	852.81
414.068	906.06
414.276	947.01
414.485	867.14
414.693	901.96
414.901	1129.28
415.11	992.07
415.318	985.93
415.526	1076.04
415.734	1192.77
415.943	1217.35
416.151	1160
416.359	1194.82
416.567	1225.54
416.776	1340.22
416.984	1375.04
417.192	1430.34
417.4	1389.38
417.608	1422.14
417.817	1438.53
418.025	1610.56
418.233	1690.43
418.441	1674.04
418.649	1657.66
418.857	1807.16
419.065	1825.59
419.273	1876.79
419.481	1942.33
419.689	2024.25
419.897	2112.31
420.105	2167.6
420.313	2319.15
420.521	2304.82
420.729	2198.32
420.937	2437.94
421.145	2659.12
421.353	2720.56
421.561	2736.94
421.769	2874.15
421.977	2968.36
422.185	2999.08
422.393	3126.05
422.601	3273.51
422.809	3298.08
423.017	3275.56
423.224	3470.11
423.432	3529.5
423.64	3728.16
423.848	3990.3
424.056	3889.95
424.263	4209.43
424.471	4137.75
424.679	4252.44
424.887	4508.43
425.094	4750.09
425.302	4547.34
425.51	4829.96
425.718	4887.31
425.925	5128.97
426.133	5133.06
426.341	5487.36
426.548	5921.53
426.756	5622.53
426.964	5954.3
427.171	6165.24
427.379	6150.9
427.586	6335.22
427.794	6658.8
428.001	6978.28
428.209	7146.22
428.417	6998.76
428.624	7664.35
428.832	7682.78
429.039	7477.99
429.247	7582.43
429.454	8286.93
429.662	8737.49
429.869	8237.78
430.076	8837.84
430.284	8637.14
430.491	8964.81
430.699	9589.44
430.906	9327.3
431.114	9566.92
431.321	9829.06
431.528	10078.91
431.736	10812.08
431.943	11135.66
432.15	10754.74
432.358	11119.28
432.565	11332.26
432.772	11696.8
432.979	12296.86
433.187	12216.99
433.394	12376.73
433.601	13001.36
433.808	13333.13
434.016	13140.62
434.223	13640.33
434.43	14568.06
434.637	14062.21
434.844	15080.05
435.052	15315.56
435.259	15284.84
435.466	15397.48
435.673	15444.59
435.88	16073.31
436.087	17103.44
436.294	16945.75
436.501	16859.73
436.708	16941.65
436.915	17748.55
437.122	18158.14
437.329	17898.05
437.537	18842.17
437.743	19391.02
437.95	18901.56
438.157	19931.69
438.364	20533.79
438.571	20793.88
438.778	20834.84
438.985	22610.43
439.192	21654.03
439.399	22530.56
439.606	21797.38
439.813	23222.77
440.02	24664.54
440.227	23925.22
440.433	23683.56
440.64	24693.21
440.847	24500.7
441.054	25145.81
441.261	26614.21
441.467	26378.69
441.674	27251.13
441.881	27896.24
442.088	27693.49
442.294	27234.74
442.501	27998.63
442.708	28854.69
442.914	29702.54
443.121	31060.35
443.328	30308.74
443.534	32375.14
443.741	31388.02
443.948	31089.02
444.154	33120.6
444.361	33104.22
444.568	32985.44
444.774	33352.02
444.981	33288.54
445.187	34449.74
445.394	36028.72
445.6	35465.53
445.807	38899.97
446.013	37105.95
446.22	37497.11
446.426	38959.36
446.633	39278.85
446.839	40681.7
447.046	39031.04
447.252	40995.04
447.459	41255.14
447.665	41158.88
447.871	42901.7
448.078	44462.25
448.284	42553.55
448.491	43557.05
448.697	45338.79
448.903	46190.74
449.11	46112.92
449.316	45330.59
449.522	46309.52
449.728	47407.23
449.935	47208.58
450.141	47861.88
450.347	48824.43
450.553	47007.88
450.76	47526.02
450.966	48844.91
451.172	48562.29
451.378	49334.37
451.584	48781.42
451.791	50055.26
451.997	49743.97
452.203	50147.42
452.409	50563.15
452.615	49977.43
452.821	48066.68
453.027	47460.48
453.233	50190.42
453.44	48246.9
453.646	48748.65
453.852	48853.1
454.058	49721.44
454.264	47954.04
454.47	48754.8
454.676	48035.96
454.882	49633.38
455.088	44939.43
455.294	45875.35
455.5	46581.9
455.705	46909.58
455.911	44976.3
456.117	44730.54
456.323	43731.13
456.529	41359.58
456.735	43049.16
456.941	42143.95
457.147	41470.17
457.352	40009.97
457.558	39631.1
457.764	39860.47
457.97	38762.76
458.176	38156.56
458.381	38148.37
458.587	35989.81
458.793	35846.45
458.999	34265.42
459.204	36546.86
459.41	35596.6
459.616	33454.42
459.821	33304.92
460.027	33405.27
460.233	32455.01
460.438	30675.33
460.644	31330.68
460.85	29692.3
461.055	29153.69
461.261	29192.6
461.466	26894.78
461.672	26208.71
461.878	28129.7
462.083	26059.21
462.289	25524.69
462.494	25250.26
462.7	24373.73
462.905	23056.89
463.111	24592.86
463.316	24283.62
463.522	23728.62
463.727	23998.95
463.932	24039.91
464.138	23489.01
464.343	23581.17
464.549	22833.66
464.754	23636.46
464.959	23566.83
465.165	23149.04
465.37	22022.66
465.575	21651.98
465.781	22528.51
465.986	22366.72
466.191	21877.26
466.397	21418.51
466.602	20279.84
466.807	21148.18
467.012	21232.15
467.218	20900.37
467.423	20290.08
467.628	20392.48
467.833	21412.37
468.038	20714.01
468.244	20085.28
468.449	20982.29
468.654	20249.12
468.859	19986.98
469.064	19870.25
469.269	19063.35
469.474	19202.61
469.679	19591.72
469.885	19274.29
470.09	19438.12
470.295	19040.82
470.5	18590.27
470.705	18725.43
470.91	18620.99
471.115	18031.17
471.32	18674.23
471.525	18391.61
471.73	17998.4
471.935	17637.96
472.139	17175.12
472.344	17341
472.549	17379.92
472.754	17277.52
472.959	16859.73
473.164	16519.77
473.369	16185.95
473.574	16857.68
473.778	16480.86
473.983	16136.8
474.188	16130.66
474.393	15589.99
474.598	15526.5
474.802	15579.75
475.007	15252.08
475.212	15403.63
475.417	14717.56
475.621	14803.57
475.826	14668.41
476.031	14461.56
476.235	14156.41
476.44	14635.64
476.645	14066.3
476.849	14043.78
477.054	13933.18
477.259	13558.41
477.463	13826.69
477.668	13425.29
477.872	13677.19
478.077	13240.97
478.282	12862.1
478.486	12868.24
478.691	12843.67
478.895	12485.27
479.1	12653.2
479.304	12776.08
479.509	12333.72
479.713	12429.98
479.918	12243.61
480.122	11920.03
480.326	12440.22
480.531	12190.36
480.735	12157.6
480.94	12004
481.144	12151.45
481.348	11750.05
481.553	11829.92
481.757	11580.07
481.961	11885.22
482.166	11999.9
482.37	11645.6
482.574	11704.99
482.778	11633.32
482.983	11637.41
483.187	11590.31
483.391	11690.66
483.595	11487.91
483.8	11569.83
484.004	11565.73
484.208	11643.56
484.412	11551.4
484.616	11358.89
484.821	11633.32
485.025	11500.2
485.229	11401.9
485.433	11408.04
485.637	11719.33
485.841	11360.94
486.045	11354.79
486.249	11465.38
486.453	11420.33
486.657	11397.8
486.861	11424.42
487.065	11078.32
487.269	11508.39
487.473	11129.52
487.677	11539.11
487.881	11618.98
488.085	11547.3
488.289	11383.46
488.493	11381.42
488.697	11668.13
488.901	11436.71
489.105	11565.73
489.309	11399.85
489.512	11518.63
489.716	11702.95
489.92	11661.99
490.124	11541.16
490.328	11477.67
490.531	11645.6
490.735	11600.55
490.939	11481.77
491.143	11563.68
491.346	11704.99
491.55	11764.39
491.754	11819.68
491.958	11909.79
492.161	11752.1
492.365	11944.61
492.569	11967.13
492.772	12071.58
492.976	12202.65
493.18	12104.35
493.383	12249.75
493.587	12399.26
493.79	12477.08
493.994	12153.5
494.197	12477.08
494.401	12575.38
494.605	12315.29
494.808	12716.69
495.012	12661.4
495.215	12796.56
495.419	12907.15
495.622	12843.67
495.825	13197.96
496.029	13060.75
496.232	13216.4
496.436	13281.93
496.639	13697.67
496.843	13271.69
497.046	13642.37
497.249	13750.92
497.453	13816.45
497.656	14004.86
497.859	14072.45
498.063	14172.8
498.266	14404.22
498.469	14611.06
498.673	14365.31
498.876	15032.94
499.079	14832.24
499.282	15227.5
499.485	15313.52
499.689	15307.37
499.892	15702.63
500.095	15567.46
500.298	15891.04
500.501	15878.76
500.705	16374.36
500.908	16589.4
501.111	16493.15
501.314	16779.86
501.517	16976.47
501.72	16964.18
501.923	17136.21
502.126	17318.48
502.329	18027.07
502.532	17609.29
502.735	17855.04
502.938	18225.73
503.141	18268.73
503.344	19022.39
503.547	18551.35
503.75	18680.38
503.953	19151.41
504.156	19485.23
504.359	19536.43
504.562	19280.43
504.765	20013.6
504.968	20023.84
505.17	20189.73
505.373	20073
505.576	20615.71
505.779	20584.99
505.982	20892.18
506.185	21598.73
506.387	21393.93
506.59	21525
506.793	22043.14
506.996	22163.97
507.198	22299.14
507.401	22276.61
507.604	22546.94
507.807	22893.05
508.009	23124.47
508.212	23222.77
508.415	23570.93
508.617	23960.04
508.82	23919.08
509.022	23990.76
509.225	24285.67
509.428	24486.37
509.63	24893.91
509.833	24660.45
510.035	25481.68
510.238	25504.21
510.44	25643.47
510.643	25731.53
510.845	26214.85
511.048	25965
511.25	26524.1
511.453	26806.72
511.655	27460.02
511.858	27044.28
512.06	27238.84
512.262	27417.01
512.465	27548.08
512.667	27986.35
512.87	28172.71
513.072	28088.74
513.274	28500.39
513.477	28866.97
513.679	28989.85
513.881	29090.2
514.084	29407.64
514.286	29387.16
514.488	29987.21
514.69	30882.17
514.893	30671.23
515.095	30867.84
515.297	31113.59
515.499	30808.45
515.701	31226.23
515.904	31787.38
516.106	31662.45
516.308	32237.93
516.51	32301.42
516.712	32432.49
516.914	32508.26
517.116	33206.62
517.318	33012.06
517.52	33114.46
517.722	33345.88
517.925	33855.82
518.127	34201.93
518.329	34455.88
518.531	34107.72
518.733	34873.67
518.935	35025.21
519.136	34890.05
519.338	35598.65
519.54	35766.58
519.742	35639.61
519.944	36006.19
520.146	36348.2
520.348	36466.98
520.55	36018.48
520.752	36733.22
520.954	36935.97
521.155	36870.43
521.357	37159.2
521.559	37724.44
521.761	38326.54
521.963	37894.42
522.164	37949.71
522.366	37941.52
522.568	38484.23
522.77	38332.68
522.971	39117.06
523.173	38648.07
523.375	39190.78
523.576	39205.12
523.778	39117.06
523.98	39321.85
524.181	39874.8
524.383	39645.43
524.584	40294.64
524.786	39911.67
524.988	39788.79
525.189	40390.89
525.391	40890.6
525.592	40714.47
525.794	40780.01
525.995	40534.25
526.197	41064.67
526.398	40868.07
526.6	41074.91
526.801	41476.32
527.003	41189.6
527.204	41060.58
527.406	41773.27
527.607	41644.25
527.808	41607.39
528.01	41046.24
528.211	41713.88
528.412	42211.54
528.614	42012.88
528.815	41844.95
529.016	42395.85
529.218	41963.73
529.419	42117.33
529.62	42111.19
529.822	42041.56
530.023	42043.6
530.224	42066.13
530.425	42199.25
530.626	42037.46
530.828	42113.23
531.029	42698.95
531.23	41791.7
531.431	42025.17
531.632	42033.36
531.833	42555.6
532.035	42213.59
532.236	42442.96
532.437	42358.99
532.638	42203.35
532.839	42549.45
533.04	42490.06
533.241	42195.15
533.442	42963.14
533.643	42094.8
533.844	42197.2
534.045	42408.14
534.246	42295.5
534.447	42297.55
534.648	42027.22
534.849	42178.77
535.05	42246.35
535.251	41853.14
535.451	42256.59
535.652	42148.05
535.853	42076.37
536.054	42160.34
536.255	42369.23
536.456	41570.52
536.657	42266.83
536.857	42172.63
537.058	42074.32
537.259	42514.64
537.46	42299.6
537.66	41908.44
537.861	42019.03
538.062	42096.85
538.263	42074.32
538.463	41947.35
538.664	41988.31
538.865	42205.39
539.065	41793.75
539.266	41808.09
539.466	42557.64
539.667	41257.18
539.868	42356.94
540.068	41470.17
540.269	41574.62
540.469	41810.14
540.67	41175.27
540.87	41758.94
541.071	41378.01
541.271	41847
541.472	42002.64
541.672	41189.6
541.873	41603.29
542.073	41091.3
542.274	41949.4
542.474	41343.2
542.675	41146.59
542.875	41601.24
543.075	41564.38
543.276	41027.81
543.476	41593.05
543.676	41261.28
543.877	41623.77
544.077	41216.22
544.277	41107.68
544.478	41326.81
544.678	41435.36
544.878	41248.99
545.078	41126.11
545.279	40790.25
545.479	40790.25
545.679	41335.01
545.879	41205.98
546.079	41011.43
546.28	41251.04
546.48	40720.62
546.68	40888.55
546.88	41062.63
547.08	41097.44
547.28	40849.64
547.48	40542.44
547.68	41054.43
547.88	40753.38
548.081	40866.02
548.281	40810.73
548.481	40855.78
548.681	40704.23
548.881	40653.03
549.081	40945.89
549.28	40804.58
549.48	40945.89
549.68	41111.78
549.88	40902.89
550.08	40571.11
550.28	40554.73
550.48	40528.11
550.68	41242.85
550.88	40653.03
551.08	40669.42
551.279	40849.64
551.479	40521.96
551.679	40616.17
551.879	40276.21
552.079	40839.4
552.278	40153.33
552.478	40665.32
552.678	40411.37
552.878	40423.66
553.077	40141.04
553.277	39866.61
553.477	40655.08
553.676	40018.16
553.876	40548.59
554.076	40292.59
554.275	39891.19
554.475	39616.76
554.674	39909.62
554.874	40292.59
555.074	39860.47
555.273	40169.71
555.473	40358.13
555.672	39829.75
555.872	39731.45
556.071	40124.66
556.271	40364.27
556.47	40083.7
556.67	39643.38
556.869	39708.92
557.068	40165.62
557.268	39971.06
557.467	40102.13
557.667	39684.34
557.866	40018.16
558.065	39508.22
558.265	39780.6
558.464	39639.29
558.663	39710.97
558.863	39491.83
559.062	40134.9
559.261	39244.03
559.461	39874.8
559.66	39176.45
559.859	39575.8
560.058	39201.02
560.258	39655.67
560.457	39315.71
560.656	39813.37
560.855	39221.5
561.054	39377.15
561.253	38850.82
561.453	39336.19
561.652	39559.42
561.851	39436.54
562.05	39448.83
562.249	38981.89
562.448	39393.53
562.647	38932.74
562.846	38932.74
563.045	39375.1
563.244	38932.74
563.443	39604.47
563.642	38854.92
563.841	38811.91
564.04	38914.31
564.239	38940.93
564.438	38660.36
564.637	38553.87
564.836	39039.23
565.035	38250.77
565.234	39137.54
565.432	38834.44
565.631	38347.02
565.83	38971.65
566.029	38398.22
566.228	38371.6
566.427	38377.74
566.625	38277.39
566.824	38170.89
567.023	38498.57
567.222	38086.93
567.42	38775.05
567.619	38506.76
567.818	38301.96
568.016	38236.43
568.215	38580.49
568.414	37990.67
568.612	38398.22
568.811	38064.4
569.01	38400.27
569.208	37753.11
569.407	38080.78
569.605	37873.94
569.804	38228.24
570.002	37826.84
570.201	37865.75
570.4	37509.4
570.598	37964.05
570.797	37622.04
570.995	37724.44
571.193	37378.33
571.392	37957.91
571.59	37064.99
571.789	37470.49
571.987	37562.65
572.186	37669.14
572.384	37282.08
572.582	37407
572.781	37439.77
572.979	37048.61
573.177	37175.58
573.376	37599.51
573.574	36653.35
573.772	37282.08
573.971	37007.65
574.169	36770.08
574.367	36684.07
574.565	37357.85
574.763	36915.49
574.962	36440.36
575.16	36561.19
575.358	36960.55
575.556	36503.85
575.754	36749.6
575.952	36413.74
576.151	36997.41
576.349	36413.74
576.547	36110.64
576.745	36137.26
576.943	36428.07
577.141	36602.15
577.339	36542.76
577.537	36706.6
577.735	36342.06
577.933	35809.59
578.131	36075.82
578.329	35881.27
578.527	35653.94
578.725	35795.25
578.923	35862.83
579.121	35991.86
579.319	35709.24
579.516	35535.16
579.714	35813.68
579.912	35696.95
580.11	35662.13
580.308	35410.23
580.506	35889.46
580.704	34701.64
580.901	35275.07
581.099	35825.97
581.297	34855.23
581.495	35199.29
581.692	35375.42
581.89	35006.78
582.088	35354.94
582.285	34978.11
582.483	35389.75
582.681	35227.96
582.878	35115.33
583.076	34709.83
583.274	34986.3
583.471	34609.48
583.669	34429.26
583.866	34406.73
584.064	34474.31
584.262	34126.16
584.459	34539.85
584.657	34007.37
584.854	34795.84
585.052	33718.61
585.249	34322.76
585.447	34318.67
585.644	34138.44
585.841	34255.18
586.039	34195.79
586.236	33915.22
586.434	33952.08
586.631	33657.17
586.828	33630.55
587.026	33796.43
587.223	33694.04
587.42	33675.6
587.618	33677.65
587.815	33315.16
588.012	33601.88
588.21	33018.21
588.407	33411.42
588.604	33251.67
588.801	33083.74
588.999	33280.35
589.196	32981.34
589.393	33180
589.59	32901.47
589.787	33040.73
589.984	33325.4
590.182	32502.12
590.379	33083.74
590.576	32407.91
590.773	32604.52
590.97	32424.29
591.167	32835.94
591.364	32395.62
591.561	32598.37
591.758	32348.52
591.955	32430.44
592.152	32792.93
592.349	32385.38
592.546	32211.31
592.743	32336.23
592.94	32037.23
593.137	32344.42
593.334	32266.6
593.531	31830.38
593.727	32010.6
593.924	32223.59
594.121	31965.55
594.318	32074.09
594.515	31953.26
594.712	32113
594.908	31947.12
595.105	32125.29
595.302	31420.79
595.499	31990.13
595.696	31666.55
595.892	31660.4
596.089	31707.51
596.286	31545.72
596.482	31330.68
596.679	31351.16
596.876	31510.9
597.072	31416.69
597.269	31347.06
597.466	31207.8
597.662	31226.23
597.859	31236.47
598.055	31187.32
598.252	31240.57
598.448	31015.29
598.645	31039.87
598.841	30740.86
599.038	30783.87
599.234	31021.44
599.431	30472.58
599.627	30767.49
599.824	31250.81
600.02	30550.4
600.217	30679.43
600.413	30830.97
600.609	30683.52
600.806	30624.13
601.002	30609.79
601.198	30558.6
601.395	30529.92
601.591	30706.05
601.787	30802.3
601.984	30468.48
602.18	30863.74
602.376	30165.39
602.572	30427.53
602.769	30384.52
602.965	30134.67
603.161	30525.83
603.357	30415.24
603.553	30157.19
603.75	30382.47
603.946	29952.4
604.142	30388.61
604.338	30034.32
604.534	30218.63
604.73	29850
604.926	29931.92
605.122	30042.51
605.318	30384.52
605.514	30298.5
605.71	30165.39
605.906	30314.89
606.102	30267.78
606.298	30243.21
606.494	29893.01
606.69	29931.92
606.886	30073.23
607.082	29589.91
607.278	30071.18
607.474	29565.33
607.67	30380.42
607.866	29833.61
608.062	30269.83
608.257	29766.03
608.453	29761.94
608.649	30159.24
608.845	29938.06
609.041	30085.51
609.236	30019.98
609.432	29888.91
609.628	30216.58
609.824	30024.08
610.019	30093.71
610.215	30359.94
610.411	30263.69
610.606	30263.69
610.802	30314.89
610.998	30040.46
611.193	30359.94
611.389	30245.26
611.584	30546.31
611.78	30122.38
611.976	30464.39
612.171	30359.94
612.367	30527.88
612.562	30732.67
612.758	30040.46
612.953	30189.96
613.149	30884.22
613.344	30239.11
613.539	30593.41
613.735	30437.76
613.93	30704
614.126	30239.11
614.321	30984.57
614.517	30581.12
614.712	30339.46
614.907	30562.69
615.103	30960
615.298	30650.75
615.493	31066.49
615.688	30396.81
615.884	31381.88
616.079	30433.67
616.274	31039.87
616.47	30669.19
616.665	30878.08
616.86	30978.43
617.055	30816.64
617.25	30814.59
617.445	31232.38
617.641	30749.06
617.836	31015.29
618.031	30382.47
618.226	30994.81
618.421	30880.13
618.616	31138.17
618.811	30753.15
619.006	30837.12
619.201	30699.9
619.396	31261.05
619.591	30798.21
619.786	30757.25
619.981	30448
620.176	31015.29
620.371	30501.25
620.566	30712.19
620.761	30640.51
620.956	30523.78
621.151	30097.8
621.346	30243.21
621.541	30296.46
621.735	30388.61
621.93	30046.6
622.125	29997.45
622.32	29743.5
622.515	30071.18
622.709	29659.54
622.904	29667.73
623.099	29438.36
623.294	29878.67
623.488	29309.33
623.683	29548.95
623.878	29409.68
624.072	29776.27
624.267	29362.58
624.462	29354.39
624.656	29026.71
624.851	29215.13
625.046	28848.54
625.24	29057.43
625.435	28819.87
625.629	28588.45
625.824	28590.5
626.018	28651.94
626.213	28051.88
626.407	28434.85
626.602	27902.38
626.796	28238.25
626.991	28275.11
627.185	28055.98
627.38	27873.71
627.574	27740.59
627.768	27718.06
627.963	27304.37
628.157	27570.61
628.352	27591.09
628.546	27296.18
628.74	27560.37
628.935	27007.42
629.129	27089.34
629.323	27052.47
629.517	26954.17
629.712	27181.49
629.906	26933.69
630.1	26290.63
630.294	26841.53
630.489	26073.54
630.683	26827.2
630.877	26083.78
631.071	25975.24
631.265	26255.81
631.459	26059.21
631.653	25872.84
631.848	26120.65
632.042	25788.88
632.236	25913.8
632.43	25536.98
632.624	25635.28
632.818	25235.92
633.012	24793.56
633.206	25301.46
633.4	25428.43
633.594	24977.88
633.788	24953.3
633.982	24734.17
634.176	24728.03
634.369	24449.5
634.563	24994.26
634.757	24334.82
634.951	24496.61
635.145	24414.69
635.339	24156.64
635.533	24656.35
635.726	24297.95
635.92	24373.73
636.114	23783.91
636.308	23661.04
636.501	23882.22
636.695	23767.53
636.889	23523.82
637.083	23564.78
637.276	23376.37
637.47	23325.17
637.664	22876.66
637.857	23147
638.051	23269.87
638.244	22876.66
638.438	23058.93
638.632	22936.06
638.825	22684.16
639.019	22727.16
639.212	22399.49
639.406	22637.05
639.599	22338.05
639.793	22573.56
639.986	21754.38
640.18	22159.88
640.373	21963.27
640.567	21629.45
640.76	21910.02
640.954	21475.85
641.147	21441.04
641.34	21436.94
641.534	21602.83
641.727	21101.08
641.92	21432.85
642.114	21101.08
642.307	20879.89
642.5	21029.4
642.694	20789.78
642.887	20363.81
643.08	20707.87
643.273	20429.34
643.467	20376.09
643.66	20261.41
643.853	19999.27
644.046	19880.49
644.239	19993.12
644.432	19993.12
644.626	19806.76
644.819	19667.5
645.012	19733.03
645.205	19546.67
645.398	19540.52
645.591	19307.05
645.784	19167.79
645.977	19235.38
646.17	19106.35
646.363	18821.69
646.556	18610.75
646.749	18741.82
646.942	18799.16
647.135	18510.39
647.328	18569.79
647.521	18477.63
647.714	18168.38
647.907	17873.48
648.099	18059.84
648.292	18176.58
648.485	18057.79
648.678	17453.64
648.871	17736.26
649.064	17541.71
649.256	17789.51
649.449	17314.38
649.642	17500.75
649.835	17039.95
650.027	17404.49
650.22	16970.32
650.413	17136.21
650.605	17015.38
650.798	16738.9
650.991	16491.1
651.183	16743
651.376	16140.9
651.568	16333.4
651.761	16511.58
651.954	15993.44
652.146	16069.22
652.339	16048.74
652.531	15850.08
652.724	15768.16
652.916	15366.76
653.109	15692.39
653.301	15370.86
653.494	15520.36
653.686	15247.98
653.879	15288.94
654.071	15114.86
654.263	14944.88
654.456	15006.32
654.648	15166.06
654.84	14705.27
655.033	14611.06
655.225	14455.42
655.417	14600.82
655.61	14469.75
655.802	14531.19
655.994	14140.03
656.186	14318.2
656.379	14217.85
656.571	13822.59
656.763	14099.07
656.955	13849.22
657.148	13722.24
657.34	13693.57
657.532	13453.96
657.724	13251.21
657.916	13539.97
658.108	13298.31
658.3	13216.4
658.492	13093.52
658.684	12999.31
658.876	12909.2
659.068	12728.98
659.26	12706.45
659.452	12755.6
659.644	12649.11
659.836	12432.02
660.028	12481.17
660.22	12053.15
660.412	12167.84
660.604	12018.33
660.796	12188.32
660.988	11913.89
661.18	11829.92
661.372	11786.91
661.563	11862.69
661.755	11735.71
661.947	11481.77
662.139	11451.05
662.331	11496.1
662.522	11307.69
662.714	11266.73
662.906	11172.52
663.097	11098.8
663.289	10896.05
663.481	10941.1
663.673	11133.61
663.864	10726.07
664.056	10719.92
664.247	10685.11
664.439	10414.77
664.631	10351.29
664.822	10488.5
665.014	10564.28
665.205	10375.86
665.397	10201.79
665.588	10160.83
665.78	10107.58
665.971	10027.71
666.163	9808.58
666.354	9870.01
666.546	9796.29
666.737	9804.48
666.929	9575.11
667.12	9896.64
667.311	9511.62
667.503	9415.37
667.694	9728.7
667.885	9163.47
668.077	9558.72
668.268	9265.86
668.459	9126.6
668.651	9224.9
668.842	9093.83
669.033	8921.81
669.224	8891.09
669.416	8958.67
669.607	8846.03
669.798	8942.28
669.989	9001.68
670.18	8680.14
670.371	8637.14
670.563	8469.2
670.754	8665.81
670.945	8461.01
671.136	8499.92
671.327	8309.46
671.518	8424.15
671.709	8307.41
671.9	8467.16
672.091	8434.39
672.282	8182.49
672.473	8221.4
672.664	8385.24
672.855	8223.45
673.046	8225.5
673.237	8039.13
673.428	8194.78
673.619	7899.87
673.809	7885.53
674	7848.67
674.191	7924.44
674.382	7725.79
674.573	7783.13
674.764	7867.1
674.954	7869.15
675.145	7711.46
675.336	7588.58
675.527	7647.97
675.717	7578.34
675.908	7533.28
676.099	7639.78
676.289	7576.29
676.48	7480.04
676.671	7496.42
676.861	7469.8
677.052	7549.67
677.243	7383.78
677.433	7178.98
677.624	7408.36
677.814	7166.7
678.005	7334.63
678.195	7226.09
678.386	7219.94
678.576	7201.51
678.767	6970.09
678.957	7238.37
679.148	7115.5
679.338	7140.07
679.529	7064.3
679.719	7000.81
679.909	6984.43
680.1	6937.32
680.29	7148.26
680.481	7013.1
680.671	7015.15
680.861	6943.47
681.052	6861.55
681.242	6773.49
681.432	6935.28
681.622	6691.57
681.813	6707.95
682.003	6845.16
682.193	6705.9
682.383	6824.69
682.573	6734.57
682.764	6511.35
682.954	6959.85
683.144	6732.53
683.334	6802.16
683.524	6556.4
683.714	6738.67
683.904	6580.98
684.094	6605.55
684.284	6482.67
684.474	6748.91
684.664	6519.54
684.854	6720.24
685.044	6468.34
685.234	6542.07
685.424	6562.55
685.614	6675.18
685.804	6644.46
685.994	6488.82
686.184	6535.92
686.374	6550.26
686.564	6501.11
686.753	6439.67
686.943	6355.7
687.133	6398.71
687.323	6437.62
687.513	6509.3
687.702	6417.14
687.892	6445.81
688.082	6415.09
688.272	6312.69
688.461	6445.81
688.651	6308.6
688.841	6279.93
689.03	6214.39
689.22	6249.21
689.41	6218.49
689.599	6220.53
689.789	6294.26
689.979	6179.58
690.168	6337.27
690.358	6099.7
690.547	6234.87
690.737	6345.46
690.926	6185.72
691.116	6068.98
691.305	6220.53
691.495	6114.04
691.684	6085.37
691.874	6034.17
692.063	6212.34
692.252	6122.23
692.442	6062.84
692.631	5995.26
692.82	6007.55
693.01	5786.37
693.199	5905.15
693.388	6122.23
693.578	6093.56
693.767	6202.1
693.956	5978.87
694.146	6042.36
694.335	5923.58
694.524	5794.56
694.713	6052.6
694.902	5913.34
695.092	6023.93
695.281	5821.18
695.47	6038.27
695.659	5962.49
695.848	5925.63
696.037	5749.5
696.226	5882.62
696.415	5823.23
696.604	5841.66
696.793	5868.28
696.982	5806.84
697.171	5858.04
697.36	5690.11
697.549	5860.09
697.738	5849.85
697.927	5602.05
698.116	5774.08
698.305	5849.85
698.494	5718.78
698.683	5696.25
698.872	5878.52
699.061	5745.41
699.25	5876.48
699.438	5765.89
699.627	5745.41
699.816	5933.82
700.005	5819.13
700.193	5683.97
700.382	5987.07
700.571	5710.59
700.76	5757.69
700.948	5796.6
701.137	5790.46
701.326	5757.69
701.514	5677.82
701.703	5659.39
701.892	5608.19
702.08	5708.54
702.269	5806.84
702.457	5503.75
702.646	5501.7
702.834	5509.89
703.023	5647.1
703.212	5585.66
703.4	5604.1
703.589	5448.45
703.777	5489.41
703.965	5579.52
704.154	5456.64
704.342	5638.91
704.531	5577.47
704.719	5384.96
704.907	5509.89
705.096	5532.42
705.284	5620.48
705.472	5565.18
705.661	5501.7
705.849	5563.14
706.037	5395.2
706.226	5389.06
706.414	5534.46
706.602	5253.89
706.79	5370.63
706.979	5509.89
707.167	5282.56
707.355	5217.03
707.543	5344
707.731	5311.24
707.919	5233.41
708.107	5208.84
708.296	5192.45
708.484	5182.21
708.672	5225.22
708.86	5153.54
709.048	5184.26
709.236	5124.87
709.424	5290.76
709.612	5176.07
709.8	5169.93
709.988	5186.31
710.176	5163.78
710.364	5151.49
710.551	5030.66
710.739	5001.99
710.927	5053.19
711.115	5196.55
711.303	5120.78
711.491	5161.73
711.679	4891.4
711.866	4862.73
712.054	5088.01
712.242	4858.64
712.43	5042.95
712.617	4961.03
712.805	4973.32
712.993	4913.93
713.181	4719.37
713.368	5065.48
713.556	4868.88
713.744	4875.02
713.931	4981.51
714.119	4795.15
714.306	4795.15
714.494	4795.15
714.682	4746
714.869	4756.24
715.057	4883.21
715.244	4657.93
715.432	4930.31
715.619	4715.28
715.807	4727.57
715.994	4717.33
716.182	4670.22
716.369	4725.52
716.556	4848.4
716.744	4666.13
716.931	4633.36
717.119	4537.1
717.306	4557.58
717.493	4639.5
717.681	4580.11
717.868	4498.19
718.055	4578.06
718.242	4569.87
718.43	4551.44
718.617	4580.11
718.804	4463.38
718.991	4641.55
719.179	4385.55
719.366	4500.24
719.553	4444.95
719.74	4614.93
719.927	4442.9
720.114	4256.53
720.301	4428.56
720.488	4385.55
720.676	4383.51
720.863	4401.94
721.05	4393.75
721.237	4307.73
721.424	4203.29
721.611	4424.47
721.798	4205.33
721.985	4125.46
722.172	4205.33
722.358	4211.48
722.545	4338.45
722.732	4084.5
722.919	4262.68
723.106	4203.29
723.293	4248.34
723.48	4164.37
723.667	4096.79
723.853	4279.06
724.04	4213.53
724.227	4043.54
724.414	4066.07
724.6	3978.01
724.787	4143.89
724.974	4291.35
725.161	4008.73
725.347	4150.04
725.534	4127.51
725.72	4039.45
725.907	4047.64
726.094	4178.71
726.28	4006.68
726.467	3978.01
726.653	3881.75
726.84	3814.17
727.027	4135.7
727.213	3963.67
727.4	3965.72
727.586	3908.38
727.773	3803.93
727.959	3949.34
728.145	3820.32
728.332	3793.69
728.518	3805.98
728.705	3904.28
728.891	3822.36
729.077	3887.9
729.264	3799.84
729.45	3732.25
729.636	3814.17
729.823	3775.26
730.009	3857.18
730.195	3775.26
730.382	3676.96
730.568	3683.1
730.754	3685.15
730.94	3672.86
731.126	3736.35
731.313	3838.75
731.499	3701.53
731.685	3676.96
731.871	3719.96
732.057	3652.38
732.243	3744.54
732.429	3613.47
732.615	3564.32
732.801	3521.31
732.987	3519.26
733.173	3539.74
733.359	3511.07
733.545	3592.99
733.731	3476.26
733.917	3578.65
734.103	3506.98
734.289	3406.63
734.475	3482.4
734.661	3545.89
734.847	3394.34
735.033	3373.86
735.219	3410.72
735.404	3386.15
735.59	3414.82
735.776	3461.92
735.962	3236.64
736.148	3365.67
736.333	3459.87
736.519	3367.71
736.705	3275.56
736.89	3392.29
737.076	3238.69
737.262	3263.27
737.447	3265.32
737.633	3263.27
737.819	3302.18
738.004	3283.75
738.19	3300.13
738.375	3097.38
738.561	3277.6
738.747	3277.6
738.932	3140.39
739.118	3167.01
739.303	3226.4
739.489	3017.51
739.674	3081
739.859	2968.36
740.045	3152.68
740.23	3101.48
740.416	3029.8
740.601	3064.61
740.786	3007.27
740.972	3081
741.157	2949.93
741.342	2947.88
741.528	2861.87
741.713	3031.85
741.898	2898.73
742.084	2917.16
742.269	3003.18
742.454	2917.16
742.639	2845.48
742.824	2847.53
743.01	2986.79
743.195	2931.5
743.38	2908.97
743.565	2784.04
743.75	2851.63
743.935	2849.58
744.12	2917.16
744.305	2521.9
744.49	2652.97
744.675	2753.32
744.86	2786.09
745.045	2743.08
745.23	2622.25
745.415	2612.01
745.6	2687.79
745.785	2507.57
745.97	2556.72
746.155	2487.09
746.34	2607.92
746.525	2632.49
746.71	2593.58
746.895	2579.25
747.079	2487.09
747.264	2485.04
747.449	2478.9
747.634	2542.38
747.819	2546.48
748.003	2399.02
748.188	2325.3
748.373	2353.97
748.557	2442.03
748.742	2384.69
748.927	2476.85
749.111	2356.02
749.296	2345.78
749.481	2370.35
749.665	2419.5
749.85	2308.91
750.034	2368.31
750.219	2296.63
750.404	2241.33
750.588	2249.52
750.773	2251.57
750.957	2167.6
751.141	2151.22
751.326	2222.9
751.51	2169.65
751.695	2116.41
751.879	2134.84
752.064	2229.04
752.248	2214.71
752.432	2229.04
752.617	2145.08
752.801	2054.97
752.985	2034.49
753.17	2095.93
753.354	1977.14
753.538	2073.4
753.722	1827.64
753.907	2005.81
754.091	1917.75
754.275	2003.77
754.459	1956.66
754.643	1864.5
754.828	1901.37
755.012	2057.01
755.196	1946.42
755.38	1938.23
755.564	1880.89
755.748	1823.55
755.932	1936.18
756.116	1784.63
756.3	1821.5
756.484	1817.4
756.668	1790.78
756.852	1717.05
757.036	1848.12
757.22	1676.09
757.404	1715
757.588	1727.29
757.772	1686.33
757.956	1626.94
758.14	1788.73
758.323	1581.89
758.507	1598.27
758.691	1735.48
758.875	1669.95
759.059	1735.48
759.242	1680.19
759.426	1567.55
759.61	1624.89
759.794	1581.89
759.977	1565.5
760.161	1747.77
760.345	1645.37
760.528	1620.8
760.712	1633.08
760.895	1530.69
761.079	1620.8
761.263	1463.1
761.446	1567.55
761.63	1590.08
761.813	1413.95
761.997	1489.73
762.18	1520.45
762.364	1483.58
762.547	1420.1
762.731	1508.16
762.914	1485.63
763.098	1489.73
763.281	1387.33
763.464	1502.01
763.648	1583.93
763.831	1442.62
764.015	1489.73
764.198	1368.9
764.381	1416
764.564	1454.91
764.748	1516.35
764.931	1479.49
765.114	1317.7
765.297	1436.48
765.481	1274.69
765.664	1377.09
765.847	1407.81
766.03	1446.72
766.213	1413.95
766.397	1321.79
766.58	1325.89
766.763	1372.99
766.946	1329.99
767.129	1303.36
767.312	1321.79
767.495	1362.75
767.678	1332.03
767.861	1372.99
768.044	1348.42
768.227	1348.42
768.41	1405.76
768.593	1321.79
768.776	1383.23
768.959	1350.46
769.142	1393.47
769.324	1313.6
769.507	1313.6
769.69	1233.73
769.873	1258.31
770.056	1358.66
770.239	1293.12
770.421	1284.93
770.604	1262.4
770.787	1252.16
770.97	1243.97
771.152	1182.53
771.335	1332.03
771.518	1241.92
771.7	1225.54
771.883	1235.78
772.066	1203.01
772.248	1241.92
772.431	1162.05
772.613	1184.58
772.796	1084.23
772.978	1289.03
773.161	1258.31
773.343	1205.06
773.526	1254.21
773.708	1147.72
773.891	1119.04
774.073	1039.17
774.256	1045.32
774.438	1145.67
774.621	1184.58
774.803	1098.56
774.985	1039.17
775.168	1198.92
775.35	1045.32
775.532	1114.95
775.715	1061.7
775.897	1043.27
776.079	1041.22
776.261	1112.9
776.444	1024.84
776.626	1106.76
776.808	1063.75
776.99	983.88
777.173	1082.18
777.355	1004.36
777.537	1012.55
777.719	1112.9
777.901	916.3
778.083	1037.13
778.265	979.78
778.447	1016.65
778.629	942.92
778.811	881.48
778.993	987.97
779.175	897.86
779.357	1010.5
779.539	867.14
779.721	940.87
779.903	1002.31
780.085	854.86
780.267	922.44
780.449	992.07
780.631	934.73
780.812	1043.27
780.994	803.66
781.176	787.27
781.358	891.72
781.54	875.34
781.721	879.43
781.903	879.43
782.085	850.76
782.267	836.42
782.448	762.7
782.63	774.99
782.812	834.38
782.993	820.04
783.175	836.42
783.357	697.16
783.538	768.84
783.72	740.17
783.901	746.31
784.083	828.23
784.264	762.7
784.446	719.69
784.627	656.2
784.809	742.22
784.99	748.36
785.172	781.13
785.353	779.08
785.535	688.97
785.716	734.03
785.897	553.8
786.079	756.55
786.26	682.83
786.441	701.26
786.623	656.2
786.804	668.49
786.985	645.96
787.167	605
787.348	686.92
787.529	566.09
787.71	691.02
787.891	613.2
788.073	586.57
788.254	588.62
788.435	715.59
788.616	627.53
788.797	570.19
788.978	586.57
789.159	539.47
789.34	688.97
789.522	623.44
789.703	574.28
789.884	592.72
790.065	553.8
790.246	697.16
790.427	596.81
790.607	635.72
790.788	586.57
790.969	488.27
791.15	594.76
791.331	539.47
791.512	518.99
791.693	467.79
791.874	484.17
792.054	633.68
792.235	523.09
792.416	422.73
792.597	537.42
792.778	492.37
792.958	568.14
793.139	547.66
793.32	525.13
793.5	516.94
793.681	564.04
793.862	504.65
794.042	451.41
794.223	453.45
794.404	406.35
794.584	385.87
794.765	471.89
794.945	463.69
795.126	537.42
795.306	621.39
795.487	508.75
795.667	447.31
795.848	455.5
796.028	459.6
796.209	455.5
796.389	414.54
796.57	367.44
796.75	443.21
796.93	398.16
797.111	371.54
797.291	334.67
797.471	371.54
797.652	414.54
797.832	342.86
798.012	455.5
798.192	342.86
798.373	357.2
798.553	330.58
798.733	394.06
798.913	369.49
799.093	334.67
799.274	392.02
799.454	449.36
799.634	318.29
799.814	377.68
799.994	375.63
800.174	344.91
800.354	385.87
800.534	310.1
800.714	402.26
800.894	281.43
801.074	326.48
801.254	330.58
801.434	445.26
801.614	342.86
801.794	387.92
801.974	1303.36
802.154	312.14
802.334	402.26
802.514	222.03
802.693	396.11
802.873	359.25
803.053	394.06
803.233	365.39
803.413	258.9
803.592	346.96
803.772	357.2
803.952	408.4
804.131	310.1
804.311	365.39
804.491	422.73
804.67	281.43
804.85	287.57
805.03	373.58
805.209	326.48
805.389	267.09
805.568	232.27
805.748	326.48
805.928	295.76
806.107	301.9
806.287	342.86
806.466	240.47
806.646	357.2
806.825	306
807.004	285.52
807.184	260.95
807.363	336.72
807.543	277.33
807.722	293.71
807.901	287.57
808.081	283.47
808.26	209.75
808.439	271.19
808.619	316.24
808.798	258.9
808.977	295.76
809.156	250.71
809.336	236.37
809.515	238.42
809.694	213.84
809.873	322.38
810.052	236.37
810.231	291.66
810.411	240.47
810.59	246.61
810.769	287.57
810.948	340.82
811.127	187.22
811.306	211.79
811.485	189.27
811.664	158.55
811.843	244.56
812.022	267.09
812.201	297.81
812.38	193.36
812.559	291.66
812.737	254.8
812.916	209.75
813.095	222.03
813.274	287.57
813.453	187.22
813.632	146.26
813.811	310.1
813.989	267.09
814.168	283.47
814.347	158.55
814.526	217.94
814.704	154.45
814.883	295.76
815.062	197.46
815.24	242.51
815.419	129.88
815.598	219.99
815.776	189.27
815.955	183.12
816.133	146.26
816.312	168.79
816.49	152.4
816.669	199.51
816.847	240.47
817.026	209.75
817.204	211.79
817.383	248.66
817.561	150.36
817.74	185.17
817.918	234.32
818.097	123.73
818.275	195.41
818.453	269.14
818.632	197.46
818.81	244.56
818.988	160.59
819.167	123.73
819.345	117.59
819.523	117.59
819.701	250.71
819.879	172.88
820.058	105.3
820.236	189.27
820.414	140.12
820.592	183.12
820.77	119.64
820.948	70.48
821.127	228.18
821.305	146.26
821.483	131.92
821.661	170.83
821.839	185.17
822.017	84.82
822.195	152.4
822.373	129.88
822.551	191.31
822.729	181.07
822.907	150.36
823.085	197.46
823.262	136.02
823.44	82.77
823.618	236.37
823.796	103.25
823.974	93.01
824.152	136.02
824.329	103.25
824.507	197.46
824.685	152.4
824.863	82.77
825.04	174.93
825.218	129.88
825.396	90.96
825.574	144.21
825.751	183.12
825.929	234.32
826.107	82.77
826.284	140.12
826.462	129.88
826.639	60.24
826.817	56.15
826.994	154.45
827.172	140.12
827.349	152.4
827.527	93.01
827.704	136.02
827.882	97.11
828.059	154.45
828.237	107.35
828.414	150.36
828.591	41.81
828.769	127.83
828.946	17.24
829.124	123.73
829.301	164.69
829.478	78.68
829.655	174.93
829.833	88.92
830.01	15.19
830.187	150.36
830.364	64.34
830.542	70.48
830.719	176.98
830.896	142.16
831.073	162.64
831.25	86.87
831.427	129.88
831.604	158.55
831.782	138.07
831.959	129.88
832.136	99.16
832.313	129.88
832.49	119.64
832.667	76.63
832.844	23.38
833.021	146.26
833.198	78.68
833.374	58.2
833.551	84.82
833.728	74.58
833.905	138.07
834.082	9.05
834.259	179.03
834.436	150.36
834.612	72.53
834.789	199.51
834.966	58.2
835.143	133.97
835.319	52.05
835.496	64.34
835.673	133.97
835.85	76.63
836.026	88.92
836.203	199.51
836.38	109.4
836.556	97.11
836.733	86.87
836.909	170.83
837.086	45.91
837.262	45.91
837.439	2.9
837.616	117.59
837.792	127.83
837.968	93.01
838.145	-19.63
838.321	119.64
838.498	88.92
838.674	115.54
838.851	88.92
839.027	107.35
839.203	86.87
839.38	119.64
839.556	76.63
839.732	105.3
839.909	95.06
840.085	76.63
840.261	41.81
840.437	115.54
840.614	80.72
840.79	150.36
840.966	56.15
841.142	31.57
841.318	131.92
841.494	29.52
841.671	41.81
841.847	142.16
842.023	60.24
842.199	125.78
842.375	0.85
842.551	0.85
842.727	43.86
842.903	105.3
843.079	-15.53
843.255	23.38
843.431	21.33
843.607	31.57
843.783	-72.87
843.959	101.2
844.134	74.58
844.31	93.01
844.486	68.44
844.662	54.1
844.838	88.92
845.013	39.76
845.189	88.92
845.365	62.29
845.541	54.1
845.716	74.58
845.892	35.67
846.068	54.1
846.244	84.82
846.419	170.83
846.595	25.43
846.77	103.25
846.946	78.68
847.122	62.29
847.297	25.43
847.473	172.88
847.648	4.95
847.824	70.48
847.999	-52.39
848.175	54.1
848.35	64.34
848.526	60.24
848.701	33.62
848.876	37.72
849.052	39.76
849.227	76.63
849.403	-46.25
849.578	-21.67
849.753	74.58
849.929	35.67
850.104	23.38
850.279	13.14
850.454	58.2
850.63	25.43
850.805	21.33
850.98	97.11
851.155	27.48
851.33	33.62
851.505	2.9
851.681	142.16
851.856	-9.39
852.031	154.45
852.206	54.1
852.381	9.05
852.556	37.72
852.731	68.44
852.906	123.73
853.081	43.86
853.256	131.92
853.431	-50.35
853.606	15.19
853.781	17.24
853.956	-11.43
854.131	54.1
854.305	47.96
854.48	23.38
854.655	43.86
854.83	-11.43
855.005	11.09
855.18	86.87
855.354	15.19
855.529	95.06
855.704	4.95
855.879	74.58
856.053	-15.53
856.228	41.81
856.403	-1.19
856.577	-23.72
856.752	-38.06
856.926	39.76
857.101	45.91
857.276	4.95
857.45	35.67
857.625	9.05
857.799	95.06
857.974	50
858.148	-21.67
858.323	-5.29
858.497	17.24
858.672	-44.2
858.846	-40.11
859.02	52.05
859.195	-31.91
859.369	4.95
859.543	107.35
859.718	39.76
859.892	2.9
860.066	93.01
860.241	33.62
860.415	-19.63
860.589	-54.44
860.763	-31.91
860.938	27.48
861.112	-56.49
861.286	-29.87
861.46	31.57
861.634	-17.58
861.808	78.68
861.982	27.48
862.157	0.85
862.331	66.39
862.505	-52.39
862.679	-29.87
862.853	47.96
863.027	19.29
863.201	-17.58
863.375	-48.3
863.549	37.72
863.722	33.62
863.896	50
864.07	-13.48
864.244	-9.39
864.418	17.24
864.592	50
864.766	47.96
864.939	144.21
865.113	-3.24
865.287	68.44
865.461	7
865.634	52.05
865.808	-27.82
865.982	33.62
866.156	-46.25
866.329	-3.24
866.503	-5.29
866.676	19.29
866.85	58.2
867.024	-36.01
867.197	78.68
867.371	29.52
867.544	-9.39
867.718	-70.83
867.891	62.29
868.065	-52.39
868.238	17.24
868.412	60.24
868.585	-56.49
868.759	19.29
868.932	68.44
869.105	-38.06
869.279	23.38
869.452	11.09
869.625	0.85
869.799	-52.39
869.972	21.33
870.145	-56.49
870.319	33.62
870.492	-27.82
870.665	19.29
870.838	21.33
871.011	0.85
871.185	56.15
871.358	-54.44
871.531	45.91
871.704	-19.63
871.877	25.43
872.05	9.05
872.223	-38.06
872.396	21.33
872.569	97.11
872.742	17.24
872.915	76.63
873.088	-85.16
873.261	-38.06
873.434	70.48
873.607	56.15
873.78	-31.91
873.953	-42.15
874.126	84.82
874.299	62.29
874.471	-23.72
874.644	64.34
874.817	113.49
874.99	90.96
875.163	31.57
875.335	0.85
875.508	25.43
875.681	68.44
875.853	21.33
876.026	4.95
876.199	35.67
876.371	103.25
876.544	11.09
876.717	9.05
876.889	-5.29
877.062	90.96
877.234	-38.06
877.407	-36.01
877.579	78.68
877.752	17.24
877.924	11.09
878.097	-3.24
878.269	-38.06
878.442	52.05
878.614	43.86
878.786	-13.48
878.959	86.87
879.131	-3.24
879.303	-60.59
879.476	45.91
879.648	21.33
879.82	41.81
879.993	-23.72
880.165	11.09
880.337	-93.35
880.509	74.58
880.681	-40.11
880.854	-91.31
881.026	45.91
881.198	72.53
881.37	7
881.542	58.2
881.714	-1.19
881.886	-44.2
882.058	23.38
882.23	54.1
882.402	-89.26
882.574	60.24
882.746	101.2
882.918	19.29
883.09	50
883.262	-66.73
883.434	43.86
883.606	-27.82
883.778	4.95
883.95	111.44
884.122	-11.43
884.293	37.72
884.465	-1.19
884.637	13.14
884.809	-29.87
884.98	39.76
885.152	47.96
885.324	25.43
885.496	-38.06
885.667	-19.63
885.839	15.19
886.011	47.96
886.182	2.9
886.354	-1.19
886.525	41.81
886.697	-21.67
886.869	31.57
887.04	13.14
887.212	-3.24
887.383	76.63
887.555	27.48
887.726	-11.43
887.897	2.9
888.069	-54.44
888.24	4.95
888.412	80.72
888.583	-68.78
888.754	35.67
888.926	-13.48
889.097	-40.11
889.268	-17.58
889.44	43.86
889.611	-70.83
889.782	-79.02
889.953	-5.29
890.125	9.05
890.296	19.29
890.467	-60.59
890.638	-25.77
890.809	13.14
890.98	-19.63
891.151	31.57
891.323	37.72
891.494	58.2
891.665	-7.34
891.836	37.72
892.007	23.38
892.178	-56.49
892.349	-25.77
892.52	9.05
892.691	-1.19
892.862	21.33
893.032	-23.72
893.203	21.33
893.374	-72.87
893.545	13.14
893.716	-50.35
893.887	41.81
894.057	27.48
894.228	-7.34
894.399	62.29
894.57	56.15
894.74	52.05
894.911	25.43
895.082	11.09
895.253	-42.15
895.423	-29.87
895.594	19.29
895.764	15.19
895.935	-97.45
896.106	7
896.276	7
896.447	37.72
896.617	-42.15
896.788	-5.29
896.958	-15.53
897.129	76.63
897.299	-21.67
897.47	43.86
897.64	31.57
897.81	-5.29
897.981	80.72
898.151	-52.39
898.322	54.1
898.492	21.33
898.662	-27.82
898.832	-50.35
899.003	-21.67
899.173	-19.63
899.343	-95.4
899.513	-60.59
