Data from USB4F104151__68__12-12-32-753.txt Node

Date: Fri Mar 14 12:12:32 EDT 2025
User: louis
Spectrometer: USB4F10415
Trigger mode: 4
Integration Time (sec): 5.000000E-2
Scans to average: 1
Electric dark correction enabled: true
Nonlinearity correction enabled: false
Boxcar width: 0
XAxis mode: Wavelengths
Number of Pixels in Spectrum: 3648
>>>>>Begin Spectral Data<<<<<
178.204	-241.49
178.424	-241.49
178.644	-241.49
178.864	-202.58
179.084	-227.15
179.304	-16.21
179.524	-16.21
179.744	-5.97
179.964	53.42
180.184	-42.84
180.404	-8.02
180.624	-14.17
180.844	-57.17
181.064	-30.55
181.283	43.18
181.503	63.66
181.723	30.89
181.943	-81.75
182.163	71.85
182.383	-20.31
182.602	20.65
182.822	75.95
183.042	-16.21
183.262	53.42
183.482	-30.55
183.701	20.65
183.921	37.03
184.141	-18.26
184.361	77.99
184.58	-18.26
184.8	0.17
185.02	-53.08
185.239	43.18
185.459	-22.36
185.679	32.94
185.898	-77.65
186.118	77.99
186.338	20.65
186.557	106.67
186.777	-36.69
186.997	-30.55
187.216	55.47
187.436	8.36
187.655	59.56
187.875	2.22
188.095	49.32
188.314	77.99
188.534	26.79
188.753	0.17
188.973	37.03
189.192	77.99
189.412	61.61
189.631	77.99
189.851	41.13
190.07	141.48
190.29	-83.8
190.509	-116.56
190.729	-30.55
190.948	73.9
191.168	133.29
191.387	75.95
191.607	53.42
191.826	-30.55
192.045	-12.12
192.265	-1.88
192.484	43.18
192.704	-18.26
192.923	-57.17
193.142	159.91
193.362	139.43
193.581	22.7
193.8	20.65
194.02	59.56
194.239	69.8
194.458	-14.17
194.678	-8.02
194.897	-26.45
195.116	30.89
195.335	12.46
195.555	45.23
195.774	-18.26
195.993	-26.45
196.212	20.65
196.432	-40.79
196.651	57.51
196.87	-81.75
197.089	108.71
197.308	59.56
197.528	51.37
197.747	-44.88
197.966	61.61
198.185	61.61
198.404	-14.17
198.623	98.47
198.842	59.56
199.062	37.03
199.281	34.99
199.5	6.31
199.719	39.08
199.938	69.8
200.157	73.9
200.376	22.7
200.595	-48.98
200.814	77.99
201.033	22.7
201.252	49.32
201.471	4.27
201.69	106.67
201.909	59.56
202.128	41.13
202.347	84.14
202.566	47.27
202.785	22.7
203.004	39.08
203.223	178.34
203.442	28.84
203.661	20.65
203.879	4.27
204.098	55.47
204.317	-20.31
204.536	51.37
204.755	61.61
204.974	65.71
205.193	63.66
205.411	59.56
205.63	2.22
205.849	10.41
206.068	18.6
206.287	-12.12
206.505	108.71
206.724	-79.7
206.943	-38.74
207.162	24.75
207.381	20.65
207.599	24.75
207.818	75.95
208.037	2.22
208.255	-16.21
208.474	16.55
208.693	45.23
208.911	39.08
209.13	2.22
209.349	-1.88
209.567	84.14
209.786	75.95
210.005	47.27
210.223	32.94
210.442	-53.08
210.661	20.65
210.879	-46.93
211.098	-22.36
211.316	-18.26
211.535	67.75
211.753	30.89
211.972	-83.8
212.191	4.27
212.409	-30.55
212.628	-48.98
212.846	-32.6
213.065	71.85
213.283	61.61
213.502	-5.97
213.72	0.17
213.938	63.66
214.157	16.55
214.375	106.67
214.594	16.55
214.812	100.52
215.031	30.89
215.249	-16.21
215.467	22.7
215.686	12.46
215.904	47.27
216.122	41.13
216.341	26.79
216.559	-16.21
216.778	67.75
216.996	55.47
217.214	-3.93
217.432	4.27
217.651	-3.93
217.869	-5.97
218.087	10.41
218.306	24.75
218.524	59.56
218.742	-67.41
218.96	131.24
219.179	2.22
219.397	69.8
219.615	57.51
219.833	28.84
220.051	-14.17
220.27	0.17
220.488	69.8
220.706	47.27
220.924	-40.79
221.142	-36.69
221.36	-20.31
221.578	37.03
221.796	88.23
222.015	39.08
222.233	-12.12
222.451	123.05
222.669	4.27
222.887	51.37
223.105	34.99
223.323	-10.07
223.541	-73.56
223.759	2.22
223.977	22.7
224.195	14.51
224.413	51.37
224.631	90.28
224.849	10.41
225.067	65.71
225.285	41.13
225.503	-32.6
225.721	-73.56
225.939	106.67
226.157	34.99
226.375	147.62
226.592	-59.22
226.81	-20.31
227.028	82.09
227.246	94.38
227.464	34.99
227.682	-34.64
227.9	-22.36
228.117	73.9
228.335	39.08
228.553	-28.5
228.771	10.41
228.989	53.42
229.206	141.48
229.424	-5.97
229.642	75.95
229.86	47.27
230.077	73.9
230.295	-18.26
230.513	2.22
230.731	59.56
230.948	-3.93
231.166	37.03
231.384	-36.69
231.601	-59.22
231.819	75.95
232.037	-108.37
232.254	22.7
232.472	45.23
232.689	-28.5
232.907	43.18
233.125	45.23
233.342	16.55
233.56	53.42
233.777	-18.26
233.995	-10.07
234.213	118.95
234.43	41.13
234.648	-14.17
234.865	55.47
235.083	6.31
235.3	-5.97
235.518	30.89
235.735	63.66
235.953	94.38
236.17	-3.93
236.388	2.22
236.605	-40.79
236.822	22.7
237.04	43.18
237.257	-30.55
237.475	-73.56
237.692	114.86
237.909	-5.97
238.127	14.51
238.344	82.09
238.562	22.7
238.779	-34.64
238.996	-36.69
239.214	16.55
239.431	112.81
239.648	-12.12
239.865	-8.02
240.083	86.19
240.3	18.6
240.517	12.46
240.735	53.42
240.952	45.23
241.169	53.42
241.386	80.04
241.603	26.79
241.821	-55.12
242.038	-1.88
242.255	86.19
242.472	-42.84
242.689	26.79
242.907	14.51
243.124	30.89
243.341	39.08
243.558	22.7
243.775	-42.84
243.992	-75.6
244.209	39.08
244.426	114.86
244.643	80.04
244.86	-3.93
245.078	53.42
245.295	104.62
245.512	61.61
245.729	-34.64
245.946	6.31
246.163	6.31
246.38	82.09
246.597	59.56
246.814	-3.93
247.031	94.38
247.248	18.6
247.464	129.19
247.681	49.32
247.898	-1.88
248.115	141.48
248.332	-53.08
248.549	100.52
248.766	106.67
248.983	98.47
249.2	51.37
249.417	67.75
249.633	-26.45
249.85	47.27
250.067	75.95
250.284	22.7
250.501	92.33
250.717	51.37
250.934	26.79
251.151	14.51
251.368	43.18
251.585	12.46
251.801	10.41
252.018	-24.4
252.235	53.42
252.451	-18.26
252.668	-20.31
252.885	53.42
253.102	-5.97
253.318	-8.02
253.535	-28.5
253.752	49.32
253.968	0.17
254.185	-18.26
254.401	12.46
254.618	-24.4
254.835	-16.21
255.051	88.23
255.268	30.89
255.484	-1.88
255.701	98.47
255.917	34.99
256.134	0.17
256.351	28.84
256.567	63.66
256.784	51.37
257	-3.93
257.217	47.27
257.433	30.89
257.65	80.04
257.866	47.27
258.082	4.27
258.299	-28.5
258.515	-5.97
258.732	-28.5
258.948	18.6
259.165	45.23
259.381	-1.88
259.597	-12.12
259.814	-10.07
260.03	-34.64
260.246	18.6
260.463	-24.4
260.679	77.99
260.895	14.51
261.112	-1.88
261.328	43.18
261.544	-87.89
261.761	108.71
261.977	12.46
262.193	39.08
262.409	2.22
262.626	12.46
262.842	47.27
263.058	-48.98
263.274	26.79
263.49	63.66
263.707	168.1
263.923	41.13
264.139	28.84
264.355	53.42
264.571	65.71
264.787	41.13
265.004	75.95
265.22	-14.17
265.436	41.13
265.652	71.85
265.868	-22.36
266.084	-12.12
266.3	8.36
266.516	-48.98
266.732	73.9
266.948	30.89
267.164	-44.88
267.38	94.38
267.596	57.51
267.812	106.67
268.028	34.99
268.244	-1.88
268.46	84.14
268.676	-38.74
268.892	110.76
269.108	6.31
269.324	-12.12
269.54	-18.26
269.756	90.28
269.972	22.7
270.188	-14.17
270.403	20.65
270.619	22.7
270.835	55.47
271.051	65.71
271.267	-18.26
271.483	26.79
271.698	96.43
271.914	-18.26
272.13	24.75
272.346	14.51
272.562	102.57
272.777	-18.26
272.993	-30.55
273.209	-42.84
273.425	-5.97
273.64	-63.32
273.856	71.85
274.072	43.18
274.287	4.27
274.503	88.23
274.719	8.36
274.934	12.46
275.15	-79.7
275.366	75.95
275.581	-59.22
275.797	94.38
276.012	-16.21
276.228	63.66
276.444	61.61
276.659	53.42
276.875	-24.4
277.09	43.18
277.306	0.17
277.521	32.94
277.737	18.6
277.952	94.38
278.168	-110.42
278.383	67.75
278.599	49.32
278.814	8.36
279.03	80.04
279.245	69.8
279.461	20.65
279.676	59.56
279.892	-48.98
280.107	-94.04
280.322	2.22
280.538	-10.07
280.753	34.99
280.969	-8.02
281.184	55.47
281.399	8.36
281.615	20.65
281.83	20.65
282.045	-26.45
282.26	-36.69
282.476	22.7
282.691	43.18
282.906	18.6
283.122	43.18
283.337	-36.69
283.552	55.47
283.767	-10.07
283.983	114.86
284.198	-46.93
284.413	102.57
284.628	-12.12
284.843	37.03
285.058	39.08
285.274	-14.17
285.489	-12.12
285.704	67.75
285.919	-22.36
286.134	-91.99
286.349	24.75
286.564	-10.07
286.779	88.23
286.995	45.23
287.21	0.17
287.425	88.23
287.64	47.27
287.855	-36.69
288.07	-61.27
288.285	39.08
288.5	16.55
288.715	86.19
288.93	8.36
289.145	-26.45
289.36	65.71
289.575	-73.56
289.79	47.27
290.004	34.99
290.219	116.9
290.434	-46.93
290.649	-61.27
290.864	-38.74
291.079	2.22
291.294	34.99
291.509	57.51
291.724	82.09
291.938	59.56
292.153	145.58
292.368	-14.17
292.583	-1.88
292.798	82.09
293.012	-14.17
293.227	67.75
293.442	-48.98
293.657	47.27
293.871	104.62
294.086	32.94
294.301	174.25
294.516	98.47
294.73	-5.97
294.945	0.17
295.16	-8.02
295.374	26.79
295.589	63.66
295.804	-10.07
296.018	2.22
296.233	92.33
296.447	39.08
296.662	61.61
296.877	24.75
297.091	53.42
297.306	26.79
297.52	-1.88
297.735	112.81
297.949	69.8
298.164	55.47
298.378	8.36
298.593	-36.69
298.807	77.99
299.022	61.61
299.236	59.56
299.451	-14.17
299.665	-28.5
299.88	77.99
300.094	2.22
300.309	-3.93
300.523	2.22
300.737	4.27
300.952	37.03
301.166	4.27
301.381	-83.8
301.595	-1.88
301.809	41.13
302.024	-51.03
302.238	-53.08
302.452	100.52
302.667	-14.17
302.881	53.42
303.095	34.99
303.309	47.27
303.524	-65.36
303.738	22.7
303.952	-3.93
304.166	30.89
304.381	-22.36
304.595	108.71
304.809	0.17
305.023	12.46
305.237	-22.36
305.452	45.23
305.666	41.13
305.88	41.13
306.094	55.47
306.308	151.72
306.522	67.75
306.736	116.9
306.95	26.79
307.164	-22.36
307.379	-18.26
307.593	73.9
307.807	135.34
308.021	53.42
308.235	-22.36
308.449	-10.07
308.663	63.66
308.877	61.61
309.091	6.31
309.305	63.66
309.519	-91.99
309.733	112.81
309.947	-8.02
310.161	118.95
310.374	51.37
310.588	37.03
310.802	-110.42
311.016	4.27
311.23	82.09
311.444	32.94
311.658	53.42
311.872	96.43
312.085	-10.07
312.299	86.19
312.513	28.84
312.727	45.23
312.941	-44.88
313.154	-18.26
313.368	32.94
313.582	45.23
313.796	-42.84
314.009	-3.93
314.223	153.77
314.437	0.17
314.651	24.75
314.864	18.6
315.078	18.6
315.292	20.65
315.505	47.27
315.719	4.27
315.933	75.95
316.146	-16.21
316.36	20.65
316.573	45.23
316.787	86.19
317.001	32.94
317.214	-12.12
317.428	-1.88
317.641	43.18
317.855	61.61
318.068	26.79
318.282	65.71
318.495	170.15
318.709	69.8
318.922	-22.36
319.136	100.52
319.349	18.6
319.563	4.27
319.776	77.99
319.99	-46.93
320.203	133.29
320.417	6.31
320.63	43.18
320.843	143.53
321.057	-32.6
321.27	34.99
321.483	-18.26
321.697	41.13
321.91	26.79
322.124	16.55
322.337	86.19
322.55	0.17
322.763	-14.17
322.977	34.99
323.19	37.03
323.403	49.32
323.617	-5.97
323.83	69.8
324.043	37.03
324.256	39.08
324.469	2.22
324.683	77.99
324.896	-57.17
325.109	8.36
325.322	-5.97
325.535	77.99
325.748	92.33
325.962	2.22
326.175	6.31
326.388	80.04
326.601	12.46
326.814	37.03
327.027	26.79
327.24	55.47
327.453	-100.18
327.666	55.47
327.879	90.28
328.092	34.99
328.305	67.75
328.518	0.17
328.731	-8.02
328.944	51.37
329.157	-1.88
329.37	-40.79
329.583	133.29
329.796	57.51
330.009	-79.7
330.222	41.13
330.435	8.36
330.648	84.14
330.861	41.13
331.073	100.52
331.286	14.51
331.499	55.47
331.712	49.32
331.925	61.61
332.138	39.08
332.35	151.72
332.563	-8.02
332.776	137.38
332.989	34.99
333.202	-5.97
333.414	16.55
333.627	-10.07
333.84	-5.97
334.053	43.18
334.265	4.27
334.478	34.99
334.691	-8.02
334.903	45.23
335.116	-53.08
335.329	-5.97
335.541	12.46
335.754	82.09
335.966	10.41
336.179	-30.55
336.392	41.13
336.604	-24.4
336.817	96.43
337.029	28.84
337.242	-20.31
337.454	61.61
337.667	-5.97
337.88	88.23
338.092	55.47
338.305	82.09
338.517	26.79
338.729	69.8
338.942	49.32
339.154	-3.93
339.367	-14.17
339.579	45.23
339.792	-55.12
340.004	49.32
340.217	28.84
340.429	82.09
340.641	28.84
340.854	20.65
341.066	8.36
341.278	-5.97
341.491	129.19
341.703	39.08
341.915	-55.12
342.128	67.75
342.34	71.85
342.552	6.31
342.764	30.89
342.977	34.99
343.189	41.13
343.401	34.99
343.613	10.41
343.826	32.94
344.038	-79.7
344.25	-12.12
344.462	16.55
344.674	41.13
344.886	67.75
345.099	55.47
345.311	69.8
345.523	32.94
345.735	-83.8
345.947	47.27
346.159	57.51
346.371	75.95
346.583	39.08
346.795	63.66
347.007	0.17
347.219	55.47
347.431	30.89
347.643	-1.88
347.855	-42.84
348.067	86.19
348.279	-42.84
348.491	16.55
348.703	-12.12
348.915	41.13
349.127	-63.32
349.339	65.71
349.551	28.84
349.763	55.47
349.975	-38.74
350.187	20.65
350.399	88.23
350.61	53.42
350.822	14.51
351.034	41.13
351.246	49.32
351.458	71.85
351.669	84.14
351.881	43.18
352.093	53.42
352.305	88.23
352.517	67.75
352.728	43.18
352.94	55.47
353.152	-14.17
353.363	-5.97
353.575	22.7
353.787	110.76
353.999	4.27
354.21	45.23
354.422	82.09
354.633	98.47
354.845	12.46
355.057	-3.93
355.268	18.6
355.48	84.14
355.692	10.41
355.903	49.32
356.115	-44.88
356.326	-12.12
356.538	123.05
356.749	34.99
356.961	141.48
357.172	-20.31
357.384	8.36
357.595	114.86
357.807	123.05
358.018	-3.93
358.23	123.05
358.441	102.57
358.653	61.61
358.864	4.27
359.075	-20.31
359.287	94.38
359.498	149.67
359.709	53.42
359.921	110.76
360.132	65.71
360.344	98.47
360.555	-83.8
360.766	24.75
360.977	28.84
361.189	69.8
361.4	24.75
361.611	90.28
361.823	63.66
362.034	0.17
362.245	-55.12
362.456	2.22
362.667	37.03
362.879	10.41
363.09	47.27
363.301	10.41
363.512	84.14
363.723	63.66
363.935	43.18
364.146	77.99
364.357	26.79
364.568	84.14
364.779	-1.88
364.99	24.75
365.201	4.27
365.412	69.8
365.623	-36.69
365.834	88.23
366.045	86.19
366.256	84.14
366.467	96.43
366.678	0.17
366.889	-22.36
367.1	41.13
367.311	84.14
367.522	10.41
367.733	0.17
367.944	116.9
368.155	30.89
368.366	65.71
368.577	80.04
368.788	118.95
368.999	51.37
369.209	37.03
369.42	14.51
369.631	116.9
369.842	16.55
370.053	-69.46
370.264	75.95
370.474	-67.41
370.685	53.42
370.896	-10.07
371.107	77.99
371.317	82.09
371.528	28.84
371.739	69.8
371.95	71.85
372.16	100.52
372.371	26.79
372.582	16.55
372.792	104.62
373.003	6.31
373.214	24.75
373.424	143.53
373.635	-20.31
373.846	182.44
374.056	108.71
374.267	57.51
374.477	28.84
374.688	32.94
374.898	18.6
375.109	65.71
375.319	94.38
375.53	51.37
375.74	129.19
375.951	-8.02
376.161	80.04
376.372	75.95
376.582	43.18
376.793	51.37
377.003	45.23
377.214	49.32
377.424	39.08
377.635	61.61
377.845	16.55
378.055	151.72
378.266	47.27
378.476	63.66
378.686	-20.31
378.897	49.32
379.107	71.85
379.317	92.33
379.528	59.56
379.738	80.04
379.948	-87.89
380.158	12.46
380.369	37.03
380.579	71.85
380.789	41.13
380.999	30.89
381.21	6.31
381.42	69.8
381.63	30.89
381.84	16.55
382.05	34.99
382.261	102.57
382.471	116.9
382.681	26.79
382.891	135.34
383.101	108.71
383.311	-34.64
383.521	71.85
383.731	143.53
383.941	129.19
384.151	32.94
384.361	63.66
384.571	39.08
384.781	16.55
384.991	172.2
385.201	98.47
385.411	131.24
385.621	102.57
385.831	63.66
386.041	61.61
386.251	43.18
386.461	96.43
386.671	57.51
386.881	77.99
387.091	86.19
387.301	59.56
387.511	75.95
387.72	75.95
387.93	26.79
388.14	65.71
388.35	77.99
388.56	43.18
388.769	139.43
388.979	4.27
389.189	0.17
389.399	16.55
389.609	84.14
389.818	43.18
390.028	-26.45
390.238	96.43
390.447	30.89
390.657	104.62
390.867	24.75
391.076	12.46
391.286	37.03
391.496	141.48
391.705	73.9
391.915	96.43
392.125	41.13
392.334	67.75
392.544	129.19
392.753	55.47
392.963	88.23
393.172	116.9
393.382	104.62
393.591	141.48
393.801	26.79
394.01	102.57
394.22	108.71
394.429	90.28
394.639	92.33
394.848	12.46
395.058	92.33
395.267	65.71
395.477	112.81
395.686	137.38
395.895	82.09
396.105	149.67
396.314	139.43
396.524	63.66
396.733	51.37
396.942	73.9
397.152	192.68
397.361	88.23
397.57	102.57
397.78	118.95
397.989	110.76
398.198	198.82
398.407	121
398.617	135.34
398.826	139.43
399.035	84.14
399.244	182.44
399.453	135.34
399.663	164.01
399.872	159.91
400.081	41.13
400.29	219.3
400.499	153.77
400.708	235.69
400.917	110.76
401.127	106.67
401.336	123.05
401.545	166.06
401.754	151.72
401.963	178.34
402.172	80.04
402.381	133.29
402.59	141.48
402.799	182.44
403.008	225.45
403.217	147.62
403.426	194.73
403.635	123.05
403.844	135.34
404.053	180.39
404.262	190.63
404.471	250.02
404.68	155.82
404.888	116.9
405.097	207.02
405.306	260.26
405.515	247.97
405.724	262.31
405.933	164.01
406.142	184.49
406.35	280.74
406.559	127.14
406.768	188.58
406.977	282.79
407.185	245.93
407.394	233.64
407.603	233.64
407.812	229.54
408.02	329.89
408.229	307.37
408.438	284.84
408.646	239.78
408.855	307.37
409.064	426.15
409.272	374.95
409.481	411.81
409.69	293.03
409.898	352.42
410.107	405.67
410.315	387.24
410.524	329.89
410.733	428.2
410.941	463.01
411.15	454.82
411.358	489.64
411.567	606.37
411.775	512.16
411.984	596.13
412.192	704.67
412.401	665.76
412.609	782.49
412.818	725.15
413.026	784.54
413.234	569.51
413.443	678.05
413.651	743.58
413.86	739.49
414.068	946.33
414.276	805.02
414.485	831.65
414.693	964.76
414.901	979.1
415.11	1001.63
415.318	1009.82
415.526	1056.92
415.734	1036.44
415.943	1138.84
416.151	1165.46
416.359	1208.47
416.567	1265.82
416.776	1276.06
416.984	1249.43
417.192	1487
417.4	1347.73
417.608	1468.56
417.817	1495.19
418.025	1509.52
418.233	1644.69
418.441	1507.48
418.649	1714.32
418.857	1855.63
419.065	1706.13
419.273	1734.8
419.481	1853.58
419.689	2019.47
419.897	2048.14
420.105	2044.04
420.313	2230.41
420.521	2349.19
420.729	2287.75
420.937	2297.99
421.145	2474.12
421.353	2574.47
421.561	2666.63
421.769	2832.51
421.977	2785.41
422.185	2920.57
422.393	2873.47
422.601	3117.18
422.809	3143.8
423.017	3104.89
423.224	3336.31
423.432	3448.95
423.64	3469.43
423.848	3879.02
424.056	3702.9
424.263	3942.51
424.471	3817.58
424.679	4061.29
424.887	4194.41
425.094	4302.95
425.302	4401.26
425.51	4468.84
425.718	4730.98
425.925	4771.94
426.133	4833.38
426.341	5070.94
426.548	5408.86
426.756	5322.84
426.964	5298.27
427.171	5693.52
427.379	5849.17
427.586	5918.8
427.794	6101.07
428.001	6326.35
428.209	6727.75
428.417	6725.7
428.624	7014.46
428.832	7069.76
429.039	6991.94
429.247	6942.78
429.454	7499.83
429.662	8020.02
429.869	7458.87
430.076	8036.4
430.284	7819.32
430.491	8208.43
430.699	8607.78
430.906	8568.87
431.114	8704.04
431.321	9019.43
431.528	9400.35
431.736	9621.53
431.943	9908.24
432.15	9822.23
432.358	10047.51
432.565	10438.67
432.772	10455.05
432.979	10856.45
433.187	11020.29
433.394	11227.14
433.601	11935.73
433.808	12044.27
434.016	12007.41
434.223	12138.48
434.43	13041.64
434.637	12734.44
434.844	13418.46
435.052	13656.03
435.259	13762.52
435.466	13807.58
435.673	13850.58
435.88	14434.25
436.087	15345.6
436.294	15030.21
436.501	14964.68
436.708	15208.39
436.915	15513.53
437.122	16250.8
437.329	16248.75
437.537	16813.99
437.743	17131.43
437.95	16676.78
438.157	17592.22
438.364	18120.6
438.571	18270.1
438.778	18034.58
438.985	19904.38
439.192	19120.01
439.399	19578.75
439.606	19081.1
439.813	20121.46
440.02	21372.77
440.227	21055.34
440.433	20828.01
440.64	21190.5
440.847	21292.9
441.054	21708.64
441.261	23187.27
441.467	22589.27
441.674	23121.74
441.881	23785.28
442.088	23689.03
442.294	23703.36
442.501	24371
442.708	24602.42
442.914	25698.08
443.121	26474.26
443.328	25616.16
443.534	27504.39
443.741	26593.04
443.948	26167.07
444.154	28245.76
444.361	28053.25
444.568	28378.87
444.774	28278.52
444.981	28221.18
445.187	29538.02
445.394	30201.57
445.6	29572.84
445.807	32437.95
446.013	31045.33
446.22	31827.65
446.426	32665.27
446.633	33068.72
446.839	33830.57
447.046	32655.03
447.252	34320.03
447.459	34580.12
447.665	33914.53
447.871	35821.19
448.078	36980.34
448.284	34977.43
448.491	36312.7
448.697	37670.51
448.903	37971.56
449.11	38516.32
449.316	36941.43
449.522	37957.22
449.728	38919.77
449.935	39122.52
450.141	38721.12
450.347	39263.83
450.553	38852.19
450.76	38796.89
450.966	40289.86
451.172	39464.53
451.378	40879.67
451.584	39956.04
451.791	40439.36
451.997	40767.04
452.203	41117.24
452.409	40879.67
452.615	40848.96
452.821	39151.19
453.027	38608.48
453.233	40609.34
453.44	38870.62
453.646	39118.42
453.852	39114.33
454.058	40164.93
454.264	38655.58
454.47	39128.66
454.676	38209.12
454.882	39730.76
455.088	35966.6
455.294	36425.34
455.5	37080.69
455.705	37635.69
455.911	35516.04
456.117	35341.97
456.323	34391.71
456.529	32796.34
456.735	34197.15
456.941	33083.06
457.147	32591.55
457.352	31479.5
457.558	31024.85
457.764	31354.57
457.97	30510.81
458.176	29798.12
458.381	30033.63
458.587	28116.73
458.793	28370.68
458.999	26650.39
459.204	28638.97
459.41	27539.21
459.616	25995.04
459.821	25894.69
460.027	25866.02
460.233	25147.18
460.438	23791.42
460.644	23881.53
460.85	22931.28
461.055	22624.08
461.261	22632.27
461.466	20612.98
461.672	20215.67
461.878	21571.43
462.083	20019.07
462.289	19720.06
462.494	19619.71
462.7	18435.99
462.905	17862.55
463.111	18745.23
463.316	18608.01
463.522	18114.45
463.727	18251.67
463.932	17960.86
464.138	18024.34
464.343	17809.31
464.549	17237.92
464.754	17807.26
464.959	17584.03
465.165	17330.08
465.37	16617.39
465.575	16295.86
465.781	16932.78
465.986	17020.84
466.191	16482.22
466.397	16263.09
466.602	15347.65
466.807	15984.57
467.012	15896.5
467.218	15482.81
467.423	15351.74
467.628	15458.24
467.833	15876.02
468.038	15742.91
468.244	15101.89
468.449	15687.61
468.654	15134.66
468.859	14833.61
469.064	14872.52
469.269	14030.8
469.474	14233.55
469.679	14823.37
469.885	14168.02
470.09	14546.89
470.295	14041.04
470.5	13815.77
470.705	14147.54
470.91	13377.5
471.115	13432.8
471.32	13471.71
471.525	13606.88
471.73	13109.22
471.935	13230.05
472.139	12609.51
472.344	12722.15
472.549	12330.99
472.754	12294.13
472.959	12183.54
473.164	12115.95
473.369	11778.04
473.574	12337.13
473.778	12058.61
473.983	11862.01
474.188	12058.61
474.393	11241.47
474.598	11247.62
474.802	11200.51
475.007	11180.03
475.212	11198.46
475.417	10917.89
475.621	10835.97
475.826	10823.69
476.031	10502.15
476.235	10430.48
476.44	10450.96
476.645	10006.55
476.849	10338.32
477.054	10059.79
477.259	9871.38
477.463	9949.2
477.668	9811.99
477.872	9941.01
478.077	9541.66
478.282	9353.24
478.486	9349.15
478.691	9279.52
478.895	9213.98
479.1	9060.38
479.304	9115.68
479.509	8790.05
479.713	8960.03
479.918	8661.03
480.122	8826.92
480.326	8831.01
480.531	8675.37
480.735	8386.6
480.94	8548.39
481.144	8710.18
481.348	8355.88
481.553	8445.99
481.757	8276.01
481.961	8501.29
482.166	8372.27
482.37	8368.17
482.574	8312.88
482.778	8257.58
482.983	8417.32
483.187	8357.93
483.391	8282.16
483.595	8165.42
483.8	8132.65
484.004	8304.68
484.208	8228.91
484.412	8212.53
484.616	8216.62
484.821	8226.86
485.025	8128.56
485.229	8276.01
485.433	8239.15
485.637	8347.69
485.841	8038.45
486.045	7913.52
486.249	8165.42
486.453	8034.35
486.657	8022.06
486.861	8159.28
487.065	8149.04
487.269	7921.71
487.473	7874.61
487.677	8114.22
487.881	8179.76
488.085	7802.93
488.289	8101.94
488.493	7995.44
488.697	8056.88
488.901	8042.54
489.105	7989.3
489.309	8009.78
489.512	8165.42
489.716	8103.98
489.92	8165.42
490.124	8126.51
490.328	8149.04
490.531	8142.89
490.735	8095.79
490.939	8103.98
491.143	8138.8
491.346	8001.58
491.55	8458.28
491.754	8138.8
491.958	8276.01
492.161	8308.78
492.365	8239.15
492.569	8286.25
492.772	8405.03
492.976	8202.29
493.18	8409.13
493.383	8618.02
493.587	8419.37
493.79	8618.02
493.994	8423.47
494.197	8566.82
494.401	8509.48
494.605	8681.51
494.808	8722.47
495.012	8966.18
495.215	9044
495.419	9101.34
495.622	8726.57
495.825	8900.64
496.029	8992.8
496.232	9168.93
496.436	9283.61
496.639	9449.5
496.843	9441.31
497.046	9693.21
497.249	9637.91
497.453	9560.09
497.656	9830.42
497.859	9644.06
498.063	10024.98
498.266	9992.21
498.469	9947.15
498.673	10080.27
498.876	10311.69
499.079	10516.49
499.282	10280.97
499.485	10534.92
499.689	10711.05
499.892	10829.83
500.095	10809.35
500.298	10805.25
500.501	10872.84
500.705	11159.55
500.908	11372.54
501.111	11413.5
501.314	11489.28
501.517	11778.04
501.72	11814.9
501.923	11696.12
502.126	12068.85
502.329	12099.57
502.532	12201.97
502.735	12398.57
502.938	12580.84
503.141	12634.09
503.344	12822.5
503.547	13119.46
503.75	12777.45
503.953	13178.85
504.156	13383.65
504.359	13481.95
504.562	13369.31
504.765	13758.42
504.968	13916.12
505.17	13926.36
505.373	13940.69
505.576	14256.08
505.779	14114.77
505.982	14350.29
506.185	14854.09
506.387	14675.91
506.59	14890.95
506.793	15013.83
506.996	14948.29
507.198	15327.17
507.401	15269.83
507.604	15478.72
507.807	15933.37
508.009	16050.1
508.212	16050.1
508.415	16390.06
508.617	16349.11
508.82	16437.17
509.022	16410.54
509.225	16750.51
509.428	16998.31
509.63	16971.69
509.833	17092.52
510.035	17655.71
510.238	17225.64
510.44	17528.74
510.643	17952.66
510.845	17878.94
511.048	18118.55
511.25	18136.98
511.453	18534.29
511.655	18851.72
511.858	18458.51
512.06	18642.83
512.262	18724.75
512.465	19185.54
512.667	19283.84
512.87	19584.9
513.072	19312.52
513.274	19808.12
513.477	19744.64
513.679	20107.13
513.881	20119.42
514.084	20451.19
514.286	20227.96
514.488	20486
514.69	21280.61
514.893	21415.78
515.095	21145.45
515.297	21499.75
515.499	21426.02
515.701	21526.37
515.904	21997.4
516.106	21864.29
516.308	22060.89
516.51	22486.87
516.712	22407
516.914	22593.36
517.116	22957.9
517.318	22976.33
517.52	23250.76
517.722	23486.28
517.925	23453.51
518.127	23721.79
518.329	23732.03
518.531	23596.87
518.733	23973.69
518.935	23988.03
519.136	24102.71
519.338	24227.64
519.54	24397.62
519.742	24874.8
519.944	24932.14
520.146	25388.84
520.348	25294.63
520.55	25450.28
520.752	25329.45
520.954	25827.1
521.155	25722.66
521.357	26089.24
521.559	26244.89
521.761	26582.81
521.963	26332.95
522.164	26529.56
522.366	26556.18
522.568	27055.89
522.77	27227.92
522.971	27303.69
523.173	27004.69
523.375	27455.24
523.576	27330.31
523.778	27217.68
523.98	27684.61
524.181	27801.35
524.383	27746.05
524.584	28256
524.786	28268.28
524.988	27707.14
525.189	28495.61
525.391	28649.21
525.592	28239.61
525.794	28737.27
525.995	28503.8
526.197	28806.9
526.398	28872.43
526.6	28806.9
526.801	29169.39
527.003	29091.57
527.204	28917.49
527.406	29554.41
527.607	29013.74
527.808	29382.38
528.01	29177.58
528.211	29050.61
528.412	29550.31
528.614	29470.44
528.815	29484.78
529.016	29783.78
529.218	29179.63
529.419	29597.42
529.62	29523.69
529.822	29724.39
530.023	29705.96
530.224	29742.82
530.425	29703.91
530.626	29671.14
530.828	29230.83
531.029	29828.84
531.23	29755.11
531.431	29824.74
531.632	29964
531.833	30043.87
532.035	29759.2
532.236	29705.96
532.437	30172.89
532.638	29818.6
532.839	30103.26
533.04	30007.01
533.241	29720.29
533.442	30148.32
533.643	29808.36
533.844	29867.75
534.045	29820.64
534.246	29621.99
534.447	30355.16
534.648	30084.83
534.849	30021.34
535.05	29699.81
535.251	29783.78
535.451	29767.4
535.652	30326.49
535.853	29634.28
536.054	30029.54
536.255	29853.41
536.456	29755.11
536.657	30635.74
536.857	29916.9
537.058	29703.91
537.259	29910.75
537.46	30082.78
537.66	29708.01
537.861	30357.21
538.062	29904.61
538.263	29611.75
538.463	29906.66
538.664	29947.62
538.865	29738.72
539.065	30039.78
539.266	29914.85
539.466	29988.58
539.667	29361.9
539.868	30013.15
540.068	29990.63
540.269	29550.31
540.469	29869.79
540.67	29863.65
540.87	29955.81
541.071	29605.61
541.271	29853.41
541.472	29689.57
541.672	29923.04
541.873	29875.94
542.073	29144.81
542.274	29791.97
542.474	29613.8
542.675	29249.26
542.875	29974.24
543.075	29802.21
543.276	29351.66
543.476	29978.34
543.676	29574.89
543.877	29511.4
544.077	29861.6
544.277	29808.36
544.478	29357.8
544.678	29730.53
544.878	29621.99
545.078	29931.23
545.279	29449.96
545.479	29761.25
545.679	29861.6
545.879	29400.81
546.079	29638.37
546.28	29687.53
546.48	29578.98
546.68	29953.76
546.88	29519.59
547.08	29779.68
547.28	29318.89
547.48	29386.47
547.68	29796.07
547.88	29636.33
548.081	29830.88
548.281	29419.24
548.481	29370.09
548.681	29933.28
548.881	29644.52
549.081	29728.49
549.28	29337.32
549.48	29431.53
549.68	29605.61
549.88	29904.61
550.08	29447.91
550.28	29859.56
550.48	29273.84
550.68	30043.87
550.88	29531.88
551.08	29540.07
551.279	29562.6
551.479	29351.66
551.679	29286.12
551.879	29740.77
552.079	29544.17
552.278	29144.81
552.478	29437.67
552.678	29648.61
552.878	29665
553.077	29402.86
553.277	29089.52
553.477	29843.17
553.676	29605.61
553.876	29724.39
554.076	29665
554.275	29744.87
554.475	29167.34
554.674	29603.56
554.874	29525.74
555.074	29372.14
555.273	29365.99
555.473	29572.84
555.672	29419.24
555.872	29814.5
556.071	29343.47
556.271	29384.43
556.47	29236.97
556.67	28964.59
556.869	29441.77
557.068	29306.6
557.268	29329.13
557.467	29607.65
557.667	29597.42
557.866	29482.73
558.065	29601.51
558.265	29030.13
558.464	29177.58
558.663	29605.61
558.863	29091.57
559.062	29716.2
559.261	29128.43
559.461	29861.6
559.66	28933.87
559.859	29107.95
560.058	29230.83
560.258	29380.33
560.457	29034.22
560.656	29456.11
560.855	29316.84
561.054	29155.05
561.253	29017.84
561.453	29368.04
561.652	29576.94
561.851	29314.8
562.05	29056.75
562.249	29150.96
562.448	29421.29
562.647	29054.7
562.846	29181.68
563.045	29380.33
563.244	29144.81
563.443	29460.2
563.642	28974.83
563.841	29355.75
564.04	29169.39
564.239	29204.21
564.438	29271.79
564.637	29474.54
564.836	29329.13
565.035	28665.59
565.234	29159.15
565.432	29095.66
565.631	28909.3
565.83	29026.03
566.029	29013.74
566.228	28933.87
566.427	28874.48
566.625	29017.84
566.824	28765.94
567.023	29083.37
567.222	28575.48
567.42	28831.47
567.619	28917.49
567.818	28755.7
568.016	29007.6
568.215	28948.21
568.414	28925.68
568.612	29101.81
568.811	28917.49
569.01	28966.64
569.208	29089.52
569.407	28976.88
569.605	28452.6
569.804	29142.77
570.002	28690.16
570.201	28964.59
570.4	28765.94
570.598	28673.78
570.797	28595.96
570.995	28931.83
571.193	28419.83
571.392	29161.2
571.59	28532.47
571.789	28575.48
571.987	28673.78
572.186	28845.81
572.384	28595.96
572.582	28704.5
572.781	28978.93
572.979	28231.42
573.177	29183.73
573.376	28714.74
573.574	28475.13
573.772	28671.73
573.971	28698.36
574.169	28575.48
574.367	28735.22
574.565	28964.59
574.763	28692.21
574.962	28524.28
575.16	28258.04
575.358	28557.05
575.556	28233.47
575.754	28604.15
575.952	28258.04
576.151	28585.72
576.349	28475.13
576.547	28591.86
576.745	28739.32
576.943	28561.14
577.141	28362.49
577.339	28718.84
577.537	28382.97
577.735	28239.61
577.933	28370.68
578.131	28415.74
578.329	28444.41
578.527	28102.4
578.725	28370.68
578.923	28507.9
579.121	28518.14
579.319	28329.72
579.516	28722.93
579.714	28145.41
579.912	28489.46
580.11	28243.71
580.308	28591.86
580.506	28346.11
580.704	28131.07
580.901	28638.97
581.099	28489.46
581.297	28436.22
581.495	28454.65
581.692	28555
581.89	28327.67
582.088	28196.6
582.285	28264.19
582.483	28323.58
582.681	28428.02
582.878	28411.64
583.076	28335.87
583.274	28165.88
583.471	28237.56
583.669	28528.38
583.866	28575.48
584.064	28362.49
584.262	28219.13
584.459	28612.34
584.657	28010.24
584.854	28294.91
585.052	28137.21
585.249	28436.22
585.447	28616.44
585.644	28331.77
585.841	28645.11
586.039	28612.34
586.236	28395.26
586.434	27754.24
586.631	28456.7
586.828	28204.8
587.026	28423.93
587.223	28329.72
587.42	28444.41
587.618	28413.69
587.815	28296.95
588.012	28589.81
588.21	28350.2
588.407	28708.6
588.604	28460.79
588.801	28581.62
588.999	28329.72
589.196	28311.29
589.393	29038.32
589.59	28765.94
589.787	28663.54
589.984	28757.75
590.182	28497.66
590.379	28913.39
590.576	28823.28
590.773	28940.02
590.97	28405.5
591.167	28655.35
591.364	28509.94
591.561	28813.04
591.758	28626.68
591.955	28790.52
592.152	29136.62
592.349	29054.7
592.546	28978.93
592.743	28993.26
592.94	28860.15
593.137	29466.35
593.334	29474.54
593.531	29050.61
593.727	29245.16
593.924	29554.41
594.121	29239.02
594.318	29638.37
594.515	29370.09
594.712	29615.85
594.908	29593.32
595.105	29544.17
595.302	29322.99
595.499	29959.91
595.696	29806.31
595.892	29636.33
596.089	30002.91
596.286	30111.46
596.482	30148.32
596.679	30512.86
596.876	30267.1
597.072	30090.98
597.269	29996.77
597.466	30385.88
597.662	30133.98
597.859	30588.63
598.055	30768.85
598.252	30623.45
598.448	30775
598.645	30658.26
598.841	30676.69
599.038	30551.77
599.234	31028.95
599.431	30899.92
599.627	30701.27
599.824	31203.02
600.02	31284.94
600.217	31528.65
600.413	31727.3
600.609	31229.65
600.806	32022.21
601.002	31835.84
601.198	31698.63
601.395	31823.56
601.591	32097.98
601.787	32018.11
601.984	32020.16
602.18	32376.51
602.376	32528.06
602.572	32286.4
602.769	32554.68
602.965	32480.96
603.161	32745.14
603.357	32859.83
603.553	33050.29
603.75	33005.24
603.946	33220.27
604.142	33595.05
604.338	33437.36
604.534	34109.09
604.73	33638.06
604.926	34066.08
605.122	34342.56
605.318	33986.21
605.514	34227.87
605.71	34242.21
605.906	34379.42
606.102	34760.34
606.298	34666.14
606.494	34905.75
606.69	35194.51
606.886	35272.34
607.082	35165.84
607.278	35663.5
607.474	35503.76
607.67	36281.99
607.866	35933.83
608.062	36517.5
608.257	36284.03
608.453	36517.5
608.649	36650.62
608.845	36859.51
609.041	37463.66
609.236	37666.41
609.432	37488.24
609.628	37834.35
609.824	38180.45
610.019	37856.87
610.215	38364.77
610.411	38317.67
610.606	38547.04
610.802	38659.68
610.998	38882.91
611.193	39216.72
611.389	39194.2
611.584	39620.17
611.78	39368.27
611.976	39927.37
612.171	40093.25
612.367	40021.58
612.562	40271.43
612.758	40181.32
612.953	40529.47
613.149	41424.43
613.344	41127.48
613.539	41684.53
613.735	41813.55
613.93	41877.04
614.126	42006.06
614.321	42294.82
614.517	42346.02
614.712	42872.35
614.907	42530.34
615.103	43183.64
615.298	42876.44
615.493	43582.99
615.688	43216.41
615.884	44291.59
616.079	43822.61
616.274	44559.87
616.47	44092.94
616.665	44480
616.86	44637.7
617.055	44707.33
617.25	44791.3
617.445	45161.98
617.641	44766.72
617.836	45731.31
618.031	45342.2
618.226	45493.75
618.421	45923.82
618.616	46585.32
618.811	45751.79
619.006	46843.36
619.201	45796.85
619.396	46624.23
619.591	45864.43
619.786	46904.8
619.981	46216.68
620.176	46921.18
620.371	46222.83
620.566	47226.33
620.761	46605.8
620.956	47287.77
621.151	46546.4
621.346	47148.51
621.541	46609.89
621.735	47330.78
621.93	46597.6
622.125	47273.43
622.32	46790.11
622.515	47236.57
622.709	47291.87
622.904	47052.25
623.099	47097.31
623.294	47379.93
623.488	46882.27
623.683	47531.48
623.878	46763.49
624.072	47267.29
624.267	47603.16
624.462	47048.16
624.656	47025.63
624.851	47089.12
625.046	46779.87
625.24	46740.96
625.435	46843.36
625.629	46917.09
625.824	46890.46
626.018	46900.7
626.213	46214.63
626.407	46767.59
626.602	45913.58
626.796	46663.14
626.991	46532.07
627.185	46284.26
627.38	46583.27
627.574	46036.46
627.768	45872.62
627.963	46378.47
628.157	45561.33
628.352	46290.41
628.546	45776.37
628.74	45886.96
628.935	45587.96
629.129	46134.76
629.323	45426.17
629.517	45600.24
629.712	45514.23
629.906	45346.29
630.1	44355.08
630.294	45411.83
630.489	44946.94
630.683	45229.56
630.877	44828.16
631.071	44393.99
631.265	44703.23
631.459	44441.09
631.653	44201.48
631.848	44586.5
632.042	44246.54
632.236	44467.72
632.43	43542.03
632.624	44310.02
632.818	43728.4
633.012	43496.98
633.206	43638.29
633.4	43712.02
633.594	43202.07
633.788	43669.01
633.982	43195.93
634.176	43040.28
634.369	42829.34
634.563	43124.25
634.757	42970.65
634.951	43081.24
635.145	42581.54
635.339	42380.84
635.533	42163.75
635.726	42229.29
635.92	42065.45
636.114	42255.91
636.308	41752.11
636.501	42071.59
636.695	41635.38
636.889	41707.05
637.083	41350.71
637.276	40769.08
637.47	41193.01
637.664	40896.06
637.857	41057.85
638.051	40627.77
638.244	40451.65
638.438	40351.3
638.632	40109.64
638.825	40044.1
639.019	39949.9
639.212	39755.34
639.406	39634.51
639.599	39571.02
639.793	39956.04
639.986	39081.56
640.18	39153.24
640.373	39042.65
640.567	38762.08
640.76	38553.18
640.954	38616.67
641.147	37926.5
641.34	38284.9
641.534	38362.72
641.727	37717.61
641.92	38360.67
642.114	37676.65
642.307	37594.73
642.5	37549.68
642.694	36411.01
642.887	36857.46
643.08	36935.29
643.273	36927.1
643.467	36793.98
643.66	36548.22
643.853	36048.52
644.046	36087.43
644.239	36150.92
644.432	35630.73
644.626	35620.49
644.819	35387.02
645.012	35497.61
645.205	35708.55
645.398	35270.29
645.591	34971.29
645.784	34641.56
645.977	34598.55
646.17	34756.25
646.363	34145.95
646.556	34068.13
646.749	33988.26
646.942	34174.63
647.135	33502.89
647.328	33795.75
647.521	33394.35
647.714	33138.35
647.907	33107.63
648.099	32878.26
648.292	32546.49
648.485	32753.33
648.678	32321.21
648.871	32118.46
649.064	31848.13
649.256	32267.97
649.449	31729.35
649.642	31706.82
649.835	31651.53
650.027	31117.01
650.22	31465.16
650.413	31211.21
650.605	31037.14
650.798	30897.88
650.991	30207.71
651.183	30453.47
651.376	29955.81
651.568	30105.31
651.761	29916.9
651.954	30181.09
652.146	29677.29
652.339	29757.16
652.531	29263.6
652.724	29404.91
652.916	28800.76
653.109	28907.25
653.301	28487.42
653.494	28911.35
653.686	28239.61
653.879	28712.69
654.071	28405.5
654.263	27897.6
654.456	28305.15
654.648	28094.21
654.84	27258.63
655.033	27309.83
655.225	27285.26
655.417	27320.07
655.61	27295.5
655.802	26830.61
655.994	26638.1
656.186	26666.77
656.379	25939.74
656.571	26218.27
656.763	26076.96
656.955	25933.6
657.148	26142.49
657.34	26076.96
657.532	25554.72
657.724	25108.27
657.916	25612.07
658.108	25218.86
658.3	24567.6
658.492	25124.65
658.684	24522.55
658.876	24321.85
659.068	24571.7
659.26	24180.54
659.452	24532.79
659.644	24067.9
659.836	24041.28
660.028	24033.08
660.22	23451.46
660.412	23523.14
660.604	23355.21
660.796	23109.45
660.988	22933.32
661.18	23019.34
661.372	22822.73
661.563	22708.05
661.755	22474.58
661.947	22646.61
662.139	22200.15
662.331	22069.08
662.522	21747.55
662.714	21679.97
662.906	21667.68
663.097	21684.06
663.289	21323.62
663.481	21262.18
663.673	21182.31
663.864	20850.54
664.056	20641.65
664.247	20897.64
664.439	20187
664.631	20373.36
664.822	20506.48
665.014	20428.66
665.205	20025.21
665.397	19816.32
665.588	19793.79
665.78	19588.99
665.971	19320.71
666.163	19507.07
666.354	19457.92
666.546	19169.16
666.737	19091.34
666.929	19214.21
667.12	18929.55
667.311	18945.93
667.503	18483.09
667.694	18706.32
667.885	18282.39
668.077	18323.35
668.268	18077.59
668.459	18139.03
668.651	18046.87
668.842	18089.88
669.033	17792.92
669.224	17766.3
669.416	17690.52
669.607	17655.71
669.798	17244.07
669.989	17442.72
670.18	17280.93
670.371	17080.23
670.563	16969.64
670.754	17020.84
670.945	16508.85
671.136	16658.35
671.327	16809.9
671.518	16676.78
671.709	16410.54
671.9	16426.93
672.091	16035.77
672.282	16052.15
672.473	16119.73
672.664	16041.91
672.855	15742.91
673.046	15855.54
673.237	15835.07
673.428	15771.58
673.619	15728.57
673.809	15458.24
674	15208.39
674.191	15454.14
674.382	15335.36
674.573	15048.65
674.764	14905.29
674.954	15296.45
675.145	14749.64
675.336	14893
675.527	14639.05
675.717	14847.94
675.908	14462.93
676.099	14559.18
676.289	14342.1
676.48	14280.66
676.671	14125.01
676.861	14286.8
677.052	13983.7
677.243	14186.45
677.433	13899.73
677.624	14122.96
677.814	13619.16
678.005	13746.14
678.195	13813.72
678.386	13555.68
678.576	13348.83
678.767	13522.91
678.957	13367.26
679.148	13576.16
679.338	13275.1
679.529	13119.46
679.719	13223.9
679.909	13217.76
680.1	12767.21
680.29	12716.01
680.481	12777.45
680.671	12865.51
680.861	12650.47
681.052	12763.11
681.242	12656.62
681.432	12660.71
681.622	12425.2
681.813	12298.22
682.003	12328.94
682.193	12290.03
682.383	12306.41
682.573	12244.98
682.764	12115.95
682.954	12302.32
683.144	12048.37
683.334	11978.74
683.524	12009.46
683.714	12081.14
683.904	11855.86
684.094	11843.57
684.284	11630.59
684.474	11927.54
684.664	11718.65
684.854	11704.31
685.044	11704.31
685.234	11669.5
685.424	11663.35
685.614	11589.63
685.804	11519.99
685.994	11550.71
686.184	11433.98
686.374	11497.47
686.564	11411.45
686.753	11450.36
686.943	11311.1
687.133	11208.7
687.323	10911.75
687.513	11323.39
687.702	10995.71
687.892	11069.44
688.082	10848.26
688.272	11085.83
688.461	10797.06
688.651	10876.93
688.841	10770.44
689.03	10784.77
689.22	10633.22
689.41	10733.57
689.599	10776.58
689.789	10608.65
689.979	10582.03
690.168	10665.99
690.358	10489.87
690.547	10547.21
690.737	10504.2
690.926	10518.54
691.116	10223.63
691.305	10504.2
691.495	10297.36
691.684	10197.01
691.874	10133.52
692.063	10086.42
692.252	10369.04
692.442	10004.5
692.631	10031.12
692.82	10035.22
693.01	9818.13
693.199	9973.78
693.388	9775.13
693.578	9873.43
693.767	9822.23
693.956	9762.84
694.146	9678.87
694.335	9555.99
694.524	9756.69
694.713	9707.54
694.902	9482.27
695.092	9586.71
695.281	9519.13
695.47	9441.31
695.659	9451.55
695.848	9242.65
696.037	9482.27
696.226	9148.45
696.415	9224.22
696.604	9195.55
696.793	9097.25
696.982	9326.62
697.171	9256.99
697.36	9144.35
697.549	9089.06
697.738	8867.88
697.927	9021.47
698.116	9119.78
698.305	8816.68
698.494	8976.42
698.683	8871.97
698.872	9027.62
699.061	8900.64
699.25	8661.03
699.438	8624.17
699.627	8710.18
699.816	8630.31
700.005	8587.3
700.193	8505.38
700.382	8386.6
700.571	8249.39
700.76	8351.79
700.948	8359.98
701.137	8259.63
701.326	8427.56
701.514	8175.66
701.703	8058.93
701.892	8097.84
702.08	8106.03
702.269	8013.87
702.457	8079.41
702.646	7974.96
702.834	8015.92
703.023	8114.22
703.212	8005.68
703.4	7804.98
703.589	7809.08
703.777	7858.23
703.965	7622.71
704.154	7888.95
704.342	7641.14
704.531	7579.7
704.719	7503.93
704.907	7700.53
705.096	7364.67
705.284	7491.64
705.472	7522.36
705.661	7356.47
705.849	7268.41
706.037	7360.57
706.226	7301.18
706.414	7276.6
706.602	7262.27
706.79	7282.75
706.979	7049.28
707.167	7106.62
707.355	6938.69
707.543	7045.18
707.731	7153.73
707.919	7067.71
708.107	6899.78
708.296	6856.77
708.484	6746.18
708.672	6764.61
708.86	6824
709.048	6701.12
709.236	6613.06
709.424	6633.54
709.612	6412.36
709.8	6488.14
709.988	6549.57
710.176	6574.15
710.364	6471.75
710.551	6418.5
710.739	6387.79
710.927	6447.18
711.115	6361.16
711.303	6293.58
711.491	6318.15
711.679	6230.09
711.866	6162.51
712.054	6148.17
712.242	6049.87
712.43	6082.64
712.617	6080.59
712.805	6113.36
712.993	5800.02
713.181	5859.41
713.368	5892.18
713.556	5972.05
713.744	5881.94
713.931	5849.17
714.119	5791.83
714.306	5732.44
714.494	5834.83
714.682	5648.47
714.869	5714
715.057	5746.77
715.244	5519.45
715.432	5593.17
715.619	5634.13
715.807	5580.89
715.994	5423.19
716.182	5460.06
716.369	5351.51
716.556	5476.44
716.744	5302.36
716.931	5302.36
717.119	5308.51
717.306	5326.94
717.493	5359.7
717.681	5165.15
717.868	5234.78
718.055	5120.09
718.242	5095.52
718.43	5083.23
718.617	5046.37
718.804	5054.56
718.991	4999.26
719.179	5234.78
719.366	4943.97
719.553	4986.97
719.74	4806.75
719.927	4724.83
720.114	4845.66
720.301	4798.56
720.488	4698.21
720.676	4597.86
720.863	4767.84
721.05	4741.22
721.237	4679.78
721.424	4464.74
721.611	4589.67
721.798	4540.52
721.985	4593.76
722.172	4620.39
722.358	4528.23
722.545	4497.51
722.732	4450.41
722.919	4481.13
723.106	4331.62
723.293	4302.95
723.48	4321.38
723.667	4261.99
723.853	4300.91
724.04	4233.32
724.227	4212.84
724.414	4135.02
724.6	4231.27
724.787	4116.59
724.974	4192.36
725.161	4186.22
725.347	3995.76
725.534	3989.61
725.72	3907.7
725.907	3965.04
726.094	3989.61
726.28	3973.23
726.467	3969.13
726.653	3874.93
726.84	3840.11
727.027	3944.56
727.213	3928.17
727.4	3848.3
727.586	3868.78
727.773	3782.77
727.959	3719.28
728.145	3846.26
728.332	3799.15
728.518	3637.36
728.705	3727.47
728.891	3551.35
729.077	3575.92
729.264	3670.13
729.45	3537.01
729.636	3684.47
729.823	3561.59
730.009	3387.51
730.195	3442.81
730.382	3416.18
730.568	3477.62
730.754	3459.19
730.94	3422.33
731.126	3524.72
731.313	3379.32
731.499	3293.3
731.685	3324.02
731.871	3516.53
732.057	3313.78
732.243	3240.06
732.429	3260.54
732.615	3457.14
732.801	3389.56
732.987	3135.61
733.173	3256.44
733.359	3260.54
733.545	3162.23
733.731	3154.04
733.917	3213.43
734.103	3256.44
734.289	3055.74
734.475	3121.28
734.661	3240.06
734.847	3137.66
735.033	3135.61
735.219	3088.51
735.404	3086.46
735.59	2926.72
735.776	2945.15
735.962	3156.09
736.148	3002.49
736.333	2975.87
736.519	2867.33
736.705	2902.14
736.89	2992.25
737.076	2836.61
737.262	2771.07
737.447	2820.22
737.633	2793.6
737.819	2783.36
738.004	2703.49
738.19	2773.12
738.375	2773.12
738.561	2769.02
738.747	2748.54
738.932	2697.35
739.118	2654.34
739.303	2779.26
739.489	2703.49
739.674	2529.41
739.859	2621.57
740.045	2594.95
740.23	2680.96
740.416	2467.97
740.601	2597
740.786	2619.52
740.972	2492.55
741.157	2467.97
741.342	2486.4
741.528	2490.5
741.713	2519.17
741.898	2392.2
742.084	2431.11
742.269	2521.22
742.454	2427.01
742.639	2457.73
742.824	2351.24
743.01	2336.9
743.195	2359.43
743.38	2418.82
743.565	2328.71
743.75	2373.77
743.935	2400.39
744.12	2277.51
744.305	2226.31
744.49	2252.94
744.675	2191.5
744.86	2191.5
745.045	2220.17
745.23	2128.01
745.415	2214.02
745.6	2140.3
745.785	2115.72
745.97	2175.11
746.155	2078.86
746.34	2246.79
746.525	2134.15
746.71	2175.11
746.895	2240.65
747.079	1958.03
747.264	2033.8
747.449	2070.67
747.634	2144.39
747.819	2029.71
748.003	1955.98
748.188	2029.71
748.373	2019.47
748.557	1958.03
748.742	1886.35
748.927	1908.88
749.111	1837.2
749.296	1872.01
749.481	1980.56
749.665	1935.5
749.85	1849.49
750.034	1902.73
750.219	1800.34
750.404	1886.35
750.588	1919.12
750.773	1845.39
750.957	1812.62
751.141	1814.67
751.326	1851.53
751.51	1708.18
751.695	1724.56
751.879	1786
752.064	1790.1
752.248	1745.04
752.432	1745.04
752.617	1730.7
752.801	1763.47
752.985	1640.59
753.17	1689.74
753.354	1720.46
753.538	1699.98
753.722	1611.92
753.907	1624.21
754.091	1564.82
754.275	1591.44
754.459	1595.54
754.643	1503.38
754.828	1548.44
755.012	1585.3
755.196	1562.77
755.38	1591.44
755.564	1482.9
755.748	1421.46
755.932	1515.67
756.116	1548.44
756.3	1489.04
756.484	1409.17
756.668	1491.09
756.852	1378.45
757.036	1493.14
757.22	1458.32
757.404	1507.48
757.588	1360.02
757.772	1519.76
757.956	1456.28
758.14	1517.72
758.323	1288.34
758.507	1452.18
758.691	1306.77
758.875	1425.56
759.059	1384.6
759.242	1380.5
759.426	1384.6
759.61	1325.21
759.794	1300.63
759.977	1370.26
760.161	1386.65
760.345	1323.16
760.528	1370.26
760.712	1247.38
760.895	1308.82
761.079	1241.24
761.263	1237.14
761.446	1267.86
761.63	1218.71
761.813	1349.78
761.997	1222.81
762.18	1200.28
762.364	1212.57
762.547	1179.8
762.731	1276.06
762.914	1228.95
763.098	1231
763.281	1214.62
763.464	1274.01
763.648	1204.38
763.831	1093.79
764.015	1243.29
764.198	1177.75
764.381	1169.56
764.564	1200.28
764.748	1253.53
764.931	1177.75
765.114	1243.29
765.297	1134.75
765.481	1083.55
765.664	1034.39
765.847	1181.85
766.03	1241.24
766.213	1144.99
766.397	1208.47
766.58	1063.07
766.763	1144.99
766.946	1144.99
767.129	1106.07
767.312	1138.84
767.495	1138.84
767.678	1028.25
767.861	1104.03
768.044	1063.07
768.227	1165.46
768.41	1124.51
768.593	1079.45
768.776	1126.55
768.959	1101.98
769.142	1085.59
769.324	1151.13
769.507	1077.4
769.69	1091.74
769.873	985.24
770.056	1095.83
770.239	1061.02
770.421	1147.03
770.604	1132.7
770.787	882.85
770.97	1144.99
771.152	1061.02
771.335	1149.08
771.518	1095.83
771.7	1134.75
771.883	1071.26
772.066	1067.16
772.248	1054.87
772.431	1040.54
772.613	1042.59
772.796	1018.01
772.978	1011.87
773.161	1032.35
773.343	901.28
773.526	983.2
773.708	850.08
773.891	960.67
774.073	1013.92
774.256	880.8
774.438	983.2
774.621	901.28
774.803	991.39
774.985	897.18
775.168	872.61
775.35	909.47
775.532	977.05
775.715	895.13
775.897	1036.44
776.079	897.18
776.261	987.29
776.444	805.02
776.626	968.86
776.808	934.04
776.99	827.55
777.173	856.22
777.355	827.55
777.537	919.71
777.719	903.32
777.901	862.37
778.083	813.21
778.265	774.3
778.447	895.13
778.629	807.07
778.811	876.7
778.993	825.5
779.175	872.61
779.357	815.26
779.539	727.2
779.721	743.58
779.903	864.41
780.085	772.25
780.267	764.06
780.449	782.49
780.631	817.31
780.812	792.73
780.994	725.15
781.176	794.78
781.358	790.69
781.54	649.38
781.721	731.3
781.903	712.86
782.085	723.1
782.267	704.67
782.448	692.38
782.63	616.61
782.812	733.34
782.993	698.53
783.175	702.62
783.357	665.76
783.538	723.1
783.72	665.76
783.901	659.62
784.083	647.33
784.264	587.94
784.446	589.99
784.627	671.9
784.809	684.19
784.99	637.09
785.172	602.27
785.353	575.65
785.535	620.71
785.716	630.95
785.897	549.03
786.079	612.51
786.26	614.56
786.441	639.14
786.623	587.94
786.804	624.8
786.985	571.55
787.167	610.47
787.348	526.5
787.529	604.32
787.71	725.15
787.891	655.52
788.073	602.27
788.254	506.02
788.435	530.59
788.616	608.42
788.797	481.44
788.978	506.02
789.159	456.87
789.34	567.46
789.522	528.55
789.703	465.06
789.884	495.78
790.065	454.82
790.246	479.4
790.427	491.68
790.607	493.73
790.788	520.35
790.969	413.86
791.15	450.72
791.331	469.16
791.512	405.67
791.693	479.4
791.874	413.86
792.054	485.54
792.235	430.24
792.416	430.24
792.597	442.53
792.778	442.53
792.958	481.44
793.139	475.3
793.32	479.4
793.5	497.83
793.681	520.35
793.862	430.24
794.042	506.02
794.223	364.71
794.404	385.19
794.584	374.95
794.765	444.58
794.945	456.87
795.126	446.63
795.306	479.4
795.487	405.67
795.667	364.71
795.848	374.95
796.028	456.87
796.209	354.47
796.389	391.33
796.57	407.72
796.75	391.33
796.93	299.17
797.111	288.93
797.291	348.33
797.471	340.13
797.652	262.31
797.832	321.7
798.012	329.89
798.192	350.37
798.373	272.55
798.553	325.8
798.733	354.47
798.913	348.33
799.093	315.56
799.274	374.95
799.454	350.37
799.634	252.07
799.814	460.96
799.994	377
800.174	370.85
800.354	301.22
800.534	297.13
800.714	268.45
800.894	338.09
801.074	342.18
801.254	319.65
801.434	348.33
801.614	274.6
801.794	282.79
801.974	1220.76
802.154	303.27
802.334	344.23
802.514	280.74
802.693	245.93
802.873	276.65
803.053	348.33
803.233	198.82
803.413	329.89
803.592	284.84
803.772	250.02
803.952	243.88
804.131	204.97
804.311	276.65
804.491	307.37
804.67	256.17
804.85	190.63
805.03	379.04
805.209	307.37
805.389	270.5
805.568	272.55
805.748	192.68
805.928	301.22
806.107	237.74
806.287	207.02
806.466	264.36
806.646	299.17
806.825	194.73
807.004	217.26
807.184	198.82
807.363	280.74
807.543	266.41
807.722	284.84
807.901	297.13
808.081	321.7
808.26	57.51
808.439	284.84
808.619	170.15
808.798	207.02
808.977	182.44
809.156	290.98
809.336	233.64
809.515	241.83
809.694	202.92
809.873	211.11
810.052	211.11
810.231	241.83
810.411	239.78
810.59	223.4
810.769	231.59
810.948	229.54
811.127	151.72
811.306	178.34
811.485	116.9
811.664	288.93
811.843	149.67
812.022	61.61
812.201	159.91
812.38	184.49
812.559	231.59
812.737	215.21
812.916	114.86
813.095	159.91
813.274	174.25
813.453	200.87
813.632	192.68
813.811	260.26
813.989	133.29
814.168	221.35
814.347	272.55
814.526	176.3
814.704	219.3
814.883	272.55
815.062	135.34
815.24	188.58
815.419	180.39
815.598	157.86
815.776	114.86
815.955	188.58
816.133	90.28
816.312	133.29
816.49	133.29
816.669	186.54
816.847	92.33
817.026	202.92
817.204	102.57
817.383	157.86
817.561	168.1
817.74	145.58
817.918	188.58
818.097	151.72
818.275	123.05
818.453	178.34
818.632	153.77
818.81	207.02
818.988	92.33
819.167	135.34
819.345	168.1
819.523	170.15
819.701	149.67
819.879	151.72
820.058	51.37
820.236	159.91
820.414	153.77
820.592	133.29
820.77	82.09
820.948	147.62
821.127	32.94
821.305	204.97
821.483	125.1
821.661	86.19
821.839	209.06
822.017	59.56
822.195	114.86
822.373	108.71
822.551	151.72
822.729	182.44
822.907	100.52
823.085	147.62
823.262	125.1
823.44	57.51
823.618	118.95
823.796	100.52
823.974	112.81
824.152	118.95
824.329	59.56
824.507	133.29
824.685	82.09
824.863	90.28
825.04	135.34
825.218	143.53
825.396	133.29
825.574	131.24
825.751	118.95
825.929	96.43
826.107	47.27
826.284	188.58
826.462	180.39
826.639	63.66
826.817	53.42
826.994	86.19
827.172	24.75
827.349	127.14
827.527	149.67
827.704	110.76
827.882	129.19
828.059	106.67
828.237	112.81
828.414	137.38
828.591	37.03
828.769	104.62
828.946	67.75
829.124	71.85
829.301	149.67
829.478	75.95
829.655	139.43
829.833	88.23
830.01	-12.12
830.187	98.47
830.364	98.47
830.542	96.43
830.719	137.38
830.896	90.28
831.073	96.43
831.25	-12.12
831.427	110.76
831.604	10.41
831.782	80.04
831.959	53.42
832.136	32.94
832.313	116.9
832.49	63.66
832.667	57.51
832.844	69.8
833.021	114.86
833.198	49.32
833.374	114.86
833.551	106.67
833.728	67.75
833.905	84.14
834.082	-48.98
834.259	28.84
834.436	110.76
834.612	-12.12
834.789	108.71
834.966	61.61
835.143	12.46
835.319	18.6
835.496	159.91
835.673	32.94
835.85	166.06
836.026	77.99
836.203	133.29
836.38	32.94
836.556	43.18
836.733	57.51
836.909	161.96
837.086	67.75
837.262	32.94
837.439	45.23
837.616	-10.07
837.792	2.22
837.968	104.62
838.145	-55.12
838.321	86.19
838.498	104.62
838.674	112.81
838.851	37.03
839.027	45.23
839.203	73.9
839.38	94.38
839.556	41.13
839.732	153.77
839.909	69.8
840.085	-8.02
840.261	14.51
840.437	88.23
840.614	32.94
840.79	86.19
840.966	65.71
841.142	71.85
841.318	28.84
841.494	32.94
841.671	166.06
841.847	77.99
842.023	80.04
842.199	88.23
842.375	131.24
842.551	-12.12
842.727	10.41
842.903	145.58
843.079	-8.02
843.255	18.6
843.431	-1.88
843.607	84.14
843.783	10.41
843.959	20.65
844.134	61.61
844.31	37.03
844.486	45.23
844.662	6.31
844.838	-30.55
845.013	73.9
845.189	127.14
845.365	71.85
845.541	-24.4
845.716	0.17
845.892	88.23
846.068	26.79
846.244	18.6
846.419	84.14
846.595	-3.93
846.77	-22.36
846.946	61.61
847.122	57.51
847.297	-5.97
847.473	53.42
847.648	-69.46
847.824	37.03
847.999	-30.55
848.175	106.67
848.35	-1.88
848.526	75.95
848.701	77.99
848.876	133.29
849.052	43.18
849.227	102.57
849.403	18.6
849.578	-12.12
849.753	-28.5
849.929	32.94
850.104	0.17
850.279	18.6
850.454	51.37
850.63	131.24
850.805	-38.74
850.98	102.57
851.155	-22.36
851.33	10.41
851.505	28.84
851.681	121
851.856	47.27
852.031	110.76
852.206	-3.93
852.381	-34.64
852.556	-28.5
852.731	65.71
852.906	30.89
853.081	-3.93
853.256	118.95
853.431	55.47
853.606	26.79
853.781	-3.93
853.956	-57.17
854.131	4.27
854.305	-14.17
854.48	-16.21
854.655	-28.5
854.83	-63.32
855.005	67.75
855.18	159.91
855.354	16.55
855.529	45.23
855.704	59.56
855.879	32.94
856.053	-3.93
856.228	-22.36
856.403	32.94
856.577	14.51
856.752	-24.4
856.926	-8.02
857.101	-38.74
857.276	-26.45
857.45	-18.26
857.625	-12.12
857.799	6.31
857.974	73.9
858.148	-81.75
858.323	84.14
858.497	24.75
858.672	4.27
858.846	14.51
859.02	75.95
859.195	-22.36
859.369	63.66
859.543	24.75
859.718	43.18
859.892	-51.03
860.066	30.89
860.241	39.08
860.415	16.55
860.589	-3.93
860.763	2.22
860.938	61.61
861.112	43.18
861.286	-34.64
861.46	65.71
861.634	-5.97
861.808	94.38
861.982	-44.88
862.157	-42.84
862.331	-3.93
862.505	-28.5
862.679	-91.99
862.853	10.41
863.027	-20.31
863.201	98.47
863.375	-8.02
863.549	6.31
863.722	-10.07
863.896	96.43
864.07	-83.8
864.244	-1.88
864.418	16.55
864.592	10.41
864.766	53.42
864.939	24.75
865.113	10.41
865.287	28.84
865.461	-71.51
865.634	32.94
865.808	6.31
865.982	-1.88
866.156	20.65
866.329	-44.88
866.503	-71.51
866.676	47.27
866.85	24.75
867.024	26.79
867.197	88.23
867.371	20.65
867.544	43.18
867.718	-57.17
867.891	18.6
868.065	20.65
868.238	4.27
868.412	-38.74
868.585	6.31
868.759	57.51
868.932	0.17
869.105	-3.93
869.279	10.41
869.452	-8.02
869.625	84.14
869.799	55.47
869.972	-48.98
870.145	0.17
870.319	55.47
870.492	-102.23
870.665	-89.94
870.838	20.65
871.011	-10.07
871.185	-63.32
871.358	18.6
871.531	69.8
871.704	10.41
871.877	22.7
872.05	14.51
872.223	-30.55
872.396	63.66
872.569	-85.84
872.742	-104.28
872.915	18.6
873.088	43.18
873.261	-51.03
873.434	-10.07
873.607	65.71
873.78	92.33
873.953	-102.23
874.126	12.46
874.299	30.89
874.471	-110.42
874.644	-20.31
874.817	59.56
874.99	98.47
875.163	39.08
875.335	-38.74
875.508	39.08
875.681	51.37
875.853	18.6
876.026	39.08
876.199	-14.17
876.371	30.89
876.544	28.84
876.717	-22.36
876.889	-10.07
877.062	59.56
877.234	-106.32
877.407	0.17
877.579	-28.5
877.752	2.22
877.924	86.19
878.097	-10.07
878.269	0.17
878.442	43.18
878.614	92.33
878.786	-24.4
878.959	4.27
879.131	-40.79
879.303	-77.65
879.476	39.08
879.648	10.41
879.82	30.89
879.993	-59.22
880.165	-38.74
880.337	8.36
880.509	41.13
880.681	-40.79
880.854	-59.22
881.026	37.03
881.198	86.19
881.37	-14.17
881.542	88.23
881.714	-5.97
881.886	24.75
882.058	51.37
882.23	-26.45
882.402	-14.17
882.574	-8.02
882.746	10.41
882.918	8.36
883.09	-12.12
883.262	41.13
883.434	34.99
883.606	8.36
883.778	26.79
883.95	118.95
884.122	-30.55
884.293	86.19
884.465	41.13
884.637	18.6
884.809	0.17
884.98	-28.5
885.152	-40.79
885.324	37.03
885.496	-79.7
885.667	-3.93
885.839	-12.12
886.011	61.61
886.182	-38.74
886.354	-14.17
886.525	-34.64
886.697	10.41
886.869	30.89
887.04	20.65
887.212	-16.21
887.383	92.33
887.555	0.17
887.726	-26.45
887.897	-10.07
888.069	12.46
888.24	61.61
888.412	-22.36
888.583	0.17
888.754	-20.31
888.926	-53.08
889.097	28.84
889.268	-20.31
889.44	10.41
889.611	-55.12
889.782	6.31
889.953	-51.03
890.125	41.13
890.296	-16.21
890.467	65.71
890.638	-20.31
890.809	-55.12
890.98	-1.88
891.151	32.94
891.323	22.7
891.494	30.89
891.665	-53.08
891.836	47.27
892.007	-10.07
892.178	37.03
892.349	20.65
892.52	-69.46
892.691	8.36
892.862	0.17
893.032	-32.6
893.203	-44.88
893.374	-40.79
893.545	63.66
893.716	-67.41
893.887	26.79
894.057	-10.07
894.228	8.36
894.399	-1.88
894.57	77.99
894.74	-26.45
894.911	-5.97
895.082	16.55
895.253	-34.64
895.423	-34.64
895.594	-14.17
895.764	10.41
895.935	-5.97
896.106	-32.6
896.276	-48.98
896.447	-46.93
896.617	-71.51
896.788	-22.36
896.958	14.51
897.129	-28.5
897.299	-5.97
897.47	39.08
897.64	-20.31
897.81	-32.6
897.981	30.89
898.151	-28.5
898.322	10.41
898.492	-57.17
898.662	-69.46
898.832	-24.4
899.003	0.17
899.173	37.03
899.343	4.27
899.513	-26.45
