Data from USB4F104151__4__12-11-11-263.txt Node

Date: Fri Mar 14 12:11:11 EDT 2025
User: louis
Spectrometer: USB4F10415
Trigger mode: 4
Integration Time (sec): 5.000000E-2
Scans to average: 1
Electric dark correction enabled: true
Nonlinearity correction enabled: false
Boxcar width: 0
XAxis mode: Wavelengths
Number of Pixels in Spectrum: 3648
>>>>>Begin Spectral Data<<<<<
178.204	-222.55
178.424	-222.55
178.644	-222.55
178.864	-206.16
179.084	-214.35
179.304	4.78
179.524	-32.08
179.744	-25.94
179.964	60.07
180.184	62.12
180.404	-21.84
180.624	-21.84
180.844	4.78
181.064	-71
181.283	39.59
181.503	-34.13
181.723	35.5
181.943	8.87
182.163	139.94
182.383	19.11
182.602	105.13
182.822	80.55
183.042	111.27
183.262	-21.84
183.482	45.74
183.701	2.73
183.921	35.5
184.141	78.51
184.361	49.83
184.58	78.51
184.8	49.83
185.02	-5.46
185.239	78.51
185.459	107.18
185.679	98.99
185.898	-34.13
186.118	37.55
186.338	-11.61
186.557	107.18
186.777	6.83
186.997	23.21
187.216	88.75
187.436	152.23
187.655	70.31
187.875	146.09
188.095	17.07
188.314	74.41
188.534	78.51
188.753	-1.37
188.973	103.08
189.192	29.35
189.412	27.31
189.631	-5.46
189.851	58.03
190.07	74.41
190.29	94.89
190.509	-11.61
190.729	-21.84
190.948	53.93
191.168	209.58
191.387	84.65
191.607	12.97
191.826	27.31
192.045	-21.84
192.265	37.55
192.484	-3.41
192.704	37.55
192.923	-7.51
193.142	94.89
193.362	51.88
193.581	178.86
193.8	45.74
194.02	49.83
194.239	53.93
194.458	88.75
194.678	25.26
194.897	86.7
195.116	-17.75
195.335	68.27
195.555	47.79
195.774	31.4
195.993	146.09
196.212	53.93
196.432	88.75
196.651	23.21
196.87	53.93
197.089	174.76
197.308	31.4
197.528	107.18
197.747	-7.51
197.966	49.83
198.185	109.23
198.404	-3.41
198.623	109.23
198.842	94.89
199.062	66.22
199.281	107.18
199.5	-21.84
199.719	68.27
199.938	101.03
200.157	76.46
200.376	41.64
200.595	70.31
200.814	45.74
201.033	23.21
201.252	94.89
201.471	-11.61
201.69	-52.56
201.909	68.27
202.128	60.07
202.347	125.61
202.566	6.83
202.785	49.83
203.004	55.98
203.223	193.19
203.442	84.65
203.661	39.59
203.879	-7.51
204.098	129.7
204.317	15.02
204.536	105.13
204.755	60.07
204.974	98.99
205.193	115.37
205.411	117.42
205.63	86.7
205.849	8.87
206.068	31.4
206.287	27.31
206.505	45.74
206.724	72.36
206.943	55.98
207.162	-27.99
207.381	55.98
207.599	-3.41
207.818	27.31
208.037	-3.41
208.255	35.5
208.474	113.32
208.693	70.31
208.911	90.79
209.13	70.31
209.349	39.59
209.567	41.64
209.786	178.86
210.005	135.85
210.223	39.59
210.442	12.97
210.661	55.98
210.879	117.42
211.098	62.12
211.316	94.89
211.535	78.51
211.753	76.46
211.972	94.89
212.191	6.83
212.409	105.13
212.628	86.7
212.846	-7.51
213.065	123.56
213.283	101.03
213.502	-19.8
213.72	10.92
213.938	23.21
214.157	21.16
214.375	55.98
214.594	55.98
214.812	45.74
215.031	51.88
215.249	27.31
215.467	94.89
215.686	49.83
215.904	131.75
216.122	-23.89
216.341	45.74
216.559	27.31
216.778	76.46
216.996	96.94
217.214	141.99
217.432	51.88
217.651	-40.28
217.869	74.41
218.087	33.45
218.306	43.69
218.524	53.93
218.742	10.92
218.96	94.89
219.179	58.03
219.397	113.32
219.615	152.23
219.833	88.75
220.051	-17.75
220.27	160.42
220.488	86.7
220.706	90.79
220.924	29.35
221.142	-50.52
221.36	25.26
221.578	41.64
221.796	55.98
222.015	6.83
222.233	35.5
222.451	148.14
222.669	39.59
222.887	6.83
223.105	-79.19
223.323	37.55
223.541	33.45
223.759	96.94
223.977	92.84
224.195	141.99
224.413	98.99
224.631	92.84
224.849	35.5
225.067	187.05
225.285	-23.89
225.503	58.03
225.721	-48.47
225.939	90.79
226.157	82.6
226.375	182.95
226.592	-13.65
226.81	78.51
227.028	133.8
227.246	148.14
227.464	53.93
227.682	115.37
227.9	64.17
228.117	64.17
228.335	66.22
228.553	90.79
228.771	45.74
228.989	76.46
229.206	47.79
229.424	27.31
229.642	45.74
229.86	-9.56
230.077	111.27
230.295	45.74
230.513	37.55
230.731	103.08
230.948	94.89
231.166	82.6
231.384	39.59
231.601	58.03
231.819	90.79
232.037	6.83
232.254	37.55
232.472	19.11
232.689	94.89
232.907	25.26
233.125	6.83
233.342	35.5
233.56	37.55
233.777	10.92
233.995	68.27
234.213	76.46
234.43	84.65
234.648	10.92
234.865	23.21
235.083	115.37
235.3	43.69
235.518	135.85
235.735	98.99
235.953	146.09
236.17	41.64
236.388	17.07
236.605	82.6
236.822	72.36
237.04	64.17
237.257	33.45
237.475	-21.84
237.692	150.18
237.909	45.74
238.127	-58.71
238.344	60.07
238.562	141.99
238.779	-44.37
238.996	117.42
239.214	64.17
239.431	31.4
239.648	-3.41
239.865	8.87
240.083	76.46
240.3	41.64
240.517	-32.08
240.735	121.51
240.952	68.27
241.169	80.55
241.386	82.6
241.603	21.16
241.821	-52.56
242.038	94.89
242.255	84.65
242.472	49.83
242.689	117.42
242.907	105.13
243.124	33.45
243.341	25.26
243.558	80.55
243.775	-3.41
243.992	-58.71
244.209	78.51
244.426	127.66
244.643	39.59
244.86	51.88
245.078	45.74
245.295	88.75
245.512	21.16
245.729	64.17
245.946	146.09
246.163	80.55
246.38	47.79
246.597	98.99
246.814	-5.46
247.031	-1.37
247.248	-48.47
247.464	4.78
247.681	76.46
247.898	88.75
248.115	45.74
248.332	88.75
248.549	45.74
248.766	146.09
248.983	80.55
249.2	35.5
249.417	98.99
249.633	103.08
249.85	84.65
250.067	-27.99
250.284	125.61
250.501	74.41
250.717	55.98
250.934	0.68
251.151	72.36
251.368	-3.41
251.585	94.89
251.801	-48.47
252.018	4.78
252.235	90.79
252.451	64.17
252.668	58.03
252.885	10.92
253.102	51.88
253.318	96.94
253.535	55.98
253.752	53.93
253.968	90.79
254.185	-44.37
254.401	-3.41
254.618	82.6
254.835	4.78
255.051	84.65
255.268	72.36
255.484	19.11
255.701	68.27
255.917	31.4
256.134	33.45
256.351	64.17
256.567	78.51
256.784	31.4
257	8.87
257.217	82.6
257.433	84.65
257.65	55.98
257.866	80.55
258.082	49.83
258.299	2.73
258.515	94.89
258.732	55.98
258.948	41.64
259.165	-5.46
259.381	23.21
259.597	92.84
259.814	49.83
260.03	62.12
260.246	55.98
260.463	12.97
260.679	88.75
260.895	15.02
261.112	84.65
261.328	-17.75
261.544	-9.56
261.761	115.37
261.977	-9.56
262.193	39.59
262.409	119.46
262.626	33.45
262.842	43.69
263.058	-13.65
263.274	39.59
263.49	-7.51
263.707	80.55
263.923	90.79
264.139	37.55
264.355	70.31
264.571	105.13
264.787	43.69
265.004	-1.37
265.22	45.74
265.436	-5.46
265.652	51.88
265.868	2.73
266.084	-23.89
266.3	70.31
266.516	-38.23
266.732	23.21
266.948	4.78
267.164	37.55
267.38	82.6
267.596	12.97
267.812	158.38
268.028	111.27
268.244	35.5
268.46	45.74
268.676	55.98
268.892	101.03
269.108	66.22
269.324	31.4
269.54	10.92
269.756	72.36
269.972	6.83
270.188	53.93
270.403	15.02
270.619	64.17
270.835	55.98
271.051	-46.42
271.267	25.26
271.483	45.74
271.698	62.12
271.914	107.18
272.13	129.7
272.346	82.6
272.562	27.31
272.777	70.31
272.993	-42.32
273.209	39.59
273.425	60.07
273.64	2.73
273.856	96.94
274.072	53.93
274.287	10.92
274.503	88.75
274.719	82.6
274.934	62.12
275.15	8.87
275.366	35.5
275.581	53.93
275.797	37.55
276.012	10.92
276.228	25.26
276.444	137.9
276.659	94.89
276.875	6.83
277.09	62.12
277.306	29.35
277.521	47.79
277.737	76.46
277.952	80.55
278.168	68.27
278.383	76.46
278.599	37.55
278.814	-19.8
279.03	74.41
279.245	150.18
279.461	2.73
279.676	98.99
279.892	-1.37
280.107	-5.46
280.322	49.83
280.538	53.93
280.753	-7.51
280.969	117.42
281.184	27.31
281.399	109.23
281.615	60.07
281.83	90.79
282.045	-66.9
282.26	35.5
282.476	-1.37
282.691	103.08
282.906	23.21
283.122	121.51
283.337	12.97
283.552	64.17
283.767	-7.51
283.983	47.79
284.198	23.21
284.413	64.17
284.628	-9.56
284.843	86.7
285.058	51.88
285.274	53.93
285.489	80.55
285.704	76.46
285.919	68.27
286.134	33.45
286.349	60.07
286.564	39.59
286.779	152.23
286.995	2.73
287.21	-21.84
287.425	25.26
287.64	8.87
287.855	53.93
288.07	-7.51
288.285	103.08
288.5	105.13
288.715	66.22
288.93	12.97
289.145	6.83
289.36	58.03
289.575	68.27
289.79	70.31
290.004	31.4
290.219	135.85
290.434	29.35
290.649	35.5
290.864	66.22
291.079	64.17
291.294	88.75
291.509	74.41
291.724	8.87
291.938	-46.42
292.153	80.55
292.368	27.31
292.583	80.55
292.798	8.87
293.012	33.45
293.227	74.41
293.442	72.36
293.657	49.83
293.871	94.89
294.086	64.17
294.301	117.42
294.516	137.9
294.73	78.51
294.945	27.31
295.16	84.65
295.374	127.66
295.589	37.55
295.804	103.08
296.018	98.99
296.233	109.23
296.447	62.12
296.662	37.55
296.877	90.79
297.091	70.31
297.306	0.68
297.52	53.93
297.735	146.09
297.949	27.31
298.164	35.5
298.378	49.83
298.593	119.46
298.807	0.68
299.022	23.21
299.236	152.23
299.451	43.69
299.665	15.02
299.88	33.45
300.094	-7.51
300.309	45.74
300.523	98.99
300.737	4.78
300.952	115.37
301.166	86.7
301.381	51.88
301.595	84.65
301.809	19.11
302.024	-7.51
302.238	15.02
302.452	158.38
302.667	12.97
302.881	144.04
303.095	84.65
303.309	10.92
303.524	53.93
303.738	148.14
303.952	49.83
304.166	33.45
304.381	55.98
304.595	168.62
304.809	35.5
305.023	90.79
305.237	72.36
305.452	47.79
305.666	47.79
305.88	29.35
306.094	111.27
306.308	58.03
306.522	98.99
306.736	-9.56
306.95	45.74
307.164	-19.8
307.379	27.31
307.593	176.81
307.807	82.6
308.021	37.55
308.235	58.03
308.449	23.21
308.663	25.26
308.877	176.81
309.091	6.83
309.305	96.94
309.519	-36.18
309.733	133.8
309.947	-7.51
310.161	58.03
310.374	127.66
310.588	37.55
310.802	-3.41
311.016	6.83
311.23	123.56
311.444	33.45
311.658	109.23
311.872	76.46
312.085	115.37
312.299	35.5
312.513	111.27
312.727	74.41
312.941	37.55
313.154	121.51
313.368	33.45
313.582	39.59
313.796	74.41
314.009	2.73
314.223	119.46
314.437	117.42
314.651	31.4
314.864	41.64
315.078	21.16
315.292	51.88
315.505	74.41
315.719	68.27
315.933	88.75
316.146	-34.13
316.36	4.78
316.573	135.85
316.787	21.16
317.001	33.45
317.214	58.03
317.428	-23.89
317.641	-50.52
317.855	60.07
318.068	64.17
318.282	-54.61
318.495	94.89
318.709	158.38
318.922	-17.75
319.136	72.36
319.349	66.22
319.563	39.59
319.776	74.41
319.99	47.79
320.203	92.84
320.417	45.74
320.63	76.46
320.843	162.47
321.057	49.83
321.27	98.99
321.483	12.97
321.697	62.12
321.91	72.36
322.124	58.03
322.337	88.75
322.55	-42.32
322.763	64.17
322.977	64.17
323.19	29.35
323.403	-19.8
323.617	39.59
323.83	45.74
324.043	10.92
324.256	119.46
324.469	47.79
324.683	96.94
324.896	66.22
325.109	66.22
325.322	19.11
325.535	168.62
325.748	115.37
325.962	51.88
326.175	0.68
326.388	70.31
326.601	113.32
326.814	66.22
327.027	33.45
327.24	121.51
327.453	-15.7
327.666	121.51
327.879	125.61
328.092	64.17
328.305	129.7
328.518	98.99
328.731	-1.37
328.944	78.51
329.157	96.94
329.37	19.11
329.583	131.75
329.796	103.08
330.009	8.87
330.222	111.27
330.435	92.84
330.648	21.16
330.861	82.6
331.073	82.6
331.286	107.18
331.499	70.31
331.712	53.93
331.925	90.79
332.138	8.87
332.35	121.51
332.563	-19.8
332.776	70.31
332.989	60.07
333.202	27.31
333.414	43.69
333.627	12.97
333.84	41.64
334.053	23.21
334.265	0.68
334.478	-3.41
334.691	62.12
334.903	115.37
335.116	21.16
335.329	-27.99
335.541	117.42
335.754	129.7
335.966	31.4
336.179	74.41
336.392	107.18
336.604	4.78
336.817	49.83
337.029	96.94
337.242	-30.04
337.454	2.73
337.667	58.03
337.88	43.69
338.092	29.35
338.305	60.07
338.517	-40.28
338.729	80.55
338.942	164.52
339.154	76.46
339.367	47.79
339.579	31.4
339.792	2.73
340.004	74.41
340.217	64.17
340.429	82.6
340.641	-5.46
340.854	21.16
341.066	23.21
341.278	94.89
341.491	168.62
341.703	101.03
341.915	-3.41
342.128	80.55
342.34	131.75
342.552	23.21
342.764	53.93
342.977	92.84
343.189	23.21
343.401	53.93
343.613	-5.46
343.826	47.79
344.038	125.61
344.25	41.64
344.462	-1.37
344.674	105.13
344.886	47.79
345.099	98.99
345.311	68.27
345.523	45.74
345.735	-27.99
345.947	162.47
346.159	133.8
346.371	21.16
346.583	90.79
346.795	105.13
347.007	41.64
347.219	94.89
347.431	47.79
347.643	129.7
347.855	2.73
348.067	113.32
348.279	8.87
348.491	33.45
348.703	92.84
348.915	88.75
349.127	-3.41
349.339	88.75
349.551	29.35
349.763	94.89
349.975	84.65
350.187	105.13
350.399	135.85
350.61	113.32
350.822	-13.65
351.034	96.94
351.246	47.79
351.458	35.5
351.669	47.79
351.881	53.93
352.093	86.7
352.305	68.27
352.517	74.41
352.728	166.57
352.94	43.69
353.152	125.61
353.363	60.07
353.575	86.7
353.787	129.7
353.999	121.51
354.21	133.8
354.422	135.85
354.633	31.4
354.845	47.79
355.057	21.16
355.268	84.65
355.48	135.85
355.692	8.87
355.903	72.36
356.115	21.16
356.326	10.92
356.538	117.42
356.749	64.17
356.961	144.04
357.172	27.31
357.384	82.6
357.595	197.29
357.807	21.16
358.018	39.59
358.23	96.94
358.441	78.51
358.653	101.03
358.864	88.75
359.075	17.07
359.287	64.17
359.498	72.36
359.709	49.83
359.921	84.65
360.132	121.51
360.344	29.35
360.555	55.98
360.766	49.83
360.977	131.75
361.189	88.75
361.4	0.68
361.611	41.64
361.823	129.7
362.034	94.89
362.245	51.88
362.456	12.97
362.667	105.13
362.879	62.12
363.09	92.84
363.301	31.4
363.512	41.64
363.723	55.98
363.935	53.93
364.146	88.75
364.357	76.46
364.568	78.51
364.779	10.92
364.99	160.42
365.201	49.83
365.412	107.18
365.623	35.5
365.834	-25.94
366.045	-40.28
366.256	109.23
366.467	29.35
366.678	78.51
366.889	98.99
367.1	23.21
367.311	78.51
367.522	35.5
367.733	98.99
367.944	168.62
368.155	12.97
368.366	150.18
368.577	133.8
368.788	45.74
368.999	80.55
369.209	-44.37
369.42	168.62
369.631	64.17
369.842	37.55
370.053	64.17
370.264	115.37
370.474	107.18
370.685	72.36
370.896	62.12
371.107	101.03
371.317	94.89
371.528	41.64
371.739	139.94
371.95	70.31
372.16	103.08
372.371	-30.04
372.582	49.83
372.792	98.99
373.003	88.75
373.214	117.42
373.424	96.94
373.635	27.31
373.846	53.93
374.056	88.75
374.267	51.88
374.477	60.07
374.688	39.59
374.898	47.79
375.109	98.99
375.319	90.79
375.53	105.13
375.74	78.51
375.951	60.07
376.161	62.12
376.372	92.84
376.582	12.97
376.793	33.45
377.003	-21.84
377.214	31.4
377.424	68.27
377.635	49.83
377.845	6.83
378.055	94.89
378.266	8.87
378.476	78.51
378.686	103.08
378.897	51.88
379.107	90.79
379.317	123.56
379.528	105.13
379.738	92.84
379.948	21.16
380.158	107.18
380.369	135.85
380.579	60.07
380.789	139.94
380.999	53.93
381.21	144.04
381.42	121.51
381.63	-54.61
381.84	68.27
382.05	84.65
382.261	127.66
382.471	88.75
382.681	41.64
382.891	148.14
383.101	72.36
383.311	96.94
383.521	-19.8
383.731	70.31
383.941	96.94
384.151	84.65
384.361	70.31
384.571	82.6
384.781	72.36
384.991	172.71
385.201	162.47
385.411	82.6
385.621	92.84
385.831	60.07
386.041	55.98
386.251	96.94
386.461	156.33
386.671	76.46
386.881	94.89
387.091	64.17
387.301	70.31
387.511	92.84
387.72	117.42
387.93	129.7
388.14	88.75
388.35	27.31
388.56	86.7
388.769	141.99
388.979	86.7
389.189	12.97
389.399	78.51
389.609	135.85
389.818	123.56
390.028	101.03
390.238	51.88
390.447	15.02
390.657	168.62
390.867	62.12
391.076	72.36
391.286	88.75
391.496	113.32
391.705	43.69
391.915	139.94
392.125	121.51
392.334	53.93
392.544	119.46
392.753	27.31
392.963	37.55
393.172	62.12
393.382	27.31
393.591	195.24
393.801	66.22
394.01	133.8
394.22	94.89
394.429	74.41
394.639	47.79
394.848	119.46
395.058	86.7
395.267	92.84
395.477	94.89
395.686	96.94
395.895	176.81
396.105	121.51
396.314	119.46
396.524	148.14
396.733	78.51
396.942	164.52
397.152	191.14
397.361	150.18
397.57	125.61
397.78	127.66
397.989	60.07
398.198	228.01
398.407	105.13
398.617	55.98
398.826	164.52
399.035	15.02
399.244	189.1
399.453	137.9
399.663	72.36
399.872	180.9
400.081	51.88
400.29	162.47
400.499	64.17
400.708	90.79
400.917	105.13
401.127	162.47
401.336	123.56
401.545	162.47
401.754	146.09
401.963	152.23
402.172	131.75
402.381	158.38
402.59	160.42
402.799	154.28
403.008	182.95
403.217	90.79
403.426	125.61
403.635	68.27
403.844	219.82
404.053	213.67
404.262	103.08
404.471	199.34
404.68	127.66
404.888	117.42
405.097	152.23
405.306	121.51
405.515	170.66
405.724	137.9
405.933	146.09
406.142	238.25
406.35	238.25
406.559	213.67
406.768	197.29
406.977	291.49
407.185	225.96
407.394	320.17
407.603	101.03
407.812	250.53
408.02	309.93
408.229	213.67
408.438	238.25
408.646	289.45
408.855	316.07
409.064	314.02
409.272	295.59
409.481	393.89
409.69	262.82
409.898	295.59
410.107	285.35
410.315	393.89
410.524	320.17
410.733	377.51
410.941	391.84
411.15	430.76
411.358	369.32
411.567	457.38
411.775	494.24
411.984	488.1
412.192	516.77
412.401	383.65
412.609	543.39
412.818	565.92
413.026	484
413.234	445.09
413.443	529.06
413.651	557.73
413.86	641.7
414.068	635.55
414.276	709.28
414.485	600.74
414.693	746.14
414.901	844.45
415.11	760.48
415.318	678.56
415.526	756.38
415.734	864.93
415.943	778.91
416.151	883.36
416.359	787.1
416.567	899.74
416.776	895.65
416.984	1069.72
417.192	1065.63
417.4	1022.62
417.608	1077.91
417.817	1092.25
418.025	1194.65
418.233	1223.32
418.441	1149.59
418.649	1260.18
418.857	1364.63
419.065	1354.39
419.273	1313.43
419.481	1452.69
419.689	1544.85
419.897	1720.98
420.105	1507.99
420.313	1622.67
420.521	1753.74
420.729	1712.78
420.937	1800.85
421.145	1884.81
421.353	1847.95
421.561	2005.64
421.769	2105.99
421.977	2116.23
422.185	2163.34
422.393	2235.02
422.601	2364.04
422.809	2409.09
423.017	2450.05
423.224	2550.4
423.432	2615.94
423.64	2660.99
423.848	2871.93
424.056	2781.82
424.263	2992.77
424.471	2871.93
424.679	3187.32
424.887	3103.36
425.094	3439.22
425.302	3287.67
425.51	3377.78
425.718	3607.16
425.925	3521.14
426.133	3682.93
426.341	3867.25
426.548	4074.09
426.756	4147.82
426.964	4049.52
427.171	4330.09
427.379	4498.02
427.586	4547.17
427.794	4801.12
428.001	4870.75
428.209	5171.8
428.417	5124.7
428.624	5300.83
428.832	5495.38
429.039	5313.11
429.247	5388.89
429.454	5851.73
429.662	6058.57
429.869	5831.25
430.076	6316.62
430.284	6150.73
430.491	6294.09
430.699	6728.26
430.906	6824.51
431.114	6748.74
431.321	7076.41
431.528	7211.58
431.736	7735.86
431.943	7985.71
432.15	7666.23
432.358	8010.29
432.565	8266.28
432.772	8215.09
432.979	8817.19
433.187	8788.52
433.394	8913.44
433.601	9589.27
433.808	9458.2
434.016	9302.56
434.223	9531.93
434.43	10158.61
434.637	10297.87
434.844	10967.56
435.052	11018.75
435.259	10787.33
435.466	11141.63
435.673	10824.2
435.88	11815.41
436.087	12249.58
436.294	12239.34
436.501	12114.42
436.708	12294.64
436.915	12741.1
437.122	13144.55
437.329	13257.18
437.537	13693.4
437.743	13830.62
437.95	13990.36
438.157	14348.75
438.364	14965.19
438.571	14684.62
438.778	14932.42
438.985	16343.47
439.192	15706.56
439.399	16224.69
439.606	15739.32
439.813	16656.81
440.02	17787.29
440.227	17291.68
440.433	17242.53
440.64	17684.89
440.847	17725.85
441.054	18149.78
441.261	19452.29
441.467	18936.2
441.674	19313.03
441.881	20265.33
442.088	20306.29
442.294	20068.73
442.501	20535.67
442.708	21123.43
442.914	22053.21
443.121	22602.07
443.328	22034.78
443.534	23585.09
443.741	22956.36
443.948	22231.38
444.154	24580.4
444.361	24254.78
444.568	24097.08
444.774	24441.14
444.981	24467.77
445.187	25366.82
445.394	26140.96
445.6	25854.24
445.807	28307.71
446.013	27369.74
446.22	27945.22
446.426	28852.47
446.633	29100.27
446.839	29849.83
447.046	29012.21
447.252	30650.58
447.459	30818.52
447.665	30255.32
447.871	31416.52
448.078	33255.6
448.284	31627.46
448.491	32295.1
448.697	34062.5
448.903	34171.04
449.11	34338.97
449.316	33820.84
449.522	34230.43
449.728	35459.21
449.935	35244.18
450.141	35440.78
450.347	36079.75
450.553	34715.8
450.76	35608.72
450.966	36782.2
451.172	36171.91
451.378	37134.45
451.584	35991.69
451.791	37488.75
451.997	37177.46
452.203	37539.95
452.409	37826.67
452.615	37308.53
452.821	36083.84
453.027	35799.18
453.233	37777.51
453.44	36278.4
453.646	36452.48
453.852	36653.18
454.058	37218.42
454.264	35768.46
454.47	36630.65
454.676	35551.37
454.882	36870.26
455.088	33761.45
455.294	34357.41
455.5	34746.52
455.705	35635.34
455.911	33464.49
456.117	32878.77
456.323	32438.46
456.529	31107.28
456.735	32669.88
456.941	31285.45
457.147	31191.25
457.352	30056.67
457.558	29874.4
457.764	29901.03
457.97	29315.31
458.176	28567.8
458.381	28811.51
458.587	26956.05
458.793	27119.88
458.999	25547.04
459.204	27160.84
459.41	26544.41
459.616	25026.86
459.821	24994.09
460.027	24860.98
460.233	23906.62
460.438	23064.91
460.644	23413.06
460.85	22327.64
461.055	22038.87
461.261	21754.21
461.466	20181.37
461.672	19575.17
461.878	21127.53
462.083	19587.46
462.289	19108.23
462.494	19030.41
462.7	18119.06
462.905	17596.83
463.111	18082.2
463.316	18321.81
463.522	17955.22
463.727	17729.95
463.932	17908.12
464.138	17787.29
464.343	18061.72
464.549	16970.15
464.754	17828.25
464.959	17643.93
465.165	17414.56
465.37	16939.43
465.575	16271.79
465.781	16976.3
465.986	17342.88
466.191	16288.18
466.397	16124.34
466.602	15180.23
466.807	15808.95
467.012	15966.65
467.218	15935.93
467.423	15505.85
467.628	15684.03
467.833	16329.14
468.038	15704.51
468.244	15188.42
468.449	16017.85
468.654	15401.41
468.859	15036.87
469.064	15399.36
469.269	14653.9
469.474	14633.42
469.679	14774.73
469.885	14494.16
470.09	14682.57
470.295	14762.44
470.5	14211.54
470.705	14297.55
470.91	14156.24
471.115	14004.69
471.32	14174.67
471.525	13836.76
471.73	13728.22
471.935	13847
472.139	13175.27
472.344	13279.71
472.549	13306.34
472.754	13150.69
472.959	12720.62
473.164	12472.81
473.369	12536.3
473.574	13087.2
473.778	12556.78
473.983	12431.85
474.188	12458.48
474.393	12034.55
474.598	11913.72
474.802	11782.65
475.007	11940.34
475.212	11680.25
475.417	11469.31
475.621	11330.05
475.826	11387.39
476.031	11213.31
476.235	11055.62
476.44	11213.31
476.645	10801.67
476.849	10797.57
477.054	10523.15
477.259	10547.72
477.463	10414.6
477.668	10449.42
477.872	10451.47
478.077	10254.86
478.282	9935.38
478.486	9888.28
478.691	9759.25
478.895	9820.69
479.1	9744.92
479.304	9931.28
479.509	9400.86
479.713	9552.41
479.918	9411.1
480.122	9345.56
480.326	9638.42
480.531	9345.56
480.735	9267.74
480.94	9040.42
481.144	9458.2
481.348	9212.45
481.553	9206.3
481.757	9153.06
481.961	9312.8
482.166	9196.06
482.37	9189.92
482.574	9105.95
482.778	9005.6
482.983	9341.47
483.187	9153.06
483.391	8995.36
483.595	9196.06
483.8	8960.55
484.004	9208.35
484.208	9251.36
484.412	9277.98
484.616	8976.93
484.821	9048.61
485.025	8778.28
485.229	9056.8
485.433	8933.92
485.637	8995.36
485.841	8882.72
486.045	8843.81
486.249	9183.77
486.453	8841.76
486.657	8978.98
486.861	9079.33
487.065	8675.88
487.269	9134.62
487.473	8870.44
487.677	9210.4
487.881	9255.45
488.085	9001.51
488.289	9185.82
488.493	8966.69
488.697	9085.47
488.901	8948.26
489.105	8974.88
489.309	9062.94
489.512	9124.38
489.716	9044.51
489.92	9140.77
490.124	9030.18
490.328	9130.53
490.531	9167.39
490.735	9204.25
490.939	9273.89
491.143	9091.62
491.346	9312.8
491.55	9247.26
491.754	9318.94
491.958	9394.72
492.161	9337.37
492.365	9312.8
492.569	9327.13
492.772	9474.59
492.976	9654.81
493.18	9697.81
493.383	9669.14
493.587	9843.22
493.79	10019.35
493.994	9667.1
494.197	9970.19
494.401	9871.89
494.605	9888.28
494.808	10097.17
495.012	10115.6
495.215	10220.05
495.419	10187.28
495.622	10236.43
495.825	10285.58
496.029	10201.61
496.232	10922.5
496.436	10508.81
496.639	10785.29
496.843	10828.29
497.046	10789.38
497.249	11047.43
497.453	10985.99
497.656	11172.35
497.859	11325.95
498.063	11289.09
498.266	11708.92
498.469	11526.65
498.673	11497.98
498.876	11811.32
499.079	12005.88
499.282	11723.26
499.485	12300.78
499.689	12214.77
499.892	12466.67
500.095	12583.4
500.298	12489.2
500.501	12493.29
500.705	13019.62
500.908	13212.13
501.111	13208.03
501.314	13189.6
501.517	13543.9
501.72	13775.32
501.923	13621.72
502.126	13957.59
502.329	14088.66
502.532	14039.51
502.735	14197.2
502.938	14713.29
503.141	14553.55
503.344	14864.84
503.547	14711.24
503.75	14981.57
503.953	15276.48
504.156	15196.61
504.359	15616.44
504.562	15473.09
504.765	15931.83
504.968	15878.58
505.17	16390.58
505.373	15808.95
505.576	16267.7
505.779	16753.07
505.982	16669.1
506.185	17187.24
506.387	17056.17
506.59	17365.41
506.793	17645.98
506.996	17586.59
507.198	17942.94
507.401	17680.8
507.604	18051.48
507.807	18608.53
508.009	18624.91
508.212	18563.47
508.415	18909.58
508.617	19075.46
508.82	19145.09
509.022	19132.81
509.225	19405.19
509.428	19861.88
509.63	19775.87
509.833	19945.85
510.035	20130.17
510.238	20185.46
510.44	20506.99
510.643	20916.59
510.845	21055.85
511.048	21047.66
511.25	21131.62
511.453	21281.13
511.655	22163.8
511.858	21887.32
512.06	21969.24
512.262	22464.85
512.465	22243.67
512.667	22399.32
512.87	22896.97
513.072	23011.66
513.274	23396.68
513.477	23429.45
513.679	23703.87
513.881	23750.98
514.084	23822.66
514.286	24133.95
514.488	23941.44
514.69	24910.13
514.893	24473.91
515.095	24955.18
515.297	25196.84
515.499	25106.73
515.701	25610.53
515.904	25833.76
516.106	25835.81
516.308	26091.8
516.51	26235.16
516.712	26272.03
516.914	26794.26
517.116	26962.19
517.318	26628.37
517.52	27226.38
517.722	27291.91
517.925	27724.04
518.127	27808
518.329	27955.46
518.531	28072.19
518.733	28414.2
518.935	28586.23
519.136	28516.6
519.338	28786.93
519.54	29034.74
519.742	29305.07
519.944	29202.67
520.146	29655.27
520.348	29546.73
520.55	29888.74
520.752	29999.33
520.954	30181.6
521.155	30236.89
521.357	30732.5
521.559	30574.81
521.761	31197.39
521.963	30974.16
522.164	31162.58
522.366	31320.27
522.568	31609.03
522.77	31432.91
522.971	32121.02
523.173	31664.33
523.375	31936.71
523.576	32223.42
523.778	32387.26
523.98	32571.58
524.181	32600.25
524.383	32665.78
524.584	33208.5
524.786	32897.2
524.988	32731.32
525.189	33235.12
525.391	33484.97
525.592	33403.05
525.794	33616.04
525.995	33446.06
526.197	33267.89
526.398	33554.6
526.6	33667.24
526.801	33532.07
527.003	33826.98
527.204	34058.4
527.406	34052.26
527.607	34203.81
527.808	34394.27
528.01	33724.58
528.211	34365.6
528.412	34635.93
528.614	34885.78
528.815	34640.03
529.016	34963.61
529.218	34310.3
529.419	34844.82
529.62	34680.99
529.822	34560.16
530.023	34678.94
530.224	34556.06
530.425	34914.45
530.626	34357.41
530.828	34439.33
531.029	35166.35
531.23	34822.3
531.431	34613.4
531.632	34840.73
531.833	34945.17
532.035	34726.04
532.236	34984.08
532.437	34855.06
532.638	34603.16
532.839	34818.2
533.04	34820.25
533.241	34574.49
533.442	35272.85
533.643	35002.52
533.844	34773.14
534.045	34873.49
534.246	34396.32
534.447	34916.5
534.648	34453.66
534.849	35066
535.05	34468
535.251	34687.13
535.451	34828.44
535.652	35256.46
535.853	34588.83
536.054	34951.32
536.255	34611.35
536.456	34551.96
536.657	35426.45
536.857	34527.39
537.058	34916.5
537.259	35039.38
537.46	34664.6
537.66	34883.73
537.861	34701.47
538.062	34441.37
538.263	34740.38
538.463	34418.85
538.664	34404.51
538.865	34648.22
539.065	34863.25
539.266	34269.34
539.466	35078.29
539.667	34439.33
539.868	34494.62
540.068	34355.36
540.269	34732.18
540.469	34449.56
540.67	34158.75
540.87	34232.48
541.071	34457.76
541.271	34500.76
541.472	34515.1
541.672	34121.89
541.873	34105.51
542.073	33822.89
542.274	34418.85
542.474	34273.44
542.675	34252.96
542.875	34459.8
543.075	34160.8
543.276	33579.18
543.476	34048.16
543.676	34091.17
543.877	34095.27
544.077	34119.84
544.277	33845.41
544.478	33970.34
544.678	34295.97
544.878	34273.44
545.078	34132.13
545.279	33790.12
545.479	33456.3
545.679	34345.12
545.879	33798.31
546.079	34044.07
546.28	33343.66
546.48	33382.57
546.68	34255.01
546.88	33962.15
547.08	33849.51
547.28	33788.07
547.48	33587.37
547.68	34017.44
547.88	33822.89
548.081	33833.13
548.281	33581.23
548.481	33364.14
548.681	33966.24
548.881	33568.94
549.081	33855.65
549.28	33675.43
549.48	33968.29
549.68	33308.85
549.88	33943.72
550.08	33380.53
550.28	33460.4
550.48	33650.86
550.68	33550.51
550.88	33659.05
551.08	33540.27
551.279	33747.11
551.479	33296.56
551.679	33544.36
551.879	33388.72
552.079	33597.61
552.278	33484.97
552.478	33251.5
552.678	33517.74
552.878	33415.34
553.077	33347.76
553.277	33118.39
553.477	33667.24
553.676	33061.04
553.876	33583.27
554.076	33022.13
554.275	33034.42
554.475	32897.2
554.674	33231.02
554.874	33046.71
555.074	33441.96
555.273	33159.34
555.473	33339.57
555.672	32932.02
555.872	32850.1
556.071	33071.28
556.271	33370.29
556.47	33054.9
556.67	32938.16
556.869	32977.08
557.068	33075.38
557.268	32932.02
557.467	32821.43
557.667	33040.56
557.866	32846.01
558.065	32962.74
558.265	32903.35
558.464	32610.49
558.663	33243.31
558.863	32411.84
559.062	33321.13
559.261	32458.94
559.461	33177.78
559.66	32657.59
559.859	32667.83
560.058	32409.79
560.258	32671.93
560.457	32499.9
560.656	32966.84
560.855	32518.33
561.054	32331.97
561.253	32284.86
561.453	32442.56
561.652	32555.19
561.851	32497.85
562.05	32211.14
562.249	32233.66
562.448	32684.22
562.647	32430.27
562.846	32260.29
563.045	32301.25
563.244	32116.93
563.443	32862.39
563.642	31846.6
563.841	32157.89
564.04	32342.21
564.239	32329.92
564.438	32051.39
564.637	31887.56
564.836	32233.66
565.035	31545.55
565.234	32389.31
565.432	32129.22
565.631	31905.99
565.83	32245.95
566.029	31563.98
566.228	31793.35
566.427	31779.01
566.625	31664.33
566.824	31660.23
567.023	32106.69
567.222	31414.48
567.42	31740.1
567.619	31736.01
567.818	31670.47
568.016	31744.2
568.215	32094.4
568.414	31510.73
568.612	31690.95
568.811	31355.08
569.01	31758.53
569.208	31146.19
569.407	31842.5
569.605	31267.02
569.804	31424.72
570.002	31242.45
570.201	31557.83
570.4	30896.34
570.598	31099.09
570.797	31121.62
570.995	31191.25
571.193	30693.59
571.392	31310.03
571.59	31070.42
571.789	31144.14
571.987	30925.01
572.186	30818.52
572.384	30900.44
572.582	31133.9
572.781	30826.71
572.979	30585.05
573.177	30748.89
573.376	30800.08
573.574	30521.56
573.772	30554.33
573.971	30378.2
574.169	30689.49
574.367	30415.07
574.565	30603.48
574.763	30363.87
574.962	30376.16
575.16	29972.71
575.358	30615.77
575.556	29659.37
575.754	30812.37
575.952	29972.71
576.151	30296.28
576.349	30001.38
576.547	30142.69
576.745	30023.9
576.943	30255.32
577.141	30140.64
577.339	30128.35
577.537	29907.17
577.735	29925.6
577.933	29417.71
578.131	29802.72
578.329	29823.2
578.527	29556.97
578.725	29817.06
578.923	29522.15
579.121	29524.2
579.319	29382.89
579.516	29747.43
579.714	29563.11
579.912	29145.33
580.11	29427.95
580.308	29429.99
580.506	28954.86
580.704	29083.89
580.901	28897.52
581.099	29260.01
581.297	29010.16
581.495	28807.41
581.692	28985.58
581.89	29198.57
582.088	29200.62
582.285	28631.29
582.483	28752.12
582.681	29110.51
582.878	28729.59
583.076	28760.31
583.274	28610.81
583.471	28516.6
583.669	28440.82
583.866	28178.68
584.064	28584.18
584.262	28291.32
584.459	28322.04
584.657	28068.09
584.854	28010.75
585.052	28147.97
585.249	28170.49
585.447	27891.97
585.644	27926.78
585.841	27969.79
586.039	28340.47
586.236	27955.46
586.434	27928.83
586.631	27617.54
586.828	28082.43
587.026	27914.5
587.223	27848.96
587.42	27394.31
587.618	27490.57
587.815	27580.68
588.012	27562.25
588.21	27332.87
588.407	27490.57
588.604	27566.34
588.801	27257.1
588.999	27181.32
589.196	27435.27
589.393	26831.12
589.59	26859.79
589.787	27357.45
589.984	26915.09
590.182	26794.26
590.379	26812.69
590.576	26726.67
590.773	26571.03
590.97	26568.98
591.167	26757.39
591.364	26542.36
591.561	26573.08
591.758	26487.06
591.955	26548.5
592.152	26540.31
592.349	26474.77
592.546	26497.3
592.743	26331.42
592.94	25749.79
593.137	26482.97
593.334	26487.06
593.531	25680.16
593.727	25893.15
593.924	25946.4
594.121	25780.51
594.318	26022.17
594.515	25796.9
594.712	25968.93
594.908	25866.53
595.105	26208.54
595.302	25485.61
595.499	25766.18
595.696	25702.69
595.892	25237.8
596.089	25755.94
596.286	25745.7
596.482	25596.2
596.679	25432.36
596.876	25497.89
597.072	25147.69
597.269	25438.5
597.466	25184.55
597.662	25397.54
597.859	25479.46
598.055	25096.49
598.252	24934.7
598.448	24951.09
598.645	25016.62
598.841	24617.27
599.038	24949.04
599.234	25043.24
599.431	24518.96
599.627	24365.37
599.824	24637.75
600.02	24645.94
600.217	24664.37
600.413	24787.25
600.609	24564.02
600.806	24502.58
601.002	24535.35
601.198	24623.41
601.395	24430.9
601.591	24365.37
601.787	24359.22
601.984	24152.38
602.18	24279.35
602.376	24254.78
602.572	23966.01
602.769	24271.16
602.965	23877.95
603.161	24191.29
603.357	23798.08
603.553	23861.57
603.75	23912.77
603.946	23626.05
604.142	23912.77
604.338	23699.78
604.534	23963.97
604.73	23761.22
604.926	23710.02
605.122	23724.35
605.318	23423.3
605.514	23066.95
605.71	23390.53
605.906	23458.12
606.102	23587.14
606.298	23603.52
606.494	23142.73
606.69	23388.49
606.886	23413.06
607.082	23050.57
607.278	23609.67
607.474	23351.62
607.67	23269.7
607.866	22974.8
608.062	23310.66
608.257	23109.96
608.453	23101.77
608.649	23523.65
608.845	23091.53
609.041	22901.07
609.236	23425.35
609.432	23089.48
609.628	23050.57
609.824	22925.64
610.019	23126.35
610.215	22743.38
610.411	23195.98
610.606	23101.77
610.802	22804.81
610.998	22972.75
611.193	23034.19
611.389	22636.88
611.584	22714.7
611.78	22708.56
611.976	22851.92
612.171	22921.55
612.367	22985.04
612.562	22638.93
612.758	22468.95
612.953	22432.08
613.149	22765.9
613.344	22401.36
613.539	23105.87
613.735	22503.76
613.93	22630.74
614.126	22249.82
614.321	22780.24
614.517	22554.96
614.712	22483.28
614.907	22229.34
615.103	22677.84
615.298	22419.8
615.493	22786.38
615.688	22284.63
615.884	22524.24
616.079	22120.79
616.274	22487.38
616.47	22366.55
616.665	22266.2
616.86	21842.27
617.055	22202.71
617.25	22294.87
617.445	22452.56
617.641	21746.01
617.836	22403.41
618.031	21750.11
618.226	22272.34
618.421	21801.31
618.616	21995.87
618.811	21748.06
619.006	21832.03
619.201	21207.4
619.396	21516.64
619.591	21344.61
619.786	21664.1
619.981	21180.78
620.176	21696.86
620.371	21287.27
620.566	21180.78
620.761	21094.76
620.956	21336.42
621.151	20664.69
621.346	21311.85
621.541	20513.14
621.735	20877.68
621.93	20789.61
622.125	20486.51
622.32	20451.7
622.515	20541.81
622.709	20296.05
622.904	20349.3
623.099	20291.96
623.294	20121.98
623.488	19972.47
623.683	19984.76
623.878	19728.77
624.072	20115.83
624.267	19566.98
624.462	19882.36
624.656	19388.8
624.851	19495.3
625.046	19364.23
625.24	18979.21
625.435	19141
625.629	18934.15
625.824	19100.04
626.018	18729.36
626.213	18655.63
626.407	18555.28
626.602	18418.07
626.796	18753.93
626.991	18534.8
627.185	18637.2
627.38	18551.18
627.574	18432.4
627.768	18112.92
627.963	18145.69
628.157	17815.96
628.352	18059.67
628.546	17695.13
628.74	17879.45
628.935	17584.54
629.129	17625.5
629.323	17260.96
629.517	17492.38
629.712	17344.93
629.906	17115.56
630.1	16890.28
630.294	17346.98
630.489	16947.62
630.683	17203.62
630.877	16656.81
631.071	16781.74
631.265	16570.8
631.459	16605.61
631.653	16667.05
631.848	16312.75
632.042	16474.54
632.236	16265.65
632.43	16259.51
632.624	16198.07
632.818	16167.35
633.012	16003.51
633.206	15884.73
633.4	16023.99
633.594	15686.08
633.788	15854.01
633.982	15534.53
634.176	15710.65
634.369	15589.82
634.563	15561.15
634.757	15145.41
634.951	15288.77
635.145	15239.62
635.339	15190.47
635.533	15104.45
635.726	15008.2
635.92	14758.35
636.114	14770.63
636.308	14574.03
636.501	14680.52
636.695	14750.15
636.889	14402
637.083	14311.89
637.276	14445.01
637.47	14279.12
637.664	14182.87
637.857	14131.67
638.051	14223.83
638.244	13832.66
638.438	13887.96
638.632	13959.64
638.825	13701.59
639.019	13869.53
639.212	13556.19
639.406	13615.58
639.599	13441.5
639.793	13234.66
639.986	13283.81
640.18	13525.47
640.373	13267.42
640.567	13126.11
640.76	13115.87
640.954	12898.79
641.147	12929.51
641.34	12677.61
641.534	12745.19
641.727	12763.62
641.92	12749.29
642.114	12540.4
642.307	12530.16
642.5	12413.42
642.694	12302.83
642.887	12163.57
643.08	12243.44
643.273	12069.36
643.467	12046.83
643.66	11948.53
643.853	11985.4
644.046	11665.91
644.239	11809.27
644.432	11807.22
644.626	11366.91
644.819	11487.74
645.012	11528.7
645.205	11563.51
645.398	11422.2
645.591	11362.81
645.784	11201.02
645.977	11112.96
646.17	11014.66
646.363	11256.32
646.556	10992.13
646.749	10740.23
646.942	10871.3
647.135	10689.03
647.328	10660.36
647.521	10744.33
647.714	10402.32
647.907	10467.85
648.099	10418.7
648.292	10344.97
648.485	10496.52
648.678	10199.57
648.871	10187.28
649.064	10064.4
649.256	10119.7
649.449	10052.11
649.642	9923.09
649.835	9814.55
650.027	10005.01
650.22	9822.74
650.413	9749.01
650.605	9957.91
650.798	9863.7
650.991	9517.59
651.183	9521.69
651.376	9392.67
651.568	9452.06
651.761	9454.11
651.954	9224.73
652.146	9290.27
652.339	9237.02
652.531	9280.03
652.724	9179.68
652.916	8854.05
653.109	9030.18
653.301	9009.7
653.494	9132.58
653.686	9001.51
653.879	8991.27
654.071	8743.46
654.263	8745.51
654.456	8710.69
654.648	8532.52
654.84	8485.42
655.033	8546.86
655.225	8722.98
655.417	8516.14
655.61	8438.31
655.802	8616.49
655.994	8354.35
656.186	8284.72
656.379	8170.03
656.571	8190.51
656.763	7981.62
656.955	8059.44
657.148	8036.91
657.34	8094.26
657.532	7916.08
657.724	7885.36
657.916	7907.89
658.108	7850.55
658.3	7815.73
658.492	7815.73
658.684	7682.61
658.876	7754.29
659.068	7420.47
659.26	7510.58
659.452	7574.07
659.644	7426.62
659.836	7508.54
660.028	7254.59
660.22	7172.67
660.412	7422.52
660.604	7127.61
660.796	7275.07
660.988	7068.22
661.18	7010.88
661.372	6892.1
661.563	7119.42
661.755	7117.37
661.947	6885.95
662.139	6871.62
662.331	6662.73
662.522	6752.84
662.714	6707.78
662.906	6804.03
663.097	6744.64
663.289	6447.69
663.481	6330.95
663.673	6625.86
663.864	6279.75
664.056	6451.78
664.247	6394.44
664.439	6447.69
664.631	6314.57
664.822	6330.95
665.014	6388.3
665.205	6306.38
665.397	6306.38
665.588	6343.24
665.78	6257.23
665.971	6132.3
666.163	6222.41
666.354	6025.81
666.546	5972.56
666.737	5974.61
666.929	5958.22
667.12	6048.33
667.311	5968.46
667.503	5855.83
667.694	5911.12
667.885	5827.15
668.077	5904.98
668.268	5833.3
668.459	5767.76
668.651	5821.01
668.842	5818.96
669.033	5579.35
669.224	5497.43
669.416	5737.04
669.607	5683.8
669.798	5405.27
669.989	5726.8
670.18	5599.83
670.371	5466.71
670.563	5399.13
670.754	5366.36
670.945	5487.19
671.136	5528.15
671.327	5444.18
671.518	5407.32
671.709	5386.84
671.9	5505.62
672.091	5335.64
672.282	5237.34
672.473	5294.68
672.664	5274.2
672.855	5212.76
673.046	5263.96
673.237	5325.4
673.428	5118.56
673.619	5100.12
673.809	5139.04
674	5194.33
674.191	5212.76
674.382	5218.91
674.573	5120.6
674.764	4948.58
674.954	5147.23
675.145	4883.04
675.336	5030.49
675.527	4948.58
675.717	4995.68
675.908	4919.9
676.099	4895.33
676.289	5003.87
676.48	5016.16
676.671	4831.84
676.861	4856.42
677.052	4913.76
677.243	4799.07
677.433	4754.02
677.624	5053.02
677.814	4897.38
678.005	4921.95
678.195	4962.91
678.386	4823.65
678.576	4868.7
678.767	4756.07
678.957	4848.22
679.148	4852.32
679.338	4743.78
679.529	4844.13
679.719	4680.29
679.909	4993.63
680.1	4694.63
680.29	4688.48
680.481	4715.11
680.671	4821.6
680.861	4579.94
681.052	4950.62
681.242	4672.1
681.432	4751.97
681.622	4754.02
681.813	4682.34
682.003	4627.04
682.193	4588.13
682.383	4711.01
682.573	4680.29
682.764	4692.58
682.954	4665.96
683.144	4829.79
683.334	4661.86
683.524	4561.51
683.714	4770.4
683.904	4596.32
684.094	4565.61
684.284	4563.56
684.474	4627.04
684.664	4788.83
684.854	4590.18
685.044	4536.93
685.234	4635.24
685.424	4541.03
685.614	4612.71
685.804	4510.31
685.994	4586.08
686.184	4526.69
686.374	4643.43
686.564	4627.04
686.753	4600.42
686.943	4403.82
687.133	4459.11
687.323	4557.41
687.513	4483.69
687.702	4598.37
687.892	4405.86
688.082	4315.75
688.272	4452.97
688.461	4420.2
688.651	4420.2
688.841	4289.13
689.03	4389.48
689.22	4229.74
689.41	4323.94
689.599	4287.08
689.789	4348.52
689.979	4428.39
690.168	4315.75
690.358	4211.31
690.547	4254.31
690.737	4260.46
690.926	4377.19
691.116	4061.8
691.305	4270.7
691.495	4190.83
691.684	4201.07
691.874	4328.04
692.063	4133.48
692.252	4172.4
692.442	4121.2
692.631	4010.61
692.82	4209.26
693.01	4209.26
693.199	4053.61
693.388	4024.94
693.578	4254.31
693.767	4186.73
693.956	4262.51
694.146	4100.72
694.335	4178.54
694.524	3983.98
694.713	4190.83
694.902	4244.07
695.092	3922.54
695.281	4074.09
695.47	4147.82
695.659	4115.05
695.848	4139.63
696.037	3988.08
696.226	4239.98
696.415	4022.89
696.604	4252.27
696.793	4072.04
696.982	4026.99
697.171	4280.94
697.36	4225.64
697.549	4059.76
697.738	4108.91
697.927	3973.74
698.116	4274.79
698.305	4207.21
698.494	4270.7
698.683	4168.3
698.872	4158.06
699.061	4151.92
699.25	4328.04
699.438	4182.63
699.627	4201.07
699.816	4303.47
700.005	4217.45
700.193	4209.26
700.382	4237.93
700.571	4336.23
700.76	4285.03
700.948	4215.4
701.137	4242.03
701.326	4266.6
701.514	4385.38
701.703	4242.03
701.892	4387.43
702.08	4209.26
702.269	4282.99
702.457	4158.06
702.646	4256.36
702.834	4321.9
703.023	4254.31
703.212	4315.75
703.4	4371.05
703.589	4215.4
703.777	4401.77
703.965	4293.23
704.154	4229.74
704.342	4309.61
704.531	4256.36
704.719	4133.48
704.907	4366.95
705.096	4328.04
705.284	4389.48
705.472	4334.18
705.661	4321.9
705.849	4418.15
706.037	4528.74
706.226	4287.08
706.414	4315.75
706.602	4414.06
706.79	4268.65
706.979	4373.1
707.167	4389.48
707.355	4338.28
707.543	4362.86
707.731	4463.21
707.919	4485.73
708.107	4508.26
708.296	4323.94
708.484	4309.61
708.672	4401.77
708.86	4323.94
709.048	4364.9
709.236	4375.14
709.424	4303.47
709.612	4393.58
709.8	4303.47
709.988	4256.36
710.176	4426.34
710.364	4498.02
710.551	4354.66
710.739	4389.48
710.927	4373.1
711.115	4362.86
711.303	4414.06
711.491	4235.88
711.679	4477.54
711.866	4403.82
712.054	4328.04
712.242	4055.66
712.43	4479.59
712.617	4389.48
712.805	4405.86
712.993	4471.4
713.181	4344.42
713.368	4401.77
713.556	4364.9
713.744	4256.36
713.931	4473.45
714.119	4407.91
714.306	4457.06
714.494	4469.35
714.682	4262.51
714.869	4350.57
715.057	4350.57
715.244	4219.5
715.432	4231.79
715.619	4323.94
715.807	4328.04
715.994	4375.14
716.182	4401.77
716.369	4356.71
716.556	4309.61
716.744	4381.29
716.931	4401.77
717.119	4428.39
717.306	4397.67
717.493	4379.24
717.681	4369
717.868	4287.08
718.055	4317.8
718.242	4473.45
718.43	4299.37
718.617	4340.33
718.804	4328.04
718.991	4440.68
719.179	4280.94
719.366	4342.38
719.553	4332.14
719.74	4330.09
719.927	4274.79
720.114	4272.75
720.301	4328.04
720.488	4272.75
720.676	4248.17
720.863	4205.16
721.05	4319.85
721.237	4291.18
721.424	4227.69
721.611	4280.94
721.798	4262.51
721.985	4190.83
722.172	4221.55
722.358	4291.18
722.545	4405.86
722.732	4172.4
722.919	4256.36
723.106	4100.72
723.293	4162.16
723.48	4119.15
723.667	4303.47
723.853	4176.49
724.04	4229.74
724.227	4207.21
724.414	4344.42
724.6	4258.41
724.787	4258.41
724.974	4127.34
725.161	4221.55
725.347	4117.1
725.534	4102.76
725.72	4272.75
725.907	4162.16
726.094	4041.32
726.28	4072.04
726.467	4070
726.653	4174.44
726.84	4162.16
727.027	4301.42
727.213	4166.25
727.4	4278.89
727.586	4215.4
727.773	4151.92
727.959	4117.1
728.145	4219.5
728.332	4100.72
728.518	4098.67
728.705	4168.3
728.891	3977.84
729.077	4129.39
729.264	4024.94
729.45	4121.2
729.636	4067.95
729.823	4026.99
730.009	4035.18
730.195	4010.61
730.382	4096.62
730.568	4008.56
730.754	3973.74
730.94	3912.3
731.126	4110.96
731.313	3998.32
731.499	3986.03
731.685	3930.73
731.871	4000.37
732.057	3981.93
732.243	4086.38
732.429	4016.75
732.615	4035.18
732.801	3983.98
732.987	3975.79
733.173	3959.41
733.359	3998.32
733.545	3955.31
733.731	3924.59
733.917	4045.42
734.103	4098.67
734.289	3975.79
734.475	3914.35
734.661	4061.8
734.847	3828.34
735.033	4006.51
735.219	3900.02
735.404	3789.42
735.59	3873.39
735.776	3783.28
735.962	3891.82
736.148	3988.08
736.333	3844.72
736.519	3672.69
736.705	3635.83
736.89	3844.72
737.076	3748.47
737.262	3764.85
737.447	3801.71
737.633	3768.95
737.819	3750.51
738.004	3617.4
738.19	3566.2
738.375	3684.98
738.561	3748.47
738.747	3496.57
738.932	3650.16
739.118	3707.51
739.303	3539.57
739.489	3666.55
739.674	3623.54
739.859	3574.39
740.045	3641.97
740.23	3492.47
740.416	3551.86
740.601	3574.39
740.786	3371.64
740.972	3471.99
741.157	3371.64
741.342	3461.75
741.528	3428.98
741.713	3422.84
741.898	3426.93
742.084	3318.39
742.269	3394.17
742.454	3437.17
742.639	3570.29
742.824	3367.54
743.01	3375.74
743.195	3424.89
743.38	3246.71
743.565	3164.79
743.75	3467.89
743.935	3228.28
744.12	3279.48
744.305	3226.23
744.49	3289.72
744.675	3238.52
744.86	3074.68
745.045	3330.68
745.23	3312.25
745.415	3185.27
745.6	3213.95
745.785	3091.07
745.97	3084.92
746.155	2974.33
746.34	3107.45
746.525	3172.99
746.71	3197.56
746.895	2865.79
747.079	2992.77
747.264	3052.16
747.449	3086.97
747.634	2923.13
747.819	3048.06
748.003	2876.03
748.188	2843.26
748.373	2833.02
748.557	2869.89
748.742	2966.14
748.927	2845.31
749.111	2742.91
749.296	2890.37
749.481	2652.8
749.665	2751.1
749.85	2757.25
750.034	2769.54
750.219	2650.75
750.404	2613.89
750.588	2724.48
750.773	2638.47
750.957	2511.49
751.141	2718.34
751.326	2597.51
751.51	2574.98
751.695	2544.26
751.879	2646.66
752.064	2650.75
752.248	2525.83
752.432	2538.12
752.617	2552.45
752.801	2472.58
752.985	2435.72
753.17	2484.87
753.354	2435.72
753.538	2452.1
753.722	2288.26
753.907	2374.28
754.091	2292.36
754.275	2378.37
754.459	2280.07
754.643	2280.07
754.828	2372.23
755.012	2273.93
755.196	2177.67
755.38	2226.82
755.564	2138.76
755.748	2241.16
755.932	2286.22
756.116	2187.91
756.3	2089.61
756.484	2110.09
756.668	2265.74
756.852	2146.95
757.036	2077.32
757.22	2118.28
757.404	2040.46
757.588	2019.98
757.772	2103.95
757.956	2005.64
758.14	2097.8
758.323	1944.21
758.507	2075.27
758.691	1860.24
758.875	2040.46
759.059	2022.03
759.242	2022.03
759.426	1987.21
759.61	1993.36
759.794	1956.49
759.977	1901.2
760.161	2069.13
760.345	1856.14
760.528	1956.49
760.712	2022.03
760.895	1817.23
761.079	1852.05
761.263	1786.51
761.446	1710.74
761.63	1845.9
761.813	1882.77
761.997	1768.08
762.18	1708.69
762.364	1886.86
762.547	1696.4
762.731	1702.54
762.914	1729.17
763.098	1716.88
763.281	1671.83
763.464	1655.44
763.648	1729.17
763.831	1714.83
764.015	1667.73
764.198	1747.6
764.381	1804.94
764.564	1579.67
764.748	1710.74
764.931	1694.35
765.114	1608.34
765.297	1686.16
765.481	1526.42
765.664	1614.48
765.847	1669.78
766.03	1661.59
766.213	1575.57
766.397	1663.63
766.58	1596.05
766.763	1579.67
766.946	1575.57
767.129	1589.91
767.312	1571.47
767.495	1585.81
767.678	1565.33
767.861	1551
768.044	1594
768.227	1516.18
768.41	1585.81
768.593	1464.98
768.776	1561.23
768.959	1464.98
769.142	1573.52
769.324	1479.32
769.507	1518.23
769.69	1475.22
769.873	1493.65
770.056	1507.99
770.239	1489.56
770.421	1538.71
770.604	1528.47
770.787	1598.1
770.97	1448.6
771.152	1413.78
771.335	1413.78
771.518	1383.06
771.7	1391.25
771.883	1446.55
772.066	1374.87
772.248	1344.15
772.431	1428.12
772.613	1399.45
772.796	1358.49
772.978	1372.82
773.161	1401.49
773.343	1254.04
773.526	1374.87
773.708	1217.18
773.891	1315.48
774.073	1350.29
774.256	1346.2
774.438	1329.81
774.621	1309.33
774.803	1282.71
774.985	1225.37
775.168	1335.96
775.35	1247.9
775.532	1213.08
775.715	1178.26
775.897	1292.95
776.079	1194.65
776.261	1125.02
776.444	1188.5
776.626	1155.74
776.808	1231.51
776.99	1180.31
777.173	1127.07
777.355	1202.84
777.537	1182.36
777.719	1110.68
777.901	1100.44
778.083	1153.69
778.265	1077.91
778.447	1135.26
778.629	1055.39
778.811	1155.74
778.993	1086.11
779.175	1159.83
779.357	1049.24
779.539	1088.15
779.721	936.6
779.903	1065.63
780.085	1039
780.267	1032.86
780.449	1004.19
780.631	993.95
780.812	1143.45
780.994	1036.95
781.176	975.52
781.358	1022.62
781.54	989.85
781.721	1002.14
781.903	940.7
782.085	909.98
782.267	1022.62
782.448	926.36
782.63	920.22
782.812	973.47
782.993	963.23
783.175	938.65
783.357	881.31
783.538	846.49
783.72	787.1
783.901	877.21
784.083	893.6
784.264	850.59
784.446	873.12
784.627	836.25
784.809	813.73
784.99	746.14
785.172	823.97
785.353	764.58
785.535	740
785.716	823.97
785.897	709.28
786.079	715.42
786.26	836.25
786.441	805.53
786.623	717.47
786.804	776.86
786.985	803.49
787.167	760.48
787.348	713.38
787.529	699.04
787.71	821.92
787.891	723.62
788.073	721.57
788.254	733.86
788.435	811.68
788.616	600.74
788.797	649.89
788.978	721.57
789.159	639.65
789.34	740
789.522	660.13
789.703	690.85
789.884	670.37
790.065	660.13
790.246	613.03
790.427	600.74
790.607	676.51
790.788	676.51
790.969	576.16
791.15	580.26
791.331	524.96
791.512	541.35
791.693	551.59
791.874	606.88
792.054	740
792.235	567.97
792.416	490.15
792.597	567.97
792.778	643.74
792.958	522.91
793.139	578.21
793.32	580.26
793.5	551.59
793.681	539.3
793.862	565.92
794.042	553.63
794.223	422.56
794.404	537.25
794.584	490.15
794.765	582.31
794.945	494.24
795.126	570.02
795.306	600.74
795.487	535.2
795.667	555.68
795.848	672.42
796.028	516.77
796.209	502.44
796.389	645.79
796.57	471.72
796.75	473.76
796.93	498.34
797.111	375.46
797.291	453.28
797.471	471.72
797.652	496.29
797.832	494.24
798.012	533.15
798.192	438.95
798.373	395.94
798.553	514.72
798.733	420.52
798.913	473.76
799.093	385.7
799.274	481.96
799.454	422.56
799.634	443.04
799.814	447.14
799.994	496.29
800.174	445.09
800.354	457.38
800.534	432.8
800.714	479.91
800.894	277.16
801.074	373.41
801.254	322.21
801.434	475.81
801.614	418.47
801.794	320.17
801.974	1278.62
802.154	469.67
802.334	412.32
802.514	336.55
802.693	375.46
802.873	365.22
803.053	479.91
803.233	412.32
803.413	365.22
803.592	357.03
803.772	481.96
803.952	318.12
804.131	314.02
804.311	311.97
804.491	336.55
804.67	391.84
804.85	260.77
805.03	438.95
805.209	346.79
805.389	420.52
805.568	410.28
805.748	342.69
805.928	369.32
806.107	330.41
806.287	420.52
806.466	346.79
806.646	352.93
806.825	281.25
807.004	422.56
807.184	430.76
807.363	357.03
807.543	395.94
807.722	373.41
807.901	365.22
808.081	371.37
808.26	238.25
808.439	332.45
808.619	297.64
808.798	256.68
808.977	297.64
809.156	324.26
809.336	332.45
809.515	371.37
809.694	299.69
809.873	266.92
810.052	340.65
810.231	365.22
810.411	416.42
810.59	344.74
810.769	350.89
810.948	283.3
811.127	207.53
811.306	295.59
811.485	268.97
811.664	408.23
811.843	271.01
812.022	266.92
812.201	357.03
812.38	236.2
812.559	291.49
812.737	258.73
812.916	230.06
813.095	250.53
813.274	281.25
813.453	285.35
813.632	250.53
813.811	309.93
813.989	244.39
814.168	291.49
814.347	246.44
814.526	223.91
814.704	293.54
814.883	295.59
815.062	221.86
815.24	305.83
815.419	246.44
815.598	283.3
815.776	176.81
815.955	275.11
816.133	125.61
816.312	193.19
816.49	178.86
816.669	238.25
816.847	223.91
817.026	271.01
817.204	240.3
817.383	258.73
817.561	162.47
817.74	209.58
817.918	240.3
818.097	219.82
818.275	236.2
818.453	203.43
818.632	252.58
818.81	187.05
818.988	178.86
819.167	164.52
819.345	240.3
819.523	217.77
819.701	262.82
819.879	305.83
820.058	326.31
820.236	262.82
820.414	148.14
820.592	217.77
820.77	221.86
820.948	185
821.127	191.14
821.305	232.1
821.483	105.13
821.661	158.38
821.839	207.53
822.017	168.62
822.195	211.62
822.373	242.34
822.551	209.58
822.729	182.95
822.907	170.66
823.085	203.43
823.262	133.8
823.44	182.95
823.618	219.82
823.796	158.38
823.974	123.56
824.152	166.57
824.329	219.82
824.507	277.16
824.685	211.62
824.863	275.11
825.04	166.57
825.218	238.25
825.396	150.18
825.574	195.24
825.751	219.82
825.929	172.71
826.107	160.42
826.284	213.67
826.462	82.6
826.639	230.06
826.817	111.27
826.994	154.28
827.172	154.28
827.349	264.87
827.527	211.62
827.704	133.8
827.882	182.95
828.059	158.38
828.237	174.76
828.414	242.34
828.591	39.59
828.769	201.38
828.946	98.99
829.124	215.72
829.301	242.34
829.478	107.18
829.655	131.75
829.833	172.71
830.01	25.26
830.187	74.41
830.364	141.99
830.542	191.14
830.719	160.42
830.896	197.29
831.073	209.58
831.25	228.01
831.427	78.51
831.604	31.4
831.782	174.76
831.959	219.82
832.136	113.32
832.313	113.32
832.49	135.85
832.667	84.65
832.844	98.99
833.021	127.66
833.198	105.13
833.374	185
833.551	84.65
833.728	103.08
833.905	195.24
834.082	86.7
834.259	156.33
834.436	180.9
834.612	55.98
834.789	221.86
834.966	146.09
835.143	225.96
835.319	41.64
835.496	166.57
835.673	178.86
835.85	191.14
836.026	182.95
836.203	160.42
836.38	66.22
836.556	119.46
836.733	135.85
836.909	223.91
837.086	-17.75
837.262	105.13
837.439	58.03
837.616	115.37
837.792	113.32
837.968	178.86
838.145	39.59
838.321	92.84
838.498	170.66
838.674	119.46
838.851	156.33
839.027	64.17
839.203	152.23
839.38	117.42
839.556	94.89
839.732	146.09
839.909	64.17
840.085	107.18
840.261	29.35
840.437	66.22
840.614	66.22
840.79	90.79
840.966	160.42
841.142	115.37
841.318	156.33
841.494	209.58
841.671	78.51
841.847	21.16
842.023	90.79
842.199	123.56
842.375	236.2
842.551	15.02
842.727	6.83
842.903	191.14
843.079	68.27
843.255	211.62
843.431	115.37
843.607	113.32
843.783	27.31
843.959	121.51
844.134	72.36
844.31	242.34
844.486	53.93
844.662	55.98
844.838	80.55
845.013	146.09
845.189	176.81
845.365	37.55
845.541	101.03
845.716	103.08
845.892	139.94
846.068	105.13
846.244	160.42
846.419	74.41
846.595	6.83
846.77	8.87
846.946	80.55
847.122	111.27
847.297	47.79
847.473	174.76
847.648	58.03
847.824	51.88
847.999	-5.46
848.175	92.84
848.35	39.59
848.526	33.45
848.701	125.61
848.876	135.85
849.052	74.41
849.227	31.4
849.403	117.42
849.578	109.23
849.753	129.7
849.929	86.7
850.104	68.27
850.279	68.27
850.454	72.36
850.63	123.56
850.805	80.55
850.98	45.74
851.155	82.6
851.33	139.94
851.505	45.74
851.681	111.27
851.856	51.88
852.031	105.13
852.206	125.61
852.381	-5.46
852.556	58.03
852.731	94.89
852.906	35.5
853.081	94.89
853.256	74.41
853.431	80.55
853.606	2.73
853.781	19.11
853.956	-79.19
854.131	115.37
854.305	55.98
854.48	53.93
854.655	80.55
854.83	-1.37
855.005	-15.7
855.18	137.9
855.354	37.55
855.529	68.27
855.704	62.12
855.879	41.64
856.053	-30.04
856.228	41.64
856.403	-5.46
856.577	23.21
856.752	-38.23
856.926	170.66
857.101	64.17
857.276	33.45
857.45	111.27
857.625	105.13
857.799	47.79
857.974	8.87
858.148	62.12
858.323	45.74
858.497	19.11
858.672	64.17
858.846	0.68
859.02	35.5
859.195	12.97
859.369	29.35
859.543	66.22
859.718	76.46
859.892	29.35
860.066	41.64
860.241	51.88
860.415	47.79
860.589	31.4
860.763	33.45
860.938	-9.56
861.112	72.36
861.286	29.35
861.46	31.4
861.634	150.18
861.808	90.79
861.982	0.68
862.157	47.79
862.331	35.5
862.505	21.16
862.679	33.45
862.853	45.74
863.027	53.93
863.201	62.12
863.375	45.74
863.549	62.12
863.722	4.78
863.896	137.9
864.07	17.07
864.244	82.6
864.418	109.23
864.592	4.78
864.766	45.74
864.939	53.93
865.113	33.45
865.287	117.42
865.461	-42.32
865.634	94.89
865.808	76.46
865.982	27.31
866.156	74.41
866.329	0.68
866.503	74.41
866.676	137.9
866.85	76.46
867.024	-15.7
867.197	125.61
867.371	103.08
867.544	23.21
867.718	-32.08
867.891	150.18
868.065	92.84
868.238	21.16
868.412	82.6
868.585	90.79
868.759	58.03
868.932	74.41
869.105	29.35
869.279	0.68
869.452	10.92
869.625	94.89
869.799	-42.32
869.972	12.97
870.145	8.87
870.319	125.61
870.492	-36.18
870.665	2.73
870.838	6.83
871.011	-21.84
871.185	6.83
871.358	23.21
871.531	31.4
871.704	-32.08
871.877	121.51
872.05	-13.65
872.223	53.93
872.396	131.75
872.569	43.69
872.742	12.97
872.915	90.79
873.088	6.83
873.261	-38.23
873.434	133.8
873.607	35.5
873.78	19.11
873.953	6.83
874.126	-5.46
874.299	72.36
874.471	55.98
874.644	68.27
874.817	78.51
874.99	107.18
875.163	12.97
875.335	53.93
875.508	29.35
875.681	131.75
875.853	19.11
876.026	80.55
876.199	88.75
876.371	10.92
876.544	39.59
876.717	49.83
876.889	-7.51
877.062	-3.41
877.234	19.11
877.407	41.64
877.579	-27.99
877.752	25.26
877.924	68.27
878.097	17.07
878.269	-50.52
878.442	21.16
878.614	15.02
878.786	53.93
878.959	-23.89
879.131	-19.8
879.303	-44.37
879.476	45.74
879.648	74.41
879.82	94.89
879.993	33.45
880.165	-21.84
880.337	-25.94
880.509	19.11
880.681	-17.75
880.854	-9.56
881.026	88.75
881.198	98.99
881.37	-9.56
881.542	-21.84
881.714	80.55
881.886	82.6
882.058	6.83
882.23	10.92
882.402	31.4
882.574	86.7
882.746	117.42
882.918	78.51
883.09	72.36
883.262	8.87
883.434	58.03
883.606	-77.14
883.778	-5.46
883.95	88.75
884.122	-17.75
884.293	53.93
884.465	49.83
884.637	94.89
884.809	37.55
884.98	103.08
885.152	21.16
885.324	76.46
885.496	0.68
885.667	92.84
885.839	21.16
886.011	53.93
886.182	23.21
886.354	70.31
886.525	15.02
886.697	49.83
886.869	-81.24
887.04	-23.89
887.212	131.75
887.383	131.75
887.555	-32.08
887.726	55.98
887.897	45.74
888.069	17.07
888.24	76.46
888.412	-1.37
888.583	-30.04
888.754	66.22
888.926	-21.84
889.097	-7.51
889.268	-81.24
889.44	-36.18
889.611	-17.75
889.782	-15.7
889.953	4.78
890.125	70.31
890.296	15.02
890.467	-34.13
890.638	-17.75
890.809	15.02
890.98	19.11
891.151	23.21
891.323	41.64
891.494	0.68
891.665	55.98
891.836	21.16
892.007	-21.84
892.178	-17.75
892.349	4.78
892.52	-44.37
892.691	2.73
892.862	23.21
893.032	-3.41
893.203	-5.46
893.374	29.35
893.545	6.83
893.716	-62.8
893.887	64.17
894.057	6.83
894.228	45.74
894.399	-17.75
894.57	-15.7
894.74	25.26
894.911	-52.56
895.082	-40.28
895.253	-25.94
895.423	6.83
895.594	15.02
895.764	98.99
895.935	-79.19
896.106	-17.75
896.276	45.74
896.447	2.73
896.617	-27.99
896.788	33.45
896.958	-9.56
897.129	55.98
897.299	-85.33
897.47	51.88
897.64	45.74
897.81	27.31
897.981	68.27
898.151	45.74
898.322	127.66
898.492	-38.23
898.662	-15.7
898.832	15.02
899.003	-5.46
899.173	-32.08
899.343	17.07
899.513	-42.32
