Data from USB4F104151__27__12-11-45-660.txt Node

Date: Fri Mar 14 12:11:45 EDT 2025
User: louis
Spectrometer: USB4F10415
Trigger mode: 4
Integration Time (sec): 5.000000E-2
Scans to average: 1
Electric dark correction enabled: true
Nonlinearity correction enabled: false
Boxcar width: 0
XAxis mode: Wavelengths
Number of Pixels in Spectrum: 3648
>>>>>Begin Spectral Data<<<<<
178.204	-231.76
178.424	-231.76
178.644	-231.76
178.864	-227.67
179.084	-235.86
179.304	-67.92
179.524	-20.82
179.744	50.86
179.964	36.52
180.184	-18.77
180.404	63.15
180.624	-33.11
180.844	18.09
181.064	7.85
181.283	-0.34
181.503	-16.73
181.723	-18.77
181.943	-29.01
182.163	67.24
182.383	-18.77
182.602	30.38
182.822	87.72
183.042	54.95
183.262	71.34
183.482	5.8
183.701	-72.02
183.921	-22.87
184.141	-10.58
184.361	65.19
184.58	59.05
184.8	-10.58
185.02	-6.49
185.239	48.81
185.459	9.9
185.679	63.15
185.898	-72.02
186.118	83.63
186.338	44.71
186.557	89.77
186.777	-65.88
186.997	-22.87
187.216	-8.53
187.436	108.2
187.655	5.8
187.875	44.71
188.095	30.38
188.314	-20.82
188.534	114.34
188.753	-29.01
188.973	16.04
189.192	75.43
189.412	54.95
189.631	124.58
189.851	24.23
190.07	32.43
190.29	3.75
190.509	-43.35
190.729	13.99
190.948	69.29
191.168	272.04
191.387	81.58
191.607	26.28
191.826	-31.06
192.045	9.9
192.265	-29.01
192.484	9.9
192.704	50.86
192.923	-94.55
193.142	134.82
193.362	42.67
193.581	13.99
193.8	149.16
194.02	13.99
194.239	18.09
194.458	-2.39
194.678	20.14
194.897	-20.82
195.116	-8.53
195.335	124.58
195.555	9.9
195.774	36.52
195.993	40.62
196.212	61.1
196.432	-39.25
196.651	69.29
196.87	-59.73
197.089	54.95
197.308	-6.49
197.528	46.76
197.747	40.62
197.966	42.67
198.185	34.47
198.404	30.38
198.623	106.15
198.842	140.97
199.062	-43.35
199.281	91.82
199.5	24.23
199.719	5.8
199.938	1.71
200.157	69.29
200.376	46.76
200.595	75.43
200.814	5.8
201.033	-8.53
201.252	69.29
201.471	-67.92
201.69	52.91
201.909	67.24
202.128	1.71
202.347	54.95
202.566	54.95
202.785	-80.21
203.004	-55.64
203.223	89.77
203.442	140.97
203.661	-74.07
203.879	16.04
204.098	140.97
204.317	-63.83
204.536	52.91
204.755	57
204.974	13.99
205.193	7.85
205.411	95.91
205.63	120.49
205.849	69.29
206.068	32.43
206.287	11.95
206.505	73.39
206.724	-18.77
206.943	32.43
207.162	-51.54
207.381	87.72
207.599	20.14
207.818	16.04
208.037	93.87
208.255	50.86
208.474	24.23
208.693	48.81
208.911	-4.44
209.13	-33.11
209.349	67.24
209.567	63.15
209.786	7.85
210.005	28.33
210.223	-26.96
210.442	-22.87
210.661	42.67
210.879	57
211.098	-0.34
211.316	75.43
211.535	77.48
211.753	11.95
211.972	36.52
212.191	-37.2
212.409	-69.97
212.628	32.43
212.846	-78.16
213.065	69.29
213.283	110.25
213.502	-37.2
213.72	16.04
213.938	50.86
214.157	16.04
214.375	-10.58
214.594	50.86
214.812	57
215.031	13.99
215.249	-76.12
215.467	48.81
215.686	48.81
215.904	75.43
216.122	5.8
216.341	106.15
216.559	100.01
216.778	118.44
216.996	18.09
217.214	1.71
217.432	5.8
217.651	-35.16
217.869	11.95
218.087	36.52
218.306	-35.16
218.524	18.09
218.742	-29.01
218.96	16.04
219.179	18.09
219.397	1.71
219.615	102.06
219.833	46.76
220.051	38.57
220.27	59.05
220.488	-0.34
220.706	-8.53
220.924	44.71
221.142	30.38
221.36	34.47
221.578	32.43
221.796	36.52
222.015	-104.79
222.233	52.91
222.451	151.21
222.669	-4.44
222.887	30.38
223.105	-37.2
223.323	9.9
223.541	38.57
223.759	34.47
223.977	-35.16
224.195	44.71
224.413	75.43
224.631	22.19
224.849	63.15
225.067	108.2
225.285	-59.73
225.503	-49.49
225.721	-39.25
225.939	63.15
226.157	16.04
226.375	138.92
226.592	-16.73
226.81	71.34
227.028	-14.68
227.246	116.39
227.464	87.72
227.682	40.62
227.9	32.43
228.117	95.91
228.335	18.09
228.553	42.67
228.771	18.09
228.989	28.33
229.206	38.57
229.424	-55.64
229.642	-12.63
229.86	-14.68
230.077	95.91
230.295	67.24
230.513	48.81
230.731	69.29
230.948	52.91
231.166	59.05
231.384	-35.16
231.601	69.29
231.819	100.01
232.037	16.04
232.254	-59.73
232.472	26.28
232.689	36.52
232.907	50.86
233.125	38.57
233.342	-12.63
233.56	-65.88
233.777	48.81
233.995	5.8
234.213	138.92
234.43	-16.73
234.648	-51.54
234.865	30.38
235.083	32.43
235.3	-10.58
235.518	42.67
235.735	71.34
235.953	-18.77
236.17	-6.49
236.388	28.33
236.605	30.38
236.822	44.71
237.04	3.75
237.257	1.71
237.475	18.09
237.692	69.29
237.909	67.24
238.127	18.09
238.344	20.14
238.562	40.62
238.779	-47.44
238.996	-82.26
239.214	13.99
239.431	85.67
239.648	-24.92
239.865	32.43
240.083	9.9
240.3	44.71
240.517	-14.68
240.735	24.23
240.952	36.52
241.169	42.67
241.386	24.23
241.603	-35.16
241.821	-49.49
242.038	71.34
242.255	36.52
242.472	5.8
242.689	48.81
242.907	124.58
243.124	28.33
243.341	38.57
243.558	-78.16
243.775	5.8
243.992	-53.59
244.209	102.06
244.426	93.87
244.643	18.09
244.86	1.71
245.078	100.01
245.295	118.44
245.512	-16.73
245.729	-31.06
245.946	28.33
246.163	40.62
246.38	50.86
246.597	-4.44
246.814	22.19
247.031	42.67
247.248	67.24
247.464	52.91
247.681	-16.73
247.898	-4.44
248.115	46.76
248.332	-45.4
248.549	22.19
248.766	136.87
248.983	52.91
249.2	26.28
249.417	71.34
249.633	-18.77
249.85	116.39
250.067	63.15
250.284	-41.3
250.501	-0.34
250.717	1.71
250.934	-102.74
251.151	100.01
251.368	40.62
251.585	32.43
251.801	28.33
252.018	-63.83
252.235	89.77
252.451	-82.26
252.668	32.43
252.885	63.15
253.102	65.19
253.318	100.01
253.535	-82.26
253.752	-53.59
253.968	13.99
254.185	-14.68
254.401	16.04
254.618	-26.96
254.835	-47.44
255.051	26.28
255.268	-4.44
255.484	44.71
255.701	-12.63
255.917	112.3
256.134	-8.53
256.351	91.82
256.567	-59.73
256.784	-0.34
257	-78.16
257.217	75.43
257.433	20.14
257.65	16.04
257.866	-6.49
258.082	-72.02
258.299	-16.73
258.515	34.47
258.732	-33.11
258.948	-20.82
259.165	79.53
259.381	50.86
259.597	-45.4
259.814	-0.34
260.03	-26.96
260.246	57
260.463	28.33
260.679	108.2
260.895	-0.34
261.112	9.9
261.328	-29.01
261.544	18.09
261.761	120.49
261.977	-16.73
262.193	22.19
262.409	65.19
262.626	77.48
262.842	-90.45
263.058	26.28
263.274	83.63
263.49	42.67
263.707	108.2
263.923	50.86
264.139	-4.44
264.355	44.71
264.571	83.63
264.787	16.04
265.004	120.49
265.22	20.14
265.436	1.71
265.652	50.86
265.868	87.72
266.084	-24.92
266.3	-16.73
266.516	75.43
266.732	-22.87
266.948	16.04
267.164	-29.01
267.38	104.11
267.596	28.33
267.812	147.11
268.028	59.05
268.244	16.04
268.46	91.82
268.676	24.23
268.892	83.63
269.108	-12.63
269.324	-55.64
269.54	-57.68
269.756	116.39
269.972	-20.82
270.188	28.33
270.403	-35.16
270.619	5.8
270.835	3.75
271.051	26.28
271.267	50.86
271.483	11.95
271.698	71.34
271.914	28.33
272.13	18.09
272.346	9.9
272.562	-12.63
272.777	69.29
272.993	7.85
273.209	-49.49
273.425	46.76
273.64	9.9
273.856	20.14
274.072	77.48
274.287	-20.82
274.503	16.04
274.719	50.86
274.934	-8.53
275.15	5.8
275.366	-4.44
275.581	-53.59
275.797	-20.82
276.012	22.19
276.228	-10.58
276.444	-53.59
276.659	97.96
276.875	-43.35
277.09	-10.58
277.306	26.28
277.521	57
277.737	-41.3
277.952	18.09
278.168	13.99
278.383	89.77
278.599	-20.82
278.814	24.23
279.03	13.99
279.245	143.02
279.461	-12.63
279.676	28.33
279.892	-20.82
280.107	-43.35
280.322	-20.82
280.538	11.95
280.753	11.95
280.969	-39.25
281.184	-24.92
281.399	97.96
281.615	50.86
281.83	73.39
282.045	-53.59
282.26	28.33
282.476	-45.4
282.691	42.67
282.906	38.57
283.122	40.62
283.337	5.8
283.552	93.87
283.767	-76.12
283.983	57
284.198	38.57
284.413	-4.44
284.628	38.57
284.843	3.75
285.058	91.82
285.274	77.48
285.489	3.75
285.704	93.87
285.919	-43.35
286.134	77.48
286.349	-18.77
286.564	26.28
286.779	36.52
286.995	73.39
287.21	-49.49
287.425	69.29
287.64	-22.87
287.855	30.38
288.07	-8.53
288.285	28.33
288.5	22.19
288.715	22.19
288.93	3.75
289.145	-18.77
289.36	104.11
289.575	30.38
289.79	188.07
290.004	40.62
290.219	118.44
290.434	1.71
290.649	-12.63
290.864	24.23
291.079	32.43
291.294	89.77
291.509	38.57
291.724	77.48
291.938	-8.53
292.153	91.82
292.368	-20.82
292.583	54.95
292.798	106.15
293.012	28.33
293.227	-0.34
293.442	36.52
293.657	102.06
293.871	22.19
294.086	26.28
294.301	32.43
294.516	36.52
294.73	63.15
294.945	28.33
295.16	5.8
295.374	26.28
295.589	20.14
295.804	9.9
296.018	118.44
296.233	44.71
296.447	9.9
296.662	11.95
296.877	-4.44
297.091	22.19
297.306	1.71
297.52	22.19
297.735	30.38
297.949	20.14
298.164	18.09
298.378	89.77
298.593	-61.78
298.807	13.99
299.022	-12.63
299.236	77.48
299.451	26.28
299.665	-59.73
299.88	11.95
300.094	28.33
300.309	-33.11
300.523	63.15
300.737	63.15
300.952	63.15
301.166	32.43
301.381	16.04
301.595	-29.01
301.809	-24.92
302.024	-92.5
302.238	24.23
302.452	89.77
302.667	40.62
302.881	79.53
303.095	79.53
303.309	63.15
303.524	-6.49
303.738	-47.44
303.952	-18.77
304.166	71.34
304.381	-57.68
304.595	124.58
304.809	3.75
305.023	13.99
305.237	13.99
305.452	5.8
305.666	40.62
305.88	46.76
306.094	42.67
306.308	69.29
306.522	69.29
306.736	69.29
306.95	75.43
307.164	73.39
307.379	16.04
307.593	75.43
307.807	30.38
308.021	22.19
308.235	52.91
308.449	9.9
308.663	-29.01
308.877	118.44
309.091	-43.35
309.305	-4.44
309.519	-119.12
309.733	40.62
309.947	-59.73
310.161	11.95
310.374	5.8
310.588	73.39
310.802	-0.34
311.016	1.71
311.23	11.95
311.444	-72.02
311.658	11.95
311.872	36.52
312.085	65.19
312.299	118.44
312.513	59.05
312.727	57
312.941	-6.49
313.154	46.76
313.368	32.43
313.582	20.14
313.796	44.71
314.009	16.04
314.223	16.04
314.437	100.01
314.651	42.67
314.864	-16.73
315.078	-26.96
315.292	-53.59
315.505	38.57
315.719	89.77
315.933	79.53
316.146	-24.92
316.36	-20.82
316.573	102.06
316.787	89.77
317.001	52.91
317.214	-2.39
317.428	38.57
317.641	-53.59
317.855	-4.44
318.068	42.67
318.282	57
318.495	106.15
318.709	36.52
318.922	-18.77
319.136	67.24
319.349	179.88
319.563	-2.39
319.776	13.99
319.99	-0.34
320.203	22.19
320.417	11.95
320.63	104.11
320.843	124.58
321.057	71.34
321.27	-43.35
321.483	75.43
321.697	28.33
321.91	34.47
322.124	18.09
322.337	16.04
322.55	-47.44
322.763	13.99
322.977	46.76
323.19	-63.83
323.403	52.91
323.617	59.05
323.83	50.86
324.043	-6.49
324.256	83.63
324.469	40.62
324.683	89.77
324.896	34.47
325.109	22.19
325.322	1.71
325.535	106.15
325.748	18.09
325.962	46.76
326.175	32.43
326.388	138.92
326.601	122.54
326.814	63.15
327.027	5.8
327.24	83.63
327.453	-67.92
327.666	-8.53
327.879	63.15
328.092	179.88
328.305	40.62
328.518	97.96
328.731	59.05
328.944	28.33
329.157	77.48
329.37	-6.49
329.583	77.48
329.796	102.06
330.009	-31.06
330.222	24.23
330.435	5.8
330.648	77.48
330.861	57
331.073	77.48
331.286	7.85
331.499	3.75
331.712	-18.77
331.925	18.09
332.138	42.67
332.35	114.34
332.563	-33.11
332.776	85.67
332.989	46.76
333.202	16.04
333.414	-2.39
333.627	-14.68
333.84	-20.82
334.053	67.24
334.265	54.95
334.478	18.09
334.691	-43.35
334.903	9.9
335.116	28.33
335.329	36.52
335.541	7.85
335.754	61.1
335.966	9.9
336.179	52.91
336.392	24.23
336.604	16.04
336.817	71.34
337.029	-22.87
337.242	87.72
337.454	50.86
337.667	42.67
337.88	93.87
338.092	-39.25
338.305	75.43
338.517	-82.26
338.729	153.26
338.942	83.63
339.154	-20.82
339.367	-43.35
339.579	67.24
339.792	-33.11
340.004	136.87
340.217	20.14
340.429	48.81
340.641	28.33
340.854	-41.3
341.066	22.19
341.278	77.48
341.491	85.67
341.703	18.09
341.915	-33.11
342.128	108.2
342.34	42.67
342.552	44.71
342.764	48.81
342.977	-8.53
343.189	65.19
343.401	67.24
343.613	13.99
343.826	36.52
344.038	20.14
344.25	9.9
344.462	-16.73
344.674	11.95
344.886	11.95
345.099	75.43
345.311	46.76
345.523	1.71
345.735	-35.16
345.947	93.87
346.159	52.91
346.371	13.99
346.583	5.8
346.795	44.71
347.007	5.8
347.219	5.8
347.431	-45.4
347.643	77.48
347.855	-26.96
348.067	114.34
348.279	-49.49
348.491	-63.83
348.703	81.58
348.915	61.1
349.127	-24.92
349.339	57
349.551	-22.87
349.763	128.68
349.975	-10.58
350.187	36.52
350.399	95.91
350.61	44.71
350.822	18.09
351.034	22.19
351.246	32.43
351.458	-6.49
351.669	36.52
351.881	97.96
352.093	73.39
352.305	97.96
352.517	18.09
352.728	81.58
352.94	-10.58
353.152	52.91
353.363	40.62
353.575	54.95
353.787	106.15
353.999	75.43
354.21	112.3
354.422	40.62
354.633	-14.68
354.845	73.39
355.057	34.47
355.268	73.39
355.48	54.95
355.692	-8.53
355.903	-6.49
356.115	-29.01
356.326	-55.64
356.538	130.73
356.749	108.2
356.961	38.57
357.172	-6.49
357.384	34.47
357.595	104.11
357.807	65.19
358.018	-16.73
358.23	44.71
358.441	136.87
358.653	42.67
358.864	59.05
359.075	44.71
359.287	112.3
359.498	20.14
359.709	-0.34
359.921	63.15
360.132	79.53
360.344	65.19
360.555	52.91
360.766	83.63
360.977	28.33
361.189	89.77
361.4	16.04
361.611	69.29
361.823	120.49
362.034	3.75
362.245	-6.49
362.456	61.1
362.667	61.1
362.879	22.19
363.09	87.72
363.301	83.63
363.512	-10.58
363.723	5.8
363.935	16.04
364.146	50.86
364.357	87.72
364.568	59.05
364.779	-67.92
364.99	44.71
365.201	-45.4
365.412	75.43
365.623	-43.35
365.834	26.28
366.045	7.85
366.256	93.87
366.467	52.91
366.678	57
366.889	50.86
367.1	87.72
367.311	77.48
367.522	38.57
367.733	95.91
367.944	108.2
368.155	54.95
368.366	61.1
368.577	130.73
368.788	124.58
368.999	32.43
369.209	91.82
369.42	97.96
369.631	198.31
369.842	52.91
370.053	-39.25
370.264	69.29
370.474	59.05
370.685	46.76
370.896	48.81
371.107	93.87
371.317	22.19
371.528	18.09
371.739	77.48
371.95	26.28
372.16	-0.34
372.371	36.52
372.582	61.1
372.792	44.71
373.003	85.67
373.214	85.67
373.424	20.14
373.635	-4.44
373.846	143.02
374.056	13.99
374.267	69.29
374.477	59.05
374.688	54.95
374.898	67.24
375.109	81.58
375.319	61.1
375.53	136.87
375.74	16.04
375.951	-41.3
376.161	69.29
376.372	118.44
376.582	48.81
376.793	36.52
377.003	-6.49
377.214	36.52
377.424	61.1
377.635	75.43
377.845	36.52
378.055	38.57
378.266	-6.49
378.476	-10.58
378.686	50.86
378.897	-24.92
379.107	79.53
379.317	40.62
379.528	-39.25
379.738	108.2
379.948	69.29
380.158	95.91
380.369	85.67
380.579	36.52
380.789	44.71
380.999	100.01
381.21	110.25
381.42	83.63
381.63	-72.02
381.84	67.24
382.05	-8.53
382.261	128.68
382.471	40.62
382.681	-2.39
382.891	169.64
383.101	22.19
383.311	-20.82
383.521	59.05
383.731	116.39
383.941	57
384.151	48.81
384.361	-31.06
384.571	28.33
384.781	61.1
384.991	95.91
385.201	124.58
385.411	112.3
385.621	46.76
385.831	-4.44
386.041	-12.63
386.251	95.91
386.461	22.19
386.671	50.86
386.881	69.29
387.091	42.67
387.301	11.95
387.511	61.1
387.72	71.34
387.93	54.95
388.14	-37.2
388.35	7.85
388.56	71.34
388.769	138.92
388.979	22.19
389.189	26.28
389.399	54.95
389.609	44.71
389.818	38.57
390.028	85.67
390.238	16.04
390.447	40.62
390.657	61.1
390.867	100.01
391.076	46.76
391.286	100.01
391.496	104.11
391.705	69.29
391.915	79.53
392.125	147.11
392.334	-14.68
392.544	118.44
392.753	32.43
392.963	-45.4
393.172	-4.44
393.382	40.62
393.591	132.78
393.801	18.09
394.01	171.69
394.22	26.28
394.429	36.52
394.639	116.39
394.848	95.91
395.058	18.09
395.267	75.43
395.477	73.39
395.686	83.63
395.895	108.2
396.105	159.4
396.314	30.38
396.524	75.43
396.733	75.43
396.942	169.64
397.152	75.43
397.361	116.39
397.57	87.72
397.78	120.49
397.989	167.59
398.198	192.17
398.407	77.48
398.617	81.58
398.826	59.05
399.035	46.76
399.244	65.19
399.453	83.63
399.663	93.87
399.872	102.06
400.081	16.04
400.29	200.36
400.499	112.3
400.708	132.78
400.917	104.11
401.127	61.1
401.336	34.47
401.545	173.74
401.754	204.46
401.963	112.3
402.172	81.58
402.381	54.95
402.59	110.25
402.799	87.72
403.008	175.78
403.217	155.3
403.426	143.02
403.635	114.34
403.844	112.3
404.053	93.87
404.262	149.16
404.471	153.26
404.68	89.77
404.888	104.11
405.097	208.55
405.306	149.16
405.515	194.22
405.724	69.29
405.933	165.54
406.142	140.97
406.35	222.89
406.559	190.12
406.768	143.02
406.977	188.07
407.185	190.12
407.394	284.33
407.603	147.11
407.812	237.22
408.02	304.81
408.229	140.97
408.438	292.52
408.646	136.87
408.855	224.94
409.064	272.04
409.272	300.71
409.481	282.28
409.69	212.65
409.898	269.99
410.107	302.76
410.315	327.33
410.524	331.43
410.733	306.85
410.941	382.63
411.15	442.02
411.358	401.06
411.567	478.88
411.775	376.48
411.984	468.64
412.192	409.25
412.401	437.92
412.609	466.6
412.818	489.12
413.026	501.41
413.234	446.12
413.443	466.6
413.651	562.85
413.86	618.15
414.068	730.78
414.276	687.78
414.485	661.15
414.693	671.39
414.901	775.84
415.11	702.11
415.318	675.49
415.526	757.41
415.734	743.07
415.943	749.22
416.151	763.55
416.359	888.48
416.567	859.81
416.776	1001.12
416.984	978.59
417.192	1031.83
417.4	876.19
417.608	898.72
417.817	1044.12
418.025	1240.73
418.233	1146.52
418.441	1107.61
418.649	1109.66
418.857	1248.92
419.065	1408.66
419.273	1289.88
419.481	1298.07
419.689	1373.85
419.897	1414.81
420.105	1416.85
420.313	1558.16
420.521	1666.71
420.729	1730.19
420.937	1652.37
421.145	1752.72
421.353	1963.66
421.561	1846.93
421.769	2004.62
421.977	2061.96
422.185	2014.86
422.393	2217.61
422.601	2348.68
422.809	2270.86
423.017	2317.96
423.224	2373.25
423.432	2557.57
423.64	2508.42
423.848	2764.42
424.056	2557.57
424.263	2956.93
424.471	2868.86
424.679	3034.75
424.887	3069.56
425.094	3268.22
425.302	3243.64
425.51	3305.08
425.718	3479.16
425.925	3503.73
426.133	3458.68
426.341	3821.17
426.548	3999.34
426.756	3858.03
426.964	3995.25
427.171	4302.44
427.379	4423.27
427.586	4449.89
427.794	4660.84
428.001	4759.14
428.209	5015.13
428.417	4892.26
428.624	5398.1
428.832	5211.74
429.039	5146.2
429.247	5252.7
429.454	5760.59
429.662	6092.37
429.869	5674.58
430.076	6239.82
430.284	5924.43
430.491	6178.38
430.699	6682.18
430.906	6628.93
431.114	6676.04
431.321	6858.31
431.528	7048.77
431.736	7597.62
431.943	7829.04
432.15	7814.71
432.358	7814.71
432.565	8146.48
432.772	8023.6
432.979	8476.2
433.187	8709.67
433.394	8658.47
433.601	9371.16
433.808	9209.37
434.016	9240.09
434.223	9661.98
434.43	10245.65
434.637	10003.99
434.844	10571.27
435.052	10847.75
435.259	10796.55
435.466	10874.37
435.673	10925.57
435.88	11509.24
436.087	12135.92
436.294	12135.92
436.501	12088.82
436.708	12115.44
436.915	12682.73
437.122	13016.55
437.329	12893.67
437.537	13399.52
437.743	13596.12
437.95	13477.34
438.157	14222.8
438.364	14638.54
438.571	14675.4
438.778	14816.71
438.985	15848.89
439.192	15658.43
439.399	15689.15
439.606	15537.6
439.813	16430.51
440.02	17495.46
440.227	17059.24
440.433	16995.75
440.64	17575.33
440.847	17360.29
441.054	18019.74
441.261	19223.94
441.467	18967.95
441.674	19117.45
441.881	19570.05
442.088	19881.34
442.294	19422.59
442.501	19854.72
442.708	20614.51
442.914	21146.98
443.121	22207.83
443.328	21599.59
443.534	23065.93
443.741	22207.83
443.948	22373.72
444.154	23835.97
444.361	23829.82
444.568	23915.84
444.774	23766.34
444.981	23913.79
445.187	24372.53
445.394	25847.07
445.6	25627.94
445.807	28067.07
446.013	26686.74
446.22	27135.24
446.426	28341.5
446.633	28282.11
446.839	29297.9
447.046	28497.14
447.252	29791.46
447.459	29844.71
447.665	29598.95
447.871	30670.04
448.078	32486.59
448.284	31014.1
448.491	31673.54
448.697	33232.05
448.903	33584.3
449.11	33404.08
449.316	33031.35
449.522	33557.67
449.728	34839.7
449.935	34663.58
450.141	34585.75
450.347	35177.62
450.553	34153.63
450.76	34565.28
450.966	35687.56
451.172	35517.58
451.378	36504.7
451.584	35220.63
451.791	36502.65
451.997	36371.58
452.203	37131.38
452.409	37321.84
452.615	36695.16
452.821	35589.26
453.027	34745.5
453.233	36531.33
453.44	35107.99
453.646	35689.61
453.852	36150.4
454.058	36238.47
454.264	35286.16
454.47	35949.7
454.676	34944.15
454.882	36195.46
455.088	33334.45
455.294	33828.01
455.5	33901.73
455.705	34288.8
455.911	32906.42
456.117	32289.98
456.323	31876.29
456.529	30549.21
456.735	31425.74
456.941	31061.2
457.147	29646.05
457.352	29304.04
457.558	28966.13
457.764	29043.95
457.97	28663.03
458.176	27870.47
458.381	27747.59
458.587	26490.13
458.793	26498.33
458.999	24778.03
459.204	26909.97
459.41	25910.56
459.616	24198.46
459.821	24511.8
460.027	24194.36
460.233	23590.21
460.438	22789.45
460.644	22789.45
460.85	21806.43
461.055	21542.24
461.261	21564.77
461.466	19998.07
461.672	19041.67
461.878	20649.33
462.083	19111.3
462.289	18675.09
462.494	18574.74
462.7	17851.8
462.905	17214.88
463.111	18007.45
463.316	18048.41
463.522	17556.89
463.727	17675.68
463.932	17591.71
464.138	17255.84
464.343	17622.43
464.549	16897.45
464.754	17495.46
464.959	17302.95
465.165	17384.87
465.37	16555.44
465.575	15988.15
465.781	16752.04
465.986	16598.45
466.191	16190.9
466.397	15629.76
466.602	14962.12
466.807	15642.04
467.012	15656.38
467.218	15693.24
467.423	15451.58
467.628	15586.75
467.833	15828.41
468.038	15445.44
468.244	14949.83
468.449	15517.12
468.654	15177.16
468.859	14816.71
469.064	14818.76
469.269	14083.54
469.474	14566.86
469.679	14648.78
469.885	14566.86
470.09	14515.66
470.295	14271.95
470.5	13866.46
470.705	14302.67
470.91	13788.63
471.115	13575.64
471.32	14003.67
471.525	13964.76
471.73	13467.1
471.935	13600.22
472.139	12735.98
472.344	12901.86
472.549	12959.2
472.754	12977.64
472.959	12451.31
473.164	12183.02
473.369	12082.67
473.574	12715.5
473.778	12443.12
473.983	12125.68
474.188	12244.46
474.393	11662.84
474.598	11908.6
474.802	11711.99
475.007	11718.14
475.212	11761.14
475.417	11314.69
475.621	11286.01
475.826	11081.22
476.031	10800.65
476.235	10913.28
476.44	10948.1
476.645	10931.72
476.849	10843.65
477.054	10636.81
477.259	10423.82
477.463	10247.69
477.668	10106.38
477.872	10288.65
478.077	10014.23
478.282	9862.68
478.486	9598.49
478.691	9670.17
478.895	9985.55
479.1	9625.11
479.304	9543.19
479.509	9520.67
479.713	9793.05
479.918	9244.19
480.122	9203.23
480.326	9369.12
480.531	9442.84
480.735	9285.15
480.94	8996.39
481.144	9403.93
481.348	9010.72
481.553	9135.65
481.757	8883.75
481.961	8918.56
482.166	9127.46
482.37	9117.22
482.574	9012.77
482.778	8953.38
482.983	9190.94
483.187	8816.16
483.391	9055.78
483.595	8869.41
483.8	8844.84
484.004	8887.84
484.208	8998.43
484.412	9025.06
484.616	8932.9
484.821	8949.28
485.025	8701.48
485.229	9047.58
485.433	8791.59
485.637	8975.91
485.841	8900.13
486.045	8699.43
486.249	8760.87
486.453	8621.61
486.657	8793.64
486.861	8830.5
487.065	8578.6
487.269	8883.75
487.473	8789.54
487.677	8797.73
487.881	9211.42
488.085	8799.78
488.289	8896.03
488.493	8705.57
488.697	8945.19
488.901	9066.02
489.105	8756.77
489.309	8904.23
489.512	8799.78
489.716	9059.87
489.92	8902.18
490.124	9123.36
490.328	9031.2
490.531	9092.64
490.735	9158.17
490.939	8949.28
491.143	9250.33
491.346	9121.31
491.55	9143.84
491.754	9276.96
491.958	9416.22
492.161	9184.8
492.365	9188.89
492.569	9362.97
492.772	9287.2
492.976	9475.61
493.18	9444.89
493.383	9504.28
493.587	9498.14
493.79	9725.46
493.994	9371.16
494.197	9661.98
494.401	9686.55
494.605	9838.1
494.808	9831.96
495.012	9788.95
495.215	9926.16
495.419	9940.5
495.622	10014.23
495.825	10139.15
496.029	10335.76
496.232	10544.65
496.436	10309.13
496.639	10511.88
496.843	10511.88
497.046	10780.17
497.249	11019.78
497.453	11048.45
497.656	11007.49
497.859	11050.5
498.063	11195.9
498.266	11507.2
498.469	11290.11
498.673	11462.14
498.876	11636.22
499.079	11757.05
499.282	11613.69
499.485	12228.08
499.689	11922.93
499.892	12357.1
500.095	12299.76
500.298	12715.5
500.501	12389.87
500.705	12731.88
500.908	12934.63
501.111	12916.2
501.314	13284.83
501.517	13176.29
501.72	13434.33
501.923	13315.55
502.126	13866.46
502.329	13821.4
502.532	13977.05
502.735	13989.33
502.938	14280.14
503.141	14388.69
503.344	14613.96
503.547	14628.3
503.75	14691.79
503.953	14974.41
504.156	15009.22
504.359	15224.26
504.562	15457.73
504.765	15570.37
504.968	15971.77
505.17	15828.41
505.373	15881.66
505.576	16235.95
505.779	16446.9
505.982	16373.17
506.185	16639.4
506.387	16729.52
506.59	16938.41
506.793	17083.81
506.996	17063.33
507.198	17816.99
507.401	17368.48
507.604	17618.33
507.807	18140.57
508.009	18179.48
508.212	18267.54
508.415	18513.3
508.617	18638.22
508.82	18689.42
509.022	18900.36
509.225	19074.44
509.428	19379.59
509.63	19387.78
509.833	19522.94
510.035	20280.69
510.238	19963.26
510.44	20155.77
510.643	20495.73
510.845	20544.88
511.048	20434.29
511.25	20610.42
511.453	20958.57
511.655	21761.37
511.858	21331.3
512.06	21560.67
512.262	21601.63
512.465	21630.3
512.667	22222.17
512.87	22201.69
513.072	22570.32
513.274	22902.09
513.477	22760.78
513.679	23059.79
513.881	23049.55
514.084	23553.35
514.286	23670.08
514.488	23448.9
514.69	24118.59
514.893	24417.59
515.095	24220.99
515.297	24503.6
515.499	24835.38
515.701	24818.99
515.904	25300.26
516.106	25460.01
516.308	25515.3
516.51	25705.76
516.712	25599.27
516.914	26121.5
517.116	26518.81
517.318	26346.78
517.52	26592.53
517.722	26735.89
517.925	26690.84
518.127	27206.92
518.329	26969.36
518.531	27098.38
518.733	27815.17
518.935	27718.92
519.136	27639.04
519.338	28142.85
519.54	28435.7
519.742	28450.04
519.944	28458.23
520.146	28906.74
520.348	29181.17
520.55	29310.19
520.752	29103.34
520.954	29572.33
521.155	29265.13
521.357	29557.99
521.559	29963.49
521.761	30483.67
521.963	30522.58
522.164	30289.12
522.366	30530.78
522.568	30797.01
522.77	30840.02
522.971	31317.2
523.173	30860.5
523.375	31233.23
523.576	31425.74
523.778	31122.64
523.98	31755.46
524.181	32083.14
524.383	31911.11
524.584	32160.96
524.786	32009.41
524.988	31827.14
525.189	32582.84
525.391	32451.77
525.592	32369.85
525.794	32361.66
525.995	32591.03
526.197	32765.11
526.398	32978.1
526.6	33279.15
526.801	33248.43
527.003	32941.24
527.204	33064.11
527.406	33264.82
527.607	33119.41
527.808	33465.52
528.01	33096.88
528.211	33246.38
528.412	34335.9
528.614	33486
528.815	33741.99
529.016	33891.49
529.218	33424.56
529.419	33696.94
529.62	33660.07
529.822	33490.09
530.023	33547.43
530.224	33952.93
530.425	33809.57
530.626	33879.21
530.828	33492.14
531.029	34307.23
531.23	33793.19
531.431	33748.14
531.632	33928.36
531.833	33846.44
532.035	33887.4
532.236	33952.93
532.437	34122.91
532.638	33803.43
532.839	34452.64
533.04	33932.45
533.241	33606.83
533.442	34608.28
533.643	33983.65
533.844	33834.15
534.045	33850.53
534.246	33709.22
534.447	34202.78
534.648	33909.93
534.849	33760.42
535.05	33899.69
535.251	33979.56
535.451	33748.14
535.652	33819.81
535.853	33957.03
536.054	33873.06
536.255	33899.69
536.456	34004.13
536.657	34194.59
536.857	33686.7
537.058	33868.97
537.259	34077.86
537.46	33766.57
537.66	33782.95
537.861	33316.01
538.062	33723.56
538.263	33989.8
538.463	33612.97
538.664	34034.85
538.865	33938.6
539.065	33957.03
539.266	33561.77
539.466	33776.81
539.667	33182.9
539.868	33959.08
540.068	33612.97
540.269	33610.92
540.469	33694.89
540.67	33328.3
540.87	33428.65
541.071	33670.31
541.271	33860.77
541.472	33326.25
541.672	33227.95
541.873	33430.7
542.073	32699.58
542.274	33561.77
542.474	33125.55
542.675	33096.88
542.875	33600.68
543.075	33139.89
543.276	33119.41
543.476	33381.55
543.676	33223.86
543.877	33500.33
544.077	33457.32
544.277	33166.51
544.478	33111.22
544.678	33051.83
544.878	33297.58
545.078	33236.14
545.279	32808.12
545.479	33328.3
545.679	32959.67
545.879	33055.92
546.079	33287.34
546.28	33424.56
546.48	32697.53
546.68	33139.89
546.88	33164.46
547.08	33033.39
547.28	32834.74
547.48	32742.58
547.68	32896.18
547.88	33006.77
548.081	32957.62
548.281	33012.91
548.481	32513.21
548.681	33060.02
548.881	32926.9
549.081	32648.38
549.28	32322.75
549.48	32844.98
549.68	32978.1
549.88	32914.61
550.08	32599.23
550.28	32636.09
550.48	32808.12
550.68	32832.69
550.88	32523.45
551.08	32703.67
551.279	32769.21
551.479	32373.95
551.679	32619.7
551.879	32435.39
552.079	32687.29
552.278	32369.85
552.478	32744.63
552.678	32576.7
552.878	32603.32
553.077	32472.25
553.277	32101.57
553.477	32732.34
553.676	32453.82
553.876	32683.19
554.076	32382.14
554.275	32318.65
554.475	32185.54
554.674	32588.99
554.874	32298.17
555.074	32175.3
555.273	32335.04
555.473	32654.52
555.672	32265.41
555.872	32208.06
556.071	32193.73
556.271	32392.38
556.47	32177.34
556.67	31780.04
556.869	32150.72
557.068	32324.8
557.268	31569.1
557.467	31747.27
557.667	32160.96
557.866	32058.56
558.065	32187.58
558.265	31929.54
558.464	31691.98
558.663	32369.85
558.863	31521.99
559.062	32197.82
559.261	31798.47
559.461	32013.51
559.66	31423.69
559.859	31913.16
560.058	31399.12
560.258	31919.3
560.457	31524.04
560.656	31689.93
560.855	31745.22
561.054	31966.4
561.253	31423.69
561.453	31671.5
561.652	31737.03
561.851	31761.61
562.05	31378.64
562.249	31014.1
562.448	31861.96
562.647	31319.24
562.846	31468.75
563.045	31288.53
563.244	31218.89
563.443	31491.27
563.642	30751.96
563.841	31366.35
564.04	31585.48
564.239	31550.67
564.438	31440.07
564.637	31321.29
564.836	31100.11
565.035	31124.69
565.234	31102.16
565.432	31001.81
565.631	30917.84
565.83	31057.1
566.029	30944.47
566.228	30895.32
566.427	31151.31
566.625	30758.1
566.824	30448.86
567.023	30995.67
567.222	30397.66
567.42	30850.26
567.619	30878.93
567.818	30764.25
568.016	30792.92
568.215	31270.09
568.414	30428.38
568.612	30807.25
568.811	30500.06
569.01	30797.01
569.208	30594.26
569.407	30760.15
569.605	30000.35
569.804	30631.13
570.002	30305.5
570.201	30475.48
570.4	30250.21
570.598	30219.49
570.797	30102.75
570.995	30389.47
571.193	30147.81
571.392	29973.73
571.59	29865.19
571.789	30018.78
571.987	29928.67
572.186	29871.33
572.384	29900
572.582	29918.43
572.781	30020.83
572.979	29414.63
573.177	29820.13
573.376	29986.02
573.574	29666.53
573.772	29859.04
573.971	29621.48
574.169	29553.9
574.367	29615.33
574.565	29560.04
574.763	29459.69
574.962	29422.83
575.16	28904.69
575.358	29539.56
575.556	28933.36
575.754	29508.84
575.952	28693.75
576.151	29074.67
576.349	29035.76
576.547	28812.53
576.745	28990.7
576.943	28947.7
577.141	28880.11
577.339	28714.23
577.537	28806.39
577.735	28634.36
577.933	28722.42
578.131	28716.28
578.329	28687.6
578.527	28329.21
578.725	28536.06
578.923	28468.47
579.121	28497.14
579.319	28032.25
579.516	28065.02
579.714	28355.83
579.912	28398.84
580.11	27923.71
580.308	28341.5
580.506	27964.67
580.704	27485.45
580.901	27766.02
581.099	28192
581.297	27806.98
581.495	27718.92
581.692	28091.65
581.89	27548.93
582.088	27677.96
582.285	27411.72
582.483	27593.99
582.681	27647.24
582.878	27348.23
583.076	27147.53
583.274	27774.21
583.471	27096.33
583.669	27315.47
583.866	26985.74
584.064	27342.09
584.262	26823.95
584.459	27282.7
584.657	27200.78
584.854	27120.91
585.052	27041.04
585.249	26762.51
585.447	26674.45
585.644	26608.92
585.841	26903.82
586.039	26746.13
586.236	26369.3
586.434	26297.63
586.631	26324.25
586.828	26430.74
587.026	26410.26
587.223	26283.29
587.42	26115.36
587.618	26311.96
587.815	25713.95
588.012	25691.43
588.21	26055.97
588.407	26062.11
588.604	25740.58
588.801	25713.95
588.999	25871.65
589.196	25662.76
589.393	25431.33
589.59	25173.29
589.787	25333.03
589.984	25308.46
590.182	24927.53
590.379	25591.08
590.576	25156.91
590.773	25019.69
590.97	25161
591.167	25242.92
591.364	25013.55
591.561	24968.49
591.758	25068.84
591.955	25009.45
592.152	24882.48
592.349	24507.7
592.546	24872.24
592.743	24429.88
592.94	24243.51
593.137	24419.64
593.334	24810.8
593.531	24317.24
593.727	24456.5
593.924	24323.38
594.121	24204.6
594.318	24448.31
594.515	23899.45
594.712	24563
594.908	24278.33
595.105	24225.08
595.302	23944.51
595.499	24075.58
595.696	23805.25
595.892	23772.48
596.089	24020.28
596.286	23762.24
596.482	23518.53
596.679	23555.4
596.876	23551.3
597.072	23469.38
597.269	23625.03
597.466	23395.65
597.662	23180.62
597.859	23326.02
598.055	23147.85
598.252	23088.46
598.448	23162.19
598.645	23141.71
598.841	22363.48
599.038	22973.77
599.234	22789.45
599.431	22781.26
599.627	22627.67
599.824	22803.79
600.02	22607.19
600.217	22615.38
600.413	22162.78
600.609	22598.99
600.806	22320.47
601.002	22429.01
601.198	22193.5
601.395	22211.93
601.591	22050.14
601.787	22265.17
601.984	21896.54
602.18	22203.74
602.376	22127.96
602.572	21880.16
602.769	21882.2
602.965	21878.11
603.161	21759.33
603.357	21562.72
603.553	21656.93
603.75	21618.02
603.946	21435.75
604.142	21810.53
604.338	21351.78
604.534	21577.06
604.73	21439.84
604.926	21233
605.122	21478.75
605.318	21181.8
605.514	21151.08
605.71	21050.73
605.906	20960.62
606.102	20979.05
606.298	20952.43
606.494	20784.49
606.69	21075.31
606.886	21073.26
607.082	20493.68
607.278	20800.88
607.474	20493.68
607.67	20800.88
607.866	20454.77
608.062	20858.22
608.257	20602.22
608.453	20573.55
608.649	20505.97
608.845	20120.95
609.041	20370.8
609.236	20340.08
609.432	20475.25
609.628	20317.56
609.824	20311.41
610.019	20088.18
610.215	19928.44
610.411	20364.66
610.606	20505.97
610.802	20370.8
610.998	20217.21
611.193	19910.01
611.389	20096.38
611.584	19772.8
611.78	19815.8
611.976	20118.9
612.171	19688.83
612.367	19891.58
612.562	19611.01
612.758	19490.18
612.953	19434.88
613.149	19862.91
613.344	19475.84
613.539	19996.03
613.735	19660.16
613.93	19842.43
614.126	19377.54
614.321	19694.97
614.517	19629.44
614.712	19277.19
614.907	19367.3
615.103	19619.2
615.298	19139.97
615.493	19574.14
615.688	18849.16
615.884	19402.11
616.079	19096.97
616.274	19350.92
616.47	19201.41
616.665	19211.65
616.86	18969.99
617.055	19043.72
617.25	18783.63
617.445	18935.18
617.641	18867.59
617.836	19299.72
618.031	18574.74
618.226	18838.92
618.421	18810.25
618.616	18793.87
618.811	18230.68
619.006	18724.24
619.201	18257.3
619.396	18103.7
619.591	18365.84
619.786	18222.48
619.981	18001.3
620.176	18152.85
620.371	17986.97
620.566	18023.83
620.761	17847.71
620.956	17917.34
621.151	17474.98
621.346	17749.4
621.541	17442.21
621.735	17583.52
621.93	17382.82
622.125	17259.94
622.32	17114.53
622.515	17266.08
622.709	17034.66
622.904	17112.49
623.099	17130.92
623.294	16954.79
623.488	16534.96
623.683	16672.17
623.878	16483.76
624.072	16602.54
624.267	16489.9
624.462	16244.15
624.656	16104.88
624.851	16154.04
625.046	15723.96
625.24	15885.75
625.435	15711.67
625.629	15822.27
625.824	15748.54
626.018	15930.81
626.213	15504.83
626.407	15715.77
626.602	15535.55
626.796	15461.82
626.991	15277.51
627.185	15435.2
627.38	15291.84
627.574	15136.2
627.768	14955.97
627.963	14912.97
628.157	14689.74
628.352	14882.25
628.546	14591.44
628.74	14853.58
628.935	14341.58
629.129	14521.81
629.323	14351.82
629.517	14351.82
629.712	14138.83
629.906	13997.53
630.1	14194.13
630.294	13952.47
630.489	14142.93
630.683	13833.69
630.877	13661.66
631.071	13843.93
631.265	13753.82
631.459	13526.49
631.653	13581.79
631.848	13524.44
632.042	13321.7
632.236	13473.25
632.43	13383.13
632.624	13307.36
632.818	13153.76
633.012	12903.91
633.206	13034.98
633.4	13084.13
633.594	12840.42
633.788	12887.53
633.982	12729.83
634.176	12684.78
634.369	12606.95
634.563	12459.5
634.757	12137.97
634.951	12641.77
635.145	12418.54
635.339	12383.73
635.533	12271.09
635.726	12348.91
635.92	12150.26
636.114	12070.39
636.308	11990.52
636.501	11902.45
636.695	11900.41
636.889	11722.23
637.083	11888.12
637.276	11748.86
637.47	11425.28
637.664	11591.16
637.857	11568.63
638.051	11349.5
638.244	11333.12
638.438	11222.53
638.632	11341.31
638.825	11208.19
639.019	11099.65
639.212	11120.13
639.406	11222.53
639.599	11107.84
639.793	10946.05
639.986	10921.48
640.18	10868.23
640.373	10645
640.567	10448.4
640.76	10622.47
640.954	10628.62
641.147	10608.14
641.34	10540.55
641.534	10659.34
641.727	10397.2
641.92	10462.73
642.114	10341.9
642.307	10251.79
642.5	10182.16
642.694	9975.31
642.887	9891.35
643.08	10133.01
643.273	10094.1
643.467	9668.12
643.66	9887.25
643.853	9608.73
644.046	9668.12
644.239	9745.94
644.432	9629.21
644.626	9508.38
644.819	9602.58
645.012	9393.69
645.205	9539.1
645.398	9461.27
645.591	9266.72
645.784	9281.05
645.977	8922.66
646.17	9172.51
646.363	9229.85
646.556	9000.48
646.749	9037.34
646.942	8986.15
647.135	8738.34
647.328	8775.2
647.521	8877.6
647.714	8756.77
647.907	8683.05
648.099	8597.03
648.292	8750.63
648.485	8668.71
648.678	8515.11
648.871	8316.46
649.064	8386.09
649.256	8193.58
649.449	8310.32
649.642	8252.97
649.835	8283.69
650.027	8177.2
650.22	8138.29
650.413	8111.66
650.605	8164.91
650.798	8029.74
650.991	7816.76
651.183	7994.93
651.376	7915.06
651.568	8058.42
651.761	7700.02
651.954	8052.27
652.146	7827
652.339	7839.28
652.531	7757.36
652.724	7616.05
652.916	7476.79
653.109	7550.52
653.301	7767.6
653.494	7546.42
653.686	7296.57
653.879	7540.28
654.071	7392.83
654.263	7421.5
654.456	7255.61
654.648	7331.39
654.84	7204.41
655.033	7224.89
655.225	7185.98
655.417	7136.83
655.61	7183.93
655.802	7140.93
655.994	7122.49
656.186	7020.1
656.379	6901.31
656.571	6901.31
656.763	6835.78
656.955	6749.76
657.148	6729.28
657.34	6923.84
657.532	6702.66
657.724	6757.96
657.916	6630.98
658.108	6508.1
658.3	6731.33
658.492	6712.9
658.684	6540.87
658.876	6524.49
659.068	6585.93
659.26	6477.38
659.452	6385.23
659.644	6530.63
659.836	6391.37
660.028	6291.02
660.22	6266.44
660.412	6280.78
660.604	6233.68
660.796	6227.53
660.988	6178.38
661.18	6301.26
661.372	6024.78
661.563	6071.89
661.755	6041.17
661.947	5963.34
662.139	5953.1
662.331	5994.06
662.522	5842.51
662.714	5981.78
662.906	5938.77
663.097	5903.95
663.289	6014.54
663.481	5793.36
663.673	5881.42
663.864	5783.12
664.056	5682.77
664.247	5695.06
664.439	5703.25
664.631	5643.86
664.822	5625.43
665.014	5633.62
665.205	5520.98
665.397	5664.34
665.588	5373.53
665.78	5525.08
665.971	5553.75
666.163	5504.6
666.354	5516.89
666.546	5443.16
666.737	5434.97
666.929	5412.44
667.12	5467.74
667.311	5477.98
667.503	5193.31
667.694	5256.79
667.885	5467.74
668.077	5414.49
668.268	5269.08
668.459	5248.6
668.651	5228.12
668.842	5437.02
669.033	5183.07
669.224	5117.53
669.416	5234.27
669.607	5195.36
669.798	5189.21
669.989	5248.6
670.18	5121.63
670.371	5095
670.563	4974.17
670.754	5164.64
670.945	4931.17
671.136	4976.22
671.327	4976.22
671.518	4918.88
671.709	5125.72
671.9	5160.54
672.091	5021.28
672.282	4963.93
672.473	4949.6
672.664	4910.69
672.855	4965.98
673.046	4871.78
673.237	4847.2
673.428	4744.8
673.619	4818.53
673.809	4902.5
674	4959.84
674.191	4757.09
674.382	4746.85
674.573	4877.92
674.764	4816.48
674.954	4793.95
675.145	4759.14
675.336	4925.02
675.527	4736.61
675.717	4677.22
675.908	4687.46
676.099	4746.85
676.289	4744.8
676.48	4740.71
676.671	4677.22
676.861	4896.35
677.052	4689.51
677.243	4685.41
677.433	4597.35
677.624	4820.58
677.814	4597.35
678.005	4705.89
678.195	4841.06
678.386	4634.21
678.576	4671.08
678.767	4601.44
678.957	4617.83
679.148	4644.45
679.338	4748.9
679.529	4689.51
679.719	4523.62
679.909	4851.3
680.1	4650.6
680.29	4808.29
680.481	4623.97
680.671	4615.78
680.861	4662.88
681.052	4642.4
681.242	4644.45
681.432	4773.47
681.622	4601.44
681.813	4585.06
682.003	4685.41
682.193	4585.06
682.383	4634.21
682.573	4562.53
682.764	4595.3
682.954	4583.01
683.144	4818.53
683.334	4666.98
683.524	4566.63
683.714	4595.3
683.904	4515.43
684.094	4591.2
684.284	4531.81
684.474	4687.46
684.664	4396.65
684.854	4527.72
685.044	4517.48
685.234	4468.33
685.424	4513.38
685.614	4435.56
685.804	4472.42
685.994	4566.63
686.184	4476.52
686.374	4646.5
686.564	4341.35
686.753	4509.29
686.943	4245.1
687.133	4302.44
687.323	4505.19
687.513	4322.92
687.702	4339.3
687.892	4441.7
688.082	4234.86
688.272	4185.71
688.461	4218.47
688.651	4427.37
688.841	4335.21
689.03	4222.57
689.22	4189.8
689.41	4255.34
689.599	4232.81
689.789	4251.24
689.979	4185.71
690.168	4118.12
690.358	4138.6
690.547	4048.49
690.737	4087.4
690.926	3970.67
691.116	3954.29
691.305	4179.56
691.495	4120.17
691.684	4011.63
691.874	3987.05
692.063	4083.31
692.252	4075.12
692.442	4001.39
692.631	3864.18
692.82	4015.73
693.01	3966.57
693.199	3884.66
693.388	3989.1
693.578	3704.43
693.767	3853.94
693.956	3911.28
694.146	3894.9
694.335	3759.73
694.524	3790.45
694.713	3944.05
694.902	3743.35
695.092	3835.5
695.281	3729.01
695.47	3855.98
695.659	3733.11
695.848	3757.68
696.037	3812.98
696.226	3894.9
696.415	3659.38
696.604	3792.5
696.793	3677.81
696.982	3911.28
697.171	3827.31
697.36	3698.29
697.549	3710.58
697.738	3755.63
697.927	3767.92
698.116	3692.15
698.305	3745.39
698.494	3892.85
698.683	3608.18
698.872	3780.21
699.061	3692.15
699.25	3829.36
699.438	3737.2
699.627	3743.35
699.816	3778.16
700.005	3858.03
700.193	3765.87
700.382	3933.81
700.571	3835.5
700.76	3827.31
700.948	3905.14
701.137	3884.66
701.326	3741.3
701.514	3927.66
701.703	3796.59
701.892	3733.11
702.08	3808.88
702.269	3825.26
702.457	3804.78
702.646	3829.36
702.834	3794.54
703.023	4011.63
703.212	3980.91
703.4	3851.89
703.589	3786.35
703.777	4001.39
703.965	3898.99
704.154	3997.29
704.342	3896.94
704.531	3851.89
704.719	3708.53
704.907	3876.46
705.096	3812.98
705.284	3917.42
705.472	3847.79
705.661	3935.85
705.849	4034.16
706.037	3901.04
706.226	3944.05
706.414	4005.49
706.602	3825.26
706.79	3991.15
706.979	3892.85
707.167	3864.18
707.355	3909.23
707.543	3933.81
707.731	4021.87
707.919	4099.69
708.107	3980.91
708.296	3880.56
708.484	3855.98
708.672	4171.37
708.86	4103.79
709.048	4038.25
709.236	3905.14
709.424	3962.48
709.612	3954.29
709.8	4007.53
709.988	4019.82
710.176	4054.64
710.364	3974.77
710.551	4023.92
710.739	4032.11
710.927	3991.15
711.115	4114.03
711.303	4179.56
711.491	4146.8
711.679	3950.19
711.866	4089.45
712.054	4150.89
712.242	4095.6
712.43	4132.46
712.617	4083.31
712.805	4179.56
712.993	4025.97
713.181	4177.51
713.368	4101.74
713.556	4052.59
713.744	3960.43
713.931	4230.76
714.119	4118.12
714.306	4292.2
714.494	4105.84
714.682	4191.85
714.869	3886.7
715.057	4159.08
715.244	4025.97
715.432	4337.26
715.619	4130.41
715.807	4105.84
715.994	4286.06
716.182	4159.08
716.369	4195.95
716.556	4165.23
716.744	4161.13
716.931	4150.89
717.119	4226.67
717.306	4222.57
717.493	4322.92
717.681	4122.22
717.868	4159.08
718.055	4324.97
718.242	4091.5
718.43	4261.48
718.617	4308.58
718.804	4396.65
718.991	4339.3
719.179	4255.34
719.366	4310.63
719.553	4298.35
719.74	4193.9
719.927	4257.39
720.114	4177.51
720.301	4243.05
720.488	4335.21
720.676	4277.87
720.863	4238.95
721.05	4261.48
721.237	4361.83
721.424	4251.24
721.611	4324.97
721.798	4324.97
721.985	4222.57
722.172	4347.5
722.358	4308.58
722.545	4468.33
722.732	4212.33
722.919	4335.21
723.106	4359.78
723.293	4300.39
723.48	4310.63
723.667	4445.8
723.853	4265.58
724.04	4327.02
724.227	4269.67
724.414	4421.22
724.6	4324.97
724.787	4292.2
724.974	4318.82
725.161	4275.82
725.347	4259.43
725.534	4382.31
725.72	4347.5
725.907	4300.39
726.094	4361.83
726.28	4222.57
726.467	4140.65
726.653	4363.88
726.84	4445.8
727.027	4460.13
727.213	4157.04
727.4	4466.28
727.586	4306.54
727.773	4251.24
727.959	4265.58
728.145	4312.68
728.332	4279.91
728.518	4423.27
728.705	4572.77
728.891	4292.2
729.077	4341.35
729.264	4331.11
729.45	4226.67
729.636	4433.51
729.823	4204.14
730.009	4380.26
730.195	4363.88
730.382	4410.98
730.568	4294.25
730.754	4384.36
730.94	4329.06
731.126	4374.12
731.313	4533.86
731.499	4439.65
731.685	4308.58
731.871	4296.3
732.057	4376.17
732.243	4187.75
732.429	4490.85
732.615	4308.58
732.801	4394.6
732.987	4398.7
733.173	4400.74
733.359	4140.65
733.545	4271.72
733.731	4189.8
733.917	4310.63
734.103	4476.52
734.289	4247.15
734.475	4124.27
734.661	4501.09
734.847	4284.01
735.033	4241
735.219	4259.43
735.404	4251.24
735.59	4300.39
735.776	4200.04
735.962	4396.65
736.148	4367.98
736.333	4304.49
736.519	4241
736.705	4273.77
736.89	4085.36
737.076	4245.1
737.262	4204.14
737.447	4355.69
737.633	4130.41
737.819	4294.25
738.004	4175.47
738.19	4284.01
738.375	4236.91
738.561	4286.06
738.747	4062.83
738.932	4079.21
739.118	4216.43
739.303	4159.08
739.489	4243.05
739.674	4103.79
739.859	4105.84
740.045	4232.81
740.23	4097.64
740.416	4079.21
740.601	4036.21
740.786	4023.92
740.972	3954.29
741.157	3876.46
741.342	4034.16
741.528	4034.16
741.713	4050.54
741.898	4064.88
742.084	3868.27
742.269	4089.45
742.454	3870.32
742.639	4005.49
742.824	3841.65
743.01	3905.14
743.195	3888.75
743.38	3896.94
743.565	3776.11
743.75	3815.02
743.935	3937.9
744.12	3835.5
744.305	3591.8
744.49	3849.84
744.675	3681.91
744.86	3726.96
745.045	3694.19
745.23	3733.11
745.415	3671.67
745.6	3749.49
745.785	3661.43
745.97	3614.32
746.155	3655.28
746.34	3649.14
746.525	3579.51
746.71	3618.42
746.895	3450.49
747.079	3575.41
747.264	3409.53
747.449	3509.88
747.634	3524.21
747.819	3348.09
748.003	3405.43
748.188	3294.84
748.373	3346.04
748.557	3389.05
748.742	3329.66
748.927	3430.01
749.111	3393.14
749.296	3268.22
749.481	3192.44
749.665	3282.55
749.85	3100.28
750.034	3155.58
750.219	3114.62
750.404	3067.52
750.588	3096.19
750.773	3067.52
750.957	3098.24
751.141	3112.57
751.326	3018.36
751.51	3085.95
751.695	2942.59
751.879	3010.17
752.064	3071.61
752.248	2969.21
752.432	2985.6
752.617	2846.34
752.801	2856.58
752.985	2838.14
753.17	2860.67
753.354	2940.54
753.538	2854.53
753.722	2770.56
753.907	2780.8
754.091	2717.31
754.275	2700.93
754.459	2682.5
754.643	2655.87
754.828	2705.03
755.012	2762.37
755.196	2719.36
755.38	2643.59
755.564	2584.2
755.748	2690.69
755.932	2639.49
756.116	2494.08
756.3	2524.8
756.484	2434.69
756.668	2541.19
756.852	2233.99
757.036	2559.62
757.22	2381.45
757.404	2422.41
757.588	2270.86
757.772	2315.91
757.956	2346.63
758.14	2377.35
758.323	2156.17
758.507	2346.63
758.691	2258.57
758.875	2330.25
759.059	2180.75
759.242	2164.36
759.426	2229.9
759.61	2285.19
759.794	2240.14
759.977	2207.37
760.161	2281.1
760.345	2236.04
760.528	2121.35
760.712	2168.46
760.895	2145.93
761.079	2090.63
761.263	2002.57
761.446	2113.16
761.63	2086.54
761.813	2043.53
761.997	1992.33
762.18	2176.65
762.364	2014.86
762.547	1908.37
762.731	2004.62
762.914	1978
763.098	1957.52
763.281	1963.66
763.464	1930.89
763.648	1953.42
763.831	1840.78
764.015	1986.19
764.198	1846.93
764.381	2049.68
764.564	1871.5
764.748	1857.17
764.931	1885.84
765.114	1861.26
765.297	1951.37
765.481	1746.58
765.664	1894.03
765.847	1773.2
766.03	1869.45
766.213	1738.38
766.397	1803.92
766.58	1748.62
766.763	1828.49
766.946	1775.25
767.129	1836.69
767.312	1693.33
767.495	1756.82
767.678	1736.34
767.861	1775.25
768.044	1732.24
768.227	1715.86
768.41	1765.01
768.593	1719.95
768.776	1756.82
768.959	1652.37
769.142	1771.15
769.324	1785.49
769.507	1623.7
769.69	1660.56
769.873	1666.71
770.056	1730.19
770.239	1633.94
770.421	1709.71
770.604	1599.12
770.787	1621.65
770.97	1633.94
771.152	1660.56
771.335	1666.71
771.518	1552.02
771.7	1646.23
771.883	1633.94
772.066	1592.98
772.248	1519.25
772.431	1601.17
772.613	1625.75
772.796	1435.28
772.978	1590.93
773.161	1492.63
773.343	1435.28
773.526	1427.09
773.708	1453.72
773.891	1435.28
774.073	1474.2
774.256	1470.1
774.438	1425.04
774.621	1435.28
774.803	1390.23
774.985	1433.24
775.168	1406.61
775.35	1377.94
775.532	1353.37
775.715	1355.41
775.897	1416.85
776.079	1332.89
776.261	1320.6
776.444	1242.78
776.626	1361.56
776.808	1316.5
776.99	1177.24
777.173	1306.26
777.355	1379.99
777.537	1289.88
777.719	1304.21
777.901	1203.86
778.083	1238.68
778.265	1111.71
778.447	1203.86
778.629	1138.33
778.811	1152.67
778.993	1162.9
779.175	1308.31
779.357	1128.09
779.539	1128.09
779.721	1140.38
779.903	1076.89
780.085	1148.57
780.267	1138.33
780.449	1160.86
780.631	1152.67
780.812	1111.71
780.994	1056.41
781.176	1031.83
781.358	1068.7
781.54	1132.19
781.721	1175.19
781.903	1060.51
782.085	966.3
782.267	1005.21
782.448	911
782.63	1060.51
782.812	1021.6
782.993	1091.23
783.175	1007.26
783.357	925.34
783.538	917.15
783.72	859.81
783.901	954.01
784.083	925.34
784.264	929.44
784.446	919.2
784.627	833.18
784.809	806.56
784.99	874.14
785.172	870.05
785.353	935.58
785.535	868
785.716	831.13
785.897	851.61
786.079	913.05
786.26	876.19
786.441	792.22
786.623	695.97
786.804	845.47
786.985	822.94
787.167	845.47
787.348	702.11
787.529	861.85
787.71	741.02
787.891	767.65
788.073	790.17
788.254	771.74
788.435	775.84
788.616	798.37
788.797	669.34
788.978	675.49
789.159	708.26
789.34	732.83
789.522	767.65
789.703	689.82
789.884	800.41
790.065	714.4
790.246	667.3
790.427	605.86
790.607	763.55
790.788	681.63
790.969	620.19
791.15	640.67
791.331	669.34
791.512	642.72
791.693	671.39
791.874	640.67
792.054	677.54
792.235	657.06
792.416	530.08
792.597	622.24
792.778	595.62
792.958	628.39
793.139	663.2
793.32	589.47
793.5	622.24
793.681	675.49
793.862	607.91
794.042	620.19
794.223	546.47
794.404	515.75
794.584	542.37
794.765	581.28
794.945	528.03
795.126	583.33
795.306	564.9
795.487	482.98
795.667	534.18
795.848	515.75
796.028	511.65
796.209	507.55
796.389	525.99
796.57	568.99
796.75	478.88
796.93	560.8
797.111	444.07
797.291	499.36
797.471	550.56
797.652	482.98
797.832	497.32
798.012	540.32
798.192	460.45
798.373	442.02
798.553	439.97
798.733	448.16
798.913	423.59
799.093	521.89
799.274	493.22
799.454	458.4
799.634	519.84
799.814	460.45
799.994	464.55
800.174	405.16
800.354	368.29
800.534	378.53
800.714	530.08
800.894	401.06
801.074	411.3
801.254	384.68
801.434	489.12
801.614	437.92
801.794	417.44
801.974	1478.29
802.154	431.78
802.334	452.26
802.514	411.3
802.693	435.88
802.873	446.12
803.053	433.83
803.233	396.96
803.413	374.44
803.592	466.6
803.772	263.85
803.952	446.12
804.131	356.01
804.311	403.11
804.491	356.01
804.67	374.44
804.85	351.91
805.03	378.53
805.209	405.16
805.389	290.47
805.568	362.15
805.748	382.63
805.928	442.02
806.107	405.16
806.287	413.35
806.466	343.72
806.646	331.43
806.825	327.33
807.004	298.66
807.184	280.23
807.363	329.38
807.543	372.39
807.722	362.15
807.901	368.29
808.081	331.43
808.26	265.89
808.439	382.63
808.619	247.46
808.798	290.47
808.977	450.21
809.156	325.29
809.336	286.37
809.515	263.85
809.694	222.89
809.873	306.85
810.052	302.76
810.231	347.81
810.411	306.85
810.59	409.25
810.769	323.24
810.948	292.52
811.127	237.22
811.306	235.18
811.485	231.08
811.664	284.33
811.843	349.86
812.022	239.27
812.201	333.48
812.38	298.66
812.559	253.61
812.737	345.77
812.916	224.94
813.095	243.37
813.274	233.13
813.453	317.09
813.632	280.23
813.811	323.24
813.989	183.98
814.168	333.48
814.347	239.27
814.526	235.18
814.704	284.33
814.883	224.94
815.062	175.78
815.24	274.09
815.419	204.46
815.598	251.56
815.776	196.26
815.955	251.56
816.133	157.35
816.312	261.8
816.49	222.89
816.669	220.84
816.847	186.02
817.026	251.56
817.204	214.7
817.383	218.79
817.561	265.89
817.74	249.51
817.918	259.75
818.097	263.85
818.275	253.61
818.453	269.99
818.632	286.37
818.81	302.76
818.988	143.02
819.167	173.74
819.345	210.6
819.523	204.46
819.701	304.81
819.879	259.75
820.058	155.3
820.236	212.65
820.414	253.61
820.592	140.97
820.77	251.56
820.948	120.49
821.127	151.21
821.305	218.79
821.483	116.39
821.661	218.79
821.839	190.12
822.017	222.89
822.195	255.65
822.373	212.65
822.551	206.5
822.729	274.09
822.907	210.6
823.085	130.73
823.262	231.08
823.44	218.79
823.618	116.39
823.796	194.22
823.974	200.36
824.152	173.74
824.329	177.83
824.507	200.36
824.685	214.7
824.863	194.22
825.04	208.55
825.218	214.7
825.396	147.11
825.574	265.89
825.751	186.02
825.929	140.97
826.107	171.69
826.284	153.26
826.462	204.46
826.639	151.21
826.817	163.5
826.994	200.36
827.172	130.73
827.349	140.97
827.527	231.08
827.704	140.97
827.882	147.11
828.059	179.88
828.237	143.02
828.414	235.18
828.591	85.67
828.769	216.74
828.946	104.11
829.124	120.49
829.301	175.78
829.478	179.88
829.655	132.78
829.833	161.45
830.01	145.06
830.187	140.97
830.364	196.26
830.542	108.2
830.719	208.55
830.896	136.87
831.073	110.25
831.25	124.58
831.427	149.16
831.604	177.83
831.782	138.92
831.959	157.35
832.136	87.72
832.313	149.16
832.49	87.72
832.667	177.83
832.844	95.91
833.021	216.74
833.198	85.67
833.374	173.74
833.551	89.77
833.728	61.1
833.905	102.06
834.082	120.49
834.259	93.87
834.436	202.41
834.612	54.95
834.789	200.36
834.966	97.96
835.143	65.19
835.319	83.63
835.496	120.49
835.673	161.45
835.85	126.63
836.026	155.3
836.203	190.12
836.38	173.74
836.556	67.24
836.733	36.52
836.909	241.32
837.086	59.05
837.262	57
837.439	93.87
837.616	61.1
837.792	179.88
837.968	122.54
838.145	59.05
838.321	100.01
838.498	91.82
838.674	69.29
838.851	128.68
839.027	120.49
839.203	83.63
839.38	97.96
839.556	155.3
839.732	175.78
839.909	79.53
840.085	159.4
840.261	106.15
840.437	67.24
840.614	149.16
840.79	126.63
840.966	75.43
841.142	65.19
841.318	149.16
841.494	40.62
841.671	122.54
841.847	59.05
842.023	50.86
842.199	134.82
842.375	120.49
842.551	-10.58
842.727	-2.39
842.903	157.35
843.079	93.87
843.255	134.82
843.431	34.47
843.607	44.71
843.783	28.33
843.959	112.3
844.134	30.38
844.31	112.3
844.486	79.53
844.662	83.63
844.838	85.67
845.013	81.58
845.189	147.11
845.365	114.34
845.541	65.19
845.716	24.23
845.892	149.16
846.068	67.24
846.244	77.48
846.419	83.63
846.595	46.76
846.77	71.34
846.946	59.05
847.122	11.95
847.297	34.47
847.473	132.78
847.648	16.04
847.824	67.24
847.999	11.95
848.175	42.67
848.35	54.95
848.526	143.02
848.701	108.2
848.876	52.91
849.052	79.53
849.227	69.29
849.403	-8.53
849.578	-6.49
849.753	116.39
849.929	122.54
850.104	61.1
850.279	48.81
850.454	34.47
850.63	132.78
850.805	73.39
850.98	134.82
851.155	36.52
851.33	75.43
851.505	-6.49
851.681	83.63
851.856	50.86
852.031	97.96
852.206	48.81
852.381	46.76
852.556	52.91
852.731	-14.68
852.906	93.87
853.081	42.67
853.256	1.71
853.431	-0.34
853.606	22.19
853.781	38.57
853.956	-12.63
854.131	30.38
854.305	-45.4
854.48	102.06
854.655	11.95
854.83	13.99
855.005	89.77
855.18	102.06
855.354	13.99
855.529	48.81
855.704	-12.63
855.879	26.28
856.053	46.76
856.228	57
856.403	-16.73
856.577	73.39
856.752	-41.3
856.926	136.87
857.101	52.91
857.276	16.04
857.45	-24.92
857.625	83.63
857.799	18.09
857.974	-2.39
858.148	16.04
858.323	61.1
858.497	63.15
858.672	-14.68
858.846	20.14
859.02	89.77
859.195	-12.63
859.369	-39.25
859.543	-31.06
859.718	44.71
859.892	28.33
860.066	67.24
860.241	-65.88
860.415	20.14
860.589	7.85
860.763	20.14
860.938	50.86
861.112	102.06
861.286	-20.82
861.46	36.52
861.634	38.57
861.808	69.29
861.982	-35.16
862.157	-33.11
862.331	42.67
862.505	-49.49
862.679	-35.16
862.853	30.38
863.027	-4.44
863.201	91.82
863.375	-24.92
863.549	5.8
863.722	97.96
863.896	54.95
864.07	16.04
864.244	20.14
864.418	67.24
864.592	79.53
864.766	-59.73
864.939	5.8
865.113	-6.49
865.287	100.01
865.461	-18.77
865.634	46.76
865.808	20.14
865.982	48.81
866.156	-67.92
866.329	-22.87
866.503	32.43
866.676	75.43
866.85	9.9
867.024	-29.01
867.197	-6.49
867.371	112.3
867.544	50.86
867.718	9.9
867.891	71.34
868.065	-69.97
868.238	36.52
868.412	59.05
868.585	63.15
868.759	-0.34
868.932	65.19
869.105	32.43
869.279	65.19
869.452	1.71
869.625	-8.53
869.799	36.52
869.972	-47.44
870.145	24.23
870.319	-0.34
870.492	-67.92
870.665	-12.63
870.838	13.99
871.011	-45.4
871.185	-53.59
871.358	9.9
871.531	50.86
871.704	-4.44
871.877	75.43
872.05	95.91
872.223	-63.83
872.396	-0.34
872.569	-0.34
872.742	-14.68
872.915	93.87
873.088	-6.49
873.261	-24.92
873.434	63.15
873.607	-6.49
873.78	46.76
873.953	28.33
874.126	20.14
874.299	9.9
874.471	-24.92
874.644	106.15
874.817	104.11
874.99	30.38
875.163	1.71
875.335	-39.25
875.508	-16.73
875.681	-2.39
875.853	24.23
876.026	5.8
876.199	87.72
876.371	28.33
876.544	34.47
876.717	-31.06
876.889	-31.06
877.062	-0.34
877.234	-24.92
877.407	-33.11
877.579	9.9
877.752	57
877.924	59.05
878.097	28.33
878.269	-26.96
878.442	18.09
878.614	46.76
878.786	-24.92
878.959	20.14
879.131	-18.77
879.303	-18.77
879.476	69.29
879.648	52.91
879.82	18.09
879.993	13.99
880.165	-31.06
880.337	-35.16
880.509	-53.59
880.681	-63.83
880.854	-16.73
881.026	18.09
881.198	83.63
881.37	-4.44
881.542	-10.58
881.714	5.8
881.886	1.71
882.058	-49.49
882.23	13.99
882.402	18.09
882.574	-47.44
882.746	30.38
882.918	42.67
883.09	20.14
883.262	28.33
883.434	-41.3
883.606	-43.35
883.778	44.71
883.95	46.76
884.122	-45.4
884.293	38.57
884.465	38.57
884.637	63.15
884.809	-29.01
884.98	-4.44
885.152	-10.58
885.324	-24.92
885.496	-8.53
885.667	-6.49
885.839	-18.77
886.011	57
886.182	73.39
886.354	85.67
886.525	50.86
886.697	18.09
886.869	-39.25
887.04	-22.87
887.212	22.19
887.383	30.38
887.555	-78.16
887.726	-29.01
887.897	-37.2
888.069	-84.31
888.24	-2.39
888.412	9.9
888.583	34.47
888.754	-14.68
888.926	-53.59
889.097	-10.58
889.268	-14.68
889.44	24.23
889.611	-2.39
889.782	34.47
889.953	-49.49
890.125	52.91
890.296	-41.3
890.467	-6.49
890.638	-29.01
890.809	65.19
890.98	-26.96
891.151	26.28
891.323	34.47
891.494	26.28
891.665	-14.68
891.836	-55.64
892.007	-2.39
892.178	-20.82
892.349	-6.49
892.52	44.71
892.691	18.09
892.862	3.75
893.032	-43.35
893.203	-20.82
893.374	71.34
893.545	57
893.716	-90.45
893.887	24.23
894.057	28.33
894.228	-8.53
894.399	26.28
894.57	89.77
894.74	1.71
894.911	30.38
895.082	-26.96
895.253	-65.88
895.423	-43.35
895.594	40.62
895.764	54.95
895.935	-39.25
896.106	22.19
896.276	26.28
896.447	1.71
896.617	-53.59
896.788	-104.79
896.958	-65.88
897.129	-45.4
897.299	-10.58
897.47	34.47
897.64	30.38
897.81	26.28
897.981	16.04
898.151	-39.25
898.322	-37.2
898.492	20.14
898.662	28.33
898.832	-39.25
899.003	-31.06
899.173	-45.4
899.343	26.28
899.513	-78.16
