Data from USB4F104151__75__12-12-47-892.txt Node

Date: Fri Mar 14 12:12:47 EDT 2025
User: louis
Spectrometer: USB4F10415
Trigger mode: 4
Integration Time (sec): 5.000000E-2
Scans to average: 1
Electric dark correction enabled: true
Nonlinearity correction enabled: false
Boxcar width: 0
XAxis mode: Wavelengths
Number of Pixels in Spectrum: 3648
>>>>>Begin Spectral Data<<<<<
178.204	-194.05
178.424	-194.05
178.644	-194.05
178.864	-220.67
179.084	-181.76
179.304	8.7
179.524	12.8
179.744	6.66
179.964	14.85
180.184	29.18
180.404	18.94
180.624	-46.59
180.844	-34.3
181.064	-71.17
181.283	47.62
181.503	-48.64
181.723	61.95
181.943	-42.5
182.163	88.57
182.383	-40.45
182.602	88.57
182.822	80.38
183.042	39.42
183.262	66.05
183.482	57.86
183.701	-7.68
183.921	51.71
184.141	2.56
184.361	64
184.58	12.8
184.8	-5.63
185.02	18.94
185.239	29.18
185.459	100.86
185.679	78.33
185.898	29.18
186.118	111.1
186.338	14.85
186.557	25.09
186.777	27.14
186.997	2.56
187.216	74.24
187.436	123.39
187.655	92.67
187.875	35.33
188.095	45.57
188.314	49.66
188.534	49.66
188.753	45.57
188.973	72.19
189.192	131.58
189.412	45.57
189.631	18.94
189.851	109.05
190.07	182.78
190.29	-34.3
190.509	51.71
190.729	-38.4
190.948	131.58
191.168	238.08
191.387	31.23
191.607	-77.31
191.826	107.01
192.045	10.75
192.265	64
192.484	-26.11
192.704	-26.11
192.923	64
193.142	150.01
193.362	53.76
193.581	111.1
193.8	45.57
194.02	68.09
194.239	78.33
194.458	23.04
194.678	82.43
194.897	27.14
195.116	64
195.335	64
195.555	-34.3
195.774	-11.78
195.993	53.76
196.212	86.53
196.432	-50.69
196.651	45.57
196.87	6.66
197.089	59.9
197.308	-3.58
197.528	74.24
197.747	-34.3
197.966	8.7
198.185	47.62
198.404	-15.87
198.623	14.85
198.842	64
199.062	90.62
199.281	57.86
199.5	25.09
199.719	55.81
199.938	12.8
200.157	84.48
200.376	47.62
200.595	64
200.814	70.14
201.033	-5.63
201.252	84.48
201.471	94.72
201.69	104.96
201.909	127.49
202.128	-30.21
202.347	123.39
202.566	4.61
202.785	29.18
203.004	-50.69
203.223	152.06
203.442	111.1
203.661	-19.97
203.879	39.42
204.098	127.49
204.317	-15.87
204.536	27.14
204.755	43.52
204.974	31.23
205.193	49.66
205.411	135.68
205.63	92.67
205.849	2.56
206.068	68.09
206.287	41.47
206.505	90.62
206.724	20.99
206.943	4.61
207.162	47.62
207.381	18.94
207.599	-1.54
207.818	10.75
208.037	-56.83
208.255	33.28
208.474	41.47
208.693	57.86
208.911	10.75
209.13	4.61
209.349	70.14
209.567	47.62
209.786	96.77
210.005	82.43
210.223	10.75
210.442	14.85
210.661	0.51
210.879	88.57
211.098	-22.02
211.316	-50.69
211.535	115.2
211.753	20.99
211.972	88.57
212.191	43.52
212.409	76.29
212.628	33.28
212.846	20.99
213.065	68.09
213.283	137.73
213.502	6.66
213.72	55.81
213.938	49.66
214.157	-9.73
214.375	10.75
214.594	10.75
214.812	49.66
215.031	82.43
215.249	29.18
215.467	-17.92
215.686	59.9
215.904	47.62
216.122	-40.45
216.341	35.33
216.559	84.48
216.778	41.47
216.996	88.57
217.214	-11.78
217.432	35.33
217.651	4.61
217.869	23.04
218.087	16.9
218.306	53.76
218.524	37.38
218.742	29.18
218.96	115.2
219.179	100.86
219.397	68.09
219.615	102.91
219.833	61.95
220.051	-34.3
220.27	61.95
220.488	33.28
220.706	145.92
220.924	41.47
221.142	-24.06
221.36	31.23
221.578	104.96
221.796	-1.54
222.015	-93.69
222.233	8.7
222.451	90.62
222.669	20.99
222.887	92.67
223.105	41.47
223.323	-15.87
223.541	-62.98
223.759	84.48
223.977	31.23
224.195	107.01
224.413	53.76
224.631	82.43
224.849	143.87
225.067	158.21
225.285	8.7
225.503	-9.73
225.721	-7.68
225.939	-5.63
226.157	18.94
226.375	184.83
226.592	20.99
226.81	29.18
227.028	104.96
227.246	72.19
227.464	39.42
227.682	125.44
227.9	90.62
228.117	64
228.335	-34.3
228.553	23.04
228.771	8.7
228.989	68.09
229.206	-30.21
229.424	-34.3
229.642	27.14
229.86	-3.58
230.077	76.29
230.295	94.72
230.513	51.71
230.731	31.23
230.948	33.28
231.166	41.47
231.384	2.56
231.601	49.66
231.819	-3.58
232.037	39.42
232.254	29.18
232.472	104.96
232.689	-85.5
232.907	104.96
233.125	109.05
233.342	-73.21
233.56	-13.82
233.777	-7.68
233.995	-13.82
234.213	25.09
234.43	66.05
234.648	20.99
234.865	31.23
235.083	88.57
235.3	4.61
235.518	45.57
235.735	55.81
235.953	41.47
236.17	47.62
236.388	23.04
236.605	53.76
236.822	66.05
237.04	59.9
237.257	76.29
237.475	29.18
237.692	53.76
237.909	45.57
238.127	18.94
238.344	-15.87
238.562	51.71
238.779	27.14
238.996	14.85
239.214	20.99
239.431	70.14
239.648	-50.69
239.865	10.75
240.083	107.01
240.3	96.77
240.517	4.61
240.735	20.99
240.952	162.3
241.169	64
241.386	70.14
241.603	70.14
241.821	-9.73
242.038	66.05
242.255	82.43
242.472	37.38
242.689	74.24
242.907	90.62
243.124	80.38
243.341	20.99
243.558	-52.74
243.775	-17.92
243.992	-28.16
244.209	125.44
244.426	100.86
244.643	86.53
244.86	4.61
245.078	78.33
245.295	35.33
245.512	29.18
245.729	-26.11
245.946	0.51
246.163	76.29
246.38	51.71
246.597	74.24
246.814	-5.63
247.031	25.09
247.248	25.09
247.464	59.9
247.681	-36.35
247.898	41.47
248.115	53.76
248.332	-7.68
248.549	96.77
248.766	164.35
248.983	64
249.2	45.57
249.417	43.52
249.633	92.67
249.85	104.96
250.067	49.66
250.284	74.24
250.501	12.8
250.717	78.33
250.934	16.9
251.151	18.94
251.368	98.81
251.585	37.38
251.801	10.75
252.018	-17.92
252.235	16.9
252.451	31.23
252.668	33.28
252.885	117.25
253.102	84.48
253.318	-9.73
253.535	-19.97
253.752	4.61
253.968	37.38
254.185	-44.54
254.401	43.52
254.618	78.33
254.835	37.38
255.051	135.68
255.268	-44.54
255.484	90.62
255.701	-3.58
255.917	90.62
256.134	14.85
256.351	51.71
256.567	-13.82
256.784	70.14
257	-52.74
257.217	29.18
257.433	43.52
257.65	147.97
257.866	59.9
258.082	-114.17
258.299	74.24
258.515	49.66
258.732	16.9
258.948	-13.82
259.165	23.04
259.381	2.56
259.597	49.66
259.814	27.14
260.03	-24.06
260.246	51.71
260.463	80.38
260.679	104.96
260.895	55.81
261.112	16.9
261.328	37.38
261.544	-7.68
261.761	102.91
261.977	25.09
262.193	-36.35
262.409	78.33
262.626	59.9
262.842	-30.21
263.058	-26.11
263.274	72.19
263.49	20.99
263.707	64
263.923	55.81
264.139	-1.54
264.355	86.53
264.571	104.96
264.787	61.95
265.004	16.9
265.22	33.28
265.436	43.52
265.652	31.23
265.868	53.76
266.084	0.51
266.3	64
266.516	57.86
266.732	100.86
266.948	29.18
267.164	-5.63
267.38	27.14
267.596	6.66
267.812	117.25
268.028	20.99
268.244	-3.58
268.46	-22.02
268.676	-38.4
268.892	25.09
269.108	-24.06
269.324	16.9
269.54	-28.16
269.756	72.19
269.972	16.9
270.188	57.86
270.403	-7.68
270.619	80.38
270.835	41.47
271.051	61.95
271.267	-65.02
271.483	53.76
271.698	27.14
271.914	100.86
272.13	16.9
272.346	45.57
272.562	25.09
272.777	45.57
272.993	31.23
273.209	53.76
273.425	115.2
273.64	-34.3
273.856	25.09
274.072	6.66
274.287	16.9
274.503	82.43
274.719	27.14
274.934	59.9
275.15	-50.69
275.366	47.62
275.581	12.8
275.797	68.09
276.012	18.94
276.228	70.14
276.444	78.33
276.659	160.25
276.875	-19.97
277.09	43.52
277.306	37.38
277.521	84.48
277.737	23.04
277.952	45.57
278.168	18.94
278.383	92.67
278.599	23.04
278.814	29.18
279.03	45.57
279.245	82.43
279.461	20.99
279.676	8.7
279.892	25.09
280.107	-26.11
280.322	35.33
280.538	80.38
280.753	43.52
280.969	18.94
281.184	39.42
281.399	111.1
281.615	14.85
281.83	29.18
282.045	20.99
282.26	59.9
282.476	55.81
282.691	43.52
282.906	43.52
283.122	31.23
283.337	-3.58
283.552	109.05
283.767	94.72
283.983	88.57
284.198	31.23
284.413	53.76
284.628	-13.82
284.843	-28.16
285.058	0.51
285.274	61.95
285.489	20.99
285.704	113.15
285.919	-17.92
286.134	-24.06
286.349	53.76
286.564	-62.98
286.779	119.29
286.995	25.09
287.21	-87.55
287.425	29.18
287.64	6.66
287.855	23.04
288.07	47.62
288.285	49.66
288.5	72.19
288.715	102.91
288.93	-1.54
289.145	18.94
289.36	80.38
289.575	8.7
289.79	31.23
290.004	33.28
290.219	74.24
290.434	12.8
290.649	-30.21
290.864	111.1
291.079	-24.06
291.294	51.71
291.509	35.33
291.724	10.75
291.938	27.14
292.153	37.38
292.368	4.61
292.583	41.47
292.798	-48.64
293.012	18.94
293.227	23.04
293.442	4.61
293.657	66.05
293.871	55.81
294.086	8.7
294.301	64
294.516	25.09
294.73	-5.63
294.945	0.51
295.16	10.75
295.374	35.33
295.589	123.39
295.804	25.09
296.018	29.18
296.233	96.77
296.447	4.61
296.662	20.99
296.877	31.23
297.091	104.96
297.306	-36.35
297.52	74.24
297.735	49.66
297.949	57.86
298.164	16.9
298.378	-24.06
298.593	10.75
298.807	72.19
299.022	68.09
299.236	68.09
299.451	-30.21
299.665	-58.88
299.88	41.47
300.094	31.23
300.309	-19.97
300.523	10.75
300.737	10.75
300.952	31.23
301.166	90.62
301.381	74.24
301.595	-26.11
301.809	-1.54
302.024	-13.82
302.238	-15.87
302.452	88.57
302.667	33.28
302.881	123.39
303.095	61.95
303.309	43.52
303.524	29.18
303.738	35.33
303.952	125.44
304.166	72.19
304.381	-32.26
304.595	135.68
304.809	-28.16
305.023	-32.26
305.237	47.62
305.452	64
305.666	43.52
305.88	104.96
306.094	51.71
306.308	37.38
306.522	61.95
306.736	4.61
306.95	131.58
307.164	25.09
307.379	31.23
307.593	39.42
307.807	66.05
308.021	4.61
308.235	61.95
308.449	18.94
308.663	-11.78
308.877	111.1
309.091	-13.82
309.305	64
309.519	-54.78
309.733	147.97
309.947	-50.69
310.161	59.9
310.374	49.66
310.588	96.77
310.802	20.99
311.016	31.23
311.23	-13.82
311.444	20.99
311.658	49.66
311.872	84.48
312.085	61.95
312.299	141.82
312.513	160.25
312.727	64
312.941	-54.78
313.154	98.81
313.368	-5.63
313.582	104.96
313.796	20.99
314.009	31.23
314.223	76.29
314.437	125.44
314.651	121.34
314.864	78.33
315.078	23.04
315.292	-60.93
315.505	-19.97
315.719	84.48
315.933	64
316.146	55.81
316.36	14.85
316.573	35.33
316.787	-3.58
317.001	90.62
317.214	6.66
317.428	53.76
317.641	-54.78
317.855	76.29
318.068	47.62
318.282	80.38
318.495	137.73
318.709	43.52
318.922	0.51
319.136	86.53
319.349	-3.58
319.563	6.66
319.776	57.86
319.99	41.47
320.203	55.81
320.417	20.99
320.63	86.53
320.843	39.42
321.057	61.95
321.27	133.63
321.483	39.42
321.697	135.68
321.91	-15.87
322.124	10.75
322.337	90.62
322.55	31.23
322.763	88.57
322.977	-17.92
323.19	-60.93
323.403	53.76
323.617	49.66
323.83	98.81
324.043	39.42
324.256	100.86
324.469	-9.73
324.683	70.14
324.896	23.04
325.109	4.61
325.322	8.7
325.535	8.7
325.748	133.63
325.962	-42.5
326.175	35.33
326.388	82.43
326.601	64
326.814	27.14
327.027	33.28
327.24	39.42
327.453	-13.82
327.666	51.71
327.879	20.99
328.092	96.77
328.305	29.18
328.518	-34.3
328.731	-46.59
328.944	23.04
329.157	20.99
329.37	14.85
329.583	92.67
329.796	115.2
330.009	-17.92
330.222	16.9
330.435	49.66
330.648	14.85
330.861	-5.63
331.073	-73.21
331.286	64
331.499	37.38
331.712	-32.26
331.925	33.28
332.138	72.19
332.35	29.18
332.563	-1.54
332.776	94.72
332.989	-5.63
333.202	23.04
333.414	121.34
333.627	45.57
333.84	35.33
334.053	-11.78
334.265	18.94
334.478	20.99
334.691	74.24
334.903	100.86
335.116	82.43
335.329	47.62
335.541	18.94
335.754	51.71
335.966	12.8
336.179	78.33
336.392	47.62
336.604	-5.63
336.817	143.87
337.029	49.66
337.242	82.43
337.454	61.95
337.667	-34.3
337.88	102.91
338.092	64
338.305	64
338.517	-22.02
338.729	113.15
338.942	90.62
339.154	55.81
339.367	-5.63
339.579	-32.26
339.792	35.33
340.004	45.57
340.217	6.66
340.429	90.62
340.641	51.71
340.854	-11.78
341.066	43.52
341.278	78.33
341.491	102.91
341.703	45.57
341.915	-30.21
342.128	0.51
342.34	35.33
342.552	-56.83
342.764	-34.3
342.977	-13.82
343.189	18.94
343.401	47.62
343.613	-48.64
343.826	86.53
344.038	-50.69
344.25	35.33
344.462	51.71
344.674	29.18
344.886	59.9
345.099	100.86
345.311	12.8
345.523	37.38
345.735	12.8
345.947	31.23
346.159	25.09
346.371	55.81
346.583	12.8
346.795	143.87
347.007	4.61
347.219	88.57
347.431	25.09
347.643	94.72
347.855	-7.68
348.067	70.14
348.279	-24.06
348.491	12.8
348.703	55.81
348.915	-5.63
349.127	76.29
349.339	23.04
349.551	-5.63
349.763	66.05
349.975	51.71
350.187	109.05
350.399	94.72
350.61	51.71
350.822	-7.68
351.034	96.77
351.246	12.8
351.458	74.24
351.669	70.14
351.881	70.14
352.093	68.09
352.305	113.15
352.517	39.42
352.728	158.21
352.94	-7.68
353.152	41.47
353.363	-34.3
353.575	31.23
353.787	139.77
353.999	55.81
354.21	127.49
354.422	-42.5
354.633	29.18
354.845	57.86
355.057	37.38
355.268	33.28
355.48	29.18
355.692	25.09
355.903	86.53
356.115	-42.5
356.326	-3.58
356.538	31.23
356.749	49.66
356.961	20.99
357.172	43.52
357.384	8.7
357.595	172.54
357.807	-167.42
358.018	-60.93
358.23	53.76
358.441	125.44
358.653	76.29
358.864	43.52
359.075	51.71
359.287	6.66
359.498	59.9
359.709	-17.92
359.921	-13.82
360.132	80.38
360.344	4.61
360.555	90.62
360.766	29.18
360.977	-9.73
361.189	49.66
361.4	92.67
361.611	86.53
361.823	61.95
362.034	88.57
362.245	37.38
362.456	4.61
362.667	-67.07
362.879	23.04
363.09	84.48
363.301	-36.35
363.512	64
363.723	-3.58
363.935	37.38
364.146	92.67
364.357	6.66
364.568	51.71
364.779	-42.5
364.99	137.73
365.201	-26.11
365.412	113.15
365.623	27.14
365.834	-15.87
366.045	55.81
366.256	94.72
366.467	35.33
366.678	-3.58
366.889	123.39
367.1	0.51
367.311	78.33
367.522	47.62
367.733	12.8
367.944	86.53
368.155	-32.26
368.366	18.94
368.577	61.95
368.788	41.47
368.999	41.47
369.209	55.81
369.42	80.38
369.631	160.25
369.842	66.05
370.053	23.04
370.264	4.61
370.474	23.04
370.685	84.48
370.896	14.85
371.107	113.15
371.317	-28.16
371.528	0.51
371.739	74.24
371.95	78.33
372.16	-32.26
372.371	-24.06
372.582	8.7
372.792	-28.16
373.003	70.14
373.214	74.24
373.424	49.66
373.635	-54.78
373.846	84.48
374.056	96.77
374.267	25.09
374.477	39.42
374.688	74.24
374.898	68.09
375.109	10.75
375.319	84.48
375.53	96.77
375.74	14.85
375.951	37.38
376.161	102.91
376.372	141.82
376.582	-15.87
376.793	29.18
377.003	2.56
377.214	2.56
377.424	33.28
377.635	61.95
377.845	-56.83
378.055	80.38
378.266	-1.54
378.476	78.33
378.686	12.8
378.897	74.24
379.107	27.14
379.317	0.51
379.528	31.23
379.738	80.38
379.948	-11.78
380.158	86.53
380.369	51.71
380.579	45.57
380.789	0.51
380.999	35.33
381.21	86.53
381.42	107.01
381.63	49.66
381.84	14.85
382.05	100.86
382.261	88.57
382.471	74.24
382.681	55.81
382.891	96.77
383.101	80.38
383.311	-83.45
383.521	-34.3
383.731	80.38
383.941	94.72
384.151	31.23
384.361	-15.87
384.571	72.19
384.781	61.95
384.991	162.3
385.201	143.87
385.411	66.05
385.621	64
385.831	64
386.041	-1.54
386.251	-1.54
386.461	86.53
386.671	20.99
386.881	59.9
387.091	25.09
387.301	100.86
387.511	59.9
387.72	33.28
387.93	35.33
388.14	76.29
388.35	43.52
388.56	129.53
388.769	133.63
388.979	12.8
389.189	8.7
389.399	29.18
389.609	41.47
389.818	92.67
390.028	80.38
390.238	72.19
390.447	8.7
390.657	68.09
390.867	72.19
391.076	61.95
391.286	49.66
391.496	51.71
391.705	115.2
391.915	115.2
392.125	109.05
392.334	8.7
392.544	25.09
392.753	18.94
392.963	6.66
393.172	-17.92
393.382	-3.58
393.591	84.48
393.801	39.42
394.01	115.2
394.22	64
394.429	94.72
394.639	-24.06
394.848	78.33
395.058	72.19
395.267	51.71
395.477	55.81
395.686	74.24
395.895	98.81
396.105	190.97
396.314	6.66
396.524	94.72
396.733	14.85
396.942	129.53
397.152	121.34
397.361	145.92
397.57	53.76
397.78	66.05
397.989	115.2
398.198	113.15
398.407	-9.73
398.617	107.01
398.826	10.75
399.035	107.01
399.244	66.05
399.453	84.48
399.663	160.25
399.872	127.49
400.081	8.7
400.29	84.48
400.499	-26.11
400.708	123.39
400.917	84.48
401.127	10.75
401.336	86.53
401.545	195.07
401.754	49.66
401.963	102.91
402.172	57.86
402.381	43.52
402.59	125.44
402.799	84.48
403.008	96.77
403.217	115.2
403.426	90.62
403.635	27.14
403.844	111.1
404.053	57.86
404.262	104.96
404.471	215.55
404.68	129.53
404.888	88.57
405.097	94.72
405.306	80.38
405.515	139.77
405.724	152.06
405.933	98.81
406.142	139.77
406.35	188.93
406.559	80.38
406.768	90.62
406.977	160.25
407.185	90.62
407.394	90.62
407.603	90.62
407.812	180.73
408.02	184.83
408.229	90.62
408.438	217.6
408.646	127.49
408.855	117.25
409.064	184.83
409.272	145.92
409.481	193.02
409.69	131.58
409.898	137.73
410.107	227.84
410.315	258.56
410.524	219.64
410.733	238.08
410.941	268.8
411.15	238.08
411.358	240.12
411.567	297.47
411.775	225.79
411.984	236.03
412.192	313.85
412.401	246.27
412.609	311.8
412.818	344.57
413.026	295.42
413.234	303.61
413.443	322.04
413.651	242.17
413.86	348.67
414.068	365.05
414.276	459.26
414.485	342.52
414.693	434.68
414.901	436.73
415.11	397.82
415.318	406.01
415.526	453.11
415.734	410.11
415.943	410.11
416.151	479.74
416.359	518.65
416.567	561.66
416.776	487.93
416.984	528.89
417.192	582.14
417.4	569.85
417.608	631.29
417.817	612.85
418.025	639.48
418.233	629.24
418.441	676.34
418.649	711.16
418.857	776.69
419.065	799.22
419.273	731.64
419.481	715.25
419.689	829.94
419.897	821.75
420.105	782.84
420.313	860.66
420.521	987.63
420.729	1008.11
420.937	979.44
421.145	913.91
421.353	1075.7
421.561	1110.51
421.769	1139.18
421.977	1161.71
422.185	1229.29
422.393	1194.48
422.601	1292.78
422.809	1282.54
423.017	1280.49
423.224	1309.16
423.432	1356.27
423.64	1415.66
423.848	1493.48
424.056	1579.5
424.263	1614.31
424.471	1610.22
424.679	1622.5
424.887	1718.76
425.094	1823.2
425.302	1790.44
425.51	1780.2
425.718	1944.03
425.925	1894.88
426.133	2021.86
426.341	2191.84
426.548	2169.31
426.756	2185.69
426.964	2222.56
427.171	2335.2
427.379	2343.39
427.586	2423.26
427.794	2515.42
428.001	2626.01
428.209	2808.28
428.417	2599.38
428.624	2904.53
428.832	2949.59
429.039	2808.28
429.247	2836.95
429.454	3119.57
429.662	3340.75
429.869	3156.43
430.076	3471.82
430.284	3166.67
430.491	3369.42
430.699	3537.35
430.906	3516.87
431.114	3762.63
431.321	3895.75
431.528	3867.08
431.736	4125.12
431.943	4194.75
432.15	4147.65
432.358	4207.04
432.565	4436.41
432.772	4274.62
432.979	4768.18
433.187	4633.02
433.394	4735.42
433.601	5054.9
433.808	5058.99
434.016	5110.19
434.223	5394.86
434.43	5554.6
434.637	5552.56
434.844	5935.53
435.052	5992.87
435.259	5956.01
435.466	6005.16
435.673	5894.57
435.88	6216.1
436.087	6666.65
436.294	6496.67
436.501	6412.7
436.708	6496.67
436.915	6797.72
437.122	7231.89
437.329	7092.63
437.537	7203.22
437.743	7281.04
437.95	7238.03
438.157	7827.85
438.364	7774.6
438.571	7920.01
438.778	7885.19
438.985	8647.04
439.192	8331.65
439.399	8569.21
439.606	8563.07
439.813	8962.42
440.02	9513.33
440.227	9286
440.433	9189.75
440.64	9591.15
440.847	9537.9
441.054	9660.78
441.261	10434.91
441.467	10058.09
441.674	10383.71
441.881	10574.17
442.088	10748.25
442.294	10668.38
442.501	11034.97
442.708	11438.42
442.914	11483.47
443.121	11827.53
443.328	11637.07
443.534	12302.66
443.741	12280.13
443.948	11909.45
444.154	12861.76
444.361	12714.3
444.568	12822.84
444.774	12908.86
444.981	13021.5
445.187	13324.6
445.394	13895.98
445.6	13797.68
445.807	14915.87
446.013	14399.78
446.22	14807.33
446.426	15345.94
446.633	15603.99
446.839	16201.99
447.046	15479.06
447.252	16060.68
447.459	16267.53
447.665	16249.1
447.871	16791.81
448.078	17592.56
448.284	16640.26
448.491	17084.67
448.697	17744.11
448.903	18211.05
449.11	18247.91
449.316	17797.36
449.522	18309.35
449.728	18448.61
449.935	19026.14
450.141	18659.56
450.347	19173.6
450.553	18864.35
450.76	18983.13
450.966	19558.61
451.172	19337.43
451.378	19491.03
451.584	19427.54
451.791	20019.41
451.997	19839.19
452.203	20007.12
452.409	20162.76
452.615	20130
452.821	19343.58
453.027	19091.68
453.233	20084.94
453.44	19558.61
453.646	19638.48
453.852	19767.51
454.058	19906.77
454.264	19198.17
454.47	19622.1
454.676	19302.62
454.882	19806.42
455.088	18311.4
455.294	18276.59
455.5	18739.43
455.705	19198.17
455.911	18149.61
456.117	17891.57
456.323	17578.23
456.529	16752.9
456.735	17395.96
456.941	16681.22
457.147	16879.87
457.352	16347.4
457.558	16148.75
457.764	16009.48
457.97	15946
458.176	15368.47
458.381	15388.95
458.587	14518.56
458.793	14797.09
458.999	13844.78
459.204	14858.53
459.41	14539.04
459.616	13607.22
459.821	13611.31
460.027	13248.82
460.233	13134.14
460.438	12566.85
460.644	12519.74
460.85	12069.19
461.055	12081.48
461.261	11944.27
461.466	11125.08
461.672	10563.93
461.878	11303.25
462.083	10641.76
462.289	10389.86
462.494	10266.98
462.7	9783.66
462.905	9552.24
463.111	10006.89
463.316	10131.81
463.522	9773.42
463.727	9802.09
463.932	9716.08
464.138	9585.01
464.343	9625.97
464.549	9113.97
464.754	9617.77
464.959	9539.95
465.165	9636.2
465.37	9044.34
465.575	8917.37
465.781	9185.65
465.986	9412.98
466.191	8825.21
466.397	8782.2
466.602	8237.44
466.807	8634.75
467.012	8597.88
467.218	8466.81
467.423	8546.69
467.628	8489.34
467.833	8819.07
468.038	8573.31
468.244	8145.28
468.449	8569.21
468.654	8282.5
468.859	8286.59
469.064	8198.53
469.269	8059.27
469.474	8042.89
469.679	8022.41
469.885	8001.93
470.09	7903.62
470.295	7797.13
470.5	7674.25
470.705	7676.3
470.91	7444.88
471.115	7510.41
471.32	7602.57
471.525	7444.88
471.73	7489.93
471.935	7418.25
472.139	6928.79
472.344	7197.07
472.549	7158.16
472.754	7129.49
472.959	6947.22
473.164	6721.95
473.369	6719.9
473.574	7090.58
473.778	6721.95
473.983	6951.32
474.188	6760.86
474.393	6369.69
474.598	6545.82
474.802	6345.12
475.007	6377.89
475.212	6420.89
475.417	6087.08
475.621	6193.57
475.826	5980.58
476.031	6123.94
476.235	5865.89
476.44	5898.66
476.645	6060.45
476.849	5960.1
477.054	5726.63
477.259	5609.9
477.463	5892.52
477.668	5720.49
477.872	5622.19
478.077	5548.46
478.282	5351.85
478.486	5482.92
478.691	5349.81
478.895	5431.73
479.1	5327.28
479.304	5302.7
479.509	5110.19
479.713	5200.3
479.918	5177.78
480.122	5104.05
480.326	5044.66
480.531	4989.36
480.735	5110.19
480.94	4946.36
481.144	5208.5
481.348	4987.32
481.553	5120.43
481.757	4882.87
481.961	4948.4
482.166	5015.99
482.37	4860.34
482.574	4803
482.778	4759.99
482.983	4962.74
483.187	4862.39
483.391	4956.6
483.595	4780.47
483.8	4911.54
484.004	4755.9
484.208	4921.78
484.412	4886.97
484.616	5122.48
484.821	4905.4
485.025	4899.25
485.229	4889.01
485.433	4796.85
485.637	4977.08
485.841	4854.2
486.045	4866.49
486.249	5030.32
486.453	4848.05
486.657	4866.49
486.861	4841.91
487.065	4784.57
487.269	4884.92
487.473	4780.47
487.677	4794.81
487.881	5030.32
488.085	4813.24
488.289	4944.31
488.493	4663.74
488.697	4925.88
488.901	4821.43
489.105	4903.35
489.309	4831.67
489.512	4970.93
489.716	4999.6
489.92	4757.94
490.124	4893.11
490.328	4997.56
490.531	4987.32
490.735	4999.6
490.939	5079.47
491.143	4938.16
491.346	4966.84
491.55	5005.75
491.754	4876.73
491.958	5130.67
492.161	5001.65
492.365	4956.6
492.569	4792.76
492.772	5034.42
492.976	5257.65
493.18	5015.99
493.383	5177.78
493.587	5196.21
493.79	5278.13
493.994	5116.34
494.197	5329.33
494.401	5353.9
494.605	5274.03
494.808	5241.26
495.012	5288.37
495.215	5364.14
495.419	5480.88
495.622	5382.57
495.825	5546.41
496.029	5556.65
496.232	5751.21
496.436	5538.22
496.639	5800.36
496.843	5810.6
497.046	5773.74
497.249	5814.7
497.453	6031.78
497.656	6164.9
497.859	5982.63
498.063	6146.47
498.266	6193.57
498.469	6158.75
498.673	6189.47
498.876	6228.38
499.079	6295.97
499.282	6334.88
499.485	6689.18
499.689	6498.72
499.892	6668.7
500.095	6451.61
500.298	6853.02
500.501	6574.49
500.705	6896.02
500.908	6853.02
501.111	7006.61
501.314	7129.49
501.517	7268.75
501.72	7391.63
501.923	7225.75
502.126	7399.82
502.329	7793.03
502.532	7674.25
502.735	7537.04
502.938	7780.75
503.141	7745.93
503.344	7790.99
503.547	7811.46
503.75	7995.78
503.953	8214.91
504.156	8268.16
504.359	8309.12
504.562	8319.36
504.765	8257.92
504.968	8364.42
505.17	8589.69
505.373	8661.37
505.576	8741.24
505.779	8800.63
505.982	8982.9
506.185	9077.11
506.387	9077.11
506.59	9021.81
506.793	9415.02
506.996	9304.43
507.198	9724.27
507.401	9675.12
507.604	9812.33
507.807	9918.82
508.009	9841
508.212	9972.07
508.415	10041.7
508.617	10076.52
508.82	10328.42
509.022	10262.88
509.225	10285.41
509.428	10516.83
509.63	10537.31
509.833	10379.62
510.035	10858.84
510.238	10828.12
510.44	10877.27
510.643	11114.84
510.845	11223.38
511.048	11112.79
511.25	11516.24
511.453	11426.13
511.655	11743.56
511.858	11680.08
512.06	11585.87
512.262	11921.74
512.465	11823.44
512.667	12095.82
512.87	12097.86
513.072	12245.32
513.274	12298.56
513.477	12337.48
513.679	12648.77
513.881	12775.74
514.084	12652.86
514.286	12742.97
514.488	13044.02
514.69	13383.99
514.893	13211.96
515.095	13365.56
515.297	13504.82
515.499	13549.87
515.701	13560.11
515.904	13674.8
516.106	13721.9
516.308	14033.19
516.51	14020.91
516.712	13881.64
516.914	14371.11
517.116	14360.87
517.318	14395.68
517.52	14416.16
517.722	14493.99
517.925	14688.54
518.127	14536.99
518.329	15063.32
518.531	14883.1
518.733	15278.36
518.935	15429.91
519.136	15405.33
519.338	15163.67
519.54	15462.68
519.742	15694.1
519.944	15927.56
520.146	15755.54
520.348	15950.09
520.55	16089.35
520.752	16300.3
520.954	16371.97
521.155	16128.27
521.357	16398.6
521.559	16314.63
521.761	16595.2
521.963	16832.77
522.164	16625.92
522.366	16767.23
522.568	16998.65
522.77	16967.93
522.971	17338.62
523.173	17139.96
523.375	17225.98
523.576	17047.8
523.778	17299.7
523.98	17580.28
524.181	17576.18
524.383	17506.55
524.584	17785.07
524.786	17690.87
524.988	17649.91
525.189	17819.89
525.391	17791.22
525.592	17963.25
525.794	17959.15
525.995	18004.21
526.197	18006.25
526.398	18061.55
526.6	18268.39
526.801	18313.45
527.003	18383.08
527.204	18358.5
527.406	18239.72
527.607	18530.53
527.808	18594.02
528.01	18272.49
528.211	18671.84
528.412	18862.3
528.614	18725.09
528.815	18577.64
529.016	18882.78
529.218	18671.84
529.419	18729.19
529.62	18718.95
529.822	18723.04
530.023	18813.15
530.224	18831.58
530.425	18563.3
530.626	18768.1
530.828	18608.36
531.029	19235.03
531.23	18911.46
531.431	18684.13
531.632	18653.41
531.833	19097.82
532.035	18913.5
532.236	18925.79
532.437	18921.7
532.638	18725.09
532.839	18786.53
533.04	18819.3
533.241	19095.77
533.442	19163.36
533.643	19001.57
533.844	18960.61
534.045	19149.02
534.246	18716.9
534.447	19142.88
534.648	18919.65
534.849	19144.92
535.05	18989.28
535.251	18989.28
535.451	18854.11
535.652	18729.19
535.853	18821.34
536.054	18870.5
536.255	19011.81
536.456	18927.84
536.657	19079.39
536.857	18749.67
537.058	18854.11
537.259	19001.57
537.46	18880.74
537.66	18761.95
537.861	18911.46
538.062	18573.54
538.263	18725.09
538.463	18944.22
538.664	18886.88
538.865	18782.43
539.065	19220.7
539.266	18899.17
539.466	19032.29
539.667	18458.85
539.868	18673.89
540.068	19040.48
540.269	18882.78
540.469	18936.03
540.67	18790.63
540.87	18831.58
541.071	18657.51
541.271	18727.14
541.472	18575.59
541.672	18753.76
541.873	18944.22
542.073	18450.66
542.274	18882.78
542.474	18548.96
542.675	18487.53
542.875	18804.96
543.075	18759.91
543.276	18655.46
543.476	18991.33
543.676	18663.65
543.877	18837.73
544.077	18878.69
544.277	18718.95
544.478	18749.67
544.678	18776.29
544.878	18510.05
545.078	19011.81
545.279	18610.4
545.479	18634.98
545.679	18714.85
545.879	18667.75
546.079	18413.8
546.28	18823.39
546.48	18501.86
546.68	18415.85
546.88	18743.52
547.08	18370.79
547.28	18608.36
547.48	18284.78
547.68	18682.08
547.88	18532.58
548.081	18344.17
548.281	18358.5
548.481	18315.5
548.681	18598.12
548.881	18362.6
549.081	18743.52
549.28	18514.15
549.48	18753.76
549.68	18413.8
549.88	18641.12
550.08	18704.61
550.28	18381.03
550.48	18710.75
550.68	18526.44
550.88	18612.45
551.08	18295.02
551.279	18600.16
551.479	18432.23
551.679	18368.74
551.879	18368.74
552.079	18581.73
552.278	18395.37
552.478	18456.81
552.678	18321.64
552.878	18485.48
553.077	18196.71
553.277	18209
553.477	18559.2
553.676	18315.5
553.876	18610.4
554.076	18225.39
554.275	18264.3
554.475	18204.91
554.674	18637.03
554.874	18333.93
555.074	18139.37
555.273	18186.47
555.473	18292.97
555.672	18204.91
555.872	18120.94
556.071	18125.04
556.271	18370.79
556.47	18061.55
556.67	18069.74
556.869	18221.29
557.068	18641.12
557.268	18104.56
557.467	17998.06
557.667	18215.15
557.866	18168.04
558.065	18118.89
558.265	18034.92
558.464	17778.93
558.663	18374.89
558.863	18153.71
559.062	18215.15
559.261	18118.89
559.461	18426.09
559.66	17850.61
559.859	17899.76
560.058	17993.97
560.258	17987.82
560.457	17854.7
560.656	18245.87
560.855	17938.67
561.054	18061.55
561.253	17957.1
561.453	18077.93
561.652	17907.95
561.851	18020.59
562.05	17989.87
562.249	17948.91
562.448	18008.3
562.647	17811.7
562.846	17797.36
563.045	17756.4
563.244	17789.17
563.443	18174.19
563.642	17662.19
563.841	17840.37
564.04	17754.35
564.239	18131.18
564.438	17850.61
564.637	17805.55
564.836	18069.74
565.035	17473.78
565.234	17768.69
565.432	17459.45
565.631	17549.56
565.83	17828.08
566.029	17711.35
566.228	17645.81
566.427	17641.71
566.625	17498.36
566.824	17484.02
567.023	17594.61
567.222	17299.7
567.42	17701.11
567.619	17488.12
567.818	17787.12
568.016	17400.05
568.215	17561.84
568.414	17502.45
568.612	17627.38
568.811	17258.74
569.01	17580.28
569.208	17240.31
569.407	17578.23
569.605	17246.46
569.804	17547.51
570.002	17154.3
570.201	17324.28
570.4	17322.23
570.598	17113.34
570.797	16996.6
570.995	17105.15
571.193	17113.34
571.392	17484.02
571.59	17174.78
571.789	17066.24
571.987	17154.3
572.186	16982.27
572.384	17068.28
572.582	17099
572.781	17223.93
572.979	16683.27
573.177	17154.3
573.376	17025.28
573.574	17035.52
573.772	17135.87
573.971	16881.92
574.169	16965.89
574.367	16814.34
574.565	16900.35
574.763	16742.66
574.962	16879.87
575.16	16529.67
575.358	16881.92
575.556	16531.72
575.754	16859.39
575.952	16419.08
576.151	16791.81
576.349	16447.75
576.547	16304.39
576.745	16707.84
576.943	16550.15
577.141	16527.62
577.339	16734.46
577.537	16259.34
577.735	16339.21
577.933	16390.41
578.131	16380.17
578.329	16437.51
578.527	16226.57
578.725	16302.34
578.923	16417.03
579.121	16314.63
579.319	16054.54
579.516	16128.27
579.714	16107.79
579.912	15921.42
580.11	16189.7
580.308	16148.75
580.506	15898.89
580.704	15862.03
580.901	16046.35
581.099	16023.82
581.297	15855.89
581.495	16040.2
581.692	15972.62
581.89	15841.55
582.088	15921.42
582.285	15864.08
582.483	15702.29
582.681	15864.08
582.878	15823.12
583.076	15653.14
583.274	15653.14
583.471	15536.4
583.669	15784.21
583.866	15280.41
584.064	15583.51
584.262	15522.07
584.459	15741.2
584.657	15204.63
584.854	15427.86
585.052	14969.12
585.249	15313.17
585.447	15407.38
585.644	15188.25
585.841	15294.74
586.039	15431.96
586.236	15012.12
586.434	15165.72
586.631	15003.93
586.828	15233.3
587.026	15051.03
587.223	15094.04
587.42	15014.17
587.618	15124.76
587.815	14930.2
588.012	14848.29
588.21	14727.46
588.407	14881.05
588.604	14610.72
588.801	14649.63
588.999	14719.26
589.196	14620.96
589.393	14836
589.59	14471.46
589.787	14633.25
589.984	14534.95
590.182	14510.37
590.379	14813.47
590.576	14262.57
590.773	14442.79
590.97	14231.85
591.167	14291.24
591.364	14289.19
591.561	14567.71
591.758	14176.55
591.955	14246.18
592.152	14473.51
592.349	14270.76
592.546	14227.75
592.743	13967.66
592.94	14022.95
593.137	14293.29
593.334	14113.06
593.531	13955.37
593.727	13979.95
593.924	13969.71
594.121	13865.26
594.318	13908.27
594.515	13660.46
594.712	13842.73
594.908	13959.47
595.105	13750.57
595.302	13873.45
595.499	13889.84
595.696	13932.84
595.892	13627.7
596.089	13881.64
596.286	13586.74
596.482	13664.56
596.679	13453.62
596.876	13691.18
597.072	13467.95
597.269	13435.19
597.466	13351.22
597.662	13257.01
597.859	13496.63
598.055	13488.43
598.252	13218.1
598.448	13470
598.645	13402.42
598.841	13267.25
599.038	13420.85
599.234	13316.4
599.431	13082.94
599.627	13179.19
599.824	13238.58
600.02	12855.61
600.217	13248.82
600.413	12890.43
600.609	12988.73
600.806	12962.11
601.002	13103.42
601.198	12898.62
601.395	12630.34
601.591	12982.59
601.787	12949.82
601.984	12704.06
602.18	12648.77
602.376	12552.51
602.572	12527.94
602.769	12833.08
602.965	12511.55
603.161	12613.95
603.357	12575.04
603.553	12546.37
603.75	12372.29
603.946	12546.37
604.142	12484.93
604.338	12495.17
604.534	12474.69
604.73	12382.53
604.926	12368.2
605.122	12312.9
605.318	12351.81
605.514	12364.1
605.71	12085.58
605.906	12325.19
606.102	12202.31
606.298	12357.96
606.494	12286.28
606.69	12300.61
606.886	12312.9
607.082	12079.43
607.278	12364.1
607.474	11878.73
607.67	12298.56
607.866	11958.6
608.062	12257.6
608.257	11960.65
608.453	12136.77
608.649	12071.24
608.845	11952.46
609.041	11876.68
609.236	12116.3
609.432	12026.18
609.628	12030.28
609.824	12097.86
610.019	11825.48
610.215	12036.42
610.411	11768.14
610.606	11809.1
610.802	11759.95
610.998	11708.75
611.193	11796.81
611.389	11821.39
611.584	11839.82
611.78	11618.64
611.976	11735.37
612.171	11825.48
612.367	11716.94
612.562	11782.48
612.758	11696.46
612.953	11327.83
613.149	11389.27
613.344	11252.05
613.539	11882.83
613.735	11661.65
613.93	11678.03
614.126	11569.49
614.321	11776.33
614.517	11293.01
614.712	11555.15
614.907	11432.27
615.103	11624.78
615.298	11534.67
615.493	11575.63
615.688	11352.4
615.884	11530.58
616.079	11110.74
616.274	11393.36
616.47	11264.34
616.665	11229.52
616.86	11180.37
617.055	11194.71
617.25	11309.4
617.445	11245.91
617.641	11131.22
617.836	11073.88
618.031	11069.78
618.226	11319.64
618.421	11071.83
618.616	11387.22
618.811	10940.76
619.006	11299.16
619.201	10729.82
619.396	11063.64
619.591	10762.59
619.786	11264.34
619.981	10789.21
620.176	10951
620.371	10623.33
620.566	10701.15
620.761	10905.95
620.956	10686.81
621.151	10838.36
621.346	10735.96
621.541	10631.52
621.735	10631.52
621.93	10365.28
622.125	10402.15
622.32	10328.42
622.515	10422.62
622.709	10275.17
622.904	10180.96
623.099	10094.95
623.294	10244.45
623.488	10025.32
623.683	10205.54
623.878	9992.55
624.072	10062.18
624.267	10072.42
624.462	10023.27
624.656	9967.98
624.851	9875.82
625.046	9808.23
625.24	9666.92
625.435	9623.92
625.629	9738.6
625.824	9720.17
626.018	9699.69
626.213	9482.61
626.407	9611.63
626.602	9128.31
626.796	9435.5
626.991	9396.59
627.185	9374.06
627.38	9314.67
627.574	9095.54
627.768	9173.36
627.963	9054.58
628.157	8825.21
628.352	8917.37
628.546	8860.02
628.74	8735.1
628.935	8769.91
629.129	9091.45
629.323	8776.06
629.517	8749.43
629.712	8640.89
629.906	8673.66
630.1	8628.6
630.294	8649.08
630.489	8567.17
630.683	8614.27
630.877	8411.52
631.071	8421.76
631.265	8321.41
631.459	8372.61
631.653	8216.96
631.848	8448.38
632.042	8284.55
632.236	8356.22
632.43	8190.34
632.624	8284.55
632.818	7836.04
633.012	8046.98
633.206	8223.11
633.4	8096.13
633.594	7956.87
633.788	7997.83
633.982	7999.88
634.176	7899.53
634.369	7852.42
634.563	7750.03
634.757	7639.44
634.951	7780.75
635.145	7809.42
635.339	7684.49
635.533	7551.37
635.726	7793.03
635.92	7469.45
636.114	7561.61
636.308	7567.76
636.501	7571.85
636.695	7428.49
636.889	7168.4
637.083	7272.85
637.276	7199.12
637.47	7266.71
637.664	7096.72
637.857	7115.16
638.051	7258.51
638.244	7115.16
638.438	7025.04
638.632	7018.9
638.825	6994.33
639.019	6973.85
639.212	6797.72
639.406	6922.65
639.599	6863.26
639.793	6834.58
639.986	6758.81
640.18	6672.79
640.373	6732.19
640.567	6699.42
640.76	6599.07
640.954	6506.91
641.147	6504.86
641.34	6537.63
641.534	6603.16
641.727	6508.96
641.92	6468
642.114	6242.72
642.307	6334.88
642.5	6244.77
642.694	6255.01
642.887	6269.34
643.08	6287.78
643.273	6125.99
643.467	5992.87
643.66	6003.11
643.853	6021.54
644.046	5915.05
644.239	5984.68
644.432	6146.47
644.626	5896.61
644.819	5861.8
645.012	5902.76
645.205	5857.7
645.398	5847.46
645.591	5753.26
645.784	5730.73
645.977	5474.73
646.17	5599.66
646.363	5589.42
646.556	5450.16
646.749	5575.08
646.942	5527.98
647.135	5525.93
647.328	5564.84
647.521	5484.97
647.714	5269.94
647.907	5353.9
648.099	5310.89
648.292	5341.61
648.485	5257.65
648.678	5269.94
648.871	5155.25
649.064	5274.03
649.256	5171.63
649.449	5159.35
649.642	5102
649.835	5038.52
650.027	5087.67
650.22	5249.46
650.413	4983.22
650.605	5044.66
650.798	4907.45
650.991	4831.67
651.183	4989.36
651.376	4866.49
651.568	4913.59
651.761	4811.19
651.954	4762.04
652.146	4643.26
652.339	4852.15
652.531	4663.74
652.724	4665.78
652.916	4667.83
653.109	4473.28
653.301	4803
653.494	4755.9
653.686	4542.91
653.879	4614.59
654.071	4596.15
654.263	4563.39
654.456	4667.83
654.648	4497.85
654.84	4532.67
655.033	4440.51
655.225	4450.75
655.417	4254.14
655.61	4450.75
655.802	4368.83
655.994	4340.16
656.186	4342.21
656.379	4274.62
656.571	4293.05
656.763	4215.23
656.955	4299.2
657.148	4270.53
657.34	4172.22
657.532	4239.81
657.724	4204.99
657.916	4288.96
658.108	4116.93
658.3	4121.03
658.492	4026.82
658.684	3981.76
658.876	4059.59
659.068	4063.68
659.26	3992
659.452	3965.38
659.644	3979.72
659.836	3826.12
660.028	3910.08
660.22	3822.02
660.412	3889.6
660.604	3762.63
660.796	3893.7
660.988	3793.35
661.18	3797.45
661.372	3750.34
661.563	3949
661.755	3709.38
661.947	3684.81
662.139	3609.03
662.331	3672.52
662.522	3772.87
662.714	3602.89
662.906	3475.91
663.097	3520.97
663.289	3568.07
663.481	3559.88
663.673	3473.87
663.864	3350.99
664.056	3563.98
664.247	3502.54
664.439	3416.52
664.631	3426.76
664.822	3584.46
665.014	3377.61
665.205	3414.48
665.397	3480.01
665.588	3336.65
665.78	3336.65
665.971	3492.3
666.163	3357.13
666.354	3387.85
666.546	3203.54
666.737	3213.77
666.929	3314.13
667.12	3322.32
667.311	3242.45
667.503	3187.15
667.694	3230.16
667.885	3248.59
668.077	3279.31
668.268	3078.61
668.459	3156.43
668.651	3158.48
668.842	3140.05
669.033	3076.56
669.224	3000.79
669.416	3262.93
669.607	2990.55
669.798	3043.79
669.989	3185.1
670.18	3080.66
670.371	3015.12
670.563	3138
670.754	3170.77
670.945	2986.45
671.136	2849.24
671.327	2961.87
671.518	3131.86
671.709	2908.63
671.9	3047.89
672.091	3064.27
672.282	3076.56
672.473	2906.58
672.664	3011.03
672.855	2867.67
673.046	2988.5
673.237	2906.58
673.428	2830.8
673.619	2951.63
673.809	2781.65
674	2949.59
674.191	2970.07
674.382	2847.19
674.573	2902.48
674.764	2898.39
674.954	3058.13
675.145	2865.62
675.336	2845.14
675.527	2814.42
675.717	2728.41
675.908	2884.05
676.099	2820.56
676.289	2761.17
676.48	2750.93
676.671	2750.93
676.861	2865.62
677.052	2709.97
677.243	2675.16
677.433	2804.18
677.624	2791.89
677.814	2818.52
678.005	2808.28
678.195	2769.37
678.386	2697.69
678.576	2732.5
678.767	2730.45
678.957	2834.9
679.148	2783.7
679.338	2896.34
679.529	2771.41
679.719	2613.72
679.909	2673.11
680.1	2740.69
680.29	2626.01
680.481	2634.2
680.671	2783.7
680.861	2701.78
681.052	2732.5
681.242	2716.12
681.432	2662.87
681.622	2818.52
681.813	2718.17
682.003	2691.54
682.193	2677.21
682.383	2781.65
682.573	2716.12
682.764	2705.88
682.954	2759.13
683.144	2795.99
683.334	2628.06
683.524	2644.44
683.714	2673.11
683.904	2652.63
684.094	2519.51
684.284	2675.16
684.474	2687.45
684.664	2697.69
684.854	2652.63
685.044	2595.29
685.234	2603.48
685.424	2705.88
685.614	2652.63
685.804	2619.86
685.994	2677.21
686.184	2527.71
686.374	2707.93
686.564	2650.58
686.753	2644.44
686.943	2499.03
687.133	2632.15
687.323	2511.32
687.513	2556.38
687.702	2533.85
687.892	2494.94
688.082	2572.76
688.272	2640.34
688.461	2447.83
688.651	2619.86
688.841	2507.23
689.03	2456.03
689.22	2464.22
689.41	2519.51
689.599	2470.36
689.789	2517.47
689.979	2552.28
690.168	2466.27
690.358	2404.83
690.547	2380.25
690.737	2580.95
690.926	2320.86
691.116	2363.87
691.305	2361.82
691.495	2419.16
691.684	2312.67
691.874	2365.92
692.063	2384.35
692.252	2466.27
692.442	2351.58
692.631	2306.52
692.82	2265.57
693.01	2347.48
693.199	2361.82
693.388	2324.96
693.578	2308.57
693.767	2308.57
693.956	2249.18
694.146	2226.65
694.335	2257.37
694.524	2257.37
694.713	2281.95
694.902	2365.92
695.092	2367.96
695.281	2396.64
695.47	2322.91
695.659	2265.57
695.848	2376.16
696.037	2329.05
696.226	2406.88
696.415	2226.65
696.604	2380.25
696.793	2361.82
696.982	2243.04
697.171	2458.07
697.36	2284
697.549	2413.02
697.738	2374.11
697.927	2351.58
698.116	2333.15
698.305	2468.31
698.494	2294.24
698.683	2320.86
698.872	2494.94
699.061	2374.11
699.25	2335.2
699.438	2324.96
699.627	2449.88
699.816	2423.26
700.005	2413.02
700.193	2372.06
700.382	2527.71
700.571	2439.64
700.76	2482.65
700.948	2470.36
701.137	2568.66
701.326	2392.54
701.514	2429.4
701.703	2599.38
701.892	2576.86
702.08	2546.14
702.269	2486.75
702.457	2453.98
702.646	2435.55
702.834	2496.99
703.023	2501.08
703.212	2474.46
703.4	2445.79
703.589	2474.46
703.777	2402.78
703.965	2503.13
704.154	2433.5
704.342	2349.53
704.531	2470.36
704.719	2478.55
704.907	2519.51
705.096	2468.31
705.284	2513.37
705.472	2443.74
705.661	2578.9
705.849	2527.71
706.037	2595.29
706.226	2611.67
706.414	2486.75
706.602	2413.02
706.79	2662.87
706.979	2550.23
707.167	2593.24
707.355	2404.83
707.543	2539.99
707.731	2562.52
707.919	2683.35
708.107	2591.19
708.296	2564.57
708.484	2554.33
708.672	2535.9
708.86	2515.42
709.048	2605.53
709.236	2523.61
709.424	2755.03
709.612	2544.09
709.8	2546.14
709.988	2515.42
710.176	2546.14
710.364	2677.21
710.551	2615.77
710.739	2636.25
710.927	2603.48
711.115	2619.86
711.303	2619.86
711.491	2646.49
711.679	2476.51
711.866	2585.05
712.054	2683.35
712.242	2574.81
712.43	2689.49
712.617	2709.97
712.805	2650.58
712.993	2689.49
713.181	2580.95
713.368	2712.02
713.556	2687.45
713.744	2603.48
713.931	2773.46
714.119	2687.45
714.306	2623.96
714.494	2585.05
714.682	2552.28
714.869	2544.09
715.057	2634.2
715.244	2593.24
715.432	2585.05
715.619	2585.05
715.807	2636.25
715.994	2603.48
716.182	2687.45
716.369	2642.39
716.556	2742.74
716.744	2634.2
716.931	2693.59
717.119	2718.17
717.306	2695.64
717.493	2658.78
717.681	2750.93
717.868	2689.49
718.055	2781.65
718.242	2644.44
718.43	2771.41
718.617	2785.75
718.804	2626.01
718.991	2812.37
719.179	2630.1
719.366	2664.92
719.553	2763.22
719.74	2669.02
719.927	2779.61
720.114	2593.24
720.301	2695.64
720.488	2757.08
720.676	2652.63
720.863	2755.03
721.05	2857.43
721.237	2712.02
721.424	2617.82
721.611	2648.54
721.798	2679.26
721.985	2703.83
722.172	2652.63
722.358	2705.88
722.545	2750.93
722.732	2638.3
722.919	2736.6
723.106	2675.16
723.293	2677.21
723.48	2699.73
723.667	2644.44
723.853	2605.53
724.04	2687.45
724.227	2587.1
724.414	2656.73
724.6	2669.02
724.787	2660.82
724.974	2666.97
725.161	2771.41
725.347	2585.05
725.534	2716.12
725.72	2726.36
725.907	2724.31
726.094	2722.26
726.28	2693.59
726.467	2568.66
726.653	2619.86
726.84	2720.21
727.027	2697.69
727.213	2587.1
727.4	2722.26
727.586	2603.48
727.773	2669.02
727.959	2628.06
728.145	2734.55
728.332	2736.6
728.518	2597.34
728.705	2759.13
728.891	2609.62
729.077	2662.87
729.264	2630.1
729.45	2673.11
729.636	2789.85
729.823	2654.68
730.009	2828.76
730.195	2558.42
730.382	2640.34
730.568	2535.9
730.754	2529.75
730.94	2521.56
731.126	2679.26
731.313	2697.69
731.499	2644.44
731.685	2660.82
731.871	2572.76
732.057	2509.27
732.243	2763.22
732.429	2607.58
732.615	2556.38
732.801	2650.58
732.987	2554.33
733.173	2576.86
733.359	2664.92
733.545	2597.34
733.731	2529.75
733.917	2580.95
734.103	2623.96
734.289	2644.44
734.475	2568.66
734.661	2525.66
734.847	2554.33
735.033	2562.52
735.219	2576.86
735.404	2601.43
735.59	2513.37
735.776	2482.65
735.962	2488.79
736.148	2570.71
736.333	2593.24
736.519	2521.56
736.705	2626.01
736.89	2494.94
737.076	2552.28
737.262	2474.46
737.447	2429.4
737.633	2570.71
737.819	2441.69
738.004	2531.8
738.19	2392.54
738.375	2507.23
738.561	2517.47
738.747	2441.69
738.932	2267.61
739.118	2451.93
739.303	2441.69
739.489	2370.01
739.674	2304.48
739.859	2347.48
740.045	2492.89
740.23	2365.92
740.416	2343.39
740.601	2355.68
740.786	2327
740.972	2351.58
741.157	2355.68
741.342	2316.76
741.528	2271.71
741.713	2361.82
741.898	2396.64
742.084	2263.52
742.269	2312.67
742.454	2304.48
742.639	2374.11
742.824	2404.83
743.01	2357.72
743.195	2318.81
743.38	2140.64
743.565	2314.72
743.75	2238.94
743.935	2177.5
744.12	2367.96
744.305	2177.5
744.49	2093.54
744.675	2163.17
744.86	2173.41
745.045	2152.93
745.23	2109.92
745.415	2105.82
745.6	2232.8
745.785	2124.26
745.97	2118.11
746.155	2068.96
746.34	2091.49
746.525	2083.3
746.71	2161.12
746.895	2054.62
747.079	1952.23
747.264	1997.28
747.449	2028
747.634	2034.14
747.819	2085.34
748.003	2083.3
748.188	1835.49
748.373	1876.45
748.557	2028
748.742	1970.66
748.927	1956.32
749.111	1866.21
749.296	1894.88
749.481	1905.12
749.665	1905.12
749.85	1880.55
750.034	1960.42
750.219	1798.63
750.404	1792.48
750.588	1827.3
750.773	1622.5
750.957	1767.91
751.141	1860.07
751.326	1669.61
751.51	1737.19
751.695	1780.2
751.879	1690.09
752.064	1778.15
752.248	1681.89
752.432	1890.79
752.617	1692.13
752.801	1743.33
752.985	1853.92
753.17	1729
753.354	1659.37
753.538	1630.7
753.722	1475.05
753.907	1669.61
754.091	1552.87
754.275	1599.98
754.459	1477.1
754.643	1587.69
754.828	1468.91
755.012	1599.98
755.196	1548.78
755.38	1626.6
755.564	1434.09
755.748	1491.43
755.932	1583.59
756.116	1559.02
756.3	1462.76
756.484	1427.95
756.668	1528.3
756.852	1305.07
757.036	1475.05
757.22	1380.84
757.404	1331.69
757.588	1303.02
757.772	1468.91
757.956	1374.7
758.14	1401.32
758.323	1315.31
758.507	1380.84
758.691	1389.03
758.875	1419.75
759.059	1389.03
759.242	1276.4
759.426	1260.01
759.61	1339.88
759.794	1272.3
759.977	1327.6
760.161	1315.31
760.345	1397.23
760.528	1298.92
760.712	1235.44
760.895	1208.81
761.079	1262.06
761.263	1219.05
761.446	1178.09
761.63	1180.14
761.813	1192.43
761.997	1163.76
762.18	1229.29
762.364	1270.25
762.547	1147.37
762.731	1133.04
762.914	1178.09
763.098	1188.33
763.281	1264.11
763.464	1120.75
763.648	1128.94
763.831	1139.18
764.015	1016.3
764.198	1202.67
764.381	1071.6
764.564	1190.38
764.748	1227.25
764.931	1202.67
765.114	1069.55
765.297	1167.85
765.481	1001.97
765.664	1147.37
765.847	1034.74
766.03	1165.81
766.213	1042.93
766.397	1016.3
766.58	946.67
766.763	1047.02
766.946	1071.6
767.129	1143.28
767.312	1051.12
767.495	1069.55
767.678	1053.17
767.861	1155.57
768.044	1079.79
768.227	977.39
768.41	1079.79
768.593	1077.74
768.776	1108.46
768.959	940.53
769.142	1073.65
769.324	1006.06
769.507	1014.26
769.69	893.43
769.873	942.58
770.056	1071.6
770.239	940.53
770.421	1106.42
770.604	905.71
770.787	954.87
770.97	995.82
771.152	920.05
771.335	1001.97
771.518	948.72
771.7	872.95
771.883	1042.93
772.066	897.52
772.248	975.35
772.431	944.63
772.613	969.2
772.796	969.2
772.978	850.42
773.161	817.65
773.343	889.33
773.526	784.88
773.708	825.84
773.891	774.64
774.073	750.07
774.256	877.04
774.438	924.15
774.621	772.6
774.803	883.19
774.985	840.18
775.168	844.28
775.35	815.6
775.532	891.38
775.715	725.49
775.897	778.74
776.079	772.6
776.261	879.09
776.444	834.04
776.626	686.58
776.808	705.01
776.99	809.46
777.173	696.82
777.355	727.54
777.537	750.07
777.719	688.63
777.901	737.78
778.083	756.21
778.265	711.16
778.447	754.16
778.629	702.97
778.811	678.39
778.993	715.25
779.175	752.12
779.357	664.05
779.539	600.57
779.721	705.01
779.903	645.62
780.085	606.71
780.267	723.44
780.449	600.57
780.631	702.97
780.812	735.73
780.994	610.81
781.176	643.57
781.358	651.77
781.54	625.14
781.721	610.81
781.903	684.53
782.085	717.3
782.267	637.43
782.448	584.18
782.63	596.47
782.812	555.51
782.993	729.59
783.175	606.71
783.357	600.57
783.538	537.08
783.72	580.09
783.901	582.14
784.083	664.05
784.264	606.71
784.446	614.9
784.627	446.97
784.809	590.33
784.99	465.4
785.172	524.79
785.353	584.18
785.535	485.88
785.716	459.26
785.897	500.22
786.079	514.55
786.26	477.69
786.441	487.93
786.623	532.98
786.804	512.5
786.985	565.75
787.167	426.49
787.348	467.45
787.529	434.68
787.71	504.31
787.891	541.18
788.073	428.54
788.254	455.16
788.435	442.87
788.616	471.54
788.797	487.93
788.978	410.11
789.159	299.52
789.34	426.49
789.522	432.63
789.703	385.53
789.884	403.96
790.065	416.25
790.246	535.03
790.427	395.77
790.607	510.46
790.788	473.59
790.969	379.39
791.15	537.08
791.331	363
791.512	393.72
791.693	303.61
791.874	410.11
792.054	514.55
792.235	475.64
792.416	305.66
792.597	311.8
792.778	440.83
792.958	350.71
793.139	455.16
793.32	356.86
793.5	352.76
793.681	436.73
793.862	354.81
794.042	354.81
794.223	291.32
794.404	344.57
794.584	299.52
794.765	324.09
794.945	324.09
795.126	393.72
795.306	438.78
795.487	291.32
795.667	279.04
795.848	352.76
796.028	320
796.209	336.38
796.389	369.15
796.57	291.32
796.75	215.55
796.93	320
797.111	305.66
797.291	346.62
797.471	322.04
797.652	307.71
797.832	295.42
798.012	342.52
798.192	297.47
798.373	268.8
798.553	354.81
798.733	391.67
798.913	211.45
799.093	320
799.274	324.09
799.454	244.22
799.634	299.52
799.814	236.03
799.994	301.56
800.174	317.95
800.354	291.32
800.534	223.74
800.714	209.4
800.894	276.99
801.074	303.61
801.254	264.7
801.434	264.7
801.614	162.3
801.794	201.21
801.974	1235.44
802.154	256.51
802.334	270.84
802.514	264.7
802.693	188.93
802.873	225.79
803.053	350.71
803.233	207.36
803.413	248.32
803.592	307.71
803.772	190.97
803.952	322.04
804.131	205.31
804.311	303.61
804.491	236.03
804.67	158.21
804.85	201.21
805.03	193.02
805.209	287.23
805.389	195.07
805.568	281.08
805.748	178.69
805.928	178.69
806.107	236.03
806.287	240.12
806.466	229.88
806.646	221.69
806.825	195.07
807.004	221.69
807.184	229.88
807.363	270.84
807.543	195.07
807.722	166.4
807.901	258.56
808.081	260.6
808.26	43.52
808.439	178.69
808.619	268.8
808.798	240.12
808.977	197.12
809.156	164.35
809.336	250.36
809.515	289.28
809.694	248.32
809.873	201.21
810.052	213.5
810.231	250.36
810.411	186.88
810.59	207.36
810.769	250.36
810.948	221.69
811.127	109.05
811.306	186.88
811.485	215.55
811.664	254.46
811.843	182.78
812.022	139.77
812.201	156.16
812.38	240.12
812.559	111.1
812.737	223.74
812.916	117.25
813.095	82.43
813.274	162.3
813.453	184.83
813.632	203.26
813.811	193.02
813.989	178.69
814.168	141.82
814.347	131.58
814.526	145.92
814.704	246.27
814.883	182.78
815.062	74.24
815.24	229.88
815.419	219.64
815.598	223.74
815.776	92.67
815.955	207.36
816.133	86.53
816.312	168.45
816.49	141.82
816.669	197.12
816.847	162.3
817.026	240.12
817.204	119.29
817.383	96.77
817.561	129.53
817.74	219.64
817.918	197.12
818.097	143.87
818.275	47.62
818.453	209.4
818.632	143.87
818.81	94.72
818.988	117.25
819.167	139.77
819.345	145.92
819.523	90.62
819.701	117.25
819.879	92.67
820.058	102.91
820.236	109.05
820.414	72.19
820.592	186.88
820.77	131.58
820.948	147.97
821.127	109.05
821.305	182.78
821.483	82.43
821.661	176.64
821.839	160.25
822.017	184.83
822.195	152.06
822.373	178.69
822.551	90.62
822.729	100.86
822.907	160.25
823.085	203.26
823.262	55.81
823.44	72.19
823.618	113.15
823.796	113.15
823.974	119.29
824.152	139.77
824.329	31.23
824.507	209.4
824.685	131.58
824.863	90.62
825.04	129.53
825.218	135.68
825.396	47.62
825.574	92.67
825.751	162.3
825.929	70.14
826.107	88.57
826.284	100.86
826.462	152.06
826.639	117.25
826.817	33.28
826.994	51.71
827.172	68.09
827.349	166.4
827.527	88.57
827.704	131.58
827.882	133.63
828.059	135.68
828.237	68.09
828.414	197.12
828.591	37.38
828.769	102.91
828.946	72.19
829.124	180.73
829.301	90.62
829.478	104.96
829.655	86.53
829.833	127.49
830.01	76.29
830.187	111.1
830.364	152.06
830.542	113.15
830.719	49.66
830.896	88.57
831.073	25.09
831.25	53.76
831.427	168.45
831.604	80.38
831.782	55.81
831.959	143.87
832.136	158.21
832.313	88.57
832.49	94.72
832.667	123.39
832.844	57.86
833.021	129.53
833.198	139.77
833.374	88.57
833.551	102.91
833.728	152.06
833.905	150.01
834.082	16.9
834.259	90.62
834.436	160.25
834.612	92.67
834.789	139.77
834.966	90.62
835.143	86.53
835.319	53.76
835.496	47.62
835.673	156.16
835.85	129.53
836.026	150.01
836.203	78.33
836.38	129.53
836.556	107.01
836.733	45.57
836.909	100.86
837.086	64
837.262	-38.4
837.439	86.53
837.616	70.14
837.792	123.39
837.968	84.48
838.145	37.38
838.321	51.71
838.498	45.57
838.674	88.57
838.851	72.19
839.027	125.44
839.203	88.57
839.38	123.39
839.556	72.19
839.732	25.09
839.909	35.33
840.085	98.81
840.261	57.86
840.437	49.66
840.614	96.77
840.79	158.21
840.966	47.62
841.142	125.44
841.318	-52.74
841.494	137.73
841.671	111.1
841.847	23.04
842.023	10.75
842.199	82.43
842.375	107.01
842.551	37.38
842.727	102.91
842.903	86.53
843.079	98.81
843.255	76.29
843.431	8.7
843.607	84.48
843.783	-77.31
843.959	41.47
844.134	29.18
844.31	57.86
844.486	111.1
844.662	29.18
844.838	68.09
845.013	59.9
845.189	113.15
845.365	-17.92
845.541	76.29
845.716	51.71
845.892	107.01
846.068	53.76
846.244	53.76
846.419	174.59
846.595	-26.11
846.77	10.75
846.946	111.1
847.122	84.48
847.297	31.23
847.473	96.77
847.648	-48.64
847.824	53.76
847.999	-3.58
848.175	109.05
848.35	102.91
848.526	94.72
848.701	139.77
848.876	90.62
849.052	29.18
849.227	72.19
849.403	98.81
849.578	45.57
849.753	29.18
849.929	29.18
850.104	-3.58
850.279	18.94
850.454	53.76
850.63	102.91
850.805	-13.82
850.98	66.05
851.155	80.38
851.33	35.33
851.505	14.85
851.681	133.63
851.856	20.99
852.031	84.48
852.206	33.28
852.381	14.85
852.556	10.75
852.731	10.75
852.906	12.8
853.081	-26.11
853.256	137.73
853.431	-32.26
853.606	78.33
853.781	-40.45
853.956	-44.54
854.131	109.05
854.305	27.14
854.48	-11.78
854.655	-28.16
854.83	10.75
855.005	10.75
855.18	43.52
855.354	76.29
855.529	2.56
855.704	23.04
855.879	20.99
856.053	23.04
856.228	-1.54
856.403	-44.54
856.577	78.33
856.752	-28.16
856.926	86.53
857.101	66.05
857.276	-19.97
857.45	33.28
857.625	64
857.799	18.94
857.974	-1.54
858.148	-50.69
858.323	64
858.497	-17.92
858.672	-34.3
858.846	49.66
859.02	135.68
859.195	-30.21
859.369	57.86
859.543	33.28
859.718	-28.16
859.892	-28.16
860.066	45.57
860.241	-3.58
860.415	37.38
860.589	20.99
860.763	-3.58
860.938	-42.5
861.112	80.38
861.286	14.85
861.46	57.86
861.634	59.9
861.808	121.34
861.982	14.85
862.157	39.42
862.331	70.14
862.505	29.18
862.679	-38.4
862.853	-19.97
863.027	-30.21
863.201	74.24
863.375	6.66
863.549	70.14
863.722	-11.78
863.896	20.99
864.07	-54.78
864.244	12.8
864.418	14.85
864.592	4.61
864.766	-7.68
864.939	55.81
865.113	68.09
865.287	109.05
865.461	-75.26
865.634	31.23
865.808	6.66
865.982	16.9
866.156	-13.82
866.329	-26.11
866.503	104.96
866.676	12.8
866.85	14.85
867.024	47.62
867.197	74.24
867.371	18.94
867.544	2.56
867.718	29.18
867.891	51.71
868.065	49.66
868.238	78.33
868.412	59.9
868.585	10.75
868.759	-19.97
868.932	25.09
869.105	-79.36
869.279	-15.87
869.452	-118.27
869.625	6.66
869.799	47.62
869.972	-17.92
870.145	80.38
870.319	10.75
870.492	35.33
870.665	-7.68
870.838	-52.74
871.011	-130.56
871.185	12.8
871.358	-34.3
871.531	66.05
871.704	-30.21
871.877	-32.26
872.05	-13.82
872.223	-87.55
872.396	53.76
872.569	20.99
872.742	-28.16
872.915	47.62
873.088	-30.21
873.261	37.38
873.434	88.57
873.607	49.66
873.78	129.53
873.953	-73.21
874.126	14.85
874.299	51.71
874.471	47.62
874.644	39.42
874.817	80.38
874.99	29.18
875.163	10.75
875.335	72.19
875.508	-22.02
875.681	147.97
875.853	-26.11
876.026	55.81
876.199	29.18
876.371	59.9
876.544	-15.87
876.717	27.14
876.889	6.66
877.062	8.7
877.234	-28.16
877.407	49.66
877.579	49.66
877.752	68.09
877.924	145.92
878.097	45.57
878.269	31.23
878.442	25.09
878.614	64
878.786	-13.82
878.959	-11.78
879.131	49.66
879.303	-110.08
879.476	57.86
879.648	33.28
879.82	-30.21
879.993	41.47
880.165	-13.82
880.337	43.52
880.509	-17.92
880.681	12.8
880.854	4.61
881.026	59.9
881.198	47.62
881.37	8.7
881.542	29.18
881.714	-36.35
881.886	-1.54
882.058	-38.4
882.23	35.33
882.402	8.7
882.574	0.51
882.746	88.57
882.918	70.14
883.09	2.56
883.262	14.85
883.434	-11.78
883.606	-7.68
883.778	39.42
883.95	98.81
884.122	-67.07
884.293	80.38
884.465	-5.63
884.637	78.33
884.809	-40.45
884.98	-9.73
885.152	37.38
885.324	61.95
885.496	-108.03
885.667	-17.92
885.839	8.7
886.011	78.33
886.182	14.85
886.354	72.19
886.525	35.33
886.697	-44.54
886.869	-79.36
887.04	4.61
887.212	66.05
887.383	72.19
887.555	76.29
887.726	31.23
887.897	-138.75
888.069	-3.58
888.24	94.72
888.412	43.52
888.583	-11.78
888.754	14.85
888.926	-3.58
889.097	-110.08
889.268	-7.68
889.44	-22.02
889.611	-28.16
889.782	-9.73
889.953	-120.32
890.125	57.86
890.296	8.7
890.467	-13.82
890.638	57.86
890.809	-15.87
890.98	-3.58
891.151	70.14
891.323	92.67
891.494	59.9
891.665	20.99
891.836	43.52
892.007	-5.63
892.178	-3.58
892.349	10.75
892.52	55.81
892.691	76.29
892.862	-1.54
893.032	-40.45
893.203	-7.68
893.374	72.19
893.545	6.66
893.716	23.04
893.887	107.01
894.057	29.18
894.228	61.95
894.399	-75.26
894.57	45.57
894.74	49.66
894.911	29.18
895.082	37.38
895.253	-26.11
895.423	43.52
895.594	-11.78
895.764	33.28
895.935	-17.92
896.106	31.23
896.276	-36.35
896.447	-1.54
896.617	20.99
896.788	4.61
896.958	14.85
897.129	-50.69
897.299	6.66
897.47	64
897.64	88.57
897.81	-22.02
897.981	10.75
898.151	-52.74
898.322	53.76
898.492	25.09
898.662	6.66
898.832	-5.63
899.003	-9.73
899.173	84.48
899.343	20.99
899.513	18.94
