Data from USB4F104151__7__12-11-16-113.txt Node

Date: Fri Mar 14 12:11:16 EDT 2025
User: louis
Spectrometer: USB4F10415
Trigger mode: 4
Integration Time (sec): 5.000000E-2
Scans to average: 1
Electric dark correction enabled: true
Nonlinearity correction enabled: false
Boxcar width: 0
XAxis mode: Wavelengths
Number of Pixels in Spectrum: 3648
>>>>>Begin Spectral Data<<<<<
178.204	-265.72
178.424	-265.72
178.644	-265.72
178.864	-267.77
179.084	-249.34
179.304	2.56
179.524	10.75
179.744	-5.63
179.964	72.19
180.184	-46.59
180.404	59.9
180.624	-42.5
180.844	53.76
181.064	-134.65
181.283	43.52
181.503	-32.26
181.723	18.94
181.943	-75.26
182.163	70.14
182.383	39.42
182.602	64
182.822	74.24
183.042	-17.92
183.262	-34.3
183.482	12.8
183.701	70.14
183.921	2.56
184.141	-32.26
184.361	59.9
184.58	10.75
184.8	29.18
185.02	12.8
185.239	64
185.459	-17.92
185.679	84.48
185.898	-9.73
186.118	76.29
186.338	2.56
186.557	88.57
186.777	-36.35
186.997	12.8
187.216	-7.68
187.436	88.57
187.655	53.76
187.875	137.73
188.095	33.28
188.314	74.24
188.534	66.05
188.753	14.85
188.973	-26.11
189.192	84.48
189.412	66.05
189.631	31.23
189.851	-1.54
190.07	51.71
190.29	-7.68
190.509	-17.92
190.729	-5.63
190.948	12.8
191.168	180.73
191.387	88.57
191.607	45.57
191.826	49.66
192.045	0.51
192.265	49.66
192.484	64
192.704	-67.07
192.923	4.61
193.142	119.29
193.362	45.57
193.581	111.1
193.8	78.33
194.02	53.76
194.239	0.51
194.458	-5.63
194.678	27.14
194.897	0.51
195.116	-11.78
195.335	31.23
195.555	43.52
195.774	-44.54
195.993	2.56
196.212	41.47
196.432	-32.26
196.651	-36.35
196.87	-85.5
197.089	123.39
197.308	29.18
197.528	37.38
197.747	-1.54
197.966	12.8
198.185	125.44
198.404	-62.98
198.623	4.61
198.842	37.38
199.062	-9.73
199.281	88.57
199.5	59.9
199.719	47.62
199.938	94.72
200.157	2.56
200.376	25.09
200.595	-17.92
200.814	43.52
201.033	-15.87
201.252	64
201.471	-32.26
201.69	164.35
201.909	-13.82
202.128	18.94
202.347	23.04
202.566	70.14
202.785	41.47
203.004	-42.5
203.223	121.34
203.442	64
203.661	29.18
203.879	-54.78
204.098	55.81
204.317	-30.21
204.536	107.01
204.755	-22.02
204.974	20.99
205.193	23.04
205.411	51.71
205.63	6.66
205.849	57.86
206.068	45.57
206.287	2.56
206.505	47.62
206.724	-38.4
206.943	39.42
207.162	-34.3
207.381	-24.06
207.599	8.7
207.818	23.04
208.037	-9.73
208.255	-22.02
208.474	47.62
208.693	27.14
208.911	-87.55
209.13	20.99
209.349	-1.54
209.567	74.24
209.786	25.09
210.005	27.14
210.223	-38.4
210.442	-52.74
210.661	4.61
210.879	-7.68
211.098	29.18
211.316	27.14
211.535	51.71
211.753	14.85
211.972	49.66
212.191	-17.92
212.409	59.9
212.628	76.29
212.846	-32.26
213.065	31.23
213.283	31.23
213.502	8.7
213.72	14.85
213.938	74.24
214.157	-95.74
214.375	33.28
214.594	84.48
214.812	-7.68
215.031	27.14
215.249	29.18
215.467	33.28
215.686	64
215.904	86.53
216.122	-1.54
216.341	66.05
216.559	-30.21
216.778	100.86
216.996	86.53
217.214	23.04
217.432	-15.87
217.651	20.99
217.869	27.14
218.087	-11.78
218.306	-60.93
218.524	14.85
218.742	16.9
218.96	72.19
219.179	6.66
219.397	-7.68
219.615	121.34
219.833	104.96
220.051	-40.45
220.27	74.24
220.488	10.75
220.706	-9.73
220.924	-28.16
221.142	-50.69
221.36	-52.74
221.578	10.75
221.796	43.52
222.015	41.47
222.233	41.47
222.451	27.14
222.669	-1.54
222.887	-9.73
223.105	-79.36
223.323	-81.41
223.541	-19.97
223.759	53.76
223.977	14.85
224.195	47.62
224.413	66.05
224.631	53.76
224.849	4.61
225.067	150.01
225.285	-1.54
225.503	-19.97
225.721	-69.12
225.939	27.14
226.157	16.9
226.375	188.93
226.592	-42.5
226.81	-19.97
227.028	10.75
227.246	72.19
227.464	-28.16
227.682	131.58
227.9	61.95
228.117	29.18
228.335	61.95
228.553	8.7
228.771	72.19
228.989	20.99
229.206	47.62
229.424	-56.83
229.642	4.61
229.86	-34.3
230.077	96.77
230.295	70.14
230.513	80.38
230.731	70.14
230.948	78.33
231.166	76.29
231.384	49.66
231.601	-42.5
231.819	100.86
232.037	53.76
232.254	-30.21
232.472	18.94
232.689	23.04
232.907	51.71
233.125	43.52
233.342	-50.69
233.56	-30.21
233.777	-46.59
233.995	88.57
234.213	94.72
234.43	-48.64
234.648	-38.4
234.865	-46.59
235.083	8.7
235.3	8.7
235.518	66.05
235.735	76.29
235.953	78.33
236.17	18.94
236.388	16.9
236.605	37.38
236.822	150.01
237.04	41.47
237.257	51.71
237.475	-1.54
237.692	37.38
237.909	41.47
238.127	-81.41
238.344	-7.68
238.562	-44.54
238.779	-11.78
238.996	-69.12
239.214	-30.21
239.431	55.81
239.648	-5.63
239.865	6.66
240.083	68.09
240.3	-3.58
240.517	-15.87
240.735	-19.97
240.952	14.85
241.169	47.62
241.386	6.66
241.603	10.75
241.821	-13.82
242.038	51.71
242.255	25.09
242.472	-40.45
242.689	55.81
242.907	92.67
243.124	18.94
243.341	-75.26
243.558	25.09
243.775	-11.78
243.992	-60.93
244.209	53.76
244.426	104.96
244.643	25.09
244.86	-26.11
245.078	29.18
245.295	53.76
245.512	-36.35
245.729	-7.68
245.946	33.28
246.163	104.96
246.38	-11.78
246.597	31.23
246.814	35.33
247.031	6.66
247.248	127.49
247.464	-36.35
247.681	74.24
247.898	68.09
248.115	-19.97
248.332	-7.68
248.549	43.52
248.766	139.77
248.983	23.04
249.2	14.85
249.417	117.25
249.633	12.8
249.85	84.48
250.067	-56.83
250.284	4.61
250.501	61.95
250.717	76.29
250.934	-75.26
251.151	-9.73
251.368	72.19
251.585	31.23
251.801	4.61
252.018	-50.69
252.235	92.67
252.451	-7.68
252.668	55.81
252.885	37.38
253.102	12.8
253.318	-40.45
253.535	-48.64
253.752	10.75
253.968	-46.59
254.185	-28.16
254.401	-24.06
254.618	39.42
254.835	-46.59
255.051	25.09
255.268	-30.21
255.484	45.57
255.701	18.94
255.917	29.18
256.134	-48.64
256.351	25.09
256.567	4.61
256.784	-34.3
257	-79.36
257.217	16.9
257.433	100.86
257.65	88.57
257.866	88.57
258.082	18.94
258.299	-11.78
258.515	-50.69
258.732	-83.45
258.948	-56.83
259.165	-19.97
259.381	-40.45
259.597	88.57
259.814	4.61
260.03	-38.4
260.246	-60.93
260.463	84.48
260.679	31.23
260.895	-1.54
261.112	6.66
261.328	-32.26
261.544	-5.63
261.761	104.96
261.977	39.42
262.193	-3.58
262.409	70.14
262.626	53.76
262.842	-108.03
263.058	25.09
263.274	55.81
263.49	29.18
263.707	51.71
263.923	2.56
264.139	-28.16
264.355	-1.54
264.571	117.25
264.787	55.81
265.004	51.71
265.22	10.75
265.436	29.18
265.652	-5.63
265.868	20.99
266.084	-9.73
266.3	27.14
266.516	20.99
266.732	51.71
266.948	64
267.164	100.86
267.38	90.62
267.596	55.81
267.812	109.05
268.028	113.15
268.244	-15.87
268.46	-3.58
268.676	27.14
268.892	76.29
269.108	-58.88
269.324	10.75
269.54	-71.17
269.756	35.33
269.972	-38.4
270.188	35.33
270.403	-34.3
270.619	-24.06
270.835	61.95
271.051	2.56
271.267	25.09
271.483	-42.5
271.698	51.71
271.914	68.09
272.13	41.47
272.346	-60.93
272.562	-26.11
272.777	51.71
272.993	-13.82
273.209	-17.92
273.425	23.04
273.64	-11.78
273.856	33.28
274.072	61.95
274.287	29.18
274.503	-38.4
274.719	121.34
274.934	43.52
275.15	12.8
275.366	94.72
275.581	-9.73
275.797	-13.82
276.012	33.28
276.228	-1.54
276.444	23.04
276.659	66.05
276.875	-48.64
277.09	-7.68
277.306	-3.58
277.521	72.19
277.737	-67.07
277.952	82.43
278.168	-58.88
278.383	39.42
278.599	35.33
278.814	53.76
279.03	0.51
279.245	12.8
279.461	59.9
279.676	45.57
279.892	-54.78
280.107	-7.68
280.322	-97.79
280.538	12.8
280.753	16.9
280.969	20.99
281.184	-50.69
281.399	57.86
281.615	-69.12
281.83	-5.63
282.045	-22.02
282.26	10.75
282.476	-7.68
282.691	70.14
282.906	27.14
283.122	0.51
283.337	23.04
283.552	23.04
283.767	-56.83
283.983	6.66
284.198	2.56
284.413	86.53
284.628	-50.69
284.843	-32.26
285.058	35.33
285.274	59.9
285.489	2.56
285.704	43.52
285.919	-3.58
286.134	6.66
286.349	25.09
286.564	59.9
286.779	29.18
286.995	10.75
287.21	-65.02
287.425	70.14
287.64	-52.74
287.855	43.52
288.07	-101.89
288.285	-15.87
288.5	18.94
288.715	111.1
288.93	37.38
289.145	-3.58
289.36	-5.63
289.575	-44.54
289.79	72.19
290.004	16.9
290.219	37.38
290.434	18.94
290.649	18.94
290.864	-40.45
291.079	-1.54
291.294	-13.82
291.509	33.28
291.724	0.51
291.938	31.23
292.153	57.86
292.368	23.04
292.583	86.53
292.798	115.2
293.012	66.05
293.227	111.1
293.442	70.14
293.657	4.61
293.871	51.71
294.086	-22.02
294.301	111.1
294.516	10.75
294.73	57.86
294.945	-40.45
295.16	-60.93
295.374	68.09
295.589	35.33
295.804	8.7
296.018	10.75
296.233	74.24
296.447	-9.73
296.662	0.51
296.877	55.81
297.091	2.56
297.306	59.9
297.52	59.9
297.735	74.24
297.949	53.76
298.164	41.47
298.378	31.23
298.593	10.75
298.807	2.56
299.022	102.91
299.236	47.62
299.451	-34.3
299.665	-34.3
299.88	33.28
300.094	8.7
300.309	-15.87
300.523	-9.73
300.737	39.42
300.952	10.75
301.166	45.57
301.381	-136.7
301.595	-28.16
301.809	23.04
302.024	64
302.238	12.8
302.452	64
302.667	31.23
302.881	80.38
303.095	10.75
303.309	49.66
303.524	12.8
303.738	-22.02
303.952	-83.45
304.166	64
304.381	-50.69
304.595	113.15
304.809	-9.73
305.023	10.75
305.237	-65.02
305.452	43.52
305.666	10.75
305.88	31.23
306.094	20.99
306.308	59.9
306.522	35.33
306.736	-79.36
306.95	82.43
307.164	57.86
307.379	39.42
307.593	109.05
307.807	86.53
308.021	25.09
308.235	64
308.449	-15.87
308.663	51.71
308.877	29.18
309.091	51.71
309.305	-9.73
309.519	-28.16
309.733	33.28
309.947	-19.97
310.161	4.61
310.374	53.76
310.588	39.42
310.802	0.51
311.016	16.9
311.23	25.09
311.444	-114.17
311.658	-11.78
311.872	-7.68
312.085	12.8
312.299	37.38
312.513	109.05
312.727	-17.92
312.941	-40.45
313.154	-11.78
313.368	25.09
313.582	86.53
313.796	31.23
314.009	-13.82
314.223	-15.87
314.437	8.7
314.651	113.15
314.864	0.51
315.078	43.52
315.292	-9.73
315.505	-5.63
315.719	29.18
315.933	-7.68
316.146	16.9
316.36	-56.83
316.573	23.04
316.787	-15.87
317.001	4.61
317.214	-40.45
317.428	74.24
317.641	-36.35
317.855	18.94
318.068	2.56
318.282	53.76
318.495	119.29
318.709	59.9
318.922	25.09
319.136	64
319.349	29.18
319.563	-15.87
319.776	-30.21
319.99	-9.73
320.203	84.48
320.417	102.91
320.63	43.52
320.843	111.1
321.057	66.05
321.27	-13.82
321.483	41.47
321.697	39.42
321.91	2.56
322.124	59.9
322.337	4.61
322.55	-62.98
322.763	37.38
322.977	10.75
323.19	-30.21
323.403	14.85
323.617	18.94
323.83	100.86
324.043	66.05
324.256	-22.02
324.469	-5.63
324.683	123.39
324.896	-26.11
325.109	80.38
325.322	-17.92
325.535	59.9
325.748	55.81
325.962	31.23
326.175	53.76
326.388	61.95
326.601	29.18
326.814	-28.16
327.027	14.85
327.24	104.96
327.453	-34.3
327.666	41.47
327.879	25.09
328.092	57.86
328.305	117.25
328.518	-26.11
328.731	10.75
328.944	59.9
329.157	109.05
329.37	14.85
329.583	143.87
329.796	102.91
330.009	18.94
330.222	43.52
330.435	-9.73
330.648	53.76
330.861	-7.68
331.073	37.38
331.286	82.43
331.499	25.09
331.712	-30.21
331.925	80.38
332.138	78.33
332.35	14.85
332.563	-13.82
332.776	66.05
332.989	-38.4
333.202	-32.26
333.414	-38.4
333.627	84.48
333.84	-24.06
334.053	61.95
334.265	4.61
334.478	-40.45
334.691	39.42
334.903	16.9
335.116	-5.63
335.329	35.33
335.541	-67.07
335.754	27.14
335.966	-30.21
336.179	39.42
336.392	-30.21
336.604	18.94
336.817	43.52
337.029	27.14
337.242	16.9
337.454	25.09
337.667	14.85
337.88	57.86
338.092	64
338.305	2.56
338.517	-7.68
338.729	90.62
338.942	141.82
339.154	27.14
339.367	-32.26
339.579	74.24
339.792	49.66
340.004	45.57
340.217	61.95
340.429	33.28
340.641	6.66
340.854	25.09
341.066	35.33
341.278	72.19
341.491	84.48
341.703	57.86
341.915	12.8
342.128	39.42
342.34	80.38
342.552	-34.3
342.764	8.7
342.977	59.9
343.189	-28.16
343.401	-1.54
343.613	-42.5
343.826	-9.73
344.038	-17.92
344.25	-3.58
344.462	-3.58
344.674	-17.92
344.886	-13.82
345.099	76.29
345.311	61.95
345.523	-17.92
345.735	-54.78
345.947	20.99
346.159	104.96
346.371	-7.68
346.583	82.43
346.795	147.97
347.007	-56.83
347.219	131.58
347.431	51.71
347.643	-5.63
347.855	-42.5
348.067	47.62
348.279	33.28
348.491	57.86
348.703	84.48
348.915	-36.35
349.127	-15.87
349.339	27.14
349.551	-22.02
349.763	45.57
349.975	55.81
350.187	45.57
350.399	64
350.61	72.19
350.822	23.04
351.034	23.04
351.246	-9.73
351.458	68.09
351.669	47.62
351.881	78.33
352.093	94.72
352.305	121.34
352.517	49.66
352.728	74.24
352.94	53.76
353.152	12.8
353.363	37.38
353.575	29.18
353.787	104.96
353.999	96.77
354.21	14.85
354.422	16.9
354.633	8.7
354.845	-1.54
355.057	59.9
355.268	8.7
355.48	35.33
355.692	37.38
355.903	25.09
356.115	-24.06
356.326	27.14
356.538	41.47
356.749	74.24
356.961	74.24
357.172	10.75
357.384	6.66
357.595	76.29
357.807	23.04
358.018	20.99
358.23	55.81
358.441	156.16
358.653	82.43
358.864	66.05
359.075	25.09
359.287	57.86
359.498	0.51
359.709	-58.88
359.921	39.42
360.132	31.23
360.344	6.66
360.555	-40.45
360.766	82.43
360.977	-44.54
361.189	39.42
361.4	-30.21
361.611	154.11
361.823	96.77
362.034	4.61
362.245	-40.45
362.456	33.28
362.667	45.57
362.879	-1.54
363.09	113.15
363.301	59.9
363.512	14.85
363.723	12.8
363.935	64
364.146	51.71
364.357	33.28
364.568	72.19
364.779	2.56
364.99	94.72
365.201	84.48
365.412	23.04
365.623	-13.82
365.834	47.62
366.045	-50.69
366.256	74.24
366.467	98.81
366.678	-24.06
366.889	43.52
367.1	27.14
367.311	25.09
367.522	-7.68
367.733	20.99
367.944	10.75
368.155	53.76
368.366	66.05
368.577	8.7
368.788	90.62
368.999	18.94
369.209	18.94
369.42	66.05
369.631	98.81
369.842	78.33
370.053	51.71
370.264	45.57
370.474	18.94
370.685	47.62
370.896	61.95
371.107	27.14
371.317	25.09
371.528	-24.06
371.739	37.38
371.95	70.14
372.16	66.05
372.371	-30.21
372.582	-9.73
372.792	78.33
373.003	29.18
373.214	35.33
373.424	37.38
373.635	0.51
373.846	78.33
374.056	47.62
374.267	80.38
374.477	-24.06
374.688	14.85
374.898	51.71
375.109	47.62
375.319	-19.97
375.53	41.47
375.74	16.9
375.951	-62.98
376.161	39.42
376.372	109.05
376.582	-30.21
376.793	72.19
377.003	8.7
377.214	-17.92
377.424	64
377.635	33.28
377.845	-5.63
378.055	94.72
378.266	-5.63
378.476	27.14
378.686	66.05
378.897	39.42
379.107	51.71
379.317	76.29
379.528	6.66
379.738	37.38
379.948	-48.64
380.158	107.01
380.369	25.09
380.579	121.34
380.789	100.86
380.999	72.19
381.21	61.95
381.42	115.2
381.63	14.85
381.84	45.57
382.05	14.85
382.261	66.05
382.471	39.42
382.681	39.42
382.891	70.14
383.101	66.05
383.311	18.94
383.521	-3.58
383.731	72.19
383.941	84.48
384.151	33.28
384.361	37.38
384.571	31.23
384.781	51.71
384.991	37.38
385.201	115.2
385.411	76.29
385.621	29.18
385.831	49.66
386.041	25.09
386.251	41.47
386.461	152.06
386.671	23.04
386.881	47.62
387.091	12.8
387.301	45.57
387.511	70.14
387.72	35.33
387.93	80.38
388.14	-93.69
388.35	115.2
388.56	111.1
388.769	31.23
388.979	12.8
389.189	-73.21
389.399	82.43
389.609	-1.54
389.818	76.29
390.028	35.33
390.238	64
390.447	27.14
390.657	47.62
390.867	31.23
391.076	23.04
391.286	70.14
391.496	92.67
391.705	53.76
391.915	117.25
392.125	107.01
392.334	70.14
392.544	-5.63
392.753	74.24
392.963	49.66
393.172	100.86
393.382	6.66
393.591	119.29
393.801	8.7
394.01	121.34
394.22	45.57
394.429	31.23
394.639	2.56
394.848	64
395.058	45.57
395.267	98.81
395.477	102.91
395.686	2.56
395.895	150.01
396.105	96.77
396.314	100.86
396.524	80.38
396.733	80.38
396.942	174.59
397.152	37.38
397.361	86.53
397.57	129.53
397.78	96.77
397.989	113.15
398.198	190.97
398.407	78.33
398.617	100.86
398.826	23.04
399.035	59.9
399.244	156.16
399.453	104.96
399.663	66.05
399.872	74.24
400.081	8.7
400.29	184.83
400.499	10.75
400.708	102.91
400.917	47.62
401.127	43.52
401.336	82.43
401.545	131.58
401.754	158.21
401.963	182.78
402.172	90.62
402.381	16.9
402.59	86.53
402.799	100.86
403.008	68.09
403.217	113.15
403.426	92.67
403.635	-3.58
403.844	109.05
404.053	84.48
404.262	76.29
404.471	238.08
404.68	178.69
404.888	84.48
405.097	117.25
405.306	133.63
405.515	197.12
405.724	131.58
405.933	221.69
406.142	172.54
406.35	193.02
406.559	92.67
406.768	168.45
406.977	276.99
407.185	252.41
407.394	98.81
407.603	111.1
407.812	176.64
408.02	170.49
408.229	180.73
408.438	283.13
408.646	66.05
408.855	150.01
409.064	201.21
409.272	258.56
409.481	205.31
409.69	223.74
409.898	236.03
410.107	207.36
410.315	320
410.524	293.37
410.733	289.28
410.941	279.04
411.15	356.86
411.358	248.32
411.567	385.53
411.775	317.95
411.984	320
412.192	342.52
412.401	387.58
412.609	395.77
412.818	561.66
413.026	442.87
413.234	426.49
413.443	444.92
413.651	446.97
413.86	504.31
414.068	487.93
414.276	492.02
414.485	510.46
414.693	619
414.901	647.67
415.11	573.94
415.318	573.94
415.526	612.85
415.734	719.35
415.943	653.81
416.151	717.3
416.359	700.92
416.567	651.77
416.776	717.3
416.984	870.9
417.192	936.43
417.4	764.4
417.608	768.5
417.817	831.99
418.025	920.05
418.233	1190.38
418.441	979.44
418.649	985.58
418.857	1106.42
419.065	1077.74
419.273	1188.33
419.481	1182.19
419.689	1233.39
419.897	1309.16
420.105	1300.97
420.313	1391.08
420.521	1393.13
420.729	1489.39
420.937	1458.67
421.145	1507.82
421.353	1548.78
421.561	1706.47
421.769	1624.55
421.977	1685.99
422.185	1710.57
422.393	1745.38
422.601	1909.22
422.809	1958.37
423.017	1993.19
423.224	2097.63
423.432	2175.45
423.64	2163.17
423.848	2337.24
424.056	2152.93
424.263	2359.77
424.471	2558.42
424.679	2453.98
424.887	2636.25
425.094	2736.6
425.302	2812.37
425.51	2728.41
425.718	2906.58
425.925	2941.4
426.133	2884.05
426.341	3246.54
426.548	3375.56
426.756	3330.51
426.964	3400.14
427.171	3590.6
427.379	3756.49
427.586	3670.47
427.794	3955.14
428.001	4069.83
428.209	4133.31
428.417	4178.37
428.624	4479.42
428.832	4501.95
429.039	4295.1
429.247	4405.69
429.454	4964.79
429.662	5167.54
429.869	4911.54
430.076	5145.01
430.284	5011.89
430.491	5339.57
430.699	5532.08
430.906	5415.34
431.114	5775.78
431.321	5835.17
431.528	5890.47
431.736	6261.15
431.943	6654.36
432.15	6486.43
432.358	6576.54
432.565	6904.21
432.772	6857.11
432.979	6971.8
433.187	7197.07
433.394	7303.57
433.601	7760.27
433.808	7778.7
434.016	7821.7
434.223	8012.17
434.43	8509.82
434.637	8388.99
434.844	8819.07
435.052	9146.74
435.259	8956.28
435.466	9079.16
435.673	9054.58
435.88	9777.51
436.087	10219.88
436.294	10129.77
436.501	9939.3
436.708	10105.19
436.915	10602.85
437.122	10901.85
437.329	10783.07
437.537	11245.91
437.743	11293.01
437.95	11290.96
438.157	11876.68
438.364	12339.52
438.571	12296.52
438.778	12257.6
438.985	13365.56
439.192	12775.74
439.399	13269.3
439.606	13093.18
439.813	13682.99
440.02	14498.08
440.227	14516.51
440.433	14338.34
440.64	14881.05
440.847	14399.78
441.054	14709.02
441.261	16005.39
441.467	15765.78
441.674	16009.48
441.881	16587.01
442.088	16593.15
442.294	16312.58
442.501	16961.79
442.708	17090.81
442.914	17656.05
443.121	18755.81
443.328	18223.34
443.534	19339.48
443.741	18893.02
443.948	18501.86
444.154	19818.71
444.361	19962.06
444.568	20123.85
444.774	19892.43
444.981	20353.23
445.187	20789.44
445.394	21641.4
445.6	21240
445.807	23314.59
446.013	22282.41
446.22	22728.87
446.426	23634.07
446.633	23808.15
446.839	24793.22
447.046	23615.64
447.252	25161.86
447.459	24993.92
447.665	24885.38
447.871	26333.29
448.078	26929.25
448.284	25682.04
448.491	26759.27
448.697	27431.01
448.903	28256.34
449.11	28205.14
449.316	27521.12
449.522	28340.3
449.728	28905.54
449.935	29184.07
450.141	28792.9
450.347	29593.66
450.553	28797
450.76	29321.28
450.966	30023.73
451.172	30027.83
451.378	30378.03
451.584	29734.97
451.791	30900.26
451.997	30558.25
452.203	31158.31
452.409	31209.51
452.615	30906.41
452.821	29403.2
453.027	29390.91
453.233	31027.24
453.44	29800.51
453.646	30185.52
453.852	29886.52
454.058	30885.93
454.264	29632.57
454.47	30386.22
454.676	29298.75
454.882	30355.5
455.088	27816.02
455.294	28131.41
455.5	28850.25
455.705	28848.2
455.911	27760.73
456.117	27088.99
456.323	27068.51
456.529	25743.48
456.735	26636.39
456.941	26022
457.147	25401.47
457.352	24864.9
457.558	24332.43
457.764	24250.51
457.97	23707.8
458.176	23433.37
458.381	23382.17
458.587	22452.39
458.793	22196.4
458.999	20998.34
459.204	22550.7
459.41	21815.48
459.616	20553.93
459.821	20717.76
460.027	20347.08
460.233	19861.71
460.438	19067.1
460.644	19339.48
460.85	18174.19
461.055	18020.59
461.261	17918.19
461.466	16619.78
461.672	16148.75
461.878	17244.41
462.083	16148.75
462.289	15780.11
462.494	15773.97
462.7	14838.05
462.905	14588.19
463.111	14827.81
463.316	15147.29
463.522	14768.41
463.727	14643.49
463.932	14817.57
464.138	14487.84
464.343	14831.9
464.549	14002.47
464.754	14491.94
464.959	14584.1
465.165	14344.49
465.37	13730.09
465.575	13582.64
465.781	14057.77
465.986	13973.8
466.191	13541.68
466.397	13029.69
466.602	12509.51
466.807	13105.46
467.012	13148.47
467.218	12722.49
467.423	12796.22
467.628	12861.76
467.833	13199.67
468.038	13175.09
468.244	12634.43
468.449	13056.31
468.654	12722.49
468.859	12546.37
469.064	12534.08
469.269	12161.35
469.474	12075.34
469.679	12355.91
469.885	11878.73
470.09	12183.88
470.295	12001.61
470.5	11553.1
470.705	11780.43
470.91	11516.24
471.115	11424.08
471.32	11575.63
471.525	11495.76
471.73	11260.24
471.935	10918.23
472.139	10838.36
472.344	10920.28
472.549	10846.55
472.754	10801.5
472.959	10420.58
473.164	10084.71
473.369	10248.55
473.574	10574.17
473.778	10266.98
473.983	10170.72
474.188	10318.18
474.393	9892.2
474.598	9906.54
474.802	9738.6
475.007	9542
475.212	9705.84
475.417	9337.2
475.621	9159.03
475.826	9343.35
476.031	9173.36
476.235	9013.62
476.44	9369.97
476.645	8958.33
476.849	8950.14
477.054	8829.31
477.259	8604.03
477.463	8683.9
477.668	8460.67
477.872	8606.08
478.077	8266.11
478.282	8069.51
478.486	8081.8
478.691	8102.28
478.895	7887.24
479.1	8069.51
479.304	8186.24
479.509	7766.41
479.713	8044.93
479.918	7778.7
480.122	7690.63
480.326	7463.31
480.531	7870.86
480.735	7668.11
480.94	7459.21
481.144	7860.62
481.348	7534.99
481.553	7397.78
481.757	7278.99
481.961	7477.65
482.166	7477.65
482.37	7405.97
482.574	7520.65
482.778	7457.17
482.983	7475.6
483.187	7340.43
483.391	7430.54
483.595	7473.55
483.8	7322
484.004	7514.51
484.208	7496.08
484.412	7262.61
484.616	7567.76
484.821	7502.22
485.025	7172.5
485.229	7283.09
485.433	7451.02
485.637	7360.91
485.841	7213.46
486.045	7475.6
486.249	7360.91
486.453	7324.05
486.657	7215.51
486.861	7508.37
487.065	7164.31
487.269	7291.28
487.473	7215.51
487.677	7465.36
487.881	7489.93
488.085	7231.89
488.289	7403.92
488.493	7387.54
488.697	7428.49
488.901	7424.4
489.105	7502.22
489.309	7348.62
489.512	7424.4
489.716	7326.1
489.92	7281.04
490.124	7233.94
490.328	7520.65
490.531	7338.38
490.735	7444.88
490.939	7600.52
491.143	7549.32
491.346	7545.23
491.55	7643.53
491.754	7610.76
491.958	7592.33
492.161	7659.92
492.365	7616.91
492.569	7573.9
492.772	7745.93
492.976	7788.94
493.18	7866.76
493.383	7817.61
493.587	7813.51
493.79	8003.97
493.994	7784.84
494.197	7840.14
494.401	8247.68
494.605	7977.35
494.808	8055.17
495.012	8085.89
495.215	8178.05
495.419	8116.61
495.622	8323.46
495.825	8575.36
496.029	8436.1
496.232	8616.32
496.436	8644.99
496.639	8743.29
496.843	8774.01
497.046	8855.93
497.249	9087.35
497.453	8909.18
497.656	9167.22
497.859	8980.85
498.063	9156.98
498.266	9378.16
498.469	9228.66
498.673	9464.18
498.876	9668.97
499.079	9740.65
499.282	9560.43
499.485	10074.47
499.689	10043.75
499.892	10154.34
500.095	10072.42
500.298	10322.27
500.501	10301.79
500.705	10537.31
500.908	10625.37
501.111	10682.72
501.314	10785.12
501.517	10875.23
501.72	11098.45
501.923	11061.59
502.126	11352.4
502.329	11452.75
502.532	11557.2
502.735	11587.92
502.938	11858.25
503.141	11987.27
503.344	11714.89
503.547	11850.06
503.75	12028.23
503.953	12216.65
504.156	12525.89
504.359	12454.21
504.562	12519.74
504.765	12788.03
504.968	13105.46
505.17	13048.12
505.373	13001.02
505.576	13359.41
505.779	13338.93
505.982	13680.94
506.185	13764.91
506.387	13861.16
506.59	13988.14
506.793	14309.67
506.996	14100.78
507.198	14661.92
507.401	14440.74
507.604	14575.91
507.807	14885.15
508.009	15040.79
508.212	15132.95
508.415	15106.33
508.617	15278.36
508.82	15458.58
509.022	15393.05
509.225	15960.33
509.428	15876.37
509.63	16015.63
509.833	16277.77
510.035	16509.19
510.238	16539.91
510.44	16468.23
510.643	16832.77
510.845	17094.91
511.048	17056
511.25	17213.69
511.453	17330.42
511.655	17864.94
511.858	17697.01
512.06	17985.77
512.262	18069.74
512.465	18049.26
512.667	18366.7
512.87	18591.97
513.072	18604.26
513.274	18749.67
513.477	18743.52
513.679	18833.63
513.881	19183.84
514.084	19450.07
514.286	19531.99
514.488	19857.62
514.69	19919.06
514.893	20295.88
515.095	20156.62
515.297	20197.58
515.499	20498.63
515.701	20490.44
515.904	20996.29
516.106	21141.69
516.308	21231.8
516.51	21424.31
516.712	21059.77
516.914	21500.09
517.116	21723.32
517.318	21846.19
517.52	22022.32
517.722	21973.17
517.925	22325.42
518.127	22550.7
518.329	22722.73
518.531	22671.53
518.733	22995.11
518.935	22958.24
519.136	22943.91
519.338	23488.67
519.54	23521.43
519.742	23705.75
519.944	23861.4
520.146	24037.52
520.348	23924.88
520.55	24023.19
520.752	24213.65
520.954	24352.91
521.155	24465.55
521.357	24875.14
521.559	24545.42
521.761	25110.66
521.963	25084.03
522.164	25317.5
522.366	25034.88
522.568	25258.11
522.77	25763.96
522.971	25968.76
523.173	25632.89
523.375	26116.21
523.576	25651.32
523.778	26017.91
523.98	26497.13
524.181	26511.47
524.383	26304.62
524.584	26515.56
524.786	26640.49
524.988	26439.79
525.189	26884.2
525.391	27082.85
525.592	26896.49
525.794	26849.38
525.995	27095.14
526.197	27238.5
526.398	27562.08
526.6	27084.9
526.801	27318.37
527.003	27527.26
527.204	27584.6
527.406	27658.33
527.607	27682.91
527.808	27750.49
528.01	27517.02
528.211	27766.87
528.412	28096.6
528.614	28213.33
528.815	28260.43
529.016	28215.38
529.218	28063.83
529.419	28479.57
529.62	28045.4
529.822	28006.48
530.023	28063.83
530.224	27912.28
530.425	28084.31
530.626	27867.22
530.828	27703.39
531.029	28457.04
531.23	28141.65
531.431	27936.85
531.632	28340.3
531.833	28401.74
532.035	28155.99
532.236	28266.58
532.437	28358.74
532.638	28190.8
532.839	28149.84
533.04	28602.44
533.241	28274.77
533.442	28426.32
533.643	28434.51
533.844	28133.46
534.045	28526.67
534.246	28205.14
534.447	28272.72
534.648	28450.89
534.849	28352.59
535.05	28256.34
535.251	28031.06
535.451	28072.02
535.652	28475.47
535.853	28160.08
536.054	28328.02
536.255	28553.29
536.456	27928.66
536.657	28555.34
536.857	28117.07
537.058	28137.55
537.259	28446.8
537.46	28377.17
537.66	28350.54
537.861	28237.91
538.062	28145.75
538.263	28287.06
538.463	28280.91
538.664	28024.92
538.865	28338.26
539.065	28522.57
539.266	28178.51
539.466	28467.28
539.667	27639.9
539.868	28612.68
540.068	27963.48
540.269	28250.19
540.469	28631.12
540.67	27809.88
540.87	28137.55
541.071	28393.55
541.271	27887.7
541.472	27996.24
541.672	27973.72
541.873	27834.46
542.073	27748.44
542.274	28045.4
542.474	28031.06
542.675	27822.17
542.875	28614.73
543.075	27758.68
543.276	27822.17
543.476	28037.2
543.676	27899.99
543.877	28168.27
544.077	27943
544.277	28115.03
544.478	27770.97
544.678	28307.54
544.878	27838.55
545.078	28088.4
545.279	27861.08
545.479	27609.18
545.679	28094.55
545.879	27963.48
546.079	27498.59
546.28	27727.96
546.48	27492.44
546.68	27805.78
546.88	27699.29
547.08	27940.95
547.28	27832.41
547.48	27293.79
547.68	27848.79
547.88	27586.65
548.081	27656.28
548.281	27687
548.481	27592.79
548.681	27699.29
548.881	27953.24
549.081	27482.2
549.28	27693.15
549.48	27820.12
549.68	27723.86
549.88	28135.51
550.08	27416.67
550.28	27781.21
550.48	27459.68
550.68	27746.39
550.88	27723.86
551.08	27316.32
551.279	27414.62
551.479	27299.94
551.679	27684.95
551.879	27363.42
552.079	27611.23
552.278	27340.89
552.478	27775.06
552.678	27461.72
552.878	27527.26
553.077	27394.14
553.277	27213.92
553.477	27766.87
553.676	27744.34
553.876	27457.63
554.076	27586.65
554.275	27476.06
554.475	27394.14
554.674	27555.93
554.874	27367.52
555.074	27441.25
555.273	27535.45
555.473	27449.44
555.672	27203.68
555.872	27334.75
556.071	27129.95
556.271	27328.61
556.47	27103.33
556.67	26972.26
556.869	27015.27
557.068	27453.53
557.268	27187.3
557.467	27232.35
557.667	27064.42
557.866	27279.46
558.065	27193.44
558.265	27060.32
558.464	26830.95
558.663	27148.39
558.863	26929.25
559.062	27390.05
559.261	26753.13
559.461	27246.69
559.66	26708.07
559.859	27117.67
560.058	26706.02
560.258	27072.61
560.457	26720.36
560.656	27045.99
560.855	26775.66
561.054	26972.26
561.253	26382.45
561.453	26757.22
561.652	27037.8
561.851	27115.62
562.05	27103.33
562.249	26599.53
562.448	26941.54
562.647	26331.25
562.846	27093.09
563.045	26765.42
563.244	26359.92
563.443	26734.7
563.642	26312.81
563.841	26792.04
564.04	26703.98
564.239	26818.66
564.438	26554.47
564.637	26538.09
564.836	26599.53
565.035	26329.2
565.234	26493.04
565.432	26490.99
565.631	26644.59
565.83	26835.05
566.029	26691.69
566.228	26560.62
566.427	26189.94
566.625	26071.15
566.824	26167.41
567.023	26384.49
567.222	25872.5
567.42	26556.52
567.619	26245.23
567.818	26216.56
568.016	26484.84
568.215	26359.92
568.414	26097.78
568.612	26407.02
568.811	25911.41
569.01	26331.25
569.208	26130.55
569.407	26308.72
569.605	25536.63
569.804	26093.68
570.002	25696.38
570.201	25706.62
570.4	25561.21
570.598	25770.1
570.797	25802.87
570.995	25643.13
571.193	25464.96
571.392	25813.11
571.59	25733.24
571.789	25909.36
571.987	25741.43
572.186	25567.35
572.384	25776.25
572.582	25727.1
572.781	25671.8
572.979	25311.36
573.177	25772.15
573.376	25385.08
573.574	25153.66
573.772	25536.63
573.971	25004.16
574.169	25198.72
574.367	25141.38
574.565	25768.05
574.763	25323.65
574.962	25108.61
575.16	24901.76
575.358	25245.82
575.556	25030.79
575.754	25649.27
575.952	24963.2
576.151	25323.65
576.349	24866.95
576.547	24985.73
576.745	24946.82
576.943	24885.38
577.141	24998.02
577.339	24932.48
577.537	24836.23
577.735	24756.36
577.933	24821.89
578.131	24715.4
578.329	24391.82
578.527	24524.94
578.725	24582.28
578.923	24825.99
579.121	24481.93
579.319	24338.57
579.516	24696.97
579.714	24352.91
579.912	24127.63
580.11	24293.52
580.308	24096.91
580.506	24160.4
580.704	23806.1
580.901	24393.87
581.099	24762.5
581.297	23978.13
581.495	24088.72
581.692	24072.34
581.89	23871.64
582.088	23931.03
582.285	23799.96
582.483	23883.92
582.681	23924.88
582.878	23767.19
583.076	23617.69
583.274	23914.64
583.471	23636.12
583.669	23560.34
583.866	23670.93
584.064	23398.55
584.262	23333.02
584.459	23500.95
584.657	23474.33
584.854	23609.5
585.052	23386.27
585.249	23435.42
585.447	23582.87
585.644	23326.88
585.841	23189.66
586.039	23097.5
586.236	22837.41
586.434	23175.33
586.631	22798.5
586.828	23052.45
587.026	23087.26
587.223	22952.1
587.42	22845.6
587.618	22771.88
587.815	22778.02
588.012	22581.42
588.21	22257.84
588.407	22941.86
588.604	22786.21
588.801	22507.69
588.999	22290.6
589.196	22519.98
589.393	22624.42
589.59	22450.35
589.787	22628.52
589.984	22352.04
590.182	22534.31
590.379	22253.74
590.576	22235.31
590.773	22216.88
590.97	22182.06
591.167	22485.16
591.364	21862.58
591.561	22012.08
591.758	21743.8
591.955	22216.88
592.152	21960.88
592.349	21772.47
592.546	22257.84
592.743	21969.07
592.94	21657.78
593.137	21852.34
593.334	21670.07
593.531	21547.19
593.727	21997.74
593.924	21936.31
594.121	21436.6
594.318	21708.98
594.515	21539
594.712	21563.57
594.908	21455.03
595.105	21430.46
595.302	21104.83
595.499	21024.96
595.696	21115.07
595.892	20949.18
596.089	21518.52
596.286	20971.71
596.482	20871.36
596.679	21135.55
596.876	21172.41
597.072	20979.9
597.269	21027.01
597.466	20887.75
597.662	20754.63
597.859	21104.83
598.055	21158.08
598.252	20994.24
598.448	20816.07
598.645	20682.95
598.841	20533.45
599.038	20779.2
599.234	20736.2
599.431	20633.8
599.627	20578.5
599.824	20531.4
600.02	20377.8
600.217	20734.15
600.413	20605.13
600.609	20467.91
600.806	20519.11
601.002	20476.1
601.198	20304.07
601.395	20496.58
601.591	20248.78
601.787	20517.06
601.984	20437.19
602.18	20394.18
602.376	20183.24
602.572	20293.83
602.769	20314.31
602.965	20132.04
603.161	20209.87
603.357	20177.1
603.553	19820.75
603.75	20244.68
603.946	19943.63
604.142	20058.32
604.338	20027.6
604.534	20039.89
604.73	19505.37
604.926	19892.43
605.122	20132.04
605.318	19747.03
605.514	20072.65
605.71	19769.55
605.906	19960.02
606.102	19638.48
606.298	19886.29
606.494	19755.22
606.69	19800.27
606.886	19704.02
607.082	19785.94
607.278	19529.94
607.474	19384.54
607.67	19542.23
607.866	19173.6
608.062	19497.17
608.257	19222.75
608.453	19572.95
608.649	19572.95
608.845	19366.1
609.041	19536.09
609.236	19503.32
609.432	19314.91
609.628	19685.59
609.824	19575
610.019	19505.37
610.215	19339.48
610.411	19564.76
610.606	19423.45
610.802	19312.86
610.998	19380.44
611.193	19493.08
611.389	19310.81
611.584	19542.23
611.78	19157.21
611.976	19386.58
612.171	19296.47
612.367	19425.5
612.562	18962.65
612.758	19130.59
612.953	18979.04
613.149	19648.72
613.344	19065.05
613.539	19687.64
613.735	19194.08
613.93	19409.11
614.126	19134.68
614.321	19402.97
614.517	18940.13
614.712	19144.92
614.907	19183.84
615.103	19507.41
615.298	18847.97
615.493	19431.64
615.688	18983.13
615.884	19327.19
616.079	18839.78
616.274	19243.23
616.47	18997.47
616.665	18987.23
616.86	18837.73
617.055	19101.92
617.25	18954.46
617.445	19425.5
617.641	18645.22
617.836	18921.7
618.031	18766.05
618.226	19046.62
618.421	18899.17
618.616	18929.89
618.811	18329.83
619.006	18987.23
619.201	18520.29
619.396	18655.46
619.591	18467.05
619.786	18915.55
619.981	18354.41
620.176	18393.32
620.371	18243.82
620.566	18372.84
620.761	18063.6
620.956	18497.77
621.151	18116.84
621.346	18235.63
621.541	17969.39
621.735	17934.57
621.93	17940.72
622.125	17742.07
622.32	17764.59
622.515	17819.89
622.709	17799.41
622.904	17686.77
623.099	17500.4
623.294	17547.51
623.488	17350.9
623.683	17512.69
623.878	17361.14
624.072	17254.65
624.267	16984.32
624.462	16924.93
624.656	17023.23
624.851	17041.66
625.046	16914.69
625.24	16908.54
625.435	16587.01
625.629	16550.15
625.824	16648.45
626.018	16353.54
626.213	16187.66
626.407	16455.94
626.602	16206.09
626.796	16544
626.991	16247.05
627.185	16179.47
627.38	16040.2
627.574	16075.02
627.768	15894.8
627.963	15870.22
628.157	15880.46
628.352	15857.93
628.546	15538.45
628.74	15415.57
628.935	15341.85
629.129	15487.25
629.323	15384.85
629.517	15182.1
629.712	15067.42
629.906	15194.39
630.1	14979.36
630.294	15028.51
630.489	14760.22
630.683	15137.05
630.877	14696.74
631.071	14422.31
631.265	14797.09
631.459	14623.01
631.653	14596.39
631.848	14393.64
632.042	14264.61
632.236	14340.39
632.43	14346.53
632.624	14084.39
632.818	14344.49
633.012	13787.44
633.206	14020.91
633.4	14055.72
633.594	13924.65
633.788	13783.34
633.982	13820.21
634.176	13873.45
634.369	13496.63
634.563	13531.44
634.757	13449.52
634.951	13545.78
635.145	13472.05
635.339	13377.84
635.533	13156.66
635.726	13187.38
635.92	13082.94
636.114	13115.7
636.308	13027.64
636.501	12933.43
636.695	13082.94
636.889	12917.05
637.083	12906.81
637.276	12753.21
637.47	12452.16
637.664	12400.96
637.857	12517.7
638.051	12405.06
638.244	12261.7
638.438	12155.21
638.632	12540.22
638.825	12312.9
639.019	12022.09
639.212	12308.8
639.406	11958.6
639.599	11921.74
639.793	12124.49
639.986	11813.2
640.18	11925.83
640.373	11950.41
640.567	11565.39
640.76	11612.49
640.954	11546.96
641.147	11589.97
641.34	11266.39
641.534	11389.27
641.727	11180.37
641.92	11290.96
642.114	11016.54
642.307	11223.38
642.5	11063.64
642.694	10836.31
642.887	10860.89
643.08	10819.93
643.273	10832.22
643.467	10748.25
643.66	10690.91
643.853	10484.06
644.046	10557.79
644.239	10492.26
644.432	10455.39
644.626	10443.1
644.819	10238.31
645.012	10299.75
645.205	10131.81
645.398	10316.13
645.591	10205.54
645.784	10008.94
645.977	9806.19
646.17	10064.23
646.363	9797.99
646.556	9742.7
646.749	9916.78
646.942	9527.66
647.135	9740.65
647.328	9711.98
647.521	9568.62
647.714	9564.53
647.907	9365.87
648.099	9374.06
648.292	9386.35
648.485	9468.27
648.678	9218.42
648.871	9101.69
649.064	9146.74
649.256	8933.75
649.449	8972.66
649.642	8933.75
649.835	8913.27
650.027	8900.98
650.22	8731
650.413	8761.72
650.605	8663.42
650.798	8784.25
650.991	8612.22
651.183	8548.73
651.376	8479.1
651.568	8429.95
651.761	8348.03
651.954	8462.72
652.146	8434.05
652.339	8276.35
652.531	8233.35
652.724	8251.78
652.916	7905.67
653.109	8042.89
653.301	8077.7
653.494	8178.05
653.686	7922.06
653.879	8106.37
654.071	7868.81
654.263	7764.36
654.456	7803.27
654.648	7946.63
654.84	7610.76
655.033	7758.22
655.225	7606.67
655.417	7578
655.61	7594.38
655.802	7584.14
655.994	7578
656.186	7598.48
656.379	7473.55
656.571	7578
656.763	7152.02
656.955	7170.45
657.148	7123.35
657.34	7047.57
657.532	7010.71
657.724	7006.61
657.916	7147.92
658.108	7008.66
658.3	6879.64
658.492	6979.99
658.684	6805.91
658.876	6896.02
659.068	6687.13
659.26	6715.8
659.452	6644.12
659.644	6609.31
659.836	6592.92
660.028	6508.96
660.22	6545.82
660.412	6513.05
660.604	6480.29
660.796	6390.17
660.988	6388.13
661.18	6097.31
661.372	6232.48
661.563	6429.09
661.755	6242.72
661.947	6187.43
662.139	5999.01
662.331	6099.36
662.522	6123.94
662.714	5986.72
662.906	5917.09
663.097	5962.15
663.289	5777.83
663.481	5810.6
663.673	5810.6
663.864	5755.3
664.056	5720.49
664.247	5679.53
664.439	5650.86
664.631	5806.5
664.822	5714.34
665.014	5579.18
665.205	5636.52
665.397	5613.99
665.588	5657
665.78	5695.91
665.971	5448.11
666.163	5466.54
666.354	5378.48
666.546	5435.82
666.737	5319.09
666.929	5247.41
667.12	5269.94
667.311	5228.98
667.503	5183.92
667.694	5243.31
667.885	5116.34
668.077	5237.17
668.268	5011.89
668.459	5226.93
668.651	5011.89
668.842	4983.22
669.033	5145.01
669.224	4860.34
669.416	5063.09
669.607	5044.66
669.798	4704.7
669.989	4952.5
670.18	5011.89
670.371	4854.2
670.563	4854.2
670.754	4792.76
670.945	4774.33
671.136	4991.41
671.327	4778.42
671.518	4860.34
671.709	4737.46
671.9	4825.53
672.091	4827.57
672.282	4690.36
672.473	4663.74
672.664	4659.64
672.855	4575.67
673.046	4682.17
673.237	4712.89
673.428	4575.67
673.619	4626.87
673.809	4428.22
674	4637.11
674.191	4458.94
674.382	4571.58
674.573	4553.15
674.764	4456.89
674.954	4395.45
675.145	4364.73
675.336	4336.06
675.527	4325.82
675.717	4397.5
675.908	4323.77
676.099	4364.73
676.289	4356.54
676.48	4473.28
676.671	4415.93
676.861	4413.88
677.052	4438.46
677.243	4225.47
677.433	4174.27
677.624	4346.3
677.814	4352.45
678.005	4409.79
678.195	4424.12
678.386	4235.71
678.576	4311.49
678.767	4284.86
678.957	4137.41
679.148	4297.15
679.338	4252.1
679.529	4172.22
679.719	4268.48
679.909	4252.1
680.1	4317.63
680.29	4133.31
680.481	4149.7
680.671	4215.23
680.861	4161.98
681.052	4149.7
681.242	4129.22
681.432	4231.62
681.622	4100.55
681.813	4108.74
682.003	4071.87
682.193	4118.98
682.383	4159.94
682.573	4149.7
682.764	4172.22
682.954	4067.78
683.144	4184.51
683.334	4043.2
683.524	4082.11
683.714	4268.48
683.904	4059.59
684.094	4159.94
684.284	3998.15
684.474	4192.7
684.664	4135.36
684.854	4172.22
685.044	4196.8
685.234	4127.17
685.424	4178.37
685.614	3953.09
685.804	4200.9
685.994	3971.52
686.184	3965.38
686.374	4133.31
686.564	3932.61
686.753	4063.68
686.943	3916.23
687.133	3967.43
687.323	3908.04
687.513	3953.09
687.702	3926.47
687.892	3989.96
688.082	3860.93
688.272	4078.02
688.461	3813.83
688.651	3992
688.841	3967.43
689.03	3920.32
689.22	3944.9
689.41	3932.61
689.599	3885.51
689.789	3905.99
689.979	3920.32
690.168	3803.59
690.358	3916.23
690.547	3781.06
690.737	3760.58
690.926	3852.74
691.116	3617.22
691.305	3848.65
691.495	3842.5
691.684	3711.43
691.874	3758.53
692.063	3867.08
692.252	3676.62
692.442	3875.27
692.631	3723.72
692.82	3733.96
693.01	3756.49
693.199	3783.11
693.388	3752.39
693.578	3770.82
693.767	3785.16
693.956	3701.19
694.146	3693
694.335	3725.77
694.524	3578.31
694.713	3754.44
694.902	3615.18
695.092	3733.96
695.281	3654.09
695.47	3656.14
695.659	3658.18
695.848	3701.19
696.037	3840.45
696.226	3633.61
696.415	3701.19
696.604	3678.66
696.793	3561.93
696.982	3772.87
697.171	3877.32
697.36	3662.28
697.549	3758.53
697.738	3594.7
697.927	3637.7
698.116	3711.43
698.305	3760.58
698.494	3828.17
698.683	3637.7
698.872	3762.63
699.061	3533.26
699.25	3725.77
699.438	3789.25
699.627	3699.14
699.816	3766.73
700.005	3686.86
700.193	3860.93
700.382	3764.68
700.571	3969.48
700.76	3828.17
700.948	3889.6
701.137	3738.05
701.326	3817.93
701.514	3574.22
701.703	3822.02
701.892	3678.66
702.08	3893.7
702.269	3752.39
702.457	3754.44
702.646	3729.86
702.834	3629.51
703.023	3807.69
703.212	3776.97
703.4	3678.66
703.589	3807.69
703.777	3883.46
703.965	3754.44
704.154	3850.69
704.342	3709.38
704.531	3774.92
704.719	3641.8
704.907	3946.95
705.096	3731.91
705.284	3733.96
705.472	3744.2
705.661	3752.39
705.849	3809.73
706.037	3862.98
706.226	3690.95
706.414	3770.82
706.602	3701.19
706.79	3862.98
706.979	3656.14
707.167	3676.62
707.355	3744.2
707.543	3840.45
707.731	3834.31
707.919	3817.93
708.107	3783.11
708.296	3774.92
708.484	3707.34
708.672	3801.54
708.86	3822.02
709.048	3705.29
709.236	3699.14
709.424	3805.64
709.612	3768.77
709.8	3699.14
709.988	3774.92
710.176	3838.41
710.364	3764.68
710.551	3891.65
710.739	3697.1
710.927	3803.59
711.115	3826.12
711.303	3830.21
711.491	3736.01
711.679	3748.29
711.866	3869.12
712.054	3828.17
712.242	3736.01
712.43	3844.55
712.617	3725.77
712.805	3867.08
712.993	3799.49
713.181	3756.49
713.368	3649.99
713.556	3715.53
713.744	3725.77
713.931	3756.49
714.119	3725.77
714.306	3803.59
714.494	3682.76
714.682	3836.36
714.869	3836.36
715.057	3815.88
715.244	3754.44
715.432	3750.34
715.619	3721.67
715.807	3695.05
715.994	3779.01
716.182	3639.75
716.369	3848.65
716.556	3785.16
716.744	3738.05
716.931	3891.65
717.119	3592.65
717.306	3766.73
717.493	3731.91
717.681	3750.34
717.868	3727.82
718.055	3832.26
718.242	3656.14
718.43	3760.58
718.617	3686.86
718.804	3719.62
718.991	3725.77
719.179	3654.09
719.366	3822.02
719.553	3791.3
719.74	3641.8
719.927	3752.39
720.114	3600.84
720.301	3670.47
720.488	3611.08
720.676	3572.17
720.863	3693
721.05	3752.39
721.237	3754.44
721.424	3731.91
721.611	3664.33
721.798	3645.9
721.985	3537.35
722.172	3678.66
722.358	3633.61
722.545	3586.51
722.732	3647.94
722.919	3678.66
723.106	3596.75
723.293	3553.74
723.48	3631.56
723.667	3623.37
723.853	3729.86
724.04	3590.6
724.227	3776.97
724.414	3529.16
724.6	3631.56
724.787	3574.22
724.974	3705.29
725.161	3688.9
725.347	3471.82
725.534	3553.74
725.72	3598.79
725.907	3582.41
726.094	3557.83
726.28	3639.75
726.467	3557.83
726.653	3699.14
726.84	3652.04
727.027	3660.23
727.213	3543.5
727.4	3570.12
727.586	3543.5
727.773	3539.4
727.959	3645.9
728.145	3586.51
728.332	3529.16
728.518	3465.68
728.705	3545.55
728.891	3523.02
729.077	3660.23
729.264	3541.45
729.45	3533.26
729.636	3447.24
729.823	3545.55
730.009	3434.96
730.195	3463.63
730.382	3506.63
730.568	3576.27
730.754	3502.54
730.94	3437
731.126	3557.83
731.313	3412.43
731.499	3549.64
731.685	3525.07
731.871	3594.7
732.057	3480.01
732.243	3486.15
732.429	3504.59
732.615	3533.26
732.801	3445.2
732.987	3469.77
733.173	3482.06
733.359	3328.46
733.545	3455.44
733.731	3449.29
733.917	3332.56
734.103	3328.46
734.289	3529.16
734.475	3420.62
734.661	3459.53
734.847	3332.56
735.033	3418.57
735.219	3430.86
735.404	3541.45
735.59	3193.3
735.776	3334.61
735.962	3291.6
736.148	3496.39
736.333	3267.02
736.519	3301.84
736.705	3291.6
736.89	3242.45
737.076	3359.18
737.262	3174.86
737.447	3189.2
737.633	3248.59
737.819	3228.11
738.004	3166.67
738.19	3260.88
738.375	3117.52
738.561	3232.21
738.747	3170.77
738.932	3008.98
739.118	3172.82
739.303	3183.06
739.489	3174.86
739.674	3035.6
739.859	3211.73
740.045	3109.33
740.23	3195.34
740.416	3062.23
740.601	3123.66
740.786	3043.79
740.972	2951.63
741.157	3146.19
741.342	2869.72
741.528	2998.74
741.713	2998.74
741.898	2888.15
742.084	2947.54
742.269	2980.31
742.454	2986.45
742.639	2859.48
742.824	3011.03
743.01	2953.68
743.195	3111.38
743.38	2939.35
743.565	2830.8
743.75	2857.43
743.935	2791.89
744.12	2834.9
744.305	2826.71
744.49	2765.27
744.675	2724.31
744.86	2746.84
745.045	2789.85
745.23	2730.45
745.415	2775.51
745.6	2656.73
745.785	2666.97
745.97	2611.67
746.155	2849.24
746.34	2607.58
746.525	2533.85
746.71	2673.11
746.895	2650.58
747.079	2595.29
747.264	2548.19
747.449	2568.66
747.634	2638.3
747.819	2675.16
748.003	2324.96
748.188	2427.35
748.373	2351.58
748.557	2548.19
748.742	2521.56
748.927	2376.16
749.111	2413.02
749.296	2378.2
749.481	2361.82
749.665	2468.31
749.85	2345.44
750.034	2230.75
750.219	2470.36
750.404	2247.13
750.588	2271.71
750.773	2386.4
750.957	2331.1
751.141	2310.62
751.326	2152.93
751.51	2284
751.695	2128.35
751.879	2116.06
752.064	2081.25
752.248	2157.02
752.432	2273.76
752.617	2281.95
752.801	2105.82
752.985	2060.77
753.17	2142.69
753.354	1948.13
753.538	2081.25
753.722	2038.24
753.907	1991.14
754.091	2087.39
754.275	2054.62
754.459	2005.47
754.643	1890.79
754.828	1872.36
755.012	2011.62
755.196	1905.12
755.38	1892.84
755.564	1825.25
755.748	1833.44
755.932	1798.63
756.116	1911.27
756.3	1896.93
756.484	1958.37
756.668	1898.98
756.852	1802.72
757.036	1823.2
757.22	1763.81
757.404	1698.28
757.588	1710.57
757.772	1673.7
757.956	1774.05
758.14	1843.68
758.323	1561.06
758.507	1812.96
758.691	1688.04
758.875	1679.85
759.059	1716.71
759.242	1616.36
759.426	1698.28
759.61	1677.8
759.794	1685.99
759.977	1640.93
760.161	1788.39
760.345	1751.53
760.528	1563.11
760.712	1587.69
760.895	1692.13
761.079	1593.83
761.263	1542.63
761.446	1438.19
761.63	1493.48
761.813	1632.74
761.997	1552.87
762.18	1499.63
762.364	1516.01
762.547	1352.17
762.731	1487.34
762.914	1524.2
763.098	1425.9
763.281	1429.99
763.464	1518.06
763.648	1415.66
763.831	1436.14
764.015	1438.19
764.198	1411.56
764.381	1466.86
764.564	1497.58
764.748	1364.46
764.931	1362.41
765.114	1352.17
765.297	1425.9
765.481	1300.97
765.664	1370.6
765.847	1370.6
766.03	1419.75
766.213	1364.46
766.397	1333.74
766.58	1321.45
766.763	1368.56
766.946	1384.94
767.129	1358.32
767.312	1286.64
767.495	1362.41
767.678	1262.06
767.861	1225.2
768.044	1282.54
768.227	1266.16
768.41	1317.36
768.593	1337.84
768.776	1319.4
768.959	1329.64
769.142	1300.97
769.324	1241.58
769.507	1335.79
769.69	1247.72
769.873	1321.45
770.056	1358.32
770.239	1194.48
770.421	1341.93
770.604	1257.96
770.787	1286.64
770.97	1290.73
771.152	1157.61
771.335	1292.78
771.518	1102.32
771.7	1219.05
771.883	1278.44
772.066	1098.22
772.248	1221.1
772.431	1313.26
772.613	1237.49
772.796	1094.13
772.978	1157.61
773.161	1151.47
773.343	1130.99
773.526	1116.65
773.708	1022.45
773.891	1053.17
774.073	1122.8
774.256	1122.8
774.438	1057.26
774.621	1094.13
774.803	1100.27
774.985	1087.98
775.168	1100.27
775.35	1081.84
775.532	1047.02
775.715	1051.12
775.897	1016.3
776.079	1036.78
776.261	1090.03
776.444	1049.07
776.626	1022.45
776.808	918
776.99	920.05
777.173	993.78
777.355	950.77
777.537	1065.46
777.719	1036.78
777.901	891.38
778.083	891.38
778.265	858.61
778.447	942.58
778.629	932.34
778.811	952.82
778.993	868.85
779.175	897.52
779.357	899.57
779.539	881.14
779.721	948.72
779.903	893.43
780.085	844.28
780.267	840.18
780.449	805.36
780.631	952.82
780.812	1001.97
780.994	815.6
781.176	784.88
781.358	844.28
781.54	764.4
781.721	858.61
781.903	831.99
782.085	834.04
782.267	807.41
782.448	780.79
782.63	756.21
782.812	834.04
782.993	748.02
783.175	766.45
783.357	762.36
783.538	725.49
783.72	725.49
783.901	805.36
784.083	678.39
784.264	735.73
784.446	748.02
784.627	608.76
784.809	811.51
784.99	686.58
785.172	680.44
785.353	653.81
785.535	694.77
785.716	662.01
785.897	559.61
786.079	569.85
786.26	686.58
786.441	569.85
786.623	565.75
786.804	627.19
786.985	565.75
787.167	596.47
787.348	657.91
787.529	610.81
787.71	666.1
787.891	606.71
788.073	651.77
788.254	514.55
788.435	625.14
788.616	621.05
788.797	553.46
788.978	600.57
789.159	586.23
789.34	621.05
789.522	522.74
789.703	473.59
789.884	627.19
790.065	588.28
790.246	573.94
790.427	492.02
790.607	575.99
790.788	526.84
790.969	557.56
791.15	485.88
791.331	547.32
791.512	428.54
791.693	469.5
791.874	481.78
792.054	649.72
792.235	457.21
792.416	412.15
792.597	408.06
792.778	530.94
792.958	584.18
793.139	453.11
793.32	449.02
793.5	477.69
793.681	537.08
793.862	545.27
794.042	383.48
794.223	385.53
794.404	438.78
794.584	354.81
794.765	426.49
794.945	471.54
795.126	459.26
795.306	498.17
795.487	391.67
795.667	428.54
795.848	444.92
796.028	340.47
796.209	467.45
796.389	406.01
796.57	326.14
796.75	363
796.93	406.01
797.111	436.73
797.291	324.09
797.471	420.35
797.652	303.61
797.832	422.39
798.012	383.48
798.192	305.66
798.373	307.71
798.553	348.67
798.733	444.92
798.913	360.95
799.093	358.91
799.274	385.53
799.454	393.72
799.634	385.53
799.814	391.67
799.994	389.63
800.174	430.59
800.354	336.38
800.534	258.56
800.714	344.57
800.894	258.56
801.074	358.91
801.254	285.18
801.434	401.91
801.614	309.76
801.794	211.45
801.974	1290.73
802.154	272.89
802.334	397.82
802.514	252.41
802.693	297.47
802.873	283.13
803.053	350.71
803.233	344.57
803.413	258.56
803.592	211.45
803.772	219.64
803.952	367.1
804.131	254.46
804.311	363
804.491	344.57
804.67	283.13
804.85	231.93
805.03	303.61
805.209	301.56
805.389	385.53
805.568	229.88
805.748	252.41
805.928	281.08
806.107	309.76
806.287	320
806.466	223.74
806.646	262.65
806.825	322.04
807.004	328.19
807.184	260.6
807.363	279.04
807.543	328.19
807.722	309.76
807.901	289.28
808.081	317.95
808.26	164.35
808.439	313.85
808.619	303.61
808.798	201.21
808.977	262.65
809.156	242.17
809.336	233.98
809.515	252.41
809.694	276.99
809.873	219.64
810.052	285.18
810.231	211.45
810.411	248.32
810.59	213.5
810.769	307.71
810.948	238.08
811.127	162.3
811.306	229.88
811.485	252.41
811.664	252.41
811.843	205.31
812.022	268.8
812.201	248.32
812.38	139.77
812.559	270.84
812.737	221.69
812.916	166.4
813.095	184.83
813.274	227.84
813.453	168.45
813.632	231.93
813.811	270.84
813.989	125.44
814.168	217.6
814.347	150.01
814.526	188.93
814.704	168.45
814.883	225.79
815.062	129.53
815.24	233.98
815.419	111.1
815.598	162.3
815.776	186.88
815.955	162.3
816.133	178.69
816.312	242.17
816.49	160.25
816.669	162.3
816.847	180.73
817.026	205.31
817.204	147.97
817.383	201.21
817.561	98.81
817.74	145.92
817.918	176.64
818.097	135.68
818.275	133.63
818.453	186.88
818.632	147.97
818.81	180.73
818.988	115.2
819.167	203.26
819.345	133.63
819.523	98.81
819.701	131.58
819.879	221.69
820.058	115.2
820.236	113.15
820.414	113.15
820.592	94.72
820.77	168.45
820.948	145.92
821.127	137.73
821.305	203.26
821.483	113.15
821.661	174.59
821.839	90.62
822.017	162.3
822.195	117.25
822.373	156.16
822.551	174.59
822.729	188.93
822.907	109.05
823.085	162.3
823.262	137.73
823.44	195.07
823.618	72.19
823.796	117.25
823.974	96.77
824.152	92.67
824.329	100.86
824.507	127.49
824.685	168.45
824.863	150.01
825.04	139.77
825.218	162.3
825.396	154.11
825.574	166.4
825.751	135.68
825.929	162.3
826.107	43.52
826.284	102.91
826.462	180.73
826.639	59.9
826.817	111.1
826.994	68.09
827.172	55.81
827.349	190.97
827.527	166.4
827.704	115.2
827.882	152.06
828.059	66.05
828.237	49.66
828.414	117.25
828.591	29.18
828.769	127.49
828.946	92.67
829.124	98.81
829.301	166.4
829.478	92.67
829.655	170.49
829.833	211.45
830.01	53.76
830.187	125.44
830.364	107.01
830.542	51.71
830.719	125.44
830.896	82.43
831.073	119.29
831.25	78.33
831.427	92.67
831.604	162.3
831.782	6.66
831.959	98.81
832.136	137.73
832.313	145.92
832.49	23.04
832.667	25.09
832.844	51.71
833.021	158.21
833.198	162.3
833.374	82.43
833.551	82.43
833.728	74.24
833.905	72.19
834.082	94.72
834.259	125.44
834.436	129.53
834.612	90.62
834.789	135.68
834.966	86.53
835.143	31.23
835.319	6.66
835.496	49.66
835.673	43.52
835.85	156.16
836.026	162.3
836.203	98.81
836.38	66.05
836.556	27.14
836.733	41.47
836.909	176.64
837.086	47.62
837.262	37.38
837.439	152.06
837.616	25.09
837.792	55.81
837.968	47.62
838.145	82.43
838.321	27.14
838.498	90.62
838.674	14.85
838.851	18.94
839.027	43.52
839.203	14.85
839.38	131.58
839.556	98.81
839.732	143.87
839.909	57.86
840.085	96.77
840.261	4.61
840.437	51.71
840.614	29.18
840.79	119.29
840.966	74.24
841.142	-36.35
841.318	20.99
841.494	57.86
841.671	78.33
841.847	45.57
842.023	6.66
842.199	47.62
842.375	35.33
842.551	-15.87
842.727	-17.92
842.903	141.82
843.079	-3.58
843.255	49.66
843.431	55.81
843.607	43.52
843.783	-48.64
843.959	45.57
844.134	37.38
844.31	72.19
844.486	82.43
844.662	35.33
844.838	107.01
845.013	2.56
845.189	121.34
845.365	57.86
845.541	-15.87
845.716	90.62
845.892	70.14
846.068	12.8
846.244	70.14
846.419	76.29
846.595	-52.74
846.77	-9.73
846.946	131.58
847.122	72.19
847.297	-3.58
847.473	66.05
847.648	-28.16
847.824	37.38
847.999	25.09
848.175	2.56
848.35	109.05
848.526	156.16
848.701	14.85
848.876	107.01
849.052	141.82
849.227	-9.73
849.403	53.76
849.578	18.94
849.753	35.33
849.929	47.62
850.104	-13.82
850.279	8.7
850.454	90.62
850.63	74.24
850.805	51.71
850.98	68.09
851.155	27.14
851.33	27.14
851.505	14.85
851.681	98.81
851.856	45.57
852.031	39.42
852.206	152.06
852.381	10.75
852.556	12.8
852.731	31.23
852.906	45.57
853.081	-26.11
853.256	111.1
853.431	31.23
853.606	-17.92
853.781	-28.16
853.956	-5.63
854.131	12.8
854.305	18.94
854.48	12.8
854.655	-19.97
854.83	-19.97
855.005	0.51
855.18	57.86
855.354	-15.87
855.529	64
855.704	8.7
855.879	84.48
856.053	-60.93
856.228	-1.54
856.403	33.28
856.577	23.04
856.752	-11.78
856.926	51.71
857.101	53.76
857.276	18.94
857.45	51.71
857.625	29.18
857.799	6.66
857.974	14.85
858.148	-30.21
858.323	49.66
858.497	20.99
858.672	31.23
858.846	-54.78
859.02	70.14
859.195	0.51
859.369	20.99
859.543	0.51
859.718	70.14
859.892	16.9
860.066	-30.21
860.241	10.75
860.415	51.71
860.589	2.56
860.763	-30.21
860.938	16.9
861.112	2.56
861.286	2.56
861.46	-24.06
861.634	-13.82
861.808	31.23
861.982	57.86
862.157	8.7
862.331	-19.97
862.505	-28.16
862.679	-34.3
862.853	12.8
863.027	-5.63
863.201	31.23
863.375	-42.5
863.549	100.86
863.722	107.01
863.896	47.62
864.07	-5.63
864.244	64
864.418	74.24
864.592	4.61
864.766	18.94
864.939	-22.02
865.113	-24.06
865.287	80.38
865.461	-24.06
865.634	59.9
865.808	31.23
865.982	-3.58
866.156	70.14
866.329	-19.97
866.503	14.85
866.676	14.85
866.85	37.38
867.024	-85.5
867.197	68.09
867.371	-9.73
867.544	29.18
867.718	-28.16
867.891	53.76
868.065	-54.78
868.238	39.42
868.412	12.8
868.585	-52.74
868.759	70.14
868.932	-69.12
869.105	41.47
869.279	-22.02
869.452	-24.06
869.625	74.24
869.799	47.62
869.972	-32.26
870.145	72.19
870.319	76.29
870.492	14.85
870.665	-19.97
870.838	-30.21
871.011	-52.74
871.185	33.28
871.358	-34.3
871.531	94.72
871.704	-15.87
871.877	25.09
872.05	-7.68
872.223	-48.64
872.396	70.14
872.569	107.01
872.742	-79.36
872.915	70.14
873.088	-15.87
873.261	-56.83
873.434	78.33
873.607	12.8
873.78	49.66
873.953	-26.11
874.126	-11.78
874.299	45.57
874.471	-50.69
874.644	-42.5
874.817	12.8
874.99	47.62
875.163	20.99
875.335	-46.59
875.508	-46.59
875.681	25.09
875.853	-93.69
876.026	12.8
876.199	23.04
876.371	-28.16
876.544	-42.5
876.717	-19.97
876.889	-17.92
877.062	53.76
877.234	-26.11
877.407	-89.6
877.579	18.94
877.752	-32.26
877.924	27.14
878.097	43.52
878.269	-7.68
878.442	57.86
878.614	-13.82
878.786	-17.92
878.959	-40.45
879.131	-75.26
879.303	-62.98
879.476	20.99
879.648	53.76
879.82	33.28
879.993	-28.16
880.165	12.8
880.337	-103.93
880.509	-13.82
880.681	23.04
880.854	-30.21
881.026	-19.97
881.198	66.05
881.37	4.61
881.542	14.85
881.714	-1.54
881.886	-11.78
882.058	16.9
882.23	-34.3
882.402	35.33
882.574	64
882.746	49.66
882.918	51.71
883.09	6.66
883.262	-42.5
883.434	-54.78
883.606	-1.54
883.778	-38.4
883.95	31.23
884.122	-5.63
884.293	-15.87
884.465	-26.11
884.637	68.09
884.809	-77.31
884.98	37.38
885.152	-7.68
885.324	-11.78
885.496	-50.69
885.667	-46.59
885.839	-62.98
886.011	72.19
886.182	41.47
886.354	-30.21
886.525	14.85
886.697	14.85
886.869	29.18
887.04	-89.6
887.212	35.33
887.383	18.94
887.555	-42.5
887.726	-11.78
887.897	-1.54
888.069	-26.11
888.24	-11.78
888.412	8.7
888.583	-24.06
888.754	-30.21
888.926	-101.89
889.097	-5.63
889.268	-73.21
889.44	-1.54
889.611	47.62
889.782	4.61
889.953	-71.17
890.125	115.2
890.296	-30.21
890.467	-73.21
890.638	-40.45
890.809	-15.87
890.98	-9.73
891.151	-9.73
891.323	74.24
891.494	27.14
891.665	-11.78
891.836	20.99
892.007	12.8
892.178	4.61
892.349	-26.11
892.52	-83.45
892.691	-5.63
892.862	-42.5
893.032	-42.5
893.203	-28.16
893.374	-22.02
893.545	61.95
893.716	-73.21
893.887	23.04
894.057	-56.83
894.228	-3.58
894.399	-36.35
894.57	25.09
894.74	-34.3
894.911	-19.97
895.082	-17.92
895.253	10.75
895.423	47.62
895.594	-3.58
895.764	-1.54
895.935	-13.82
896.106	14.85
896.276	-7.68
896.447	55.81
896.617	-83.45
896.788	-50.69
896.958	-34.3
897.129	-19.97
897.299	-17.92
897.47	68.09
897.64	-17.92
897.81	-99.84
897.981	25.09
898.151	-54.78
898.322	-7.68
898.492	-26.11
898.662	55.81
898.832	-1.54
899.003	-19.97
899.173	31.23
899.343	-114.17
899.513	-15.87
