Data from USB4F104151__65__12-12-31-644.txt Node

Date: Fri Mar 14 12:12:31 EDT 2025
User: louis
Spectrometer: USB4F10415
Trigger mode: 4
Integration Time (sec): 5.000000E-2
Scans to average: 1
Electric dark correction enabled: true
Nonlinearity correction enabled: false
Boxcar width: 0
XAxis mode: Wavelengths
Number of Pixels in Spectrum: 3648
>>>>>Begin Spectral Data<<<<<
178.204	-214.18
178.424	-214.18
178.644	-214.18
178.864	-173.22
179.084	-208.04
179.304	35.67
179.524	0.85
179.744	-11.43
179.964	-5.29
180.184	-46.25
180.404	0.85
180.624	-15.53
180.844	-7.34
181.064	-29.87
181.283	68.44
181.503	-19.63
181.723	29.52
181.943	-13.48
182.163	54.1
182.383	-40.11
182.602	68.44
182.822	50
183.042	39.76
183.262	50
183.482	60.24
183.701	62.29
183.921	60.24
184.141	-31.91
184.361	15.19
184.58	47.96
184.8	13.14
185.02	23.38
185.239	-11.43
185.459	47.96
185.679	25.43
185.898	-17.58
186.118	68.44
186.338	78.68
186.557	76.63
186.777	-66.73
186.997	105.3
187.216	23.38
187.436	27.48
187.655	29.52
187.875	72.53
188.095	9.05
188.314	62.29
188.534	113.49
188.753	-23.72
188.973	54.1
189.192	88.92
189.412	-1.19
189.631	39.76
189.851	76.63
190.07	64.34
190.29	-33.96
190.509	23.38
190.729	29.52
190.948	43.86
191.168	158.55
191.387	123.73
191.607	-11.43
191.826	35.67
192.045	23.38
192.265	17.24
192.484	119.64
192.704	0.85
192.923	-66.73
193.142	64.34
193.362	23.38
193.581	97.11
193.8	56.15
194.02	127.83
194.239	15.19
194.458	7
194.678	11.09
194.897	86.87
195.116	37.72
195.335	-11.43
195.555	97.11
195.774	39.76
195.993	54.1
196.212	-11.43
196.432	19.29
196.651	7
196.87	19.29
197.089	107.35
197.308	0.85
197.528	95.06
197.747	-21.67
197.966	-3.24
198.185	125.78
198.404	13.14
198.623	29.52
198.842	64.34
199.062	115.54
199.281	95.06
199.5	19.29
199.719	-21.67
199.938	25.43
200.157	17.24
200.376	93.01
200.595	9.05
200.814	43.86
201.033	-46.25
201.252	13.14
201.471	37.72
201.69	101.2
201.909	64.34
202.128	15.19
202.347	66.39
202.566	72.53
202.785	78.68
203.004	-19.63
203.223	158.55
203.442	41.81
203.661	-3.24
203.879	27.48
204.098	-9.39
204.317	35.67
204.536	39.76
204.755	84.82
204.974	23.38
205.193	23.38
205.411	162.64
205.63	-9.39
205.849	4.95
206.068	0.85
206.287	-50.35
206.505	50
206.724	13.14
206.943	-64.68
207.162	-31.91
207.381	74.58
207.599	41.81
207.818	-54.44
208.037	7
208.255	-5.29
208.474	74.58
208.693	23.38
208.911	50
209.13	23.38
209.349	50
209.567	80.72
209.786	76.63
210.005	47.96
210.223	60.24
210.442	-76.97
210.661	35.67
210.879	23.38
211.098	74.58
211.316	-40.11
211.535	105.3
211.753	62.29
211.972	47.96
212.191	-58.54
212.409	41.81
212.628	9.05
212.846	54.1
213.065	76.63
213.283	74.58
213.502	52.05
213.72	84.82
213.938	31.57
214.157	2.9
214.375	47.96
214.594	-15.53
214.812	125.78
215.031	52.05
215.249	56.15
215.467	37.72
215.686	19.29
215.904	45.91
216.122	-3.24
216.341	121.68
216.559	58.2
216.778	86.87
216.996	68.44
217.214	-19.63
217.432	66.39
217.651	25.43
217.869	-25.77
218.087	47.96
218.306	-21.67
218.524	88.92
218.742	-1.19
218.96	78.68
219.179	-3.24
219.397	74.58
219.615	131.92
219.833	95.06
220.051	0.85
220.27	60.24
220.488	-11.43
220.706	90.96
220.924	-9.39
221.142	7
221.36	86.87
221.578	62.29
221.796	2.9
222.015	76.63
222.233	113.49
222.451	86.87
222.669	-31.91
222.887	82.77
223.105	-38.06
223.323	35.67
223.541	-13.48
223.759	9.05
223.977	31.57
224.195	47.96
224.413	-29.87
224.631	23.38
224.849	13.14
225.067	125.78
225.285	-23.72
225.503	-1.19
225.721	-48.3
225.939	7
226.157	50
226.375	176.98
226.592	60.24
226.81	31.57
227.028	52.05
227.246	88.92
227.464	-54.44
227.682	52.05
227.9	103.25
228.117	80.72
228.335	21.33
228.553	58.2
228.771	13.14
228.989	33.62
229.206	95.06
229.424	31.57
229.642	-1.19
229.86	-36.01
230.077	103.25
230.295	31.57
230.513	39.76
230.731	70.48
230.948	76.63
231.166	123.73
231.384	50
231.601	25.43
231.819	133.97
232.037	4.95
232.254	-50.35
232.472	-46.25
232.689	2.9
232.907	21.33
233.125	-33.96
233.342	25.43
233.56	9.05
233.777	17.24
233.995	78.68
234.213	7
234.43	95.06
234.648	-3.24
234.865	-11.43
235.083	-15.53
235.3	54.1
235.518	62.29
235.735	9.05
235.953	-9.39
236.17	17.24
236.388	64.34
236.605	-1.19
236.822	21.33
237.04	31.57
237.257	54.1
237.475	82.77
237.692	52.05
237.909	35.67
238.127	-7.34
238.344	41.81
238.562	37.72
238.779	25.43
238.996	-19.63
239.214	-68.78
239.431	133.97
239.648	35.67
239.865	21.33
240.083	2.9
240.3	70.48
240.517	-3.24
240.735	13.14
240.952	78.68
241.169	64.34
241.386	27.48
241.603	27.48
241.821	41.81
242.038	29.52
242.255	33.62
242.472	-11.43
242.689	72.53
242.907	90.96
243.124	17.24
243.341	-11.43
243.558	31.57
243.775	-23.72
243.992	-48.3
244.209	37.72
244.426	64.34
244.643	23.38
244.86	-15.53
245.078	64.34
245.295	2.9
245.512	-1.19
245.729	4.95
245.946	37.72
246.163	-1.19
246.38	97.11
246.597	84.82
246.814	31.57
247.031	27.48
247.248	-3.24
247.464	68.44
247.681	62.29
247.898	72.53
248.115	29.52
248.332	-48.3
248.549	37.72
248.766	107.35
248.983	31.57
249.2	93.01
249.417	150.36
249.633	-29.87
249.85	39.76
250.067	45.91
250.284	54.1
250.501	105.3
250.717	47.96
250.934	33.62
251.151	70.48
251.368	-17.58
251.585	105.3
251.801	56.15
252.018	56.15
252.235	-7.34
252.451	-54.44
252.668	0.85
252.885	62.29
253.102	27.48
253.318	-13.48
253.535	-42.15
253.752	23.38
253.968	54.1
254.185	-3.24
254.401	27.48
254.618	39.76
254.835	33.62
255.051	99.16
255.268	-21.67
255.484	109.4
255.701	15.19
255.917	-19.63
256.134	-27.82
256.351	-52.39
256.567	-13.48
256.784	37.72
257	-52.39
257.217	56.15
257.433	90.96
257.65	95.06
257.866	45.91
258.082	25.43
258.299	-5.29
258.515	66.39
258.732	-23.72
258.948	-15.53
259.165	17.24
259.381	-79.02
259.597	45.91
259.814	41.81
260.03	-1.19
260.246	-13.48
260.463	72.53
260.679	78.68
260.895	-13.48
261.112	47.96
261.328	0.85
261.544	-15.53
261.761	93.01
261.977	-48.3
262.193	-31.91
262.409	60.24
262.626	-17.58
262.842	15.19
263.058	4.95
263.274	29.52
263.49	2.9
263.707	29.52
263.923	68.44
264.139	35.67
264.355	17.24
264.571	19.29
264.787	-1.19
265.004	93.01
265.22	39.76
265.436	-21.67
265.652	-3.24
265.868	27.48
266.084	-3.24
266.3	50
266.516	13.14
266.732	-15.53
266.948	95.06
267.164	19.29
267.38	-25.77
267.596	29.52
267.812	93.01
268.028	54.1
268.244	-25.77
268.46	-25.77
268.676	-31.91
268.892	33.62
269.108	-54.44
269.324	15.19
269.54	21.33
269.756	31.57
269.972	-95.4
270.188	37.72
270.403	25.43
270.619	17.24
270.835	41.81
271.051	103.25
271.267	70.48
271.483	29.52
271.698	-7.34
271.914	50
272.13	-27.82
272.346	11.09
272.562	19.29
272.777	62.29
272.993	68.44
273.209	11.09
273.425	-1.19
273.64	13.14
273.856	109.4
274.072	-1.19
274.287	21.33
274.503	-36.01
274.719	72.53
274.934	-9.39
275.15	37.72
275.366	31.57
275.581	29.52
275.797	62.29
276.012	39.76
276.228	-85.16
276.444	41.81
276.659	13.14
276.875	-25.77
277.09	23.38
277.306	97.11
277.521	11.09
277.737	86.87
277.952	136.02
278.168	-54.44
278.383	84.82
278.599	25.43
278.814	154.45
279.03	37.72
279.245	-5.29
279.461	-5.29
279.676	68.44
279.892	-21.67
280.107	-7.34
280.322	50
280.538	-36.01
280.753	-9.39
280.969	123.73
281.184	27.48
281.399	56.15
281.615	93.01
281.83	47.96
282.045	-33.96
282.26	-29.87
282.476	45.91
282.691	127.83
282.906	-19.63
283.122	47.96
283.337	2.9
283.552	-44.2
283.767	-40.11
283.983	78.68
284.198	7
284.413	93.01
284.628	13.14
284.843	45.91
285.058	78.68
285.274	21.33
285.489	-87.21
285.704	105.3
285.919	58.2
286.134	78.68
286.349	-9.39
286.564	11.09
286.779	82.77
286.995	-60.59
287.21	-21.67
287.425	78.68
287.64	-25.77
287.855	68.44
288.07	-40.11
288.285	72.53
288.5	88.92
288.715	37.72
288.93	27.48
289.145	29.52
289.36	93.01
289.575	-58.54
289.79	136.02
290.004	-27.82
290.219	84.82
290.434	107.35
290.649	-23.72
290.864	-68.78
291.079	43.86
291.294	45.91
291.509	41.81
291.724	-19.63
291.938	29.52
292.153	-5.29
292.368	9.05
292.583	13.14
292.798	31.57
293.012	-3.24
293.227	47.96
293.442	62.29
293.657	52.05
293.871	86.87
294.086	0.85
294.301	90.96
294.516	88.92
294.73	23.38
294.945	35.67
295.16	-15.53
295.374	119.64
295.589	93.01
295.804	31.57
296.018	123.73
296.233	70.48
296.447	-62.63
296.662	50
296.877	111.44
297.091	11.09
297.306	21.33
297.52	19.29
297.735	80.72
297.949	7
298.164	33.62
298.378	11.09
298.593	-3.24
298.807	0.85
299.022	13.14
299.236	95.06
299.451	47.96
299.665	33.62
299.88	39.76
300.094	19.29
300.309	-44.2
300.523	-23.72
300.737	21.33
300.952	37.72
301.166	-36.01
301.381	-44.2
301.595	54.1
301.809	-42.15
302.024	-17.58
302.238	-3.24
302.452	13.14
302.667	-23.72
302.881	52.05
303.095	84.82
303.309	23.38
303.524	-13.48
303.738	54.1
303.952	-7.34
304.166	19.29
304.381	-40.11
304.595	97.11
304.809	-5.29
305.023	35.67
305.237	-38.06
305.452	-5.29
305.666	82.77
305.88	125.78
306.094	129.88
306.308	47.96
306.522	47.96
306.736	17.24
306.95	33.62
307.164	86.87
307.379	25.43
307.593	58.2
307.807	117.59
308.021	-23.72
308.235	17.24
308.449	-33.96
308.663	-5.29
308.877	150.36
309.091	-3.24
309.305	86.87
309.519	-58.54
309.733	136.02
309.947	-7.34
310.161	27.48
310.374	21.33
310.588	27.48
310.802	-15.53
311.016	-5.29
311.23	23.38
311.444	62.29
311.658	-3.24
311.872	121.68
312.085	93.01
312.299	99.16
312.513	54.1
312.727	107.35
312.941	-17.58
313.154	70.48
313.368	95.06
313.582	-27.82
313.796	86.87
314.009	35.67
314.223	43.86
314.437	17.24
314.651	95.06
314.864	68.44
315.078	31.57
315.292	2.9
315.505	-3.24
315.719	29.52
315.933	45.91
316.146	11.09
316.36	15.19
316.573	101.2
316.787	47.96
317.001	76.63
317.214	-95.4
317.428	27.48
317.641	-50.35
317.855	37.72
318.068	52.05
318.282	29.52
318.495	144.21
318.709	11.09
318.922	60.24
319.136	68.44
319.349	52.05
319.563	64.34
319.776	29.52
319.99	-23.72
320.203	15.19
320.417	52.05
320.63	117.59
320.843	109.4
321.057	39.76
321.27	52.05
321.483	15.19
321.697	150.36
321.91	47.96
322.124	109.4
322.337	29.52
322.55	88.92
322.763	2.9
322.977	72.53
323.19	13.14
323.403	4.95
323.617	119.64
323.83	56.15
324.043	-31.91
324.256	105.3
324.469	-38.06
324.683	60.24
324.896	19.29
325.109	95.06
325.322	-15.53
325.535	78.68
325.748	64.34
325.962	7
326.175	52.05
326.388	136.02
326.601	127.83
326.814	33.62
327.027	70.48
327.24	107.35
327.453	17.24
327.666	23.38
327.879	11.09
328.092	45.91
328.305	11.09
328.518	72.53
328.731	0.85
328.944	45.91
329.157	52.05
329.37	0.85
329.583	119.64
329.796	70.48
330.009	-5.29
330.222	9.05
330.435	60.24
330.648	-5.29
330.861	45.91
331.073	43.86
331.286	68.44
331.499	113.49
331.712	41.81
331.925	-7.34
332.138	68.44
332.35	119.64
332.563	9.05
332.776	68.44
332.989	-25.77
333.202	56.15
333.414	93.01
333.627	23.38
333.84	47.96
334.053	125.78
334.265	-9.39
334.478	-31.91
334.691	60.24
334.903	11.09
335.116	70.48
335.329	15.19
335.541	52.05
335.754	41.81
335.966	15.19
336.179	109.4
336.392	-17.58
336.604	23.38
336.817	-9.39
337.029	62.29
337.242	-27.82
337.454	56.15
337.667	90.96
337.88	88.92
338.092	70.48
338.305	66.39
338.517	37.72
338.729	93.01
338.942	84.82
339.154	-17.58
339.367	7
339.579	56.15
339.792	35.67
340.004	39.76
340.217	-17.58
340.429	74.58
340.641	-15.53
340.854	2.9
341.066	29.52
341.278	58.2
341.491	121.68
341.703	60.24
341.915	-11.43
342.128	99.16
342.34	27.48
342.552	-13.48
342.764	93.01
342.977	-7.34
343.189	37.72
343.401	15.19
343.613	62.29
343.826	33.62
344.038	-7.34
344.25	47.96
344.462	84.82
344.674	54.1
344.886	-42.15
345.099	41.81
345.311	43.86
345.523	21.33
345.735	-56.49
345.947	56.15
346.159	54.1
346.371	31.57
346.583	13.14
346.795	78.68
347.007	33.62
347.219	60.24
347.431	13.14
347.643	25.43
347.855	21.33
348.067	152.4
348.279	-36.01
348.491	95.06
348.703	7
348.915	21.33
349.127	-50.35
349.339	54.1
349.551	-5.29
349.763	29.52
349.975	90.96
350.187	103.25
350.399	66.39
350.61	117.59
350.822	-13.48
351.034	121.68
351.246	70.48
351.458	97.11
351.669	127.83
351.881	13.14
352.093	17.24
352.305	74.58
352.517	101.2
352.728	72.53
352.94	74.58
353.152	117.59
353.363	2.9
353.575	131.92
353.787	123.73
353.999	80.72
354.21	119.64
354.422	19.29
354.633	21.33
354.845	41.81
355.057	45.91
355.268	72.53
355.48	127.83
355.692	64.34
355.903	68.44
356.115	4.95
356.326	4.95
356.538	117.59
356.749	78.68
356.961	136.02
357.172	-19.63
357.384	-11.43
357.595	201.55
357.807	29.52
358.018	-36.01
358.23	43.86
358.441	88.92
358.653	76.63
358.864	15.19
359.075	43.86
359.287	23.38
359.498	107.35
359.709	29.52
359.921	25.43
360.132	68.44
360.344	86.87
360.555	11.09
360.766	-1.19
360.977	45.91
361.189	86.87
361.4	15.19
361.611	-11.43
361.823	64.34
362.034	64.34
362.245	11.09
362.456	25.43
362.667	125.78
362.879	113.49
363.09	54.1
363.301	23.38
363.512	72.53
363.723	-3.24
363.935	-54.44
364.146	72.53
364.357	-15.53
364.568	105.3
364.779	-1.19
364.99	45.91
365.201	9.05
365.412	80.72
365.623	2.9
365.834	-3.24
366.045	88.92
366.256	111.44
366.467	-9.39
366.678	25.43
366.889	58.2
367.1	95.06
367.311	88.92
367.522	-44.2
367.733	68.44
367.944	70.48
368.155	39.76
368.366	60.24
368.577	176.98
368.788	80.72
368.999	21.33
369.209	17.24
369.42	172.88
369.631	162.64
369.842	90.96
370.053	27.48
370.264	84.82
370.474	13.14
370.685	76.63
370.896	37.72
371.107	47.96
371.317	129.88
371.528	43.86
371.739	68.44
371.95	121.68
372.16	45.91
372.371	-3.24
372.582	127.83
372.792	35.67
373.003	50
373.214	-5.29
373.424	78.68
373.635	13.14
373.846	37.72
374.056	27.48
374.267	-36.01
374.477	82.77
374.688	7
374.898	121.68
375.109	29.52
375.319	58.2
375.53	62.29
375.74	39.76
375.951	41.81
376.161	50
376.372	64.34
376.582	2.9
376.793	113.49
377.003	60.24
377.214	-11.43
377.424	103.25
377.635	9.05
377.845	15.19
378.055	70.48
378.266	50
378.476	21.33
378.686	84.82
378.897	80.72
379.107	105.3
379.317	58.2
379.528	21.33
379.738	25.43
379.948	-17.58
380.158	109.4
380.369	43.86
380.579	101.2
380.789	11.09
380.999	39.76
381.21	144.21
381.42	162.64
381.63	70.48
381.84	86.87
382.05	93.01
382.261	58.2
382.471	164.69
382.681	-17.58
382.891	136.02
383.101	43.86
383.311	2.9
383.521	62.29
383.731	86.87
383.941	66.39
384.151	54.1
384.361	74.58
384.571	7
384.781	52.05
384.991	156.5
385.201	105.3
385.411	64.34
385.621	29.52
385.831	-5.29
386.041	9.05
386.251	115.54
386.461	101.2
386.671	-9.39
386.881	74.58
387.091	62.29
387.301	88.92
387.511	-9.39
387.72	39.76
387.93	84.82
388.14	-29.87
388.35	113.49
388.56	138.07
388.769	25.43
388.979	80.72
389.189	29.52
389.399	52.05
389.609	58.2
389.818	86.87
390.028	13.14
390.238	58.2
390.447	58.2
390.657	86.87
390.867	82.77
391.076	33.62
391.286	47.96
391.496	109.4
391.705	88.92
391.915	78.68
392.125	127.83
392.334	-5.29
392.544	115.54
392.753	41.81
392.963	66.39
393.172	119.64
393.382	66.39
393.591	146.26
393.801	-1.19
394.01	160.59
394.22	50
394.429	107.35
394.639	60.24
394.848	37.72
395.058	101.2
395.267	45.91
395.477	123.73
395.686	142.16
395.895	158.55
396.105	166.74
396.314	93.01
396.524	142.16
396.733	115.54
396.942	207.7
397.152	150.36
397.361	78.68
397.57	107.35
397.78	129.88
397.989	170.83
398.198	224.08
398.407	76.63
398.617	146.26
398.826	56.15
399.035	150.36
399.244	129.88
399.453	156.5
399.663	183.12
399.872	217.94
400.081	93.01
400.29	234.32
400.499	84.82
400.708	222.03
400.917	74.58
401.127	103.25
401.336	131.92
401.545	191.31
401.754	154.45
401.963	234.32
402.172	170.83
402.381	123.73
402.59	121.68
402.799	199.51
403.008	242.51
403.217	152.4
403.426	168.79
403.635	179.03
403.844	174.93
404.053	123.73
404.262	230.23
404.471	240.47
404.68	150.36
404.888	203.6
405.097	115.54
405.306	244.56
405.515	295.76
405.724	95.06
405.933	228.18
406.142	273.23
406.35	250.71
406.559	170.83
406.768	250.71
406.977	293.71
407.185	252.75
407.394	256.85
407.603	222.03
407.812	308.05
408.02	320.34
408.229	303.95
408.438	295.76
408.646	351.06
408.855	269.14
409.064	363.34
409.272	359.25
409.481	467.79
409.69	394.06
409.898	437.07
410.107	346.96
410.315	471.89
410.524	478.03
410.733	435.02
410.941	408.4
411.15	637.77
411.358	512.85
411.567	619.34
411.775	533.33
411.984	600.91
412.192	545.61
412.401	652.11
412.609	676.68
412.818	754.51
413.026	711.5
413.234	660.3
413.443	752.46
413.651	801.61
413.86	826.18
414.068	858.95
414.276	875.34
414.485	854.86
414.693	955.21
414.901	1000.26
415.11	924.49
415.318	971.59
415.526	1108.8
415.734	1022.79
415.943	1145.67
416.151	1205.06
416.359	1176.39
416.567	1241.92
416.776	1278.79
416.984	1338.18
417.192	1381.18
417.4	1381.18
417.608	1315.65
417.817	1436.48
418.025	1600.32
418.233	1786.68
418.441	1475.39
418.649	1723.2
418.857	1778.49
419.065	1835.83
419.273	1817.4
419.481	2026.29
419.689	1977.14
419.897	2050.87
420.105	2122.55
420.313	2190.13
420.521	2308.91
420.729	2407.22
420.937	2401.07
421.145	2505.52
421.353	2644.78
421.561	2773.8
421.769	2837.29
421.977	2868.01
422.185	2949.93
422.393	3009.32
422.601	3232.55
422.809	3205.92
423.017	3126.05
423.224	3343.14
423.432	3519.26
423.64	3414.82
423.848	3834.65
424.056	3652.38
424.263	3998.49
424.471	3949.34
424.679	4033.3
424.887	4281.11
425.094	4332.31
425.302	4385.55
425.51	4590.35
425.718	4594.45
425.925	4543.25
426.133	4881.16
426.341	5200.65
426.548	5337.86
426.756	5473.03
426.964	5358.34
427.171	5602.05
427.379	5931.77
427.586	5935.87
427.794	6171.38
428.001	6429.43
428.209	6705.9
428.417	6605.55
428.624	7058.15
428.832	7099.11
429.039	7054.06
429.247	6929.13
429.454	7551.71
429.662	7930.59
429.869	7611.11
430.076	8157.91
430.284	7744.22
430.491	8168.15
430.699	8782.54
430.906	8657.62
431.114	8698.58
431.321	8944.33
431.528	9263.82
431.736	9663.17
431.943	9986.75
432.15	9822.91
432.358	10095.29
432.565	10605.24
432.772	10162.87
432.979	10949.29
433.187	11188.91
433.394	11100.84
433.601	12049.05
433.808	11936.42
434.016	11891.36
434.223	12157.6
434.43	12987.02
434.637	12735.12
434.844	13632.13
435.052	13871.75
435.259	13757.06
435.466	13777.54
435.673	13482.63
435.88	14357.11
436.087	15034.99
436.294	15247.98
436.501	14926.45
436.708	14991.98
436.915	15549.03
437.122	16175.71
437.329	15876.71
437.537	16523.87
437.743	16753.24
437.95	16888.4
438.157	17547.85
438.364	18033.22
438.571	17887.81
438.778	18416.19
438.985	19821.09
439.192	19135.03
439.399	19474.99
439.606	18981.43
439.813	20109.86
440.02	21332.5
440.227	20906.52
440.433	20363.81
440.64	21029.4
440.847	21101.08
441.054	21688.84
441.261	22972.92
441.467	22915.58
441.674	22858.23
441.881	23800.3
442.088	23667.18
442.294	23630.32
442.501	23964.14
442.708	24738.27
442.914	25625.04
443.121	26587.58
443.328	25663.95
443.534	27574.7
443.741	26825.15
443.948	25891.27
444.154	28174.76
444.361	27898.28
444.568	27840.94
444.774	28041.64
444.981	28006.83
445.187	29421.97
445.394	30329.22
445.6	29579.67
445.807	32508.26
446.013	30980.48
446.22	31349.11
446.426	32745.83
446.633	32794.98
446.839	33913.17
447.046	32258.41
447.252	34464.07
447.459	34302.28
447.665	34068.81
447.871	35694.9
448.078	36940.07
448.284	35195.2
448.491	35969.33
448.697	37064.99
448.903	38226.19
449.11	38179.09
449.316	37224.73
449.522	37665.05
449.728	38983.94
449.935	38803.72
450.141	39246.08
450.347	39614.71
450.553	38265.1
450.76	38703.37
450.966	40077.55
451.172	39776.5
451.378	40571.11
451.584	39586.04
451.791	40702.18
451.997	40343.79
452.203	40831.21
452.409	40765.67
452.615	40567.02
452.821	39178.5
453.027	39178.5
453.233	40374.51
453.44	38621.45
453.646	39010.56
453.852	39153.92
454.058	39872.76
454.264	38426.89
454.47	39022.85
454.676	38250.77
454.882	39430.4
455.088	35950.9
455.294	36868.39
455.5	36895.01
455.705	37484.83
455.911	36092.21
456.117	34894.14
456.323	34763.07
456.529	32651.62
456.735	34077.01
456.941	33048.93
457.147	32485.73
457.352	31322.49
457.558	30796.16
457.764	31119.74
457.97	30007.69
458.176	29589.91
458.381	29491.6
458.587	28070.31
458.793	28420.52
458.999	26577.34
459.204	28506.53
459.41	27525.55
459.616	25561.55
459.821	25672.14
460.027	25440.72
460.233	24820.19
460.438	23699.95
460.644	24232.42
460.85	22807.03
461.055	22344.19
461.261	22409.73
461.466	20857.37
461.672	19933.73
461.878	21359.12
462.083	19907.11
462.289	19479.08
462.494	19370.54
462.7	18276.93
462.905	17834.57
463.111	18610.75
463.316	18416.19
463.522	18027.07
463.727	18031.17
463.932	18000.45
464.138	17853
464.343	18100.8
464.549	17584.71
464.754	17795.65
464.959	17545.8
465.165	17408.59
465.37	16722.52
465.575	16015.97
465.781	16732.76
465.986	17001.04
466.191	16370.27
466.397	16101.98
466.602	14985.84
466.807	15903.33
467.012	15598.18
467.218	15532.65
467.423	15399.53
467.628	15430.25
467.833	16095.84
468.038	15323.76
468.244	15102.57
468.449	15579.75
468.654	15190.64
468.859	14834.29
469.064	14512.76
469.269	14213.76
469.474	14160.51
469.679	14844.53
469.885	14011.01
470.09	14404.22
470.295	14068.35
470.5	13826.69
470.705	13873.79
470.91	13339.27
471.115	13400.71
471.32	13345.42
471.525	13316.75
471.73	13263.5
471.935	12999.31
472.139	12806.8
472.344	12896.91
472.549	12720.79
472.754	12472.98
472.959	12153.5
473.164	11936.42
473.369	11784.87
473.574	12022.43
473.778	12055.2
473.983	11952.8
474.188	11639.46
474.393	11356.84
474.598	11242.15
474.802	11162.28
475.007	11172.52
475.212	10998.45
475.417	10724.02
475.621	10652.34
475.826	10691.25
476.031	10525.36
476.235	10162.87
476.44	10482.36
476.645	10068.67
476.849	10400.44
477.054	9784
477.259	9976.51
477.463	9974.46
477.668	9657.03
477.872	9796.29
478.077	9691.84
478.282	9327.3
478.486	9220.81
478.691	9155.27
478.895	9163.47
479.1	9093.83
479.304	9194.19
479.509	8737.49
479.713	9071.31
479.918	8970.96
480.122	8606.42
480.326	8796.88
480.531	8669.91
480.735	8542.93
480.94	8442.58
481.144	8714.96
481.348	8473.3
481.553	8590.03
481.757	8305.37
481.961	8311.51
482.166	8475.35
482.37	8399.57
482.574	8377.05
482.778	8334.04
482.983	8690.38
483.187	8301.27
483.391	8215.26
483.595	8276.7
483.8	8194.78
484.004	8284.89
484.208	8274.65
484.412	8137.43
484.616	8254.17
484.821	8143.58
485.025	7863.01
485.229	8200.92
485.433	8309.46
485.637	8094.43
485.841	7955.16
486.045	8149.72
486.249	8139.48
486.453	7989.98
486.657	8082.14
486.861	8125.15
487.065	7852.77
487.269	8172.25
487.473	8141.53
487.677	8141.53
487.881	8022.75
488.085	7989.98
488.289	8104.67
488.493	8110.81
488.697	8086.23
488.901	8065.75
489.105	8030.94
489.309	8188.63
489.512	8004.32
489.716	8006.36
489.92	8172.25
490.124	8180.44
490.328	8053.47
490.531	7979.74
490.735	8159.96
490.939	8164.06
491.143	8123.1
491.346	8168.15
491.55	8334.04
491.754	8188.63
491.958	8358.61
492.161	8448.72
492.365	8237.78
492.569	8276.7
492.772	8389.33
492.976	8506.07
493.18	8430.29
493.383	8561.36
493.587	8518.36
493.79	8653.52
493.994	8600.27
494.197	8555.22
494.401	8651.47
494.605	8698.58
494.808	8755.92
495.012	9034.44
495.215	8762.06
495.419	8960.72
495.622	8870.61
495.825	9169.61
496.029	9007.82
496.232	9345.73
496.436	9210.57
496.639	9247.43
496.843	9257.67
497.046	9398.98
497.249	9642.69
497.453	9667.27
497.656	9792.19
497.859	9796.29
498.063	9634.5
498.266	10119.87
498.469	9833.15
498.673	10001.08
498.876	10300.09
499.079	10246.84
499.282	10443.45
499.485	10758.83
499.689	10633.91
499.892	10777.26
500.095	10779.31
500.298	11043.5
500.501	10896.05
500.705	11027.12
500.908	11180.71
501.111	11305.64
501.314	11375.27
501.517	11618.98
501.72	11764.39
501.923	11721.38
502.126	12155.55
502.329	12278.43
502.532	12270.23
502.735	12243.61
502.938	12577.43
503.141	12700.31
503.344	12630.68
503.547	12843.67
503.75	12944.02
503.953	13032.08
504.156	13499.02
504.359	13245.07
504.562	13243.02
504.765	13691.52
504.968	13509.26
505.17	13841.03
505.373	13968
505.576	14271.1
505.779	14191.23
505.982	14326.39
506.185	14811.76
506.387	14750.32
506.59	14750.32
506.793	14996.08
506.996	15129.2
507.198	15270.51
507.401	15356.52
507.604	15227.5
507.807	15954.53
508.009	15641.19
508.212	15823.46
508.415	16036.45
508.617	16243.29
508.82	16362.08
509.022	16183.9
509.225	16689.75
509.428	16986.71
509.63	17013.33
509.833	17039.95
510.035	17392.2
510.238	17404.49
510.44	17381.96
510.643	17750.6
510.845	17756.74
511.048	17928.77
511.25	18186.82
511.453	18201.15
511.655	18922.04
511.858	18784.82
512.06	18653.75
512.262	18815.54
512.465	18879.03
512.667	19345.97
512.87	19212.85
513.072	19218.99
513.274	19839.53
513.477	19937.83
513.679	19907.11
513.881	20089.38
514.084	20595.23
514.286	20208.16
514.488	20533.79
514.69	20978.2
514.893	20924.95
515.095	21361.17
515.297	21508.62
515.499	21518.86
515.701	21559.82
515.904	22018.57
516.106	22018.57
516.308	22071.81
516.51	22628.86
516.712	22469.12
516.914	22694.4
517.116	23040.5
517.318	23067.13
517.52	23161.33
517.722	23038.45
517.925	23230.96
518.127	24027.62
518.329	23572.97
518.531	23525.87
518.733	23966.18
518.935	24164.84
519.136	24195.56
519.338	24543.71
519.54	24568.29
519.742	25260.5
519.944	24932.82
520.146	25354.71
520.348	25307.6
520.55	25440.72
520.752	25424.34
520.954	25866.7
521.155	25618.89
521.357	26227.14
521.559	26288.58
521.761	26386.88
521.963	26345.92
522.164	26554.82
522.366	26603.97
522.568	26581.44
522.77	26724.8
522.971	27654.58
523.173	26849.72
523.375	27400.63
523.576	27109.82
523.778	27216.31
523.98	27933.1
524.181	27703.73
524.383	27949.48
524.584	27967.91
524.786	28182.95
524.988	27826.6
525.189	27933.1
525.391	28692.9
525.592	28223.91
525.794	28613.02
525.995	28084.65
526.197	28559.78
526.398	28846.49
526.6	28934.56
526.801	28852.64
527.003	28830.11
527.204	29172.12
527.406	29327.77
527.607	29139.35
527.808	29346.2
528.01	28905.88
528.211	29143.45
528.412	29591.95
528.614	29751.7
528.815	29313.43
529.016	29729.17
529.218	29548.95
529.419	29505.94
529.62	29708.69
529.822	29610.39
530.023	29647.25
530.224	29536.66
530.425	29548.95
530.626	29245.85
530.828	29284.76
531.029	29792.65
531.23	29594
531.431	29520.27
531.632	29716.88
531.833	29673.87
532.035	29610.39
532.236	29755.79
532.437	30169.48
532.638	29399.44
532.839	30044.55
533.04	29720.98
533.241	29491.6
533.442	30271.88
533.643	29901.2
533.844	29874.57
534.045	29999.5
534.246	29759.89
534.447	30224.78
534.648	29747.6
534.849	29942.16
535.05	29661.58
535.251	29819.28
535.451	30163.34
535.652	29880.72
535.853	29591.95
536.054	29981.07
536.255	29995.4
536.456	29712.78
536.657	30095.75
536.857	29692.3
537.058	29700.5
537.259	30353.8
537.46	29835.66
537.66	29798.8
537.861	29839.76
538.062	29667.73
538.263	29753.74
538.463	29745.55
538.664	30091.66
538.865	29729.17
539.065	29983.12
539.266	29630.87
539.466	29968.78
539.667	29637.01
539.868	30345.61
540.068	29833.61
540.269	29985.16
540.469	29981.07
540.67	29790.61
540.87	29880.72
541.071	29860.24
541.271	29706.64
541.472	29923.72
541.672	29561.23
541.873	29643.15
542.073	29174.17
542.274	29757.84
542.474	29737.36
542.675	29358.49
542.875	29903.25
543.075	29645.2
543.276	29278.61
543.476	29733.26
543.676	29594
543.877	29784.46
544.077	29620.63
544.277	29663.63
544.478	29491.6
544.678	29794.7
544.878	29800.85
545.078	29524.37
545.279	29776.27
545.479	29550.99
545.679	29712.78
545.879	29800.85
546.079	29698.45
546.28	29583.76
546.48	29170.07
546.68	29997.45
546.88	29540.75
547.08	29553.04
547.28	29211.03
547.48	29340.05
547.68	30034.32
547.88	29381.01
548.081	29471.12
548.281	29335.96
548.481	29405.59
548.681	29497.75
548.881	29295
549.081	29526.42
549.28	29454.74
549.48	29731.22
549.68	29383.06
549.88	29749.65
550.08	29428.12
550.28	29583.76
550.48	29440.4
550.68	29366.68
550.88	29430.16
551.08	29397.4
551.279	29614.48
551.479	29034.91
551.679	29542.8
551.879	29364.63
552.079	29874.57
552.278	29559.19
552.478	29637.01
552.678	29546.9
552.878	29745.55
553.077	29491.6
553.277	29014.43
553.477	29503.89
553.676	29487.51
553.876	29587.86
554.076	29364.63
554.275	29534.61
554.475	29022.62
554.674	29643.15
554.874	29489.56
555.074	29225.37
555.273	29333.91
555.473	29473.17
555.672	29231.51
555.872	29122.97
556.071	29163.93
556.271	29417.88
556.47	29012.38
556.67	29059.48
556.869	29409.68
557.068	29280.66
557.268	28854.69
557.467	29450.64
557.667	29206.94
557.866	29456.79
558.065	29237.66
558.265	28842.4
558.464	29065.63
558.663	29354.39
558.863	28995.99
559.062	29430.16
559.261	28905.88
559.461	29315.48
559.66	29100.44
559.859	28922.27
560.058	29088.15
560.258	29088.15
560.457	29073.82
560.656	29338.01
560.855	29297.05
561.054	29327.77
561.253	29002.14
561.453	29415.83
561.652	29254.04
561.851	29512.08
562.05	29041.05
562.249	29118.87
562.448	29022.62
562.647	28840.35
562.846	29149.59
563.045	29057.43
563.244	29129.11
563.443	29184.41
563.642	28918.17
563.841	29108.63
564.04	28774.81
564.239	29272.47
564.438	28826.01
564.637	29153.69
564.836	29018.52
565.035	28672.42
565.234	29276.57
565.432	29030.81
565.631	28686.75
565.83	28998.04
566.029	29092.25
566.228	28690.85
566.427	29227.42
566.625	28735.9
566.824	28643.74
567.023	29055.39
567.222	28660.13
567.42	28797.34
567.619	28746.14
567.818	28836.25
568.016	28989.85
568.215	29325.72
568.414	28840.35
568.612	29000.09
568.811	28619.17
569.01	28826.01
569.208	28572.07
569.407	28899.74
569.605	28567.97
569.804	28963.23
570.002	28903.84
570.201	28649.89
570.4	28795.29
570.598	28909.98
570.797	28760.48
570.995	28916.12
571.193	28402.08
571.392	29239.7
571.59	28674.46
571.789	28881.31
571.987	28813.73
572.186	28780.96
572.384	28709.28
572.582	28508.58
572.781	28971.42
572.979	28137.9
573.177	28572.07
573.376	28758.43
573.574	28543.39
573.772	29100.44
573.971	28535.2
574.169	28467.62
574.367	28504.48
574.565	28717.47
574.763	28240.29
574.962	28813.73
575.16	28477.86
575.358	28580.26
575.556	27984.3
575.754	28842.4
575.952	28334.5
576.151	28586.4
576.349	28498.34
576.547	28443.04
576.745	28447.14
576.943	28580.26
577.141	28277.16
577.339	28527.01
577.537	28215.72
577.735	28131.75
577.933	28266.92
578.131	28357.03
578.329	28273.06
578.527	28289.45
578.725	28584.35
578.923	28447.14
579.121	28182.95
579.319	28129.7
579.516	28213.67
579.714	28465.57
579.912	28076.46
580.11	28414.37
580.308	28371.36
580.506	28520.87
580.704	27677.1
580.901	28101.03
581.099	28465.57
581.297	28242.34
581.495	28053.93
581.692	28488.1
581.89	28176.81
582.088	28373.41
582.285	28316.07
582.483	28357.03
582.681	28303.78
582.878	28191.14
583.076	28123.56
583.274	28185
583.471	28154.28
583.669	28176.81
583.866	28037.55
584.064	28535.2
584.262	28236.2
584.459	28383.65
584.657	28010.92
584.854	28549.54
585.052	28228.01
585.249	28457.38
585.447	28258.73
585.644	28033.45
585.841	28240.29
586.039	28805.53
586.236	28209.57
586.434	28494.24
586.631	27888.04
586.828	28533.15
587.026	28492.19
587.223	28469.67
587.42	28209.57
587.618	28651.94
587.815	28465.57
588.012	28479.91
588.21	28279.21
588.407	28563.87
588.604	28346.79
588.801	28193.19
588.999	28545.44
589.196	28545.44
589.393	28555.68
589.59	28529.06
589.787	28545.44
589.984	28545.44
590.182	28561.83
590.379	28842.4
590.576	28488.1
590.773	28791.2
590.97	28357.03
591.167	28762.53
591.364	28322.21
591.561	28619.17
591.758	28789.15
591.955	28746.14
592.152	28742.05
592.349	28817.82
592.546	28613.02
592.743	28803.49
592.94	29053.34
593.137	29151.64
593.334	29548.95
593.531	29090.2
593.727	29383.06
593.924	29278.61
594.121	29344.15
594.318	29452.69
594.515	28959.13
594.712	29804.94
594.908	29331.86
595.105	29548.95
595.302	29387.16
595.499	30196.1
595.696	29733.26
595.892	29587.86
596.089	29823.37
596.286	30212.49
596.482	29929.87
596.679	30355.85
596.876	30286.22
597.072	29944.2
597.269	30161.29
597.466	30075.27
597.662	30226.82
597.859	30298.5
598.055	30486.92
598.252	30159.24
598.448	30720.38
598.645	30671.23
598.841	30441.86
599.038	30751.1
599.234	31322.49
599.431	30675.33
599.627	31093.11
599.824	31549.81
600.02	31318.39
600.217	31443.32
600.413	31467.89
600.609	31240.57
600.806	31654.26
601.002	31830.38
601.198	31981.93
601.395	31474.04
601.591	31818.1
601.787	32291.18
601.984	32094.57
602.18	32502.12
602.376	32235.88
602.572	32381.29
602.769	32919.9
602.965	32299.37
603.161	33059.16
603.357	32725.35
603.553	32936.29
603.75	33214.81
603.946	33239.39
604.142	33657.17
604.338	33212.76
604.534	33485.14
604.73	33667.41
604.926	33689.94
605.122	34003.28
605.318	34064.72
605.514	34005.33
605.71	34167.12
605.906	34292.04
606.102	34455.88
606.298	34894.14
606.494	34693.44
606.69	35326.27
606.886	35479.86
607.082	35100.99
607.278	35725.62
607.474	35492.15
607.67	35934.51
607.866	35371.32
608.062	36432.17
608.257	36634.92
608.453	36395.31
608.649	36925.73
608.845	36553
609.041	37234.97
609.236	37382.43
609.432	37450.01
609.628	37474.59
609.824	37767.45
610.019	37515.54
610.215	37994.77
610.411	38643.98
610.606	38424.84
610.802	39022.85
610.998	39086.34
611.193	39284.99
611.389	39274.75
611.584	39377.15
611.78	39250.17
611.976	39934.2
612.171	40218.86
612.367	40247.54
612.562	40325.36
612.758	40321.26
612.953	40501.48
613.149	41009.38
613.344	41042.15
613.539	41822.42
613.735	41314.53
613.93	41818.33
614.126	41957.59
614.321	42023.12
614.517	42217.68
614.712	42475.73
614.907	42170.58
615.103	43131.08
615.298	43008.2
615.493	43630.78
615.688	42946.76
615.884	44257.46
616.079	43782.33
616.274	44142.77
616.47	44603.56
616.665	44675.24
616.86	44409.01
617.055	44517.55
617.25	45002.92
617.445	45430.94
617.641	44624.04
617.836	45547.68
618.031	45234.34
618.226	45740.19
618.421	45648.03
618.616	46293.14
618.811	45308.07
619.006	46641.29
619.201	45754.52
619.396	46403.73
619.591	45715.61
619.786	47032.46
619.981	46037.14
620.176	46817.42
620.371	46659.73
620.566	46733.45
620.761	46825.61
620.956	47612.03
621.151	46803.08
621.346	47294.6
621.541	46817.42
621.735	47714.43
621.93	46731.4
622.125	46917.77
622.32	46631.05
622.515	46981.26
622.709	47278.21
622.904	47429.76
623.099	46839.95
623.294	47175.81
623.488	47136.9
623.683	47081.61
623.878	46209.17
624.072	47038.6
624.267	47423.62
624.462	46909.58
624.656	46579.85
624.851	47270.02
625.046	47020.17
625.24	47237.25
625.435	46739.6
625.629	46936.2
625.824	46698.64
626.018	47124.61
626.213	45885.59
626.407	46182.55
626.602	46432.4
626.796	46641.29
626.991	46600.33
627.185	46117.01
627.38	46342.29
627.574	46100.63
627.768	46379.15
627.963	45990.04
628.157	45871.26
628.352	46309.52
628.546	45428.9
628.74	46549.14
628.935	45863.07
629.129	45652.12
629.323	45478.05
629.517	45387.94
629.712	45500.58
629.906	45447.33
630.1	44794.03
630.294	45299.87
630.489	44888.23
630.683	45318.31
630.877	44368.05
631.071	44593.32
631.265	44996.77
631.459	44570.8
631.653	44273.84
631.848	44304.56
632.042	44284.08
632.236	44816.55
632.43	44118.2
632.624	44265.65
632.818	44138.68
633.012	43337.92
633.206	43933.88
633.4	43933.88
633.594	43399.36
633.788	43239.62
633.982	43370.69
634.176	43237.57
634.369	42705.1
634.563	42770.63
634.757	42768.58
634.951	42844.36
635.145	42633.42
635.339	42930.37
635.533	42205.39
635.726	42442.96
635.92	41730.26
636.114	42244.3
636.308	41869.53
636.501	41599.19
636.695	41758.94
636.889	41758.94
637.083	41642.2
637.276	40886.5
637.47	41160.93
637.664	40917.22
637.857	41058.53
638.051	40673.51
638.244	40616.17
638.438	40614.12
638.632	40374.51
638.825	40151.28
639.019	40245.49
639.212	39942.39
639.406	39977.2
639.599	39665.91
639.793	39575.8
639.986	39096.58
640.18	39323.9
640.373	39084.29
640.567	38805.77
640.76	38713.61
640.954	38402.32
641.147	38408.46
641.34	37939.47
641.534	38301.96
641.727	37863.7
641.92	37810.45
642.114	37624.09
642.307	37953.81
642.5	37259.55
642.694	36518.18
642.887	37087.52
643.08	37312.8
643.273	36862.24
643.467	36888.87
643.66	36354.35
643.853	36362.54
644.046	35918.13
644.239	36165.93
644.432	35680.56
644.626	35733.81
644.819	35977.52
645.012	35703.09
645.205	35352.89
645.398	35254.59
645.591	34615.62
645.784	34978.11
645.977	34541.89
646.17	34758.98
646.363	34353.48
646.556	33974.61
646.749	33833.3
646.942	33818.96
647.135	33653.08
647.328	33524.05
647.521	33509.72
647.714	33016.16
647.907	33114.46
648.099	32870.75
648.292	33216.86
648.485	32938.33
648.678	31990.13
648.871	32512.36
649.064	31586.68
649.256	32108.91
649.449	32250.22
649.642	31539.57
649.835	31535.48
650.027	31494.52
650.22	31281.53
650.413	31089.02
650.605	31095.16
650.798	30976.38
650.991	30458.24
651.183	30652.8
651.376	29993.36
651.568	30456.2
651.761	30083.47
651.954	29829.52
652.146	29819.28
652.339	29606.29
652.531	29387.16
652.724	29315.48
652.916	29143.45
653.109	28828.06
653.301	28952.99
653.494	28551.59
653.686	28520.87
653.879	28934.56
654.071	28131.75
654.263	28135.85
654.456	27980.2
654.648	27988.39
654.84	27230.65
655.033	27408.82
655.225	27392.44
655.417	27130.3
655.61	27445.68
655.802	27183.54
655.994	26657.21
656.186	26843.58
656.379	26630.59
656.571	26624.45
656.763	26413.51
656.955	26012.1
657.148	25973.19
657.34	25932.23
657.532	25889.23
657.724	25467.34
657.916	25174.49
658.108	25434.58
658.3	24920.54
658.492	24779.23
658.684	24300
658.876	24891.87
659.068	24375.78
659.26	24170.98
659.452	24300
659.644	24250.85
659.836	23779.82
660.028	24156.64
660.22	23321.07
660.412	23534.06
660.604	23276.02
660.796	23163.38
660.988	23284.21
661.18	22802.94
661.372	22712.83
661.563	22993.4
661.755	22358.53
661.947	22393.34
662.139	22223.36
662.331	21824.01
662.522	21807.62
662.714	21819.91
662.906	21686.79
663.097	21758.47
663.289	21271.06
663.481	21352.98
663.673	21119.51
663.864	20851.22
664.056	20627.99
664.247	20732.44
664.439	20521.5
664.631	20531.74
664.822	20488.73
665.014	20419.1
665.205	20240.93
665.397	20050.47
665.588	19958.31
665.78	19591.72
665.971	19872.29
666.163	19876.39
666.354	19450.41
666.546	19114.55
666.737	19049.01
666.929	19243.57
667.12	19249.71
667.311	18743.86
667.503	18616.89
667.694	18647.61
667.885	18348.61
668.077	18459.2
668.268	17961.54
668.459	18137.66
668.651	18385.47
668.842	17912.39
669.033	17748.55
669.224	17545.8
669.416	17674.82
669.607	17513.03
669.798	17347.15
669.989	17465.93
670.18	17252.94
670.371	17001.04
670.563	16865.88
670.754	17003.09
670.945	16509.53
671.136	16702.04
671.327	16474.71
671.518	16292.44
671.709	16400.99
671.9	16462.43
672.091	16106.08
672.282	16409.18
672.473	15807.08
672.664	16159.33
672.855	15688.29
673.046	15782.5
673.237	16015.97
673.428	15798.88
673.619	15712.87
673.809	15450.73
674	15477.35
674.191	15385.19
674.382	15225.45
674.573	15276.65
674.764	15422.06
674.954	15116.91
675.145	15037.04
675.336	14709.36
675.527	14756.47
675.717	14740.08
675.908	14561.91
676.099	14441.08
676.289	14439.03
676.48	14416.51
676.671	14320.25
676.861	14258.81
677.052	14051.97
677.243	13902.47
677.433	13701.76
677.624	13937.28
677.814	13961.86
678.005	14031.49
678.195	13791.87
678.386	13521.54
678.576	13429.38
678.767	13669
678.957	13494.92
679.148	13449.86
679.338	13169.29
679.529	12995.22
679.719	13081.23
679.909	13273.74
680.1	12982.93
680.29	12823.19
680.481	12624.53
680.671	12888.72
680.861	12786.32
681.052	12610.2
681.242	12622.48
681.432	12671.64
681.622	12548.76
681.813	12415.64
682.003	12386.97
682.193	12374.68
682.383	12483.22
682.573	12391.06
682.764	12239.51
682.954	12468.89
683.144	12305.05
683.334	12157.6
683.524	11793.06
683.714	11934.37
683.904	11854.5
684.094	12071.58
684.284	11743.91
684.474	11950.75
684.664	11807.39
684.854	11795.11
685.044	11770.53
685.234	11578.02
685.424	11623.08
685.614	11575.97
685.804	11477.67
685.994	11264.68
686.184	11428.52
686.374	11428.52
686.564	11399.85
686.753	11373.22
686.943	11195.05
687.133	11131.56
687.323	11123.37
687.513	11119.28
687.702	10988.21
687.892	11035.31
688.082	11049.64
688.272	10879.66
688.461	10820.27
688.651	10820.27
688.841	10695.35
689.03	10734.26
689.22	10656.43
689.41	10613.43
689.599	10605.24
689.789	10648.24
689.979	10433.21
690.168	10732.21
690.358	10472.12
690.547	10564.28
690.737	10554.04
690.926	10695.35
691.116	10480.31
691.305	10605.24
691.495	10304.18
691.684	10363.58
691.874	10263.22
692.063	10138.3
692.252	10189.5
692.442	10015.42
692.631	10056.38
692.82	10056.38
693.01	9978.56
693.199	9792.19
693.388	9884.35
693.578	9761.47
693.767	9921.21
693.956	9716.42
694.146	9843.39
694.335	9497.28
694.524	9568.96
694.713	9614.02
694.902	9562.82
695.092	9614.02
695.281	9448.13
695.47	9308.87
695.659	9474.76
695.848	9214.66
696.037	9323.21
696.226	9376.45
696.415	9433.8
696.604	9308.87
696.793	9171.66
696.982	9179.85
697.171	9155.27
697.36	9198.28
697.549	9165.51
697.738	8962.76
697.927	8909.52
698.116	8966.86
698.305	8868.56
698.494	8952.52
698.683	8864.46
698.872	8741.58
699.061	8729.3
699.25	8743.63
699.438	8626.9
699.627	8659.67
699.816	8530.64
700.005	8481.49
700.193	8702.67
700.382	8585.94
700.571	8438.48
700.76	8440.53
700.948	8323.8
701.137	8311.51
701.326	8516.31
701.514	8127.19
701.703	8065.75
701.892	8020.7
702.08	8172.25
702.269	8098.52
702.457	8106.71
702.646	7922.4
702.834	7865.05
703.023	7987.93
703.212	7850.72
703.4	7865.05
703.589	7688.93
703.777	7899.87
703.965	7678.69
704.154	7647.97
704.342	7578.34
704.531	7658.21
704.719	7402.21
704.907	7547.62
705.096	7408.36
705.284	7482.08
705.472	7408.36
705.661	7457.51
705.849	7299.81
706.037	7269.09
706.226	7318.25
706.414	7207.66
706.602	7090.92
706.79	7336.68
706.979	7015.15
707.167	7178.98
707.355	6886.12
707.543	6910.7
707.731	7047.91
707.919	6988.52
708.107	6787.82
708.296	6859.5
708.484	6722.29
708.672	6890.22
708.86	6494.96
709.048	6826.73
709.236	6701.81
709.424	6763.25
709.612	6693.62
709.8	6607.6
709.988	6535.92
710.176	6474.48
710.364	6484.72
710.551	6361.84
710.739	6343.41
710.927	6308.6
711.115	6390.52
711.303	6314.74
711.491	6310.65
711.679	6185.72
711.866	6187.77
712.054	6134.52
712.242	6130.42
712.43	6202.1
712.617	5919.48
712.805	6060.79
712.993	5946.11
713.181	5741.31
713.368	5753.6
713.556	5874.43
713.744	5661.44
713.931	5972.73
714.119	5731.07
714.306	5677.82
714.494	5622.53
714.682	5663.49
714.869	5575.42
715.057	5860.09
715.244	5620.48
715.432	5538.56
715.619	5536.51
715.807	5477.12
715.994	5487.36
716.182	5495.55
716.369	5346.05
716.556	5485.31
716.744	5278.47
716.931	5288.71
717.119	5325.57
717.306	5260.04
717.493	5335.81
717.681	5341.96
717.868	5206.79
718.055	5196.55
718.242	5081.86
718.43	5257.99
718.617	5180.17
718.804	5102.34
718.991	4997.9
719.179	5010.18
719.366	4850.44
719.553	4926.22
719.74	4774.67
719.927	4825.87
720.114	4707.09
720.301	4780.81
720.488	4643.6
720.676	4696.85
720.863	4752.14
721.05	4690.7
721.237	4623.12
721.424	4752.14
721.611	4567.82
721.798	4524.82
721.985	4561.68
722.172	4389.65
722.358	4397.84
722.545	4479.76
722.732	4397.84
722.919	4494.1
723.106	4371.22
723.293	4234
723.48	4264.72
723.667	4268.82
723.853	4356.88
724.04	4336.4
724.227	4336.4
724.414	4211.48
724.6	4135.7
724.787	4285.2
724.974	4145.94
725.161	4135.7
725.347	4061.98
725.534	4006.68
725.72	3963.67
725.907	4078.36
726.094	4049.69
726.28	3861.27
726.467	3896.09
726.653	3853.08
726.84	3978.01
727.027	3894.04
727.213	3883.8
727.4	3875.61
727.586	3732.25
727.773	3814.17
727.959	3676.96
728.145	3775.26
728.332	3728.16
728.518	3685.15
728.705	3736.35
728.891	3734.3
729.077	3576.61
729.264	3533.6
729.45	3433.25
729.636	3670.81
729.823	3488.54
730.009	3431.2
730.195	3420.96
730.382	3455.78
730.568	3574.56
730.754	3470.11
730.94	3390.24
731.126	3404.58
731.313	3420.96
731.499	3355.43
731.685	3339.04
731.871	3345.19
732.057	3566.37
732.243	3336.99
732.429	3357.47
732.615	3187.49
732.801	3138.34
732.987	3261.22
733.173	3236.64
733.359	3271.46
733.545	3193.64
733.731	3244.84
733.917	3197.73
734.103	3037.99
734.289	3121.96
734.475	3099.43
734.661	3189.54
734.847	3093.29
735.033	3031.85
735.219	3117.86
735.404	3035.94
735.59	2878.25
735.776	3054.37
735.962	2962.22
736.148	3007.27
736.333	2999.08
736.519	2888.49
736.705	2949.93
736.89	2939.69
737.076	2853.67
737.262	2749.23
737.447	2736.94
737.633	2802.47
737.819	2820.91
738.004	2837.29
738.19	2761.52
738.375	2593.58
738.561	2816.81
738.747	2761.52
738.932	2683.69
739.118	2736.94
739.303	2679.6
739.489	2741.04
739.674	2644.78
739.859	2536.24
740.045	2630.45
740.23	2564.91
740.416	2540.33
740.601	2519.85
740.786	2446.13
740.972	2501.42
741.157	2509.62
741.342	2411.31
741.528	2399.02
741.713	2491.18
741.898	2405.17
742.084	2423.6
742.269	2419.5
742.454	2470.7
742.639	2464.56
742.824	2394.93
743.01	2442.03
743.195	2341.68
743.38	2255.67
743.565	2347.83
743.75	2421.55
743.935	2231.09
744.12	2372.4
744.305	2210.61
744.49	2237.24
744.675	2229.04
744.86	2138.93
745.045	2267.95
745.23	2224.95
745.415	2163.51
745.6	2270
745.785	2173.75
745.97	2171.7
746.155	2140.98
746.34	2157.36
746.525	2147.12
746.71	2161.46
746.895	2028.34
747.079	2089.78
747.264	2018.1
747.449	2077.49
747.634	1995.57
747.819	2097.97
748.003	1856.31
748.188	1934.14
748.373	1856.31
748.557	1995.57
748.742	2003.77
748.927	1958.71
749.111	1938.23
749.296	1897.27
749.481	1962.81
749.665	1921.85
749.85	1860.41
750.034	1901.37
750.219	1866.55
750.404	1946.42
750.588	1747.77
750.773	1690.43
750.957	1790.78
751.141	1796.92
751.326	1811.26
751.51	1782.59
751.695	1755.96
751.879	1706.81
752.064	1807.16
752.248	1788.73
752.432	1796.92
752.617	1655.61
752.801	1780.54
752.985	1581.89
753.17	1698.62
753.354	1633.08
753.538	1624.89
753.722	1516.35
753.907	1606.46
754.091	1573.69
754.275	1616.7
754.459	1538.88
754.643	1577.79
754.828	1540.93
755.012	1663.8
755.196	1545.02
755.38	1524.54
755.564	1528.64
755.748	1459.01
755.932	1545.02
756.116	1628.99
756.3	1448.77
756.484	1534.78
756.668	1413.95
756.852	1332.03
757.036	1559.36
757.22	1370.94
757.404	1342.27
757.588	1348.42
757.772	1418.05
757.956	1397.57
758.14	1508.16
758.323	1299.27
758.507	1438.53
758.691	1426.24
758.875	1340.22
759.059	1469.25
759.242	1356.61
759.426	1313.6
759.61	1377.09
759.794	1313.6
759.977	1332.03
760.161	1332.03
760.345	1436.48
760.528	1309.51
760.712	1375.04
760.895	1348.42
761.079	1151.81
761.263	1258.31
761.446	1313.6
761.63	1243.97
761.813	1280.83
761.997	1176.39
762.18	1325.89
762.364	1258.31
762.547	1155.91
762.731	1176.39
762.914	1223.49
763.098	1145.67
763.281	1143.62
763.464	1162.05
763.648	1268.55
763.831	1205.06
764.015	1188.68
764.198	1260.35
764.381	1211.2
764.564	1217.35
764.748	1229.63
764.931	1219.39
765.114	1203.01
765.297	1155.91
765.481	1121.09
765.664	1127.24
765.847	1231.68
766.03	1221.44
766.213	1057.61
766.397	1096.52
766.58	1155.91
766.763	1227.59
766.946	1106.76
767.129	1133.38
767.312	1106.76
767.495	1121.09
767.678	1084.23
767.861	1084.23
768.044	1153.86
768.227	1147.72
768.41	1053.51
768.593	1155.91
768.776	1049.41
768.959	1057.61
769.142	1106.76
769.324	1049.41
769.507	1026.89
769.69	1045.32
769.873	1033.03
770.056	1188.68
770.239	1137.48
770.421	1114.95
770.604	1037.13
770.787	1047.37
770.97	1059.65
771.152	1053.51
771.335	1022.79
771.518	1020.74
771.7	1061.7
771.883	1143.62
772.066	965.45
772.248	1088.32
772.431	1088.32
772.613	1135.43
772.796	979.78
772.978	1014.6
773.161	1094.47
773.343	1010.5
773.526	944.97
773.708	961.35
773.891	961.35
774.073	938.82
774.256	899.91
774.438	1131.33
774.621	920.39
774.803	1024.84
774.985	942.92
775.168	924.49
775.35	944.97
775.532	940.87
775.715	977.73
775.897	949.06
776.079	965.45
776.261	881.48
776.444	1004.36
776.626	809.8
776.808	953.16
776.99	820.04
777.173	953.16
777.355	895.82
777.537	795.47
777.719	893.77
777.901	873.29
778.083	807.75
778.265	801.61
778.447	850.76
778.629	955.21
778.811	848.71
778.993	947.01
779.175	877.38
779.357	848.71
779.539	824.14
779.721	717.64
779.903	807.75
780.085	674.64
780.267	844.62
780.449	836.42
780.631	908.1
780.812	844.62
780.994	838.47
781.176	766.79
781.358	766.79
781.54	705.35
781.721	783.18
781.903	820.04
782.085	738.12
782.267	774.99
782.448	729.93
782.63	645.96
782.812	676.68
782.993	688.97
783.175	664.4
783.357	670.54
783.538	633.68
783.72	691.02
783.901	731.98
784.083	701.26
784.264	703.31
784.446	617.29
784.627	682.83
784.809	617.29
784.99	605
785.172	605
785.353	592.72
785.535	691.02
785.716	686.92
785.897	557.9
786.079	631.63
786.26	600.91
786.441	596.81
786.623	551.76
786.804	529.23
786.985	527.18
787.167	570.19
787.348	566.09
787.529	576.33
787.71	635.72
787.891	518.99
788.073	547.66
788.254	555.85
788.435	656.2
788.616	480.08
788.797	555.85
788.978	535.37
789.159	453.45
789.34	568.14
789.522	523.09
789.703	584.52
789.884	576.33
790.065	510.8
790.246	566.09
790.427	506.7
790.607	621.39
790.788	496.46
790.969	402.26
791.15	465.74
791.331	486.22
791.512	508.75
791.693	312.14
791.874	484.17
792.054	605
792.235	473.93
792.416	389.97
792.597	406.35
792.778	441.17
792.958	420.69
793.139	402.26
793.32	506.7
793.5	402.26
793.681	580.43
793.862	457.55
794.042	463.69
794.223	457.55
794.404	469.84
794.584	353.1
794.765	394.06
794.945	381.78
795.126	400.21
795.306	422.73
795.487	394.06
795.667	336.72
795.848	394.06
796.028	355.15
796.209	402.26
796.389	465.74
796.57	422.73
796.75	402.26
796.93	281.43
797.111	355.15
797.291	428.88
797.471	367.44
797.652	414.54
797.832	398.16
798.012	344.91
798.192	310.1
798.373	240.47
798.553	326.48
798.733	310.1
798.913	334.67
799.093	332.62
799.274	322.38
799.454	355.15
799.634	430.93
799.814	346.96
799.994	406.35
800.174	385.87
800.354	340.82
800.534	365.39
800.714	369.49
800.894	226.13
801.074	269.14
801.254	275.28
801.434	326.48
801.614	338.77
801.794	301.9
801.974	1170.24
802.154	293.71
802.334	312.14
802.514	271.19
802.693	310.1
802.873	277.33
803.053	447.31
803.233	306
803.413	297.81
803.592	250.71
803.772	316.24
803.952	320.34
804.131	289.62
804.311	314.19
804.491	351.06
804.67	215.89
804.85	199.51
805.03	293.71
805.209	320.34
805.389	236.37
805.568	320.34
805.748	269.14
805.928	166.74
806.107	340.82
806.287	205.65
806.466	291.66
806.646	211.79
806.825	269.14
807.004	262.99
807.184	275.28
807.363	369.49
807.543	275.28
807.722	187.22
807.901	279.38
808.081	281.43
808.26	195.41
808.439	334.67
808.619	291.66
808.798	166.74
808.977	146.26
809.156	246.61
809.336	170.83
809.515	277.33
809.694	224.08
809.873	277.33
810.052	222.03
810.231	209.75
810.411	242.51
810.59	228.18
810.769	306
810.948	238.42
811.127	172.88
811.306	279.38
811.485	101.2
811.664	295.76
811.843	303.95
812.022	179.03
812.201	217.94
812.38	162.64
812.559	215.89
812.737	217.94
812.916	166.74
813.095	195.41
813.274	176.98
813.453	211.79
813.632	197.46
813.811	215.89
813.989	93.01
814.168	193.36
814.347	160.59
814.526	95.06
814.704	185.17
814.883	314.19
815.062	129.88
815.24	215.89
815.419	111.44
815.598	217.94
815.776	72.53
815.955	93.01
816.133	154.45
816.312	164.69
816.49	140.12
816.669	111.44
816.847	213.84
817.026	142.16
817.204	129.88
817.383	213.84
817.561	129.88
817.74	109.4
817.918	156.5
818.097	103.25
818.275	60.24
818.453	82.77
818.632	176.98
818.81	170.83
818.988	140.12
819.167	160.59
819.345	82.77
819.523	119.64
819.701	138.07
819.879	213.84
820.058	160.59
820.236	187.22
820.414	105.3
820.592	117.59
820.77	93.01
820.948	138.07
821.127	95.06
821.305	131.92
821.483	115.54
821.661	174.93
821.839	166.74
822.017	113.49
822.195	99.16
822.373	211.79
822.551	78.68
822.729	246.61
822.907	105.3
823.085	183.12
823.262	93.01
823.44	86.87
823.618	136.02
823.796	144.21
823.974	56.15
824.152	97.11
824.329	115.54
824.507	158.55
824.685	142.16
824.863	119.64
825.04	191.31
825.218	162.64
825.396	107.35
825.574	150.36
825.751	131.92
825.929	35.67
826.107	119.64
826.284	54.1
826.462	117.59
826.639	84.82
826.817	52.05
826.994	101.2
827.172	56.15
827.349	232.27
827.527	68.44
827.704	86.87
827.882	140.12
828.059	80.72
828.237	201.55
828.414	86.87
828.591	56.15
828.769	72.53
828.946	82.77
829.124	129.88
829.301	127.83
829.478	113.49
829.655	43.86
829.833	158.55
830.01	47.96
830.187	37.72
830.364	45.91
830.542	113.49
830.719	148.31
830.896	80.72
831.073	88.92
831.25	68.44
831.427	123.73
831.604	70.48
831.782	52.05
831.959	115.54
832.136	97.11
832.313	146.26
832.49	138.07
832.667	37.72
832.844	64.34
833.021	127.83
833.198	158.55
833.374	82.77
833.551	17.24
833.728	50
833.905	164.69
834.082	11.09
834.259	78.68
834.436	154.45
834.612	33.62
834.789	176.98
834.966	39.76
835.143	93.01
835.319	11.09
835.496	29.52
835.673	23.38
835.85	35.67
836.026	99.16
836.203	158.55
836.38	60.24
836.556	-13.48
836.733	47.96
836.909	144.21
837.086	62.29
837.262	45.91
837.439	15.19
837.616	50
837.792	31.57
837.968	27.48
838.145	43.86
838.321	-33.96
838.498	76.63
838.674	70.48
838.851	133.97
839.027	47.96
839.203	88.92
839.38	60.24
839.556	11.09
839.732	185.17
839.909	78.68
840.085	56.15
840.261	-46.25
840.437	58.2
840.614	4.95
840.79	23.38
840.966	60.24
841.142	86.87
841.318	70.48
841.494	74.58
841.671	90.96
841.847	47.96
842.023	19.29
842.199	35.67
842.375	27.48
842.551	27.48
842.727	-58.54
842.903	86.87
843.079	68.44
843.255	105.3
843.431	101.2
843.607	101.2
843.783	-23.72
843.959	113.49
844.134	15.19
844.31	125.78
844.486	70.48
844.662	9.05
844.838	29.52
845.013	31.57
845.189	76.63
845.365	39.76
845.541	29.52
845.716	129.88
845.892	93.01
846.068	11.09
846.244	-48.3
846.419	80.72
846.595	43.86
846.77	33.62
846.946	78.68
847.122	0.85
847.297	19.29
847.473	156.5
847.648	-15.53
847.824	-11.43
847.999	7
848.175	52.05
848.35	50
848.526	133.97
848.701	45.91
848.876	33.62
849.052	72.53
849.227	13.14
849.403	31.57
849.578	9.05
849.753	-15.53
849.929	78.68
850.104	-33.96
850.279	99.16
850.454	35.67
850.63	60.24
850.805	50
850.98	107.35
851.155	29.52
851.33	56.15
851.505	-85.16
851.681	76.63
851.856	47.96
852.031	41.81
852.206	50
852.381	-3.24
852.556	7
852.731	29.52
852.906	52.05
853.081	45.91
853.256	121.68
853.431	17.24
853.606	41.81
853.781	41.81
853.956	-15.53
854.131	43.86
854.305	23.38
854.48	2.9
854.655	35.67
854.83	9.05
855.005	15.19
855.18	-13.48
855.354	4.95
855.529	2.9
855.704	0.85
855.879	35.67
856.053	-15.53
856.228	47.96
856.403	-48.3
856.577	52.05
856.752	-5.29
856.926	25.43
857.101	4.95
857.276	27.48
857.45	35.67
857.625	117.59
857.799	13.14
857.974	-21.67
858.148	29.52
858.323	45.91
858.497	-19.63
858.672	-19.63
858.846	25.43
859.02	-5.29
859.195	-15.53
859.369	-7.34
859.543	-11.43
859.718	-3.24
859.892	52.05
860.066	58.2
860.241	-5.29
860.415	68.44
860.589	9.05
860.763	101.2
860.938	17.24
861.112	45.91
861.286	72.53
861.46	62.29
861.634	21.33
861.808	45.91
861.982	37.72
862.157	-48.3
862.331	-62.63
862.505	-21.67
862.679	-11.43
862.853	41.81
863.027	-13.48
863.201	62.29
863.375	0.85
863.549	23.38
863.722	4.95
863.896	107.35
864.07	31.57
864.244	-17.58
864.418	-17.58
864.592	-29.87
864.766	-7.34
864.939	68.44
865.113	7
865.287	58.2
865.461	17.24
865.634	-7.34
865.808	-44.2
865.982	23.38
866.156	-40.11
866.329	-60.59
866.503	15.19
866.676	60.24
866.85	101.2
867.024	-31.91
867.197	101.2
867.371	62.29
867.544	-21.67
867.718	7
867.891	25.43
868.065	41.81
868.238	82.77
868.412	37.72
868.585	113.49
868.759	-27.82
868.932	-25.77
869.105	37.72
869.279	25.43
869.452	-42.15
869.625	52.05
869.799	60.24
869.972	-9.39
870.145	58.2
870.319	74.58
870.492	-9.39
870.665	17.24
870.838	-17.58
871.011	-48.3
871.185	31.57
871.358	33.62
871.531	52.05
871.704	-66.73
871.877	-9.39
872.05	2.9
872.223	-79.02
872.396	56.15
872.569	-3.24
872.742	-23.72
872.915	-3.24
873.088	-40.11
873.261	-33.96
873.434	25.43
873.607	31.57
873.78	60.24
873.953	4.95
874.126	41.81
874.299	74.58
874.471	-23.72
874.644	9.05
874.817	-23.72
874.99	39.76
875.163	9.05
875.335	29.52
875.508	-25.77
875.681	90.96
875.853	-105.64
876.026	39.76
876.199	-27.82
876.371	37.72
876.544	50
876.717	-3.24
876.889	9.05
877.062	-64.68
877.234	-11.43
877.407	-27.82
877.579	9.05
877.752	11.09
877.924	-21.67
878.097	31.57
878.269	-38.06
878.442	-11.43
878.614	23.38
878.786	23.38
878.959	62.29
879.131	-5.29
879.303	7
879.476	37.72
879.648	23.38
879.82	9.05
879.993	4.95
880.165	-40.11
880.337	-89.26
880.509	0.85
880.681	-5.29
880.854	45.91
881.026	-13.48
881.198	123.73
881.37	39.76
881.542	-68.78
881.714	29.52
881.886	-42.15
882.058	9.05
882.23	0.85
882.402	9.05
882.574	-25.77
882.746	-21.67
882.918	31.57
883.09	-25.77
883.262	13.14
883.434	-21.67
883.606	-68.78
883.778	66.39
883.95	62.29
884.122	-7.34
884.293	4.95
884.465	-1.19
884.637	54.1
884.809	78.68
884.98	27.48
885.152	80.72
885.324	82.77
885.496	-42.15
885.667	-36.01
885.839	-56.49
886.011	105.3
886.182	60.24
886.354	54.1
886.525	58.2
886.697	31.57
886.869	-5.29
887.04	-25.77
887.212	31.57
887.383	93.01
887.555	-13.48
887.726	-36.01
887.897	-17.58
888.069	25.43
888.24	76.63
888.412	13.14
888.583	-68.78
888.754	66.39
888.926	17.24
889.097	17.24
889.268	-44.2
889.44	93.01
889.611	-58.54
889.782	-13.48
889.953	-64.68
890.125	54.1
890.296	-50.35
890.467	-7.34
890.638	-50.35
890.809	-1.19
890.98	-85.16
891.151	33.62
891.323	9.05
891.494	62.29
891.665	31.57
891.836	13.14
892.007	-46.25
892.178	0.85
892.349	23.38
892.52	-5.29
892.691	23.38
892.862	43.86
893.032	29.52
893.203	-44.2
893.374	29.52
893.545	29.52
893.716	-74.92
893.887	64.34
894.057	27.48
894.228	39.76
894.399	-3.24
894.57	58.2
894.74	-64.68
894.911	0.85
895.082	4.95
895.253	41.81
895.423	0.85
895.594	41.81
895.764	76.63
895.935	-21.67
896.106	66.39
896.276	-23.72
896.447	47.96
896.617	-36.01
896.788	-17.58
896.958	-7.34
897.129	-23.72
897.299	-9.39
897.47	54.1
897.64	15.19
897.81	-31.91
897.981	-7.34
898.151	-68.78
898.322	68.44
898.492	15.19
898.662	13.14
898.832	25.43
899.003	76.63
899.173	15.19
899.343	-38.06
899.513	-33.96
