Data from USB4F104151__34__12-11-51-809.txt Node

Date: Fri Mar 14 12:11:51 EDT 2025
User: louis
Spectrometer: USB4F10415
Trigger mode: 4
Integration Time (sec): 5.000000E-2
Scans to average: 1
Electric dark correction enabled: true
Nonlinearity correction enabled: false
Boxcar width: 0
XAxis mode: Wavelengths
Number of Pixels in Spectrum: 3648
>>>>>Begin Spectral Data<<<<<
178.204	-232.44
178.424	-232.44
178.644	-232.44
178.864	-148.48
179.084	-168.96
179.304	54.27
179.524	-87.04
179.744	-35.84
179.964	23.55
180.184	-46.08
180.404	27.65
180.624	23.55
180.844	1.02
181.064	-19.46
181.283	-11.26
181.503	58.37
181.723	11.26
181.943	-46.08
182.163	117.76
182.383	-17.41
182.602	48.13
182.822	17.41
183.042	-15.36
183.262	-1.02
183.482	35.84
183.701	5.12
183.921	13.31
184.141	1.02
184.361	54.27
184.58	52.22
184.8	13.31
185.02	3.07
185.239	72.7
185.459	33.79
185.679	103.42
185.898	33.79
186.118	-5.12
186.338	50.18
186.557	50.18
186.777	-64.51
186.997	82.94
187.216	66.56
187.436	109.57
187.655	74.75
187.875	37.89
188.095	29.7
188.314	74.75
188.534	109.57
188.753	11.26
188.973	91.13
189.192	119.81
189.412	74.75
189.631	130.05
189.851	72.7
190.07	136.19
190.29	-44.03
190.509	-11.26
190.729	25.6
190.948	56.32
191.168	109.57
191.387	117.76
191.607	-17.41
191.826	70.65
192.045	15.36
192.265	3.07
192.484	52.22
192.704	27.65
192.923	-44.03
193.142	148.48
193.362	80.89
193.581	89.09
193.8	66.56
194.02	19.46
194.239	25.6
194.458	93.18
194.678	-3.07
194.897	39.94
195.116	82.94
195.335	50.18
195.555	46.08
195.774	19.46
195.993	84.99
196.212	-13.31
196.432	-50.18
196.651	56.32
196.87	35.84
197.089	113.66
197.308	29.7
197.528	31.74
197.747	-39.94
197.966	39.94
198.185	72.7
198.404	19.46
198.623	89.09
198.842	128
199.062	101.37
199.281	107.52
199.5	72.7
199.719	56.32
199.938	48.13
200.157	91.13
200.376	50.18
200.595	39.94
200.814	128
201.033	-44.03
201.252	138.24
201.471	101.37
201.69	72.7
201.909	19.46
202.128	142.33
202.347	74.75
202.566	48.13
202.785	46.08
203.004	21.5
203.223	156.67
203.442	56.32
203.661	-1.02
203.879	48.13
204.098	97.28
204.317	39.94
204.536	105.47
204.755	39.94
204.974	105.47
205.193	11.26
205.411	203.77
205.63	93.18
205.849	48.13
206.068	5.12
206.287	-1.02
206.505	138.24
206.724	74.75
206.943	72.7
207.162	68.61
207.381	31.74
207.599	82.94
207.818	60.42
208.037	111.61
208.255	54.27
208.474	41.98
208.693	64.51
208.911	50.18
209.13	72.7
209.349	70.65
209.567	107.52
209.786	103.42
210.005	84.99
210.223	25.6
210.442	-44.03
210.661	37.89
210.879	25.6
211.098	78.85
211.316	74.75
211.535	76.8
211.753	41.98
211.972	66.56
212.191	41.98
212.409	5.12
212.628	76.8
212.846	-5.12
213.065	80.89
213.283	103.42
213.502	-7.17
213.72	23.55
213.938	37.89
214.157	64.51
214.375	123.9
214.594	21.5
214.812	66.56
215.031	93.18
215.249	9.22
215.467	56.32
215.686	29.7
215.904	168.96
216.122	132.09
216.341	91.13
216.559	76.8
216.778	82.94
216.996	80.89
217.214	-35.84
217.432	91.13
217.651	7.17
217.869	5.12
218.087	87.04
218.306	5.12
218.524	39.94
218.742	37.89
218.96	-5.12
219.179	35.84
219.397	105.47
219.615	76.8
219.833	15.36
220.051	7.17
220.27	82.94
220.488	66.56
220.706	60.42
220.924	5.12
221.142	5.12
221.36	82.94
221.578	33.79
221.796	64.51
222.015	66.56
222.233	41.98
222.451	99.33
222.669	56.32
222.887	87.04
223.105	-3.07
223.323	105.47
223.541	5.12
223.759	31.74
223.977	62.46
224.195	87.04
224.413	87.04
224.631	109.57
224.849	13.31
225.067	150.53
225.285	44.03
225.503	41.98
225.721	-25.6
225.939	50.18
226.157	89.09
226.375	128
226.592	-5.12
226.81	105.47
227.028	89.09
227.246	162.81
227.464	19.46
227.682	74.75
227.9	58.37
228.117	66.56
228.335	66.56
228.553	-11.26
228.771	29.7
228.989	46.08
229.206	84.99
229.424	-23.55
229.642	23.55
229.86	-15.36
230.077	68.61
230.295	21.5
230.513	140.29
230.731	84.99
230.948	136.19
231.166	82.94
231.384	70.65
231.601	35.84
231.819	121.85
232.037	13.31
232.254	15.36
232.472	72.7
232.689	35.84
232.907	68.61
233.125	46.08
233.342	-25.6
233.56	9.22
233.777	64.51
233.995	-21.5
234.213	125.95
234.43	68.61
234.648	70.65
234.865	-35.84
235.083	62.46
235.3	46.08
235.518	87.04
235.735	105.47
235.953	130.05
236.17	82.94
236.388	44.03
236.605	-5.12
236.822	144.38
237.04	60.42
237.257	76.8
237.475	-1.02
237.692	82.94
237.909	140.29
238.127	-48.13
238.344	37.89
238.562	70.65
238.779	33.79
238.996	-39.94
239.214	37.89
239.431	89.09
239.648	-11.26
239.865	78.85
240.083	50.18
240.3	89.09
240.517	37.89
240.735	58.37
240.952	111.61
241.169	15.36
241.386	138.24
241.603	3.07
241.821	19.46
242.038	48.13
242.255	13.31
242.472	19.46
242.689	48.13
242.907	25.6
243.124	21.5
243.341	50.18
243.558	52.22
243.775	13.31
243.992	-7.17
244.209	-1.02
244.426	136.19
244.643	54.27
244.86	-3.07
245.078	99.33
245.295	60.42
245.512	58.37
245.729	9.22
245.946	84.99
246.163	31.74
246.38	113.66
246.597	58.37
246.814	-7.17
247.031	48.13
247.248	91.13
247.464	54.27
247.681	56.32
247.898	138.24
248.115	68.61
248.332	-89.09
248.549	54.27
248.766	156.67
248.983	89.09
249.2	29.7
249.417	33.79
249.633	66.56
249.85	70.65
250.067	33.79
250.284	60.42
250.501	111.61
250.717	111.61
250.934	37.89
251.151	52.22
251.368	70.65
251.585	17.41
251.801	33.79
252.018	39.94
252.235	105.47
252.451	-1.02
252.668	-76.8
252.885	60.42
253.102	27.65
253.318	5.12
253.535	21.5
253.752	19.46
253.968	125.95
254.185	-15.36
254.401	64.51
254.618	54.27
254.835	37.89
255.051	93.18
255.268	103.42
255.484	74.75
255.701	33.79
255.917	46.08
256.134	21.5
256.351	-41.98
256.567	44.03
256.784	35.84
257	-3.07
257.217	-35.84
257.433	50.18
257.65	33.79
257.866	-29.7
258.082	-3.07
258.299	1.02
258.515	48.13
258.732	-11.26
258.948	23.55
259.165	68.61
259.381	62.46
259.597	56.32
259.814	82.94
260.03	48.13
260.246	-5.12
260.463	136.19
260.679	17.41
260.895	46.08
261.112	78.85
261.328	7.17
261.544	68.61
261.761	179.2
261.977	99.33
262.193	46.08
262.409	5.12
262.626	87.04
262.842	54.27
263.058	-52.22
263.274	91.13
263.49	-35.84
263.707	39.94
263.923	109.57
264.139	25.6
264.355	37.89
264.571	105.47
264.787	-9.22
265.004	39.94
265.22	72.7
265.436	41.98
265.652	-39.94
265.868	29.7
266.084	-54.27
266.3	-41.98
266.516	-9.22
266.732	103.42
266.948	13.31
267.164	35.84
267.38	115.71
267.596	123.9
267.812	119.81
268.028	17.41
268.244	-15.36
268.46	11.26
268.676	58.37
268.892	68.61
269.108	58.37
269.324	56.32
269.54	-3.07
269.756	76.8
269.972	7.17
270.188	-64.51
270.403	17.41
270.619	-9.22
270.835	80.89
271.051	9.22
271.267	15.36
271.483	44.03
271.698	64.51
271.914	113.66
272.13	117.76
272.346	74.75
272.562	33.79
272.777	29.7
272.993	39.94
273.209	-37.89
273.425	80.89
273.64	5.12
273.856	80.89
274.072	64.51
274.287	-1.02
274.503	23.55
274.719	134.14
274.934	101.37
275.15	54.27
275.366	56.32
275.581	41.98
275.797	111.61
276.012	56.32
276.228	76.8
276.444	27.65
276.659	70.65
276.875	33.79
277.09	-11.26
277.306	99.33
277.521	35.84
277.737	97.28
277.952	111.61
278.168	91.13
278.383	48.13
278.599	62.46
278.814	152.57
279.03	48.13
279.245	58.37
279.461	-60.42
279.676	66.56
279.892	-25.6
280.107	46.08
280.322	29.7
280.538	105.47
280.753	-7.17
280.969	29.7
281.184	50.18
281.399	148.48
281.615	84.99
281.83	95.23
282.045	-128
282.26	23.55
282.476	11.26
282.691	39.94
282.906	62.46
283.122	50.18
283.337	1.02
283.552	27.65
283.767	25.6
283.983	82.94
284.198	-9.22
284.413	76.8
284.628	-23.55
284.843	50.18
285.058	64.51
285.274	54.27
285.489	50.18
285.704	58.37
285.919	-62.46
286.134	19.46
286.349	29.7
286.564	27.65
286.779	125.95
286.995	39.94
287.21	25.6
287.425	54.27
287.64	35.84
287.855	66.56
288.07	-13.31
288.285	183.29
288.5	101.37
288.715	130.05
288.93	80.89
289.145	23.55
289.36	23.55
289.575	70.65
289.79	115.71
290.004	31.74
290.219	27.65
290.434	-9.22
290.649	76.8
290.864	44.03
291.079	33.79
291.294	44.03
291.509	39.94
291.724	1.02
291.938	72.7
292.153	62.46
292.368	54.27
292.583	54.27
292.798	62.46
293.012	48.13
293.227	-5.12
293.442	13.31
293.657	89.09
293.871	130.05
294.086	72.7
294.301	95.23
294.516	33.79
294.73	-15.36
294.945	37.89
295.16	23.55
295.374	109.57
295.589	138.24
295.804	103.42
296.018	-11.26
296.233	68.61
296.447	76.8
296.662	-13.31
296.877	74.75
297.091	60.42
297.306	21.5
297.52	62.46
297.735	78.85
297.949	29.7
298.164	99.33
298.378	29.7
298.593	-11.26
298.807	-23.55
299.022	80.89
299.236	93.18
299.451	3.07
299.665	-21.5
299.88	39.94
300.094	52.22
300.309	29.7
300.523	19.46
300.737	82.94
300.952	48.13
301.166	84.99
301.381	31.74
301.595	52.22
301.809	132.09
302.024	15.36
302.238	15.36
302.452	37.89
302.667	58.37
302.881	107.52
303.095	93.18
303.309	80.89
303.524	-29.7
303.738	9.22
303.952	1.02
304.166	46.08
304.381	17.41
304.595	72.7
304.809	-1.02
305.023	31.74
305.237	19.46
305.452	-3.07
305.666	52.22
305.88	68.61
306.094	58.37
306.308	64.51
306.522	46.08
306.736	66.56
306.95	60.42
307.164	-13.31
307.379	41.98
307.593	44.03
307.807	109.57
308.021	17.41
308.235	80.89
308.449	-54.27
308.663	54.27
308.877	97.28
309.091	52.22
309.305	168.96
309.519	58.37
309.733	72.7
309.947	-15.36
310.161	56.32
310.374	64.51
310.588	76.8
310.802	-35.84
311.016	62.46
311.23	64.51
311.444	-9.22
311.658	39.94
311.872	91.13
312.085	44.03
312.299	109.57
312.513	-11.26
312.727	17.41
312.941	-7.17
313.154	60.42
313.368	31.74
313.582	74.75
313.796	35.84
314.009	64.51
314.223	29.7
314.437	119.81
314.651	99.33
314.864	23.55
315.078	-11.26
315.292	-60.42
315.505	33.79
315.719	17.41
315.933	13.31
316.146	48.13
316.36	76.8
316.573	80.89
316.787	66.56
317.001	76.8
317.214	15.36
317.428	3.07
317.641	-52.22
317.855	128
318.068	7.17
318.282	-19.46
318.495	54.27
318.709	60.42
318.922	19.46
319.136	48.13
319.349	58.37
319.563	11.26
319.776	41.98
319.99	-27.65
320.203	19.46
320.417	27.65
320.63	48.13
320.843	138.24
321.057	91.13
321.27	48.13
321.483	82.94
321.697	158.72
321.91	31.74
322.124	87.04
322.337	35.84
322.55	54.27
322.763	23.55
322.977	29.7
323.19	66.56
323.403	62.46
323.617	66.56
323.83	76.8
324.043	-41.98
324.256	37.89
324.469	23.55
324.683	144.38
324.896	72.7
325.109	95.23
325.322	29.7
325.535	99.33
325.748	13.31
325.962	27.65
326.175	31.74
326.388	113.66
326.601	128
326.814	103.42
327.027	29.7
327.24	70.65
327.453	-33.79
327.666	111.61
327.879	33.79
328.092	84.99
328.305	41.98
328.518	-44.03
328.731	-33.79
328.944	136.19
329.157	52.22
329.37	-17.41
329.583	138.24
329.796	48.13
330.009	-17.41
330.222	82.94
330.435	66.56
330.648	62.46
330.861	27.65
331.073	-9.22
331.286	87.04
331.499	70.65
331.712	-11.26
331.925	11.26
332.138	44.03
332.35	95.23
332.563	50.18
332.776	148.48
332.989	31.74
333.202	-3.07
333.414	66.56
333.627	117.76
333.84	121.85
334.053	-3.07
334.265	-27.65
334.478	-5.12
334.691	64.51
334.903	58.37
335.116	5.12
335.329	41.98
335.541	82.94
335.754	173.05
335.966	21.5
336.179	41.98
336.392	-17.41
336.604	31.74
336.817	158.72
337.029	58.37
337.242	29.7
337.454	62.46
337.667	48.13
337.88	97.28
338.092	105.47
338.305	123.9
338.517	37.89
338.729	80.89
338.942	82.94
339.154	-27.65
339.367	64.51
339.579	101.37
339.792	-74.75
340.004	19.46
340.217	15.36
340.429	64.51
340.641	9.22
340.854	-5.12
341.066	44.03
341.278	39.94
341.491	95.23
341.703	7.17
341.915	-23.55
342.128	140.29
342.34	101.37
342.552	23.55
342.764	109.57
342.977	44.03
343.189	76.8
343.401	48.13
343.613	13.31
343.826	84.99
344.038	41.98
344.25	48.13
344.462	29.7
344.674	64.51
344.886	82.94
345.099	66.56
345.311	115.71
345.523	5.12
345.735	7.17
345.947	56.32
346.159	119.81
346.371	37.89
346.583	-21.5
346.795	132.09
347.007	33.79
347.219	70.65
347.431	41.98
347.643	111.61
347.855	89.09
348.067	50.18
348.279	-1.02
348.491	-3.07
348.703	56.32
348.915	91.13
349.127	-60.42
349.339	-3.07
349.551	3.07
349.763	121.85
349.975	-31.74
350.187	115.71
350.399	107.52
350.61	105.47
350.822	-41.98
351.034	109.57
351.246	54.27
351.458	121.85
351.669	11.26
351.881	89.09
352.093	21.5
352.305	111.61
352.517	101.37
352.728	95.23
352.94	156.67
353.152	115.71
353.363	17.41
353.575	84.99
353.787	101.37
353.999	68.61
354.21	125.95
354.422	-3.07
354.633	39.94
354.845	44.03
355.057	76.8
355.268	50.18
355.48	35.84
355.692	13.31
355.903	60.42
356.115	15.36
356.326	-9.22
356.538	46.08
356.749	52.22
356.961	128
357.172	27.65
357.384	44.03
357.595	185.34
357.807	60.42
358.018	52.22
358.23	21.5
358.441	146.43
358.653	21.5
358.864	58.37
359.075	27.65
359.287	27.65
359.498	62.46
359.709	41.98
359.921	-21.5
360.132	7.17
360.344	99.33
360.555	19.46
360.766	105.47
360.977	15.36
361.189	132.09
361.4	56.32
361.611	84.99
361.823	162.81
362.034	64.51
362.245	-9.22
362.456	11.26
362.667	82.94
362.879	29.7
363.09	76.8
363.301	27.65
363.512	82.94
363.723	80.89
363.935	107.52
364.146	15.36
364.357	21.5
364.568	39.94
364.779	-56.32
364.99	111.61
365.201	-46.08
365.412	66.56
365.623	48.13
365.834	80.89
366.045	62.46
366.256	41.98
366.467	68.61
366.678	44.03
366.889	70.65
367.1	37.89
367.311	64.51
367.522	31.74
367.733	1.02
367.944	99.33
368.155	68.61
368.366	109.57
368.577	56.32
368.788	97.28
368.999	-23.55
369.209	119.81
369.42	205.82
369.631	171.01
369.842	41.98
370.053	1.02
370.264	80.89
370.474	37.89
370.685	68.61
370.896	95.23
371.107	138.24
371.317	78.85
371.528	89.09
371.739	150.53
371.95	39.94
372.16	99.33
372.371	13.31
372.582	15.36
372.792	33.79
373.003	33.79
373.214	105.47
373.424	95.23
373.635	66.56
373.846	119.81
374.056	109.57
374.267	91.13
374.477	121.85
374.688	-1.02
374.898	41.98
375.109	70.65
375.319	39.94
375.53	37.89
375.74	62.46
375.951	31.74
376.161	33.79
376.372	68.61
376.582	-31.74
376.793	97.28
377.003	62.46
377.214	39.94
377.424	70.65
377.635	29.7
377.845	91.13
378.055	64.51
378.266	52.22
378.476	37.89
378.686	144.38
378.897	62.46
379.107	68.61
379.317	103.42
379.528	25.6
379.738	84.99
379.948	23.55
380.158	56.32
380.369	37.89
380.579	33.79
380.789	37.89
380.999	99.33
381.21	119.81
381.42	156.67
381.63	35.84
381.84	48.13
382.05	52.22
382.261	44.03
382.471	54.27
382.681	13.31
382.891	76.8
383.101	70.65
383.311	41.98
383.521	-19.46
383.731	91.13
383.941	19.46
384.151	35.84
384.361	99.33
384.571	99.33
384.781	136.19
384.991	119.81
385.201	89.09
385.411	50.18
385.621	25.6
385.831	66.56
386.041	82.94
386.251	111.61
386.461	89.09
386.671	33.79
386.881	91.13
387.091	80.89
387.301	87.04
387.511	17.41
387.72	91.13
387.93	125.95
388.14	52.22
388.35	13.31
388.56	97.28
388.769	125.95
388.979	107.52
389.189	31.74
389.399	113.66
389.609	107.52
389.818	93.18
390.028	84.99
390.238	109.57
390.447	62.46
390.657	111.61
390.867	48.13
391.076	3.07
391.286	54.27
391.496	44.03
391.705	70.65
391.915	97.28
392.125	109.57
392.334	50.18
392.544	146.43
392.753	99.33
392.963	-21.5
393.172	130.05
393.382	29.7
393.591	166.91
393.801	19.46
394.01	105.47
394.22	185.34
394.429	44.03
394.639	64.51
394.848	105.47
395.058	74.75
395.267	68.61
395.477	132.09
395.686	58.37
395.895	119.81
396.105	140.29
396.314	68.61
396.524	95.23
396.733	78.85
396.942	125.95
397.152	144.38
397.361	156.67
397.57	91.13
397.78	80.89
397.989	111.61
398.198	224.25
398.407	89.09
398.617	70.65
398.826	70.65
399.035	103.42
399.244	148.48
399.453	56.32
399.663	166.91
399.872	125.95
400.081	52.22
400.29	109.57
400.499	101.37
400.708	158.72
400.917	93.18
401.127	52.22
401.336	101.37
401.545	193.53
401.754	187.39
401.963	160.77
402.172	13.31
402.381	103.42
402.59	89.09
402.799	107.52
403.008	173.05
403.217	142.33
403.426	121.85
403.635	138.24
403.844	146.43
404.053	128
404.262	109.57
404.471	168.96
404.68	125.95
404.888	121.85
405.097	128
405.306	142.33
405.515	134.14
405.724	203.77
405.933	146.43
406.142	144.38
406.35	257.02
406.559	107.52
406.768	171.01
406.977	179.2
407.185	130.05
407.394	128
407.603	121.85
407.812	207.87
408.02	293.88
408.229	211.96
408.438	177.15
408.646	144.38
408.855	199.68
409.064	263.16
409.272	197.63
409.481	226.3
409.69	150.53
409.898	285.69
410.107	230.4
410.315	297.98
410.524	267.26
410.733	259.07
410.941	273.4
411.15	289.79
411.358	324.6
411.567	347.13
411.775	300.03
411.984	252.92
412.192	392.19
412.401	343.03
412.609	390.14
412.818	478.2
413.026	490.49
413.234	424.95
413.443	398.33
413.651	351.23
413.86	484.34
414.068	539.64
414.276	443.39
414.485	486.39
414.693	605.17
414.901	572.41
415.11	521.21
415.318	549.88
415.526	566.26
415.734	734.2
415.943	611.32
416.151	611.32
416.359	574.46
416.567	758.77
416.776	693.24
416.984	728.05
417.192	809.97
417.4	773.11
417.608	766.96
417.817	766.96
418.025	945.14
418.233	941.04
418.441	842.74
418.649	947.19
418.857	996.34
419.065	961.52
419.273	969.71
419.481	1068.02
419.689	1072.11
419.897	1178.61
420.105	1149.93
420.313	1059.82
420.521	1248.24
420.729	1295.34
420.937	1225.71
421.145	1268.72
421.353	1473.51
421.561	1512.42
421.769	1506.28
421.977	1539.05
422.185	1549.29
422.393	1629.16
422.601	1727.46
422.809	1694.69
423.017	1780.71
423.224	1856.48
423.432	1868.77
423.64	1862.63
423.848	2067.42
424.056	1915.87
424.263	2089.95
424.471	2167.77
424.679	2327.52
424.887	2241.5
425.094	2331.61
425.302	2335.71
425.51	2405.34
425.718	2622.42
425.925	2599.9
426.133	2653.14
426.341	2716.63
426.548	2921.43
426.756	2821.08
426.964	2915.28
427.171	2931.67
427.379	3146.7
427.586	3335.12
427.794	3335.12
428.001	3494.86
428.209	3621.83
428.417	3695.56
428.624	3836.87
428.832	3814.34
429.039	3793.86
429.247	3849.16
429.454	4246.46
429.662	4504.51
429.869	4191.17
430.076	4662.2
430.284	4318.14
430.491	4539.32
430.699	4846.52
430.906	4823.99
431.114	4684.73
431.321	4959.16
431.528	5077.94
431.736	5313.45
431.943	5669.8
432.15	5489.58
432.358	5483.44
432.565	5940.13
432.772	5714.86
432.979	6044.58
433.187	6181.79
433.394	6194.08
433.601	6544.28
433.808	6464.41
434.016	6697.88
434.223	6781.85
434.43	7363.47
434.637	7166.87
434.844	7652.24
435.052	7701.39
435.259	7607.18
435.466	7687.05
435.673	7512.97
435.88	8326.02
436.087	8520.57
436.294	8797.05
436.501	8303.49
436.708	8452.99
436.915	8735.61
437.122	9196.4
437.329	9319.28
437.537	9456.5
437.743	9683.82
437.95	9610.09
438.157	9894.76
438.364	10566.49
438.571	10406.75
438.778	10337.12
438.985	11387.73
439.192	10853.21
439.399	11250.52
439.606	10920.79
439.813	11567.95
440.02	12362.56
440.227	12032.84
440.433	11744.08
440.64	12178.25
440.847	12225.35
441.054	12438.34
441.261	13402.93
441.467	13138.74
441.674	13288.25
441.881	13814.57
442.088	13824.81
442.294	13978.41
442.501	14228.26
442.708	14502.69
442.914	14754.59
443.121	15606.55
443.328	15301.4
443.534	16411.4
443.741	15842.06
443.948	15420.18
444.154	16622.34
444.361	16605.95
444.568	16812.8
444.774	16790.27
444.981	16792.32
445.187	17431.29
445.394	18344.68
445.6	17990.38
445.807	19661.52
446.013	18903.78
446.22	19288.79
446.426	20024.01
446.633	20163.28
446.839	20632.26
447.046	19849.94
447.252	20970.18
447.459	21039.81
447.665	20914.88
447.871	21926.58
448.078	22880.93
448.284	22000.3
448.491	22129.33
448.697	22893.22
448.903	23347.87
449.11	23507.61
449.316	23227.04
449.522	23538.33
449.728	24279.69
449.935	24300.17
450.141	24224.4
450.347	24943.24
450.553	24222.35
450.76	24679.05
450.966	25150.08
451.172	25127.55
451.378	25393.79
451.584	25021.06
451.791	25637.5
451.997	25582.2
452.203	25926.26
452.409	26260.08
452.615	25938.55
452.821	24912.52
453.027	24830.6
453.233	25735.8
453.44	24906.37
453.646	25232
453.852	25193.09
454.058	25727.61
454.264	24728.2
454.47	25451.13
454.676	24562.31
454.882	25391.74
455.088	23204.51
455.294	23882.39
455.5	24146.58
455.705	23823
455.911	23386.78
456.117	22620.84
456.323	22360.75
456.529	21291.71
456.735	21992.11
456.941	21615.29
457.147	21097.15
457.352	20433.61
457.558	20048.59
457.764	20200.14
457.97	19632.85
458.176	19380.95
458.381	19423.96
458.587	18584.29
458.793	18514.66
458.999	17500.92
459.204	18625.25
459.41	18264.81
459.616	16872.19
459.821	17040.12
460.027	16833.28
460.233	16395.01
460.438	15581.97
460.644	15846.16
460.85	15055.64
461.055	14834.46
461.261	14758.69
461.466	13783.85
461.672	13255.48
461.878	14170.92
462.083	13118.26
462.289	12874.56
462.494	12772.16
462.7	12088.14
462.905	12014.41
463.111	12452.67
463.316	12247.88
463.522	12178.25
463.727	12198.73
463.932	12098.38
464.138	11836.24
464.343	11875.15
464.549	11606.86
464.754	11930.44
464.959	11940.68
465.165	11809.61
465.37	11246.42
465.575	10961.75
465.781	11379.54
465.986	11488.08
466.191	10914.65
466.397	10783.58
466.602	10249.06
466.807	10478.43
467.012	10601.31
467.218	10480.48
467.423	10552.16
467.628	10650.46
467.833	10660.7
468.038	10558.3
468.244	9976.68
468.449	10691.42
468.654	10382.18
468.859	10011.5
469.064	10173.28
469.269	9685.87
469.474	9593.71
469.679	9868.14
469.885	9892.71
470.09	9646.96
470.295	9775.98
470.5	9489.26
470.705	9608.05
470.91	9137.01
471.115	9194.36
471.32	9270.13
471.525	9286.51
471.73	9204.6
471.935	8954.74
472.139	8725.37
472.344	8819.58
472.549	8711.04
472.754	8733.56
472.959	8422.27
473.164	8258.43
473.369	8211.33
473.574	8305.54
473.778	8276.87
473.983	8246.15
474.188	8270.72
474.393	7883.66
474.598	7850.89
474.802	7719.82
475.007	7742.35
475.212	7742.35
475.417	7263.12
475.621	7537.55
475.826	7396.24
476.031	7467.92
476.235	7113.62
476.44	7070.61
476.645	7056.28
476.849	7140.24
477.054	7189.39
477.259	7050.13
477.463	6878.1
477.668	6847.38
477.872	6835.1
478.077	6675.35
478.282	6556.57
478.486	6491.04
478.691	6546.33
478.895	6521.76
479.1	6445.98
479.304	6482.85
479.509	6212.51
479.713	6443.93
479.918	6284.19
480.122	6060.96
480.326	6073.25
480.531	6169.51
480.735	6022.05
480.94	5946.28
481.144	6339.49
481.348	5792.68
481.553	6146.98
481.757	5733.29
481.961	5890.98
482.166	6136.74
482.37	5807.02
482.574	5784.49
482.778	5981.09
482.983	6054.82
483.187	6040.48
483.391	5872.55
483.595	5815.21
483.8	5714.86
484.004	5841.83
484.208	6058.92
484.412	5929.89
484.616	5827.5
484.821	5886.89
485.025	5792.68
485.229	6005.67
485.433	5772.2
485.637	5913.51
485.841	5757.86
486.045	5761.96
486.249	5698.47
486.453	5675.95
486.657	5702.57
486.861	5819.3
487.065	5673.9
487.269	5768.1
487.473	5512.11
487.677	5925.8
487.881	5784.49
488.085	5749.67
488.289	5786.54
488.493	5729.19
488.697	5909.41
488.901	5850.02
489.105	5764.01
489.309	5766.06
489.512	5882.79
489.716	5782.44
489.92	5815.21
490.124	5688.23
490.328	6022.05
490.531	5768.1
490.735	5946.28
490.939	5899.17
491.143	5999.52
491.346	5847.97
491.55	6017.96
491.754	5942.18
491.958	5952.42
492.161	5970.85
492.365	6204.32
492.569	6116.26
492.772	5854.12
492.976	6114.21
493.18	6265.76
493.383	6093.73
493.587	6134.69
493.79	6329.25
493.994	6194.08
494.197	6235.04
494.401	6435.74
494.605	6347.68
494.808	6501.28
495.012	6609.82
495.215	6597.53
495.419	6435.74
495.622	6353.82
495.825	6488.99
496.029	6667.16
496.232	6824.86
496.436	6607.77
496.639	6890.39
496.843	6775.7
497.046	6986.65
497.249	6980.5
497.453	6951.83
497.656	7115.67
497.859	7087
498.063	7240.59
498.266	7451.53
498.469	7232.4
498.673	7287.7
498.876	7433.1
499.079	7265.17
499.282	7519.12
499.485	7830.41
499.689	7648.14
499.892	7725.96
500.095	7848.84
500.298	8147.84
500.501	8051.59
500.705	8106.88
500.908	8287.11
501.111	8315.78
501.314	8465.28
501.517	8266.63
501.72	8721.27
501.923	8518.53
502.126	8749.95
502.329	8969.08
502.532	9010.04
502.735	8971.13
502.938	9237.36
503.141	9149.3
503.344	9460.59
503.547	9374.58
503.75	9517.93
503.953	9493.36
504.156	9646.96
504.359	9878.38
504.562	9716.59
504.765	9956.2
504.968	10197.86
505.17	10257.25
505.373	10247.01
505.576	10412.9
505.779	10546.02
505.982	10539.87
506.185	10824.54
506.387	10777.44
506.59	10759
506.793	11299.67
506.996	11121.49
507.198	11252.56
507.401	11324.24
507.604	11490.13
507.807	11623.25
508.009	11518.8
508.212	11821.9
508.415	11932.49
508.617	11914.06
508.82	12139.33
509.022	12270.4
509.225	12301.12
509.428	12546.88
509.63	12614.46
509.833	12600.13
510.035	12843.84
510.238	12567.36
510.44	12845.88
510.643	13081.4
510.845	13460.27
511.048	13343.54
511.25	13386.55
511.453	13339.44
511.655	13968.17
511.858	13652.78
512.06	13841.2
512.262	13765.42
512.465	13955.88
512.667	14291.75
512.87	14226.21
513.072	14320.42
513.274	14541.6
513.477	14682.91
513.679	14947.1
513.881	15090.46
514.084	15080.22
514.286	15090.46
514.488	15311.64
514.69	15733.52
514.893	15473.43
515.095	15688.46
515.297	15827.73
515.499	15737.62
515.701	16016.14
515.904	16331.53
516.106	16278.28
516.308	16485.12
516.51	16642.82
516.712	16415.49
516.914	16788.22
517.116	16923.39
517.318	17001.21
517.52	17158.91
517.722	17433.33
517.925	17392.37
518.127	17744.63
518.329	17808.11
518.531	17515.25
518.733	17922.8
518.935	17943.28
519.136	18197.23
519.338	18094.83
519.54	18492.13
519.742	18539.24
519.944	18559.72
520.146	18565.86
520.348	18715.36
520.55	18981.6
520.752	18791.14
520.954	19043.04
521.155	19059.42
521.357	19432.15
521.559	19550.93
521.761	19815.12
521.963	19866.32
522.164	19628.76
522.366	19827.41
522.568	20040.4
522.77	20277.96
522.971	20431.56
523.173	19622.61
523.375	20157.13
523.576	20085.45
523.778	20169.42
523.98	20583.11
524.181	20724.42
524.383	20495.05
524.584	20454.09
524.786	20386.5
524.988	20783.81
525.189	21031.62
525.391	20855.49
525.592	20869.83
525.794	21209.79
525.995	21236.41
526.197	21123.77
526.398	21252.8
526.6	21289.66
526.801	21684.92
527.003	21310.14
527.204	21129.92
527.406	21519.03
527.607	21652.15
527.808	21858.99
528.01	21330.62
528.211	21566.13
528.412	21754.55
528.614	21793.46
528.815	21979.82
529.016	22026.93
529.218	21705.4
529.419	21580.47
529.62	21537.46
529.822	21772.98
530.023	21670.58
530.224	21883.57
530.425	21910.19
530.626	22049.46
530.828	21801.65
531.029	22272.68
531.23	21983.92
531.431	21865.14
531.632	22024.88
531.833	22012.59
532.035	21863.09
532.236	21969.58
532.437	22147.76
532.638	22006.45
532.839	21914.29
533.04	21996.21
533.241	21789.36
533.442	22141.61
533.643	21959.34
533.844	22147.76
534.045	21949.11
534.246	21912.24
534.447	22043.31
534.648	22067.89
534.849	22225.58
535.05	21805.75
535.251	22110.89
535.451	21979.82
535.652	22366.89
535.853	22211.25
536.054	22319.79
536.255	21910.19
536.456	22254.25
536.657	22309.55
536.857	21902
537.058	21787.32
537.259	21781.17
537.46	21764.79
537.66	21856.95
537.861	21820.08
538.062	21723.83
538.263	21932.72
538.463	21867.19
538.664	22205.1
538.865	22069.94
539.065	21975.73
539.266	21801.65
539.466	22098.61
539.667	21826.23
539.868	22035.12
540.068	22176.43
540.269	21686.97
540.469	21985.97
540.67	22102.7
540.87	21830.32
541.071	21758.64
541.271	21736.12
541.472	21924.53
541.672	21770.93
541.873	21783.22
542.073	21543.61
542.274	21867.19
542.474	21858.99
542.675	21775.03
542.875	22006.45
543.075	21852.85
543.276	21621.43
543.476	22244.01
543.676	21633.72
543.877	21740.21
544.077	21740.21
544.277	21582.52
544.478	21697.2
544.678	21709.49
544.878	21787.32
545.078	21775.03
545.279	21680.82
545.479	21447.35
545.679	21701.3
545.879	21553.85
546.079	21813.94
546.28	21768.88
546.48	21428.92
546.68	21676.73
546.88	21416.63
547.08	21760.69
547.28	21646.01
547.48	21607.09
547.68	21760.69
547.88	21428.92
548.081	21842.61
548.281	21621.43
548.481	21555.9
548.681	21496.5
548.881	21697.2
549.081	21613.24
549.28	21668.53
549.48	21609.14
549.68	21439.16
549.88	22041.26
550.08	21502.65
550.28	21576.37
550.48	21439.16
550.68	21600.95
550.88	21179.07
551.08	21557.94
551.279	21523.13
551.479	21455.54
551.679	21938.87
551.879	21621.43
552.079	21482.17
552.278	21435.06
552.478	21572.28
552.678	21512.89
552.878	21598.9
553.077	21426.87
553.277	21453.5
553.477	21580.47
553.676	21234.36
553.876	21541.56
554.076	21353.15
554.275	21433.02
554.475	20990.66
554.674	21582.52
554.874	21449.4
555.074	21412.54
555.273	21426.87
555.473	21357.24
555.672	21285.56
555.872	21408.44
556.071	21541.56
556.271	21170.88
556.47	21455.54
556.67	21134.01
556.869	21187.26
557.068	21222.08
557.268	21484.22
557.467	21381.82
557.667	20857.54
557.866	21148.35
558.065	21326.52
558.265	21097.15
558.464	21017.28
558.663	21740.21
558.863	21105.34
559.062	21639.86
559.261	21011.14
559.461	21584.57
559.66	20886.21
559.859	20927.17
560.058	21248.7
560.258	21123.77
560.457	20898.5
560.656	21449.4
560.855	21252.8
561.054	21504.7
561.253	20957.89
561.453	21019.33
561.652	21394.11
561.851	21367.48
562.05	21129.92
562.249	21179.07
562.448	21150.4
562.647	20902.59
562.846	21269.18
563.045	21207.74
563.244	20714.18
563.443	21205.69
563.642	20945.6
563.841	21041.85
564.04	20789.95
564.239	21269.18
564.438	21025.47
564.637	21080.77
564.836	21007.04
565.035	20751.04
565.234	21248.7
565.432	20906.69
565.631	20996.8
565.83	20738.76
566.029	21019.33
566.228	20538.05
566.427	21009.09
566.625	20755.14
566.824	20677.32
567.023	20947.65
567.222	20544.2
567.42	20824.77
567.619	20851.39
567.818	20923.07
568.016	20710.08
568.215	20910.78
568.414	20701.89
568.612	20642.5
568.811	20671.17
569.01	20720.32
569.208	20576.97
569.407	20792
569.605	20314.83
569.804	20708.04
570.002	20617.93
570.201	20681.41
570.4	20601.54
570.598	20560.58
570.797	20251.34
570.995	20548.29
571.193	20624.07
571.392	20703.94
571.59	20429.51
571.789	20527.81
571.987	20400.84
572.186	20468.42
572.384	19847.89
572.582	20370.12
572.781	20396.74
572.979	20218.57
573.177	20757.19
573.376	20390.6
573.574	20372.17
573.772	20286.15
573.971	20267.72
574.169	20445.9
574.367	20155.08
574.565	20306.63
574.763	20173.52
574.962	19978.96
575.16	19991.25
575.358	20083.41
575.556	20105.93
575.754	20452.04
575.952	19942.1
576.151	20400.84
576.349	19976.91
576.547	19817.17
576.745	19976.91
576.943	20241.1
577.141	20218.57
577.339	19927.76
577.537	20064.97
577.735	20081.36
577.933	20081.36
578.131	19792.59
578.329	20058.83
578.527	19751.63
578.725	19823.31
578.923	19763.92
579.121	19612.37
579.319	19854.03
579.516	19915.47
579.714	19907.28
579.912	19659.48
580.11	19489.49
580.308	19628.76
580.506	19600.08
580.704	19456.73
580.901	19792.59
581.099	19837.65
581.297	19651.28
581.495	19563.22
581.692	19819.22
581.89	19444.44
582.088	19903.18
582.285	19755.73
582.483	19768.02
582.681	19528.41
582.878	19505.88
583.076	19391.19
583.274	19579.61
583.471	19264.22
583.669	19438.3
583.866	19661.52
584.064	19335.9
584.262	19231.45
584.459	19446.49
584.657	19610.32
584.854	19477.21
585.052	19196.64
585.249	19301.08
585.447	19206.87
585.644	19147.48
585.841	19084
586.039	19288.79
586.236	19172.06
586.434	19217.11
586.631	19106.52
586.828	19094.24
587.026	19002.08
587.223	19135.2
587.42	19153.63
587.618	19155.68
587.815	18952.93
588.012	19129.05
588.21	18957.02
588.407	19161.82
588.604	19141.34
588.801	19081.95
588.999	18963.17
589.196	18995.93
589.393	18905.82
589.59	18887.39
589.787	18969.31
589.984	18754.27
590.182	18662.12
590.379	19051.23
590.576	18997.98
590.773	18858.72
590.97	18903.78
591.167	18936.54
591.364	18510.57
591.561	19059.42
591.758	18877.15
591.955	18776.8
592.152	18920.16
592.349	18877.15
592.546	18909.92
592.743	18739.94
592.94	18545.38
593.137	18725.6
593.334	18969.31
593.531	18424.55
593.727	18885.34
593.924	18873.06
594.121	18617.06
594.318	18754.27
594.515	18662.12
594.712	18834.14
594.908	18586.34
595.105	18680.55
595.302	18813.66
595.499	18768.61
595.696	18707.17
595.892	18617.06
596.089	18746.08
596.286	18703.07
596.482	18805.47
596.679	18574.05
596.876	18784.99
597.072	18871.01
597.269	18565.86
597.466	18395.88
597.662	18438.89
597.859	18506.47
598.055	18678.5
598.252	18684.64
598.448	18664.16
598.645	18608.87
598.841	18592.48
599.038	18752.23
599.234	18653.92
599.431	18510.57
599.627	18594.53
599.824	18946.78
600.02	18565.86
600.217	18899.68
600.413	18592.48
600.609	18637.54
600.806	18750.18
601.002	18811.62
601.198	18551.52
601.395	18834.14
601.591	18526.95
601.787	18973.41
601.984	18932.45
602.18	18852.58
602.376	18799.33
602.572	18821.86
602.769	18889.44
602.965	18838.24
603.161	18756.32
603.357	19079.9
603.553	18717.41
603.75	18940.64
603.946	18701.03
604.142	18846.43
604.338	18799.33
604.534	18834.14
604.73	18774.75
604.926	18889.44
605.122	18997.98
605.318	18907.87
605.514	18805.47
605.71	18797.28
605.906	18969.31
606.102	18950.88
606.298	18979.55
606.494	19327.71
606.69	19057.37
606.886	19012.32
607.082	18993.89
607.278	19086.04
607.474	19045.09
607.67	19403.48
607.866	18750.18
608.062	19475.16
608.257	18932.45
608.453	19219.16
608.649	19450.58
608.845	19114.72
609.041	19350.23
609.236	19526.36
609.432	19452.63
609.628	19577.56
609.824	19401.43
610.019	19477.21
610.215	19460.82
610.411	19557.08
610.606	19489.49
610.802	19636.95
610.998	19636.95
611.193	19954.38
611.389	19466.97
611.584	19575.51
611.78	19784.4
611.976	19874.51
612.171	19786.45
612.367	19786.45
612.562	19587.8
612.758	19614.42
612.953	19561.17
613.149	20118.22
613.344	19720.92
613.539	19841.75
613.735	19743.44
613.93	20079.31
614.126	19890.9
614.321	20222.67
614.517	19954.38
614.712	19808.98
614.907	20187.85
615.103	20249.29
615.298	19978.96
615.493	20107.98
615.688	19743.44
615.884	20411.08
616.079	20183.76
616.274	20224.72
616.47	20386.5
616.665	20370.12
616.86	20148.94
617.055	20077.26
617.25	20222.67
617.445	20460.23
617.641	20042.45
617.836	20161.23
618.031	20091.6
618.226	20417.22
618.421	20320.97
618.616	20163.28
618.811	20060.88
619.006	20406.98
619.201	20357.83
619.396	20341.45
619.591	19757.78
619.786	20237
619.981	20198.09
620.176	20423.37
620.371	19892.94
620.566	19897.04
620.761	19968.72
620.956	20146.89
621.151	19634.9
621.346	19985.1
621.541	19708.63
621.735	19874.51
621.93	19765.97
622.125	19935.95
622.32	19352.28
622.515	19348.18
622.709	19401.43
622.904	19450.58
623.099	19722.96
623.294	19487.45
623.488	19245.79
623.683	19401.43
623.878	19139.29
624.072	19143.39
624.267	18879.2
624.462	18907.87
624.656	18772.71
624.851	19090.14
625.046	19051.23
625.24	18821.86
625.435	18514.66
625.629	18768.61
625.824	18492.13
626.018	18559.72
626.213	18334.44
626.407	18494.18
626.602	18076.4
626.796	18330.34
626.991	18186.99
627.185	18174.7
627.38	18045.68
627.574	18260.71
627.768	18006.77
627.963	17840.88
628.157	17898.22
628.352	17640.18
628.546	17511.16
628.74	17658.61
628.935	17609.46
629.129	17812.21
629.323	17492.73
629.517	17222.39
629.712	17259.26
629.906	17509.11
630.1	16904.96
630.294	17179.39
630.489	17003.26
630.683	17244.92
630.877	16929.53
631.071	17005.31
631.265	16917.25
631.459	16984.83
631.653	16571.14
631.848	16599.81
632.042	16679.68
632.236	16608
632.43	16460.55
632.624	16460.55
632.818	16503.56
633.012	16089.87
633.206	16251.66
633.4	16220.94
633.594	15872.78
633.788	15958.8
633.982	16012.04
634.176	15936.27
634.369	15858.45
634.563	15715.09
634.757	15450.9
634.951	15698.7
635.145	15514.39
635.339	15387.41
635.533	15405.84
635.726	15274.77
635.92	14986.01
636.114	15162.14
636.308	15127.32
636.501	14916.38
636.695	15004.44
636.889	14750.49
637.083	14764.83
637.276	14672.67
637.47	14633.76
637.664	14715.68
637.857	14684.96
638.051	14617.38
638.244	14252.84
638.438	14220.07
638.632	14289.7
638.825	14150.44
639.019	14054.19
639.212	14078.76
639.406	14070.57
639.599	13873.96
639.793	13863.72
639.986	13714.22
640.18	13910.83
640.373	13507.38
640.567	13331.25
640.76	13445.94
640.954	13101.88
641.147	13128.5
641.34	13071.16
641.534	13357.88
641.727	13062.97
641.92	13261.62
642.114	13091.64
642.307	12956.47
642.5	12782.4
642.694	12454.72
642.887	12518.21
643.08	12464.96
643.273	12403.52
643.467	12381
643.66	12376.9
643.853	12125
644.046	12030.79
644.239	12184.39
644.432	11850.57
644.626	11934.54
644.819	11817.8
645.012	11803.47
645.205	11940.68
645.398	11733.84
645.591	11613.01
645.784	11545.42
645.977	11318.1
646.17	11531.09
646.363	11256.66
646.556	11207.51
646.749	10994.52
646.942	11103.06
647.135	10978.14
647.328	10879.83
647.521	10802.01
647.714	10582.88
647.907	10595.17
648.099	10537.82
648.292	10541.92
648.485	10849.11
648.678	10367.84
648.871	10345.31
649.064	10468.19
649.256	10339.17
649.449	10120.04
649.642	10136.42
649.835	9997.16
650.027	9927.53
650.22	9767.79
650.413	9802.6
650.605	9763.69
650.798	9612.14
650.991	9651.05
651.183	9724.78
651.376	9556.85
651.568	9532.27
651.761	9421.68
651.954	9474.93
652.146	9292.66
652.339	9341.81
652.531	9237.36
652.724	9212.79
652.916	9098.1
653.109	9085.81
653.301	8997.75
653.494	9155.44
653.686	8631.16
653.879	8942.46
654.071	8786.81
654.263	8713.08
654.456	8770.43
654.648	8661.88
654.84	8506.24
655.033	8455.04
655.225	8457.09
655.417	8207.23
655.61	8418.18
655.802	8346.5
655.994	8205.19
656.186	8227.71
656.379	8055.69
656.571	7902.09
656.763	8127.36
656.955	8059.78
657.148	7914.38
657.34	8063.88
657.532	7721.87
657.724	7740.3
657.916	7744.39
658.108	7656.33
658.3	7447.44
658.492	7562.12
658.684	7353.23
658.876	7543.69
659.068	7453.58
659.26	7211.92
659.452	7345.04
659.644	7312.27
659.836	7191.44
660.028	7254.93
660.22	6884.25
660.412	7109.52
660.604	7033.75
660.796	6978.45
660.988	6843.29
661.18	6861.72
661.372	6736.79
661.563	6767.51
661.755	6706.07
661.947	6650.78
662.139	6689.69
662.331	6712.22
662.522	6669.21
662.714	6390.69
662.906	6437.79
663.097	6558.62
663.289	6341.54
663.481	6265.76
663.673	6222.75
663.864	6210.47
664.056	6370.21
664.247	6093.73
664.439	6040.48
664.631	6116.26
664.822	5942.18
665.014	5970.85
665.205	5872.55
665.397	5833.64
665.588	5985.19
665.78	5860.26
665.971	5790.63
666.163	5712.81
666.354	5704.62
666.546	5579.69
666.737	5481.39
666.929	5553.07
667.12	5370.8
667.311	5350.32
667.503	5354.41
667.694	5524.4
667.885	5460.91
668.077	5327.79
668.268	5417.9
668.459	5598.12
668.651	5192.62
668.842	5442.48
669.033	5174.19
669.224	5112.75
669.416	5114.8
669.607	5151.67
669.798	4889.53
669.989	5065.65
670.18	4856.76
670.371	4963.25
670.563	4953.01
670.754	4981.68
670.945	4828.09
671.136	5059.51
671.327	4815.8
671.518	4946.87
671.709	4942.77
671.9	4879.29
672.091	4774.84
672.282	4844.47
672.473	4826.04
672.664	4787.13
672.855	4606.91
673.046	4649.91
673.237	4682.68
673.428	4758.46
673.619	4826.04
673.809	4621.24
674	4637.63
674.191	4660.15
674.382	4459.45
674.573	4522.94
674.764	4426.68
674.954	4627.39
675.145	4488.12
675.336	4381.63
675.527	4535.23
675.717	4508.6
675.908	4506.56
676.099	4623.29
676.289	4432.83
676.48	4346.81
676.671	4232.13
676.861	4481.98
677.052	4402.11
677.243	4262.85
677.433	4361.15
677.624	4441.02
677.814	4334.53
678.005	4498.36
678.195	4348.86
678.386	4320.19
678.576	4201.41
678.767	4326.33
678.957	4314.05
679.148	4293.57
679.338	4398.01
679.529	4324.29
679.719	4297.66
679.909	4371.39
680.1	4258.75
680.29	4430.78
680.481	4283.33
680.671	4232.13
680.861	4357.05
681.052	4254.66
681.242	4156.35
681.432	4326.33
681.622	4238.27
681.813	4213.7
682.003	4119.49
682.193	4266.94
682.383	4223.94
682.573	4185.02
682.764	4217.79
682.954	4307.9
683.144	4240.32
683.334	4219.84
683.524	4322.24
683.714	4312
683.904	4131.78
684.094	4379.58
684.284	4154.3
684.474	4283.33
684.664	4312
684.854	4293.57
685.044	4199.36
685.234	4318.14
685.424	4350.91
685.614	4289.47
685.804	4193.22
685.994	4307.9
686.184	4164.54
686.374	4076.48
686.564	4228.03
686.753	4193.22
686.943	4090.82
687.133	4191.17
687.323	4080.58
687.513	4279.23
687.702	4164.54
687.892	4291.52
688.082	4101.06
688.272	4291.52
688.461	4232.13
688.651	4279.23
688.841	4197.31
689.03	4174.78
689.22	4086.72
689.41	4223.94
689.599	4160.45
689.789	4074.43
689.979	4275.13
690.168	4090.82
690.358	4199.36
690.547	4117.44
690.737	4371.39
690.926	4062.15
691.116	4199.36
691.305	4275.13
691.495	4084.67
691.684	4146.11
691.874	4258.75
692.063	4268.99
692.252	4295.61
692.442	4225.98
692.631	4209.6
692.82	4303.81
693.01	4207.55
693.199	4189.12
693.388	4185.02
693.578	4223.94
693.767	4166.59
693.956	4146.11
694.146	4152.26
694.335	4164.54
694.524	4152.26
694.713	4205.5
694.902	4291.52
695.092	4289.47
695.281	4332.48
695.47	4135.87
695.659	4254.66
695.848	4228.03
696.037	4297.66
696.226	4219.84
696.415	4283.33
696.604	4355.01
696.793	4293.57
696.982	4322.24
697.171	4266.94
697.36	4285.37
697.549	4400.06
697.738	4248.51
697.927	4156.35
698.116	4228.03
698.305	4346.81
698.494	4271.04
698.683	4336.57
698.872	4490.17
699.061	4326.33
699.25	4262.85
699.438	4375.49
699.627	4320.19
699.816	4381.63
700.005	4359.1
700.193	4373.44
700.382	4465.6
700.571	4408.25
700.76	4322.24
700.948	4422.59
701.137	4473.79
701.326	4252.61
701.514	4281.28
701.703	4314.05
701.892	4414.4
702.08	4428.73
702.269	4293.57
702.457	4387.77
702.646	4408.25
702.834	4334.53
703.023	4492.22
703.212	4377.53
703.4	4471.74
703.589	4320.19
703.777	4383.68
703.965	4320.19
704.154	4307.9
704.342	4289.47
704.531	4260.8
704.719	4219.84
704.907	4408.25
705.096	4201.41
705.284	4479.93
705.472	4180.93
705.661	4305.85
705.849	4268.99
706.037	4402.11
706.226	4398.01
706.414	4338.62
706.602	4334.53
706.79	4264.89
706.979	4297.66
707.167	4316.09
707.355	4314.05
707.543	4328.38
707.731	4355.01
707.919	4305.85
708.107	4291.52
708.296	4283.33
708.484	4250.56
708.672	4285.37
708.86	4275.13
709.048	4254.66
709.236	4279.23
709.424	4180.93
709.612	4195.26
709.8	4211.65
709.988	4109.25
710.176	4268.99
710.364	4242.37
710.551	4207.55
710.739	4144.06
710.927	4135.87
711.115	4041.67
711.303	4342.72
711.491	4291.52
711.679	4000.71
711.866	4256.7
712.054	4240.32
712.242	3980.23
712.43	4215.74
712.617	4297.66
712.805	4084.67
712.993	4123.59
713.181	4019.14
713.368	4144.06
713.556	3986.37
713.744	3976.13
713.931	4113.35
714.119	4113.35
714.306	4099.01
714.494	4017.09
714.682	4152.26
714.869	3865.54
715.057	4056
715.244	3965.89
715.432	4004.8
715.619	4029.38
715.807	3888.07
715.994	3963.84
716.182	3967.94
716.369	4000.71
716.556	3990.47
716.744	4045.76
716.931	4025.28
717.119	3982.28
717.306	3939.27
717.493	3867.59
717.681	3896.26
717.868	3810.25
718.055	3906.5
718.242	3945.41
718.43	3867.59
718.617	3949.51
718.804	3869.64
718.991	3986.37
719.179	3822.53
719.366	3757
719.553	3795.91
719.74	3922.88
719.927	3802.05
720.114	3707.85
720.301	3863.49
720.488	3775.43
720.676	3759.05
720.863	3789.77
721.05	3902.4
721.237	3740.61
721.424	3810.25
721.611	3730.38
721.798	3654.6
721.985	3693.51
722.172	3611.59
722.358	3738.57
722.545	3769.29
722.732	3646.41
722.919	3607.5
723.106	3578.83
723.293	3627.98
723.48	3781.57
723.667	3670.98
723.853	3681.22
724.04	3556.3
724.227	3552.2
724.414	3621.83
724.6	3544.01
724.787	3687.37
724.974	3607.5
725.161	3460.04
725.347	3511.24
725.534	3648.46
725.72	3724.23
725.907	3584.97
726.094	3599.31
726.28	3572.68
726.467	3470.28
726.653	3419.08
726.84	3527.63
727.027	3513.29
727.213	3476.43
727.4	3529.67
727.586	3578.83
727.773	3453.9
727.959	3384.27
728.145	3380.17
728.332	3400.65
728.518	3414.99
728.705	3392.46
728.891	3433.42
729.077	3468.24
729.264	3611.59
729.45	3361.74
729.636	3484.62
729.823	3318.73
730.009	3490.76
730.195	3390.41
730.382	3511.24
730.568	3316.69
730.754	3328.97
730.94	3363.79
731.126	3314.64
731.313	3367.88
731.499	3216.33
731.685	3306.45
731.871	3394.51
732.057	3310.54
732.243	3292.11
732.429	3193.81
732.615	3232.72
732.801	3267.53
732.987	3245.01
733.173	3089.36
733.359	3265.49
733.545	3109.84
733.731	3134.42
733.917	3218.38
734.103	3142.61
734.289	3230.67
734.475	3144.66
734.661	3173.33
734.847	3111.89
735.033	3087.31
735.219	3173.33
735.404	3185.62
735.59	3101.65
735.776	2982.87
735.962	3060.69
736.148	3027.92
736.333	3068.88
736.519	3093.46
736.705	2997.2
736.89	2991.06
737.076	3115.98
737.262	3032.02
737.447	3001.3
737.633	3052.5
737.819	3062.74
738.004	3001.3
738.19	2915.28
738.375	3052.5
738.561	2966.48
738.747	2962.39
738.932	2894.8
739.118	2960.34
739.303	2833.36
739.489	2866.13
739.674	2868.18
739.859	2806.74
740.045	2794.45
740.23	2816.98
740.416	2700.25
740.601	2898.9
740.786	2847.7
740.972	2735.06
741.157	2690.01
741.342	2677.72
741.528	2823.12
741.713	2749.4
741.898	2743.25
742.084	2802.65
742.269	2692.05
742.454	2776.02
742.639	2821.08
742.824	2563.03
743.01	2679.77
743.195	2780.12
743.38	2550.75
743.565	2720.73
743.75	2712.53
743.935	2544.6
744.12	2577.37
744.305	2542.55
744.49	2458.59
744.675	2452.44
744.86	2560.98
745.045	2558.94
745.23	2612.18
745.415	2538.46
745.6	2546.65
745.785	2350.04
745.97	2554.84
746.155	2423.77
746.34	2331.61
746.525	2526.17
746.71	2479.07
746.895	2272.22
747.079	2304.99
747.264	2366.43
747.449	2362.33
747.634	2323.42
747.819	2204.64
748.003	2300.89
748.188	2186.21
748.373	2221.02
748.557	2360.28
748.742	2071.52
748.927	2155.49
749.111	2243.55
749.296	2077.66
749.481	2309.08
749.665	2163.68
749.85	2223.07
750.034	2149.34
750.219	2143.2
750.404	2137.06
750.588	2243.55
750.773	2075.62
750.957	1979.36
751.141	2098.14
751.326	2116.58
751.51	2018.27
751.695	1989.6
751.879	2040.8
752.064	2096.1
752.248	1911.78
752.432	2048.99
752.617	2012.13
752.801	2003.94
752.985	1795.04
753.17	1993.7
753.354	1913.83
753.538	1833.96
753.722	1876.96
753.907	1860.58
754.091	1813.48
754.275	1864.68
754.459	1784.8
754.643	1790.95
754.828	1754.09
755.012	1866.72
755.196	1700.84
755.38	1694.69
755.564	1756.13
755.748	1772.52
755.932	1713.13
756.116	1614.82
756.3	1731.56
756.484	1754.09
756.668	1766.37
756.852	1625.06
757.036	1674.21
757.22	1702.89
757.404	1666.02
757.588	1629.16
757.772	1610.73
757.956	1592.3
758.14	1522.66
758.323	1594.34
758.507	1649.64
758.691	1577.96
758.875	1592.3
759.059	1643.49
759.242	1493.99
759.426	1547.24
759.61	1469.42
759.794	1485.8
759.977	1459.18
760.161	1580.01
760.345	1543.14
760.528	1557.48
760.712	1467.37
760.895	1465.32
761.079	1514.47
761.263	1338.35
761.446	1381.35
761.63	1393.64
761.813	1473.51
761.997	1399.79
762.18	1346.54
762.364	1430.51
762.547	1291.24
762.731	1289.2
762.914	1348.59
763.098	1407.98
763.281	1328.11
763.464	1358.83
763.648	1350.64
763.831	1338.35
764.015	1354.73
764.198	1383.4
764.381	1352.68
764.564	1238
764.748	1342.44
764.931	1317.87
765.114	1301.48
765.297	1342.44
765.481	1192.94
765.664	1295.34
765.847	1260.52
766.03	1364.97
766.213	1188.85
766.397	1250.28
766.58	1113.07
766.763	1260.52
766.946	1227.76
767.129	1291.24
767.312	1176.56
767.495	1313.77
767.678	1160.17
767.861	1248.24
768.044	1266.67
768.227	1242.09
768.41	1123.31
768.593	1235.95
768.776	1250.28
768.959	1295.34
769.142	1260.52
769.324	1119.21
769.507	1170.41
769.69	1133.55
769.873	1168.37
770.056	1254.38
770.239	1164.27
770.421	1207.28
770.604	1188.85
770.787	1129.45
770.97	1113.07
771.152	1092.59
771.335	1192.94
771.518	1035.25
771.7	1104.88
771.883	1207.28
772.066	1076.21
772.248	1080.3
772.431	1170.41
772.613	1104.88
772.796	986.1
772.978	1084.4
773.161	1125.36
773.343	1135.6
773.526	1047.54
773.708	986.1
773.891	959.47
774.073	1004.53
774.256	996.34
774.438	1096.69
774.621	1074.16
774.803	1018.86
774.985	1033.2
775.168	1139.69
775.35	1043.44
775.532	1037.3
775.715	971.76
775.897	949.23
776.079	895.99
776.261	1010.67
776.444	951.28
776.626	953.33
776.808	994.29
776.99	861.17
777.173	883.7
777.355	914.42
777.537	887.79
777.719	910.32
777.901	816.12
778.083	938.99
778.265	859.12
778.447	910.32
778.629	828.4
778.811	783.35
778.993	812.02
779.175	969.71
779.357	826.36
779.539	893.94
779.721	859.12
779.903	877.55
780.085	726
780.267	826.36
780.449	814.07
780.631	848.88
780.812	842.74
780.994	791.54
781.176	734.2
781.358	766.96
781.54	695.29
781.721	762.87
781.903	734.2
782.085	771.06
782.267	709.62
782.448	691.19
782.63	734.2
782.812	689.14
782.993	697.33
783.175	783.35
783.357	666.61
783.538	707.57
783.72	672.76
783.901	705.53
784.083	707.57
784.264	736.24
784.446	631.8
784.627	603.13
784.809	752.63
784.99	596.98
785.172	644.09
785.353	629.75
785.535	656.37
785.716	556.02
785.897	578.55
786.079	644.09
786.26	631.8
786.441	521.21
786.623	582.65
786.804	525.3
786.985	629.75
787.167	564.22
787.348	599.03
787.529	629.75
787.71	609.27
787.891	695.29
788.073	513.02
788.254	494.58
788.435	637.94
788.616	601.08
788.797	605.17
788.978	521.21
789.159	564.22
789.34	568.31
789.522	531.45
789.703	508.92
789.884	549.88
790.065	490.49
790.246	478.2
790.427	625.65
790.607	545.78
790.788	558.07
790.969	498.68
791.15	488.44
791.331	447.48
791.512	453.63
791.693	361.47
791.874	470.01
792.054	625.65
792.235	424.95
792.416	439.29
792.597	508.92
792.778	404.47
792.958	496.63
793.139	369.66
793.32	486.39
793.5	459.77
793.681	539.64
793.862	404.47
794.042	429.05
794.223	390.14
794.404	418.81
794.584	412.67
794.765	433.15
794.945	367.61
795.126	453.63
795.306	449.53
795.487	330.75
795.667	408.57
795.848	355.32
796.028	349.18
796.209	416.76
796.389	439.29
796.57	357.37
796.75	353.27
796.93	388.09
797.111	418.81
797.291	347.13
797.471	386.04
797.652	379.9
797.832	336.89
798.012	400.38
798.192	304.12
798.373	316.41
798.553	297.98
798.733	369.66
798.913	314.36
799.093	314.36
799.274	410.62
799.454	375.8
799.634	465.91
799.814	302.08
799.994	326.65
800.174	359.42
800.354	314.36
800.534	308.22
800.714	365.56
800.894	273.4
801.074	308.22
801.254	275.45
801.434	457.72
801.614	336.89
801.794	248.83
801.974	1348.59
802.154	291.84
802.334	371.71
802.514	306.17
802.693	302.08
802.873	279.55
803.053	338.94
803.233	345.08
803.413	238.59
803.592	250.88
803.772	302.08
803.952	390.14
804.131	220.16
804.311	263.16
804.491	334.84
804.67	271.36
804.85	277.5
805.03	281.6
805.209	369.66
805.389	343.03
805.568	201.72
805.748	287.74
805.928	240.64
806.107	361.47
806.287	244.73
806.466	338.94
806.646	244.73
806.825	279.55
807.004	269.31
807.184	396.28
807.363	259.07
807.543	244.73
807.722	248.83
807.901	361.47
808.081	240.64
808.26	220.16
808.439	252.92
808.619	185.34
808.798	216.06
808.977	275.45
809.156	291.84
809.336	267.26
809.515	320.51
809.694	80.89
809.873	199.68
810.052	287.74
810.231	150.53
810.411	244.73
810.59	269.31
810.769	193.53
810.948	259.07
811.127	191.49
811.306	240.64
811.485	248.83
811.664	328.7
811.843	181.25
812.022	238.59
812.201	173.05
812.38	226.3
812.559	203.77
812.737	209.92
812.916	132.09
813.095	257.02
813.274	189.44
813.453	250.88
813.632	197.63
813.811	203.77
813.989	128
814.168	189.44
814.347	168.96
814.526	234.49
814.704	285.69
814.883	300.03
815.062	177.15
815.24	224.25
815.419	152.57
815.598	156.67
815.776	132.09
815.955	220.16
816.133	109.57
816.312	154.62
816.49	203.77
816.669	113.66
816.847	179.2
817.026	224.25
817.204	164.86
817.383	230.4
817.561	113.66
817.74	240.64
817.918	226.3
818.097	113.66
818.275	199.68
818.453	195.58
818.632	164.86
818.81	197.63
818.988	144.38
819.167	146.43
819.345	191.49
819.523	128
819.701	142.33
819.879	205.82
820.058	191.49
820.236	218.11
820.414	183.29
820.592	154.62
820.77	117.76
820.948	109.57
821.127	89.09
821.305	181.25
821.483	144.38
821.661	175.1
821.839	117.76
822.017	195.58
822.195	166.91
822.373	261.12
822.551	142.33
822.729	138.24
822.907	152.57
823.085	168.96
823.262	158.72
823.44	166.91
823.618	193.53
823.796	150.53
823.974	152.57
824.152	173.05
824.329	91.13
824.507	181.25
824.685	142.33
824.863	121.85
825.04	109.57
825.218	185.34
825.396	148.48
825.574	175.1
825.751	171.01
825.929	179.2
826.107	46.08
826.284	156.67
826.462	113.66
826.639	125.95
826.817	66.56
826.994	64.51
827.172	82.94
827.349	152.57
827.527	148.48
827.704	195.58
827.882	142.33
828.059	136.19
828.237	105.47
828.414	132.09
828.591	39.94
828.769	111.61
828.946	15.36
829.124	95.23
829.301	201.72
829.478	136.19
829.655	89.09
829.833	78.85
830.01	72.7
830.187	220.16
830.364	146.43
830.542	156.67
830.719	111.61
830.896	134.14
831.073	154.62
831.25	162.81
831.427	113.66
831.604	130.05
831.782	97.28
831.959	162.81
832.136	93.18
832.313	132.09
832.49	50.18
832.667	185.34
832.844	82.94
833.021	109.57
833.198	99.33
833.374	97.28
833.551	91.13
833.728	62.46
833.905	107.52
834.082	39.94
834.259	103.42
834.436	138.24
834.612	144.38
834.789	72.7
834.966	99.33
835.143	128
835.319	68.61
835.496	177.15
835.673	99.33
835.85	160.77
836.026	146.43
836.203	107.52
836.38	123.9
836.556	64.51
836.733	64.51
836.909	134.14
837.086	56.32
837.262	5.12
837.439	121.85
837.616	64.51
837.792	136.19
837.968	37.89
838.145	52.22
838.321	89.09
838.498	117.76
838.674	119.81
838.851	107.52
839.027	84.99
839.203	117.76
839.38	162.81
839.556	19.46
839.732	140.29
839.909	97.28
840.085	84.99
840.261	31.74
840.437	103.42
840.614	82.94
840.79	103.42
840.966	95.23
841.142	101.37
841.318	78.85
841.494	111.61
841.671	148.48
841.847	44.03
842.023	-5.12
842.199	56.32
842.375	222.2
842.551	29.7
842.727	48.13
842.903	181.25
843.079	54.27
843.255	128
843.431	80.89
843.607	54.27
843.783	13.31
843.959	111.61
844.134	78.85
844.31	119.81
844.486	31.74
844.662	35.84
844.838	158.72
845.013	103.42
845.189	156.67
845.365	158.72
845.541	72.7
845.716	109.57
845.892	103.42
846.068	56.32
846.244	19.46
846.419	72.7
846.595	58.37
846.77	99.33
846.946	103.42
847.122	52.22
847.297	21.5
847.473	76.8
847.648	31.74
847.824	82.94
847.999	-1.02
848.175	105.47
848.35	44.03
848.526	121.85
848.701	123.9
848.876	68.61
849.052	140.29
849.227	25.6
849.403	158.72
849.578	5.12
849.753	123.9
849.929	62.46
850.104	-19.46
850.279	103.42
850.454	68.61
850.63	93.18
850.805	66.56
850.98	82.94
851.155	27.65
851.33	93.18
851.505	31.74
851.681	121.85
851.856	13.31
852.031	46.08
852.206	54.27
852.381	-13.31
852.556	101.37
852.731	162.81
852.906	91.13
853.081	62.46
853.256	103.42
853.431	109.57
853.606	66.56
853.781	56.32
853.956	-19.46
854.131	105.47
854.305	5.12
854.48	82.94
854.655	68.61
854.83	19.46
855.005	3.07
855.18	111.61
855.354	64.51
855.529	21.5
855.704	62.46
855.879	46.08
856.053	9.22
856.228	113.66
856.403	52.22
856.577	84.99
856.752	35.84
856.926	68.61
857.101	89.09
857.276	7.17
857.45	37.89
857.625	128
857.799	91.13
857.974	105.47
858.148	-33.79
858.323	39.94
858.497	29.7
858.672	19.46
858.846	-11.26
859.02	56.32
859.195	-13.31
859.369	-3.07
859.543	64.51
859.718	-11.26
859.892	19.46
860.066	-3.07
860.241	-25.6
860.415	39.94
860.589	-3.07
860.763	-11.26
860.938	41.98
861.112	62.46
861.286	39.94
861.46	-1.02
861.634	56.32
861.808	99.33
861.982	54.27
862.157	-19.46
862.331	58.37
862.505	21.5
862.679	58.37
862.853	25.6
863.027	31.74
863.201	150.53
863.375	66.56
863.549	46.08
863.722	105.47
863.896	78.85
864.07	19.46
864.244	80.89
864.418	95.23
864.592	-60.42
864.766	-15.36
864.939	97.28
865.113	78.85
865.287	82.94
865.461	41.98
865.634	95.23
865.808	74.75
865.982	13.31
866.156	13.31
866.329	-13.31
866.503	78.85
866.676	41.98
866.85	39.94
867.024	5.12
867.197	-3.07
867.371	123.9
867.544	-27.65
867.718	27.65
867.891	54.27
868.065	-9.22
868.238	9.22
868.412	107.52
868.585	25.6
868.759	99.33
868.932	44.03
869.105	15.36
869.279	23.55
869.452	39.94
869.625	74.75
869.799	27.65
869.972	-60.42
870.145	68.61
870.319	66.56
870.492	80.89
870.665	19.46
870.838	56.32
871.011	-46.08
871.185	19.46
871.358	101.37
871.531	103.42
871.704	37.89
871.877	46.08
872.05	-3.07
872.223	29.7
872.396	97.28
872.569	41.98
872.742	3.07
872.915	70.65
873.088	48.13
873.261	-35.84
873.434	54.27
873.607	29.7
873.78	21.5
873.953	-1.02
874.126	21.5
874.299	76.8
874.471	19.46
874.644	1.02
874.817	41.98
874.99	125.95
875.163	5.12
875.335	80.89
875.508	-78.85
875.681	23.55
875.853	-25.6
876.026	23.55
876.199	35.84
876.371	-29.7
876.544	23.55
876.717	80.89
876.889	-66.56
877.062	50.18
877.234	25.6
877.407	21.5
877.579	54.27
877.752	64.51
877.924	52.22
878.097	46.08
878.269	46.08
878.442	39.94
878.614	37.89
878.786	-7.17
878.959	72.7
879.131	39.94
879.303	-17.41
879.476	44.03
879.648	33.79
879.82	-3.07
879.993	7.17
880.165	44.03
880.337	31.74
880.509	146.43
880.681	-5.12
880.854	31.74
881.026	89.09
881.198	95.23
881.37	31.74
881.542	37.89
881.714	-3.07
881.886	5.12
882.058	-13.31
882.23	70.65
882.402	15.36
882.574	54.27
882.746	15.36
882.918	121.85
883.09	-7.17
883.262	-41.98
883.434	-11.26
883.606	1.02
883.778	-1.02
883.95	123.9
884.122	-9.22
884.293	91.13
884.465	1.02
884.637	41.98
884.809	-5.12
884.98	21.5
885.152	91.13
885.324	37.89
885.496	-37.89
885.667	-7.17
885.839	-7.17
886.011	89.09
886.182	-3.07
886.354	33.79
886.525	-41.98
886.697	60.42
886.869	-52.22
887.04	7.17
887.212	140.29
887.383	107.52
887.555	46.08
887.726	-70.65
887.897	-7.17
888.069	-44.03
888.24	27.65
888.412	39.94
888.583	72.7
888.754	27.65
888.926	-9.22
889.097	-17.41
889.268	-35.84
889.44	52.22
889.611	-21.5
889.782	29.7
889.953	15.36
890.125	95.23
890.296	-68.61
890.467	7.17
890.638	7.17
890.809	9.22
890.98	31.74
891.151	31.74
891.323	41.98
891.494	44.03
891.665	-7.17
891.836	-37.89
892.007	39.94
892.178	37.89
892.349	78.85
892.52	-19.46
892.691	15.36
892.862	29.7
893.032	25.6
893.203	31.74
893.374	70.65
893.545	72.7
893.716	-17.41
893.887	15.36
894.057	99.33
894.228	-1.02
894.399	-23.55
894.57	60.42
894.74	9.22
894.911	50.18
895.082	44.03
895.253	-7.17
895.423	17.41
895.594	74.75
895.764	19.46
895.935	-72.7
896.106	23.55
896.276	-70.65
896.447	-19.46
896.617	-19.46
896.788	50.18
896.958	1.02
897.129	23.55
897.299	-27.65
897.47	76.8
897.64	74.75
897.81	31.74
897.981	-9.22
898.151	-41.98
898.322	64.51
898.492	-5.12
898.662	-5.12
898.832	-27.65
899.003	7.17
899.173	1.02
899.343	-17.41
899.513	29.7
