Data from USB4F104151__8__12-11-16-452.txt Node

Date: Fri Mar 14 12:11:16 EDT 2025
User: louis
Spectrometer: USB4F10415
Trigger mode: 4
Integration Time (sec): 5.000000E-2
Scans to average: 1
Electric dark correction enabled: true
Nonlinearity correction enabled: false
Boxcar width: 0
XAxis mode: Wavelengths
Number of Pixels in Spectrum: 3648
>>>>>Begin Spectral Data<<<<<
178.204	-208.55
178.424	-208.55
178.644	-208.55
178.864	-239.27
179.084	-245.41
179.304	10.58
179.524	-28.33
179.744	-69.29
179.964	39.25
180.184	41.3
180.404	41.3
180.624	-52.91
180.844	2.39
181.064	-20.14
181.283	80.21
181.503	-89.77
181.723	45.4
181.943	-34.47
182.163	63.83
182.383	-7.85
182.602	49.49
182.822	59.73
183.042	39.25
183.262	24.92
183.482	39.25
183.701	-7.85
183.921	14.68
184.141	-34.47
184.361	45.4
184.58	20.82
184.8	-67.24
185.02	-20.14
185.239	82.26
185.459	82.26
185.679	98.64
185.898	8.53
186.118	72.02
186.338	8.53
186.557	33.11
186.777	0.34
186.997	6.49
187.216	43.35
187.436	155.99
187.655	69.97
187.875	49.49
188.095	43.35
188.314	110.93
188.534	61.78
188.753	55.64
188.973	133.46
189.192	108.88
189.412	4.44
189.631	67.92
189.851	47.44
190.07	76.12
190.29	-32.43
190.509	41.3
190.729	59.73
190.948	88.4
191.168	285.01
191.387	29.01
191.607	-40.62
191.826	18.77
192.045	82.26
192.265	12.63
192.484	59.73
192.704	12.63
192.923	-30.38
193.142	201.04
193.362	80.21
193.581	86.36
193.8	0.34
194.02	18.77
194.239	41.3
194.458	12.63
194.678	43.35
194.897	-9.9
195.116	57.68
195.335	57.68
195.555	-13.99
195.774	84.31
195.993	72.02
196.212	-34.47
196.432	37.2
196.651	-63.15
196.87	14.68
197.089	102.74
197.308	6.49
197.528	-26.28
197.747	-26.28
197.966	-7.85
198.185	86.36
198.404	18.77
198.623	-13.99
198.842	119.12
199.062	104.79
199.281	96.6
199.5	31.06
199.719	37.2
199.938	29.01
200.157	84.31
200.376	-5.8
200.595	147.8
200.814	31.06
201.033	-26.28
201.252	6.49
201.471	16.73
201.69	55.64
201.909	53.59
202.128	8.53
202.347	84.31
202.566	-42.67
202.785	-40.62
203.004	16.73
203.223	182.61
203.442	67.92
203.661	53.59
203.879	24.92
204.098	88.4
204.317	12.63
204.536	69.97
204.755	129.36
204.974	53.59
205.193	31.06
205.411	160.08
205.63	41.3
205.849	55.64
206.068	86.36
206.287	53.59
206.505	80.21
206.724	18.77
206.943	20.82
207.162	8.53
207.381	0.34
207.599	74.07
207.818	20.82
208.037	4.44
208.255	-11.95
208.474	45.4
208.693	33.11
208.911	12.63
209.13	78.16
209.349	80.21
209.567	125.27
209.786	16.73
210.005	61.78
210.223	31.06
210.442	-48.81
210.661	74.07
210.879	-9.9
211.098	-3.75
211.316	35.16
211.535	43.35
211.753	10.58
211.972	82.26
212.191	18.77
212.409	-11.95
212.628	33.11
212.846	16.73
213.065	82.26
213.283	84.31
213.502	45.4
213.72	18.77
213.938	65.88
214.157	41.3
214.375	98.64
214.594	-11.95
214.812	-42.67
215.031	-7.85
215.249	14.68
215.467	-24.23
215.686	72.02
215.904	133.46
216.122	78.16
216.341	26.96
216.559	8.53
216.778	119.12
216.996	2.39
217.214	12.63
217.432	-36.52
217.651	-5.8
217.869	57.68
218.087	47.44
218.306	-5.8
218.524	45.4
218.742	-52.91
218.96	35.16
219.179	20.82
219.397	45.4
219.615	123.22
219.833	57.68
220.051	74.07
220.27	145.75
220.488	-28.33
220.706	106.84
220.924	31.06
221.142	-40.62
221.36	31.06
221.578	55.64
221.796	2.39
222.015	55.64
222.233	33.11
222.451	53.59
222.669	-38.57
222.887	121.17
223.105	4.44
223.323	-18.09
223.541	-9.9
223.759	174.42
223.977	-44.71
224.195	119.12
224.413	76.12
224.631	49.49
224.849	110.93
225.067	117.08
225.285	33.11
225.503	-22.19
225.721	18.77
225.939	31.06
226.157	33.11
226.375	139.6
226.592	-40.62
226.81	53.59
227.028	127.32
227.246	26.96
227.464	-3.75
227.682	92.5
227.9	74.07
228.117	-13.99
228.335	41.3
228.553	26.96
228.771	-3.75
228.989	57.68
229.206	-9.9
229.424	-9.9
229.642	-1.71
229.86	-67.24
230.077	57.68
230.295	43.35
230.513	51.54
230.731	49.49
230.948	117.08
231.166	86.36
231.384	-36.52
231.601	-52.91
231.819	151.89
232.037	-26.28
232.254	57.68
232.472	-11.95
232.689	86.36
232.907	61.78
233.125	59.73
233.342	-57
233.56	-36.52
233.777	-30.38
233.995	80.21
234.213	96.6
234.43	96.6
234.648	-57
234.865	2.39
235.083	35.16
235.3	26.96
235.518	-3.75
235.735	104.79
235.953	129.36
236.17	6.49
236.388	41.3
236.605	-32.43
236.822	76.12
237.04	67.92
237.257	49.49
237.475	-42.67
237.692	41.3
237.909	53.59
238.127	16.73
238.344	69.97
238.562	-24.23
238.779	-26.28
238.996	0.34
239.214	43.35
239.431	39.25
239.648	-57
239.865	24.92
240.083	76.12
240.3	18.77
240.517	-46.76
240.735	24.92
240.952	121.17
241.169	84.31
241.386	86.36
241.603	53.59
241.821	-5.8
242.038	67.92
242.255	53.59
242.472	53.59
242.689	123.22
242.907	108.88
243.124	59.73
243.341	16.73
243.558	-32.43
243.775	-7.85
243.992	-57
244.209	96.6
244.426	164.18
244.643	-28.33
244.86	22.87
245.078	59.73
245.295	88.4
245.512	4.44
245.729	63.83
245.946	90.45
246.163	49.49
246.38	88.4
246.597	2.39
246.814	-5.8
247.031	0.34
247.248	2.39
247.464	33.11
247.681	86.36
247.898	104.79
248.115	4.44
248.332	-1.71
248.549	39.25
248.766	74.07
248.983	59.73
249.2	86.36
249.417	26.96
249.633	20.82
249.85	37.2
250.067	20.82
250.284	12.63
250.501	63.83
250.717	78.16
250.934	45.4
251.151	0.34
251.368	-36.52
251.585	100.69
251.801	29.01
252.018	39.25
252.235	137.56
252.451	-59.05
252.668	4.44
252.885	129.36
253.102	37.2
253.318	2.39
253.535	-54.95
253.752	2.39
253.968	-20.14
254.185	-1.71
254.401	26.96
254.618	24.92
254.835	43.35
255.051	94.55
255.268	104.79
255.484	57.68
255.701	-22.19
255.917	61.78
256.134	57.68
256.351	24.92
256.567	-44.71
256.784	65.88
257	-22.19
257.217	8.53
257.433	53.59
257.65	49.49
257.866	98.64
258.082	-18.09
258.299	-42.67
258.515	20.82
258.732	-7.85
258.948	31.06
259.165	74.07
259.381	-65.19
259.597	31.06
259.814	18.77
260.03	31.06
260.246	31.06
260.463	55.64
260.679	43.35
260.895	14.68
261.112	80.21
261.328	2.39
261.544	12.63
261.761	88.4
261.977	51.54
262.193	-36.52
262.409	14.68
262.626	72.02
262.842	51.54
263.058	22.87
263.274	41.3
263.49	33.11
263.707	8.53
263.923	61.78
264.139	-46.76
264.355	39.25
264.571	108.88
264.787	72.02
265.004	145.75
265.22	12.63
265.436	20.82
265.652	31.06
265.868	49.49
266.084	14.68
266.3	29.01
266.516	-85.67
266.732	12.63
266.948	37.2
267.164	-20.14
267.38	59.73
267.596	41.3
267.812	201.04
268.028	10.58
268.244	-87.72
268.46	33.11
268.676	80.21
268.892	-1.71
269.108	24.92
269.324	59.73
269.54	37.2
269.756	31.06
269.972	49.49
270.188	0.34
270.403	-16.04
270.619	121.17
270.835	-11.95
271.051	10.58
271.267	59.73
271.483	41.3
271.698	12.63
271.914	80.21
272.13	82.26
272.346	35.16
272.562	65.88
272.777	10.58
272.993	41.3
273.209	104.79
273.425	10.58
273.64	-7.85
273.856	76.12
274.072	2.39
274.287	53.59
274.503	41.3
274.719	20.82
274.934	76.12
275.15	-24.23
275.366	74.07
275.581	-11.95
275.797	57.68
276.012	80.21
276.228	51.54
276.444	67.92
276.659	98.64
276.875	-7.85
277.09	76.12
277.306	-75.43
277.521	90.45
277.737	10.58
277.952	43.35
278.168	20.82
278.383	29.01
278.599	24.92
278.814	84.31
279.03	76.12
279.245	147.8
279.461	24.92
279.676	72.02
279.892	-32.43
280.107	-65.19
280.322	-18.09
280.538	24.92
280.753	4.44
280.969	37.2
281.184	63.83
281.399	53.59
281.615	49.49
281.83	129.36
282.045	24.92
282.26	-7.85
282.476	37.2
282.691	110.93
282.906	-24.23
283.122	55.64
283.337	-24.23
283.552	137.56
283.767	-26.28
283.983	41.3
284.198	49.49
284.413	106.84
284.628	-38.57
284.843	82.26
285.058	14.68
285.274	51.54
285.489	2.39
285.704	125.27
285.919	-16.04
286.134	41.3
286.349	12.63
286.564	63.83
286.779	94.55
286.995	-61.1
287.21	-38.57
287.425	92.5
287.64	29.01
287.855	-24.23
288.07	6.49
288.285	112.98
288.5	98.64
288.715	76.12
288.93	-42.67
289.145	26.96
289.36	33.11
289.575	67.92
289.79	106.84
290.004	-40.62
290.219	18.77
290.434	16.73
290.649	49.49
290.864	53.59
291.079	31.06
291.294	41.3
291.509	12.63
291.724	31.06
291.938	72.02
292.153	-5.8
292.368	-13.99
292.583	8.53
292.798	104.79
293.012	55.64
293.227	14.68
293.442	-34.47
293.657	-24.23
293.871	162.13
294.086	12.63
294.301	55.64
294.516	61.78
294.73	22.87
294.945	-1.71
295.16	41.3
295.374	33.11
295.589	72.02
295.804	14.68
296.018	90.45
296.233	98.64
296.447	90.45
296.662	12.63
296.877	80.21
297.091	76.12
297.306	-3.75
297.52	8.53
297.735	63.83
297.949	74.07
298.164	51.54
298.378	39.25
298.593	-32.43
298.807	82.26
299.022	-38.57
299.236	92.5
299.451	0.34
299.665	80.21
299.88	8.53
300.094	22.87
300.309	22.87
300.523	49.49
300.737	37.2
300.952	80.21
301.166	125.27
301.381	-9.9
301.595	-9.9
301.809	45.4
302.024	-7.85
302.238	-50.86
302.452	57.68
302.667	49.49
302.881	147.8
303.095	20.82
303.309	12.63
303.524	16.73
303.738	39.25
303.952	-16.04
304.166	39.25
304.381	-40.62
304.595	180.56
304.809	22.87
305.023	-59.05
305.237	37.2
305.452	-46.76
305.666	-1.71
305.88	45.4
306.094	94.55
306.308	149.84
306.522	88.4
306.736	131.41
306.95	33.11
307.164	37.2
307.379	117.08
307.593	94.55
307.807	108.88
308.021	31.06
308.235	82.26
308.449	-24.23
308.663	61.78
308.877	117.08
309.091	6.49
309.305	45.4
309.519	-30.38
309.733	20.82
309.947	-26.28
310.161	37.2
310.374	45.4
310.588	92.5
310.802	2.39
311.016	4.44
311.23	65.88
311.444	-11.95
311.658	20.82
311.872	74.07
312.085	39.25
312.299	55.64
312.513	49.49
312.727	6.49
312.941	-32.43
313.154	76.12
313.368	35.16
313.582	65.88
313.796	72.02
314.009	2.39
314.223	51.54
314.437	37.2
314.651	117.08
314.864	26.96
315.078	-13.99
315.292	-20.14
315.505	-3.75
315.719	74.07
315.933	90.45
316.146	67.92
316.36	-3.75
316.573	39.25
316.787	-32.43
317.001	102.74
317.214	2.39
317.428	22.87
317.641	29.01
317.855	14.68
318.068	-13.99
318.282	119.12
318.495	143.7
318.709	72.02
318.922	41.3
319.136	49.49
319.349	196.95
319.563	-22.19
319.776	26.96
319.99	-57
320.203	104.79
320.417	6.49
320.63	57.68
320.843	100.69
321.057	-3.75
321.27	24.92
321.483	63.83
321.697	78.16
321.91	35.16
322.124	35.16
322.337	69.97
322.55	31.06
322.763	2.39
322.977	8.53
323.19	-24.23
323.403	72.02
323.617	10.58
323.83	43.35
324.043	10.58
324.256	-36.52
324.469	18.77
324.683	84.31
324.896	49.49
325.109	4.44
325.322	37.2
325.535	133.46
325.748	92.5
325.962	55.64
326.175	82.26
326.388	63.83
326.601	57.68
326.814	63.83
327.027	78.16
327.24	92.5
327.453	-36.52
327.666	72.02
327.879	108.88
328.092	149.84
328.305	12.63
328.518	-67.24
328.731	59.73
328.944	26.96
329.157	76.12
329.37	51.54
329.583	127.32
329.796	129.36
330.009	35.16
330.222	72.02
330.435	49.49
330.648	55.64
330.861	41.3
331.073	57.68
331.286	115.03
331.499	22.87
331.712	-18.09
331.925	33.11
332.138	84.31
332.35	104.79
332.563	0.34
332.776	57.68
332.989	-61.1
333.202	45.4
333.414	-20.14
333.627	63.83
333.84	37.2
334.053	47.44
334.265	37.2
334.478	-9.9
334.691	-32.43
334.903	16.73
335.116	6.49
335.329	100.69
335.541	29.01
335.754	112.98
335.966	-16.04
336.179	-1.71
336.392	-7.85
336.604	39.25
336.817	43.35
337.029	100.69
337.242	90.45
337.454	-3.75
337.667	-13.99
337.88	-3.75
338.092	29.01
338.305	88.4
338.517	47.44
338.729	61.78
338.942	100.69
339.154	0.34
339.367	12.63
339.579	22.87
339.792	43.35
340.004	8.53
340.217	14.68
340.429	6.49
340.641	-1.71
340.854	22.87
341.066	-5.8
341.278	45.4
341.491	145.75
341.703	-13.99
341.915	37.2
342.128	104.79
342.34	14.68
342.552	16.73
342.764	12.63
342.977	94.55
343.189	69.97
343.401	96.6
343.613	37.2
343.826	72.02
344.038	12.63
344.25	12.63
344.462	-40.62
344.674	69.97
344.886	41.3
345.099	45.4
345.311	10.58
345.523	8.53
345.735	-61.1
345.947	49.49
346.159	14.68
346.371	26.96
346.583	8.53
346.795	155.99
347.007	-3.75
347.219	88.4
347.431	-32.43
347.643	76.12
347.855	4.44
348.067	80.21
348.279	35.16
348.491	39.25
348.703	6.49
348.915	2.39
349.127	-1.71
349.339	82.26
349.551	22.87
349.763	57.68
349.975	59.73
350.187	155.99
350.399	67.92
350.61	59.73
350.822	-22.19
351.034	14.68
351.246	55.64
351.458	123.22
351.669	76.12
351.881	37.2
352.093	117.08
352.305	82.26
352.517	41.3
352.728	141.65
352.94	20.82
353.152	133.46
353.363	2.39
353.575	18.77
353.787	43.35
353.999	145.75
354.21	65.88
354.422	55.64
354.633	78.16
354.845	-7.85
355.057	65.88
355.268	41.3
355.48	92.5
355.692	57.68
355.903	33.11
356.115	43.35
356.326	-24.23
356.538	39.25
356.749	88.4
356.961	98.64
357.172	86.36
357.384	35.16
357.595	100.69
357.807	55.64
358.018	-9.9
358.23	-32.43
358.441	112.98
358.653	86.36
358.864	53.59
359.075	33.11
359.287	127.32
359.498	63.83
359.709	90.45
359.921	-7.85
360.132	53.59
360.344	43.35
360.555	-1.71
360.766	57.68
360.977	47.44
361.189	49.49
361.4	43.35
361.611	112.98
361.823	102.74
362.034	53.59
362.245	-7.85
362.456	0.34
362.667	-5.8
362.879	14.68
363.09	10.58
363.301	35.16
363.512	65.88
363.723	69.97
363.935	8.53
364.146	106.84
364.357	78.16
364.568	43.35
364.779	-11.95
364.99	78.16
365.201	8.53
365.412	45.4
365.623	-93.87
365.834	104.79
366.045	39.25
366.256	-9.9
366.467	76.12
366.678	26.96
366.889	59.73
367.1	-26.28
367.311	88.4
367.522	61.78
367.733	133.46
367.944	-7.85
368.155	61.78
368.366	121.17
368.577	112.98
368.788	37.2
368.999	-48.81
369.209	-40.62
369.42	196.95
369.631	92.5
369.842	104.79
370.053	59.73
370.264	53.59
370.474	-9.9
370.685	4.44
370.896	35.16
371.107	141.65
371.317	63.83
371.528	-16.04
371.739	164.18
371.95	37.2
372.16	29.01
372.371	18.77
372.582	16.73
372.792	72.02
373.003	78.16
373.214	61.78
373.424	90.45
373.635	69.97
373.846	69.97
374.056	86.36
374.267	33.11
374.477	63.83
374.688	41.3
374.898	18.77
375.109	106.84
375.319	55.64
375.53	106.84
375.74	16.73
375.951	-7.85
376.161	18.77
376.372	82.26
376.582	82.26
376.793	26.96
377.003	18.77
377.214	8.53
377.424	-44.71
377.635	45.4
377.845	24.92
378.055	92.5
378.266	-22.19
378.476	82.26
378.686	41.3
378.897	41.3
379.107	51.54
379.317	88.4
379.528	45.4
379.738	78.16
379.948	-18.09
380.158	141.65
380.369	76.12
380.579	33.11
380.789	33.11
380.999	41.3
381.21	35.16
381.42	117.08
381.63	96.6
381.84	123.22
382.05	63.83
382.261	82.26
382.471	76.12
382.681	35.16
382.891	139.6
383.101	41.3
383.311	45.4
383.521	26.96
383.731	92.5
383.941	86.36
384.151	98.64
384.361	16.73
384.571	26.96
384.781	69.97
384.991	137.56
385.201	78.16
385.411	59.73
385.621	115.03
385.831	57.68
386.041	102.74
386.251	-11.95
386.461	33.11
386.671	43.35
386.881	74.07
387.091	102.74
387.301	59.73
387.511	22.87
387.72	26.96
387.93	65.88
388.14	31.06
388.35	57.68
388.56	57.68
388.769	72.02
388.979	22.87
389.189	57.68
389.399	33.11
389.609	33.11
389.818	92.5
390.028	57.68
390.238	8.53
390.447	49.49
390.657	72.02
390.867	-9.9
391.076	37.2
391.286	88.4
391.496	69.97
391.705	61.78
391.915	84.31
392.125	74.07
392.334	-5.8
392.544	129.36
392.753	43.35
392.963	39.25
393.172	86.36
393.382	12.63
393.591	90.45
393.801	115.03
394.01	149.84
394.22	18.77
394.429	82.26
394.639	45.4
394.848	80.21
395.058	41.3
395.267	18.77
395.477	78.16
395.686	84.31
395.895	125.27
396.105	100.69
396.314	131.41
396.524	47.44
396.733	76.12
396.942	76.12
397.152	170.32
397.361	172.37
397.57	104.79
397.78	47.44
397.989	104.79
398.198	201.04
398.407	112.98
398.617	133.46
398.826	43.35
399.035	16.73
399.244	119.12
399.453	104.79
399.663	110.93
399.872	160.08
400.081	119.12
400.29	145.75
400.499	41.3
400.708	84.31
400.917	119.12
401.127	102.74
401.336	39.25
401.545	135.51
401.754	78.16
401.963	96.6
402.172	88.4
402.381	35.16
402.59	143.7
402.799	100.69
403.008	129.36
403.217	133.46
403.426	186.71
403.635	115.03
403.844	88.4
404.053	155.99
404.262	141.65
404.471	137.56
404.68	162.13
404.888	112.98
405.097	133.46
405.306	125.27
405.515	139.6
405.724	94.55
405.933	129.36
406.142	153.94
406.35	168.27
406.559	190.8
406.768	164.18
406.977	239.95
407.185	219.47
407.394	172.37
407.603	133.46
407.812	229.71
408.02	231.76
408.229	196.95
408.438	250.19
408.646	155.99
408.855	225.62
409.064	221.52
409.272	207.19
409.481	307.54
409.69	219.47
409.898	176.47
410.107	301.39
410.315	248.15
410.524	227.67
410.733	246.1
410.941	295.25
411.15	323.92
411.358	313.68
411.567	407.89
411.775	409.94
411.984	414.03
412.192	366.93
412.401	414.03
412.609	498
412.818	426.32
413.026	319.82
413.234	442.7
413.443	440.65
413.651	409.94
413.86	457.04
414.068	538.96
414.276	584.01
414.485	502.09
414.693	676.17
414.901	706.89
415.11	575.82
415.318	577.87
415.526	641.36
415.734	633.16
415.943	614.73
416.151	719.18
416.359	704.84
416.567	780.62
416.776	706.89
416.984	880.97
417.192	985.41
417.4	778.57
417.608	788.81
417.817	885.06
418.025	956.74
418.233	1014.09
418.441	940.36
418.649	954.69
418.857	1153.35
419.065	1192.26
419.273	1106.24
419.481	1186.12
419.689	1227.07
419.897	1352
420.105	1306.95
420.313	1356.1
420.521	1448.26
420.729	1431.87
420.937	1466.69
421.145	1483.07
421.353	1648.96
421.561	1632.57
421.769	1734.97
421.977	1753.4
422.185	1712.44
422.393	1890.62
422.601	1984.82
422.809	1907
423.017	2023.73
423.224	2072.89
423.432	2136.37
423.64	2197.81
423.848	2369.84
424.056	2310.45
424.263	2537.77
424.471	2431.28
424.679	2572.59
424.887	2625.84
425.094	2674.99
425.302	2838.83
425.51	2914.6
425.718	2910.5
425.925	2969.9
426.133	3012.9
426.341	3260.71
426.548	3330.34
426.756	3348.77
426.964	3393.83
427.171	3641.63
427.379	3643.68
427.586	3832.09
427.794	3715.36
428.001	4114.71
428.209	4104.47
428.417	4083.99
428.624	4497.68
428.832	4319.51
429.039	4391.19
429.247	4579.6
429.454	4874.51
429.662	5136.65
429.869	4874.51
430.076	5196.04
430.284	5093.64
430.491	5273.86
430.699	5560.58
430.906	5521.67
431.114	5609.73
431.321	5914.88
431.528	5949.69
431.736	6453.49
431.943	6641.9
432.15	6361.33
432.358	6437.11
432.565	6852.84
432.772	6854.89
432.979	7096.55
433.187	7276.77
433.394	7375.08
433.601	7704.8
433.808	7729.38
434.016	7747.81
434.223	8161.5
434.43	8607.95
434.637	8368.34
434.844	9058.51
435.052	9138.38
435.259	8931.53
435.466	9201.86
435.673	9013.45
435.88	9687.23
436.087	10109.12
436.294	10008.76
436.501	9736.38
436.708	10053.82
436.915	10444.98
437.122	11026.61
437.329	10885.3
437.537	11313.32
437.743	11597.99
437.95	11317.42
438.157	11905.18
438.364	12236.95
438.571	12187.8
438.778	12449.94
438.985	13572.23
439.192	12894.35
439.399	13308.04
439.606	13129.87
439.813	13801.6
440.02	14461.05
440.227	14329.98
440.433	14340.22
440.64	14694.52
440.847	14452.86
441.054	14973.04
441.261	15923.3
441.467	15738.98
441.674	16189.53
441.881	16750.68
442.088	16564.31
442.294	16318.56
442.501	16848.98
442.708	17252.43
442.914	17836.1
443.121	18499.64
443.328	18266.17
443.534	19546.16
443.741	18907.19
443.948	18599.99
444.154	20035.62
444.361	19828.77
444.568	19871.78
444.774	19941.41
444.981	20226.08
445.187	20469.79
445.394	21737.48
445.6	21610.51
445.807	23265.27
446.013	22421.5
446.22	22800.38
446.426	23549.93
446.633	23805.93
446.839	24731.61
447.046	23576.56
447.252	25065.43
447.459	25110.49
447.665	24917.98
447.871	25614.29
448.078	27226.04
448.284	25724.88
448.491	26845.12
448.697	27570.1
448.903	28051.37
449.11	28010.41
449.316	27604.91
449.522	28303.27
449.728	28753.82
449.935	28975
450.141	29018.01
450.347	29874.06
450.553	28641.18
450.76	29120.41
450.966	30201.74
451.172	29826.96
451.378	30605.19
451.584	30160.78
451.791	30437.25
451.997	30183.3
452.203	30707.58
452.409	30936.96
452.615	30752.64
452.821	29607.83
453.027	29325.21
453.233	31059.84
453.44	29616.02
453.646	29853.58
453.852	30304.13
454.058	30799.74
454.264	29585.3
454.47	30048.14
454.676	29251.48
454.882	30625.67
455.088	27635.63
455.294	28307.37
455.5	28452.77
455.705	28950.43
455.911	27735.98
456.117	27322.29
456.323	26865.6
456.529	25458.64
456.735	26212.29
456.941	25825.23
457.147	25483.22
457.352	24717.28
457.558	24303.59
457.764	24307.68
457.97	23896.04
458.176	23713.77
458.381	23285.75
458.587	22378.5
458.793	22419.46
458.999	21024.79
459.204	22921.21
459.41	21903.37
459.616	20467.74
459.821	20625.43
460.027	20383.77
460.233	19834.92
460.438	19159.09
460.644	19058.74
460.85	18534.46
461.055	17936.45
461.261	17961.03
461.466	16347.23
461.672	15933.54
461.878	17154.13
462.083	16072.8
462.289	15769.7
462.494	15482.99
462.7	14817.4
462.905	14518.39
463.111	14995.57
463.316	14936.18
463.522	14819.44
463.727	14825.59
463.932	14669.94
464.138	14360.7
464.343	14665.85
464.549	14223.48
464.754	14407.8
464.959	14520.44
465.165	14387.32
465.37	13940.86
465.575	13426.82
465.781	13940.86
465.986	14092.41
466.191	13365.39
466.397	13379.72
466.602	12564.63
466.807	13078.67
467.012	12976.27
467.218	12800.15
467.423	12687.51
467.628	13021.33
467.833	13328.52
468.038	12816.53
468.244	12492.95
468.449	12871.82
468.654	12611.73
468.859	12423.32
469.064	12474.52
469.269	12130.46
469.474	12130.46
469.679	12152.99
469.885	12019.87
470.09	12177.56
470.295	11761.83
470.5	11501.73
470.705	12040.35
470.91	11655.33
471.115	11298.98
471.32	11428.01
471.525	11440.29
471.73	11241.64
471.935	11198.63
472.139	10651.83
472.344	10942.64
472.549	10758.32
472.754	10774.7
472.959	10459.32
473.164	10094.78
473.369	10182.84
473.574	10684.59
473.778	10305.72
473.983	10014.91
474.188	10074.3
474.393	9883.84
474.598	9996.48
474.802	9533.64
475.007	9679.04
475.212	9695.43
475.417	9097.42
475.621	9394.37
475.826	9521.35
476.031	9068.75
476.235	8888.53
476.44	9083.08
476.645	8937.68
476.849	9038.03
477.054	8812.75
477.259	8614.1
477.463	8687.82
477.668	8550.61
477.872	8599.76
478.077	8292.57
478.282	8130.78
478.486	8163.54
478.691	8052.95
478.895	7915.74
479.1	7907.55
479.304	8018.14
479.509	7835.87
479.713	7780.57
479.918	7805.15
480.122	7801.05
480.326	7796.96
480.531	7655.65
480.735	7506.15
480.94	7510.24
481.144	7717.09
481.348	7616.74
481.553	7565.54
481.757	7397.6
481.961	7420.13
482.166	7502.05
482.37	7485.67
482.574	7250.15
482.778	7190.76
482.983	7571.68
483.187	7459.04
483.391	7475.43
483.595	7457
483.8	7336.17
484.004	7330.02
484.208	7387.36
484.412	7420.13
484.616	7465.19
484.821	7401.7
485.025	7110.89
485.229	7323.88
485.433	7373.03
485.637	7383.27
485.841	7401.7
486.045	7342.31
486.249	7364.84
486.453	7112.94
486.657	7375.08
486.861	7313.64
487.065	7309.54
487.269	7354.6
487.473	7223.53
487.677	7463.14
487.881	7583.97
488.085	7317.73
488.289	7416.04
488.493	7201
488.697	7508.19
488.901	7352.55
489.105	7270.63
489.309	7266.53
489.512	7358.69
489.716	7330.02
489.92	7370.98
490.124	7401.7
490.328	7592.16
490.531	7516.39
490.735	7567.59
490.939	7432.42
491.143	7506.15
491.346	7393.51
491.55	7500
491.754	7751.9
491.958	7581.92
492.161	7442.66
492.365	7690.46
492.569	7688.42
492.772	7469.28
492.976	7903.45
493.18	7821.53
493.383	7921.88
493.587	7903.45
493.79	8024.28
493.994	7880.93
494.197	7917.79
494.401	7921.88
494.605	8102.11
494.808	8251.61
495.012	8308.95
495.215	8327.38
495.419	8437.97
495.622	8394.97
495.825	8300.76
496.029	8526.04
496.232	8589.52
496.436	8542.42
496.639	8814.8
496.843	8495.32
497.046	8859.85
497.249	8874.19
497.453	8984.78
497.656	8995.02
497.859	9083.08
498.063	9156.81
498.266	9513.16
498.469	9355.46
498.673	9488.58
498.876	9486.53
499.079	9744.58
499.282	9603.27
499.485	9932.99
499.689	9904.32
499.892	10021.05
500.095	10096.83
500.298	10436.79
500.501	10375.35
500.705	10324.15
500.908	10537.14
501.111	10524.85
501.314	10713.27
501.517	10870.96
501.72	11120.81
501.923	10936.49
502.126	11366.57
502.329	11393.19
502.532	11516.07
502.735	11641
502.938	11911.33
503.141	11745.44
503.344	11767.97
503.547	11778.21
503.75	12284.06
503.953	12261.53
504.156	12343.45
504.359	12556.44
504.562	12581.01
504.765	13047.95
504.968	12859.54
505.17	12955.79
505.373	13144.2
505.576	13459.59
505.779	13475.98
505.982	13289.61
506.185	13738.12
506.387	13947.01
506.59	13920.38
506.793	14059.65
506.996	14067.84
507.198	14665.85
507.401	14547.06
507.604	14637.17
507.807	14704.76
508.009	14780.53
508.212	15063.15
508.415	15274.09
508.617	15444.07
508.82	15820.9
509.022	15597.67
509.225	16101.47
509.428	15958.11
509.63	16083.04
509.833	16003.17
510.035	16560.22
510.238	16519.26
510.44	16435.29
510.643	16842.84
510.845	16926.8
511.048	16904.28
511.25	17295.44
511.453	17485.9
511.655	18042.95
511.858	17668.17
512.06	17846.34
512.262	17940.55
512.465	18008.13
512.667	18079.81
512.87	18450.49
513.072	18458.68
513.274	18792.5
513.477	18901.04
513.679	19402.8
513.881	19218.48
514.084	19497
514.286	19550.25
514.488	19558.44
514.69	19994.66
514.893	20088.87
515.095	19957.8
515.297	20418.59
515.499	20410.4
515.701	20469.79
515.904	20824.09
516.106	20983.83
516.308	21041.17
516.51	21012.5
516.712	21239.83
516.914	21676.04
517.116	21667.85
517.318	21915.65
517.52	21811.21
517.722	21803.02
517.925	22263.81
518.127	22323.2
518.329	22589.44
518.531	22499.33
518.733	23091.19
518.935	23164.92
519.136	22978.55
519.338	23293.94
519.54	23484.4
519.742	23775.21
519.944	23822.31
520.146	24131.56
520.348	23816.17
520.55	23816.17
520.752	24039.4
520.954	24248.29
521.155	24389.6
521.357	24420.32
521.559	24803.29
521.761	25305.04
521.963	25395.15
522.164	25173.97
522.366	25362.39
522.568	25614.29
522.77	25313.24
522.971	26118.09
523.173	25708.49
523.375	26083.27
523.576	25810.89
523.778	25849.8
523.98	26218.44
524.181	26171.33
524.383	26388.42
524.584	26548.16
524.786	26736.57
524.988	26318.79
525.189	27000.76
525.391	26826.68
525.592	27031.48
525.794	27101.11
525.995	26949.56
526.197	26953.66
526.398	27185.08
526.6	27244.47
526.801	27723.69
527.003	27377.59
527.204	27154.36
527.406	27756.46
527.607	27426.74
527.808	28202.92
528.01	27580.34
528.211	27787.18
528.412	28221.35
528.614	27740.08
528.815	27869.1
529.016	27889.58
529.218	27836.33
529.419	27903.92
529.62	28092.33
529.822	27924.4
530.023	28092.33
530.224	27946.92
530.425	28096.42
530.626	27838.38
530.828	27932.59
531.029	28329.89
531.23	28188.58
531.431	28106.66
531.632	28245.93
531.833	28278.69
532.035	28198.82
532.236	28329.89
532.437	28319.65
532.638	27729.84
532.839	28241.83
533.04	28215.21
533.241	28075.94
533.442	28649.38
533.643	28346.28
533.844	28551.07
534.045	28350.37
534.246	27799.47
534.447	28045.23
534.648	28190.63
534.849	28520.35
535.05	27987.88
535.251	28043.18
535.451	28426.15
535.652	28448.68
535.853	28467.11
536.054	28172.2
536.255	28301.22
536.456	28186.54
536.657	28577.7
536.857	28272.55
537.058	28159.91
537.259	28229.54
537.46	28354.47
537.66	28428.2
537.861	28235.69
538.062	28245.93
538.263	28284.84
538.463	27959.21
538.664	28002.22
538.865	28239.78
539.065	27975.59
539.266	28221.35
539.466	28497.83
539.667	27996.07
539.868	28712.86
540.068	27959.21
540.269	28118.95
540.469	27889.58
540.67	28094.38
540.87	27967.4
541.071	27840.43
541.271	28336.04
541.472	27844.52
541.672	27652.02
541.873	27969.45
542.073	27985.83
542.274	28436.39
542.474	28108.71
542.675	27662.26
542.875	27893.68
543.075	28016.55
543.276	27520.95
543.476	28342.18
543.676	27815.85
543.877	27912.11
544.077	28012.46
544.277	27883.44
544.478	27805.61
544.678	27606.96
544.878	27697.07
545.078	27889.58
545.279	27275.19
545.479	27652.02
545.679	27955.11
545.879	28256.17
546.079	27793.33
546.28	27635.63
546.48	27391.92
546.68	27770.8
546.88	27555.76
547.08	27797.42
547.28	27791.28
547.48	27572.14
547.68	27811.76
547.88	27348.92
548.081	27674.54
548.281	27375.54
548.481	27692.97
548.681	27588.53
548.881	27752.37
549.081	27727.79
549.28	27482.03
549.48	27881.39
549.68	27596.72
549.88	27690.93
550.08	27666.35
550.28	27537.33
550.48	27277.24
550.68	27848.62
550.88	27426.74
551.08	27353.01
551.279	27469.75
551.479	27148.22
551.679	27613.1
551.879	27566
552.079	27662.26
552.278	27428.79
552.478	27725.74
552.678	27690.93
552.878	27639.73
553.077	27471.79
553.277	27045.82
553.477	27768.75
553.676	27654.06
553.876	27203.51
554.076	27117.5
554.275	27066.3
554.475	26927.03
554.674	27252.66
554.874	27639.73
555.074	26818.49
555.273	27557.81
555.473	27123.64
555.672	27031.48
555.872	27142.07
556.071	27498.42
556.271	27338.68
556.47	27389.88
556.67	26945.47
556.869	26947.51
557.068	27125.69
557.268	27082.68
557.467	26961.85
557.667	27168.69
557.866	27285.43
558.065	26820.54
558.265	26963.9
558.464	26757.05
558.663	27477.94
558.863	26812.35
559.062	27441.07
559.261	26763.2
559.461	27219.89
559.66	26562.5
559.859	26884.03
560.058	26888.12
560.258	26861.5
560.457	26451.91
560.656	26947.51
560.855	26816.44
561.054	26787.77
561.253	26580.93
561.453	26818.49
561.652	26767.29
561.851	26793.92
562.05	26564.54
562.249	26816.44
562.448	26757.05
562.647	26339.27
562.846	26644.41
563.045	26804.16
563.244	26177.48
563.443	26855.36
563.642	26150.85
563.841	26568.64
564.04	26218.44
564.239	26865.6
564.438	26474.43
564.637	26625.98
564.836	26283.97
565.035	26443.71
565.234	26433.47
565.432	26054.6
565.631	26486.72
565.83	26752.96
566.029	26253.25
566.228	26466.24
566.427	26404.8
566.625	26128.33
566.824	25982.92
567.023	26568.64
567.222	25798.6
567.42	26394.56
567.619	26105.8
567.818	26392.51
568.016	26132.42
568.215	26507.2
568.414	25978.82
568.612	26105.8
568.811	25888.71
569.01	26148.81
569.208	25710.54
569.407	26189.77
569.605	25745.36
569.804	26058.7
570.002	25907.15
570.201	25972.68
570.4	25657.29
570.598	25823.18
570.797	25839.56
570.995	25905.1
571.193	25589.71
571.392	26087.37
571.59	25556.94
571.789	25630.67
571.987	25751.5
572.186	25667.53
572.384	25542.61
572.582	25597.9
572.781	25550.8
572.979	25200.6
573.177	25483.22
573.376	25472.98
573.574	25481.17
573.772	25485.26
573.971	25333.71
574.169	25120.73
574.367	25305.04
574.565	25178.07
574.763	25317.33
574.962	25085.91
575.16	24958.94
575.358	25083.86
575.556	25024.47
575.754	25475.02
575.952	24780.76
576.151	25151.45
576.349	24760.28
576.547	24608.73
576.745	24727.52
576.943	24844.25
577.141	24850.39
577.339	24702.94
577.537	24743.9
577.735	24557.53
577.933	24383.46
578.131	24715.23
578.329	24473.57
578.527	24567.77
578.725	24352.74
578.923	24301.54
579.121	24059.88
579.319	24590.3
579.516	24360.93
579.714	24702.94
579.912	24266.72
580.11	24225.76
580.308	24324.07
580.506	24477.66
580.704	23799.79
580.901	24299.49
581.099	24405.98
581.297	23965.67
581.495	23902.18
581.692	24020.97
581.89	23590.89
582.088	24092.65
582.285	23810.03
582.483	23832.55
582.681	23988.2
582.878	23750.63
583.076	23453.68
583.274	23963.62
583.471	23306.23
583.669	23801.83
583.866	23222.26
584.064	23488.49
584.262	23228.4
584.459	23566.32
584.657	23171.06
584.854	23621.61
585.052	22861.82
585.249	23439.34
585.447	23322.61
585.644	23042.04
585.841	23265.27
586.039	23408.62
586.236	23113.72
586.434	22988.79
586.631	22749.18
586.828	22677.5
587.026	23179.25
587.223	22913.02
587.42	22814.71
587.618	23037.94
587.815	22433.79
588.012	22579.2
588.21	22677.5
588.407	22753.27
588.604	22634.49
588.801	22464.51
588.999	22521.85
589.196	22771.71
589.393	22370.3
589.59	22544.38
589.787	22140.93
589.984	22386.69
590.182	22136.84
590.379	22286.34
590.576	22274.05
590.773	21991.43
590.97	22286.34
591.167	22157.32
591.364	21782.54
591.561	22026.25
591.758	22077.44
591.955	21782.54
592.152	21977.09
592.349	21819.4
592.546	21843.98
592.743	22009.86
592.94	21440.53
593.137	21968.9
593.334	21676.04
593.531	21825.54
593.727	21944.33
593.924	21608.46
594.121	21266.45
594.318	21413.9
594.515	21350.42
594.712	21325.84
594.908	21475.34
595.105	21362.7
595.302	21248.02
595.499	21549.07
595.696	21411.85
595.892	21182.48
596.089	21360.66
596.286	21360.66
596.482	21061.65
596.679	21309.46
596.876	21123.09
597.072	21006.36
597.269	21010.45
597.466	20709.4
597.662	20762.65
597.859	21159.95
598.055	21172.24
598.252	20705.31
598.448	20852.76
598.645	20746.26
598.841	20572.19
599.038	20799.51
599.234	21084.18
599.431	20609.05
599.627	20326.43
599.824	20641.82
600.02	20445.21
600.217	20627.48
600.413	20469.79
600.609	20373.53
600.806	20285.47
601.002	20467.74
601.198	20506.65
601.395	20217.89
601.591	20461.6
601.787	20176.93
601.984	20484.12
602.18	20525.08
602.376	20441.12
602.572	19785.77
602.769	20156.45
602.965	19916.84
603.161	20113.44
603.357	20211.74
603.553	19970.08
603.75	19965.99
603.946	20027.43
604.142	19933.22
604.338	19904.55
604.534	20006.95
604.73	19642.41
604.926	19855.4
605.122	19927.08
605.318	19900.45
605.514	19820.58
605.71	19746.86
605.906	19929.13
606.102	19705.9
606.298	19935.27
606.494	19818.53
606.69	19972.13
606.886	19724.33
607.082	19365.93
607.278	19832.87
607.474	19529.77
607.67	19798.06
607.866	19570.73
608.062	19695.66
608.257	19343.41
608.453	19529.77
608.649	19709.99
608.845	19566.63
609.041	19437.61
609.236	19574.83
609.432	19488.81
609.628	19693.61
609.824	19355.69
610.019	19271.73
610.215	19699.75
610.411	19826.73
610.606	19490.86
610.802	19640.36
610.998	19353.65
611.193	19480.62
611.389	19267.63
611.584	19456.04
611.78	19259.44
611.976	19163.18
612.171	19474.48
612.367	19308.59
612.562	19077.17
612.758	19101.75
612.953	19243.06
613.149	19511.34
613.344	19009.59
613.539	19460.14
613.735	19148.85
613.93	19060.79
614.126	19056.69
614.321	19537.96
614.517	19265.58
614.712	19044.4
614.907	19308.59
615.103	19402.8
615.298	19294.25
615.493	19216.43
615.688	18944.05
615.884	19619.88
616.079	19044.4
616.274	19216.43
616.47	18939.96
616.665	18942
616.86	19075.12
617.055	19210.29
617.25	18919.48
617.445	19054.64
617.641	18796.6
617.836	18982.96
618.031	18530.36
618.226	18751.54
618.421	18905.14
618.616	18849.85
618.811	18632.76
619.006	18919.48
619.201	18372.67
619.396	18653.24
619.591	18434.11
619.786	18681.91
619.981	18225.22
620.176	18311.23
620.371	18235.46
620.566	18278.46
620.761	18241.6
620.956	18325.57
621.151	18151.49
621.346	18260.03
621.541	18112.58
621.735	18309.18
621.93	18038.85
622.125	18049.09
622.32	17584.2
622.515	17576.01
622.709	17817.67
622.904	17553.48
623.099	17582.15
623.294	17535.05
623.488	17471.56
623.683	17293.39
623.878	16803.92
624.072	17367.12
624.267	17172.56
624.462	17074.26
624.656	16965.71
624.851	17039.44
625.046	16881.75
625.24	16846.93
625.435	16779.35
625.629	16595.03
625.824	16644.18
626.018	16621.66
626.213	16248.93
626.407	16363.61
626.602	15956.07
626.796	16179.29
626.991	16099.42
627.185	16023.65
627.38	16068.7
627.574	15935.59
627.768	15870.05
627.963	15767.65
628.157	15673.45
628.352	15749.22
628.546	15546.47
628.74	15642.73
628.935	15548.52
629.129	15456.36
629.323	15192.17
629.517	15153.26
629.712	15403.11
629.906	15257.71
630.1	14954.61
630.294	14889.07
630.489	14954.61
630.683	15085.68
630.877	14567.54
631.071	14583.93
631.265	14895.22
631.459	14438.52
631.653	14442.62
631.848	14366.84
632.042	14430.33
632.236	14461.05
632.43	14196.86
632.624	14362.75
632.818	14151.81
633.012	13981.82
633.206	14123.13
633.4	14106.75
633.594	13883.52
633.788	13961.34
633.982	13994.11
634.176	13721.73
634.369	13602.95
634.563	13551.75
634.757	13324.43
634.951	13293.71
635.145	13389.96
635.339	13592.71
635.533	13451.4
635.726	13252.75
635.92	12902.54
636.114	12972.18
636.308	12865.68
636.501	12894.35
636.695	13054.09
636.889	12826.77
637.083	12738.71
637.276	12652.69
637.47	12486.81
637.664	12519.57
637.857	12589.21
638.051	12470.42
638.244	12361.88
638.438	12402.84
638.632	12187.8
638.825	12066.97
639.019	12390.55
639.212	12116.12
639.406	11970.72
639.599	11960.48
639.793	12064.93
639.986	12046.49
640.18	11810.98
640.373	11819.17
640.567	11550.89
640.76	11593.89
640.954	11507.88
641.147	11548.84
641.34	11446.44
641.534	11303.08
641.727	11282.6
641.92	11358.38
642.114	11122.86
642.307	11006.13
642.5	11049.13
642.694	10795.18
642.887	10920.11
643.08	11135.15
643.273	10913.97
643.467	10743.99
643.66	10717.36
643.853	10883.25
644.046	10586.29
644.239	10553.52
644.432	10518.71
644.626	10336.44
644.819	10326.2
645.012	10342.58
645.205	10123.45
645.398	10107.07
645.591	10236.09
645.784	10340.54
645.977	9912.51
646.17	10004.67
646.363	9932.99
646.556	9810.11
646.749	9689.28
646.942	9918.65
647.135	9679.04
647.328	9588.93
647.521	9687.23
647.714	9672.9
647.907	9502.92
648.099	9494.72
648.292	9400.52
648.485	9156.81
648.678	9091.27
648.871	9191.63
649.064	9025.74
649.256	9103.56
649.449	8982.73
649.642	8900.81
649.835	8964.3
650.027	8859.85
650.22	8788.18
650.413	8749.26
650.605	8753.36
650.798	8702.16
650.991	8556.75
651.183	8458.45
651.376	8442.07
651.568	8503.51
651.761	8419.54
651.954	8542.42
652.146	8591.57
652.339	8433.88
652.531	8138.97
652.724	8175.83
652.916	7991.52
653.109	8024.28
653.301	8286.42
653.494	8087.77
653.686	7792.86
653.879	8032.47
654.071	7876.83
654.263	7647.46
654.456	7880.93
654.648	7766.24
654.84	7639.26
655.033	7530.72
655.225	7768.29
655.417	7586.02
655.61	7633.12
655.802	7561.44
655.994	7557.35
656.186	7477.48
656.379	7287.01
656.571	7297.25
656.763	7348.45
656.955	7207.14
657.148	7258.34
657.34	7284.97
657.532	6885.61
657.724	7076.07
657.916	6998.25
658.108	6887.66
658.3	6824.17
658.492	6777.07
658.684	6803.69
658.876	6826.22
659.068	6815.98
659.26	6781.17
659.452	6871.28
659.644	6426.87
659.836	6639.86
660.028	6631.66
660.22	6498.55
660.412	6555.89
660.604	6457.59
660.796	6484.21
660.988	6387.96
661.18	6390
661.372	6119.67
661.563	6224.12
661.755	6193.4
661.947	6220.02
662.139	6281.46
662.331	5941.5
662.522	5929.21
662.714	5923.07
662.906	6015.23
663.097	5886.2
663.289	5994.75
663.481	5718.27
663.673	5744.89
663.864	5753.09
664.056	5863.68
664.247	5669.12
664.439	5765.37
664.631	5538.05
664.822	5775.61
665.014	5548.29
665.205	5783.81
665.397	5484.8
665.588	5617.92
665.78	5462.27
665.971	5460.23
666.163	5421.31
666.354	5470.47
666.546	5456.13
666.737	5259.53
666.929	5153.03
667.12	5247.24
667.311	5220.61
667.503	5234.95
667.694	5353.73
667.885	5181.7
668.077	5181.7
668.268	5007.62
668.459	5308.68
668.651	5165.32
668.842	5122.31
669.033	4915.47
669.224	4933.9
669.416	5011.72
669.607	5163.27
669.798	4835.6
669.989	5138.69
670.18	5064.97
670.371	4935.95
670.563	4811.02
670.754	4890.89
670.945	4862.22
671.136	4755.72
671.327	4653.33
671.518	4813.07
671.709	4811.02
671.9	4841.74
672.091	4825.36
672.282	4704.53
672.473	4747.53
672.664	4690.19
672.855	4561.17
673.046	4516.11
673.237	4702.48
673.428	4651.28
673.619	4524.3
673.809	4530.45
674	4731.15
674.191	4536.59
674.382	4483.34
674.573	4544.78
674.764	4573.46
674.954	4552.98
675.145	4526.35
675.336	4436.24
675.527	4477.2
675.717	4411.67
675.908	4356.37
676.099	4438.29
676.289	4491.54
676.48	4372.75
676.671	4411.67
676.861	4401.43
677.052	4391.19
677.243	4127
677.433	4186.39
677.624	4434.19
677.814	4315.41
678.005	4364.56
678.195	4354.32
678.386	4251.92
678.576	4170.01
678.767	4339.99
678.957	4239.64
679.148	4245.78
679.338	4352.27
679.529	4249.88
679.719	4290.84
679.909	4385.04
680.1	4434.19
680.29	4258.07
680.481	4170.01
680.671	4194.58
680.861	4213.01
681.052	4170.01
681.242	4190.49
681.432	4274.45
681.622	4137.24
681.813	4309.27
682.003	4225.3
682.193	4051.22
682.383	4239.64
682.573	4231.44
682.764	4266.26
682.954	4256.02
683.144	4096.28
683.334	4243.73
683.524	4141.33
683.714	4241.68
683.904	4108.57
684.094	4063.51
684.284	4065.56
684.474	4157.72
684.664	4129.05
684.854	4194.58
685.044	4114.71
685.234	4063.51
685.424	4065.56
685.614	4057.37
685.804	4079.9
685.994	4172.05
686.184	4110.61
686.374	4016.41
686.564	3993.88
686.753	4055.32
686.943	4020.5
687.133	4053.27
687.323	3914.01
687.513	3952.92
687.702	3993.88
687.892	4045.08
688.082	3815.71
688.272	3993.88
688.461	3942.68
688.651	3899.67
688.841	3922.2
689.03	3905.82
689.22	3832.09
689.41	4026.65
689.599	4016.41
689.789	3893.53
689.979	4004.12
690.168	3834.14
690.358	3838.23
690.547	3762.46
690.737	3842.33
690.926	3854.62
691.116	3692.83
691.305	3864.86
691.495	3875.1
691.684	3752.22
691.874	3887.39
692.063	3811.61
692.252	3711.26
692.442	3725.6
692.631	3787.04
692.82	3641.63
693.01	3676.45
693.199	3787.04
693.388	3727.64
693.578	3770.65
693.767	3711.26
693.956	3647.77
694.146	3664.16
694.335	3741.98
694.524	3637.53
694.713	3752.22
694.902	3748.12
695.092	3660.06
695.281	3696.92
695.47	3709.21
695.659	3653.92
695.848	3643.68
696.037	3797.28
696.226	3723.55
696.415	3764.51
696.604	3813.66
696.793	3957.02
696.982	3746.08
697.171	3617.05
697.36	3766.56
697.549	3774.75
697.738	3776.8
697.927	3836.19
698.116	3754.27
698.305	3723.55
698.494	3713.31
698.683	3774.75
698.872	3793.18
699.061	3846.43
699.25	3694.88
699.438	3823.9
699.627	3737.88
699.816	3799.32
700.005	3727.64
700.193	3797.28
700.382	3842.33
700.571	3830.04
700.76	3780.89
700.948	3885.34
701.137	3787.04
701.326	3768.6
701.514	3662.11
701.703	3739.93
701.892	3834.14
702.08	3993.88
702.269	3907.87
702.457	3899.67
702.646	3791.13
702.834	3707.16
703.023	3840.28
703.212	3897.63
703.4	3680.54
703.589	3768.6
703.777	3764.51
703.965	3903.77
704.154	3840.28
704.342	3752.22
704.531	3754.27
704.719	3707.16
704.907	3821.85
705.096	3750.17
705.284	3748.12
705.472	3819.8
705.661	3823.9
705.849	3864.86
706.037	3823.9
706.226	3815.71
706.414	3817.76
706.602	3768.6
706.79	4020.5
706.979	3799.32
707.167	3897.63
707.355	3866.91
707.543	3772.7
707.731	3860.76
707.919	3922.2
708.107	3844.38
708.296	3803.42
708.484	3703.07
708.672	3756.32
708.86	3885.34
709.048	3823.9
709.236	3754.27
709.424	3703.07
709.612	3922.2
709.8	3844.38
709.988	3617.05
710.176	3946.78
710.364	3694.88
710.551	3871
710.739	3715.36
710.927	3834.14
711.115	3815.71
711.303	3725.6
711.491	3934.49
711.679	3733.79
711.866	3823.9
712.054	3860.76
712.242	3746.08
712.43	3815.71
712.617	3754.27
712.805	3741.98
712.993	3784.99
713.181	3832.09
713.368	3883.29
713.556	3864.86
713.744	3807.52
713.931	3983.64
714.119	3764.51
714.306	3729.69
714.494	3815.71
714.682	3762.46
714.869	3709.21
715.057	3815.71
715.244	3670.3
715.432	3901.72
715.619	3762.46
715.807	3758.36
715.994	3830.04
716.182	3608.86
716.369	3756.32
716.556	3858.71
716.744	3707.16
716.931	3727.64
717.119	3838.23
717.306	3762.46
717.493	3756.32
717.681	3815.71
717.868	3784.99
718.055	3844.38
718.242	3655.97
718.43	3782.94
718.617	3795.23
718.804	3744.03
718.991	3801.37
719.179	3803.42
719.366	3721.5
719.553	3762.46
719.74	3639.58
719.927	3680.54
720.114	3698.97
720.301	3739.93
720.488	3789.08
720.676	3608.86
720.863	3733.79
721.05	3760.41
721.237	3705.12
721.424	3713.31
721.611	3678.49
721.798	3668.25
721.985	3737.88
722.172	3649.82
722.358	3713.31
722.545	3612.96
722.732	3545.38
722.919	3727.64
723.106	3631.39
723.293	3664.16
723.48	3719.45
723.667	3674.4
723.853	3596.57
724.04	3551.52
724.227	3543.33
724.414	3682.59
724.6	3649.82
724.787	3610.91
724.974	3555.62
725.161	3682.59
725.347	3612.96
725.534	3580.19
725.72	3627.29
725.907	3561.76
726.094	3688.73
726.28	3518.75
726.467	3610.91
726.653	3557.66
726.84	3709.21
727.027	3522.85
727.213	3502.37
727.4	3545.38
727.586	3569.95
727.773	3498.27
727.959	3576.09
728.145	3721.5
728.332	3590.43
728.518	3553.57
728.705	3580.19
728.891	3698.97
729.077	3473.7
729.264	3488.03
729.45	3627.29
729.636	3705.12
729.823	3369.25
730.009	3528.99
730.195	3541.28
730.382	3533.09
730.568	3420.45
730.754	3524.9
730.94	3512.61
731.126	3535.14
731.313	3524.9
731.499	3430.69
731.685	3385.63
731.871	3528.99
732.057	3557.66
732.243	3582.24
732.429	3457.31
732.615	3504.42
732.801	3551.52
732.987	3313.95
733.173	3434.78
733.359	3442.98
733.545	3375.39
733.731	3447.07
733.917	3445.02
734.103	3438.88
734.289	3485.98
734.475	3432.74
734.661	3684.64
734.847	3316
735.033	3324.19
735.219	3375.39
735.404	3438.88
735.59	3201.32
735.776	3373.35
735.962	3381.54
736.148	3375.39
736.333	3457.31
736.519	3266.85
736.705	3299.62
736.89	3266.85
737.076	3352.87
737.262	3141.93
737.447	3412.26
737.633	3227.94
737.819	3316
738.004	3191.08
738.19	3252.52
738.375	3160.36
738.561	3313.95
738.747	3166.5
738.932	3107.11
739.118	3287.33
739.303	3344.67
739.489	3309.86
739.674	3156.26
739.859	3143.97
740.045	3141.93
740.23	3025.19
740.416	2973.99
740.601	3111.21
740.786	3045.67
740.972	2963.75
741.157	3008.81
741.342	3170.6
741.528	3057.96
741.713	3047.72
741.898	3039.53
742.084	2953.51
742.269	2908.46
742.454	3010.86
742.639	3086.63
742.824	2965.8
743.01	2941.22
743.195	3000.62
743.38	2867.5
743.565	2834.73
743.75	2820.39
743.935	2873.64
744.12	2836.78
744.305	2781.48
744.49	2937.13
744.675	2853.16
744.86	2742.57
745.045	2824.49
745.23	2765.1
745.415	2763.05
745.6	2746.67
745.785	2781.48
745.97	2652.46
746.155	2791.72
746.34	2703.66
746.525	2629.93
746.71	2570.54
746.895	2662.7
747.079	2593.07
747.264	2531.63
747.449	2623.79
747.634	2570.54
747.819	2623.79
748.003	2625.84
748.188	2324.79
748.373	2541.87
748.557	2517.29
748.742	2519.34
748.927	2509.1
749.111	2505.01
749.296	2363.7
749.481	2425.14
749.665	2396.46
749.85	2388.27
750.034	2318.64
750.219	2304.31
750.404	2330.93
750.588	2277.68
750.773	2171.19
750.957	2318.64
751.141	2326.83
751.326	2289.97
751.51	2185.52
751.695	2283.83
751.879	2138.42
752.064	2208.05
752.248	2183.48
752.432	2277.68
752.617	2064.69
752.801	2095.41
752.985	2095.41
753.17	2144.56
753.354	2048.31
753.538	2185.52
753.722	2058.55
753.907	1984.82
754.091	1962.3
754.275	1964.34
754.459	1980.73
754.643	2095.41
754.828	1935.67
755.012	1962.3
755.196	1866.04
755.38	2015.54
755.564	1958.2
755.748	1941.82
755.932	2005.3
756.116	1884.47
756.3	1714.49
756.484	1872.18
756.668	1886.52
756.852	1827.13
757.036	1866.04
757.22	1886.52
757.404	1794.36
757.588	1753.4
757.772	1765.69
757.956	1806.65
758.14	1872.18
758.323	1681.72
758.507	1806.65
758.691	1661.24
758.875	1651
759.059	1777.98
759.242	1636.67
759.426	1675.58
759.61	1714.49
759.794	1579.33
759.977	1659.2
760.161	1790.27
760.345	1599.8
760.528	1630.52
760.712	1677.63
760.895	1616.19
761.079	1544.51
761.263	1497.41
761.446	1612.09
761.63	1622.33
761.813	1622.33
761.997	1546.56
762.18	1583.42
762.364	1587.52
762.547	1442.11
762.731	1464.64
762.914	1538.37
763.098	1417.54
763.281	1499.45
763.464	1534.27
763.648	1489.21
763.831	1399.1
764.015	1411.39
764.198	1481.02
764.381	1446.21
764.564	1556.8
764.748	1483.07
764.931	1448.26
765.114	1243.46
765.297	1399.1
765.481	1403.2
765.664	1313.09
765.847	1401.15
766.03	1382.72
766.213	1452.35
766.397	1380.67
766.58	1329.47
766.763	1478.97
766.946	1354.05
767.129	1308.99
767.312	1288.51
767.495	1352
767.678	1395.01
767.861	1335.62
768.044	1333.57
768.227	1263.94
768.41	1280.32
768.593	1364.29
768.776	1272.13
768.959	1253.7
769.142	1374.53
769.324	1296.71
769.507	1233.22
769.69	1243.46
769.873	1229.12
770.056	1339.71
770.239	1317.19
770.421	1251.65
770.604	1325.38
770.787	1339.71
770.97	1298.75
771.152	1218.88
771.335	1214.79
771.518	1104.2
771.7	1239.36
771.883	1239.36
772.066	1263.94
772.248	1153.35
772.431	1274.18
772.613	1243.46
772.796	1102.15
772.978	1167.68
773.161	1257.79
773.343	1179.97
773.526	1124.68
773.708	1042.76
773.891	1059.14
774.073	1157.44
774.256	1009.99
774.438	1139.01
774.621	1024.33
774.803	1073.48
774.985	1149.25
775.168	1130.82
775.35	942.41
775.532	1116.48
775.715	1040.71
775.897	1046.85
776.079	1048.9
776.261	1132.87
776.444	1048.9
776.626	960.84
776.808	1055.05
776.99	936.26
777.173	973.13
777.355	1026.37
777.537	1108.29
777.719	1014.09
777.901	1014.09
778.083	993.61
778.265	917.83
778.447	1028.42
778.629	938.31
778.811	928.07
778.993	917.83
779.175	1020.23
779.357	975.17
779.539	915.78
779.721	860.49
779.903	934.22
780.085	848.2
780.267	870.73
780.449	960.84
780.631	966.98
780.812	940.36
780.994	934.22
781.176	895.3
781.358	768.33
781.54	837.96
781.721	790.86
781.903	942.41
782.085	782.67
782.267	805.19
782.448	813.38
782.63	766.28
782.812	772.43
782.993	819.53
783.175	848.2
783.357	708.94
783.538	717.13
783.72	690.51
783.901	825.67
784.083	774.47
784.264	686.41
784.446	645.45
784.627	663.88
784.809	753.99
784.99	688.46
785.172	704.84
785.353	727.37
785.535	690.51
785.716	670.03
785.897	680.27
786.079	620.88
786.26	663.88
786.441	706.89
786.623	608.59
786.804	649.55
786.985	667.98
787.167	657.74
787.348	629.07
787.529	602.44
787.71	682.31
787.891	727.37
788.073	563.53
788.254	565.58
788.435	661.84
788.616	670.03
788.797	530.77
788.978	590.16
789.159	545.1
789.34	606.54
789.522	594.25
789.703	524.62
789.884	581.96
790.065	573.77
790.246	569.68
790.427	541.01
790.607	635.21
790.788	559.44
790.969	399.7
791.15	551.24
791.331	450.89
791.512	516.43
791.693	485.71
791.874	536.91
792.054	620.88
792.235	534.86
792.416	469.33
792.597	457.04
792.778	543.05
792.958	485.71
793.139	495.95
793.32	504.14
793.5	452.94
793.681	512.33
793.862	432.46
794.042	438.61
794.223	366.93
794.404	495.95
794.584	356.69
794.765	428.37
794.945	420.17
795.126	465.23
795.306	461.13
795.487	368.98
795.667	334.16
795.848	379.22
796.028	405.84
796.209	487.76
796.389	491.85
796.57	414.03
796.75	385.36
796.93	432.46
797.111	416.08
797.291	430.41
797.471	512.33
797.652	381.26
797.832	362.83
798.012	471.37
798.192	354.64
798.373	395.6
798.553	338.26
798.733	371.02
798.913	424.27
799.093	360.78
799.274	407.89
799.454	411.98
799.634	461.13
799.814	360.78
799.994	403.79
800.174	391.5
800.354	391.5
800.534	305.49
800.714	364.88
800.894	262.48
801.074	309.58
801.254	379.22
801.434	426.32
801.614	391.5
801.794	293.2
801.974	1214.79
802.154	303.44
802.334	399.7
802.514	282.96
802.693	358.74
802.873	250.19
803.053	366.93
803.233	364.88
803.413	309.58
803.592	262.48
803.772	325.97
803.952	328.02
804.131	272.72
804.311	362.83
804.491	328.02
804.67	254.29
804.85	293.2
805.03	299.34
805.209	328.02
805.389	233.81
805.568	303.44
805.748	207.19
805.928	235.86
806.107	366.93
806.287	344.4
806.466	266.58
806.646	328.02
806.825	393.55
807.004	256.34
807.184	397.65
807.363	254.29
807.543	223.57
807.722	256.34
807.901	385.36
808.081	303.44
808.26	276.82
808.439	250.19
808.619	235.86
808.798	248.15
808.977	244.05
809.156	244.05
809.336	207.19
809.515	289.1
809.694	172.37
809.873	198.99
810.052	244.05
810.231	289.1
810.411	186.71
810.59	248.15
810.769	248.15
810.948	256.34
811.127	190.8
811.306	237.91
811.485	198.99
811.664	235.86
811.843	207.19
812.022	237.91
812.201	198.99
812.38	266.58
812.559	147.8
812.737	235.86
812.916	92.5
813.095	166.23
813.274	211.28
813.453	178.51
813.632	276.82
813.811	237.91
813.989	246.1
814.168	235.86
814.347	174.42
814.526	225.62
814.704	203.09
814.883	311.63
815.062	168.27
815.24	278.87
815.419	158.03
815.598	264.53
815.776	106.84
815.955	229.71
816.133	92.5
816.312	184.66
816.49	172.37
816.669	221.52
816.847	209.23
817.026	178.51
817.204	106.84
817.383	217.43
817.561	215.38
817.74	239.95
817.918	184.66
818.097	110.93
818.275	127.32
818.453	239.95
818.632	233.81
818.81	188.75
818.988	127.32
819.167	84.31
819.345	176.47
819.523	186.71
819.701	207.19
819.879	172.37
820.058	203.09
820.236	178.51
820.414	102.74
820.592	121.17
820.77	223.57
820.948	203.09
821.127	88.4
821.305	250.19
821.483	153.94
821.661	174.42
821.839	147.8
822.017	155.99
822.195	76.12
822.373	121.17
822.551	180.56
822.729	272.72
822.907	125.27
823.085	155.99
823.262	84.31
823.44	74.07
823.618	153.94
823.796	194.9
823.974	86.36
824.152	143.7
824.329	145.75
824.507	135.51
824.685	125.27
824.863	119.12
825.04	76.12
825.218	221.52
825.396	151.89
825.574	135.51
825.751	168.27
825.929	96.6
826.107	102.74
826.284	88.4
826.462	125.27
826.639	29.01
826.817	108.88
826.994	112.98
827.172	72.02
827.349	188.75
827.527	133.46
827.704	151.89
827.882	139.6
828.059	55.64
828.237	74.07
828.414	84.31
828.591	47.44
828.769	139.6
828.946	14.68
829.124	115.03
829.301	145.75
829.478	119.12
829.655	158.03
829.833	149.84
830.01	74.07
830.187	172.37
830.364	115.03
830.542	67.92
830.719	178.51
830.896	149.84
831.073	135.51
831.25	137.56
831.427	112.98
831.604	137.56
831.782	57.68
831.959	96.6
832.136	115.03
832.313	158.03
832.49	41.3
832.667	174.42
832.844	0.34
833.021	139.6
833.198	108.88
833.374	137.56
833.551	90.45
833.728	41.3
833.905	151.89
834.082	104.79
834.259	139.6
834.436	123.22
834.612	92.5
834.789	133.46
834.966	100.69
835.143	104.79
835.319	67.92
835.496	137.56
835.673	53.59
835.85	88.4
836.026	137.56
836.203	176.47
836.38	57.68
836.556	-24.23
836.733	92.5
836.909	135.51
837.086	90.45
837.262	39.25
837.439	100.69
837.616	137.56
837.792	84.31
837.968	14.68
838.145	41.3
838.321	37.2
838.498	53.59
838.674	119.12
838.851	74.07
839.027	45.4
839.203	90.45
839.38	119.12
839.556	76.12
839.732	129.36
839.909	94.55
840.085	151.89
840.261	18.77
840.437	88.4
840.614	29.01
840.79	147.8
840.966	45.4
841.142	69.97
841.318	47.44
841.494	164.18
841.671	96.6
841.847	6.49
842.023	-40.62
842.199	90.45
842.375	80.21
842.551	53.59
842.727	-11.95
842.903	172.37
843.079	57.68
843.255	117.08
843.431	26.96
843.607	80.21
843.783	0.34
843.959	106.84
844.134	-5.8
844.31	164.18
844.486	72.02
844.662	80.21
844.838	10.58
845.013	69.97
845.189	108.88
845.365	65.88
845.541	63.83
845.716	63.83
845.892	84.31
846.068	29.01
846.244	16.73
846.419	94.55
846.595	78.16
846.77	-32.43
846.946	135.51
847.122	16.73
847.297	49.49
847.473	121.17
847.648	-3.75
847.824	31.06
847.999	53.59
848.175	59.73
848.35	67.92
848.526	82.26
848.701	65.88
848.876	61.78
849.052	166.23
849.227	29.01
849.403	112.98
849.578	37.2
849.753	90.45
849.929	47.44
850.104	12.63
850.279	90.45
850.454	57.68
850.63	14.68
850.805	31.06
850.98	-16.04
851.155	26.96
851.33	76.12
851.505	61.78
851.681	10.58
851.856	51.54
852.031	74.07
852.206	14.68
852.381	-20.14
852.556	123.22
852.731	86.36
852.906	22.87
853.081	4.44
853.256	78.16
853.431	112.98
853.606	67.92
853.781	22.87
853.956	-40.62
854.131	16.73
854.305	10.58
854.48	24.92
854.655	63.83
854.83	14.68
855.005	31.06
855.18	84.31
855.354	0.34
855.529	82.26
855.704	-20.14
855.879	74.07
856.053	-44.71
856.228	65.88
856.403	0.34
856.577	78.16
856.752	-50.86
856.926	8.53
857.101	16.73
857.276	-7.85
857.45	57.68
857.625	51.54
857.799	-13.99
857.974	74.07
858.148	-1.71
858.323	24.92
858.497	16.73
858.672	-42.67
858.846	41.3
859.02	121.17
859.195	53.59
859.369	-5.8
859.543	51.54
859.718	108.88
859.892	-3.75
860.066	49.49
860.241	-44.71
860.415	-46.76
860.589	53.59
860.763	-11.95
860.938	-42.67
861.112	35.16
861.286	-3.75
861.46	14.68
861.634	55.64
861.808	78.16
861.982	86.36
862.157	-13.99
862.331	14.68
862.505	-1.71
862.679	-69.29
862.853	33.11
863.027	-5.8
863.201	72.02
863.375	-42.67
863.549	65.88
863.722	4.44
863.896	43.35
864.07	4.44
864.244	55.64
864.418	43.35
864.592	35.16
864.766	12.63
864.939	-16.04
865.113	-26.28
865.287	100.69
865.461	-9.9
865.634	-24.23
865.808	24.92
865.982	8.53
866.156	-18.09
866.329	2.39
866.503	45.4
866.676	6.49
866.85	69.97
867.024	-30.38
867.197	57.68
867.371	82.26
867.544	63.83
867.718	-42.67
867.891	-16.04
868.065	2.39
868.238	82.26
868.412	69.97
868.585	-7.85
868.759	-54.95
868.932	4.44
869.105	-145.06
869.279	16.73
869.452	49.49
869.625	33.11
869.799	12.63
869.972	-54.95
870.145	43.35
870.319	29.01
870.492	-54.95
870.665	-20.14
870.838	8.53
871.011	-79.53
871.185	6.49
871.358	18.77
871.531	26.96
871.704	-44.71
871.877	39.25
872.05	0.34
872.223	-16.04
872.396	41.3
872.569	-1.71
872.742	-81.58
872.915	51.54
873.088	-52.91
873.261	31.06
873.434	57.68
873.607	-132.78
873.78	80.21
873.953	-79.53
874.126	6.49
874.299	4.44
874.471	-46.76
874.644	26.96
874.817	12.63
874.99	74.07
875.163	10.58
875.335	53.59
875.508	0.34
875.681	69.97
875.853	-38.57
876.026	-28.33
876.199	63.83
876.371	22.87
876.544	-22.19
876.717	-1.71
876.889	55.64
877.062	43.35
877.234	-22.19
877.407	-46.76
877.579	8.53
877.752	55.64
877.924	10.58
878.097	65.88
878.269	20.82
878.442	-1.71
878.614	39.25
878.786	-24.23
878.959	-11.95
879.131	29.01
879.303	-85.67
879.476	61.78
879.648	22.87
879.82	6.49
879.993	-50.86
880.165	131.41
880.337	-57
880.509	4.44
880.681	-3.75
880.854	26.96
881.026	69.97
881.198	102.74
881.37	82.26
881.542	-16.04
881.714	-18.09
881.886	-18.09
882.058	6.49
882.23	49.49
882.402	-69.29
882.574	-22.19
882.746	31.06
882.918	31.06
883.09	-54.95
883.262	-79.53
883.434	14.68
883.606	-87.72
883.778	45.4
883.95	153.94
884.122	-3.75
884.293	82.26
884.465	10.58
884.637	53.59
884.809	-22.19
884.98	-28.33
885.152	76.12
885.324	-20.14
885.496	63.83
885.667	8.53
885.839	-28.33
886.011	33.11
886.182	-20.14
886.354	4.44
886.525	10.58
886.697	78.16
886.869	-42.67
887.04	39.25
887.212	8.53
887.383	55.64
887.555	2.39
887.726	43.35
887.897	53.59
888.069	-18.09
888.24	33.11
888.412	59.73
888.583	35.16
888.754	-42.67
888.926	4.44
889.097	-9.9
889.268	-38.57
889.44	74.07
889.611	-44.71
889.782	-28.33
889.953	14.68
890.125	51.54
890.296	-5.8
890.467	26.96
890.638	-7.85
890.809	-1.71
890.98	-67.24
891.151	6.49
891.323	67.92
891.494	49.49
891.665	-16.04
891.836	-16.04
892.007	12.63
892.178	-22.19
892.349	-26.28
892.52	-26.28
892.691	80.21
892.862	61.78
893.032	-57
893.203	-18.09
893.374	-38.57
893.545	84.31
893.716	-77.48
893.887	-1.71
894.057	-18.09
894.228	-83.63
894.399	31.06
894.57	20.82
894.74	84.31
894.911	-18.09
895.082	-71.34
895.253	4.44
895.423	115.03
895.594	45.4
895.764	-89.77
895.935	-57
896.106	49.49
896.276	-65.19
896.447	-52.91
896.617	24.92
896.788	-9.9
896.958	35.16
897.129	-40.62
897.299	-30.38
897.47	41.3
897.64	143.7
897.81	-16.04
897.981	2.39
898.151	-44.71
898.322	47.44
898.492	33.11
898.662	-102.06
898.832	4.44
899.003	12.63
899.173	-36.52
899.343	-38.57
899.513	-79.53
