Data from USB4F104151__22__12-11-41-860.txt Node

Date: Fri Mar 14 12:11:41 EDT 2025
User: louis
Spectrometer: USB4F10415
Trigger mode: 4
Integration Time (sec): 5.000000E-2
Scans to average: 1
Electric dark correction enabled: true
Nonlinearity correction enabled: false
Boxcar width: 0
XAxis mode: Wavelengths
Number of Pixels in Spectrum: 3648
>>>>>Begin Spectral Data<<<<<
178.204	-273.75
178.424	-273.75
178.644	-273.75
178.864	-240.98
179.084	-261.46
179.304	-44.37
179.524	-23.89
179.744	35.5
179.964	29.35
180.184	10.92
180.404	2.73
180.624	27.31
180.844	4.78
181.064	-9.56
181.283	4.78
181.503	-38.23
181.723	0.68
181.943	-27.99
182.163	39.59
182.383	-23.89
182.602	113.32
182.822	123.56
183.042	68.27
183.262	37.55
183.482	70.31
183.701	33.45
183.921	111.27
184.141	-17.75
184.361	127.66
184.58	-64.85
184.8	-25.94
185.02	-21.84
185.239	74.41
185.459	78.51
185.679	39.59
185.898	-21.84
186.118	51.88
186.338	29.35
186.557	113.32
186.777	62.12
186.997	53.93
187.216	23.21
187.436	86.7
187.655	94.89
187.875	41.64
188.095	-17.75
188.314	80.55
188.534	105.13
188.753	-17.75
188.973	41.64
189.192	215.72
189.412	58.03
189.631	49.83
189.851	31.4
190.07	80.55
190.29	-11.61
190.509	6.83
190.729	-11.61
190.948	55.98
191.168	246.44
191.387	88.75
191.607	19.11
191.826	17.07
192.045	-32.08
192.265	37.55
192.484	51.88
192.704	-21.84
192.923	-36.18
193.142	113.32
193.362	29.35
193.581	101.03
193.8	-9.56
194.02	-3.41
194.239	117.42
194.458	4.78
194.678	21.16
194.897	68.27
195.116	76.46
195.335	-3.41
195.555	23.21
195.774	37.55
195.993	58.03
196.212	-1.37
196.432	-9.56
196.651	-34.13
196.87	64.17
197.089	103.08
197.308	41.64
197.528	66.22
197.747	-9.56
197.966	21.16
198.185	23.21
198.404	-5.46
198.623	84.65
198.842	-11.61
199.062	35.5
199.281	15.02
199.5	15.02
199.719	45.74
199.938	55.98
200.157	127.66
200.376	27.31
200.595	76.46
200.814	107.18
201.033	-36.18
201.252	33.45
201.471	-23.89
201.69	119.46
201.909	51.88
202.128	94.89
202.347	8.87
202.566	33.45
202.785	51.88
203.004	37.55
203.223	111.27
203.442	80.55
203.661	64.17
203.879	31.4
204.098	78.51
204.317	-34.13
204.536	60.07
204.755	-19.8
204.974	37.55
205.193	27.31
205.411	213.67
205.63	49.83
205.849	72.36
206.068	-3.41
206.287	4.78
206.505	86.7
206.724	45.74
206.943	49.83
207.162	-3.41
207.381	41.64
207.599	-21.84
207.818	82.6
208.037	-9.56
208.255	-1.37
208.474	76.46
208.693	31.4
208.911	0.68
209.13	62.12
209.349	53.93
209.567	43.69
209.786	156.33
210.005	17.07
210.223	6.83
210.442	-9.56
210.661	98.99
210.879	35.5
211.098	2.73
211.316	41.64
211.535	92.84
211.753	-7.51
211.972	113.32
212.191	-3.41
212.409	74.41
212.628	78.51
212.846	4.78
213.065	66.22
213.283	72.36
213.502	49.83
213.72	-5.46
213.938	33.45
214.157	-15.7
214.375	115.37
214.594	-9.56
214.812	41.64
215.031	96.94
215.249	-19.8
215.467	62.12
215.686	47.79
215.904	125.61
216.122	64.17
216.341	117.42
216.559	62.12
216.778	53.93
216.996	6.83
217.214	21.16
217.432	19.11
217.651	-27.99
217.869	-77.14
218.087	-62.8
218.306	17.07
218.524	74.41
218.742	0.68
218.96	60.07
219.179	27.31
219.397	78.51
219.615	101.03
219.833	55.98
220.051	51.88
220.27	72.36
220.488	82.6
220.706	76.46
220.924	-3.41
221.142	137.9
221.36	70.31
221.578	72.36
221.796	51.88
222.015	60.07
222.233	-11.61
222.451	51.88
222.669	12.97
222.887	94.89
223.105	51.88
223.323	8.87
223.541	-36.18
223.759	51.88
223.977	31.4
224.195	-21.84
224.413	60.07
224.631	90.79
224.849	21.16
225.067	68.27
225.285	29.35
225.503	80.55
225.721	-25.94
225.939	4.78
226.157	35.5
226.375	158.38
226.592	33.45
226.81	17.07
227.028	82.6
227.246	94.89
227.464	47.79
227.682	96.94
227.9	121.51
228.117	-13.65
228.335	74.41
228.553	58.03
228.771	27.31
228.989	72.36
229.206	92.84
229.424	0.68
229.642	-71
229.86	-3.41
230.077	12.97
230.295	74.41
230.513	58.03
230.731	15.02
230.948	31.4
231.166	92.84
231.384	-17.75
231.601	43.69
231.819	47.79
232.037	-13.65
232.254	-5.46
232.472	12.97
232.689	4.78
232.907	2.73
233.125	37.55
233.342	4.78
233.56	-11.61
233.777	70.31
233.995	19.11
234.213	45.74
234.43	51.88
234.648	105.13
234.865	-38.23
235.083	86.7
235.3	76.46
235.518	4.78
235.735	119.46
235.953	94.89
236.17	-36.18
236.388	-19.8
236.605	49.83
236.822	123.56
237.04	21.16
237.257	55.98
237.475	-7.51
237.692	8.87
237.909	-15.7
238.127	-7.51
238.344	107.18
238.562	25.26
238.779	-17.75
238.996	-17.75
239.214	78.51
239.431	72.36
239.648	-32.08
239.865	8.87
240.083	41.64
240.3	29.35
240.517	55.98
240.735	43.69
240.952	68.27
241.169	107.18
241.386	35.5
241.603	19.11
241.821	29.35
242.038	129.7
242.255	62.12
242.472	-11.61
242.689	55.98
242.907	111.27
243.124	-11.61
243.341	2.73
243.558	23.21
243.775	12.97
243.992	17.07
244.209	-5.46
244.426	160.42
244.643	125.61
244.86	-38.23
245.078	64.17
245.295	72.36
245.512	10.92
245.729	-3.41
245.946	53.93
246.163	35.5
246.38	55.98
246.597	66.22
246.814	-13.65
247.031	2.73
247.248	31.4
247.464	58.03
247.681	80.55
247.898	29.35
248.115	-30.04
248.332	-54.61
248.549	80.55
248.766	152.23
248.983	-15.7
249.2	33.45
249.417	31.4
249.633	-23.89
249.85	-9.56
250.067	55.98
250.284	-3.41
250.501	19.11
250.717	80.55
250.934	15.02
251.151	62.12
251.368	-25.94
251.585	-17.75
251.801	119.46
252.018	-13.65
252.235	74.41
252.451	6.83
252.668	41.64
252.885	27.31
253.102	62.12
253.318	-42.32
253.535	-3.41
253.752	41.64
253.968	-75.09
254.185	-9.56
254.401	8.87
254.618	2.73
254.835	55.98
255.051	139.94
255.268	107.18
255.484	82.6
255.701	41.64
255.917	12.97
256.134	43.69
256.351	-9.56
256.567	6.83
256.784	15.02
257	-48.47
257.217	43.69
257.433	88.75
257.65	-3.41
257.866	-7.51
258.082	29.35
258.299	-48.47
258.515	92.84
258.732	27.31
258.948	4.78
259.165	-34.13
259.381	4.78
259.597	-27.99
259.814	0.68
260.03	-27.99
260.246	-23.89
260.463	51.88
260.679	131.75
260.895	19.11
261.112	60.07
261.328	0.68
261.544	-15.7
261.761	94.89
261.977	41.64
262.193	-75.09
262.409	111.27
262.626	51.88
262.842	51.88
263.058	19.11
263.274	-30.04
263.49	31.4
263.707	68.27
263.923	39.59
264.139	-60.76
264.355	74.41
264.571	121.51
264.787	33.45
265.004	53.93
265.22	8.87
265.436	-1.37
265.652	31.4
265.868	70.31
266.084	-9.56
266.3	-62.8
266.516	21.16
266.732	70.31
266.948	49.83
267.164	-52.56
267.38	105.13
267.596	45.74
267.812	62.12
268.028	66.22
268.244	-54.61
268.46	62.12
268.676	-52.56
268.892	23.21
269.108	-11.61
269.324	49.83
269.54	25.26
269.756	70.31
269.972	25.26
270.188	-1.37
270.403	-40.28
270.619	90.79
270.835	49.83
271.051	68.27
271.267	33.45
271.483	23.21
271.698	62.12
271.914	-38.23
272.13	55.98
272.346	53.93
272.562	-36.18
272.777	-3.41
272.993	-13.65
273.209	70.31
273.425	39.59
273.64	15.02
273.856	115.37
274.072	53.93
274.287	-50.52
274.503	68.27
274.719	103.08
274.934	47.79
275.15	31.4
275.366	-25.94
275.581	8.87
275.797	49.83
276.012	-15.7
276.228	76.46
276.444	98.99
276.659	141.99
276.875	21.16
277.09	27.31
277.306	60.07
277.521	35.5
277.737	23.21
277.952	117.42
278.168	8.87
278.383	66.22
278.599	76.46
278.814	21.16
279.03	4.78
279.245	127.66
279.461	45.74
279.676	10.92
279.892	-54.61
280.107	-11.61
280.322	10.92
280.538	37.55
280.753	6.83
280.969	76.46
281.184	-32.08
281.399	74.41
281.615	12.97
281.83	101.03
282.045	-34.13
282.26	-15.7
282.476	17.07
282.691	33.45
282.906	4.78
283.122	39.59
283.337	27.31
283.552	78.51
283.767	19.11
283.983	78.51
284.198	47.79
284.413	21.16
284.628	-46.42
284.843	21.16
285.058	88.75
285.274	29.35
285.489	6.83
285.704	-3.41
285.919	21.16
286.134	66.22
286.349	17.07
286.564	-17.75
286.779	115.37
286.995	39.59
287.21	-38.23
287.425	70.31
287.64	78.51
287.855	17.07
288.07	-21.84
288.285	47.79
288.5	-7.51
288.715	78.51
288.93	41.64
289.145	-1.37
289.36	29.35
289.575	-23.89
289.79	86.7
290.004	55.98
290.219	39.59
290.434	21.16
290.649	37.55
290.864	23.21
291.079	62.12
291.294	25.26
291.509	12.97
291.724	39.59
291.938	39.59
292.153	-7.51
292.368	-7.51
292.583	72.36
292.798	76.46
293.012	55.98
293.227	84.65
293.442	-21.84
293.657	90.79
293.871	82.6
294.086	-30.04
294.301	121.51
294.516	10.92
294.73	-17.75
294.945	-50.52
295.16	78.51
295.374	31.4
295.589	19.11
295.804	-30.04
296.018	109.23
296.233	105.13
296.447	21.16
296.662	25.26
296.877	39.59
297.091	113.32
297.306	19.11
297.52	0.68
297.735	78.51
297.949	-7.51
298.164	-13.65
298.378	72.36
298.593	2.73
298.807	29.35
299.022	-17.75
299.236	58.03
299.451	21.16
299.665	-19.8
299.88	-34.13
300.094	51.88
300.309	4.78
300.523	31.4
300.737	31.4
300.952	-34.13
301.166	84.65
301.381	-3.41
301.595	-27.99
301.809	-5.46
302.024	39.59
302.238	45.74
302.452	96.94
302.667	68.27
302.881	148.14
303.095	115.37
303.309	41.64
303.524	53.93
303.738	53.93
303.952	2.73
304.166	33.45
304.381	-71
304.595	111.27
304.809	31.4
305.023	33.45
305.237	31.4
305.452	47.79
305.666	25.26
305.88	45.74
306.094	35.5
306.308	121.51
306.522	84.65
306.736	17.07
306.95	109.23
307.164	35.5
307.379	-40.28
307.593	154.28
307.807	45.74
308.021	137.9
308.235	125.61
308.449	29.35
308.663	-23.89
308.877	92.84
309.091	17.07
309.305	-34.13
309.519	-32.08
309.733	78.51
309.947	-38.23
310.161	6.83
310.374	29.35
310.588	39.59
310.802	-19.8
311.016	62.12
311.23	-3.41
311.444	25.26
311.658	92.84
311.872	98.99
312.085	113.32
312.299	96.94
312.513	15.02
312.727	58.03
312.941	-42.32
313.154	58.03
313.368	68.27
313.582	15.02
313.796	53.93
314.009	19.11
314.223	74.41
314.437	53.93
314.651	131.75
314.864	21.16
315.078	-17.75
315.292	-48.47
315.505	21.16
315.719	15.02
315.933	17.07
316.146	29.35
316.36	-21.84
316.573	31.4
316.787	-11.61
317.001	64.17
317.214	-15.7
317.428	-44.37
317.641	-1.37
317.855	12.97
318.068	60.07
318.282	37.55
318.495	131.75
318.709	68.27
318.922	17.07
319.136	80.55
319.349	55.98
319.563	39.59
319.776	45.74
319.99	41.64
320.203	60.07
320.417	86.7
320.63	49.83
320.843	111.27
321.057	70.31
321.27	45.74
321.483	72.36
321.697	80.55
321.91	113.32
322.124	98.99
322.337	43.69
322.55	17.07
322.763	94.89
322.977	60.07
323.19	-66.9
323.403	6.83
323.617	103.08
323.83	141.99
324.043	-1.37
324.256	107.18
324.469	8.87
324.683	8.87
324.896	-21.84
325.109	-27.99
325.322	-1.37
325.535	121.51
325.748	10.92
325.962	-5.46
326.175	23.21
326.388	98.99
326.601	109.23
326.814	53.93
327.027	-3.41
327.24	78.51
327.453	8.87
327.666	84.65
327.879	213.67
328.092	80.55
328.305	101.03
328.518	58.03
328.731	29.35
328.944	25.26
329.157	17.07
329.37	-19.8
329.583	51.88
329.796	41.64
330.009	-66.9
330.222	86.7
330.435	84.65
330.648	119.46
330.861	-21.84
331.073	15.02
331.286	101.03
331.499	84.65
331.712	21.16
331.925	76.46
332.138	78.51
332.35	-1.37
332.563	-36.18
332.776	21.16
332.989	25.26
333.202	86.7
333.414	-27.99
333.627	72.36
333.84	8.87
334.053	39.59
334.265	12.97
334.478	35.5
334.691	53.93
334.903	27.31
335.116	60.07
335.329	55.98
335.541	27.31
335.754	131.75
335.966	64.17
336.179	39.59
336.392	31.4
336.604	-3.41
336.817	68.27
337.029	78.51
337.242	4.78
337.454	60.07
337.667	4.78
337.88	152.23
338.092	49.83
338.305	55.98
338.517	-11.61
338.729	76.46
338.942	70.31
339.154	-36.18
339.367	-68.95
339.579	72.36
339.792	-15.7
340.004	94.89
340.217	-19.8
340.429	72.36
340.641	-17.75
340.854	29.35
341.066	-3.41
341.278	127.66
341.491	82.6
341.703	33.45
341.915	33.45
342.128	19.11
342.34	47.79
342.552	8.87
342.764	-34.13
342.977	43.69
343.189	15.02
343.401	51.88
343.613	-71
343.826	15.02
344.038	-3.41
344.25	33.45
344.462	21.16
344.674	10.92
344.886	39.59
345.099	2.73
345.311	15.02
345.523	-23.89
345.735	19.11
345.947	76.46
346.159	45.74
346.371	55.98
346.583	43.69
346.795	189.1
347.007	47.79
347.219	12.97
347.431	86.7
347.643	125.61
347.855	53.93
348.067	62.12
348.279	29.35
348.491	-21.84
348.703	72.36
348.915	4.78
349.127	33.45
349.339	55.98
349.551	23.21
349.763	51.88
349.975	31.4
350.187	58.03
350.399	125.61
350.61	21.16
350.822	-23.89
351.034	88.75
351.246	0.68
351.458	70.31
351.669	76.46
351.881	127.66
352.093	37.55
352.305	41.64
352.517	80.55
352.728	158.38
352.94	33.45
353.152	-3.41
353.363	103.08
353.575	55.98
353.787	127.66
353.999	45.74
354.21	103.08
354.422	76.46
354.633	45.74
354.845	51.88
355.057	105.13
355.268	82.6
355.48	51.88
355.692	-15.7
355.903	8.87
356.115	51.88
356.326	-105.81
356.538	172.71
356.749	94.89
356.961	88.75
357.172	29.35
357.384	72.36
357.595	131.75
357.807	21.16
358.018	12.97
358.23	47.79
358.441	115.37
358.653	72.36
358.864	58.03
359.075	-56.66
359.287	55.98
359.498	41.64
359.709	-30.04
359.921	78.51
360.132	45.74
360.344	-15.7
360.555	35.5
360.766	39.59
360.977	45.74
361.189	78.51
361.4	8.87
361.611	84.65
361.823	96.94
362.034	53.93
362.245	-36.18
362.456	0.68
362.667	51.88
362.879	107.18
363.09	-30.04
363.301	105.13
363.512	37.55
363.723	35.5
363.935	25.26
364.146	17.07
364.357	-34.13
364.568	133.8
364.779	6.83
364.99	58.03
365.201	47.79
365.412	150.18
365.623	-27.99
365.834	41.64
366.045	84.65
366.256	51.88
366.467	43.69
366.678	21.16
366.889	82.6
367.1	-1.37
367.311	17.07
367.522	12.97
367.733	31.4
367.944	78.51
368.155	-7.51
368.366	92.84
368.577	164.52
368.788	47.79
368.999	39.59
369.209	39.59
369.42	172.71
369.631	223.91
369.842	64.17
370.053	88.75
370.264	47.79
370.474	-17.75
370.685	29.35
370.896	-25.94
371.107	158.38
371.317	64.17
371.528	6.83
371.739	76.46
371.95	115.37
372.16	178.86
372.371	-60.76
372.582	74.41
372.792	17.07
373.003	37.55
373.214	-11.61
373.424	51.88
373.635	-36.18
373.846	119.46
374.056	55.98
374.267	72.36
374.477	-1.37
374.688	31.4
374.898	74.41
375.109	70.31
375.319	17.07
375.53	107.18
375.74	86.7
375.951	8.87
376.161	-30.04
376.372	105.13
376.582	12.97
376.793	86.7
377.003	17.07
377.214	29.35
377.424	51.88
377.635	49.83
377.845	55.98
378.055	137.9
378.266	27.31
378.476	35.5
378.686	19.11
378.897	74.41
379.107	129.7
379.317	90.79
379.528	21.16
379.738	90.79
379.948	8.87
380.158	51.88
380.369	23.21
380.579	127.66
380.789	29.35
380.999	62.12
381.21	76.46
381.42	146.09
381.63	-5.46
381.84	103.08
382.05	105.13
382.261	141.99
382.471	74.41
382.681	19.11
382.891	123.56
383.101	-3.41
383.311	29.35
383.521	49.83
383.731	96.94
383.941	94.89
384.151	70.31
384.361	-3.41
384.571	84.65
384.781	33.45
384.991	115.37
385.201	168.62
385.411	98.99
385.621	-1.37
385.831	25.26
386.041	86.7
386.251	68.27
386.461	66.22
386.671	37.55
386.881	62.12
387.091	-11.61
387.301	98.99
387.511	8.87
387.72	29.35
387.93	76.46
388.14	105.13
388.35	43.69
388.56	66.22
388.769	76.46
388.979	55.98
389.189	41.64
389.399	47.79
389.609	6.83
389.818	105.13
390.028	62.12
390.238	127.66
390.447	29.35
390.657	-19.8
390.867	21.16
391.076	-5.46
391.286	107.18
391.496	41.64
391.705	0.68
391.915	139.94
392.125	84.65
392.334	29.35
392.544	105.13
392.753	53.93
392.963	31.4
393.172	64.17
393.382	-5.46
393.591	125.61
393.801	82.6
394.01	203.43
394.22	72.36
394.429	66.22
394.639	64.17
394.848	103.08
395.058	53.93
395.267	88.75
395.477	101.03
395.686	98.99
395.895	209.58
396.105	199.34
396.314	103.08
396.524	70.31
396.733	105.13
396.942	115.37
397.152	129.7
397.361	141.99
397.57	127.66
397.78	82.6
397.989	94.89
398.198	197.29
398.407	68.27
398.617	82.6
398.826	160.42
399.035	111.27
399.244	101.03
399.453	123.56
399.663	88.75
399.872	43.69
400.081	-7.51
400.29	197.29
400.499	80.55
400.708	70.31
400.917	80.55
401.127	121.51
401.336	88.75
401.545	144.04
401.754	168.62
401.963	170.66
402.172	82.6
402.381	111.27
402.59	55.98
402.799	111.27
403.008	144.04
403.217	223.91
403.426	182.95
403.635	98.99
403.844	154.28
404.053	141.99
404.262	94.89
404.471	254.63
404.68	103.08
404.888	109.23
405.097	182.95
405.306	166.57
405.515	131.75
405.724	193.19
405.933	150.18
406.142	187.05
406.35	219.82
406.559	109.23
406.768	221.86
406.977	248.49
407.185	219.82
407.394	195.24
407.603	152.23
407.812	199.34
408.02	271.01
408.229	160.42
408.438	240.3
408.646	178.86
408.855	277.16
409.064	268.97
409.272	291.49
409.481	240.3
409.69	213.67
409.898	291.49
410.107	336.55
410.315	381.6
410.524	258.73
410.733	352.93
410.941	307.88
411.15	369.32
411.358	316.07
411.567	453.28
411.775	348.84
411.984	432.8
412.192	449.19
412.401	457.38
412.609	459.43
412.818	557.73
413.026	481.96
413.234	506.53
413.443	455.33
413.651	522.91
413.86	539.3
414.068	653.98
414.276	619.17
414.485	645.79
414.693	670.37
414.901	684.7
415.11	737.95
415.318	660.13
415.526	791.2
415.734	725.66
415.943	832.16
416.151	897.69
416.359	877.21
416.567	725.66
416.776	871.07
416.984	934.56
417.192	1049.24
417.4	971.42
417.608	1002.14
417.817	1051.29
418.025	1129.11
418.233	1227.42
418.441	1086.11
418.649	1137.31
418.857	1278.62
419.065	1333.91
419.273	1342.1
419.481	1340.05
419.689	1378.97
419.897	1444.5
420.105	1522.32
420.313	1530.52
420.521	1637.01
420.729	1700.5
420.937	1632.91
421.145	1616.53
421.353	1802.9
421.561	1921.68
421.769	1927.82
421.977	2036.36
422.185	2048.65
422.393	2089.61
422.601	2237.06
422.809	2290.31
423.017	2110.09
423.224	2249.35
423.432	2472.58
423.64	2382.47
423.848	2722.43
424.056	2552.45
424.263	2841.22
424.471	2738.82
424.679	2843.26
424.887	3046.01
425.094	3136.12
425.302	3115.64
425.51	3195.51
425.718	3412.6
425.925	3439.22
426.133	3390.07
426.341	3576.44
426.548	3811.95
426.756	3783.28
426.964	3940.97
427.171	4113
427.379	4303.47
427.586	4321.9
427.794	4479.59
428.001	4569.7
428.209	4807.27
428.417	4954.72
428.624	5059.17
428.832	5071.45
429.039	5112.41
429.247	4985.44
429.454	5653.08
429.662	5921.36
429.869	5560.92
430.076	5947.98
430.284	5861.97
430.491	6058.57
430.699	6382.15
430.906	6343.24
431.114	6347.34
431.321	6724.16
431.528	6900.29
431.736	7160.38
431.943	7488.06
432.15	7402.04
432.358	7473.72
432.565	7895.6
432.772	7975.47
432.979	8149.55
433.187	8393.26
433.394	8376.87
433.601	8952.35
433.808	8907.3
434.016	8811.04
434.223	9216.54
434.43	10066.45
434.637	9703.96
434.844	10123.79
435.052	10600.97
435.259	10523.15
435.466	10527.24
435.673	10449.42
435.88	10885.64
436.087	11649.53
436.294	11622.91
436.501	11358.72
436.708	11696.63
436.915	12268.02
437.122	12476.91
437.329	12493.29
437.537	12829.16
437.743	13193.7
437.95	13355.49
438.157	13773.27
438.364	14258.64
438.571	13736.41
438.778	14215.63
438.985	15663.55
439.192	14875.08
439.399	15428.03
439.606	15231.43
439.813	15833.53
440.02	16798.12
440.227	16447.92
440.433	16599.47
440.64	16961.96
440.847	16990.63
441.054	17101.22
441.261	18274.71
441.467	18170.26
441.674	18325.91
441.881	19435.91
442.088	19222.92
442.294	18796.94
442.501	19540.35
442.708	19802.49
442.914	20638.06
443.121	21459.3
443.328	21078.38
443.534	22677.84
443.741	21684.58
443.948	21533.03
444.154	23230.79
444.361	22866.25
444.568	23114.06
444.774	23333.19
444.981	23228.74
445.187	24150.33
445.394	25260.33
445.6	24705.33
445.807	27093.26
446.013	26159.39
446.22	26562.84
446.426	27496.71
446.633	27418.89
446.839	28422.39
447.046	27433.22
447.252	28827.89
447.459	28989.68
447.665	28692.72
447.871	30058.72
448.078	31037.65
448.284	30050.53
448.491	30550.23
448.697	31828.16
448.903	32204.99
449.11	32663.74
449.316	32104.64
449.522	32737.46
449.728	33478.83
449.935	33603.75
450.141	33869.99
450.347	34418.85
450.553	33452.2
450.76	33945.76
450.966	35268.75
451.172	34429.09
451.378	35502.22
451.584	34611.35
451.791	35436.69
451.997	35664.01
452.203	36028.55
452.409	36186.24
452.615	35344.53
452.821	34328.73
453.027	34173.09
453.233	35743.88
453.44	34185.38
453.646	34646.17
453.852	35014.8
454.058	35539.08
454.264	34637.98
454.47	35283.09
454.676	33999.01
454.882	35299.47
455.088	32338.11
455.294	32714.94
455.5	33599.66
455.705	33579.18
455.911	31992
456.117	31641.8
456.323	31336.65
456.529	29528.3
456.735	30589.14
456.941	30247.13
457.147	29468.9
457.352	28676.34
457.558	28117.25
457.764	28250.36
457.97	27883.78
458.176	27158.8
458.381	26845.46
458.587	25913.63
458.793	25893.15
458.999	24533.3
459.204	25827.62
459.41	25368.87
459.616	23785.79
459.821	23843.13
460.027	23474.5
460.233	23406.92
460.438	21911.9
460.644	22559.06
460.85	21528.93
461.055	21043.56
461.261	20840.81
461.466	19480.96
461.672	19063.18
461.878	20042.1
462.083	18772.36
462.289	18278.8
462.494	18129.3
462.7	17273.25
462.905	16873.9
463.111	17582.49
463.316	17613.21
463.522	17097.13
463.727	17111.46
463.932	17228.2
464.138	16791.98
464.343	17070.5
464.549	16372.14
464.754	17011.11
464.959	16955.82
465.165	16644.52
465.37	16185.78
465.575	15897.02
465.781	16454.06
465.986	16378.29
466.191	15933.88
466.397	15600.06
466.602	14713.29
466.807	15212.99
467.012	15294.91
467.218	15450.56
467.423	15280.58
467.628	15112.64
467.833	15716.79
468.038	15137.22
468.244	14676.43
468.449	15292.87
468.654	14739.91
468.859	14895.56
469.064	14494.16
469.269	13978.07
469.474	14315.98
469.679	14473.68
469.885	14014.93
470.09	14229.97
470.295	14127.57
470.5	13713.88
470.705	13660.63
470.91	13519.32
471.115	13545.95
471.32	13548
471.525	13509.08
471.73	13414.88
471.935	13074.92
472.139	12659.18
472.344	12775.91
472.549	12544.49
472.754	12710.38
472.959	12495.34
473.164	11989.49
473.369	11758.07
473.574	12403.18
473.778	12095.99
473.983	12308.97
474.188	12048.88
474.393	11407.87
474.598	11467.26
474.802	11377.15
475.007	11330.05
475.212	11432.44
475.417	10789.38
475.621	11059.71
475.826	10961.41
476.031	10705.42
476.235	10377.74
476.44	10437.13
476.645	10539.53
476.849	10512.91
477.054	10512.91
477.259	10209.81
477.463	10095.12
477.668	10048.02
477.872	10131.98
478.077	9763.35
478.282	9624.09
478.486	9628.18
478.691	9435.67
478.895	9560.6
479.1	9339.42
479.304	9595.42
479.509	9159.2
479.713	9417.24
479.918	9138.72
480.122	9075.23
480.326	9159.2
480.531	9007.65
480.735	9011.75
480.94	8935.97
481.144	9337.37
481.348	8770.08
481.553	8897.06
481.757	8737.32
481.961	8757.8
482.166	9005.6
482.37	8809
482.574	8888.87
482.778	8786.47
482.983	8913.44
483.187	8741.41
483.391	8673.83
483.595	8673.83
483.8	8612.39
484.004	8917.54
484.208	8827.43
484.412	8757.8
484.616	8702.5
484.821	8852
485.025	8577.58
485.229	8940.07
485.433	8628.77
485.637	8727.08
485.841	8753.7
486.045	8620.58
486.249	8667.69
486.453	8739.37
486.657	8960.55
486.861	8837.67
487.065	8520.23
487.269	8641.06
487.473	8608.3
487.677	9013.79
487.881	8919.59
488.085	8718.89
488.289	8761.89
488.493	8661.54
488.697	9042.46
488.901	8952.35
489.105	8942.11
489.309	8897.06
489.512	8751.65
489.716	8815.14
489.92	8745.51
490.124	8694.31
490.328	9179.68
490.531	8895.01
490.735	8952.35
490.939	8811.04
491.143	8882.72
491.346	8995.36
491.55	9003.55
491.754	9108
491.958	9245.21
492.161	9046.56
492.365	9286.17
492.569	8954.4
492.772	9159.2
492.976	9304.6
493.18	8993.31
493.383	9407
493.587	9400.86
493.79	9693.72
493.994	9497.11
494.197	9507.35
494.401	9484.83
494.605	9521.69
494.808	9953.81
495.012	9769.49
495.215	10023.44
495.419	10115.6
495.622	9869.84
495.825	10142.22
496.029	10013.2
496.232	10170.9
496.436	10281.49
496.639	10439.18
496.843	10541.58
497.046	10502.67
497.249	10641.93
497.453	10699.27
497.656	10830.34
497.859	10674.7
498.063	11020.8
498.266	11295.23
498.469	11373.05
498.673	11366.91
498.876	11409.92
499.079	11635.19
499.282	11649.53
499.485	12044.79
499.689	11889.14
499.892	12077.55
500.095	12128.75
500.298	12603.88
500.501	12204.53
500.705	12734.95
500.908	12861.93
501.111	13005.28
501.314	13013.48
501.517	13158.88
501.72	13165.03
501.923	13222.37
502.126	13248.99
502.329	13722.07
502.532	13902.29
502.735	13914.58
502.938	13992.41
503.141	14191.06
503.344	14420.43
503.547	14496.21
503.75	14623.18
503.953	14834.12
504.156	15225.28
504.359	15196.61
504.562	15196.61
504.765	15546.81
504.968	15782.33
505.17	15667.64
505.373	15813.05
505.576	16118.2
505.779	16259.51
505.982	16353.71
506.185	16660.91
506.387	16550.32
506.59	17047.97
506.793	17181.09
506.996	17029.54
507.198	17543.58
507.401	17344.93
507.604	17865.11
507.807	18057.62
508.009	18063.77
508.212	18178.45
508.415	18522.51
508.617	18655.63
508.82	18913.67
509.022	18596.24
509.225	19300.74
509.428	19188.1
509.63	19577.22
509.833	19409.28
510.035	20107.64
510.238	19861.88
510.44	19995
510.643	20470.13
510.845	20306.29
511.048	20357.49
511.25	20590.96
511.453	20984.17
511.655	21840.22
511.858	21399.91
512.06	21547.36
512.262	21780.83
512.465	21694.82
512.667	21997.91
512.87	22346.07
513.072	22272.34
513.274	22577.49
513.477	22729.04
513.679	22657.36
513.881	23353.67
514.084	23462.21
514.286	23591.23
514.488	23599.43
514.69	24009.02
514.893	24074.56
515.095	24189.24
515.297	24674.61
515.499	24686.9
515.701	24650.03
515.904	25307.43
516.106	25200.94
516.308	25671.97
516.51	25751.84
516.712	25864.48
516.914	25686.31
517.116	26278.17
517.318	26229.02
517.52	26413.34
517.722	26724.63
517.925	26738.96
518.127	27377.93
518.329	27394.31
518.531	26958.1
518.733	27932.93
518.935	27752.71
519.136	27689.22
519.338	28283.13
519.54	28123.39
519.742	28717.3
519.944	28725.49
520.146	29096.17
520.348	29079.79
520.55	29559.02
520.752	29282.54
520.954	29661.41
521.155	29604.07
521.357	29542.63
521.559	30116.06
521.761	30449.88
521.963	30335.2
522.164	30482.65
522.366	30593.24
522.568	30777.56
522.77	31027.41
522.971	31742.15
523.173	31049.94
523.375	31510.73
523.576	31256.78
523.778	31588.55
523.98	32258.24
524.181	31883.46
524.383	32186.56
524.584	32313.53
524.786	32383.16
524.988	31983.81
525.189	32438.46
525.391	32530.62
525.592	32962.74
525.794	32827.57
525.995	32813.24
526.197	33165.49
526.398	33048.75
526.6	33429.68
526.801	32956.6
527.003	33159.34
527.204	33464.49
527.406	33536.17
527.607	33685.67
527.808	33695.91
528.01	33261.74
528.211	33689.77
528.412	33798.31
528.614	33765.54
528.815	33765.54
529.016	34336.93
529.218	33767.59
529.419	34142.37
529.62	33972.39
529.822	34209.95
530.023	34078.88
530.224	33831.08
530.425	34039.97
530.626	33751.21
530.828	33714.34
531.029	34341.02
531.23	34113.7
531.431	33863.85
531.632	34410.65
531.833	34422.94
532.035	34291.87
532.236	34230.43
532.437	34316.45
532.638	34142.37
532.839	34236.58
533.04	34531.48
533.241	33757.35
533.442	34562.2
533.643	34191.52
533.844	34185.38
534.045	34179.23
534.246	33859.75
534.447	34705.56
534.648	33921.19
534.849	34349.21
535.05	34173.09
535.251	34171.04
535.451	34095.27
535.652	34224.29
535.853	34357.41
536.054	34246.82
536.255	34216.1
536.456	33620.14
536.657	34365.6
536.857	34209.95
537.058	33931.43
537.259	34076.83
537.46	34332.83
537.66	33976.48
537.861	34261.15
538.062	34136.23
538.263	33775.78
538.463	34117.79
538.664	33808.55
538.865	33931.43
539.065	34459.8
539.266	33929.38
539.466	34191.52
539.667	33675.43
539.868	34592.92
540.068	33820.84
540.269	33738.92
540.469	34171.04
540.67	33923.24
540.87	34072.74
541.071	33804.45
541.271	33929.38
541.472	33962.15
541.672	33736.87
541.873	33552.55
542.073	32901.3
542.274	34166.95
542.474	33568.94
542.675	33796.26
542.875	33783.98
543.075	33554.6
543.276	33306.8
543.476	33767.59
543.676	33312.94
543.877	33509.55
544.077	33491.12
544.277	33589.42
544.478	33259.7
544.678	33771.69
544.878	33220.78
545.078	33329.33
545.279	33317.04
545.479	33054.9
545.679	33325.23
545.879	33288.37
546.079	33366.19
546.28	33124.53
546.48	32987.32
546.68	33368.24
546.88	33515.69
547.08	33208.5
547.28	33251.5
547.48	33089.71
547.68	33122.48
547.88	33099.95
548.081	32981.17
548.281	32895.16
548.481	32899.25
548.681	33429.68
548.881	33648.81
549.081	33505.45
549.28	33063.09
549.48	33310.89
549.68	33136.82
549.88	33695.91
550.08	33263.79
550.28	33114.29
550.48	33206.45
550.68	33548.46
550.88	32889.01
551.08	33020.08
551.279	33274.03
551.479	32680.12
551.679	32751.8
551.879	32843.96
552.079	33421.48
552.278	33122.48
552.478	32891.06
552.678	33089.71
552.878	33085.62
553.077	32913.59
553.277	32594.11
553.477	33351.85
553.676	32692.41
553.876	32970.93
554.076	32809.14
554.275	32817.33
554.475	32325.82
554.674	32872.63
554.874	32547
555.074	32798.9
555.273	32698.55
555.473	32807.09
555.672	32567.48
555.872	32544.95
556.071	32790.71
556.271	32569.53
556.47	32415.93
556.67	32227.52
556.869	32417.98
557.068	32768.18
557.268	32325.82
557.467	32168.13
557.667	32233.66
557.866	32315.58
558.065	32327.87
558.265	32405.69
558.464	32170.18
558.663	32628.92
558.863	32217.28
559.062	32645.3
559.261	32209.09
559.461	32473.28
559.66	32082.11
559.859	31975.62
560.058	31881.41
560.258	32082.11
560.457	31783.11
560.656	32256.19
560.855	31684.81
561.054	32501.95
561.253	31574.22
561.453	31801.54
561.652	31916.23
561.851	32100.54
562.05	31895.75
562.249	31733.96
562.448	32245.95
562.647	31647.94
562.846	31574.22
563.045	32286.91
563.244	31340.75
563.443	31791.3
563.642	31492.3
563.841	31844.55
564.04	31561.93
564.239	32086.21
564.438	31228.11
564.637	31881.41
564.836	31506.63
565.035	31256.78
565.234	31893.7
565.432	31535.31
565.631	31240.4
565.83	31475.91
566.029	31455.43
566.228	31281.36
566.427	31473.87
566.625	31021.27
566.824	30959.83
567.023	31549.64
567.222	30740.69
567.42	31471.82
567.619	31037.65
567.818	31049.94
568.016	31404.24
568.215	31570.12
568.414	30933.2
568.612	31320.27
568.811	31138
569.01	31142.1
569.208	30744.79
569.407	30935.25
569.605	30580.95
569.804	31039.7
570.002	30580.95
570.201	30800.08
570.4	30693.59
570.598	30701.78
570.797	30634.2
570.995	30517.46
571.193	30423.26
571.392	30574.81
571.59	30372.06
571.789	30425.31
571.987	30494.94
572.186	30382.3
572.384	30337.24
572.582	30363.87
572.781	30609.62
572.979	29987.04
573.177	30066.91
573.376	30367.96
573.574	30224.61
573.772	30165.21
573.971	29866.21
574.169	30103.78
574.367	29845.73
574.565	29825.25
574.763	29909.22
574.962	29767.91
575.16	29294.83
575.358	29872.35
575.556	29452.52
575.754	30152.93
575.952	29286.64
576.151	29401.32
576.349	29171.95
576.547	29425.9
576.745	29470.95
576.943	29391.08
577.141	29044.98
577.339	28954.86
577.537	29296.88
577.735	28975.34
577.933	28815.6
578.131	28893.43
578.329	28809.46
578.527	28801.27
578.725	29069.55
578.923	29260.01
579.121	28610.81
579.319	28637.43
579.516	28596.47
579.714	28633.33
579.912	29026.54
580.11	28301.56
580.308	28506.36
580.506	28371.19
580.704	28170.49
580.901	28412.15
581.099	28420.34
581.297	28113.15
581.495	28233.98
581.692	28141.82
581.89	27945.22
582.088	28084.48
582.285	28014.85
582.483	28090.62
582.681	27840.77
582.878	27775.23
583.076	27744.52
583.274	27887.87
583.471	27513.09
583.669	27617.54
583.866	27453.7
584.064	27808
584.262	27420.94
584.459	27789.57
584.657	27296.01
584.854	27379.98
585.052	27429.13
585.249	27404.55
585.447	27359.5
585.644	27017.49
585.841	27193.61
586.039	27287.82
586.236	26865.94
586.434	26808.59
586.631	26771.73
586.828	26863.89
587.026	26716.43
587.223	26425.62
587.42	26566.93
587.618	26767.63
587.815	26448.15
588.012	26552.6
588.21	26288.41
588.407	26327.32
588.604	26312.99
588.801	26149.15
588.999	26132.76
589.196	25852.19
589.393	25829.66
589.59	26087.71
589.787	25657.64
589.984	25731.36
590.182	25725.22
590.379	25610.53
590.576	25561.38
590.773	25639.2
590.97	25426.21
591.167	25557.28
591.364	25358.63
591.561	25162.03
591.758	24838.45
591.955	25200.94
592.152	25577.76
592.349	25137.45
592.546	25323.82
592.743	24834.35
592.94	24928.56
593.137	25043.24
593.334	25137.45
593.531	24641.84
593.727	24553.78
593.924	24975.66
594.121	24609.08
594.318	24664.37
594.515	24301.88
594.712	24512.82
594.908	24523.06
595.105	24625.46
595.302	24189.24
595.499	24322.36
595.696	23982.4
595.892	23869.76
596.089	24086.84
596.286	24011.07
596.482	24109.37
596.679	24080.7
596.876	23738.69
597.072	23740.74
597.269	23580.99
597.466	23687.49
597.662	23679.3
597.859	23748.93
598.055	23523.65
598.252	23089.48
598.448	23595.33
598.645	23308.61
598.841	23107.91
599.038	23116.11
599.234	23302.47
599.431	23007.56
599.627	22976.84
599.824	23101.77
600.02	22688.08
600.217	22896.97
600.413	22950.22
600.609	22569.3
600.806	22821.2
601.002	22876.49
601.198	22503.76
601.395	22315.35
601.591	22495.57
601.787	22344.02
601.984	22337.88
602.18	22606.16
602.376	22120.79
602.572	22167.9
602.769	22237.53
602.965	22024.54
603.161	22241.62
603.357	21991.77
603.553	21834.08
603.75	21811.55
603.946	21748.06
604.142	21963.1
604.338	21406.05
604.534	21827.93
604.73	21451.11
604.926	21383.52
605.122	21508.45
605.318	21584.23
605.514	21746.01
605.71	21352.8
605.906	21383.52
606.102	21258.6
606.298	21354.85
606.494	21205.35
606.69	20971.88
606.886	21356.9
607.082	20869.48
607.278	21113.19
607.474	20840.81
607.67	20863.34
607.866	20564.34
608.062	20988.27
608.257	20762.99
608.453	20504.95
608.649	20842.86
608.845	20697.45
609.041	20525.43
609.236	20932.97
609.432	20257.14
609.628	20748.65
609.824	20279.67
610.019	20228.47
610.215	20490.61
610.411	20668.78
610.606	19913.08
610.802	20298.1
610.998	20251
611.193	20437.36
611.389	20199.8
611.584	20144.5
611.78	19992.95
611.976	20093.3
612.171	20060.54
612.367	20013.43
612.562	19822.97
612.758	19624.32
612.953	19487.11
613.149	20117.88
613.344	19669.37
613.539	20085.11
613.735	19779.96
613.93	19814.78
614.126	19569.02
614.321	19915.13
614.517	19411.33
614.712	19673.47
614.907	19388.8
615.103	19650.94
615.298	19300.74
615.493	19638.65
615.688	19353.99
615.884	19487.11
616.079	19356.04
616.274	19470.72
616.47	19046.79
616.665	19108.23
616.86	19208.58
617.055	19141
617.25	19147.14
617.445	19120.52
617.641	18829.71
617.836	18772.36
618.031	18661.77
618.226	19057.03
618.421	18882.95
618.616	18891.15
618.811	18411.92
619.006	18821.52
619.201	18149.78
619.396	18651.53
619.591	18276.76
619.786	18565.52
619.981	18082.2
620.176	18497.94
620.371	18076.05
620.566	17856.92
620.761	18323.86
620.956	18295.19
621.151	17838.49
621.346	17793.44
621.541	17645.98
621.735	17623.45
621.93	17465.76
622.125	17600.93
622.32	17232.29
622.515	17484.19
622.709	17197.48
622.904	17136.04
623.099	17078.69
623.294	17117.61
623.488	16716.2
623.683	16687.53
623.878	16490.93
624.072	16667.05
624.267	16816.55
624.462	16296.37
624.656	16415.15
624.851	16378.29
625.046	16251.31
625.24	16204.21
625.435	16011.7
625.629	15901.11
625.824	15733.18
626.018	15880.63
626.213	15667.64
626.407	15520.19
626.602	15442.37
626.796	15901.11
626.991	15466.94
627.185	15362.5
627.38	15233.47
627.574	14957
627.768	15200.71
627.963	14887.37
628.157	14678.47
628.352	14897.61
628.546	14633.42
628.74	14905.8
628.935	14787.02
629.129	14391.76
629.323	14375.38
629.517	14182.87
629.712	14387.66
629.906	14336.46
630.1	14209.49
630.294	14240.21
630.489	13797.85
630.683	13996.5
630.877	13677.02
631.071	13717.98
631.265	13902.29
631.459	13533.66
631.653	13654.49
631.848	13681.11
632.042	13668.83
632.236	13490.65
632.43	13244.9
632.624	13400.54
632.818	13486.56
633.012	13226.46
633.206	13199.84
633.4	13056.48
633.594	12939.75
633.788	13140.45
633.982	12880.36
634.176	12982.76
634.369	12792.3
634.563	12777.96
634.757	12624.36
634.951	12618.22
635.145	12591.59
635.339	12450.28
635.533	12407.28
635.726	12421.61
635.92	12222.96
636.114	12179.95
636.308	11833.85
636.501	12059.12
636.695	12061.17
636.889	11878.9
637.083	11981.3
637.276	11819.51
637.47	11680.25
637.664	11586.04
637.857	11616.76
638.051	11706.87
638.244	11645.43
638.438	11506.17
638.632	11512.31
638.825	11106.82
639.019	11090.43
639.212	11092.48
639.406	11121.15
639.599	11082.24
639.793	10981.89
639.986	10834.44
640.18	10932.74
640.373	10832.39
640.567	10768.9
640.76	10525.19
640.954	10564.11
641.147	10406.41
641.34	10377.74
641.534	10578.44
641.727	10594.82
641.92	10228.24
642.114	10396.17
642.307	10109.46
642.5	10412.56
642.694	10074.64
642.887	10209.81
643.08	10166.8
643.273	10074.64
643.467	9994.77
643.66	9873.94
643.853	9875.99
644.046	9779.73
644.239	9761.3
644.432	9538.07
644.626	9648.66
644.819	9699.86
645.012	9400.86
645.205	9548.31
645.398	9407
645.591	9388.57
645.784	9230.88
645.977	9148.96
646.17	9296.41
646.363	9028.13
646.556	9085.47
646.749	9114.14
646.942	9054.75
647.135	8847.91
647.328	8811.04
647.521	9052.7
647.714	8606.25
647.907	8837.67
648.099	8737.32
648.292	8729.13
648.485	8649.25
648.678	8540.71
648.871	8790.56
649.064	8682.02
649.256	8591.91
649.449	8477.23
649.642	8227.37
649.835	8323.63
650.027	8620.58
650.22	8350.25
650.413	8159.79
650.605	8151.6
650.798	8133.17
650.991	7965.23
651.183	8278.57
651.376	8063.54
651.568	7952.95
651.761	7832.12
651.954	8079.92
652.146	7883.31
652.339	7836.21
652.531	7967.28
652.724	7696.95
652.916	7543.35
653.109	7709.24
653.301	7666.23
653.494	7748.15
653.686	7332.41
653.879	7576.12
654.071	7379.51
654.263	7410.23
654.456	7313.98
654.648	7318.07
654.84	7342.65
655.033	7170.62
655.225	7178.81
655.417	7090.75
655.61	7154.24
655.802	7125.57
655.994	7098.94
656.186	7041.6
656.379	7084.61
656.571	6990.4
656.763	6810.18
656.955	6810.18
657.148	6900.29
657.34	6853.19
657.532	6769.22
657.724	6691.4
657.916	6715.97
658.108	6830.66
658.3	6613.57
658.492	6656.58
658.684	6623.81
658.876	6611.53
659.068	6640.2
659.26	6335.05
659.452	6589
659.644	6531.65
659.836	6502.98
660.028	6380.11
660.22	6230.6
660.412	6355.53
660.604	6304.33
660.796	6308.43
660.988	6386.25
661.18	6281.8
661.372	6240.84
661.563	6179.4
661.755	6089.29
661.947	6101.58
662.139	6011.47
662.331	6007.38
662.522	5921.36
662.714	5976.66
662.906	5956.18
663.097	5866.07
663.289	6079.05
663.481	5866.07
663.673	5866.07
663.864	5835.35
664.056	5722.71
664.247	5904.98
664.439	5691.99
664.631	5730.9
664.822	5839.44
665.014	5728.85
665.205	5714.52
665.397	5624.4
665.588	5689.94
665.78	5540.44
665.971	5544.53
666.163	5646.93
666.354	5356.12
666.546	5433.94
666.737	5501.53
666.929	5372.5
667.12	5388.89
667.311	5450.33
667.503	5241.43
667.694	5544.53
667.885	5204.57
668.077	5177.95
668.268	5343.83
668.459	5345.88
668.651	5444.18
668.842	5216.86
669.033	5198.43
669.224	5284.44
669.416	5331.55
669.607	5227.1
669.798	5139.04
669.989	5171.8
670.18	4989.53
670.371	5044.83
670.563	5018.21
670.754	5313.11
670.945	5083.74
671.136	5114.46
671.327	5075.55
671.518	4905.57
671.709	4952.67
671.9	5024.35
672.091	4999.77
672.282	5005.92
672.473	4862.56
672.664	4868.7
672.855	4971.1
673.046	5012.06
673.237	4964.96
673.428	4833.89
673.619	4921.95
673.809	4889.18
674	4872.8
674.191	4852.32
674.382	4799.07
674.573	5050.97
674.764	4921.95
674.954	4985.44
675.145	4596.32
675.336	4731.49
675.527	4815.46
675.717	4610.66
675.908	4594.28
676.099	4715.11
676.289	4584.04
676.48	4715.11
676.671	4633.19
676.861	4702.82
677.052	4799.07
677.243	4774.5
677.433	4590.18
677.624	4692.58
677.814	4825.7
678.005	4637.28
678.195	4723.3
678.386	4743.78
678.576	4575.84
678.767	4510.31
678.957	4684.39
679.148	4727.39
679.338	4680.29
679.529	4559.46
679.719	4676.2
679.909	4786.79
680.1	4596.32
680.29	4719.2
680.481	4518.5
680.671	4557.41
680.861	4653.67
681.052	4694.63
681.242	4575.84
681.432	4553.32
681.622	4579.94
681.813	4532.84
682.003	4561.51
682.193	4530.79
682.383	4616.8
682.573	4590.18
682.764	4616.8
682.954	4672.1
683.144	4577.89
683.334	4549.22
683.524	4403.82
683.714	4715.11
683.904	4520.55
684.094	4641.38
684.284	4475.49
684.474	4618.85
684.664	4375.14
684.854	4524.65
685.044	4508.26
685.234	4553.32
685.424	4452.97
685.614	4473.45
685.804	4510.31
685.994	4336.23
686.184	4450.92
686.374	4393.58
686.564	4313.7
686.753	4463.21
686.943	4364.9
687.133	4336.23
687.323	4381.29
687.513	4407.91
687.702	4305.51
687.892	4084.33
688.082	4086.38
688.272	4176.49
688.461	4330.09
688.651	4328.04
688.841	4149.87
689.03	4186.73
689.22	4043.37
689.41	4227.69
689.599	4180.59
689.789	4139.63
689.979	4004.46
690.168	4051.56
690.358	4057.71
690.547	4024.94
690.737	4100.72
690.926	3979.89
691.116	3947.12
691.305	4088.43
691.495	4053.61
691.684	3873.39
691.874	3986.03
692.063	3928.69
692.252	3838.58
692.442	3988.08
692.631	3867.25
692.82	3717.75
693.01	3869.3
693.199	3799.66
693.388	3719.79
693.578	3828.34
693.767	3807.86
693.956	3838.58
694.146	3762.8
694.335	3770.99
694.524	3738.23
694.713	3705.46
694.902	3621.49
695.092	3691.12
695.281	3672.69
695.47	3607.16
695.659	3691.12
695.848	3727.99
696.037	3578.48
696.226	3758.71
696.415	3652.21
696.604	3811.95
696.793	3654.26
696.982	3758.71
697.171	3750.51
697.36	3592.82
697.549	3574.39
697.738	3623.54
697.927	3650.16
698.116	3633.78
698.305	3627.64
698.494	3682.93
698.683	3574.39
698.872	3721.84
699.061	3666.55
699.25	3658.35
699.438	3656.31
699.627	3615.35
699.816	3754.61
700.005	3631.73
700.193	3586.68
700.382	3715.7
700.571	3670.64
700.76	3672.69
700.948	3715.7
701.137	3619.44
701.326	3676.79
701.514	3715.7
701.703	3627.64
701.892	3699.31
702.08	3752.56
702.269	3725.94
702.457	3588.72
702.646	3740.27
702.834	3646.07
703.023	3768.95
703.212	3627.64
703.4	3680.88
703.589	3785.33
703.777	3762.8
703.965	3529.33
704.154	3691.12
704.342	3748.47
704.531	3676.79
704.719	3752.56
704.907	3693.17
705.096	3695.22
705.284	3865.2
705.472	3723.89
705.661	3885.68
705.849	3789.42
706.037	3740.27
706.226	3723.89
706.414	3725.94
706.602	3605.11
706.79	3838.58
706.979	3687.03
707.167	3883.63
707.355	3740.27
707.543	3885.68
707.731	3797.62
707.919	3656.31
708.107	3824.24
708.296	3797.62
708.484	3725.94
708.672	3838.58
708.86	3969.65
709.048	3795.57
709.236	3834.48
709.424	3744.37
709.612	3983.98
709.8	3828.34
709.988	3897.97
710.176	4002.41
710.364	3824.24
710.551	3852.91
710.739	3857.01
710.927	3897.97
711.115	4092.52
711.303	3877.49
711.491	3920.49
711.679	3799.66
711.866	3912.3
712.054	3814
712.242	4031.09
712.43	4110.96
712.617	3865.2
712.805	3906.16
712.993	3891.82
713.181	3803.76
713.368	4080.24
713.556	3963.5
713.744	3986.03
713.931	4070
714.119	3863.15
714.306	3951.21
714.494	3863.15
714.682	3988.08
714.869	3859.06
715.057	4102.76
715.244	3826.29
715.432	4158.06
715.619	3936.88
715.807	4016.75
715.994	3961.45
716.182	3963.5
716.369	3983.98
716.556	4031.09
716.744	4039.28
716.931	3983.98
717.119	4172.4
717.306	4104.81
717.493	4119.15
717.681	4233.83
717.868	4012.65
718.055	4139.63
718.242	3994.22
718.43	3994.22
718.617	4098.67
718.804	4035.18
718.991	3990.13
719.179	4182.63
719.366	4045.42
719.553	4125.29
719.74	4026.99
719.927	4139.63
720.114	4297.32
720.301	4057.71
720.488	3940.97
720.676	3979.89
720.863	4102.76
721.05	4174.44
721.237	4141.68
721.424	4182.63
721.611	4108.91
721.798	4119.15
721.985	4049.52
722.172	4108.91
722.358	4166.25
722.545	4325.99
722.732	4100.72
722.919	4178.54
723.106	4072.04
723.293	4119.15
723.48	4104.81
723.667	4186.73
723.853	4186.73
724.04	4262.51
724.227	4239.98
724.414	4133.48
724.6	4242.03
724.787	4156.01
724.974	4084.33
725.161	4211.31
725.347	4016.75
725.534	4244.07
725.72	4203.11
725.907	4184.68
726.094	4139.63
726.28	4252.27
726.467	4158.06
726.653	3963.5
726.84	4168.3
727.027	4328.04
727.213	4084.33
727.4	4225.64
727.586	4078.19
727.773	4110.96
727.959	4100.72
728.145	4211.31
728.332	3994.22
728.518	4256.36
728.705	4375.14
728.891	4180.59
729.077	4174.44
729.264	4153.96
729.45	4160.11
729.636	4319.85
729.823	4049.52
730.009	4147.82
730.195	4166.25
730.382	4125.29
730.568	4199.02
730.754	4258.41
730.94	4227.69
731.126	4063.85
731.313	4225.64
731.499	4252.27
731.685	4231.79
731.871	4145.77
732.057	4194.92
732.243	4274.79
732.429	4137.58
732.615	4244.07
732.801	4160.11
732.987	4272.75
733.173	4266.6
733.359	4225.64
733.545	4285.03
733.731	4121.2
733.917	4248.17
734.103	4113
734.289	4045.42
734.475	4139.63
734.661	4129.39
734.847	4168.3
735.033	4256.36
735.219	4145.77
735.404	4156.01
735.59	4231.79
735.776	4104.81
735.962	4106.86
736.148	4162.16
736.333	4115.05
736.519	4051.56
736.705	4094.57
736.89	3885.68
737.076	4072.04
737.262	3992.17
737.447	4170.35
737.633	4074.09
737.819	4014.7
738.004	4113
738.19	3979.89
738.375	4076.14
738.561	4104.81
738.747	4022.89
738.932	3936.88
739.118	3981.93
739.303	3975.79
739.489	3961.45
739.674	3844.72
739.859	3975.79
740.045	4006.51
740.23	4000.37
740.416	3963.5
740.601	3969.65
740.786	3836.53
740.972	3840.62
741.157	3846.77
741.342	3816.05
741.528	3826.29
741.713	3775.09
741.898	3793.52
742.084	3885.68
742.269	3779.19
742.454	3742.32
742.639	3809.9
742.824	3766.9
743.01	3885.68
743.195	3838.58
743.38	3742.32
743.565	3732.08
743.75	3766.9
743.935	3715.7
744.12	3721.84
744.305	3668.59
744.49	3656.31
744.675	3471.99
744.86	3527.28
745.045	3517.05
745.23	3596.92
745.415	3490.42
745.6	3482.23
745.785	3424.89
745.97	3578.48
746.155	3369.59
746.34	3611.25
746.525	3410.55
746.71	3398.26
746.895	3318.39
747.079	3275.38
747.264	3326.58
747.449	3338.87
747.634	3273.34
747.819	3256.95
748.003	3172.99
748.188	3199.61
748.373	3164.79
748.557	3285.62
748.742	3080.83
748.927	3179.13
749.111	3125.88
749.296	3119.74
749.481	2990.72
749.665	3003
749.85	3050.11
750.034	3048.06
750.219	3062.4
750.404	3091.07
750.588	2964.09
750.773	2945.66
750.957	3037.82
751.141	2857.6
751.326	2908.8
751.51	2847.36
751.695	2714.24
751.879	2906.75
752.064	2734.72
752.248	2822.78
752.432	2751.1
752.617	2808.45
752.801	2790.02
752.985	2810.5
753.17	2720.39
753.354	2775.68
753.538	2740.86
753.722	2554.5
753.907	2515.59
754.091	2572.93
754.275	2538.12
754.459	2511.49
754.643	2495.11
754.828	2513.54
755.012	2505.35
755.196	2527.88
755.38	2544.26
755.564	2566.79
755.748	2462.34
755.932	2486.92
756.116	2470.53
756.3	2480.77
756.484	2298.5
756.668	2310.79
756.852	2396.81
757.036	2288.26
757.22	2296.46
757.404	2402.95
757.588	2253.45
757.772	2321.03
757.956	2261.64
758.14	2271.88
758.323	2220.68
758.507	2286.22
758.691	2237.06
758.875	2202.25
759.059	2218.63
759.242	2226.82
759.426	2110.09
759.61	2144.91
759.794	2132.62
759.977	2214.54
760.161	2177.67
760.345	2144.91
760.528	2040.46
760.712	2122.38
760.895	2046.6
761.079	1989.26
761.263	1962.64
761.446	1968.78
761.63	1925.77
761.813	1936.01
761.997	1821.33
762.18	1933.97
762.364	1999.5
762.547	1960.59
762.731	1823.37
762.914	2028.17
763.098	1819.28
763.281	1981.07
763.464	1847.95
763.648	1911.44
763.831	1854.09
764.015	1890.96
764.198	1890.96
764.381	1841.81
764.564	1864.33
764.748	1858.19
764.931	1796.75
765.114	1823.37
765.297	1829.52
765.481	1763.98
765.664	1809.04
765.847	1682.07
766.03	1727.12
766.213	1665.68
766.397	1856.14
766.58	1731.22
766.763	1819.28
766.946	1733.26
767.129	1811.09
767.312	1651.35
767.495	1637.01
767.678	1727.12
767.861	1784.46
768.044	1659.54
768.227	1680.02
768.41	1704.59
768.593	1720.98
768.776	1616.53
768.959	1583.76
769.142	1594
769.324	1612.43
769.507	1690.26
769.69	1647.25
769.873	1632.91
770.056	1792.66
770.239	1622.67
770.421	1634.96
770.604	1696.4
770.787	1469.08
770.97	1528.47
771.152	1540.76
771.335	1448.6
771.518	1456.79
771.7	1585.81
771.883	1583.76
772.066	1491.6
772.248	1602.19
772.431	1561.23
772.613	1487.51
772.796	1446.55
772.978	1446.55
773.161	1471.12
773.343	1479.32
773.526	1460.88
773.708	1374.87
773.891	1342.1
774.073	1397.4
774.256	1319.57
774.438	1485.46
774.621	1358.49
774.803	1282.71
774.985	1282.71
775.168	1366.68
775.35	1292.95
775.532	1411.73
775.715	1303.19
775.897	1245.85
776.079	1272.47
776.261	1325.72
776.444	1251.99
776.626	1157.79
776.808	1188.5
776.99	1206.94
777.173	1266.33
777.355	1084.06
777.537	1114.78
777.719	1258.14
777.901	1186.46
778.083	1256.09
778.265	1088.15
778.447	1139.35
778.629	1129.11
778.811	1159.83
778.993	1254.04
779.175	1145.5
779.357	1206.94
779.539	1032.86
779.721	1116.83
779.903	1084.06
780.085	1094.3
780.267	1129.11
780.449	1055.39
780.631	1149.59
780.812	1112.73
780.994	969.37
781.176	1043.1
781.358	1041.05
781.54	993.95
781.721	1063.58
781.903	1043.1
782.085	1002.14
782.267	1108.63
782.448	998.04
782.63	967.32
782.812	979.61
782.993	993.95
783.175	961.18
783.357	854.69
783.538	977.56
783.72	864.93
783.901	850.59
784.083	934.56
784.264	971.42
784.446	897.69
784.627	813.73
784.809	952.99
784.99	783.01
785.172	793.25
785.353	901.79
785.535	840.35
785.716	776.86
785.897	836.25
786.079	815.77
786.26	774.81
786.441	795.29
786.623	809.63
786.804	750.24
786.985	748.19
787.167	756.38
787.348	799.39
787.529	731.81
787.71	873.12
787.891	746.14
788.073	729.76
788.254	694.94
788.435	731.81
788.616	651.94
788.797	729.76
788.978	711.33
789.159	672.42
789.34	752.29
789.522	690.85
789.703	719.52
789.884	746.14
790.065	651.94
790.246	799.39
790.427	668.32
790.607	696.99
790.788	678.56
790.969	600.74
791.15	711.33
791.331	649.89
791.512	553.63
791.693	590.5
791.874	623.27
792.054	686.75
792.235	737.95
792.416	535.2
792.597	551.59
792.778	699.04
792.958	686.75
793.139	598.69
793.32	684.7
793.5	504.48
793.681	701.09
793.862	649.89
794.042	549.54
794.223	565.92
794.404	512.67
794.584	479.91
794.765	557.73
794.945	547.49
795.126	551.59
795.306	586.4
795.487	516.77
795.667	406.18
795.848	645.79
796.028	535.2
796.209	557.73
796.389	549.54
796.57	604.83
796.75	410.28
796.93	545.44
797.111	479.91
797.291	461.48
797.471	604.83
797.652	430.76
797.832	404.13
798.012	531.11
798.192	438.95
798.373	428.71
798.553	475.81
798.733	465.57
798.913	459.43
799.093	430.76
799.274	533.15
799.454	469.67
799.634	498.34
799.814	449.19
799.994	475.81
800.174	463.52
800.354	420.52
800.534	352.93
800.714	512.67
800.894	330.41
801.074	332.45
801.254	408.23
801.434	467.62
801.614	412.32
801.794	348.84
801.974	1389.21
802.154	357.03
802.334	475.81
802.514	367.27
802.693	330.41
802.873	404.13
803.053	422.56
803.233	479.91
803.413	391.84
803.592	375.46
803.772	383.65
803.952	352.93
804.131	332.45
804.311	348.84
804.491	469.67
804.67	381.6
804.85	348.84
805.03	309.93
805.209	438.95
805.389	289.45
805.568	402.08
805.748	344.74
805.928	406.18
806.107	453.28
806.287	240.3
806.466	352.93
806.646	357.03
806.825	324.26
807.004	316.07
807.184	338.6
807.363	393.89
807.543	340.65
807.722	242.34
807.901	309.93
808.081	430.76
808.26	256.68
808.439	359.08
808.619	264.87
808.798	295.59
808.977	316.07
809.156	357.03
809.336	314.02
809.515	350.89
809.694	367.27
809.873	281.25
810.052	281.25
810.231	365.22
810.411	324.26
810.59	363.17
810.769	275.11
810.948	352.93
811.127	236.2
811.306	209.58
811.485	291.49
811.664	342.69
811.843	316.07
812.022	305.83
812.201	271.01
812.38	328.36
812.559	221.86
812.737	264.87
812.916	287.4
813.095	268.97
813.274	346.79
813.453	359.08
813.632	336.55
813.811	352.93
813.989	180.9
814.168	242.34
814.347	225.96
814.526	258.73
814.704	287.4
814.883	330.41
815.062	289.45
815.24	266.92
815.419	240.3
815.598	279.21
815.776	150.18
815.955	238.25
816.133	135.85
816.312	240.3
816.49	223.91
816.669	273.06
816.847	201.38
817.026	328.36
817.204	131.75
817.383	258.73
817.561	221.86
817.74	283.3
817.918	240.3
818.097	250.53
818.275	162.47
818.453	346.79
818.632	211.62
818.81	197.29
818.988	209.58
819.167	223.91
819.345	221.86
819.523	234.15
819.701	197.29
819.879	225.96
820.058	256.68
820.236	223.91
820.414	187.05
820.592	199.34
820.77	258.73
820.948	199.34
821.127	240.3
821.305	271.01
821.483	158.38
821.661	232.1
821.839	238.25
822.017	193.19
822.195	195.24
822.373	219.82
822.551	230.06
822.729	309.93
822.907	203.43
823.085	250.53
823.262	205.48
823.44	207.53
823.618	101.03
823.796	111.27
823.974	201.38
824.152	221.86
824.329	154.28
824.507	238.25
824.685	191.14
824.863	160.42
825.04	238.25
825.218	195.24
825.396	199.34
825.574	131.75
825.751	133.8
825.929	168.62
826.107	150.18
826.284	164.52
826.462	178.86
826.639	154.28
826.817	162.47
826.994	129.7
827.172	170.66
827.349	236.2
827.527	178.86
827.704	154.28
827.882	205.48
828.059	219.82
828.237	72.36
828.414	152.23
828.591	131.75
828.769	213.67
828.946	146.09
829.124	244.39
829.301	199.34
829.478	207.53
829.655	203.43
829.833	148.14
830.01	131.75
830.187	166.57
830.364	121.51
830.542	164.52
830.719	221.86
830.896	191.14
831.073	160.42
831.25	168.62
831.427	180.9
831.604	223.91
831.782	176.81
831.959	123.56
832.136	86.7
832.313	209.58
832.49	82.6
832.667	187.05
832.844	98.99
833.021	166.57
833.198	174.76
833.374	129.7
833.551	121.51
833.728	152.23
833.905	94.89
834.082	101.03
834.259	119.46
834.436	158.38
834.612	96.94
834.789	111.27
834.966	51.88
835.143	137.9
835.319	139.94
835.496	111.27
835.673	129.7
835.85	199.34
836.026	139.94
836.203	107.18
836.38	115.37
836.556	98.99
836.733	72.36
836.909	166.57
837.086	148.14
837.262	55.98
837.439	121.51
837.616	127.66
837.792	119.46
837.968	70.31
838.145	41.64
838.321	29.35
838.498	86.7
838.674	137.9
838.851	86.7
839.027	55.98
839.203	39.59
839.38	234.15
839.556	135.85
839.732	123.56
839.909	160.42
840.085	62.12
840.261	119.46
840.437	82.6
840.614	119.46
840.79	76.46
840.966	166.57
841.142	84.65
841.318	92.84
841.494	152.23
841.671	117.42
841.847	111.27
842.023	53.93
842.199	105.13
842.375	53.93
842.551	55.98
842.727	55.98
842.903	127.66
843.079	107.18
843.255	176.81
843.431	115.37
843.607	94.89
843.783	41.64
843.959	27.31
844.134	94.89
844.31	166.57
844.486	92.84
844.662	23.21
844.838	60.07
845.013	189.1
845.189	109.23
845.365	84.65
845.541	86.7
845.716	76.46
845.892	150.18
846.068	98.99
846.244	55.98
846.419	103.08
846.595	35.5
846.77	17.07
846.946	152.23
847.122	68.27
847.297	10.92
847.473	178.86
847.648	6.83
847.824	144.04
847.999	-3.41
848.175	19.11
848.35	72.36
848.526	119.46
848.701	98.99
848.876	135.85
849.052	152.23
849.227	90.79
849.403	-32.08
849.578	6.83
849.753	135.85
849.929	103.08
850.104	-7.51
850.279	64.17
850.454	92.84
850.63	72.36
850.805	51.88
850.98	21.16
851.155	-27.99
851.33	45.74
851.505	-5.46
851.681	62.12
851.856	23.21
852.031	29.35
852.206	70.31
852.381	43.69
852.556	-7.51
852.731	62.12
852.906	82.6
853.081	98.99
853.256	88.75
853.431	90.79
853.606	-95.57
853.781	-3.41
853.956	-36.18
854.131	43.69
854.305	25.26
854.48	70.31
854.655	12.97
854.83	62.12
855.005	53.93
855.18	39.59
855.354	-27.99
855.529	127.66
855.704	19.11
855.879	58.03
856.053	25.26
856.228	47.79
856.403	37.55
856.577	90.79
856.752	-52.56
856.926	47.79
857.101	70.31
857.276	-52.56
857.45	39.59
857.625	133.8
857.799	29.35
857.974	113.32
858.148	-38.23
858.323	70.31
858.497	39.59
858.672	10.92
858.846	-17.75
859.02	88.75
859.195	29.35
859.369	21.16
859.543	51.88
859.718	47.79
859.892	74.41
860.066	-1.37
860.241	-21.84
860.415	-7.51
860.589	17.07
860.763	37.55
860.938	0.68
861.112	66.22
861.286	-19.8
861.46	12.97
861.634	31.4
861.808	82.6
861.982	-60.76
862.157	6.83
862.331	35.5
862.505	21.16
862.679	8.87
862.853	-54.61
863.027	0.68
863.201	64.17
863.375	53.93
863.549	51.88
863.722	53.93
863.896	96.94
864.07	-48.47
864.244	82.6
864.418	117.42
864.592	78.51
864.766	15.02
864.939	45.74
865.113	-54.61
865.287	43.69
865.461	-11.61
865.634	76.46
865.808	78.51
865.982	35.5
866.156	2.73
866.329	19.11
866.503	19.11
866.676	68.27
866.85	-1.37
867.024	-17.75
867.197	-1.37
867.371	90.79
867.544	0.68
867.718	-3.41
867.891	125.61
868.065	-19.8
868.238	39.59
868.412	21.16
868.585	4.78
868.759	55.98
868.932	-64.85
869.105	-1.37
869.279	-34.13
869.452	-44.37
869.625	39.59
869.799	2.73
869.972	-17.75
870.145	49.83
870.319	84.65
870.492	12.97
870.665	-3.41
870.838	25.26
871.011	-56.66
871.185	-7.51
871.358	25.26
871.531	84.65
871.704	-15.7
871.877	125.61
872.05	-11.61
872.223	-50.52
872.396	60.07
872.569	58.03
872.742	-13.65
872.915	84.65
873.088	55.98
873.261	19.11
873.434	86.7
873.607	21.16
873.78	33.45
873.953	-48.47
874.126	74.41
874.299	-3.41
874.471	33.45
874.644	6.83
874.817	45.74
874.99	98.99
875.163	-15.7
875.335	-9.56
875.508	-21.84
875.681	45.74
875.853	-15.7
876.026	78.51
876.199	-19.8
876.371	60.07
876.544	31.4
876.717	82.6
876.889	53.93
877.062	-1.37
877.234	55.98
877.407	-52.56
877.579	4.78
877.752	21.16
877.924	72.36
878.097	23.21
878.269	41.64
878.442	15.02
878.614	101.03
878.786	-11.61
878.959	35.5
879.131	19.11
879.303	-66.9
879.476	-44.37
879.648	105.13
879.82	-34.13
879.993	-83.28
880.165	-23.89
880.337	-7.51
880.509	70.31
880.681	-3.41
880.854	19.11
881.026	92.84
881.198	137.9
881.37	39.59
881.542	-1.37
881.714	-62.8
881.886	-64.85
882.058	55.98
882.23	15.02
882.402	4.78
882.574	23.21
882.746	49.83
882.918	21.16
883.09	-30.04
883.262	4.78
883.434	-13.65
883.606	-7.51
883.778	-52.56
883.95	88.75
884.122	-27.99
884.293	17.07
884.465	-5.46
884.637	68.27
884.809	2.73
884.98	23.21
885.152	37.55
885.324	86.7
885.496	27.31
885.667	-23.89
885.839	25.26
886.011	58.03
886.182	72.36
886.354	-15.7
886.525	33.45
886.697	19.11
886.869	-27.99
887.04	25.26
887.212	123.56
887.383	103.08
887.555	-17.75
887.726	-60.76
887.897	-13.65
888.069	39.59
888.24	96.94
888.412	37.55
888.583	-27.99
888.754	15.02
888.926	-44.37
889.097	-1.37
889.268	-60.76
889.44	43.69
889.611	-30.04
889.782	-5.46
889.953	-19.8
890.125	72.36
890.296	25.26
890.467	25.26
890.638	-50.52
890.809	-13.65
890.98	-48.47
891.151	55.98
891.323	109.23
891.494	6.83
891.665	6.83
891.836	-48.47
892.007	-5.46
892.178	2.73
892.349	2.73
892.52	23.21
892.691	-36.18
892.862	-46.42
893.032	-120.15
893.203	15.02
893.374	49.83
893.545	12.97
893.716	23.21
893.887	33.45
894.057	17.07
894.228	4.78
894.399	-30.04
894.57	17.07
894.74	19.11
894.911	55.98
895.082	53.93
895.253	-50.52
895.423	-25.94
895.594	-11.61
895.764	-15.7
895.935	-50.52
896.106	33.45
896.276	-71
896.447	-17.75
896.617	-32.08
896.788	-34.13
896.958	-19.8
897.129	-40.28
897.299	-52.56
897.47	8.87
897.64	31.4
897.81	29.35
897.981	103.08
898.151	-73.04
898.322	17.07
898.492	51.88
898.662	-30.04
898.832	-40.28
899.003	17.07
899.173	-7.51
899.343	-48.47
899.513	-105.81
