Data from USB4F104151__45__12-12-13-205.txt Node

Date: Fri Mar 14 12:12:13 EDT 2025
User: louis
Spectrometer: USB4F10415
Trigger mode: 4
Integration Time (sec): 5.000000E-2
Scans to average: 1
Electric dark correction enabled: true
Nonlinearity correction enabled: false
Boxcar width: 0
XAxis mode: Wavelengths
Number of Pixels in Spectrum: 3648
>>>>>Begin Spectral Data<<<<<
178.204	-176.3
178.424	-176.3
178.644	-176.3
178.864	-200.87
179.084	-262.31
179.304	-12.46
179.524	8.02
179.744	3.93
179.964	106.32
180.184	-47.27
180.404	-8.36
180.624	18.26
180.844	81.75
181.064	-67.75
181.283	-20.65
181.503	-37.03
181.723	-24.75
181.943	-4.27
182.163	44.88
182.383	-14.51
182.602	1.88
182.822	73.56
183.042	69.46
183.262	-71.85
183.482	5.97
183.701	-71.85
183.921	126.8
184.141	22.36
184.361	48.98
184.58	42.84
184.8	-41.13
185.02	8.02
185.239	147.28
185.459	42.84
185.679	1.88
185.898	-45.23
186.118	20.31
186.338	-12.46
186.557	87.89
186.777	-61.61
186.997	38.74
187.216	-12.46
187.436	100.18
187.655	73.56
187.875	-2.22
188.095	-16.55
188.314	53.08
188.534	67.41
188.753	24.4
188.973	118.61
189.192	89.94
189.412	57.17
189.631	-20.65
189.851	81.75
190.07	20.31
190.29	14.17
190.509	98.13
190.729	-14.51
190.948	104.28
191.168	214.87
191.387	77.65
191.607	40.79
191.826	-16.55
192.045	34.64
192.265	28.5
192.484	16.21
192.704	67.41
192.923	24.4
193.142	139.09
193.362	-8.36
193.581	108.37
193.8	46.93
194.02	1.88
194.239	26.45
194.458	48.98
194.678	-24.75
194.897	12.12
195.116	96.08
195.335	-28.84
195.555	-12.46
195.774	-16.55
195.993	63.32
196.212	-34.99
196.432	59.22
196.651	18.26
196.87	112.47
197.089	141.14
197.308	36.69
197.528	61.27
197.747	-0.17
197.966	116.56
198.185	77.65
198.404	8.02
198.623	42.84
198.842	110.42
199.062	83.8
199.281	85.84
199.5	-4.27
199.719	53.08
199.938	24.4
200.157	67.41
200.376	100.18
200.595	79.7
200.814	36.69
201.033	-59.56
201.252	77.65
201.471	63.32
201.69	100.18
201.909	36.69
202.128	46.93
202.347	26.45
202.566	55.12
202.785	5.97
203.004	-65.71
203.223	100.18
203.442	128.85
203.661	-28.84
203.879	34.64
204.098	91.99
204.317	-37.03
204.536	59.22
204.755	94.04
204.974	51.03
205.193	77.65
205.411	214.87
205.63	-2.22
205.849	46.93
206.068	77.65
206.287	-4.27
206.505	26.45
206.724	14.17
206.943	24.4
207.162	1.88
207.381	12.12
207.599	53.08
207.818	24.4
208.037	26.45
208.255	96.08
208.474	118.61
208.693	94.04
208.911	3.93
209.13	112.47
209.349	65.36
209.567	42.84
209.786	112.47
210.005	96.08
210.223	32.6
210.442	-34.99
210.661	77.65
210.879	34.64
211.098	8.02
211.316	12.12
211.535	1.88
211.753	94.04
211.972	57.17
212.191	30.55
212.409	32.6
212.628	53.08
212.846	18.26
213.065	83.8
213.283	85.84
213.502	-2.22
213.72	53.08
213.938	-16.55
214.157	26.45
214.375	34.64
214.594	-45.23
214.812	61.27
215.031	18.26
215.249	-6.31
215.467	57.17
215.686	12.12
215.904	100.18
216.122	-4.27
216.341	116.56
216.559	-4.27
216.778	65.36
216.996	110.42
217.214	73.56
217.432	-28.84
217.651	-55.47
217.869	-43.18
218.087	12.12
218.306	30.55
218.524	55.12
218.742	-55.47
218.96	48.98
219.179	67.41
219.397	104.28
219.615	114.52
219.833	67.41
220.051	-20.65
220.27	69.46
220.488	16.21
220.706	96.08
220.924	40.79
221.142	-32.94
221.36	36.69
221.578	24.4
221.796	44.88
222.015	34.64
222.233	-4.27
222.451	128.85
222.669	-41.13
222.887	59.22
223.105	-6.31
223.323	40.79
223.541	-37.03
223.759	69.46
223.977	30.55
224.195	77.65
224.413	91.99
224.631	71.51
224.849	71.51
225.067	57.17
225.285	-18.6
225.503	16.21
225.721	12.12
225.939	10.07
226.157	89.94
226.375	139.09
226.592	61.27
226.81	63.32
227.028	12.12
227.246	108.37
227.464	14.17
227.682	32.6
227.9	55.12
228.117	98.13
228.335	53.08
228.553	-32.94
228.771	57.17
228.989	48.98
229.206	75.6
229.424	16.21
229.642	14.17
229.86	67.41
230.077	110.42
230.295	-24.75
230.513	114.52
230.731	30.55
230.948	130.9
231.166	155.47
231.384	12.12
231.601	12.12
231.819	167.76
232.037	20.31
232.254	40.79
232.472	36.69
232.689	12.12
232.907	53.08
233.125	38.74
233.342	5.97
233.56	34.64
233.777	83.8
233.995	5.97
234.213	51.03
234.43	36.69
234.648	-16.55
234.865	5.97
235.083	61.27
235.3	32.6
235.518	83.8
235.735	128.85
235.953	55.12
236.17	-2.22
236.388	24.4
236.605	51.03
236.822	75.6
237.04	83.8
237.257	34.64
237.475	-22.7
237.692	46.93
237.909	75.6
238.127	53.08
238.344	-26.79
238.562	14.17
238.779	-67.75
238.996	-18.6
239.214	-12.46
239.431	77.65
239.648	-16.55
239.865	34.64
240.083	65.36
240.3	26.45
240.517	12.12
240.735	30.55
240.952	44.88
241.169	36.69
241.386	87.89
241.603	-4.27
241.821	-26.79
242.038	112.47
242.255	89.94
242.472	-4.27
242.689	67.41
242.907	120.66
243.124	46.93
243.341	1.88
243.558	57.17
243.775	-22.7
243.992	8.02
244.209	-12.46
244.426	61.27
244.643	36.69
244.86	-41.13
245.078	91.99
245.295	61.27
245.512	12.12
245.729	-82.09
245.946	55.12
246.163	51.03
246.38	34.64
246.597	-10.41
246.814	38.74
247.031	40.79
247.248	59.22
247.464	112.47
247.681	112.47
247.898	18.26
248.115	128.85
248.332	20.31
248.549	32.6
248.766	14.17
248.983	77.65
249.2	73.56
249.417	139.09
249.633	-12.46
249.85	63.32
250.067	-30.89
250.284	108.37
250.501	55.12
250.717	71.51
250.934	-10.41
251.151	5.97
251.368	-14.51
251.585	59.22
251.801	104.28
252.018	26.45
252.235	87.89
252.451	14.17
252.668	63.32
252.885	61.27
253.102	28.5
253.318	-53.42
253.535	-39.08
253.752	8.02
253.968	59.22
254.185	75.6
254.401	75.6
254.618	-24.75
254.835	-26.79
255.051	116.56
255.268	28.5
255.484	34.64
255.701	-39.08
255.917	48.98
256.134	16.21
256.351	81.75
256.567	-100.52
256.784	48.98
257	-26.79
257.217	18.26
257.433	5.97
257.65	12.12
257.866	59.22
258.082	-2.22
258.299	-12.46
258.515	51.03
258.732	38.74
258.948	16.21
259.165	20.31
259.381	28.5
259.597	46.93
259.814	40.79
260.03	30.55
260.246	8.02
260.463	63.32
260.679	65.36
260.895	32.6
261.112	38.74
261.328	26.45
261.544	-2.22
261.761	175.95
261.977	-22.7
262.193	46.93
262.409	44.88
262.626	104.28
262.842	38.74
263.058	132.95
263.274	108.37
263.49	-43.18
263.707	42.84
263.923	100.18
264.139	-63.66
264.355	79.7
264.571	81.75
264.787	85.84
265.004	59.22
265.22	61.27
265.436	30.55
265.652	-96.43
265.868	69.46
266.084	-0.17
266.3	32.6
266.516	-0.17
266.732	8.02
266.948	85.84
267.164	59.22
267.38	137.04
267.596	36.69
267.812	147.28
268.028	-4.27
268.244	-30.89
268.46	40.79
268.676	-2.22
268.892	75.6
269.108	-37.03
269.324	12.12
269.54	-39.08
269.756	26.45
269.972	-37.03
270.188	42.84
270.403	-10.41
270.619	57.17
270.835	44.88
271.051	-16.55
271.267	-20.65
271.483	3.93
271.698	91.99
271.914	28.5
272.13	112.47
272.346	26.45
272.562	-10.41
272.777	77.65
272.993	30.55
273.209	-0.17
273.425	71.51
273.64	-16.55
273.856	55.12
274.072	61.27
274.287	46.93
274.503	24.4
274.719	85.84
274.934	46.93
275.15	-51.37
275.366	71.51
275.581	65.36
275.797	1.88
276.012	34.64
276.228	24.4
276.444	55.12
276.659	46.93
276.875	77.65
277.09	-8.36
277.306	14.17
277.521	100.18
277.737	34.64
277.952	96.08
278.168	-34.99
278.383	55.12
278.599	87.89
278.814	48.98
279.03	8.02
279.245	65.36
279.461	-43.18
279.676	63.32
279.892	-4.27
280.107	5.97
280.322	-0.17
280.538	173.91
280.753	-59.56
280.969	61.27
281.184	81.75
281.399	85.84
281.615	12.12
281.83	5.97
282.045	14.17
282.26	-10.41
282.476	38.74
282.691	42.84
282.906	36.69
283.122	79.7
283.337	14.17
283.552	-6.31
283.767	18.26
283.983	108.37
284.198	-0.17
284.413	100.18
284.628	-22.7
284.843	-39.08
285.058	106.32
285.274	-30.89
285.489	28.5
285.704	81.75
285.919	1.88
286.134	61.27
286.349	59.22
286.564	-12.46
286.779	116.56
286.995	46.93
287.21	-51.37
287.425	112.47
287.64	59.22
287.855	24.4
288.07	-24.75
288.285	153.43
288.5	53.08
288.715	122.71
288.93	42.84
289.145	16.21
289.36	30.55
289.575	57.17
289.79	65.36
290.004	81.75
290.219	122.71
290.434	-28.84
290.649	53.08
290.864	79.7
291.079	-16.55
291.294	65.36
291.509	3.93
291.724	12.12
291.938	22.36
292.153	8.02
292.368	-28.84
292.583	91.99
292.798	51.03
293.012	16.21
293.227	69.46
293.442	-47.27
293.657	77.65
293.871	112.47
294.086	-14.51
294.301	126.8
294.516	137.04
294.73	73.56
294.945	-41.13
295.16	110.42
295.374	110.42
295.589	20.31
295.804	30.55
296.018	67.41
296.233	151.38
296.447	-8.36
296.662	26.45
296.877	89.94
297.091	26.45
297.306	83.8
297.52	5.97
297.735	26.45
297.949	12.12
298.164	18.26
298.378	85.84
298.593	-53.42
298.807	71.51
299.022	65.36
299.236	137.04
299.451	-0.17
299.665	-53.42
299.88	-8.36
300.094	75.6
300.309	18.26
300.523	67.41
300.737	34.64
300.952	67.41
301.166	48.98
301.381	55.12
301.595	110.42
301.809	20.31
302.024	12.12
302.238	-12.46
302.452	81.75
302.667	81.75
302.881	120.66
303.095	77.65
303.309	40.79
303.524	30.55
303.738	-37.03
303.952	-14.51
304.166	-20.65
304.381	10.07
304.595	55.12
304.809	44.88
305.023	12.12
305.237	61.27
305.452	44.88
305.666	89.94
305.88	122.71
306.094	59.22
306.308	104.28
306.522	96.08
306.736	65.36
306.95	12.12
307.164	40.79
307.379	-39.08
307.593	118.61
307.807	106.32
308.021	83.8
308.235	75.6
308.449	-4.27
308.663	34.64
308.877	143.19
309.091	18.26
309.305	59.22
309.519	34.64
309.733	85.84
309.947	3.93
310.161	83.8
310.374	32.6
310.588	40.79
310.802	-16.55
311.016	65.36
311.23	108.37
311.444	14.17
311.658	32.6
311.872	85.84
312.085	38.74
312.299	98.13
312.513	40.79
312.727	104.28
312.941	143.19
313.154	14.17
313.368	106.32
313.582	14.17
313.796	69.46
314.009	42.84
314.223	59.22
314.437	-6.31
314.651	98.13
314.864	44.88
315.078	-16.55
315.292	-16.55
315.505	22.36
315.719	79.7
315.933	87.89
316.146	81.75
316.36	16.21
316.573	57.17
316.787	96.08
317.001	71.51
317.214	5.97
317.428	48.98
317.641	40.79
317.855	12.12
318.068	46.93
318.282	14.17
318.495	114.52
318.709	96.08
318.922	40.79
319.136	63.32
319.349	124.76
319.563	16.21
319.776	44.88
319.99	12.12
320.203	59.22
320.417	20.31
320.63	20.31
320.843	106.32
321.057	-10.41
321.27	112.47
321.483	135
321.697	83.8
321.91	-55.47
322.124	122.71
322.337	44.88
322.55	59.22
322.763	40.79
322.977	-4.27
323.19	-37.03
323.403	-0.17
323.617	96.08
323.83	116.56
324.043	22.36
324.256	10.07
324.469	3.93
324.683	137.04
324.896	34.64
325.109	100.18
325.322	38.74
325.535	141.14
325.748	94.04
325.962	42.84
326.175	38.74
326.388	77.65
326.601	94.04
326.814	75.6
327.027	83.8
327.24	112.47
327.453	20.31
327.666	116.56
327.879	77.65
328.092	67.41
328.305	89.94
328.518	36.69
328.731	3.93
328.944	30.55
329.157	-10.41
329.37	14.17
329.583	98.13
329.796	143.19
330.009	-45.23
330.222	106.32
330.435	55.12
330.648	98.13
330.861	40.79
331.073	65.36
331.286	63.32
331.499	-30.89
331.712	1.88
331.925	110.42
332.138	-34.99
332.35	26.45
332.563	38.74
332.776	118.61
332.989	-2.22
333.202	-0.17
333.414	-43.18
333.627	73.56
333.84	-16.55
334.053	57.17
334.265	8.02
334.478	26.45
334.691	10.07
334.903	42.84
335.116	32.6
335.329	-0.17
335.541	91.99
335.754	57.17
335.966	-8.36
336.179	12.12
336.392	75.6
336.604	73.56
336.817	71.51
337.029	28.5
337.242	-2.22
337.454	104.28
337.667	79.7
337.88	137.04
338.092	104.28
338.305	120.66
338.517	-12.46
338.729	24.4
338.942	116.56
339.154	67.41
339.367	-10.41
339.579	-18.6
339.792	-14.51
340.004	100.18
340.217	73.56
340.429	71.51
340.641	63.32
340.854	-14.51
341.066	12.12
341.278	132.95
341.491	89.94
341.703	53.08
341.915	-6.31
342.128	67.41
342.34	44.88
342.552	48.98
342.764	14.17
342.977	12.12
343.189	89.94
343.401	-47.27
343.613	110.42
343.826	14.17
344.038	38.74
344.25	155.47
344.462	24.4
344.674	16.21
344.886	22.36
345.099	57.17
345.311	85.84
345.523	28.5
345.735	55.12
345.947	81.75
346.159	67.41
346.371	112.47
346.583	-6.31
346.795	85.84
347.007	-0.17
347.219	83.8
347.431	16.21
347.643	79.7
347.855	-32.94
348.067	135
348.279	-34.99
348.491	34.64
348.703	40.79
348.915	32.6
349.127	51.03
349.339	55.12
349.551	12.12
349.763	77.65
349.975	51.03
350.187	108.37
350.399	130.9
350.61	46.93
350.822	141.14
351.034	63.32
351.246	34.64
351.458	77.65
351.669	106.32
351.881	83.8
352.093	42.84
352.305	204.63
352.517	44.88
352.728	91.99
352.94	40.79
353.152	40.79
353.363	34.64
353.575	55.12
353.787	116.56
353.999	53.08
354.21	75.6
354.422	-4.27
354.633	12.12
354.845	34.64
355.057	55.12
355.268	51.03
355.48	89.94
355.692	44.88
355.903	59.22
356.115	94.04
356.326	40.79
356.538	96.08
356.749	73.56
356.961	96.08
357.172	-41.13
357.384	34.64
357.595	114.52
357.807	96.08
358.018	38.74
358.23	44.88
358.441	108.37
358.653	57.17
358.864	-4.27
359.075	51.03
359.287	48.98
359.498	81.75
359.709	16.21
359.921	-8.36
360.132	100.18
360.344	67.41
360.555	-18.6
360.766	63.32
360.977	63.32
361.189	51.03
361.4	57.17
361.611	63.32
361.823	98.13
362.034	30.55
362.245	3.93
362.456	20.31
362.667	48.98
362.879	67.41
363.09	67.41
363.301	75.6
363.512	59.22
363.723	96.08
363.935	-0.17
364.146	147.28
364.357	75.6
364.568	63.32
364.779	-67.75
364.99	91.99
365.201	51.03
365.412	116.56
365.623	77.65
365.834	65.36
366.045	40.79
366.256	55.12
366.467	124.76
366.678	69.46
366.889	48.98
367.1	36.69
367.311	114.52
367.522	71.51
367.733	67.41
367.944	48.98
368.155	32.6
368.366	122.71
368.577	67.41
368.788	128.85
368.999	20.31
369.209	20.31
369.42	178
369.631	118.61
369.842	85.84
370.053	16.21
370.264	126.8
370.474	16.21
370.685	12.12
370.896	46.93
371.107	153.43
371.317	126.8
371.528	36.69
371.739	96.08
371.95	40.79
372.16	116.56
372.371	-18.6
372.582	53.08
372.792	87.89
373.003	-8.36
373.214	104.28
373.424	71.51
373.635	10.07
373.846	120.66
374.056	110.42
374.267	79.7
374.477	71.51
374.688	73.56
374.898	67.41
375.109	130.9
375.319	26.45
375.53	102.23
375.74	26.45
375.951	100.18
376.161	42.84
376.372	32.6
376.582	53.08
376.793	71.51
377.003	122.71
377.214	38.74
377.424	55.12
377.635	10.07
377.845	38.74
378.055	100.18
378.266	8.02
378.476	87.89
378.686	104.28
378.897	79.7
379.107	116.56
379.317	139.09
379.528	65.36
379.738	98.13
379.948	10.07
380.158	71.51
380.369	26.45
380.579	89.94
380.789	59.22
380.999	165.71
381.21	124.76
381.42	141.14
381.63	75.6
381.84	83.8
382.05	71.51
382.261	139.09
382.471	71.51
382.681	55.12
382.891	132.95
383.101	89.94
383.311	36.69
383.521	65.36
383.731	81.75
383.941	147.28
384.151	22.36
384.361	81.75
384.571	83.8
384.781	42.84
384.991	132.95
385.201	130.9
385.411	32.6
385.621	100.18
385.831	116.56
386.041	59.22
386.251	32.6
386.461	55.12
386.671	26.45
386.881	102.23
387.091	85.84
387.301	135
387.511	53.08
387.72	85.84
387.93	171.86
388.14	46.93
388.35	122.71
388.56	48.98
388.769	163.67
388.979	38.74
389.189	94.04
389.399	-0.17
389.609	91.99
389.818	79.7
390.028	57.17
390.238	169.81
390.447	69.46
390.657	141.14
390.867	128.85
391.076	98.13
391.286	28.5
391.496	-6.31
391.705	87.89
391.915	73.56
392.125	155.47
392.334	147.28
392.544	85.84
392.753	59.22
392.963	12.12
393.172	198.48
393.382	-12.46
393.591	143.19
393.801	8.02
394.01	102.23
394.22	128.85
394.429	120.66
394.639	102.23
394.848	67.41
395.058	192.34
395.267	102.23
395.477	106.32
395.686	40.79
395.895	149.33
396.105	249.68
396.314	124.76
396.524	112.47
396.733	102.23
396.942	130.9
397.152	198.48
397.361	112.47
397.57	85.84
397.78	180.05
397.989	110.42
398.198	259.92
398.407	59.22
398.617	165.71
398.826	169.81
399.035	190.29
399.244	194.39
399.453	132.95
399.663	190.29
399.872	190.29
400.081	53.08
400.29	257.87
400.499	69.46
400.708	110.42
400.917	96.08
401.127	182.1
401.336	130.9
401.545	235.35
401.754	157.52
401.963	196.43
402.172	130.9
402.381	196.43
402.59	108.37
402.799	83.8
403.008	200.53
403.217	157.52
403.426	237.39
403.635	67.41
403.844	149.33
404.053	245.59
404.262	128.85
404.471	229.2
404.68	175.95
404.888	274.26
405.097	116.56
405.306	223.06
405.515	167.76
405.724	276.31
405.933	214.87
406.142	284.5
406.35	284.5
406.559	264.02
406.768	296.78
406.977	323.41
407.185	239.44
407.394	296.78
407.603	233.3
407.812	266.07
408.02	372.56
408.229	376.66
408.438	388.94
408.646	337.74
408.855	327.5
409.064	407.38
409.272	423.76
409.481	517.97
409.69	468.81
409.898	352.08
410.107	456.53
410.315	526.16
410.524	481.1
410.733	540.49
410.941	454.48
411.15	538.45
411.358	565.07
411.567	567.12
411.775	565.07
411.984	560.97
412.192	671.56
412.401	583.5
412.609	745.29
412.818	712.52
413.026	735.05
413.234	714.57
413.443	716.62
413.651	808.78
413.86	810.82
414.068	907.08
414.276	890.7
414.485	870.22
414.693	984.9
414.901	1087.3
415.11	1111.88
415.318	1005.38
415.526	1036.1
415.734	1115.97
415.943	1146.69
416.151	1271.62
416.359	1216.32
416.567	1224.51
416.776	1251.14
416.984	1365.82
417.192	1431.36
417.4	1316.67
417.608	1357.63
417.817	1574.72
418.025	1627.96
418.233	1728.31
418.441	1576.77
418.649	1736.51
418.857	1857.34
419.065	1857.34
419.273	1877.82
419.481	1957.69
419.689	2107.19
419.897	2154.29
420.105	2193.2
420.313	2328.37
420.521	2404.14
420.729	2330.42
420.937	2561.84
421.145	2629.42
421.353	2762.54
421.561	2828.07
421.769	2807.59
421.977	2924.33
422.185	3028.78
422.393	3182.37
422.601	3378.98
422.809	3403.55
423.017	3245.86
423.224	3528.48
423.432	3733.28
423.64	3737.37
423.848	3966.74
424.056	3901.21
424.263	4069.14
424.471	4128.53
424.679	4267.8
424.887	4534.03
425.094	4593.42
425.302	4550.42
425.51	4755.21
425.718	5064.46
425.925	5111.56
426.133	5242.63
426.341	5588.74
426.548	5791.48
426.756	5793.53
426.964	5699.33
427.171	6184.69
427.379	6344.44
427.586	6301.43
427.794	6676.21
428.001	6842.09
428.209	7036.65
428.417	7018.22
428.624	7687.9
428.832	7804.64
429.039	7583.46
429.247	7413.48
429.454	8316.63
429.662	8816.33
429.869	8064.73
430.076	8955.6
430.284	8476.37
430.491	9004.75
430.699	9332.42
430.906	9453.25
431.114	9729.73
431.321	10008.25
431.528	10069.69
431.736	10813.1
431.943	11237.03
432.15	10985.13
432.358	11001.52
432.565	11601.57
432.772	11544.23
432.979	12377.75
433.187	12551.83
433.394	12439.19
433.601	13176.46
433.808	13493.9
434.016	13432.46
434.223	13618.82
434.43	14440.06
434.637	14247.55
434.844	15070.83
435.052	15496.81
435.259	15173.23
435.466	15367.79
435.673	15341.16
435.88	16227.93
436.087	17086.03
436.294	17258.06
436.501	16746.07
436.708	17036.88
436.915	17686.09
437.122	18277.95
437.329	18417.21
437.537	18869.81
437.743	19248.69
437.95	18996.79
438.157	20110.88
438.364	20665.88
438.571	20479.52
438.778	20708.89
438.985	22920.7
439.192	21884.42
439.399	22420.99
439.606	22005.25
439.813	22937.08
440.02	24421.86
440.227	24225.25
440.433	23932.39
440.64	24753.63
440.847	24212.96
441.054	25079.25
441.261	26658.24
441.467	26451.39
441.674	26953.15
441.881	27684.27
442.088	27565.49
442.294	27737.52
442.501	28425.64
442.708	28806.56
442.914	29939.08
443.121	31237.5
443.328	30078.35
443.534	32703.84
443.741	31108.47
443.948	31354.23
444.154	32978.27
444.361	32814.43
444.568	33293.66
444.774	33156.44
444.981	33629.52
445.187	34579.78
445.394	35747.12
445.6	35679.54
445.807	38901
446.013	37014.82
446.22	37512.47
446.426	39134.46
446.633	39304.45
446.839	40600.81
447.046	39167.23
447.252	41286.88
447.459	41080.03
447.665	40955.11
447.871	42642.63
448.078	44575.92
448.284	42626.25
448.491	43498.69
448.697	45712.54
448.903	45821.08
449.11	46257.3
449.316	45857.95
449.522	46191.76
449.728	47269
449.935	47504.51
450.141	47473.79
450.347	48577.65
450.553	47398.02
450.76	47737.98
450.966	49243.24
451.172	48485.49
451.378	49722.46
451.584	48948.33
451.791	50435.16
451.997	49695.84
452.203	50439.25
452.409	50334.81
452.615	50168.92
452.821	48196.73
453.027	48141.43
453.233	50365.52
453.44	48381.04
453.646	48692.33
453.852	49409.12
454.058	49615.97
454.264	48221.3
454.47	49321.06
454.676	48151.67
454.882	49880.16
455.088	45126.82
455.294	46099.61
455.5	46392.47
455.705	47170.69
455.911	45362.34
456.117	43904.18
456.323	43695.29
456.529	41426.14
456.735	43248.83
456.941	41983.19
457.147	41471.2
457.352	40228.08
457.558	39920.88
457.764	39886.07
457.97	39116.03
458.176	37946.64
458.381	38092.05
458.587	35843.38
458.793	36011.31
458.999	34233.67
459.204	36822.31
459.41	35894.58
459.616	33095
459.821	33473.88
460.027	33019.23
460.233	32535.91
460.438	30991.74
460.644	31350.13
460.85	29425.04
461.055	28917.15
461.261	29068.7
461.466	27104.7
461.672	25920.97
461.878	28052.91
462.083	26262.98
462.289	25486.8
462.494	25204.18
462.7	24251.88
462.905	23522.8
463.111	24382.95
463.316	24468.96
463.522	24122.85
463.727	23891.43
463.932	23928.3
464.138	23436.78
464.343	23920.1
464.549	23100.92
464.754	23617
464.959	23324.15
465.165	23365.1
465.37	21921.29
465.575	21503.5
465.781	22482.43
465.986	22523.39
466.191	21503.5
466.397	21354
466.602	20252.19
466.807	21161.49
467.012	21265.94
467.218	20680.22
467.423	20401.69
467.628	20852.25
467.833	21595.66
468.038	20575.77
468.244	19899.94
468.449	20995.6
468.654	20190.75
468.859	19848.74
469.064	19779.11
469.269	19140.15
469.474	19248.69
469.679	19768.87
469.885	19136.05
470.09	19652.14
470.295	19406.38
470.5	18746.94
470.705	18886.2
470.91	18286.14
471.115	18058.82
471.32	18744.89
471.525	18251.33
471.73	17942.08
471.935	17391.18
472.139	17186.38
472.344	17260.11
472.549	17415.76
472.754	16981.59
472.959	16617.05
473.164	16442.97
473.369	16086.62
473.574	16473.69
473.778	16541.27
473.983	16248.41
474.188	16379.48
474.393	15476.33
474.598	15765.09
474.802	15326.83
475.007	15300.2
475.212	15269.48
475.417	14646.9
475.621	14681.72
475.826	14712.44
476.031	14542.46
476.235	14081.66
476.44	14321.27
476.645	14050.94
476.849	14165.63
477.054	13672.07
477.259	13592.2
477.463	13690.5
477.668	13436.55
477.872	13663.88
478.077	13414.02
478.282	12779.15
478.486	12906.13
478.691	12754.58
478.895	12617.36
479.1	12836.5
479.304	12674.71
479.509	12385.94
479.713	12730
479.918	12160.67
480.122	12258.97
480.326	12461.72
480.531	12177.05
480.735	12043.93
480.94	11781.79
481.144	12222.11
481.348	11847.33
481.553	11841.18
481.757	11564.71
481.961	12013.21
482.166	12172.96
482.37	11878.05
482.574	11452.07
482.778	11622.05
482.983	11886.24
483.187	11703.97
483.391	11683.49
483.595	11566.76
483.8	11392.68
484.004	11552.42
484.208	11706.02
484.412	11505.32
484.616	11671.2
484.821	11605.67
485.025	11364.01
485.229	11515.56
485.433	11607.72
485.637	11421.35
485.841	11421.35
486.045	11546.28
486.249	11443.88
486.453	11572.9
486.657	11312.81
486.861	11503.27
487.065	11230.89
487.269	11597.48
487.473	11417.26
487.677	11609.76
487.881	11562.66
488.085	11423.4
488.289	11472.55
488.493	11388.58
488.697	11435.69
488.901	11499.17
489.105	11570.85
489.309	11474.6
489.512	11452.07
489.716	11529.89
489.92	11509.41
490.124	11458.21
490.328	11693.73
490.531	11548.33
490.735	11867.81
490.939	11615.91
491.143	11572.9
491.346	11656.87
491.55	11779.75
491.754	11568.8
491.958	11792.03
492.161	11994.78
492.365	12093.08
492.569	11982.49
492.772	12033.69
492.976	12132
493.18	12201.63
493.383	12381.85
493.587	12385.94
493.79	12467.86
493.994	12205.72
494.197	12220.06
494.401	12529.3
494.605	12713.62
494.808	12861.07
495.012	12689.04
495.215	12787.35
495.419	13090.45
495.622	12738.19
495.825	13053.58
496.029	13033.1
496.232	13442.7
496.436	13377.16
496.639	13713.03
496.843	13538.95
497.046	13633.16
497.249	14050.94
497.453	14173.82
497.656	14222.97
497.859	14153.34
498.063	14093.95
498.266	14665.33
498.469	14351.99
498.673	14593.65
498.876	15011.44
499.079	14820.98
499.282	15089.26
499.485	15605.35
499.689	15093.36
499.892	15703.65
500.095	15812.2
500.298	16084.58
500.501	15715.94
500.705	16268.89
500.908	16483.93
501.111	16653.91
501.314	16879.19
501.517	16840.28
501.72	16811.6
501.923	16975.44
502.126	17575.5
502.329	17751.62
502.532	17931.84
502.735	17716.81
502.938	18142.78
503.141	18380.35
503.344	18648.63
503.547	18470.46
503.75	18679.35
503.953	18966.07
504.156	19361.33
504.359	19609.13
504.562	19486.25
504.765	19863.08
504.968	19904.04
505.17	20074.02
505.373	20153.89
505.576	20590.11
505.779	20737.56
505.982	20751.9
506.185	21417.49
506.387	21493.26
506.59	21571.08
506.793	22042.12
506.996	21696.01
507.198	22246.91
507.401	22420.99
507.604	22687.23
507.807	22935.03
508.009	22920.7
508.212	23059.96
508.415	23528.94
508.617	24204.77
508.82	23719.4
509.022	23993.83
509.225	24454.62
509.428	24415.71
509.63	24821.21
509.833	24511.97
510.035	25230.8
510.238	25421.27
510.44	25464.27
510.643	25912.78
510.845	25992.65
511.048	25699.79
511.25	26199.49
511.453	26314.18
511.655	27674.03
511.858	26983.87
512.06	27479.47
512.262	27540.91
512.465	27442.61
512.667	27852.2
512.87	28218.79
513.072	28020.14
513.274	28736.93
513.477	28642.72
513.679	29293.97
513.881	29656.46
514.084	29746.58
514.286	29887.89
514.488	29859.21
514.69	30752.13
514.893	30840.19
515.095	30436.74
515.297	30913.92
515.499	30930.3
515.701	31268.22
515.904	31608.18
516.106	31890.8
516.308	32103.79
516.51	32497
516.712	32671.07
516.914	32714.08
517.116	33142.11
517.318	33082.72
517.52	33398.1
517.722	33217.88
517.925	33654.1
518.127	34104.65
518.329	34309.45
518.531	33852.75
518.733	34899.26
518.935	35153.21
519.136	34901.31
519.338	35298.62
519.54	35718.45
519.742	35898.67
519.944	35833.14
520.146	36089.13
520.348	36615.46
520.55	36531.5
520.752	36318.51
520.954	37336.35
521.155	36881.7
521.357	37221.66
521.559	37793.04
521.761	38038.8
521.963	38040.85
522.164	38311.18
522.366	38223.12
522.568	38458.63
522.77	38731.01
522.971	38870.28
523.173	38812.93
523.375	38878.47
523.576	39369.98
523.778	39202.05
523.98	39703.8
524.181	39742.71
524.383	39652.6
524.584	39951.6
524.786	39873.78
524.988	40166.64
525.189	40733.93
525.391	40586.47
525.592	40758.5
525.794	40899.81
525.995	40899.81
526.197	40942.82
526.398	41039.08
526.6	41209.06
526.801	41489.63
527.003	41256.16
527.204	41407.71
527.406	41749.72
527.607	41325.79
527.808	42312.91
528.01	41116.9
528.211	41405.66
528.412	42466.51
528.614	42030.29
528.815	41780.44
529.016	42165.46
529.218	41790.68
529.419	41876.69
529.62	42341.58
529.822	42163.41
530.023	42202.32
530.224	42013.91
530.425	42282.19
530.626	41897.17
530.828	42030.29
531.029	42777.8
531.23	41581.79
531.431	42501.32
531.632	42226.9
531.833	42269.9
532.035	42190.03
532.236	42454.22
532.437	42568.91
532.638	42386.64
532.839	42724.55
533.04	42597.58
533.241	41929.94
533.442	42626.25
533.643	42474.7
533.844	42476.75
534.045	42147.03
534.246	41868.5
534.447	42376.4
534.648	41901.27
534.849	42343.63
535.05	41915.61
535.251	42155.22
535.451	42116.31
535.652	42732.75
535.853	42155.22
536.054	42683.59
536.255	42015.96
536.456	42007.76
536.657	42962.12
536.857	42206.42
537.058	41921.75
537.259	42028.24
537.46	42048.72
537.66	42003.67
537.861	42032.34
538.062	42042.58
538.263	42163.41
538.463	41813.21
538.664	41821.4
538.865	41815.26
539.065	42040.53
539.266	41450.72
539.466	42011.86
539.667	41663.71
539.868	42007.76
540.068	42061.01
540.269	41757.91
540.469	42077.4
540.67	41372.89
540.87	41745.62
541.071	41458.91
541.271	41583.83
541.472	41555.16
541.672	41659.61
541.873	41528.54
542.073	41120.99
542.274	41788.63
542.474	42134.74
542.675	41321.69
542.875	41442.52
543.075	41282.78
543.276	40858.85
543.476	41481.44
543.676	41184.48
543.877	41762.01
544.077	41569.5
544.277	41352.41
544.478	41299.17
544.678	41284.83
544.878	41161.95
545.078	41381.09
545.279	41084.13
545.479	41278.69
545.679	41266.4
545.879	41004.26
546.079	41184.48
546.28	40948.96
546.48	40408.3
546.68	41366.75
546.88	41319.65
547.08	40889.57
547.28	41075.94
547.48	40768.74
547.68	40592.62
547.88	40932.58
548.081	41487.58
548.281	40701.16
548.481	41229.54
548.681	40871.14
548.881	40895.72
549.081	40973.54
549.28	40602.86
549.48	40905.96
549.68	40957.16
549.88	41037.03
550.08	39904.5
550.28	40662.25
550.48	40531.18
550.68	41155.81
550.88	40348.91
551.08	40652.01
551.279	40666.34
551.479	40385.77
551.679	40568.04
551.879	40072.43
552.079	40926.44
552.278	40363.25
552.478	40545.51
552.678	40451.31
552.878	40576.23
553.077	40264.94
553.277	39884.02
553.477	40510.7
553.676	40559.85
553.876	40537.32
554.076	40289.52
554.275	40094.96
554.475	39935.22
554.674	40262.89
554.874	40180.98
555.074	40037.62
555.273	40326.38
555.473	40146.16
555.672	39861.49
555.872	40367.34
556.071	40017.14
556.271	40285.42
556.47	39755
556.67	39587.07
556.869	39957.75
557.068	40107.25
557.268	39517.43
557.467	39755
557.667	40033.52
557.866	39660.79
558.065	39890.16
558.265	39773.43
558.464	39458.04
558.663	39707.9
558.863	39509.24
559.062	39945.46
559.261	39175.42
559.461	40103.15
559.66	39464.19
559.859	39638.26
560.058	39554.3
560.258	39107.84
560.457	39390.46
560.656	39443.71
560.855	39324.93
561.054	39779.57
561.253	39666.94
561.453	39269.63
561.652	39400.7
561.851	39456
562.05	39226.62
562.249	38956.29
562.448	39423.23
562.647	38935.81
562.846	38853.89
563.045	39378.17
563.244	38864.13
563.443	39419.13
563.642	38839.56
563.841	39138.56
564.04	38819.08
564.239	39208.19
564.438	38765.83
564.637	38855.94
564.836	38827.27
565.035	38714.63
565.234	38585.61
565.432	38769.93
565.631	38321.42
565.83	38989.06
566.029	38714.63
566.228	38704.39
566.427	38692.1
566.625	37938.45
566.824	38163.73
567.023	38526.22
567.222	38110.48
567.42	38726.92
567.619	38491.4
567.818	38243.6
568.016	38182.16
568.215	38317.32
568.414	37971.22
568.612	38661.38
568.811	38046.99
569.01	38229.26
569.208	37782.8
569.407	38393.1
569.605	38030.61
569.804	38126.86
570.002	38055.18
570.201	37854.48
570.4	37780.76
570.598	37676.31
570.797	37829.91
570.995	37834
571.193	37215.52
571.392	37557.53
571.59	37383.45
571.789	37420.31
571.987	37604.63
572.186	37565.72
572.384	37145.89
572.582	37616.92
572.781	37334.3
572.979	36594.98
573.177	37213.47
573.376	37451.03
573.574	37135.65
573.772	37371.16
573.971	37160.22
574.169	36775.2
574.367	36724
574.565	36975.91
574.763	36664.61
574.962	36908.32
575.16	36461.86
575.358	36560.17
575.556	36255.02
575.754	37199.13
575.952	36242.73
576.151	37037.34
576.349	36341.03
576.547	36357.42
576.745	36455.72
576.943	36709.67
577.141	36353.32
577.339	36586.79
577.537	36529.45
577.735	36310.32
577.933	35786.04
578.131	36123.95
578.329	36050.22
578.527	35624.25
578.725	35798.32
578.923	35687.73
579.121	35826.99
579.319	35673.4
579.516	35941.68
579.714	35876.15
579.912	35697.97
580.11	35489.08
580.308	35829.04
580.506	35493.18
580.704	35239.23
580.901	35568.95
581.099	35484.98
581.297	35204.41
581.495	35104.06
581.692	35548.47
581.89	35032.38
582.088	35411.26
582.285	34592.07
582.483	35296.57
582.681	34878.79
582.878	34929.98
583.076	34557.25
583.274	34872.64
583.471	34385.22
583.669	34704.71
583.866	34839.87
584.064	34970.94
584.262	33709.39
584.459	34884.93
584.657	34164.04
584.854	34712.9
585.052	33957.2
585.249	34338.12
585.447	34323.79
585.644	34069.84
585.841	33998.16
586.039	34434.38
586.236	33693.01
586.434	33946.96
586.631	33623.38
586.828	33613.14
587.026	34061.65
587.223	33785.17
587.42	33684.82
587.618	33836.37
587.815	33322.33
588.012	33357.14
588.21	33469.78
588.407	33789.27
588.604	33142.11
588.801	33019.23
588.999	33353.05
589.196	33152.35
589.393	32974.17
589.59	33367.38
589.787	33043.81
589.984	32863.58
590.182	32816.48
590.379	33287.51
590.576	32634.21
590.773	33008.99
590.97	32802.14
591.167	32568.68
591.364	32298.34
591.561	32879.97
591.758	32183.66
591.955	32075.12
592.152	32572.77
592.349	32419.17
592.546	32126.32
592.743	32392.55
592.94	32097.64
593.137	32284.01
593.334	32558.44
593.531	32077.16
593.727	32277.86
593.924	32249.19
594.121	31954.29
594.318	32030.06
594.515	31774.06
594.712	32138.6
594.908	31997.29
595.105	31931.76
595.302	31546.74
595.499	31683.95
595.696	31522.16
595.892	31536.5
596.089	31544.69
596.286	31432.05
596.482	31393.14
596.679	31546.74
596.876	31796.59
597.072	31319.42
597.269	31409.53
597.466	31133.05
597.662	31077.76
597.859	31251.83
598.055	31413.62
598.252	31169.91
598.448	31055.23
598.645	30965.12
598.841	30674.31
599.038	31120.76
599.234	30639.49
599.431	30580.1
599.627	30639.49
599.824	30858.62
600.02	30541.19
600.217	30815.62
600.413	30637.44
600.609	30414.21
600.806	30582.15
601.002	30729.6
601.198	30367.11
601.395	30729.6
601.591	30604.67
601.787	30629.25
601.984	30147.98
602.18	31038.84
602.376	30496.13
602.572	30512.52
602.769	30311.81
602.965	30111.11
603.161	30608.77
603.357	30180.74
603.553	30197.13
603.75	30279.05
603.946	30381.45
604.142	30453.12
604.338	30176.65
604.534	30225.8
604.73	29947.28
604.926	30096.78
605.122	30340.49
605.318	29769.1
605.514	29896.08
605.71	30068.11
605.906	30262.66
606.102	30207.37
606.298	30221.7
606.494	30096.78
606.69	30016.91
606.886	30256.52
607.082	29748.62
607.278	30012.81
607.474	30047.63
607.67	30125.45
607.866	29851.02
608.062	30414.21
608.257	30023.05
608.453	30270.86
608.649	30285.19
608.845	30113.16
609.041	30023.05
609.236	30199.18
609.432	30289.29
609.628	30317.96
609.824	29959.56
610.019	29996.43
610.215	30113.16
610.411	30326.15
610.606	30176.65
610.802	30473.6
610.998	30301.57
611.193	30381.45
611.389	29887.89
611.584	30313.86
611.78	30250.38
611.976	30281.1
612.171	30195.08
612.367	30823.81
612.562	30446.98
612.758	30369.16
612.953	30047.63
613.149	30418.31
613.344	30371.21
613.539	30614.91
613.735	30702.98
613.93	30866.81
614.126	30440.84
614.321	31010.17
614.517	30885.25
614.712	30735.74
614.907	30707.07
615.103	30782.85
615.298	30571.91
615.493	31098.23
615.688	30678.4
615.884	31405.43
616.079	30397.83
616.274	30922.11
616.47	30872.96
616.665	30805.38
616.86	30641.54
617.055	30877.05
617.25	30641.54
617.445	30932.35
617.641	30410.12
617.836	31151.48
618.031	30639.49
618.226	31296.89
618.421	30907.77
618.616	31272.31
618.811	30809.47
619.006	31317.37
619.201	30588.29
619.396	30913.92
619.591	30778.75
619.786	31137.15
619.981	30397.83
620.176	30821.76
620.371	30264.71
620.566	30862.72
620.761	30631.3
620.956	30770.56
621.151	30125.45
621.346	30410.12
621.541	30123.4
621.735	30455.17
621.93	29527.44
622.125	29930.89
622.32	29734.29
622.515	29722
622.709	29869.45
622.904	29801.87
623.099	29873.55
623.294	29509.01
623.488	29218.2
623.683	29590.93
623.878	29212.06
624.072	29552.02
624.267	29289.88
624.462	29566.35
624.656	29068.7
624.851	29345.17
625.046	29072.79
625.24	28990.87
625.435	28468.64
625.629	28505.51
625.824	28554.66
626.018	28585.38
626.213	28210.6
626.407	28517.79
626.602	28020.14
626.796	28577.19
626.991	28091.82
627.185	28026.28
627.38	27719.09
627.574	27760.05
627.768	27641.26
627.963	27368.88
628.157	27600.3
628.352	27876.78
628.546	27680.17
628.74	27522.48
628.935	26967.48
629.129	27205.05
629.323	26860.99
629.517	26903.99
629.712	26918.33
629.906	26678.72
630.1	26523.07
630.294	26748.35
630.489	26291.65
630.683	26557.89
630.877	25927.11
631.071	26197.45
631.265	26383.81
631.459	26017.22
631.653	25943.5
631.848	25775.56
632.042	25480.66
632.236	25890.25
632.43	25654.73
632.624	25734.6
632.818	25171.41
633.012	25030.1
633.206	24909.27
633.4	25374.16
633.594	25015.77
633.788	24978.9
633.982	25181.65
634.176	24776.16
634.369	24853.98
634.563	24536.54
634.757	24085.99
634.951	24899.03
635.145	24399.33
635.339	24483.3
635.533	24411.62
635.726	24196.58
635.92	24069.61
636.114	23932.39
636.308	23846.38
636.501	23899.62
636.695	23442.93
636.889	23866.86
637.083	23399.92
637.276	23264.75
637.47	23277.04
637.664	23234.03
637.857	23156.21
638.051	23092.72
638.244	23053.81
638.438	22674.94
638.632	22412.8
638.825	22631.93
639.019	22400.51
639.212	22449.66
639.406	22410.75
639.599	22568.44
639.793	22369.79
639.986	22255.11
640.18	21954.05
640.373	21935.62
640.567	21597.71
640.76	21728.78
640.954	21614.09
641.147	21466.64
641.34	21261.84
641.534	21532.17
641.727	21276.18
641.92	21222.93
642.114	20950.55
642.307	20846.1
642.5	20731.42
642.694	20678.17
642.887	20559.39
643.08	20688.41
643.273	20407.84
643.467	20409.89
643.66	20213.28
643.853	20129.31
644.046	20223.52
644.239	20440.61
644.432	20092.45
644.626	19607.08
644.819	19506.73
645.012	19727.91
645.205	19375.66
645.398	19441.2
645.591	19193.39
645.784	19385.9
645.977	18892.34
646.17	19000.88
646.363	18658.87
646.556	18652.73
646.749	18878.01
646.942	18581.05
647.135	18359.87
647.328	18748.98
647.521	18210.37
647.714	17921.6
647.907	18159.17
648.099	18110.02
648.292	18030.15
648.485	17948.23
648.678	17567.31
648.871	17581.64
649.064	17360.46
649.256	17706.57
649.449	17249.87
649.642	17311.31
649.835	17339.98
650.027	17092.18
650.22	16868.95
650.413	16836.18
650.605	16782.93
650.798	16737.88
650.991	16397.92
651.183	16694.87
651.376	16074.34
651.568	16459.35
651.761	16361.05
651.954	16064.1
652.146	16193.12
652.339	15984.23
652.531	15724.13
652.724	15746.66
652.916	15613.54
653.109	15746.66
653.301	15580.78
653.494	15478.38
653.686	15173.23
653.879	15101.55
654.071	15255.15
654.263	14896.75
654.456	14939.76
654.648	15025.78
654.84	14591.61
655.033	14610.04
655.225	14567.03
655.417	14272.12
655.61	14714.48
655.802	14562.94
655.994	14380.67
656.186	14399.1
656.379	13895.3
656.571	14093.95
656.763	13813.38
656.955	13981.31
657.148	13807.23
657.34	13811.33
657.532	13438.6
657.724	13416.07
657.916	13342.35
658.108	13373.07
658.3	13233.8
658.492	13239.95
658.684	13059.73
658.876	12965.52
659.068	12711.57
659.26	12674.71
659.452	12676.76
659.644	12631.7
659.836	12533.4
660.028	12543.64
660.22	12387.99
660.412	11945.63
660.604	12033.69
660.796	12156.57
660.988	11982.49
661.18	12023.45
661.372	11828.9
661.563	11665.06
661.755	11663.01
661.947	11521.7
662.139	11388.58
662.331	11347.62
662.522	11189.93
662.714	11230.89
662.906	11075.24
663.097	11138.73
663.289	11048.62
663.481	10768.05
663.673	11013.81
663.864	10661.55
664.056	10442.42
664.247	10761.91
664.439	10598.07
664.631	10573.49
664.822	10436.28
665.014	10290.87
665.205	10215.1
665.397	10200.76
665.588	10192.57
665.78	10088.12
665.971	9873.09
666.163	9944.77
666.354	9813.7
666.546	9862.85
666.737	9647.81
666.929	9776.83
667.12	9584.32
667.311	9545.41
667.503	9498.31
667.694	9625.28
667.885	9270.98
668.077	9580.23
668.268	9256.65
668.459	9334.47
668.651	9092.81
668.842	8996.56
669.033	8955.6
669.224	8928.97
669.416	9107.15
669.607	8820.43
669.798	8787.66
669.989	9053.9
670.18	8591.06
670.371	8832.72
670.563	8566.48
670.754	8740.56
670.945	8568.53
671.136	8670.93
671.327	8582.87
671.518	8396.5
671.709	8482.52
671.9	8562.39
672.091	8222.42
672.282	8361.69
672.473	8218.33
672.664	8085.21
672.855	8062.68
673.046	8287.96
673.237	8095.45
673.428	8077.02
673.619	7954.14
673.809	8029.91
674	8011.48
674.191	7882.46
674.382	7786.21
674.573	7800.54
674.764	7808.73
674.954	7857.89
675.145	7663.33
675.336	7726.82
675.527	7530.21
675.717	7685.86
675.908	7403.24
676.099	7638.75
676.289	7681.76
676.48	7425.76
676.671	7425.76
676.861	7505.63
677.052	7388.9
677.243	7292.65
677.433	7397.09
677.624	7413.48
677.814	7194.34
678.005	7083.75
678.195	7317.22
678.386	7163.62
678.576	7282.41
678.767	7143.14
678.957	7216.87
679.148	7096.04
679.338	7116.52
679.529	7161.58
679.719	6878.96
679.909	7007.98
680.1	7093.99
680.29	7116.52
680.481	6926.06
680.671	7034.6
680.861	7024.36
681.052	6958.83
681.242	6825.71
681.432	6924.01
681.622	6887.15
681.813	6850.28
682.003	6719.21
682.193	6663.92
682.383	6794.99
682.573	6754.03
682.764	6797.04
682.954	6885.1
683.144	6786.8
683.334	6799.09
683.524	6782.7
683.714	6768.37
683.904	6627.06
684.094	6665.97
684.284	6633.2
684.474	6833.9
684.664	6643.44
684.854	6639.34
685.044	6659.82
685.234	6633.2
685.424	6684.4
685.614	6530.8
685.804	6600.43
685.994	6653.68
686.184	6612.72
686.374	6522.61
686.564	6342.39
686.753	6428.4
686.943	6409.97
687.133	6412.02
687.323	6393.59
687.513	6350.58
687.702	6495.99
687.892	6428.4
688.082	6432.5
688.272	6237.94
688.461	6321.91
688.651	6334.2
688.841	6295.29
689.03	6295.29
689.22	6297.33
689.41	6278.9
689.599	6211.32
689.789	6305.53
689.979	6133.5
690.168	6235.89
690.358	6221.56
690.547	6127.35
690.737	6098.68
690.926	6278.9
691.116	6029.05
691.305	6217.46
691.495	6092.54
691.684	5926.65
691.874	6141.69
692.063	6115.06
692.252	6211.32
692.442	6049.53
692.631	5998.33
692.82	6098.68
693.01	6057.72
693.199	6061.82
693.388	5996.28
693.578	6004.47
693.767	5979.9
693.956	6110.97
694.146	5951.23
694.335	5887.74
694.524	5895.93
694.713	5949.18
694.902	5848.83
695.092	6041.34
695.281	5865.21
695.47	6031.1
695.659	6031.1
695.848	5793.53
696.037	5818.11
696.226	6024.95
696.415	5789.44
696.604	5889.79
696.793	5850.88
696.982	6010.62
697.171	5834.49
697.36	5959.42
697.549	5596.93
697.738	5828.35
697.927	5689.09
698.116	5996.28
698.305	5828.35
698.494	5926.65
698.683	5910.27
698.872	5951.23
699.061	5887.74
699.25	5707.52
699.438	5828.35
699.627	5750.53
699.816	6000.38
700.005	5689.09
700.193	5709.57
700.382	5715.71
700.571	5732.09
700.76	5687.04
700.948	5697.28
701.137	5809.92
701.326	5738.24
701.514	5594.88
701.703	5680.89
701.892	5572.35
702.08	5713.66
702.269	5809.92
702.457	5582.59
702.646	5738.24
702.834	5527.3
703.023	5588.74
703.212	5601.02
703.4	5605.12
703.589	5512.96
703.777	5523.2
703.965	5590.78
704.154	5525.25
704.342	5676.8
704.531	5601.02
704.719	5277.44
704.907	5527.3
705.096	5390.08
705.284	5480.19
705.472	5447.43
705.661	5250.82
705.849	5478.15
706.037	5385.99
706.226	5394.18
706.414	5324.55
706.602	5353.22
706.79	5463.81
706.979	5211.91
707.167	5310.21
707.355	5453.57
707.543	5367.56
707.731	5324.55
707.919	5293.83
708.107	5230.34
708.296	5277.44
708.484	5144.33
708.672	5363.46
708.86	5295.88
709.048	5191.43
709.236	5152.52
709.424	5230.34
709.612	5267.2
709.8	5140.23
709.988	5101.32
710.176	5138.18
710.364	5267.2
710.551	5302.02
710.739	5013.26
710.927	4947.72
711.115	4982.54
711.303	5119.75
711.491	5072.65
711.679	4837.13
711.866	5021.45
712.054	5011.21
712.242	5093.13
712.43	5021.45
712.617	5113.61
712.805	4957.96
712.993	4900.62
713.181	4699.92
713.368	4837.13
713.556	4976.39
713.744	4849.42
713.931	4923.15
714.119	4798.22
714.306	4974.35
714.494	4902.67
714.682	4722.45
714.869	4747.02
715.057	4792.08
715.244	4677.39
715.432	4835.08
715.619	4747.02
715.807	4781.84
715.994	4654.86
716.182	4847.37
716.369	4753.16
716.556	4747.02
716.744	4736.78
716.931	4650.77
717.119	4765.45
717.306	4646.67
717.493	4601.62
717.681	4560.66
717.868	4493.07
718.055	4613.9
718.242	4577.04
718.43	4538.13
718.617	4476.69
718.804	4658.96
718.991	4458.26
719.179	4587.28
719.366	4421.39
719.553	4599.57
719.74	4499.22
719.927	4462.35
720.114	4376.34
720.301	4353.81
720.488	4331.28
720.676	4488.98
720.863	4364.05
721.05	4503.31
721.237	4386.58
721.424	4357.91
721.611	4407.06
721.798	4189.97
721.985	4237.08
722.172	4259.6
722.358	4278.04
722.545	4294.42
722.732	4253.46
722.919	4222.74
723.106	4189.97
723.293	4144.92
723.48	4280.08
723.667	4179.73
723.853	4112.15
724.04	4120.34
724.227	4185.88
724.414	4058.9
724.6	4054.81
724.787	4220.69
724.974	4058.9
725.161	4071.19
725.347	4093.72
725.534	4087.57
725.72	4065.05
725.907	4075.29
726.094	4112.15
726.28	3999.51
726.467	3929.88
726.653	3817.24
726.84	4005.66
727.027	4067.1
727.213	3921.69
727.4	3931.93
727.586	3821.34
727.773	3868.44
727.959	3952.41
728.145	3987.22
728.332	3807
728.518	3854.11
728.705	3925.79
728.891	3686.17
729.077	3948.31
729.264	3813.15
729.45	3776.28
729.636	3811.1
729.823	3864.35
730.009	3768.09
730.195	3864.35
730.382	3716.89
730.568	3694.36
730.754	3757.85
730.94	3731.23
731.126	3704.6
731.313	3776.28
731.499	3786.52
731.685	3714.84
731.871	3723.04
732.057	3696.41
732.243	3645.21
732.429	3551.01
732.615	3643.17
732.801	3589.92
732.987	3424.03
733.173	3491.62
733.359	3630.88
733.545	3673.89
733.731	3585.82
733.917	3518.24
734.103	3479.33
734.289	3583.77
734.475	3393.31
734.661	3581.73
734.847	3503.9
735.033	3376.93
735.219	3462.94
735.404	3503.9
735.59	3583.77
735.776	3313.44
735.962	3436.32
736.148	3360.55
736.333	3464.99
736.519	3268.39
736.705	3460.9
736.89	3206.95
737.076	3317.54
737.262	3204.9
737.447	3221.28
737.633	3321.63
737.819	3213.09
738.004	3301.15
738.19	3278.63
738.375	3237.67
738.561	3321.63
738.747	3151.65
738.932	3120.93
739.118	3292.96
739.303	3188.52
739.489	3073.83
739.674	3006.25
739.859	3082.02
740.045	3118.89
740.23	3094.31
740.416	3024.68
740.601	3039.01
740.786	3100.45
740.972	3100.45
741.157	2979.62
741.342	2973.48
741.528	2895.66
741.713	3063.59
741.898	2946.86
742.084	2858.79
742.269	3088.17
742.454	2930.47
742.639	3004.2
742.824	2768.68
743.01	2977.58
743.195	2836.27
743.38	2860.84
743.565	2778.92
743.75	2899.75
743.935	2819.88
744.12	2934.57
744.305	2850.6
744.49	2795.31
744.675	2742.06
744.86	2756.4
745.045	2705.2
745.23	2746.16
745.415	2709.29
745.6	2735.92
745.785	2598.7
745.97	2604.85
746.155	2588.46
746.34	2557.74
746.525	2545.45
746.71	2608.94
746.895	2434.86
747.079	2547.5
747.264	2455.34
747.449	2494.26
747.634	2570.03
747.819	2549.55
748.003	2457.39
748.188	2441.01
748.373	2432.82
748.557	2432.82
748.742	2410.29
748.927	2346.8
749.111	2438.96
749.296	2371.38
749.481	2481.97
749.665	2416.43
749.85	2250.55
750.034	2461.49
750.219	2273.07
750.404	2228.02
750.588	2221.88
750.773	2148.15
750.957	2232.12
751.141	2219.83
751.326	2209.59
751.51	2062.13
751.695	2129.72
751.879	2164.53
752.064	2189.11
752.248	2203.44
752.432	2174.77
752.617	2162.48
752.801	2107.19
752.985	2094.9
753.17	2131.76
753.354	2047.8
753.538	2000.69
753.722	2082.61
753.907	2012.98
754.091	2072.37
754.275	1976.12
754.459	1974.07
754.643	1959.74
754.828	1972.02
755.012	1998.65
755.196	2023.22
755.38	1890.1
755.564	1869.62
755.748	1771.32
755.932	1840.95
756.116	1888.06
756.3	1869.62
756.484	1797.95
756.668	1871.67
756.852	1697.6
757.036	1783.61
757.22	1777.47
757.404	1838.91
757.588	1675.07
757.772	1709.88
757.956	1828.67
758.14	1716.03
758.323	1646.4
758.507	1611.58
758.691	1634.11
758.875	1716.03
759.059	1709.88
759.242	1648.44
759.426	1685.31
759.61	1621.82
759.794	1689.4
759.977	1611.58
760.161	1765.18
760.345	1662.78
760.528	1597.24
760.712	1658.68
760.895	1595.2
761.079	1574.72
761.263	1468.22
761.446	1431.36
761.63	1599.29
761.813	1546.05
761.997	1472.32
762.18	1513.28
762.364	1509.18
762.547	1431.36
762.731	1457.98
762.914	1505.09
763.098	1388.35
763.281	1445.7
763.464	1525.57
763.648	1515.33
763.831	1492.8
764.015	1486.65
764.198	1441.6
764.381	1343.3
764.564	1476.41
764.748	1374.02
764.931	1412.93
765.114	1421.12
765.297	1447.74
765.481	1343.3
765.664	1453.89
765.847	1400.64
766.03	1378.11
766.213	1355.58
766.397	1290.05
766.58	1363.78
766.763	1412.93
766.946	1400.64
767.129	1304.39
767.312	1324.87
767.495	1308.48
767.678	1279.81
767.861	1378.11
768.044	1328.96
768.227	1316.67
768.41	1308.48
768.593	1339.2
768.776	1365.82
768.959	1269.57
769.142	1484.61
769.324	1247.04
769.507	1306.43
769.69	1271.62
769.873	1304.39
770.056	1406.78
770.239	1249.09
770.421	1335.1
770.604	1199.94
770.787	1308.48
770.97	1294.15
771.152	1204.03
771.335	1222.47
771.518	1208.13
771.7	1328.96
771.883	1222.47
772.066	1236.8
772.248	1324.87
772.431	1247.04
772.613	1183.56
772.796	1103.68
772.978	1193.8
773.161	1238.85
773.343	1220.42
773.526	1152.84
773.708	1156.93
773.891	1161.03
774.073	1128.26
774.256	1087.3
774.438	1171.27
774.621	1107.78
774.803	1218.37
774.985	1091.4
775.168	1134.4
775.35	1093.44
775.532	1220.42
775.715	1083.2
775.897	1087.3
776.079	1038.15
776.261	1042.25
776.444	1048.39
776.626	991.05
776.808	1009.48
776.99	1046.34
777.173	1077.06
777.355	954.18
777.537	921.42
777.719	1021.77
777.901	921.42
778.083	1040.2
778.265	948.04
778.447	1005.38
778.629	915.27
778.811	929.61
778.993	966.47
779.175	999.24
779.357	1046.34
779.539	827.21
779.721	894.79
779.903	995.14
780.085	870.22
780.267	876.36
780.449	886.6
780.631	1011.53
780.812	952.13
780.994	960.33
781.176	859.98
781.358	794.44
781.54	847.69
781.721	927.56
781.903	878.41
782.085	788.3
782.267	874.31
782.448	743.24
782.63	806.73
782.812	800.59
782.993	864.07
783.175	851.78
783.357	823.11
783.538	829.26
783.72	694.09
783.901	737.1
784.083	798.54
784.264	728.91
784.446	718.67
784.627	749.39
784.809	720.71
784.99	706.38
785.172	751.43
785.353	720.71
785.535	689.99
785.716	628.56
785.897	694.09
786.079	671.56
786.26	720.71
786.441	720.71
786.623	638.8
786.804	646.99
786.985	644.94
787.167	624.46
787.348	669.52
787.529	577.36
787.71	710.47
787.891	687.95
788.073	612.17
788.254	552.78
788.435	685.9
788.616	585.55
788.797	544.59
788.978	601.93
789.159	552.78
789.34	665.42
789.522	583.5
789.703	517.97
789.884	558.92
790.065	612.17
790.246	720.71
790.427	583.5
790.607	624.46
790.788	640.84
790.969	505.68
791.15	554.83
791.331	509.77
791.512	534.35
791.693	517.97
791.874	595.79
792.054	587.6
792.235	601.93
792.416	446.29
792.597	474.96
792.778	493.39
792.958	591.69
793.139	501.58
793.32	462.67
793.5	479.05
793.681	563.02
793.862	464.72
794.042	501.58
794.223	411.47
794.404	544.59
794.584	481.1
794.765	450.38
794.945	470.86
795.126	520.01
795.306	544.59
795.487	434
795.667	372.56
795.848	393.04
796.028	479.05
796.209	388.94
796.389	434
796.57	436.05
796.75	520.01
796.93	454.48
797.111	450.38
797.291	347.98
797.471	446.29
797.652	419.66
797.832	380.75
798.012	454.48
798.192	393.04
798.373	313.17
798.553	347.98
798.733	405.33
798.913	419.66
799.093	442.19
799.274	388.94
799.454	384.85
799.634	448.33
799.814	384.85
799.994	460.62
800.174	409.42
800.354	311.12
800.534	329.55
800.714	376.66
800.894	288.59
801.074	270.16
801.254	319.31
801.434	477.01
801.614	360.27
801.794	311.12
801.974	1173.32
802.154	407.38
802.334	384.85
802.514	345.94
802.693	307.02
802.873	384.85
803.053	401.23
803.233	337.74
803.413	343.89
803.592	280.4
803.772	272.21
803.952	319.31
804.131	345.94
804.311	343.89
804.491	376.66
804.67	286.54
804.85	261.97
805.03	317.26
805.209	358.22
805.389	397.14
805.568	261.97
805.748	319.31
805.928	257.87
806.107	241.49
806.287	380.75
806.466	384.85
806.646	341.84
806.825	325.46
807.004	294.74
807.184	317.26
807.363	343.89
807.543	278.35
807.722	286.54
807.901	378.7
808.081	294.74
808.26	212.82
808.439	239.44
808.619	264.02
808.798	249.68
808.977	261.97
809.156	352.08
809.336	290.64
809.515	286.54
809.694	200.53
809.873	227.15
810.052	315.22
810.231	286.54
810.411	223.06
810.59	296.78
810.769	261.97
810.948	251.73
811.127	225.11
811.306	167.76
811.485	235.35
811.664	288.59
811.843	278.35
812.022	284.5
812.201	182.1
812.38	184.15
812.559	178
812.737	188.24
812.916	178
813.095	251.73
813.274	180.05
813.453	192.34
813.632	278.35
813.811	298.83
813.989	173.91
814.168	151.38
814.347	227.15
814.526	163.67
814.704	294.74
814.883	249.68
815.062	198.48
815.24	257.87
815.419	128.85
815.598	214.87
815.776	116.56
815.955	130.9
816.133	143.19
816.312	204.63
816.49	145.24
816.669	311.12
816.847	182.1
817.026	212.82
817.204	206.67
817.383	190.29
817.561	210.77
817.74	196.43
817.918	186.19
818.097	110.42
818.275	200.53
818.453	190.29
818.632	139.09
818.81	214.87
818.988	227.15
819.167	120.66
819.345	118.61
819.523	141.14
819.701	190.29
819.879	294.74
820.058	167.76
820.236	194.39
820.414	182.1
820.592	173.91
820.77	135
820.948	223.06
821.127	132.95
821.305	139.09
821.483	178
821.661	159.57
821.839	139.09
822.017	145.24
822.195	149.33
822.373	237.39
822.551	173.91
822.729	206.67
822.907	153.43
823.085	137.04
823.262	190.29
823.44	122.71
823.618	247.63
823.796	83.8
823.974	188.24
824.152	135
824.329	212.82
824.507	178
824.685	208.72
824.863	98.13
825.04	110.42
825.218	114.52
825.396	151.38
825.574	157.52
825.751	175.95
825.929	147.28
826.107	51.03
826.284	165.71
826.462	157.52
826.639	87.89
826.817	151.38
826.994	122.71
827.172	30.55
827.349	231.25
827.527	135
827.704	178
827.882	161.62
828.059	87.89
828.237	104.28
828.414	124.76
828.591	14.17
828.769	151.38
828.946	83.8
829.124	161.62
829.301	137.04
829.478	114.52
829.655	135
829.833	91.99
830.01	-20.65
830.187	139.09
830.364	42.84
830.542	188.24
830.719	206.67
830.896	210.77
831.073	180.05
831.25	143.19
831.427	149.33
831.604	137.04
831.782	10.07
831.959	196.43
832.136	124.76
832.313	116.56
832.49	59.22
832.667	130.9
832.844	69.46
833.021	165.71
833.198	184.15
833.374	77.65
833.551	153.43
833.728	100.18
833.905	116.56
834.082	-43.18
834.259	100.18
834.436	77.65
834.612	116.56
834.789	83.8
834.966	114.52
835.143	214.87
835.319	42.84
835.496	122.71
835.673	71.51
835.85	163.67
836.026	126.8
836.203	120.66
836.38	100.18
836.556	149.33
836.733	-2.22
836.909	151.38
837.086	63.32
837.262	102.23
837.439	147.28
837.616	75.6
837.792	83.8
837.968	51.03
838.145	57.17
838.321	75.6
838.498	159.57
838.674	108.37
838.851	55.12
839.027	89.94
839.203	63.32
839.38	20.31
839.556	110.42
839.732	91.99
839.909	104.28
840.085	139.09
840.261	77.65
840.437	8.02
840.614	57.17
840.79	159.57
840.966	-14.51
841.142	67.41
841.318	36.69
841.494	85.84
841.671	132.95
841.847	73.56
842.023	46.93
842.199	157.52
842.375	106.32
842.551	-55.47
842.727	40.79
842.903	147.28
843.079	51.03
843.255	137.04
843.431	28.5
843.607	44.88
843.783	28.5
843.959	57.17
844.134	59.22
844.31	171.86
844.486	34.64
844.662	55.12
844.838	51.03
845.013	110.42
845.189	83.8
845.365	46.93
845.541	75.6
845.716	-4.27
845.892	141.14
846.068	75.6
846.244	32.6
846.419	81.75
846.595	83.8
846.77	-12.46
846.946	104.28
847.122	20.31
847.297	132.95
847.473	87.89
847.648	-20.65
847.824	59.22
847.999	-22.7
848.175	51.03
848.35	65.36
848.526	128.85
848.701	42.84
848.876	89.94
849.052	28.5
849.227	116.56
849.403	57.17
849.578	-41.13
849.753	81.75
849.929	77.65
850.104	-22.7
850.279	71.51
850.454	91.99
850.63	61.27
850.805	110.42
850.98	-0.17
851.155	89.94
851.33	1.88
851.505	-39.08
851.681	106.32
851.856	5.97
852.031	98.13
852.206	30.55
852.381	30.55
852.556	83.8
852.731	53.08
852.906	32.6
853.081	-22.7
853.256	106.32
853.431	67.41
853.606	-16.55
853.781	14.17
853.956	-34.99
854.131	40.79
854.305	14.17
854.48	85.84
854.655	59.22
854.83	81.75
855.005	55.12
855.18	57.17
855.354	96.08
855.529	104.28
855.704	79.7
855.879	32.6
856.053	-24.75
856.228	40.79
856.403	-2.22
856.577	81.75
856.752	-37.03
856.926	32.6
857.101	87.89
857.276	143.19
857.45	51.03
857.625	53.08
857.799	48.98
857.974	42.84
858.148	-75.95
858.323	67.41
858.497	26.45
858.672	24.4
858.846	32.6
859.02	10.07
859.195	-86.19
859.369	108.37
859.543	3.93
859.718	-4.27
859.892	89.94
860.066	-0.17
860.241	61.27
860.415	42.84
860.589	53.08
860.763	48.98
860.938	51.03
861.112	12.12
861.286	26.45
861.46	89.94
861.634	59.22
861.808	89.94
861.982	8.02
862.157	-14.51
862.331	-12.46
862.505	-71.85
862.679	24.4
862.853	22.36
863.027	5.97
863.201	71.51
863.375	85.84
863.549	42.84
863.722	16.21
863.896	46.93
864.07	10.07
864.244	65.36
864.418	85.84
864.592	-6.31
864.766	36.69
864.939	30.55
865.113	38.74
865.287	81.75
865.461	-12.46
865.634	30.55
865.808	12.12
865.982	-10.41
866.156	-45.23
866.329	5.97
866.503	-55.47
866.676	112.47
866.85	77.65
867.024	-0.17
867.197	65.36
867.371	40.79
867.544	26.45
867.718	-32.94
867.891	28.5
868.065	-77.99
868.238	57.17
868.412	8.02
868.585	24.4
868.759	-2.22
868.932	-30.89
869.105	-32.94
869.279	-4.27
869.452	-0.17
869.625	5.97
869.799	8.02
869.972	-37.03
870.145	10.07
870.319	34.64
870.492	12.12
870.665	22.36
870.838	-30.89
871.011	-92.33
871.185	53.08
871.358	14.17
871.531	26.45
871.704	-14.51
871.877	32.6
872.05	-30.89
872.223	-28.84
872.396	-20.65
872.569	-8.36
872.742	-4.27
872.915	-53.42
873.088	8.02
873.261	-20.65
873.434	69.46
873.607	24.4
873.78	18.26
873.953	-34.99
874.126	57.17
874.299	-14.51
874.471	18.26
874.644	67.41
874.817	102.23
874.99	116.56
875.163	-34.99
875.335	-69.8
875.508	-39.08
875.681	55.12
875.853	-14.51
876.026	-0.17
876.199	3.93
876.371	-14.51
876.544	1.88
876.717	-6.31
876.889	-18.6
877.062	67.41
877.234	-80.04
877.407	-55.47
877.579	8.02
877.752	-8.36
877.924	75.6
878.097	22.36
878.269	-16.55
878.442	22.36
878.614	46.93
878.786	-18.6
878.959	14.17
879.131	24.4
879.303	-37.03
879.476	-32.94
879.648	87.89
879.82	-8.36
879.993	-16.55
880.165	-16.55
880.337	-51.37
880.509	-0.17
880.681	-102.57
880.854	1.88
881.026	34.64
881.198	102.23
881.37	12.12
881.542	-4.27
881.714	-37.03
881.886	-43.18
882.058	-34.99
882.23	-51.37
882.402	38.74
882.574	8.02
882.746	-8.36
882.918	55.12
883.09	-4.27
883.262	-6.31
883.434	8.02
883.606	-86.19
883.778	-26.79
883.95	51.03
884.122	-49.32
884.293	71.51
884.465	-16.55
884.637	63.32
884.809	-63.66
884.98	34.64
885.152	73.56
885.324	96.08
885.496	-26.79
885.667	1.88
885.839	-20.65
886.011	100.18
886.182	40.79
886.354	34.64
886.525	5.97
886.697	51.03
886.869	-6.31
887.04	-53.42
887.212	81.75
887.383	89.94
887.555	-26.79
887.726	-34.99
887.897	12.12
888.069	75.6
888.24	63.32
888.412	-20.65
888.583	36.69
888.754	-39.08
888.926	-71.85
889.097	-77.99
889.268	5.97
889.44	42.84
889.611	-37.03
889.782	48.98
889.953	-18.6
890.125	75.6
890.296	-26.79
890.467	16.21
890.638	-55.47
890.809	1.88
890.98	1.88
891.151	51.03
891.323	57.17
891.494	-20.65
891.665	-22.7
891.836	40.79
892.007	81.75
892.178	30.55
892.349	-12.46
892.52	-90.28
892.691	34.64
892.862	-61.61
893.032	14.17
893.203	-24.75
893.374	-0.17
893.545	100.18
893.716	-80.04
893.887	28.5
894.057	-8.36
894.228	22.36
894.399	48.98
894.57	55.12
894.74	28.5
894.911	-39.08
895.082	20.31
895.253	10.07
895.423	-32.94
895.594	61.27
895.764	-49.32
895.935	-12.46
896.106	94.04
896.276	-53.42
896.447	42.84
896.617	-41.13
896.788	-73.9
896.958	-4.27
897.129	-24.75
897.299	30.55
897.47	-49.32
897.64	8.02
897.81	-61.61
897.981	-63.66
898.151	28.5
898.322	51.03
898.492	12.12
898.662	1.88
898.832	-55.47
899.003	-34.99
899.173	-49.32
899.343	12.12
899.513	-18.6
