Data from USB4F104151__81__12-12-51-442.txt Node

Date: Fri Mar 14 12:12:51 EDT 2025
User: louis
Spectrometer: USB4F10415
Trigger mode: 4
Integration Time (sec): 5.000000E-2
Scans to average: 1
Electric dark correction enabled: true
Nonlinearity correction enabled: false
Boxcar width: 0
XAxis mode: Wavelengths
Number of Pixels in Spectrum: 3648
>>>>>Begin Spectral Data<<<<<
178.204	-243.37
178.424	-243.37
178.644	-243.37
178.864	-218.79
179.084	-188.07
179.304	10.58
179.524	-11.95
179.744	-5.8
179.964	57.68
180.184	-11.95
180.404	26.96
180.624	18.77
180.844	65.88
181.064	-126.63
181.283	-18.09
181.503	-69.29
181.723	63.83
181.943	-79.53
182.163	53.59
182.383	-22.19
182.602	37.2
182.822	72.02
183.042	12.63
183.262	-22.19
183.482	-106.15
183.701	-7.85
183.921	43.35
184.141	20.82
184.361	127.32
184.58	14.68
184.8	35.16
185.02	37.2
185.239	53.59
185.459	24.92
185.679	39.25
185.898	-61.1
186.118	57.68
186.338	84.31
186.557	33.11
186.777	65.88
186.997	-24.23
187.216	125.27
187.436	59.73
187.655	51.54
187.875	31.06
188.095	29.01
188.314	14.68
188.534	82.26
188.753	-5.8
188.973	53.59
189.192	108.88
189.412	55.64
189.631	67.92
189.851	12.63
190.07	69.97
190.29	6.49
190.509	-13.99
190.729	-16.04
190.948	100.69
191.168	219.47
191.387	8.53
191.607	16.73
191.826	4.44
192.045	33.11
192.265	24.92
192.484	33.11
192.704	16.73
192.923	-20.14
193.142	131.41
193.362	33.11
193.581	137.56
193.8	47.44
194.02	78.16
194.239	-16.04
194.458	76.12
194.678	4.44
194.897	20.82
195.116	20.82
195.335	10.58
195.555	67.92
195.774	104.79
195.993	57.68
196.212	2.39
196.432	10.58
196.651	-30.38
196.87	29.01
197.089	110.93
197.308	78.16
197.528	18.77
197.747	0.34
197.966	78.16
198.185	110.93
198.404	49.49
198.623	4.44
198.842	123.22
199.062	43.35
199.281	164.18
199.5	26.96
199.719	-3.75
199.938	16.73
200.157	112.98
200.376	65.88
200.595	74.07
200.814	39.25
201.033	10.58
201.252	94.55
201.471	53.59
201.69	49.49
201.909	22.87
202.128	82.26
202.347	39.25
202.566	-1.71
202.785	-18.09
203.004	-30.38
203.223	67.92
203.442	-3.75
203.661	-71.34
203.879	-28.33
204.098	125.27
204.317	-38.57
204.536	-28.33
204.755	33.11
204.974	127.32
205.193	18.77
205.411	182.61
205.63	29.01
205.849	22.87
206.068	-7.85
206.287	86.36
206.505	139.6
206.724	-18.09
206.943	-44.71
207.162	-93.87
207.381	41.3
207.599	45.4
207.818	31.06
208.037	22.87
208.255	-1.71
208.474	63.83
208.693	67.92
208.911	-52.91
209.13	-16.04
209.349	102.74
209.567	10.58
209.786	94.55
210.005	37.2
210.223	129.36
210.442	-59.05
210.661	49.49
210.879	-20.14
211.098	129.36
211.316	14.68
211.535	76.12
211.753	82.26
211.972	96.6
212.191	20.82
212.409	24.92
212.628	14.68
212.846	41.3
213.065	37.2
213.283	31.06
213.502	-30.38
213.72	53.59
213.938	-5.8
214.157	2.39
214.375	59.73
214.594	18.77
214.812	117.08
215.031	35.16
215.249	51.54
215.467	-3.75
215.686	14.68
215.904	108.88
216.122	10.58
216.341	35.16
216.559	20.82
216.778	104.79
216.996	43.35
217.214	53.59
217.432	49.49
217.651	-75.43
217.869	-16.04
218.087	-3.75
218.306	2.39
218.524	29.01
218.742	-7.85
218.96	100.69
219.179	31.06
219.397	-5.8
219.615	164.18
219.833	35.16
220.051	45.4
220.27	41.3
220.488	4.44
220.706	-5.8
220.924	88.4
221.142	47.44
221.36	108.88
221.578	-26.28
221.796	47.44
222.015	-3.75
222.233	26.96
222.451	31.06
222.669	-93.87
222.887	104.79
223.105	-38.57
223.323	-13.99
223.541	-3.75
223.759	106.84
223.977	61.78
224.195	143.7
224.413	35.16
224.631	104.79
224.849	49.49
225.067	164.18
225.285	-42.67
225.503	22.87
225.721	-9.9
225.939	43.35
226.157	14.68
226.375	131.41
226.592	29.01
226.81	18.77
227.028	65.88
227.246	80.21
227.464	0.34
227.682	76.12
227.9	53.59
228.117	-9.9
228.335	49.49
228.553	22.87
228.771	65.88
228.989	2.39
229.206	55.64
229.424	61.78
229.642	47.44
229.86	2.39
230.077	100.69
230.295	-38.57
230.513	80.21
230.731	59.73
230.948	92.5
231.166	31.06
231.384	43.35
231.601	35.16
231.819	82.26
232.037	0.34
232.254	22.87
232.472	10.58
232.689	8.53
232.907	123.22
233.125	4.44
233.342	47.44
233.56	10.58
233.777	88.4
233.995	29.01
234.213	106.84
234.43	-13.99
234.648	-36.52
234.865	63.83
235.083	35.16
235.3	12.63
235.518	112.98
235.735	98.64
235.953	76.12
236.17	45.4
236.388	20.82
236.605	-26.28
236.822	35.16
237.04	53.59
237.257	14.68
237.475	-7.85
237.692	74.07
237.909	108.88
238.127	-28.33
238.344	67.92
238.562	20.82
238.779	45.4
238.996	4.44
239.214	-7.85
239.431	41.3
239.648	-9.9
239.865	67.92
240.083	45.4
240.3	-1.71
240.517	0.34
240.735	37.2
240.952	104.79
241.169	84.31
241.386	22.87
241.603	41.3
241.821	26.96
242.038	106.84
242.255	55.64
242.472	-13.99
242.689	18.77
242.907	84.31
243.124	61.78
243.341	49.49
243.558	-30.38
243.775	-89.77
243.992	18.77
244.209	57.68
244.426	125.27
244.643	-18.09
244.86	67.92
245.078	41.3
245.295	82.26
245.512	24.92
245.729	2.39
245.946	104.79
246.163	43.35
246.38	43.35
246.597	18.77
246.814	53.59
247.031	63.83
247.248	31.06
247.464	-13.99
247.681	26.96
247.898	24.92
248.115	16.73
248.332	-11.95
248.549	117.08
248.766	37.2
248.983	72.02
249.2	53.59
249.417	72.02
249.633	-13.99
249.85	33.11
250.067	92.5
250.284	14.68
250.501	72.02
250.717	59.73
250.934	-7.85
251.151	-3.75
251.368	8.53
251.585	26.96
251.801	82.26
252.018	16.73
252.235	155.99
252.451	-24.23
252.668	-16.04
252.885	102.74
253.102	6.49
253.318	-5.8
253.535	41.3
253.752	61.78
253.968	6.49
254.185	-81.58
254.401	110.93
254.618	63.83
254.835	31.06
255.051	119.12
255.268	92.5
255.484	10.58
255.701	-18.09
255.917	69.97
256.134	-38.57
256.351	55.64
256.567	0.34
256.784	90.45
257	-34.47
257.217	61.78
257.433	72.02
257.65	45.4
257.866	51.54
258.082	-44.71
258.299	8.53
258.515	18.77
258.732	76.12
258.948	-20.14
259.165	-3.75
259.381	-34.47
259.597	16.73
259.814	6.49
260.03	-3.75
260.246	29.01
260.463	74.07
260.679	100.69
260.895	4.44
261.112	53.59
261.328	-38.57
261.544	24.92
261.761	180.56
261.977	39.25
262.193	29.01
262.409	35.16
262.626	69.97
262.842	92.5
263.058	-50.86
263.274	67.92
263.49	45.4
263.707	43.35
263.923	76.12
264.139	-7.85
264.355	67.92
264.571	115.03
264.787	24.92
265.004	84.31
265.22	76.12
265.436	-28.33
265.652	53.59
265.868	29.01
266.084	31.06
266.3	-32.43
266.516	6.49
266.732	2.39
266.948	-57
267.164	59.73
267.38	100.69
267.596	-30.38
267.812	96.6
268.028	-1.71
268.244	57.68
268.46	84.31
268.676	31.06
268.892	102.74
269.108	-61.1
269.324	10.58
269.54	-26.28
269.756	86.36
269.972	-32.43
270.188	-34.47
270.403	-18.09
270.619	-22.19
270.835	51.54
271.051	-7.85
271.267	29.01
271.483	41.3
271.698	39.25
271.914	29.01
272.13	33.11
272.346	47.44
272.562	69.97
272.777	123.22
272.993	-9.9
273.209	90.45
273.425	74.07
273.64	29.01
273.856	80.21
274.072	22.87
274.287	-7.85
274.503	90.45
274.719	74.07
274.934	-34.47
275.15	-59.05
275.366	29.01
275.581	10.58
275.797	41.3
276.012	-20.14
276.228	-46.76
276.444	51.54
276.659	78.16
276.875	-5.8
277.09	-38.57
277.306	-50.86
277.521	-11.95
277.737	-9.9
277.952	39.25
278.168	47.44
278.383	106.84
278.599	35.16
278.814	31.06
279.03	2.39
279.245	72.02
279.461	29.01
279.676	131.41
279.892	10.58
280.107	-22.19
280.322	-26.28
280.538	82.26
280.753	43.35
280.969	59.73
281.184	69.97
281.399	55.64
281.615	63.83
281.83	-30.38
282.045	-30.38
282.26	8.53
282.476	-9.9
282.691	125.27
282.906	-9.9
283.122	-7.85
283.337	20.82
283.552	-11.95
283.767	6.49
283.983	-42.67
284.198	63.83
284.413	16.73
284.628	16.73
284.843	115.03
285.058	80.21
285.274	29.01
285.489	0.34
285.704	82.26
285.919	135.51
286.134	-11.95
286.349	-46.76
286.564	-9.9
286.779	33.11
286.995	6.49
287.21	16.73
287.425	-11.95
287.64	63.83
287.855	22.87
288.07	-54.95
288.285	53.59
288.5	49.49
288.715	14.68
288.93	-40.62
289.145	69.97
289.36	94.55
289.575	29.01
289.79	59.73
290.004	6.49
290.219	61.78
290.434	24.92
290.649	76.12
290.864	14.68
291.079	59.73
291.294	53.59
291.509	39.25
291.724	12.63
291.938	-54.95
292.153	-20.14
292.368	4.44
292.583	72.02
292.798	33.11
293.012	24.92
293.227	115.03
293.442	65.88
293.657	131.41
293.871	4.44
294.086	45.4
294.301	69.97
294.516	151.89
294.73	67.92
294.945	-40.62
295.16	88.4
295.374	53.59
295.589	33.11
295.804	-32.43
296.018	86.36
296.233	55.64
296.447	26.96
296.662	-32.43
296.877	-5.8
297.091	115.03
297.306	31.06
297.52	10.58
297.735	84.31
297.949	37.2
298.164	65.88
298.378	33.11
298.593	65.88
298.807	-28.33
299.022	4.44
299.236	84.31
299.451	33.11
299.665	47.44
299.88	31.06
300.094	78.16
300.309	41.3
300.523	80.21
300.737	-73.39
300.952	26.96
301.166	65.88
301.381	49.49
301.595	47.44
301.809	65.88
302.024	39.25
302.238	-54.95
302.452	84.31
302.667	6.49
302.881	176.47
303.095	78.16
303.309	24.92
303.524	-7.85
303.738	-46.76
303.952	-20.14
304.166	51.54
304.381	18.77
304.595	53.59
304.809	31.06
305.023	92.5
305.237	8.53
305.452	14.68
305.666	55.64
305.88	92.5
306.094	43.35
306.308	59.73
306.522	10.58
306.736	102.74
306.95	131.41
307.164	16.73
307.379	-22.19
307.593	133.46
307.807	94.55
308.021	12.63
308.235	8.53
308.449	-50.86
308.663	10.58
308.877	82.26
309.091	33.11
309.305	20.82
309.519	-30.38
309.733	84.31
309.947	-34.47
310.161	-13.99
310.374	-7.85
310.588	82.26
310.802	-46.76
311.016	16.73
311.23	65.88
311.444	-34.47
311.658	2.39
311.872	110.93
312.085	31.06
312.299	86.36
312.513	31.06
312.727	24.92
312.941	43.35
313.154	43.35
313.368	55.64
313.582	41.3
313.796	57.68
314.009	45.4
314.223	90.45
314.437	4.44
314.651	43.35
314.864	26.96
315.078	29.01
315.292	-28.33
315.505	26.96
315.719	29.01
315.933	76.12
316.146	-34.47
316.36	12.63
316.573	104.79
316.787	65.88
317.001	-1.71
317.214	-13.99
317.428	41.3
317.641	37.2
317.855	37.2
318.068	49.49
318.282	49.49
318.495	96.6
318.709	74.07
318.922	55.64
319.136	82.26
319.349	88.4
319.563	-5.8
319.776	-9.9
319.99	26.96
320.203	59.73
320.417	-38.57
320.63	55.64
320.843	47.44
321.057	104.79
321.27	-13.99
321.483	14.68
321.697	145.75
321.91	24.92
322.124	82.26
322.337	59.73
322.55	37.2
322.763	18.77
322.977	49.49
323.19	26.96
323.403	-3.75
323.617	29.01
323.83	26.96
324.043	-42.67
324.256	14.68
324.469	8.53
324.683	98.64
324.896	57.68
325.109	-24.23
325.322	-11.95
325.535	76.12
325.748	51.54
325.962	18.77
326.175	-1.71
326.388	4.44
326.601	82.26
326.814	0.34
327.027	31.06
327.24	123.22
327.453	-5.8
327.666	57.68
327.879	67.92
328.092	112.98
328.305	65.88
328.518	-9.9
328.731	-1.71
328.944	49.49
329.157	-1.71
329.37	-13.99
329.583	112.98
329.796	108.88
330.009	-97.96
330.222	92.5
330.435	55.64
330.648	47.44
330.861	8.53
331.073	0.34
331.286	18.77
331.499	100.69
331.712	-13.99
331.925	29.01
332.138	16.73
332.35	53.59
332.563	-50.86
332.776	76.12
332.989	59.73
333.202	8.53
333.414	39.25
333.627	49.49
333.84	-30.38
334.053	43.35
334.265	-1.71
334.478	-42.67
334.691	2.39
334.903	8.53
335.116	-69.29
335.329	41.3
335.541	45.4
335.754	88.4
335.966	49.49
336.179	57.68
336.392	59.73
336.604	-54.95
336.817	96.6
337.029	43.35
337.242	20.82
337.454	33.11
337.667	63.83
337.88	121.17
338.092	45.4
338.305	69.97
338.517	24.92
338.729	78.16
338.942	14.68
339.154	39.25
339.367	20.82
339.579	119.12
339.792	20.82
340.004	117.08
340.217	-24.23
340.429	37.2
340.641	31.06
340.854	-34.47
341.066	18.77
341.278	31.06
341.491	74.07
341.703	12.63
341.915	8.53
342.128	92.5
342.34	63.83
342.552	6.49
342.764	57.68
342.977	-11.95
343.189	31.06
343.401	45.4
343.613	-34.47
343.826	0.34
344.038	-87.72
344.25	115.03
344.462	-34.47
344.674	31.06
344.886	-30.38
345.099	49.49
345.311	-3.75
345.523	100.69
345.735	47.44
345.947	80.21
346.159	16.73
346.371	-40.62
346.583	-18.09
346.795	102.74
347.007	-36.52
347.219	88.4
347.431	-40.62
347.643	-5.8
347.855	-22.19
348.067	164.18
348.279	-52.91
348.491	74.07
348.703	59.73
348.915	24.92
349.127	33.11
349.339	59.73
349.551	8.53
349.763	35.16
349.975	-3.75
350.187	125.27
350.399	-1.71
350.61	51.54
350.822	51.54
351.034	63.83
351.246	63.83
351.458	76.12
351.669	-9.9
351.881	35.16
352.093	41.3
352.305	82.26
352.517	4.44
352.728	43.35
352.94	63.83
353.152	76.12
353.363	35.16
353.575	74.07
353.787	98.64
353.999	92.5
354.21	45.4
354.422	-20.14
354.633	-34.47
354.845	63.83
355.057	33.11
355.268	18.77
355.48	31.06
355.692	0.34
355.903	-26.28
356.115	16.73
356.326	-38.57
356.538	96.6
356.749	69.97
356.961	51.54
357.172	129.36
357.384	-40.62
357.595	10.58
357.807	-16.04
358.018	-7.85
358.23	43.35
358.441	74.07
358.653	59.73
358.864	92.5
359.075	-48.81
359.287	-9.9
359.498	20.82
359.709	26.96
359.921	76.12
360.132	106.84
360.344	84.31
360.555	29.01
360.766	45.4
360.977	-28.33
361.189	133.46
361.4	47.44
361.611	90.45
361.823	143.7
362.034	84.31
362.245	31.06
362.456	-9.9
362.667	133.46
362.879	-5.8
363.09	-36.52
363.301	74.07
363.512	-7.85
363.723	-1.71
363.935	59.73
364.146	41.3
364.357	2.39
364.568	20.82
364.779	-40.62
364.99	112.98
365.201	12.63
365.412	59.73
365.623	82.26
365.834	67.92
366.045	49.49
366.256	4.44
366.467	88.4
366.678	112.98
366.889	-22.19
367.1	-24.23
367.311	59.73
367.522	43.35
367.733	90.45
367.944	57.68
368.155	29.01
368.366	20.82
368.577	112.98
368.788	98.64
368.999	-9.9
369.209	51.54
369.42	119.12
369.631	55.64
369.842	78.16
370.053	123.22
370.264	16.73
370.474	-30.38
370.685	59.73
370.896	41.3
371.107	45.4
371.317	82.26
371.528	-34.47
371.739	84.31
371.95	84.31
372.16	-38.57
372.371	18.77
372.582	6.49
372.792	51.54
373.003	84.31
373.214	-16.04
373.424	41.3
373.635	-7.85
373.846	141.65
374.056	80.21
374.267	16.73
374.477	59.73
374.688	43.35
374.898	53.59
375.109	76.12
375.319	37.2
375.53	12.63
375.74	84.31
375.951	29.01
376.161	-5.8
376.372	39.25
376.582	24.92
376.793	29.01
377.003	45.4
377.214	37.2
377.424	121.17
377.635	20.82
377.845	-11.95
378.055	-1.71
378.266	-22.19
378.476	4.44
378.686	47.44
378.897	20.82
379.107	125.27
379.317	96.6
379.528	-13.99
379.738	43.35
379.948	-81.58
380.158	80.21
380.369	31.06
380.579	49.49
380.789	57.68
380.999	74.07
381.21	-5.8
381.42	82.26
381.63	-54.95
381.84	94.55
382.05	43.35
382.261	94.55
382.471	115.03
382.681	-7.85
382.891	102.74
383.101	74.07
383.311	29.01
383.521	16.73
383.731	82.26
383.941	92.5
384.151	135.51
384.361	-11.95
384.571	-18.09
384.781	67.92
384.991	115.03
385.201	129.36
385.411	90.45
385.621	49.49
385.831	24.92
386.041	16.73
386.251	39.25
386.461	90.45
386.671	-63.15
386.881	12.63
387.091	22.87
387.301	96.6
387.511	51.54
387.72	72.02
387.93	61.78
388.14	33.11
388.35	20.82
388.56	82.26
388.769	108.88
388.979	43.35
389.189	22.87
389.399	80.21
389.609	127.32
389.818	92.5
390.028	57.68
390.238	18.77
390.447	63.83
390.657	4.44
390.867	-5.8
391.076	45.4
391.286	98.64
391.496	80.21
391.705	-7.85
391.915	65.88
392.125	123.22
392.334	29.01
392.544	51.54
392.753	33.11
392.963	29.01
393.172	82.26
393.382	31.06
393.591	100.69
393.801	133.46
394.01	121.17
394.22	155.99
394.429	29.01
394.639	137.56
394.848	61.78
395.058	106.84
395.267	16.73
395.477	90.45
395.686	59.73
395.895	207.19
396.105	160.08
396.314	61.78
396.524	65.88
396.733	90.45
396.942	96.6
397.152	137.56
397.361	90.45
397.57	104.79
397.78	49.49
397.989	115.03
398.198	260.43
398.407	53.59
398.617	82.26
398.826	41.3
399.035	61.78
399.244	98.64
399.453	100.69
399.663	86.36
399.872	51.54
400.081	31.06
400.29	117.08
400.499	41.3
400.708	82.26
400.917	69.97
401.127	39.25
401.336	74.07
401.545	104.79
401.754	147.8
401.963	76.12
402.172	31.06
402.381	-16.04
402.59	82.26
402.799	65.88
403.008	131.41
403.217	117.08
403.426	137.56
403.635	-9.9
403.844	24.92
404.053	59.73
404.262	98.64
404.471	112.98
404.68	123.22
404.888	61.78
405.097	39.25
405.306	90.45
405.515	129.36
405.724	88.4
405.933	65.88
406.142	166.23
406.35	88.4
406.559	141.65
406.768	104.79
406.977	178.51
407.185	123.22
407.394	108.88
407.603	98.64
407.812	164.18
408.02	231.76
408.229	164.18
408.438	213.33
408.646	117.08
408.855	158.03
409.064	176.47
409.272	106.84
409.481	219.47
409.69	151.89
409.898	215.38
410.107	160.08
410.315	264.53
410.524	211.28
410.733	256.34
410.941	190.8
411.15	211.28
411.358	172.37
411.567	258.39
411.775	178.51
411.984	332.11
412.192	264.53
412.401	219.47
412.609	276.82
412.818	362.83
413.026	315.73
413.234	319.82
413.443	303.44
413.651	336.21
413.86	305.49
414.068	336.21
414.276	479.57
414.485	342.35
414.693	457.04
414.901	438.61
415.11	430.41
415.318	440.65
415.526	450.89
415.734	502.09
415.943	457.04
416.151	592.2
416.359	457.04
416.567	508.24
416.776	500.05
416.984	567.63
417.192	665.93
417.4	588.11
417.608	495.95
417.817	541.01
418.025	663.88
418.233	721.23
418.441	680.27
418.649	600.4
418.857	756.04
419.065	766.28
419.273	729.42
419.481	672.08
419.689	768.33
419.897	833.86
420.105	858.44
420.313	766.28
420.521	993.61
420.729	887.11
420.937	962.89
421.145	989.51
421.353	966.98
421.561	1136.96
421.769	1173.83
421.977	1165.64
422.185	1272.13
422.393	1231.17
422.601	1268.03
422.809	1397.06
423.017	1341.76
423.224	1327.43
423.432	1489.21
423.64	1425.73
423.848	1612.09
424.056	1507.65
424.263	1669.44
424.471	1581.37
424.679	1614.14
424.887	1687.87
425.094	1919.29
425.302	1874.23
425.51	1757.5
425.718	1892.66
425.925	1933.62
426.133	2048.31
426.341	2056.5
426.548	2097.46
426.756	2140.47
426.964	2199.86
427.171	2468.14
427.379	2449.71
427.586	2527.53
427.794	2543.92
428.001	2648.36
428.209	2728.24
428.417	2683.18
428.624	2885.93
428.832	2988.33
429.039	2824.49
429.247	2937.13
429.454	3121.45
429.662	3352.87
429.869	2990.38
430.076	3383.59
430.284	3367.2
430.491	3490.08
430.699	3645.73
430.906	3662.11
431.114	3567.9
431.321	3813.66
431.528	3778.84
431.736	3967.26
431.943	4342.04
432.15	4256.02
432.358	4139.29
432.565	4473.11
432.772	4350.23
432.979	4512.02
433.187	4675.85
433.394	4743.44
433.601	4991.24
433.808	5122.31
434.016	4995.34
434.223	5200.13
434.43	5589.25
434.637	5550.34
434.844	5863.68
435.052	6045.95
435.259	5794.04
435.466	5949.69
435.673	5894.4
435.88	6187.25
436.087	6459.63
436.294	6615.28
436.501	6283.51
436.708	6449.39
436.915	6752.49
437.122	7254.25
437.329	7010.54
437.537	7196.9
437.743	7311.59
437.95	7428.32
438.157	7690.46
438.364	8071.39
438.571	7817.44
438.778	8110.3
438.985	8501.46
439.192	8317.14
439.399	8636.63
439.606	8372.44
439.813	8995.02
440.02	9529.54
440.227	9599.17
440.433	9267.4
440.64	9513.16
440.847	9365.7
441.054	9535.68
441.261	10322.1
441.467	10019
441.674	10471.61
441.881	10635.44
442.088	10746.03
442.294	10653.87
442.501	10899.63
442.708	11176.11
442.914	11712.67
443.121	12200.09
443.328	11825.31
443.534	12540.05
443.741	12259.48
443.948	12011.68
444.154	12941.46
444.361	12927.12
444.568	12865.68
444.774	13066.38
444.981	12994.7
445.187	13492.36
445.394	14035.07
445.6	13574.28
445.807	15282.28
446.013	14381.18
446.22	14639.22
446.426	15302.76
446.633	15540.33
446.839	16007.27
447.046	15194.22
447.252	16322.65
447.459	16214.11
447.665	16105.57
447.871	16857.17
448.078	17631.3
448.284	16646.23
448.491	16967.76
448.697	17958.98
448.903	18155.58
449.11	17999.94
449.316	18014.27
449.522	18317.37
449.728	18800.69
449.935	18772.02
450.141	18927.67
450.347	19384.37
450.553	18612.28
450.76	18954.29
450.966	19740.71
451.172	19533.87
451.378	19959.84
451.584	19433.52
451.791	19941.41
451.997	19914.79
452.203	20181.03
452.409	20516.89
452.615	20176.93
452.821	19478.57
453.027	19064.88
453.233	19976.23
453.44	19359.79
453.646	19415.09
453.852	19468.33
454.058	20248.61
454.264	19380.27
454.47	19669.03
454.676	19619.88
454.882	19892.26
455.088	18384.96
455.294	18432.06
455.5	18878.52
455.705	19025.97
455.911	18446.4
456.117	17944.64
456.323	17721.41
456.529	16762.97
456.735	17279.05
456.941	17150.03
457.147	16783.45
457.352	16291.93
457.558	16097.38
457.764	16070.75
457.97	15796.32
458.176	15566.95
458.381	15376.49
458.587	14798.96
458.793	14639.22
458.999	13664.39
459.204	15022.19
459.41	14368.89
459.616	13752.45
459.821	13486.22
460.027	13295.75
460.233	13314.19
460.438	12816.53
460.644	12722.32
460.85	12152.99
461.055	11876.51
461.261	11917.47
461.466	10926.25
461.672	10580.15
461.878	11499.69
462.083	10649.78
462.289	10340.54
462.494	10340.54
462.7	9871.55
462.905	9574.6
463.111	9906.37
463.316	10010.81
463.522	9971.9
463.727	9701.57
463.932	9836.74
464.138	9568.45
464.343	9765.06
464.549	9414.85
464.754	9627.84
464.959	9629.89
465.165	9464
465.37	8913.1
465.575	8732.88
465.781	9031.88
465.986	9089.23
466.191	8853.71
466.397	8796.37
466.602	8351.96
466.807	8634.58
467.012	8741.07
467.218	8550.61
467.423	8415.44
467.628	8782.03
467.833	8892.62
468.038	8503.51
468.244	8284.37
468.449	8712.4
468.654	8349.91
468.859	8206.55
469.064	8263.9
469.269	8085.72
469.474	8065.24
469.679	8216.79
469.885	8065.24
470.09	7981.28
470.295	7999.71
470.5	7676.13
470.705	7708.9
470.91	7618.79
471.115	7581.92
471.32	7631.07
471.525	7678.18
471.73	7629.02
471.935	7231.72
472.139	7020.78
472.344	7110.89
472.549	7094.51
472.754	7076.07
472.959	6848.75
473.164	6678.77
473.369	6705.39
473.574	7082.22
473.778	7026.92
473.983	6826.22
474.188	6912.24
474.393	6461.68
474.598	6607.09
474.802	6455.54
475.007	6398.2
475.212	6437.11
475.417	6140.15
475.621	6193.4
475.826	6267.13
476.031	6070.52
476.235	5882.11
476.44	6091
476.645	6033.66
476.849	5878.01
477.054	5746.94
477.259	5699.84
477.463	5806.33
477.668	5470.47
477.872	5757.18
478.077	5490.95
478.282	5486.85
478.486	5261.57
478.691	5376.26
478.895	5277.96
479.1	5257.48
479.304	5316.87
479.509	5095.69
479.713	5308.68
479.918	5140.74
480.122	5056.78
480.326	5038.34
480.531	5028.1
480.735	5206.28
480.94	4991.24
481.144	5030.15
481.348	4948.23
481.553	4950.28
481.757	4948.23
481.961	4913.42
482.166	5036.3
482.37	5005.58
482.574	4825.36
482.778	4849.93
482.983	4972.81
483.187	4831.5
483.391	4858.12
483.595	4778.25
483.8	4800.78
484.004	5044.49
484.208	4921.61
484.412	4819.21
484.616	4940.04
484.821	4888.84
485.025	4749.58
485.229	4827.4
485.433	4782.35
485.637	4739.34
485.841	4817.16
486.045	4823.31
486.249	4841.74
486.453	4706.57
486.657	4813.07
486.861	4833.55
487.065	4733.2
487.269	4970.76
487.473	4722.96
487.677	4876.55
487.881	4905.23
488.085	4921.61
488.289	4882.7
488.493	4892.94
488.697	4831.5
488.901	4821.26
489.105	4923.66
489.309	4843.79
489.512	4911.37
489.716	4966.67
489.92	4888.84
490.124	4897.03
490.328	4899.08
490.531	4894.99
490.735	4983.05
490.939	4872.46
491.143	4999.43
491.346	4917.51
491.55	4974.86
491.754	4987.15
491.958	5114.12
492.161	5122.31
492.365	5003.53
492.569	5138.69
492.772	4901.13
492.976	5179.65
493.18	5069.06
493.383	5237
493.587	5196.04
493.79	5363.97
493.994	5079.3
494.197	5257.48
494.401	5400.83
494.605	5357.83
494.808	5335.3
495.012	5447.94
495.215	5290.24
495.419	5447.94
495.622	5525.76
495.825	5488.9
496.029	5505.28
496.232	5538.05
496.436	5398.79
496.639	5878.01
496.843	5810.43
497.046	5824.76
497.249	5794.04
497.453	6017.27
497.656	5871.87
497.859	5857.53
498.063	6047.99
498.266	6240.5
498.469	6103.29
498.673	6281.46
498.876	6367.48
499.079	6318.32
499.282	6228.21
499.485	6557.94
499.689	6514.93
499.892	6695.15
500.095	6516.98
500.298	6721.77
500.501	6705.39
500.705	6789.36
500.908	6840.56
501.111	6994.15
501.314	7145.7
501.517	7352.55
501.72	7252.2
501.923	7129.32
502.126	7340.26
502.329	7471.33
502.532	7463.14
502.735	7696.61
502.938	7655.65
503.141	7768.29
503.344	7870.69
503.547	7835.87
503.75	8169.69
503.953	8063.19
504.156	8370.39
504.359	8550.61
504.562	8132.83
504.765	8364.25
504.968	8646.87
505.17	8847.57
505.373	8751.31
505.576	8788.18
505.779	8765.65
505.982	8970.44
506.185	8970.44
506.387	9078.99
506.59	9234.63
506.793	9386.18
506.996	9519.3
507.198	9728.19
507.401	9658.56
507.604	9709.76
507.807	10031.29
508.009	9730.24
508.212	9904.32
508.415	10033.34
508.617	10141.88
508.82	10281.14
509.022	10191.03
509.225	10565.81
509.428	10447.03
509.63	10520.76
509.833	10670.26
510.035	10979.5
510.238	10711.22
510.44	11049.13
510.643	11194.54
510.845	11018.41
511.048	11114.67
511.25	11339.94
511.453	11339.94
511.655	11845.79
511.858	11538.6
512.06	11796.64
512.262	11825.31
512.465	11884.7
512.667	12220.57
512.87	12251.29
513.072	12228.76
513.274	12318.87
513.477	12529.81
513.679	12507.29
513.881	12875.92
514.084	12849.3
514.286	12851.35
514.488	12951.7
514.69	13437.06
514.893	13181.07
515.095	13211.79
515.297	13521.03
515.499	13482.12
515.701	13697.16
515.904	13725.83
516.106	13961.34
516.308	13795.46
516.51	14151.81
516.712	14221.44
516.914	14141.57
517.116	14415.99
517.318	14555.26
517.52	14631.03
517.722	14641.27
517.925	14665.85
518.127	14917.75
518.329	14762.1
518.531	14819.44
518.733	15126.64
518.935	15429.74
519.136	15460.46
519.338	15454.31
519.54	15685.73
519.742	15609.96
519.944	15779.94
520.146	16076.9
520.348	15939.68
520.55	16050.27
520.752	15921.25
520.954	16175.2
521.155	16134.24
521.357	16679
521.559	16570.46
521.761	16660.57
521.963	16812.12
522.164	16805.97
522.366	16597.08
522.568	16853.08
522.77	17059.92
522.971	17285.2
523.173	17395.79
523.375	17461.32
523.576	17047.63
523.778	17291.34
523.98	17596.49
524.181	17430.6
524.383	17510.47
524.584	17909.83
524.786	17879.11
524.988	17563.72
525.189	17926.21
525.391	17997.89
525.592	18063.43
525.794	18178.11
525.995	18126.91
526.197	17954.88
526.398	18227.26
526.6	18257.98
526.801	18595.9
527.003	18278.46
527.204	18550.84
527.406	18524.22
527.607	18309.18
527.808	18604.09
528.01	18335.81
528.211	18397.24
528.412	18677.82
528.614	18839.61
528.815	18825.27
529.016	18874.42
529.218	18561.08
529.419	18657.34
529.62	18778.17
529.822	18710.58
530.023	18794.55
530.224	18860.09
530.425	18935.86
530.626	18724.92
530.828	18671.67
531.029	18995.25
531.23	18960.44
531.431	18901.04
531.632	18884.66
531.833	19011.64
532.035	18743.35
532.236	19204.14
532.437	19148.85
532.638	18585.66
532.839	18862.13
533.04	19054.64
533.241	18489.4
533.442	19316.78
533.643	18710.58
533.844	18835.51
534.045	19179.57
534.246	18722.87
534.447	19220.53
534.648	18815.03
534.849	18804.79
535.05	19019.83
535.251	19009.59
535.451	18923.57
535.652	18927.67
535.853	18862.13
536.054	18909.24
536.255	18978.87
536.456	18776.12
536.657	18968.63
536.857	19064.88
537.058	18901.04
537.259	19171.38
537.46	18862.13
537.66	18917.43
537.861	18835.51
538.062	18907.19
538.263	18841.65
538.463	18890.81
538.664	18987.06
538.865	18942
539.065	19169.33
539.266	18874.42
539.466	19191.86
539.667	19028.02
539.868	18831.41
540.068	18968.63
540.269	18985.01
540.469	18933.81
540.67	19005.49
540.87	18884.66
541.071	18927.67
541.271	18964.53
541.472	18939.96
541.672	19077.17
541.873	18729.02
542.073	18509.88
542.274	18759.74
542.474	18620.47
542.675	18688.06
542.875	19097.65
543.075	18757.69
543.276	18645.05
543.476	18868.28
543.676	18849.85
543.877	18921.52
544.077	18718.78
544.277	18567.23
544.478	18669.62
544.678	18911.28
544.878	18698.3
545.078	18423.87
545.279	18683.96
545.479	18507.83
545.679	18804.79
545.879	18901.04
546.079	18595.9
546.28	18524.22
546.48	18528.31
546.68	18634.81
546.88	18608.19
547.08	18577.47
547.28	18726.97
547.48	18366.53
547.68	18657.34
547.88	18690.1
548.081	18262.08
548.281	18702.39
548.481	18346.05
548.681	18772.02
548.881	18487.36
549.081	18507.83
549.28	18688.06
549.48	18769.97
549.68	18556.99
549.88	18899
550.08	18645.05
550.28	18411.58
550.48	18550.84
550.68	18673.72
550.88	18382.91
551.08	18645.05
551.279	18575.42
551.479	18241.6
551.679	18583.61
551.879	18339.9
552.079	18374.72
552.278	18436.16
552.478	18548.79
552.678	18425.92
552.878	18599.99
553.077	18575.42
553.277	18137.15
553.477	18540.6
553.676	18567.23
553.876	18698.3
554.076	18178.11
554.275	18344
554.475	18153.54
554.674	18161.73
554.874	18493.5
555.074	18448.44
555.273	18450.49
555.473	18454.59
555.672	18300.99
555.872	18188.35
556.071	18520.12
556.271	18376.76
556.47	18460.73
556.67	18382.91
556.869	18559.03
557.068	18438.2
557.268	18468.92
557.467	18128.96
557.667	18339.9
557.866	18108.48
558.065	17956.93
558.265	18047.04
558.464	18051.14
558.663	18466.88
558.863	18135.1
559.062	18094.15
559.261	18171.97
559.461	18446.4
559.66	17875.01
559.859	18432.06
560.058	17893.44
560.258	17971.27
560.457	17856.58
560.656	18141.25
560.855	18016.32
561.054	18231.36
561.253	18040.9
561.453	17866.82
561.652	18274.37
561.851	18057.28
562.05	17811.53
562.249	17983.55
562.448	18038.85
562.647	17969.22
562.846	18012.23
563.045	18155.58
563.244	17932.36
563.443	18208.83
563.642	17903.68
563.841	17795.14
564.04	18026.56
564.239	17997.89
564.438	17731.65
564.637	17870.92
564.836	17662.02
565.035	17817.67
565.234	17682.5
565.432	17829.96
565.631	17610.82
565.83	17635.4
566.029	17805.38
566.228	17600.58
566.427	17854.53
566.625	17645.64
566.824	17410.12
567.023	17727.56
567.222	17565.77
567.42	17725.51
567.619	17502.28
567.818	17467.47
568.016	17498.19
568.215	17614.92
568.414	17358.92
568.612	17461.32
568.811	17530.95
569.01	17584.2
569.208	17332.3
569.407	17619.02
569.605	17389.64
569.804	17481.8
570.002	17338.44
570.201	17420.36
570.4	17379.4
570.598	17330.25
570.797	17420.36
570.995	17234
571.193	17154.13
571.392	17606.73
571.59	17190.99
571.789	17147.98
571.987	16967.76
572.186	17115.22
572.384	17211.47
572.582	17176.66
572.781	17342.54
572.979	16775.25
573.177	16978
573.376	17129.55
573.574	17025.11
573.772	17215.57
573.971	16826.45
574.169	16765.01
574.367	16904.28
574.565	16597.08
574.763	16742.49
574.962	16824.4
575.16	16666.71
575.358	16672.85
575.556	16726.1
575.754	16758.87
575.952	16541.78
576.151	16900.18
576.349	16676.95
576.547	16613.46
576.745	16435.29
576.943	16482.39
577.141	16283.74
577.339	16568.41
577.537	16271.45
577.735	16232.54
577.933	16359.52
578.131	16304.22
578.329	16480.35
578.527	16314.46
578.725	16423
578.923	16052.32
579.121	16267.36
579.319	16109.66
579.516	16113.76
579.714	16195.68
579.912	16193.63
580.11	16052.32
580.308	16031.84
580.506	15947.87
580.704	15779.94
580.901	16052.32
581.099	16091.23
581.297	16066.66
581.495	16113.76
581.692	15833.19
581.89	15878.24
582.088	15947.87
582.285	15831.14
582.483	15855.72
582.681	15622.25
582.878	15724.65
583.076	15732.84
583.274	15806.56
583.471	15818.85
583.669	15532.14
583.866	15624.29
584.064	15521.9
584.262	15466.6
584.459	15552.62
584.657	15554.66
584.854	15693.93
585.052	15566.95
585.249	15405.16
585.447	15437.93
585.644	15063.15
585.841	15415.4
586.039	15491.18
586.236	15212.65
586.434	15173.74
586.631	15183.98
586.828	15050.86
587.026	15294.57
587.223	15110.25
587.42	15042.67
587.618	15390.83
587.815	14966.9
588.012	14919.79
588.21	14788.72
588.407	14985.33
588.604	14657.65
588.801	14866.55
588.999	14919.79
589.196	14530.68
589.393	14645.37
589.59	14829.68
589.787	14614.65
589.984	14469.24
590.182	14522.49
590.379	14626.93
590.576	14524.54
590.773	14614.65
590.97	14639.22
591.167	14643.32
591.364	14493.82
591.561	14377.08
591.758	14350.46
591.955	14305.4
592.152	14135.42
592.349	14246.01
592.546	14209.15
592.743	14362.75
592.94	14080.13
593.137	14088.32
593.334	14061.69
593.531	13725.83
593.727	14272.64
593.924	14110.85
594.121	13922.43
594.318	14094.46
594.515	14004.35
594.712	14186.62
594.908	14026.88
595.105	13875.33
595.302	13738.12
595.499	13725.83
595.696	13877.38
595.892	13580.42
596.089	13666.44
596.286	13715.59
596.482	13727.88
596.679	13609.09
596.876	13713.54
597.072	13492.36
597.269	13664.39
597.466	13559.94
597.662	13189.26
597.859	13078.67
598.055	13373.58
598.252	13297.8
598.448	13574.28
598.645	13516.94
598.841	13299.85
599.038	13189.26
599.234	13230.22
599.431	13152.4
599.627	13283.47
599.824	13111.44
600.02	13164.68
600.217	12994.7
600.413	12791.95
600.609	12886.16
600.806	12949.65
601.002	13129.87
601.198	12904.59
601.395	12841.11
601.591	12927.12
601.787	12949.65
601.984	12769.43
602.18	13113.49
602.376	12908.69
602.572	12785.81
602.769	12667.03
602.965	12495
603.161	12761.23
603.357	12611.73
603.553	12726.42
603.75	12560.53
603.946	12511.38
604.142	12671.12
604.338	12527.77
604.534	12513.43
604.73	12333.21
604.926	12378.26
605.122	12744.85
605.318	12394.65
605.514	12183.71
605.71	12288.15
605.906	12451.99
606.102	12222.62
606.298	12519.57
606.494	12359.83
606.69	12253.34
606.886	12138.65
607.082	12101.79
607.278	12112.03
607.474	12015.77
607.67	12236.95
607.866	11780.26
608.062	12058.78
608.257	11823.26
608.453	11966.62
608.649	12026.01
608.845	11958.43
609.041	11962.53
609.236	12046.49
609.432	12066.97
609.628	11972.77
609.824	12032.16
610.019	11899.04
610.215	11896.99
610.411	11968.67
610.606	11772.07
610.802	11706.53
610.998	11686.05
611.193	11829.41
611.389	11628.71
611.584	11743.39
611.78	11829.41
611.976	11747.49
612.171	11892.9
612.367	11878.56
612.562	11485.35
612.758	11632.8
612.953	11518.12
613.149	11743.39
613.344	11845.79
613.539	11632.8
613.735	11641
613.93	11905.18
614.126	11657.38
614.321	11749.54
614.517	11628.71
614.712	11438.25
614.907	11575.46
615.103	11649.19
615.298	11274.41
615.493	11485.35
615.688	11413.67
615.884	11806.88
616.079	11421.86
616.274	11483.3
616.47	11321.51
616.665	11292.84
616.86	11333.8
617.055	11344.04
617.25	11188.39
617.445	11266.22
617.641	11118.76
617.836	11223.21
618.031	11104.43
618.226	11237.55
618.421	10963.12
618.616	11241.64
618.811	10903.73
619.006	11026.61
619.201	11038.89
619.396	11020.46
619.591	10627.25
619.786	11118.76
619.981	10793.14
620.176	10979.5
620.371	10729.65
620.566	10942.64
620.761	10936.49
620.956	10889.39
621.151	10715.31
621.346	10879.15
621.541	10481.85
621.735	10674.35
621.93	10451.13
622.125	10330.3
622.32	10283.19
622.515	10201.27
622.709	10404.02
622.904	10424.5
623.099	10244.28
623.294	10422.45
623.488	9965.76
623.683	10332.34
623.878	9988.28
624.072	10072.25
624.267	10014.91
624.462	9953.47
624.656	9816.26
624.851	10049.72
625.046	9793.73
625.24	9744.58
625.435	9781.44
625.629	9607.36
625.824	9742.53
626.018	9672.9
626.213	9355.46
626.407	9416.9
626.602	9461.96
626.796	9562.31
626.991	9574.6
627.185	9302.22
627.38	9406.66
627.574	9083.08
627.768	9265.35
627.963	9171.15
628.157	9007.31
628.352	9072.84
628.546	8966.35
628.74	9105.61
628.935	8808.65
629.129	8960.2
629.323	8851.66
629.517	8720.59
629.712	8689.87
629.906	8734.93
630.1	8661.2
630.294	8659.15
630.489	8837.33
630.683	8646.87
630.877	8366.29
631.071	8278.23
631.265	8509.65
631.459	8317.14
631.653	8480.98
631.848	8306.9
632.042	8114.39
632.236	8231.13
632.43	8253.66
632.624	8319.19
632.818	7966.94
633.012	8089.82
633.206	8136.92
633.4	8046.81
633.594	8069.34
633.788	7962.84
633.982	7827.68
634.176	7956.7
634.369	7768.29
634.563	7704.8
634.757	7772.38
634.951	7831.77
635.145	7760.09
635.339	7682.27
635.533	7710.94
635.726	7565.54
635.92	7522.53
636.114	7477.48
636.308	7370.98
636.501	7487.72
636.695	7383.27
636.889	7360.74
637.083	7323.88
637.276	7239.91
637.47	7233.77
637.664	7311.59
637.857	7373.03
638.051	7137.51
638.244	7096.55
638.438	7143.66
638.632	6994.15
638.825	6770.93
639.019	6902
639.212	6979.82
639.406	6949.1
639.599	6623.47
639.793	7031.02
639.986	6701.3
640.18	6668.53
640.373	6658.29
640.567	6490.35
640.76	6742.25
640.954	6516.98
641.147	6408.44
641.34	6508.79
641.534	6387.96
641.727	6445.3
641.92	6381.81
642.114	6535.41
642.307	6269.17
642.5	6361.33
642.694	6377.72
642.887	6144.25
643.08	6426.87
643.273	6201.59
643.467	6140.15
643.66	5929.21
643.853	5912.83
644.046	5996.79
644.239	5955.83
644.432	6033.66
644.626	5800.19
644.819	5873.92
645.012	5777.66
645.205	5822.72
645.398	5794.04
645.591	5792
645.784	5748.99
645.977	5572.86
646.17	5630.21
646.363	5703.93
646.556	5632.26
646.749	5558.53
646.942	5603.58
647.135	5622.02
647.328	5540.1
647.521	5480.71
647.714	5400.83
647.907	5495.04
648.099	5165.32
648.292	5472.51
648.485	5470.47
648.678	5075.21
648.871	5200.13
649.064	5220.61
649.256	5128.46
649.449	5196.04
649.642	5230.85
649.835	5112.07
650.027	5142.79
650.22	5284.1
650.413	5024.01
650.605	4976.91
650.798	4997.39
650.991	4854.03
651.183	4999.43
651.376	4948.23
651.568	4827.4
651.761	4800.78
651.954	4962.57
652.146	4870.41
652.339	4833.55
652.531	4813.07
652.724	4657.42
652.916	4587.79
653.109	4593.94
653.301	4679.95
653.494	4735.25
653.686	4550.93
653.879	4622.61
654.071	4573.46
654.263	4430.1
654.456	4559.12
654.648	4608.27
654.84	4485.39
655.033	4362.51
655.225	4464.91
655.417	4280.6
655.61	4440.34
655.802	4339.99
655.994	4421.91
656.186	4282.64
656.379	4430.1
656.571	4315.41
656.763	4288.79
656.955	4180.25
657.148	4219.16
657.34	4161.81
657.532	4129.05
657.724	4129.05
657.916	4131.09
658.108	4118.81
658.3	4122.9
658.492	4071.7
658.684	3961.11
658.876	4047.13
659.068	4016.41
659.26	4008.22
659.452	3932.44
659.644	3950.87
659.836	3862.81
660.028	3920.15
660.22	3813.66
660.412	3879.19
660.604	3737.88
660.796	3764.51
660.988	3707.16
661.18	3811.61
661.372	3834.14
661.563	3789.08
661.755	3703.07
661.947	3514.66
662.139	3782.94
662.331	3750.17
662.522	3651.87
662.714	3580.19
662.906	3565.85
663.097	3572
663.289	3627.29
663.481	3432.74
663.673	3467.55
663.864	3467.55
664.056	3526.94
664.247	3389.73
664.439	3457.31
664.631	3424.55
664.822	3514.66
665.014	3377.44
665.205	3371.3
665.397	3299.62
665.588	3273
665.78	3332.39
665.971	3373.35
666.163	3320.1
666.354	3207.46
666.546	3168.55
666.737	3254.56
666.929	3250.47
667.12	3293.48
667.311	3215.65
667.503	3229.99
667.694	3154.21
667.885	3229.99
668.077	3166.5
668.268	2945.32
668.459	3209.51
668.651	3164.45
668.842	3135.78
669.033	2945.32
669.224	3029.29
669.416	3146.02
669.607	3135.78
669.798	2988.33
669.989	3119.4
670.18	2941.22
670.371	3088.68
670.563	3074.34
670.754	2928.94
670.945	3049.77
671.136	3082.53
671.327	2879.79
671.518	2969.9
671.709	3019.05
671.9	3045.67
672.091	2920.74
672.282	2908.46
672.473	2896.17
672.664	2820.39
672.855	2828.59
673.046	2789.67
673.237	2826.54
673.428	2863.4
673.619	2775.34
673.809	2783.53
674	2943.27
674.191	2758.96
674.382	2842.92
674.573	2732.33
674.764	2763.05
674.954	2738.48
675.145	2851.11
675.336	2738.48
675.527	2746.67
675.717	2910.5
675.908	2773.29
676.099	2761
676.289	2754.86
676.48	2783.53
676.671	2724.14
676.861	2711.85
677.052	2812.2
677.243	2652.46
677.433	2691.37
677.624	2593.07
677.814	2611.5
678.005	2621.74
678.195	2781.48
678.386	2765.1
678.576	2576.69
678.767	2699.56
678.957	2707.76
679.148	2658.6
679.338	2801.96
679.529	2636.08
679.719	2634.03
679.909	2597.17
680.1	2580.78
680.29	2552.11
680.481	2548.01
680.671	2670.89
680.861	2558.25
681.052	2478.38
681.242	2586.93
681.432	2603.31
681.622	2715.95
681.813	2631.98
682.003	2568.49
682.193	2480.43
682.383	2609.45
682.573	2525.49
682.764	2410.8
682.954	2550.06
683.144	2568.49
683.334	2533.68
683.524	2443.57
683.714	2533.68
683.904	2543.92
684.094	2515.25
684.284	2486.58
684.474	2607.41
684.664	2468.14
684.854	2529.58
685.044	2564.4
685.234	2482.48
685.424	2410.8
685.614	2457.9
685.804	2611.5
685.994	2494.77
686.184	2482.48
686.374	2478.38
686.564	2576.69
686.753	2607.41
686.943	2378.03
687.133	2421.04
687.323	2357.55
687.513	2574.64
687.702	2418.99
687.892	2523.44
688.082	2345.27
688.272	2343.22
688.461	2433.33
688.651	2562.35
688.841	2404.66
689.03	2394.42
689.22	2443.57
689.41	2367.79
689.599	2236.72
689.789	2373.94
689.979	2416.94
690.168	2347.31
690.358	2277.68
690.547	2447.66
690.737	2263.35
690.926	2316.59
691.116	2294.07
691.305	2404.66
691.495	2294.07
691.684	2142.52
691.874	2255.15
692.063	2279.73
692.252	2318.64
692.442	2253.11
692.631	2298.16
692.82	2335.03
693.01	2220.34
693.199	2249.01
693.388	2294.07
693.578	2324.79
693.767	2255.15
693.956	2234.68
694.146	2193.72
694.335	2265.39
694.524	2154.8
694.713	2124.08
694.902	2232.63
695.092	2259.25
695.281	2216.24
695.47	2259.25
695.659	2326.83
695.848	2347.31
696.037	2197.81
696.226	2206
696.415	2220.34
696.604	2335.03
696.793	2249.01
696.982	2232.63
697.171	2238.77
697.36	2271.54
697.549	2128.18
697.738	2326.83
697.927	2105.65
698.116	2148.66
698.305	2277.68
698.494	2277.68
698.683	2281.78
698.872	2353.46
699.061	2261.3
699.25	2300.21
699.438	2339.12
699.627	2244.92
699.816	2324.79
700.005	2404.66
700.193	2314.55
700.382	2353.46
700.571	2359.6
700.76	2382.13
700.948	2398.51
701.137	2269.49
701.326	2335.03
701.514	2451.76
701.703	2412.85
701.892	2326.83
702.08	2382.13
702.269	2412.85
702.457	2375.99
702.646	2324.79
702.834	2414.9
703.023	2443.57
703.212	2412.85
703.4	2490.67
703.589	2357.55
703.777	2445.62
703.965	2324.79
704.154	2359.6
704.342	2406.7
704.531	2347.31
704.719	2220.34
704.907	2517.29
705.096	2392.37
705.284	2437.42
705.472	2439.47
705.661	2548.01
705.849	2314.55
706.037	2502.96
706.226	2494.77
706.414	2421.04
706.602	2418.99
706.79	2396.46
706.979	2466.1
707.167	2519.34
707.355	2314.55
707.543	2484.53
707.731	2523.44
707.919	2490.67
708.107	2500.91
708.296	2550.06
708.484	2533.68
708.672	2505.01
708.86	2556.21
709.048	2457.9
709.236	2492.72
709.424	2486.58
709.612	2472.24
709.8	2439.47
709.988	2476.34
710.176	2584.88
710.364	2584.88
710.551	2500.91
710.739	2566.45
710.927	2591.02
711.115	2457.9
711.303	2631.98
711.491	2574.64
711.679	2484.53
711.866	2613.55
712.054	2521.39
712.242	2525.49
712.43	2574.64
712.617	2597.17
712.805	2588.97
712.993	2552.11
713.181	2588.97
713.368	2627.89
713.556	2541.87
713.744	2548.01
713.931	2711.85
714.119	2709.8
714.306	2519.34
714.494	2599.21
714.682	2509.1
714.869	2552.11
715.057	2615.6
715.244	2486.58
715.432	2552.11
715.619	2529.58
715.807	2681.13
715.994	2455.86
716.182	2482.48
716.369	2521.39
716.556	2650.41
716.744	2545.97
716.931	2388.27
717.119	2621.74
717.306	2584.88
717.493	2584.88
717.681	2459.95
717.868	2591.02
718.055	2523.44
718.242	2545.97
718.43	2654.51
718.617	2494.77
718.804	2533.68
718.991	2556.21
719.179	2623.79
719.366	2648.36
719.553	2670.89
719.74	2591.02
719.927	2560.3
720.114	2640.17
720.301	2558.25
720.488	2603.31
720.676	2533.68
720.863	2677.04
721.05	2644.27
721.237	2556.21
721.424	2644.27
721.611	2582.83
721.798	2492.72
721.985	2586.93
722.172	2509.1
722.358	2572.59
722.545	2658.6
722.732	2572.59
722.919	2558.25
723.106	2533.68
723.293	2621.74
723.48	2609.45
723.667	2718
723.853	2570.54
724.04	2662.7
724.227	2609.45
724.414	2492.72
724.6	2609.45
724.787	2513.2
724.974	2539.82
725.161	2611.5
725.347	2421.04
725.534	2679.08
725.72	2679.08
725.907	2521.39
726.094	2564.4
726.28	2455.86
726.467	2550.06
726.653	2490.67
726.84	2564.4
727.027	2613.55
727.213	2578.73
727.4	2603.31
727.586	2445.62
727.773	2517.29
727.959	2511.15
728.145	2644.27
728.332	2574.64
728.518	2474.29
728.705	2535.73
728.891	2648.36
729.077	2621.74
729.264	2525.49
729.45	2527.53
729.636	2511.15
729.823	2453.81
730.009	2621.74
730.195	2640.17
730.382	2629.93
730.568	2523.44
730.754	2511.15
730.94	2525.49
731.126	2519.34
731.313	2478.38
731.499	2556.21
731.685	2519.34
731.871	2623.79
732.057	2402.61
732.243	2560.3
732.429	2335.03
732.615	2584.88
732.801	2484.53
732.987	2394.42
733.173	2455.86
733.359	2423.09
733.545	2361.65
733.731	2502.96
733.917	2554.16
734.103	2472.24
734.289	2615.6
734.475	2326.83
734.661	2488.62
734.847	2492.72
735.033	2363.7
735.219	2382.13
735.404	2427.18
735.59	2371.89
735.776	2416.94
735.962	2535.73
736.148	2476.34
736.333	2443.57
736.519	2357.55
736.705	2400.56
736.89	2296.11
737.076	2408.75
737.262	2347.31
737.447	2341.17
737.633	2332.98
737.819	2265.39
738.004	2249.01
738.19	2316.59
738.375	2418.99
738.561	2474.29
738.747	2195.76
738.932	2246.96
739.118	2482.48
739.303	2386.22
739.489	2410.8
739.674	2347.31
739.859	2292.02
740.045	2320.69
740.23	2304.31
740.416	2144.56
740.601	2330.93
740.786	2302.26
740.972	2246.96
741.157	2189.62
741.342	2232.63
741.528	2150.71
741.713	2091.32
741.898	2122.04
742.084	2175.28
742.269	2095.41
742.454	2093.37
742.639	2128.18
742.824	2163
743.01	2273.59
743.195	2238.77
743.38	1997.11
743.565	2173.24
743.75	2044.21
743.935	2167.09
744.12	2150.71
744.305	1943.86
744.49	2033.97
744.675	1982.78
744.86	2019.64
745.045	2062.65
745.23	2089.27
745.415	1943.86
745.6	1950.01
745.785	1915.19
745.97	1970.49
746.155	1933.62
746.34	1904.95
746.525	1966.39
746.71	2046.26
746.895	1882.42
747.079	1863.99
747.264	1845.56
747.449	1935.67
747.634	1851.71
747.819	1847.61
748.003	1919.29
748.188	1798.46
748.373	1925.43
748.557	1812.79
748.742	1820.99
748.927	1792.31
749.111	1677.63
749.296	1812.79
749.481	1812.79
749.665	1847.61
749.85	1806.65
750.034	1794.36
750.219	1761.59
750.404	1616.19
750.588	1657.15
750.773	1657.15
750.957	1603.9
751.141	1720.64
751.326	1741.11
751.51	1589.57
751.695	1575.23
751.879	1651
752.064	1651
752.248	1622.33
752.432	1614.14
752.617	1519.93
752.801	1558.85
752.985	1548.61
753.17	1710.4
753.354	1691.96
753.538	1483.07
753.722	1489.21
753.907	1536.32
754.091	1485.12
754.275	1476.93
754.459	1478.97
754.643	1515.84
754.828	1493.31
755.012	1425.73
755.196	1458.5
755.38	1429.82
755.564	1405.25
755.748	1401.15
755.932	1429.82
756.116	1388.86
756.3	1458.5
756.484	1481.02
756.668	1333.57
756.852	1220.93
757.036	1349.95
757.22	1392.96
757.404	1345.86
757.588	1268.03
757.772	1360.19
757.956	1253.7
758.14	1276.23
758.323	1270.08
758.507	1366.34
758.691	1304.9
758.875	1218.88
759.059	1300.8
759.242	1268.03
759.426	1245.51
759.61	1257.79
759.794	1151.3
759.977	1354.05
760.161	1294.66
760.345	1237.31
760.528	1139.01
760.712	1290.56
760.895	1182.02
761.079	1171.78
761.263	1163.59
761.446	1134.92
761.63	1175.88
761.813	1227.07
761.997	1198.4
762.18	1169.73
762.364	1204.55
762.547	1151.3
762.731	1141.06
762.914	1118.53
763.098	1112.39
763.281	1188.16
763.464	1165.64
763.648	1026.37
763.831	1102.15
764.015	1081.67
764.198	1141.06
764.381	1065.29
764.564	1085.76
764.748	1034.57
764.931	1087.81
765.114	1089.86
765.297	1075.52
765.481	1040.71
765.664	1038.66
765.847	911.69
766.03	1106.24
766.213	973.13
766.397	1071.43
766.58	1055.05
766.763	1024.33
766.946	1065.29
767.129	1001.8
767.312	952.65
767.495	899.4
767.678	928.07
767.861	977.22
768.044	1005.89
768.227	983.37
768.41	966.98
768.593	952.65
768.776	944.45
768.959	905.54
769.142	1030.47
769.324	907.59
769.507	911.69
769.69	985.41
769.873	864.58
770.056	997.7
770.239	981.32
770.421	975.17
770.604	899.4
770.787	936.26
770.97	938.31
771.152	815.43
771.335	964.93
771.518	880.97
771.7	981.32
771.883	1012.04
772.066	870.73
772.248	897.35
772.431	930.12
772.613	891.21
772.796	868.68
772.978	921.93
773.161	930.12
773.343	893.26
773.526	815.43
773.708	741.71
773.891	868.68
774.073	874.82
774.256	801.1
774.438	934.22
774.621	692.55
774.803	827.72
774.985	784.71
775.168	831.82
775.35	809.29
775.532	741.71
775.715	786.76
775.897	762.19
776.079	723.27
776.261	797
776.444	776.52
776.626	753.99
776.808	708.94
776.99	676.17
777.173	639.31
777.355	723.27
777.537	670.03
777.719	684.36
777.901	751.95
778.083	797
778.265	616.78
778.447	756.04
778.629	737.61
778.811	686.41
778.993	762.19
779.175	715.08
779.357	768.33
779.539	639.31
779.721	575.82
779.903	690.51
780.085	606.54
780.267	698.7
780.449	715.08
780.631	684.36
780.812	635.21
780.994	647.5
781.176	647.5
781.358	600.4
781.54	631.12
781.721	575.82
781.903	651.6
782.085	532.81
782.267	678.22
782.448	575.82
782.63	612.68
782.812	604.49
782.993	559.44
783.175	676.17
783.357	563.53
783.538	606.54
783.72	567.63
783.901	530.77
784.083	569.68
784.264	592.2
784.446	430.41
784.627	549.2
784.809	520.53
784.99	463.18
785.172	524.62
785.353	528.72
785.535	518.48
785.716	485.71
785.897	454.99
786.079	526.67
786.26	442.7
786.441	508.24
786.623	371.02
786.804	489.81
786.985	438.61
787.167	502.09
787.348	399.7
787.529	440.65
787.71	532.81
787.891	498
788.073	463.18
788.254	418.13
788.435	479.57
788.616	432.46
788.797	403.79
788.978	434.51
789.159	383.31
789.34	444.75
789.522	387.41
789.703	387.41
789.884	319.82
790.065	442.7
790.246	414.03
790.427	354.64
790.607	444.75
790.788	409.94
790.969	352.59
791.15	436.56
791.331	266.58
791.512	350.54
791.693	342.35
791.874	397.65
792.054	500.05
792.235	358.74
792.416	397.65
792.597	278.87
792.778	375.12
792.958	280.91
793.139	403.79
793.32	330.06
793.5	305.49
793.681	444.75
793.862	407.89
794.042	389.46
794.223	287.06
794.404	289.1
794.584	303.44
794.765	319.82
794.945	334.16
795.126	338.26
795.306	371.02
795.487	293.2
795.667	260.43
795.848	338.26
796.028	358.74
796.209	309.58
796.389	276.82
796.57	287.06
796.75	266.58
796.93	364.88
797.111	235.86
797.291	201.04
797.471	358.74
797.652	285.01
797.832	289.1
798.012	330.06
798.192	225.62
798.373	264.53
798.553	334.16
798.733	280.91
798.913	272.72
799.093	219.47
799.274	244.05
799.454	409.94
799.634	321.87
799.814	313.68
799.994	217.43
800.174	291.15
800.354	264.53
800.534	172.37
800.714	287.06
800.894	225.62
801.074	225.62
801.254	260.43
801.434	254.29
801.614	262.48
801.794	186.71
801.974	1294.66
802.154	139.6
802.334	346.45
802.514	233.81
802.693	280.91
802.873	256.34
803.053	317.78
803.233	252.24
803.413	213.33
803.592	229.71
803.772	278.87
803.952	194.9
804.131	180.56
804.311	268.63
804.491	266.58
804.67	164.18
804.85	205.14
805.03	256.34
805.209	305.49
805.389	231.76
805.568	223.57
805.748	160.08
805.928	231.76
806.107	246.1
806.287	225.62
806.466	213.33
806.646	131.41
806.825	215.38
807.004	188.75
807.184	219.47
807.363	282.96
807.543	254.29
807.722	80.21
807.901	248.15
808.081	225.62
808.26	119.12
808.439	250.19
808.619	188.75
808.798	147.8
808.977	213.33
809.156	227.67
809.336	248.15
809.515	211.28
809.694	110.93
809.873	184.66
810.052	248.15
810.231	151.89
810.411	276.82
810.59	215.38
810.769	242
810.948	139.6
811.127	180.56
811.306	162.13
811.485	125.27
811.664	248.15
811.843	233.81
812.022	231.76
812.201	121.17
812.38	223.57
812.559	166.23
812.737	205.14
812.916	96.6
813.095	147.8
813.274	217.43
813.453	141.65
813.632	119.12
813.811	231.76
813.989	133.46
814.168	160.08
814.347	61.78
814.526	119.12
814.704	227.67
814.883	264.53
815.062	108.88
815.24	186.71
815.419	82.26
815.598	198.99
815.776	119.12
815.955	149.84
816.133	76.12
816.312	112.98
816.49	104.79
816.669	158.03
816.847	151.89
817.026	90.45
817.204	182.61
817.383	119.12
817.561	104.79
817.74	186.71
817.918	180.56
818.097	119.12
818.275	59.73
818.453	184.66
818.632	117.08
818.81	168.27
818.988	119.12
819.167	104.79
819.345	155.99
819.523	82.26
819.701	92.5
819.879	194.9
820.058	151.89
820.236	139.6
820.414	110.93
820.592	147.8
820.77	57.68
820.948	98.64
821.127	125.27
821.305	147.8
821.483	57.68
821.661	158.03
821.839	102.74
822.017	112.98
822.195	90.45
822.373	184.66
822.551	158.03
822.729	131.41
822.907	98.64
823.085	139.6
823.262	90.45
823.44	115.03
823.618	96.6
823.796	108.88
823.974	59.73
824.152	57.68
824.329	76.12
824.507	47.44
824.685	100.69
824.863	139.6
825.04	123.22
825.218	78.16
825.396	143.7
825.574	121.17
825.751	100.69
825.929	135.51
826.107	22.87
826.284	119.12
826.462	117.08
826.639	80.21
826.817	90.45
826.994	96.6
827.172	72.02
827.349	170.32
827.527	84.31
827.704	174.42
827.882	16.73
828.059	135.51
828.237	131.41
828.414	92.5
828.591	22.87
828.769	76.12
828.946	29.01
829.124	47.44
829.301	211.28
829.478	108.88
829.655	145.75
829.833	2.39
830.01	80.21
830.187	51.54
830.364	61.78
830.542	90.45
830.719	102.74
830.896	137.56
831.073	106.84
831.25	18.77
831.427	61.78
831.604	55.64
831.782	80.21
831.959	69.97
832.136	59.73
832.313	125.27
832.49	108.88
832.667	141.65
832.844	20.82
833.021	153.94
833.198	82.26
833.374	74.07
833.551	98.64
833.728	86.36
833.905	121.17
834.082	-30.38
834.259	125.27
834.436	72.02
834.612	29.01
834.789	104.79
834.966	76.12
835.143	94.55
835.319	47.44
835.496	86.36
835.673	149.84
835.85	155.99
836.026	96.6
836.203	119.12
836.38	47.44
836.556	45.4
836.733	53.59
836.909	119.12
837.086	0.34
837.262	31.06
837.439	29.01
837.616	10.58
837.792	47.44
837.968	12.63
838.145	-7.85
838.321	117.08
838.498	96.6
838.674	53.59
838.851	67.92
839.027	43.35
839.203	139.6
839.38	112.98
839.556	-13.99
839.732	78.16
839.909	72.02
840.085	74.07
840.261	-5.8
840.437	18.77
840.614	69.97
840.79	59.73
840.966	43.35
841.142	-3.75
841.318	108.88
841.494	76.12
841.671	4.44
841.847	59.73
842.023	-28.33
842.199	151.89
842.375	121.17
842.551	10.58
842.727	65.88
842.903	57.68
843.079	-13.99
843.255	100.69
843.431	59.73
843.607	55.64
843.783	-16.04
843.959	164.18
844.134	-13.99
844.31	170.32
844.486	-22.19
844.662	47.44
844.838	41.3
845.013	102.74
845.189	63.83
845.365	8.53
845.541	92.5
845.716	45.4
845.892	115.03
846.068	0.34
846.244	29.01
846.419	45.4
846.595	-59.05
846.77	24.92
846.946	92.5
847.122	65.88
847.297	-22.19
847.473	74.07
847.648	43.35
847.824	65.88
847.999	-22.19
848.175	72.02
848.35	110.93
848.526	133.46
848.701	24.92
848.876	45.4
849.052	96.6
849.227	18.77
849.403	-24.23
849.578	-61.1
849.753	4.44
849.929	41.3
850.104	-34.47
850.279	0.34
850.454	37.2
850.63	84.31
850.805	-11.95
850.98	-28.33
851.155	-5.8
851.33	29.01
851.505	-11.95
851.681	149.84
851.856	16.73
852.031	72.02
852.206	10.58
852.381	45.4
852.556	6.49
852.731	49.49
852.906	92.5
853.081	72.02
853.256	86.36
853.431	63.83
853.606	8.53
853.781	74.07
853.956	6.49
854.131	-28.33
854.305	-9.9
854.48	-38.57
854.655	-46.76
854.83	-3.75
855.005	4.44
855.18	-7.85
855.354	4.44
855.529	18.77
855.704	-16.04
855.879	92.5
856.053	51.54
856.228	63.83
856.403	0.34
856.577	61.78
856.752	-20.14
856.926	20.82
857.101	-28.33
857.276	-18.09
857.45	18.77
857.625	63.83
857.799	61.78
857.974	61.78
858.148	-16.04
858.323	45.4
858.497	14.68
858.672	24.92
858.846	-34.47
859.02	59.73
859.195	-75.43
859.369	35.16
859.543	47.44
859.718	16.73
859.892	86.36
860.066	14.68
860.241	-18.09
860.415	57.68
860.589	63.83
860.763	6.49
860.938	-67.24
861.112	-26.28
861.286	26.96
861.46	35.16
861.634	18.77
861.808	37.2
861.982	-32.43
862.157	-7.85
862.331	-40.62
862.505	-22.19
862.679	-13.99
862.853	4.44
863.027	51.54
863.201	45.4
863.375	-24.23
863.549	37.2
863.722	14.68
863.896	20.82
864.07	37.2
864.244	-44.71
864.418	57.68
864.592	-5.8
864.766	20.82
864.939	55.64
865.113	-36.52
865.287	67.92
865.461	12.63
865.634	29.01
865.808	-9.9
865.982	14.68
866.156	-5.8
866.329	55.64
866.503	-44.71
866.676	102.74
866.85	8.53
867.024	-11.95
867.197	69.97
867.371	96.6
867.544	14.68
867.718	-28.33
867.891	59.73
868.065	-83.63
868.238	37.2
868.412	37.2
868.585	26.96
868.759	20.82
868.932	4.44
869.105	-26.28
869.279	8.53
869.452	-38.57
869.625	51.54
869.799	10.58
869.972	-77.48
870.145	26.96
870.319	55.64
870.492	6.49
870.665	2.39
870.838	-73.39
871.011	-81.58
871.185	-28.33
871.358	-52.91
871.531	24.92
871.704	-38.57
871.877	31.06
872.05	-20.14
872.223	-38.57
872.396	22.87
872.569	80.21
872.742	49.49
872.915	29.01
873.088	8.53
873.261	-69.29
873.434	37.2
873.607	51.54
873.78	78.16
873.953	-83.63
874.126	-28.33
874.299	55.64
874.471	-22.19
874.644	12.63
874.817	69.97
874.99	135.51
875.163	14.68
875.335	55.64
875.508	4.44
875.681	86.36
875.853	-40.62
876.026	18.77
876.199	80.21
876.371	16.73
876.544	-34.47
876.717	33.11
876.889	-28.33
877.062	82.26
877.234	16.73
877.407	-9.9
877.579	47.44
877.752	-5.8
877.924	-20.14
878.097	-5.8
878.269	33.11
878.442	67.92
878.614	16.73
878.786	43.35
878.959	-26.28
879.131	-18.09
879.303	-124.58
879.476	-7.85
879.648	90.45
879.82	-7.85
879.993	12.63
880.165	-9.9
880.337	-3.75
880.509	-13.99
880.681	-110.25
880.854	-18.09
881.026	67.92
881.198	76.12
881.37	53.59
881.542	-40.62
881.714	4.44
881.886	-5.8
882.058	-63.15
882.23	74.07
882.402	-22.19
882.574	55.64
882.746	24.92
882.918	78.16
883.09	92.5
883.262	-26.28
883.434	10.58
883.606	-42.67
883.778	41.3
883.95	69.97
884.122	26.96
884.293	61.78
884.465	0.34
884.637	39.25
884.809	-36.52
884.98	51.54
885.152	33.11
885.324	24.92
885.496	22.87
885.667	-54.95
885.839	-44.71
886.011	104.79
886.182	18.77
886.354	47.44
886.525	-65.19
886.697	-3.75
886.869	8.53
887.04	16.73
887.212	33.11
887.383	47.44
887.555	0.34
887.726	-20.14
887.897	20.82
888.069	-18.09
888.24	-5.8
888.412	37.2
888.583	-1.71
888.754	-1.71
888.926	-81.58
889.097	-52.91
889.268	-97.96
889.44	43.35
889.611	-46.76
889.782	6.49
889.953	-32.43
890.125	110.93
890.296	-40.62
890.467	-7.85
890.638	-59.05
890.809	33.11
890.98	-87.72
891.151	49.49
891.323	96.6
891.494	0.34
891.665	26.96
891.836	-34.47
892.007	-36.52
892.178	0.34
892.349	2.39
892.52	-42.67
892.691	39.25
892.862	-71.34
893.032	-100.01
893.203	57.68
893.374	-7.85
893.545	20.82
893.716	-7.85
893.887	18.77
894.057	-3.75
894.228	6.49
894.399	-46.76
894.57	55.64
894.74	39.25
894.911	26.96
895.082	-81.58
895.253	-24.23
895.423	0.34
895.594	47.44
895.764	22.87
895.935	-38.57
896.106	69.97
896.276	4.44
896.447	31.06
896.617	-87.72
896.788	-3.75
896.958	-5.8
897.129	-57
897.299	-61.1
897.47	65.88
897.64	65.88
897.81	69.97
897.981	94.55
898.151	-73.39
898.322	69.97
898.492	39.25
898.662	-16.04
898.832	-40.62
899.003	-28.33
899.173	-16.04
899.343	20.82
899.513	-50.86
