Data from USB4F104151__93__12-54-55-007.txt Node

Date: Fri Mar 14 12:54:55 EDT 2025
User: louis
Spectrometer: USB4F10415
Trigger mode: 4
Integration Time (sec): 1.000000E-2
Scans to average: 1
Electric dark correction enabled: true
Nonlinearity correction enabled: false
Boxcar width: 0
XAxis mode: Wavelengths
Number of Pixels in Spectrum: 3648
>>>>>Begin Spectral Data<<<<<
178.204	-37.03
178.424	-37.03
178.644	-37.03
178.864	1.88
179.084	-2.22
179.304	26.45
179.524	22.36
179.744	-43.18
179.964	-12.46
180.184	16.21
180.404	20.31
180.624	-32.94
180.844	-26.79
181.064	-41.13
181.283	-4.27
181.503	71.51
181.723	3.93
181.943	-14.51
182.163	40.79
182.383	20.31
182.602	77.65
182.822	44.88
183.042	77.65
183.262	42.84
183.482	-12.46
183.701	96.08
183.921	85.84
184.141	-30.89
184.361	61.27
184.58	-0.17
184.8	26.45
185.02	5.97
185.239	8.02
185.459	-49.32
185.679	67.41
185.898	40.79
186.118	8.02
186.338	75.6
186.557	63.32
186.777	-45.23
186.997	40.79
187.216	-41.13
187.436	59.22
187.655	55.12
187.875	26.45
188.095	-2.22
188.314	59.22
188.534	34.64
188.753	14.17
188.973	12.12
189.192	40.79
189.412	26.45
189.631	12.12
189.851	-28.84
190.07	32.6
190.29	-61.61
190.509	-2.22
190.729	30.55
190.948	-20.65
191.168	38.74
191.387	34.64
191.607	22.36
191.826	69.46
192.045	12.12
192.265	-4.27
192.484	24.4
192.704	63.32
192.923	36.69
193.142	53.08
193.362	-22.7
193.581	40.79
193.8	20.31
194.02	48.98
194.239	114.52
194.458	77.65
194.678	-14.51
194.897	34.64
195.116	38.74
195.335	-6.31
195.555	40.79
195.774	34.64
195.993	-22.7
196.212	130.9
196.432	53.08
196.651	55.12
196.87	44.88
197.089	46.93
197.308	98.13
197.528	102.23
197.747	-12.46
197.966	53.08
198.185	77.65
198.404	57.17
198.623	-4.27
198.842	12.12
199.062	22.36
199.281	46.93
199.5	-30.89
199.719	73.56
199.938	22.36
200.157	38.74
200.376	46.93
200.595	28.5
200.814	-18.6
201.033	-14.51
201.252	120.66
201.471	32.6
201.69	1.88
201.909	12.12
202.128	-30.89
202.347	5.97
202.566	-24.75
202.785	-8.36
203.004	30.55
203.223	44.88
203.442	48.98
203.661	-22.7
203.879	81.75
204.098	69.46
204.317	-10.41
204.536	-43.18
204.755	16.21
204.974	96.08
205.193	63.32
205.411	69.46
205.63	81.75
205.849	28.5
206.068	-4.27
206.287	30.55
206.505	77.65
206.724	-8.36
206.943	-34.99
207.162	40.79
207.381	24.4
207.599	89.94
207.818	48.98
208.037	83.8
208.255	-16.55
208.474	32.6
208.693	59.22
208.911	1.88
209.13	-28.84
209.349	20.31
209.567	14.17
209.786	20.31
210.005	24.4
210.223	53.08
210.442	8.02
210.661	-8.36
210.879	24.4
211.098	24.4
211.316	24.4
211.535	36.69
211.753	-4.27
211.972	-6.31
212.191	38.74
212.409	83.8
212.628	12.12
212.846	48.98
213.065	53.08
213.283	-10.41
213.502	69.46
213.72	77.65
213.938	53.08
214.157	12.12
214.375	-20.65
214.594	3.93
214.812	63.32
215.031	-67.75
215.249	18.26
215.467	-8.36
215.686	24.4
215.904	1.88
216.122	65.36
216.341	-2.22
216.559	67.41
216.778	14.17
216.996	20.31
217.214	-2.22
217.432	14.17
217.651	87.89
217.869	14.17
218.087	69.46
218.306	-6.31
218.524	-16.55
218.742	-2.22
218.96	-4.27
219.179	-4.27
219.397	-14.51
219.615	102.23
219.833	28.5
220.051	44.88
220.27	34.64
220.488	12.12
220.706	46.93
220.924	44.88
221.142	61.27
221.36	71.51
221.578	63.32
221.796	32.6
222.015	-10.41
222.233	-4.27
222.451	-45.23
222.669	65.36
222.887	102.23
223.105	51.03
223.323	28.5
223.541	44.88
223.759	22.36
223.977	1.88
224.195	-16.55
224.413	-8.36
224.631	30.55
224.849	46.93
225.067	106.32
225.285	24.4
225.503	46.93
225.721	63.32
225.939	34.64
226.157	149.33
226.375	83.8
226.592	42.84
226.81	14.17
227.028	67.41
227.246	69.46
227.464	24.4
227.682	61.27
227.9	-43.18
228.117	59.22
228.335	3.93
228.553	-28.84
228.771	-24.75
228.989	30.55
229.206	38.74
229.424	14.17
229.642	1.88
229.86	34.64
230.077	-2.22
230.295	-0.17
230.513	-0.17
230.731	26.45
230.948	-32.94
231.166	36.69
231.384	46.93
231.601	-16.55
231.819	73.56
232.037	5.97
232.254	22.36
232.472	30.55
232.689	-2.22
232.907	16.21
233.125	-39.08
233.342	30.55
233.56	10.07
233.777	53.08
233.995	14.17
234.213	8.02
234.43	-0.17
234.648	38.74
234.865	24.4
235.083	48.98
235.3	73.56
235.518	112.47
235.735	28.5
235.953	26.45
236.17	-32.94
236.388	-45.23
236.605	-14.51
236.822	42.84
237.04	-20.65
237.257	-12.46
237.475	26.45
237.692	-73.9
237.909	14.17
238.127	40.79
238.344	38.74
238.562	63.32
238.779	-0.17
238.996	59.22
239.214	53.08
239.431	114.52
239.648	-26.79
239.865	24.4
240.083	1.88
240.3	28.5
240.517	3.93
240.735	61.27
240.952	26.45
241.169	24.4
241.386	-30.89
241.603	32.6
241.821	44.88
242.038	-30.89
242.255	44.88
242.472	30.55
242.689	71.51
242.907	85.84
243.124	16.21
243.341	28.5
243.558	3.93
243.775	85.84
243.992	79.7
244.209	55.12
244.426	-28.84
244.643	-16.55
244.86	53.08
245.078	-28.84
245.295	-10.41
245.512	83.8
245.729	-12.46
245.946	22.36
246.163	32.6
246.38	63.32
246.597	8.02
246.814	-8.36
247.031	-20.65
247.248	75.6
247.464	57.17
247.681	16.21
247.898	5.97
248.115	5.97
248.332	36.69
248.549	22.36
248.766	65.36
248.983	-10.41
249.2	51.03
249.417	77.65
249.633	-34.99
249.85	-18.6
250.067	42.84
250.284	34.64
250.501	94.04
250.717	57.17
250.934	77.65
251.151	53.08
251.368	30.55
251.585	28.5
251.801	1.88
252.018	-2.22
252.235	-28.84
252.451	38.74
252.668	51.03
252.885	40.79
253.102	-8.36
253.318	22.36
253.535	18.26
253.752	-16.55
253.968	38.74
254.185	5.97
254.401	104.28
254.618	22.36
254.835	20.31
255.051	59.22
255.268	-0.17
255.484	-12.46
255.701	3.93
255.917	8.02
256.134	-106.67
256.351	20.31
256.567	-16.55
256.784	-34.99
257	-18.6
257.217	18.26
257.433	71.51
257.65	-20.65
257.866	8.02
258.082	14.17
258.299	79.7
258.515	-22.7
258.732	16.21
258.948	3.93
259.165	44.88
259.381	-30.89
259.597	85.84
259.814	98.13
260.03	-2.22
260.246	-41.13
260.463	26.45
260.679	26.45
260.895	26.45
261.112	69.46
261.328	1.88
261.544	77.65
261.761	46.93
261.977	-14.51
262.193	-28.84
262.409	3.93
262.626	24.4
262.842	69.46
263.058	1.88
263.274	59.22
263.49	53.08
263.707	16.21
263.923	28.5
264.139	-0.17
264.355	28.5
264.571	63.32
264.787	40.79
265.004	-28.84
265.22	16.21
265.436	30.55
265.652	-28.84
265.868	53.08
266.084	10.07
266.3	20.31
266.516	75.6
266.732	-16.55
266.948	-0.17
267.164	8.02
267.38	-80.04
267.596	38.74
267.812	22.36
268.028	44.88
268.244	53.08
268.46	34.64
268.676	-12.46
268.892	8.02
269.108	-12.46
269.324	40.79
269.54	32.6
269.756	-16.55
269.972	-6.31
270.188	42.84
270.403	36.69
270.619	-28.84
270.835	53.08
271.051	100.18
271.267	98.13
271.483	-67.75
271.698	22.36
271.914	53.08
272.13	24.4
272.346	34.64
272.562	48.98
272.777	-26.79
272.993	3.93
273.209	-20.65
273.425	38.74
273.64	61.27
273.856	67.41
274.072	-12.46
274.287	-2.22
274.503	71.51
274.719	26.45
274.934	22.36
275.15	85.84
275.366	36.69
275.581	48.98
275.797	87.89
276.012	55.12
276.228	38.74
276.444	-8.36
276.659	61.27
276.875	-34.99
277.09	30.55
277.306	16.21
277.521	75.6
277.737	44.88
277.952	81.75
278.168	38.74
278.383	44.88
278.599	14.17
278.814	36.69
279.03	-37.03
279.245	75.6
279.461	-20.65
279.676	42.84
279.892	10.07
280.107	-18.6
280.322	14.17
280.538	16.21
280.753	-2.22
280.969	40.79
281.184	48.98
281.399	36.69
281.615	71.51
281.83	24.4
282.045	-24.75
282.26	5.97
282.476	48.98
282.691	110.42
282.906	44.88
283.122	28.5
283.337	20.31
283.552	44.88
283.767	61.27
283.983	46.93
284.198	71.51
284.413	63.32
284.628	18.26
284.843	-4.27
285.058	46.93
285.274	14.17
285.489	-32.94
285.704	40.79
285.919	-24.75
286.134	108.37
286.349	-73.9
286.564	10.07
286.779	57.17
286.995	20.31
287.21	-6.31
287.425	42.84
287.64	73.56
287.855	38.74
288.07	-55.47
288.285	98.13
288.5	-10.41
288.715	-16.55
288.93	-12.46
289.145	-51.37
289.36	-75.95
289.575	12.12
289.79	14.17
290.004	30.55
290.219	8.02
290.434	40.79
290.649	100.18
290.864	40.79
291.079	44.88
291.294	28.5
291.509	67.41
291.724	-37.03
291.938	53.08
292.153	-43.18
292.368	-30.89
292.583	61.27
292.798	73.56
293.012	-16.55
293.227	36.69
293.442	-18.6
293.657	-14.51
293.871	24.4
294.086	51.03
294.301	36.69
294.516	-24.75
294.73	-32.94
294.945	26.45
295.16	69.46
295.374	-32.94
295.589	10.07
295.804	30.55
296.018	-69.8
296.233	55.12
296.447	53.08
296.662	48.98
296.877	44.88
297.091	85.84
297.306	-8.36
297.52	61.27
297.735	63.32
297.949	1.88
298.164	65.36
298.378	22.36
298.593	65.36
298.807	-18.6
299.022	-6.31
299.236	42.84
299.451	61.27
299.665	38.74
299.88	65.36
300.094	-6.31
300.309	-55.47
300.523	38.74
300.737	24.4
300.952	26.45
301.166	36.69
301.381	-37.03
301.595	-2.22
301.809	10.07
302.024	-4.27
302.238	20.31
302.452	65.36
302.667	42.84
302.881	5.97
303.095	42.84
303.309	28.5
303.524	22.36
303.738	94.04
303.952	14.17
304.166	-14.51
304.381	46.93
304.595	16.21
304.809	44.88
305.023	-2.22
305.237	63.32
305.452	30.55
305.666	-43.18
305.88	51.03
306.094	137.04
306.308	32.6
306.522	-6.31
306.736	-4.27
306.95	98.13
307.164	20.31
307.379	91.99
307.593	51.03
307.807	65.36
308.021	30.55
308.235	81.75
308.449	22.36
308.663	-0.17
308.877	59.22
309.091	59.22
309.305	26.45
309.519	-41.13
309.733	34.64
309.947	12.12
310.161	42.84
310.374	32.6
310.588	79.7
310.802	59.22
311.016	-12.46
311.23	10.07
311.444	73.56
311.658	-43.18
311.872	-2.22
312.085	24.4
312.299	53.08
312.513	55.12
312.727	-0.17
312.941	77.65
313.154	8.02
313.368	75.6
313.582	-53.42
313.796	36.69
314.009	-6.31
314.223	18.26
314.437	-20.65
314.651	34.64
314.864	-32.94
315.078	-41.13
315.292	20.31
315.505	-14.51
315.719	96.08
315.933	30.55
316.146	14.17
316.36	8.02
316.573	75.6
316.787	-0.17
317.001	-6.31
317.214	22.36
317.428	-34.99
317.641	28.5
317.855	26.45
318.068	34.64
318.282	28.5
318.495	40.79
318.709	20.31
318.922	-47.27
319.136	55.12
319.349	112.47
319.563	143.19
319.776	5.97
319.99	20.31
320.203	10.07
320.417	36.69
320.63	-37.03
320.843	75.6
321.057	14.17
321.27	24.4
321.483	8.02
321.697	89.94
321.91	65.36
322.124	36.69
322.337	-20.65
322.55	5.97
322.763	28.5
322.977	14.17
323.19	-8.36
323.403	20.31
323.617	61.27
323.83	-10.41
324.043	98.13
324.256	79.7
324.469	-24.75
324.683	46.93
324.896	-8.36
325.109	59.22
325.322	-26.79
325.535	8.02
325.748	38.74
325.962	-2.22
326.175	22.36
326.388	61.27
326.601	57.17
326.814	61.27
327.027	14.17
327.24	53.08
327.453	34.64
327.666	48.98
327.879	34.64
328.092	36.69
328.305	-41.13
328.518	-24.75
328.731	59.22
328.944	128.85
329.157	3.93
329.37	32.6
329.583	-4.27
329.796	38.74
330.009	8.02
330.222	53.08
330.435	57.17
330.648	1.88
330.861	16.21
331.073	87.89
331.286	-0.17
331.499	-37.03
331.712	-4.27
331.925	28.5
332.138	46.93
332.35	48.98
332.563	-6.31
332.776	63.32
332.989	65.36
333.202	5.97
333.414	12.12
333.627	91.99
333.84	-28.84
334.053	-2.22
334.265	77.65
334.478	1.88
334.691	32.6
334.903	5.97
335.116	77.65
335.329	-20.65
335.541	12.12
335.754	14.17
335.966	53.08
336.179	102.23
336.392	-14.51
336.604	26.45
336.817	-49.32
337.029	30.55
337.242	5.97
337.454	-8.36
337.667	-12.46
337.88	51.03
338.092	55.12
338.305	108.37
338.517	-0.17
338.729	28.5
338.942	3.93
339.154	55.12
339.367	-32.94
339.579	69.46
339.792	30.55
340.004	98.13
340.217	-26.79
340.429	112.47
340.641	26.45
340.854	48.98
341.066	5.97
341.278	20.31
341.491	143.19
341.703	-16.55
341.915	5.97
342.128	77.65
342.34	-59.56
342.552	-28.84
342.764	18.26
342.977	32.6
343.189	42.84
343.401	108.37
343.613	-4.27
343.826	51.03
344.038	-28.84
344.25	5.97
344.462	5.97
344.674	53.08
344.886	-20.65
345.099	94.04
345.311	24.4
345.523	57.17
345.735	-14.51
345.947	32.6
346.159	110.42
346.371	1.88
346.583	100.18
346.795	53.08
347.007	38.74
347.219	34.64
347.431	-8.36
347.643	-22.7
347.855	73.56
348.067	65.36
348.279	36.69
348.491	-20.65
348.703	46.93
348.915	69.46
349.127	-26.79
349.339	20.31
349.551	61.27
349.763	18.26
349.975	26.45
350.187	77.65
350.399	46.93
350.61	48.98
350.822	10.07
351.034	26.45
351.246	12.12
351.458	73.56
351.669	14.17
351.881	53.08
352.093	20.31
352.305	57.17
352.517	20.31
352.728	32.6
352.94	61.27
353.152	73.56
353.363	32.6
353.575	44.88
353.787	55.12
353.999	75.6
354.21	51.03
354.422	-4.27
354.633	-24.75
354.845	61.27
355.057	12.12
355.268	28.5
355.48	38.74
355.692	87.89
355.903	5.97
356.115	28.5
356.326	61.27
356.538	10.07
356.749	36.69
356.961	20.31
357.172	59.22
357.384	28.5
357.595	110.42
357.807	20.31
358.018	-4.27
358.23	28.5
358.441	42.84
358.653	40.79
358.864	63.32
359.075	63.32
359.287	53.08
359.498	63.32
359.709	16.21
359.921	20.31
360.132	-24.75
360.344	8.02
360.555	40.79
360.766	12.12
360.977	-30.89
361.189	38.74
361.4	53.08
361.611	22.36
361.823	44.88
362.034	61.27
362.245	65.36
362.456	40.79
362.667	16.21
362.879	-20.65
363.09	22.36
363.301	59.22
363.512	-10.41
363.723	-14.51
363.935	-22.7
364.146	55.12
364.357	20.31
364.568	34.64
364.779	32.6
364.99	81.75
365.201	32.6
365.412	32.6
365.623	14.17
365.834	63.32
366.045	79.7
366.256	87.89
366.467	53.08
366.678	-20.65
366.889	73.56
367.1	3.93
367.311	38.74
367.522	3.93
367.733	40.79
367.944	30.55
368.155	65.36
368.366	61.27
368.577	42.84
368.788	106.32
368.999	24.4
369.209	36.69
369.42	69.46
369.631	71.51
369.842	30.55
370.053	73.56
370.264	-28.84
370.474	-43.18
370.685	69.46
370.896	44.88
371.107	44.88
371.317	100.18
371.528	-10.41
371.739	44.88
371.95	-34.99
372.16	61.27
372.371	-14.51
372.582	61.27
372.792	61.27
373.003	96.08
373.214	59.22
373.424	67.41
373.635	24.4
373.846	32.6
374.056	46.93
374.267	36.69
374.477	-20.65
374.688	28.5
374.898	18.26
375.109	48.98
375.319	94.04
375.53	91.99
375.74	87.89
375.951	-14.51
376.161	32.6
376.372	59.22
376.582	16.21
376.793	30.55
377.003	48.98
377.214	32.6
377.424	36.69
377.635	65.36
377.845	46.93
378.055	14.17
378.266	46.93
378.476	40.79
378.686	32.6
378.897	46.93
379.107	38.74
379.317	-30.89
379.528	22.36
379.738	5.97
379.948	48.98
380.158	42.84
380.369	-45.23
380.579	16.21
380.789	91.99
380.999	32.6
381.21	16.21
381.42	89.94
381.63	40.79
381.84	36.69
382.05	30.55
382.261	14.17
382.471	55.12
382.681	26.45
382.891	81.75
383.101	75.6
383.311	53.08
383.521	32.6
383.731	-18.6
383.941	-12.46
384.151	-10.41
384.361	75.6
384.571	69.46
384.781	53.08
384.991	36.69
385.201	-0.17
385.411	-10.41
385.621	81.75
385.831	20.31
386.041	26.45
386.251	89.94
386.461	-32.94
386.671	69.46
386.881	59.22
387.091	57.17
387.301	51.03
387.511	34.64
387.72	16.21
387.93	40.79
388.14	42.84
388.35	36.69
388.56	63.32
388.769	75.6
388.979	79.7
389.189	-6.31
389.399	34.64
389.609	42.84
389.818	118.61
390.028	-41.13
390.238	51.03
390.447	53.08
390.657	120.66
390.867	63.32
391.076	81.75
391.286	32.6
391.496	24.4
391.705	53.08
391.915	42.84
392.125	104.28
392.334	44.88
392.544	51.03
392.753	48.98
392.963	-30.89
393.172	36.69
393.382	-4.27
393.591	46.93
393.801	24.4
394.01	91.99
394.22	30.55
394.429	34.64
394.639	-6.31
394.848	104.28
395.058	24.4
395.267	102.23
395.477	85.84
395.686	-6.31
395.895	69.46
396.105	85.84
396.314	-0.17
396.524	-0.17
396.733	32.6
396.942	110.42
397.152	34.64
397.361	83.8
397.57	44.88
397.78	-2.22
397.989	8.02
398.198	85.84
398.407	-2.22
398.617	96.08
398.826	1.88
399.035	-4.27
399.244	14.17
399.453	83.8
399.663	18.26
399.872	67.41
400.081	89.94
400.29	14.17
400.499	61.27
400.708	67.41
400.917	89.94
401.127	51.03
401.336	20.31
401.545	77.65
401.754	104.28
401.963	96.08
402.172	28.5
402.381	-22.7
402.59	57.17
402.799	153.43
403.008	106.32
403.217	118.61
403.426	69.46
403.635	30.55
403.844	79.7
404.053	40.79
404.262	51.03
404.471	57.17
404.68	57.17
404.888	63.32
405.097	18.26
405.306	51.03
405.515	-4.27
405.724	26.45
405.933	106.32
406.142	79.7
406.35	151.38
406.559	65.36
406.768	79.7
406.977	102.23
407.185	65.36
407.394	169.81
407.603	48.98
407.812	100.18
408.02	110.42
408.229	87.89
408.438	65.36
408.646	63.32
408.855	28.5
409.064	53.08
409.272	98.13
409.481	108.37
409.69	106.32
409.898	67.41
410.107	128.85
410.315	139.09
410.524	167.76
410.733	163.67
410.941	112.47
411.15	104.28
411.358	143.19
411.567	141.14
411.775	69.46
411.984	159.57
412.192	112.47
412.401	116.56
412.609	221.01
412.818	186.19
413.026	208.72
413.234	182.1
413.443	180.05
413.651	167.76
413.86	198.48
414.068	194.39
414.276	249.68
414.485	227.15
414.693	175.95
414.901	233.3
415.11	245.59
415.318	237.39
415.526	229.2
415.734	286.54
415.943	216.91
416.151	362.32
416.359	249.68
416.567	208.72
416.776	241.49
416.984	249.68
417.192	313.17
417.4	309.07
417.608	286.54
417.817	350.03
418.025	339.79
418.233	356.18
418.441	356.18
418.649	323.41
418.857	438.09
419.065	431.95
419.273	413.52
419.481	454.48
419.689	440.14
419.897	393.04
420.105	399.18
420.313	472.91
420.521	515.92
420.729	634.7
420.937	440.14
421.145	581.45
421.353	626.51
421.561	569.16
421.769	585.55
421.977	655.18
422.185	735.05
422.393	601.93
422.601	692.04
422.809	675.66
423.017	753.48
423.224	685.9
423.432	757.58
423.64	790.35
423.848	853.83
424.056	882.5
424.263	896.84
424.471	868.17
424.679	943.94
424.887	898.89
425.094	956.23
425.302	997.19
425.51	1019.72
425.718	1027.91
425.925	1027.91
426.133	1101.64
426.341	1185.6
426.548	1208.13
426.756	1238.85
426.964	1300.29
427.171	1201.99
427.379	1290.05
427.586	1361.73
427.794	1382.21
428.001	1486.65
428.209	1554.24
428.417	1355.58
428.624	1621.82
428.832	1535.81
429.039	1560.38
429.247	1632.06
429.454	1675.07
429.662	1789.75
429.869	1853.24
430.076	1918.78
430.284	1765.18
430.491	1912.63
430.699	1980.22
430.906	1967.93
431.114	1908.54
431.321	2076.47
431.528	2199.35
431.736	2287.41
431.943	2207.54
432.15	2211.64
432.358	2461.49
432.565	2430.77
432.772	2559.79
432.979	2580.27
433.187	2590.51
433.394	2539.31
433.601	2813.74
433.808	2871.08
434.016	2832.17
434.223	3008.3
434.43	2967.34
434.637	2948.9
434.844	3245.86
435.052	3323.68
435.259	3252
435.466	3286.82
435.673	3329.83
435.88	3444.51
436.087	3645.21
436.294	3735.32
436.501	3600.16
436.708	3526.43
436.915	3807
437.122	3952.41
437.329	3958.55
437.537	4232.98
437.743	4218.64
437.95	4071.19
438.157	4345.62
438.364	4476.69
438.571	4511.5
438.778	4386.58
438.985	4921.1
439.192	4814.6
439.399	4734.73
439.606	4790.03
439.813	5076.74
440.02	5246.73
440.227	5283.59
440.433	5179.14
440.64	5416.71
440.847	5318.4
441.054	5455.62
441.261	5840.64
441.467	5744.38
441.674	5709.57
441.881	5996.28
442.088	6139.64
442.294	6141.69
442.501	6205.17
442.708	6362.87
442.914	6616.82
443.121	6825.71
443.328	6633.2
443.534	7120.62
443.741	6905.58
443.948	6928.11
444.154	7202.54
444.361	7241.45
444.568	7255.78
444.774	7270.12
444.981	7415.52
445.187	7630.56
445.394	7943.9
445.6	7814.88
445.807	8627.92
446.013	8183.51
446.22	8322.77
446.426	8693.46
446.633	8736.46
446.839	9301.7
447.046	8500.95
447.252	9264.84
447.459	9203.4
447.665	8900.3
447.871	9473.73
448.078	10143.42
448.284	9529.03
448.491	9821.89
448.697	10454.71
448.903	10362.55
449.11	10397.37
449.316	10020.54
449.522	10251.96
449.728	10661.55
449.935	10741.43
450.141	10831.54
450.347	11204.27
450.553	10710.71
450.76	10745.52
450.966	11282.09
451.172	11001.52
451.378	11570.85
451.584	11153.07
451.791	11523.75
451.997	11380.39
452.203	11599.52
452.409	11421.35
452.615	11687.59
452.821	11204.27
453.027	11093.68
453.233	11656.87
453.44	11089.58
453.646	11300.52
453.852	11239.08
454.058	11591.33
454.264	11173.55
454.47	11314.86
454.676	11159.21
454.882	11462.31
455.088	10469.05
455.294	10694.32
455.5	10880.69
455.705	10829.49
455.911	10467
456.117	10292.92
456.323	10159.8
456.529	9590.47
456.735	10032.83
456.941	9805.5
457.147	9664.19
457.352	9060.04
457.558	9266.89
457.764	9213.64
457.97	9150.15
458.176	9014.99
458.381	8744.66
458.587	8380.12
458.793	8343.25
458.999	7847.65
459.204	8453.84
459.41	8287.96
459.616	7648.99
459.821	7845.6
460.027	7849.69
460.233	7354.09
460.438	7288.55
460.644	7137
460.85	6962.92
461.055	6833.9
461.261	6926.06
461.466	6432.5
461.672	6248.18
461.878	6567.67
462.083	6022.91
462.289	5983.99
462.494	5891.84
462.7	5748.48
462.905	5437.19
463.111	5832.44
463.316	5703.42
463.522	5541.63
463.727	5611.26
463.932	5603.07
464.138	5709.57
464.343	5592.83
464.549	5584.64
464.754	5615.36
464.959	5603.07
465.165	5588.74
465.37	5213.96
465.575	5175.05
465.781	5377.8
465.986	5388.04
466.191	5256.97
466.397	5166.85
466.602	4853.52
466.807	4955.91
467.012	5181.19
467.218	5000.97
467.423	4951.82
467.628	5019.4
467.833	5232.39
468.038	4992.78
468.244	4810.51
468.449	5039.88
468.654	4912.91
468.859	4843.28
469.064	4849.42
469.269	4761.36
469.474	4628.24
469.679	4830.99
469.885	4699.92
470.09	4779.79
470.295	4740.88
470.5	4499.22
470.705	4656.91
470.91	4460.31
471.115	4556.56
471.32	4454.16
471.525	4306.71
471.73	4294.42
471.935	4423.44
472.139	4212.5
472.344	4394.77
472.549	4257.56
472.754	4126.49
472.959	4106.01
473.164	4038.42
473.369	3989.27
473.574	4034.33
473.778	4081.43
473.983	4013.85
474.188	4075.29
474.393	3884.83
474.598	3909.4
474.802	3788.57
475.007	3794.72
475.212	3755.8
475.417	3573.53
475.621	3737.37
475.826	3788.57
476.031	3579.68
476.235	3528.48
476.44	3536.67
476.645	3428.13
476.849	3571.49
477.054	3501.86
477.259	3444.51
477.463	3399.46
477.668	3415.84
477.872	3374.88
478.077	3280.68
478.282	3245.86
478.486	3344.16
478.691	3122.98
478.895	3192.61
479.1	3063.59
479.304	3192.61
479.509	3028.78
479.713	3184.42
479.918	3045.16
480.122	2981.67
480.326	3047.21
480.531	3116.84
480.735	3022.63
480.94	2875.18
481.144	3245.86
481.348	2946.86
481.553	2940.71
481.757	2920.23
481.961	2936.62
482.166	3063.59
482.37	3090.21
482.574	2881.32
482.778	2965.29
482.983	3127.08
483.187	2989.86
483.391	2914.09
483.595	2985.77
483.8	2920.23
484.004	2918.18
484.208	2996.01
484.412	2881.32
484.616	2963.24
484.821	3002.15
485.025	2862.89
485.229	2920.23
485.433	2928.42
485.637	3059.49
485.841	2912.04
486.045	2772.78
486.249	2920.23
486.453	2991.91
486.657	2989.86
486.861	2926.38
487.065	2828.07
487.269	3065.64
487.473	2903.85
487.677	2971.43
487.881	2932.52
488.085	2899.75
488.289	2981.67
488.493	2752.3
488.697	3002.15
488.901	2977.58
489.105	2826.03
489.309	3036.97
489.512	2989.86
489.716	2930.47
489.92	3014.44
490.124	2971.43
490.328	3049.25
490.531	3028.78
490.735	3106.6
490.939	2996.01
491.143	2889.51
491.346	2930.47
491.55	2967.34
491.754	3059.49
491.958	2946.86
492.161	3090.21
492.365	3141.41
492.569	3104.55
492.772	2979.62
492.976	3172.13
493.18	3149.61
493.383	3180.32
493.587	3182.37
493.79	3178.28
493.994	3174.18
494.197	3215.14
494.401	3258.15
494.605	3217.19
494.808	3344.16
495.012	3346.21
495.215	3376.93
495.419	3352.35
495.622	3307.3
495.825	3505.95
496.029	3393.31
496.232	3442.46
496.436	3366.69
496.639	3587.87
496.843	3477.28
497.046	3571.49
497.249	3645.21
497.453	3743.52
497.656	3727.13
497.859	3630.88
498.063	3725.08
498.266	3895.07
498.469	3647.26
498.673	3858.2
498.876	3880.73
499.079	3870.49
499.282	3946.27
499.485	4046.62
499.689	4134.68
499.892	4093.72
500.095	4157.21
500.298	4151.06
500.501	4175.64
500.705	4458.26
500.908	4503.31
501.111	4474.64
501.314	4456.21
501.517	4577.04
501.72	4421.39
501.923	4513.55
502.126	4609.81
502.329	4693.77
502.532	4632.33
502.735	4763.4
502.938	4796.17
503.141	4847.37
503.344	4908.81
503.547	4943.63
503.75	5037.83
503.953	5175.05
504.156	5117.7
504.359	5189.38
504.562	5205.77
504.765	5340.93
504.968	5394.18
505.17	5486.34
505.373	5555.97
505.576	5385.99
505.779	5703.42
505.982	5689.09
506.185	5668.61
506.387	5820.16
506.59	5658.37
506.793	5877.5
506.996	5902.08
507.198	6002.43
507.401	6092.54
507.604	6080.25
507.807	6278.9
508.009	6174.46
508.212	6500.08
508.415	6332.15
508.617	6369.01
508.82	6407.92
509.022	6412.02
509.225	6598.38
509.428	6635.25
509.63	6737.65
509.833	6885.1
510.035	6780.65
510.238	6983.4
510.44	7083.75
510.643	7149.29
510.845	7091.95
511.048	7137
511.25	7290.6
511.453	7472.87
511.655	7497.44
511.858	7401.19
512.06	7646.94
512.262	7673.57
512.465	7622.37
512.667	7767.77
512.87	7745.25
513.072	7837.41
513.274	7997.15
513.477	8058.59
513.679	8117.98
513.881	8378.07
514.084	8238.81
514.286	8310.49
514.488	8335.06
514.69	8668.88
514.893	8666.83
515.095	8662.74
515.297	8754.9
515.499	8701.65
515.701	8822.48
515.904	8982.22
516.106	8974.03
516.308	9103.05
516.51	9154.25
516.712	9184.97
516.914	9330.37
517.116	9277.13
517.318	9395.91
517.52	9690.82
517.722	9529.03
517.925	9813.7
518.127	9735.87
518.329	9852.61
518.531	9793.22
518.733	10096.32
518.935	9991.87
519.136	10145.47
519.338	10192.57
519.54	10184.38
519.742	10358.46
519.944	10288.82
520.146	10573.49
520.348	10632.88
520.55	10540.72
520.752	10757.81
520.954	10931.89
521.155	10831.54
521.357	10905.26
521.559	11171.5
521.761	11239.08
521.963	11185.83
522.164	11085.48
522.366	11198.12
522.568	11267.75
522.77	11437.73
522.971	11712.16
523.173	11646.63
523.375	11773.6
523.576	11749.03
523.778	11867.81
523.98	12041.89
524.181	11964.06
524.383	12031.65
524.584	12093.08
524.786	11912.86
524.988	12115.61
525.189	12383.9
525.391	12521.11
525.592	12150.43
525.794	12269.21
525.995	12457.62
526.197	12361.37
526.398	12365.46
526.6	12545.69
526.801	12635.8
527.003	12564.12
527.204	12672.66
527.406	12619.41
527.607	12555.93
527.808	12930.7
528.01	12611.22
528.211	12861.07
528.412	13076.11
528.614	12908.18
528.815	13080.21
529.016	13403.78
529.218	12820.11
529.419	13115.02
529.62	13168.27
529.822	13106.83
530.023	13104.78
530.224	13061.77
530.425	13196.94
530.626	13133.45
530.828	13055.63
531.029	13297.29
531.23	13037.2
531.431	13188.75
531.632	13143.69
531.833	13313.67
532.035	13258.38
532.236	13508.23
532.437	13162.12
532.638	13282.95
532.839	13407.88
533.04	13528.71
533.241	13399.69
533.442	13545.09
533.643	13362.83
533.844	13317.77
534.045	13479.56
534.246	13145.74
534.447	13348.49
534.648	13223.56
534.849	13280.91
535.05	13350.54
535.251	13479.56
535.451	13340.3
535.652	13641.35
535.853	13483.66
536.054	13387.4
536.255	13479.56
536.456	13338.25
536.657	13567.62
536.857	13313.67
537.058	13403.78
537.259	13450.89
537.46	13401.74
537.66	13168.27
537.861	13459.08
538.062	13354.63
538.263	13424.26
538.463	13278.86
538.664	13432.46
538.865	13340.3
539.065	13549.19
539.266	13252.24
539.466	13500.04
539.667	13231.76
539.868	13489.8
540.068	13393.54
540.269	13457.03
540.469	13366.92
540.67	13119.12
540.87	13469.32
541.071	13457.03
541.271	13207.18
541.472	13246.09
541.672	13282.95
541.873	13270.67
542.073	13063.82
542.274	13366.92
542.474	13266.57
542.675	13362.83
542.875	13524.61
543.075	13336.2
543.276	13266.57
543.476	13491.85
543.676	13432.46
543.877	13227.66
544.077	13403.78
544.277	13211.28
544.478	13250.19
544.678	13342.35
544.878	13319.82
545.078	13252.24
545.279	13215.37
545.479	13180.56
545.679	13446.79
545.879	13291.15
546.079	13174.41
546.28	13350.54
546.48	13172.36
546.68	13217.42
546.88	13258.38
547.08	13123.21
547.28	13115.02
547.48	13000.33
547.68	13082.25
547.88	13266.57
548.081	13381.26
548.281	13334.15
548.481	13143.69
548.681	13483.66
548.881	13295.24
549.081	13172.36
549.28	13235.85
549.48	13338.25
549.68	13242
549.88	13239.95
550.08	13307.53
550.28	13067.92
550.48	13117.07
550.68	13160.08
550.88	13115.02
551.08	13252.24
551.279	13112.97
551.479	13147.79
551.679	13024.91
551.879	13155.98
552.079	13258.38
552.278	13035.15
552.478	13061.77
552.678	12961.42
552.878	13209.23
553.077	12699.28
553.277	12947.09
553.477	13225.61
553.676	13043.34
553.876	12981.9
554.076	13143.69
554.275	13014.67
554.475	12785.3
554.674	12977.81
554.874	13110.93
555.074	13106.83
555.273	13168.27
555.473	13104.78
555.672	12889.74
555.872	13072.01
556.071	12930.7
556.271	13065.87
556.47	13045.39
556.67	12949.14
556.869	12775.06
557.068	12828.31
557.268	12842.64
557.467	12912.27
557.667	12902.03
557.866	12646.04
558.065	12795.54
558.265	12775.06
558.464	12799.63
558.663	12801.68
558.863	12574.36
559.062	13078.16
559.261	12904.08
559.461	12930.7
559.66	12531.35
559.859	12877.46
560.058	12400.28
560.258	12584.6
560.457	12699.28
560.656	12695.19
560.855	12220.06
561.054	12347.03
561.253	12359.32
561.453	12738.19
561.652	12603.03
561.851	12379.8
562.05	12557.97
562.249	12402.33
562.448	12596.89
562.647	12578.45
562.846	12474.01
563.045	12390.04
563.244	12344.98
563.443	12326.55
563.642	12187.29
563.841	12367.51
564.04	12334.75
564.239	12357.27
564.438	12238.49
564.637	12492.44
564.836	12279.45
565.035	12267.16
565.234	12304.03
565.432	12330.65
565.631	12041.89
565.83	12347.03
566.029	11939.49
566.228	12222.11
566.427	12099.23
566.625	11931.3
566.824	11775.65
567.023	11814.56
567.222	11941.54
567.42	12166.81
567.619	12062.37
567.818	12093.08
568.016	11959.97
568.215	11974.3
568.414	12000.93
568.612	12070.56
568.811	11935.39
569.01	11953.82
569.208	11644.58
569.407	11771.55
569.605	11585.19
569.804	11943.58
570.002	11441.83
570.201	11703.97
570.4	11495.08
570.598	11585.19
570.797	11671.2
570.995	11583.14
571.193	11298.47
571.392	11620
571.59	11425.45
571.789	11613.86
571.987	11450.02
572.186	11325.1
572.384	11423.4
572.582	11419.3
572.781	11482.79
572.979	11200.17
573.177	11407.02
573.376	11323.05
573.574	11171.5
573.772	11108.01
573.971	11167.4
574.169	11083.44
574.367	11140.78
574.565	11380.39
574.763	10972.85
574.962	11144.88
575.16	10823.34
575.358	11153.07
575.556	10809.01
575.754	10933.93
575.952	10901.17
576.151	11093.68
576.349	10917.55
576.547	10608.31
576.745	10841.78
576.943	10710.71
577.141	10804.91
577.339	10716.85
577.537	10778.29
577.735	10725.04
577.933	10710.71
578.131	10694.32
578.329	10780.34
578.527	10639.03
578.725	10659.51
578.923	10589.88
579.121	10456.76
579.319	10391.22
579.516	10608.31
579.714	10553.01
579.912	10559.16
580.11	10419.89
580.308	10434.23
580.506	10413.75
580.704	10282.68
580.901	10135.23
581.099	10104.51
581.297	10149.56
581.495	10325.69
581.692	10356.41
581.89	10272.44
582.088	10122.94
582.285	10180.28
582.483	10194.62
582.681	9952.96
582.878	10149.56
583.076	9965.25
583.274	10327.74
583.471	9770.69
583.669	10112.7
583.866	10026.68
584.064	10153.66
584.262	9705.15
584.459	9920.19
584.657	9690.82
584.854	9825.98
585.052	9690.82
585.249	9883.33
585.447	9776.83
585.644	9834.18
585.841	9887.42
586.039	9713.35
586.236	9672.39
586.434	9420.49
586.631	9494.21
586.828	9502.4
587.026	9389.77
587.223	9557.7
587.42	9455.3
587.618	9547.46
587.815	9537.22
588.012	9434.82
588.21	9338.57
588.407	9553.6
588.604	9236.17
588.801	9281.22
588.999	9465.54
589.196	9311.94
589.393	9236.17
589.59	9285.32
589.787	9318.09
589.984	9031.37
590.182	9221.83
590.379	9258.7
590.576	9189.07
590.773	9076.43
590.97	9023.18
591.167	8982.22
591.364	8916.69
591.561	9000.65
591.758	8789.71
591.955	8969.93
592.152	9107.15
592.349	8842.96
592.546	8853.2
592.743	8814.29
592.94	8685.26
593.137	8724.18
593.334	8761.04
593.531	8609.49
593.727	8783.57
593.924	8597.2
594.121	8677.07
594.318	8763.09
594.515	8761.04
594.712	8703.7
594.908	8523.48
595.105	8564.43
595.302	8453.84
595.499	8541.91
595.696	8412.88
595.892	8470.23
596.089	8515.28
596.286	8681.17
596.482	8414.93
596.679	8412.88
596.876	8275.67
597.072	8175.32
597.269	8339.16
597.466	8302.29
597.662	8142.55
597.859	8144.6
598.055	8279.77
598.252	8187.61
598.448	8201.94
598.645	8015.58
598.841	8007.39
599.038	8191.7
599.234	8105.69
599.431	8128.22
599.627	7974.62
599.824	8025.82
600.02	8038.11
600.217	7917.28
600.413	7843.55
600.609	7853.79
600.806	7864.03
601.002	8009.44
601.198	7962.33
601.395	7804.64
601.591	7831.26
601.787	7866.08
601.984	7556.83
602.18	7753.44
602.376	7694.05
602.572	7771.87
602.769	7839.45
602.965	7634.66
603.161	7704.29
603.357	7556.83
603.553	7472.87
603.75	7479.01
603.946	7513.83
604.142	7605.99
604.338	7655.14
604.534	7667.42
604.73	7393
604.926	7352.04
605.122	7417.57
605.318	7235.3
605.514	7237.35
605.71	7302.89
605.906	7413.48
606.102	7358.18
606.298	7341.8
606.494	7204.58
606.69	7313.13
606.886	7227.11
607.082	7161.58
607.278	7204.58
607.474	7188.2
607.67	7126.76
607.866	7298.79
608.062	7093.99
608.257	7139.05
608.453	7212.78
608.649	7124.71
608.845	6897.39
609.041	7005.93
609.236	6997.74
609.432	6897.39
609.628	7167.72
609.824	6979.31
610.019	7059.18
610.215	7059.18
610.411	6872.81
610.606	6868.72
610.802	6977.26
610.998	6887.15
611.193	6784.75
611.389	6887.15
611.584	6809.33
611.78	6719.21
611.976	6825.71
612.171	6862.57
612.367	6819.57
612.562	6864.62
612.758	6813.42
612.953	6743.79
613.149	6811.37
613.344	6762.22
613.539	6631.15
613.735	6739.69
613.93	6735.6
614.126	6782.7
614.321	6645.49
614.517	6670.06
614.712	6625.01
614.907	6635.25
615.103	6569.71
615.298	6590.19
615.493	6674.16
615.688	6498.03
615.884	6430.45
616.079	6405.88
616.274	6706.93
616.47	6616.82
616.665	6678.26
616.86	6467.31
617.055	6358.77
617.25	6442.74
617.445	6502.13
617.641	6463.22
617.836	6561.52
618.031	6221.56
618.226	6428.4
618.421	6364.92
618.616	6344.44
618.811	6256.37
619.006	6233.85
619.201	6151.93
619.396	6143.74
619.591	6184.69
619.786	6217.46
619.981	6117.11
620.176	6321.91
620.371	6108.92
620.566	6201.08
620.761	6115.06
620.956	6090.49
621.151	6027
621.346	6106.87
621.541	6014.71
621.735	5932.79
621.93	5977.85
622.125	5869.31
622.32	5850.88
622.515	5793.53
622.709	5689.09
622.904	5687.04
623.099	5836.54
623.294	5904.12
623.488	5678.85
623.683	5740.29
623.878	5623.55
624.072	5658.37
624.267	5705.47
624.462	5500.67
624.656	5512.96
624.851	5588.74
625.046	5455.62
625.24	5392.13
625.435	5304.07
625.629	5408.51
625.824	5334.79
626.018	5345.03
626.213	5263.11
626.407	5345.03
626.602	5168.9
626.796	5371.65
626.991	5197.57
627.185	5265.16
627.38	5189.38
627.574	5252.87
627.768	5037.83
627.963	5027.59
628.157	4955.91
628.352	5035.78
628.546	4935.43
628.74	4990.73
628.935	4960.01
629.129	4843.28
629.323	4878.09
629.517	4706.06
629.712	4886.28
629.906	4835.08
630.1	4611.85
630.294	4849.42
630.489	4640.53
630.683	4722.45
630.877	4652.81
631.071	4644.62
631.265	4650.77
631.459	4665.1
631.653	4538.13
631.848	4538.13
632.042	4644.62
632.236	4472.59
632.43	4634.38
632.624	4425.49
632.818	4493.07
633.012	4454.16
633.206	4484.88
633.4	4402.96
633.594	4366.1
633.788	4273.94
633.982	4337.43
634.176	4341.52
634.369	4337.43
634.563	4364.05
634.757	4265.75
634.951	4286.23
635.145	4257.56
635.339	4165.4
635.533	4034.33
635.726	4124.44
635.92	3995.42
636.114	4017.94
636.308	3989.27
636.501	4005.66
636.695	3997.46
636.889	3866.39
637.083	4024.09
637.276	3800.86
637.47	3915.55
637.664	3847.96
637.857	3960.6
638.051	3735.32
638.244	3802.91
638.438	3690.27
638.632	3835.67
638.825	3725.08
639.019	3819.29
639.212	3710.75
639.406	3794.72
639.599	3667.74
639.793	3618.59
639.986	3587.87
640.18	3657.5
640.373	3821.34
640.567	3528.48
640.76	3612.45
640.954	3618.59
641.147	3583.77
641.34	3546.91
641.534	3522.34
641.727	3667.74
641.92	3501.86
642.114	3557.15
642.307	3440.42
642.5	3571.49
642.694	3329.83
642.887	3378.98
643.08	3350.31
643.273	3342.11
643.467	3483.42
643.66	3333.92
643.853	3270.44
644.046	3243.81
644.239	3262.24
644.432	3266.34
644.626	3100.45
644.819	3268.39
645.012	3213.09
645.205	3055.4
645.398	3266.34
645.591	3194.66
645.784	3239.72
645.977	3157.8
646.17	3151.65
646.363	3104.55
646.556	3018.54
646.749	3059.49
646.942	3043.11
647.135	3053.35
647.328	2981.67
647.521	3028.78
647.714	2914.09
647.907	2987.82
648.099	2914.09
648.292	2983.72
648.485	2918.18
648.678	2993.96
648.871	2946.86
649.064	2883.37
649.256	2854.7
649.449	2862.89
649.642	2866.99
649.835	2881.32
650.027	2807.59
650.22	2754.35
650.413	2694.96
650.605	2803.5
650.798	2645.8
650.991	2764.59
651.183	2701.1
651.376	2801.45
651.568	2707.24
651.761	2737.96
651.954	2627.37
652.146	2555.69
652.339	2670.38
652.531	2561.84
652.724	2660.14
652.916	2559.79
653.109	2469.68
653.301	2567.98
653.494	2594.61
653.686	2438.96
653.879	2524.97
654.071	2461.49
654.263	2459.44
654.456	2537.26
654.648	2314.03
654.84	2473.78
655.033	2406.19
655.225	2395.95
655.417	2361.14
655.61	2393.9
655.802	2428.72
655.994	2461.49
656.186	2418.48
656.379	2424.62
656.571	2420.53
656.763	2301.75
656.955	2361.14
657.148	2311.99
657.34	2303.79
657.532	2252.59
657.724	2348.85
657.916	2363.19
658.108	2219.83
658.3	2150.2
658.492	2260.79
658.684	2211.64
658.876	2215.73
659.068	2232.12
659.26	2176.82
659.452	2238.26
659.644	2238.26
659.836	2182.96
660.028	2129.72
660.22	2191.16
660.412	2094.9
660.604	2070.33
660.796	2037.56
660.988	2068.28
661.18	2049.85
661.372	2086.71
661.563	2033.46
661.755	1988.41
661.947	2111.29
662.139	2045.75
662.331	1931.06
662.522	2064.18
662.714	2027.32
662.906	1967.93
663.097	2027.32
663.289	1953.59
663.481	1900.34
663.673	2008.89
663.864	1816.38
664.056	1906.49
664.247	1865.53
664.439	1926.97
664.631	1896.25
664.822	1906.49
665.014	1883.96
665.205	1877.82
665.397	1857.34
665.588	1890.1
665.78	1906.49
665.971	1859.38
666.163	1730.36
666.354	1908.54
666.546	1754.94
666.737	1810.23
666.929	1771.32
667.12	1781.56
667.311	1767.23
667.503	1654.59
667.694	1781.56
667.885	1795.9
668.077	1693.5
668.268	1691.45
668.459	1654.59
668.651	1632.06
668.842	1689.4
669.033	1644.35
669.224	1677.12
669.416	1873.72
669.607	1679.16
669.798	1591.1
669.989	1656.64
670.18	1666.88
670.371	1634.11
670.563	1627.96
670.754	1578.81
670.945	1535.81
671.136	1617.72
671.327	1568.57
671.518	1603.39
671.709	1591.1
671.9	1525.57
672.091	1521.47
672.282	1603.39
672.473	1550.14
672.664	1636.16
672.855	1548.09
673.046	1556.29
673.237	1644.35
673.428	1523.52
673.619	1492.8
673.809	1425.22
674	1482.56
674.191	1562.43
674.382	1562.43
674.573	1605.44
674.764	1425.22
674.954	1584.96
675.145	1488.7
675.336	1447.74
675.527	1472.32
675.717	1408.83
675.908	1392.45
676.099	1398.59
676.289	1492.8
676.48	1408.83
676.671	1451.84
676.861	1474.37
677.052	1374.02
677.243	1398.59
677.433	1419.07
677.624	1345.34
677.814	1447.74
678.005	1455.94
678.195	1408.83
678.386	1388.35
678.576	1505.09
678.767	1355.58
678.957	1445.7
679.148	1427.26
679.338	1290.05
679.529	1353.54
679.719	1347.39
679.909	1396.54
680.1	1353.54
680.29	1353.54
680.481	1361.73
680.671	1347.39
680.861	1396.54
681.052	1386.3
681.242	1431.36
681.432	1468.22
681.622	1376.06
681.813	1363.78
682.003	1349.44
682.193	1384.26
682.383	1382.21
682.573	1271.62
682.764	1388.35
682.954	1304.39
683.144	1331.01
683.334	1388.35
683.524	1357.63
683.714	1437.5
683.904	1302.34
684.094	1371.97
684.284	1283.91
684.474	1314.63
684.664	1339.2
684.854	1353.54
685.044	1371.97
685.234	1398.59
685.424	1363.78
685.614	1191.75
685.804	1253.19
685.994	1253.19
686.184	1423.17
686.374	1285.95
686.564	1322.82
686.753	1273.67
686.943	1302.34
687.133	1228.61
687.323	1337.15
687.513	1269.57
687.702	1322.82
687.892	1142.6
688.082	1208.13
688.272	1300.29
688.461	1128.26
688.651	1273.67
688.841	1263.43
689.03	1204.03
689.22	1288
689.41	1242.95
689.599	1300.29
689.789	1257.28
689.979	1206.08
690.168	1242.95
690.358	1263.43
690.547	1158.98
690.737	1242.95
690.926	1175.36
691.116	1158.98
691.305	1175.36
691.495	1161.03
691.684	1128.26
691.874	1224.51
692.063	1120.07
692.252	1095.49
692.442	1126.21
692.631	1144.64
692.82	1134.4
693.01	1021.77
693.199	1161.03
693.388	1171.27
693.578	1066.82
693.767	1201.99
693.956	1095.49
694.146	1156.93
694.335	1152.84
694.524	1038.15
694.713	1058.63
694.902	1017.67
695.092	1005.38
695.281	1036.1
695.47	1003.33
695.659	1077.06
695.848	1068.87
696.037	1171.27
696.226	1085.25
696.415	978.76
696.604	1103.68
696.793	1052.49
696.982	1046.34
697.171	1070.92
697.36	1017.67
697.549	1134.4
697.738	941.89
697.927	1072.96
698.116	972.61
698.305	1052.49
698.494	986.95
698.683	1023.81
698.872	1085.25
699.061	995.14
699.25	935.75
699.438	960.33
699.627	1011.53
699.816	1019.72
700.005	1070.92
700.193	964.42
700.382	1103.68
700.571	1054.53
700.76	945.99
700.948	1032.01
701.137	966.47
701.326	1032.01
701.514	948.04
701.703	974.66
701.892	999.24
702.08	1093.44
702.269	1011.53
702.457	888.65
702.646	1003.33
702.834	1038.15
703.023	966.47
703.212	929.61
703.4	1064.77
703.589	989
703.777	1001.29
703.965	980.81
704.154	991.05
704.342	948.04
704.531	876.36
704.719	968.52
704.907	968.52
705.096	1019.72
705.284	919.37
705.472	1007.43
705.661	954.18
705.849	933.7
706.037	913.22
706.226	974.66
706.414	950.09
706.602	943.94
706.79	989
706.979	995.14
707.167	1046.34
707.355	1019.72
707.543	905.03
707.731	890.7
707.919	1009.48
708.107	941.89
708.296	839.5
708.484	839.5
708.672	925.51
708.86	917.32
709.048	915.27
709.236	945.99
709.424	892.74
709.612	892.74
709.8	898.89
709.988	958.28
710.176	958.28
710.364	962.37
710.551	921.42
710.739	939.85
710.927	1036.1
711.115	1032.01
711.303	907.08
711.491	913.22
711.679	905.03
711.866	972.61
712.054	954.18
712.242	962.37
712.43	1003.33
712.617	896.84
712.805	884.55
712.993	855.88
713.181	874.31
713.368	894.79
713.556	866.12
713.744	913.22
713.931	941.89
714.119	866.12
714.306	835.4
714.494	986.95
714.682	980.81
714.869	921.42
715.057	943.94
715.244	888.65
715.432	890.7
715.619	970.57
715.807	859.98
715.994	853.83
716.182	913.22
716.369	999.24
716.556	982.85
716.744	896.84
716.931	870.22
717.119	1023.81
717.306	857.93
717.493	878.41
717.681	939.85
717.868	964.42
718.055	909.13
718.242	927.56
718.43	937.8
718.617	862.02
718.804	882.5
718.991	845.64
719.179	958.28
719.366	925.51
719.553	948.04
719.74	878.41
719.927	931.66
720.114	816.97
720.301	921.42
720.488	866.12
720.676	898.89
720.863	862.02
721.05	902.98
721.237	913.22
721.424	939.85
721.611	862.02
721.798	890.7
721.985	894.79
722.172	843.59
722.358	870.22
722.545	966.47
722.732	853.83
722.919	839.5
723.106	945.99
723.293	902.98
723.48	857.93
723.667	974.66
723.853	970.57
724.04	925.51
724.227	878.41
724.414	966.47
724.6	909.13
724.787	915.27
724.974	843.59
725.161	800.59
725.347	884.55
725.534	929.61
725.72	964.42
725.907	931.66
726.094	952.13
726.28	898.89
726.467	925.51
726.653	941.89
726.84	1001.29
727.027	1009.48
727.213	907.08
727.4	972.61
727.586	960.33
727.773	917.32
727.959	882.5
728.145	945.99
728.332	888.65
728.518	923.46
728.705	945.99
728.891	927.56
729.077	933.7
729.264	876.36
729.45	935.75
729.636	902.98
729.823	816.97
730.009	1015.62
730.195	909.13
730.382	974.66
730.568	970.57
730.754	921.42
730.94	952.13
731.126	927.56
731.313	923.46
731.499	995.14
731.685	970.57
731.871	984.9
732.057	964.42
732.243	948.04
732.429	1050.44
732.615	974.66
732.801	956.23
732.987	984.9
733.173	915.27
733.359	868.17
733.545	937.8
733.731	948.04
733.917	964.42
734.103	1017.67
734.289	933.7
734.475	886.6
734.661	964.42
734.847	943.94
735.033	954.18
735.219	882.5
735.404	980.81
735.59	991.05
735.776	913.22
735.962	948.04
736.148	954.18
736.333	960.33
736.519	909.13
736.705	876.36
736.89	1023.81
737.076	915.27
737.262	909.13
737.447	894.79
737.633	948.04
737.819	954.18
738.004	888.65
738.19	972.61
738.375	945.99
738.561	1007.43
738.747	878.41
738.932	960.33
739.118	880.46
739.303	952.13
739.489	964.42
739.674	876.36
739.859	919.37
740.045	929.61
740.23	917.32
740.416	855.88
740.601	952.13
740.786	982.85
740.972	982.85
741.157	937.8
741.342	993.09
741.528	1009.48
741.713	948.04
741.898	937.8
742.084	995.14
742.269	917.32
742.454	945.99
742.639	962.37
742.824	876.36
743.01	884.55
743.195	976.71
743.38	894.79
743.565	833.35
743.75	853.83
743.935	923.46
744.12	905.03
744.305	931.66
744.49	796.49
744.675	952.13
744.86	878.41
745.045	905.03
745.23	884.55
745.415	888.65
745.6	909.13
745.785	827.21
745.97	874.31
746.155	900.94
746.34	982.85
746.525	890.7
746.71	927.56
746.895	913.22
747.079	835.4
747.264	839.5
747.449	890.7
747.634	816.97
747.819	888.65
748.003	859.98
748.188	753.48
748.373	798.54
748.557	851.78
748.742	786.25
748.927	833.35
749.111	819.02
749.296	837.45
749.481	778.06
749.665	733
749.85	841.54
750.034	823.11
750.219	837.45
750.404	718.67
750.588	759.63
750.773	825.16
750.957	800.59
751.141	806.73
751.326	755.53
751.51	737.1
751.695	741.19
751.879	675.66
752.064	722.76
752.248	700.23
752.432	714.57
752.617	728.91
752.801	659.28
752.985	698.19
753.17	773.96
753.354	735.05
753.538	726.86
753.722	726.86
753.907	624.46
754.091	710.47
754.275	735.05
754.459	655.18
754.643	720.71
754.828	710.47
755.012	599.88
755.196	737.1
755.38	778.06
755.564	640.84
755.748	681.8
755.932	665.42
756.116	634.7
756.3	571.21
756.484	579.4
756.668	669.52
756.852	628.56
757.036	673.61
757.22	630.6
757.404	646.99
757.588	589.64
757.772	624.46
757.956	685.9
758.14	603.98
758.323	620.36
758.507	628.56
758.691	591.69
758.875	603.98
759.059	560.97
759.242	646.99
759.426	569.16
759.61	548.68
759.794	595.79
759.977	534.35
760.161	610.12
760.345	589.64
760.528	556.88
760.712	556.88
760.895	591.69
761.079	544.59
761.263	563.02
761.446	581.45
761.63	548.68
761.813	677.71
761.997	454.48
762.18	540.49
762.364	571.21
762.547	479.05
762.731	544.59
762.914	520.01
763.098	495.44
763.281	409.42
763.464	491.34
763.648	481.1
763.831	528.21
764.015	540.49
764.198	497.49
764.381	550.73
764.564	569.16
764.748	515.92
764.931	399.18
765.114	474.96
765.297	503.63
765.481	397.14
765.664	460.62
765.847	454.48
766.03	442.19
766.213	458.57
766.397	464.72
766.58	446.29
766.763	429.9
766.946	464.72
767.129	497.49
767.312	481.1
767.495	505.68
767.678	501.58
767.861	503.63
768.044	458.57
768.227	558.92
768.41	477.01
768.593	501.58
768.776	405.33
768.959	438.09
769.142	419.66
769.324	477.01
769.507	393.04
769.69	429.9
769.873	513.87
770.056	526.16
770.239	464.72
770.421	446.29
770.604	372.56
770.787	470.86
770.97	436.05
771.152	503.63
771.335	470.86
771.518	436.05
771.7	468.81
771.883	497.49
772.066	403.28
772.248	448.33
772.431	358.22
772.613	403.28
772.796	421.71
772.978	425.81
773.161	372.56
773.343	444.24
773.526	382.8
773.708	417.61
773.891	382.8
774.073	429.9
774.256	376.66
774.438	456.53
774.621	347.98
774.803	388.94
774.985	358.22
775.168	472.91
775.35	427.85
775.532	358.22
775.715	280.4
775.897	327.5
776.079	415.57
776.261	393.04
776.444	438.09
776.626	331.6
776.808	335.7
776.99	358.22
777.173	304.98
777.355	315.22
777.537	315.22
777.719	350.03
777.901	333.65
778.083	399.18
778.265	321.36
778.447	413.52
778.629	390.99
778.811	364.37
778.993	288.59
779.175	341.84
779.357	321.36
779.539	290.64
779.721	329.55
779.903	364.37
780.085	276.31
780.267	245.59
780.449	264.02
780.631	216.91
780.812	278.35
780.994	347.98
781.176	360.27
781.358	276.31
781.54	255.83
781.721	405.33
781.903	341.84
782.085	251.73
782.267	290.64
782.448	251.73
782.63	294.74
782.812	241.49
782.993	311.12
783.175	337.74
783.357	229.2
783.538	315.22
783.72	245.59
783.901	243.54
784.083	292.69
784.264	198.48
784.446	286.54
784.627	163.67
784.809	266.07
784.99	231.25
785.172	216.91
785.353	225.11
785.535	253.78
785.716	235.35
785.897	266.07
786.079	218.96
786.26	210.77
786.441	282.45
786.623	239.44
786.804	227.15
786.985	235.35
787.167	274.26
787.348	237.39
787.529	276.31
787.71	245.59
787.891	225.11
788.073	241.49
788.254	175.95
788.435	261.97
788.616	235.35
788.797	180.05
788.978	178
789.159	221.01
789.34	278.35
789.522	227.15
789.703	216.91
789.884	302.93
790.065	110.42
790.246	253.78
790.427	276.31
790.607	139.09
790.788	171.86
790.969	135
791.15	194.39
791.331	145.24
791.512	194.39
791.693	245.59
791.874	274.26
792.054	198.48
792.235	186.19
792.416	175.95
792.597	192.34
792.778	122.71
792.958	200.53
793.139	204.63
793.32	169.81
793.5	143.19
793.681	190.29
793.862	151.38
794.042	139.09
794.223	108.37
794.404	204.63
794.584	204.63
794.765	184.15
794.945	108.37
795.126	167.76
795.306	212.82
795.487	184.15
795.667	128.85
795.848	173.91
796.028	206.67
796.209	167.76
796.389	235.35
796.57	118.61
796.75	151.38
796.93	178
797.111	132.95
797.291	116.56
797.471	167.76
797.652	96.08
797.832	89.94
798.012	186.19
798.192	163.67
798.373	79.7
798.553	173.91
798.733	190.29
798.913	130.9
799.093	128.85
799.274	153.43
799.454	184.15
799.634	151.38
799.814	192.34
799.994	175.95
800.174	245.59
800.354	87.89
800.534	114.52
800.714	112.47
800.894	65.36
801.074	128.85
801.254	149.33
801.434	104.28
801.614	132.95
801.794	167.76
801.974	350.03
802.154	151.38
802.334	128.85
802.514	135
802.693	157.52
802.873	57.17
803.053	157.52
803.233	118.61
803.413	65.36
803.592	85.84
803.772	118.61
803.952	98.13
804.131	149.33
804.311	81.75
804.491	89.94
804.67	137.04
804.85	114.52
805.03	143.19
805.209	157.52
805.389	63.32
805.568	147.28
805.748	14.17
805.928	83.8
806.107	132.95
806.287	96.08
806.466	112.47
806.646	94.04
806.825	198.48
807.004	122.71
807.184	122.71
807.363	104.28
807.543	63.32
807.722	118.61
807.901	46.93
808.081	87.89
808.26	122.71
808.439	128.85
808.619	157.52
808.798	126.8
808.977	106.32
809.156	94.04
809.336	91.99
809.515	81.75
809.694	46.93
809.873	87.89
810.052	112.47
810.231	169.81
810.411	48.98
810.59	157.52
810.769	89.94
810.948	116.56
811.127	141.14
811.306	122.71
811.485	94.04
811.664	126.8
811.843	108.37
812.022	44.88
812.201	149.33
812.38	75.6
812.559	114.52
812.737	71.51
812.916	77.65
813.095	75.6
813.274	69.46
813.453	100.18
813.632	42.84
813.811	116.56
813.989	1.88
814.168	81.75
814.347	34.64
814.526	91.99
814.704	48.98
814.883	110.42
815.062	20.31
815.24	147.28
815.419	112.47
815.598	75.6
815.776	94.04
815.955	85.84
816.133	130.9
816.312	36.69
816.49	-18.6
816.669	112.47
816.847	53.08
817.026	163.67
817.204	100.18
817.383	63.32
817.561	55.12
817.74	143.19
817.918	51.03
818.097	69.46
818.275	57.17
818.453	151.38
818.632	67.41
818.81	32.6
818.988	38.74
819.167	98.13
819.345	128.85
819.523	75.6
819.701	63.32
819.879	-6.31
820.058	71.51
820.236	59.22
820.414	89.94
820.592	59.22
820.77	71.51
820.948	8.02
821.127	48.98
821.305	118.61
821.483	3.93
821.661	126.8
821.839	32.6
822.017	38.74
822.195	182.1
822.373	57.17
822.551	108.37
822.729	85.84
822.907	141.14
823.085	122.71
823.262	34.64
823.44	91.99
823.618	61.27
823.796	69.46
823.974	89.94
824.152	94.04
824.329	102.23
824.507	55.12
824.685	124.76
824.863	-16.55
825.04	57.17
825.218	18.26
825.396	110.42
825.574	53.08
825.751	38.74
825.929	53.08
826.107	106.32
826.284	48.98
826.462	69.46
826.639	38.74
826.817	3.93
826.994	139.09
827.172	10.07
827.349	67.41
827.527	14.17
827.704	44.88
827.882	73.56
828.059	38.74
828.237	28.5
828.414	77.65
828.591	71.51
828.769	34.64
828.946	85.84
829.124	59.22
829.301	26.45
829.478	51.03
829.655	42.84
829.833	28.5
830.01	120.66
830.187	69.46
830.364	-6.31
830.542	40.79
830.719	85.84
830.896	18.26
831.073	83.8
831.25	75.6
831.427	55.12
831.604	-18.6
831.782	63.32
831.959	73.56
832.136	96.08
832.313	28.5
832.49	-28.84
832.667	28.5
832.844	77.65
833.021	5.97
833.198	-2.22
833.374	61.27
833.551	1.88
833.728	24.4
833.905	71.51
834.082	24.4
834.259	55.12
834.436	32.6
834.612	61.27
834.789	75.6
834.966	65.36
835.143	89.94
835.319	16.21
835.496	20.31
835.673	108.37
835.85	20.31
836.026	102.23
836.203	28.5
836.38	48.98
836.556	48.98
836.733	34.64
836.909	10.07
837.086	55.12
837.262	59.22
837.439	26.45
837.616	46.93
837.792	28.5
837.968	44.88
838.145	28.5
838.321	44.88
838.498	42.84
838.674	79.7
838.851	69.46
839.027	16.21
839.203	61.27
839.38	61.27
839.556	18.26
839.732	143.19
839.909	79.7
840.085	34.64
840.261	1.88
840.437	18.26
840.614	65.36
840.79	118.61
840.966	46.93
841.142	28.5
841.318	-4.27
841.494	28.5
841.671	100.18
841.847	71.51
842.023	61.27
842.199	75.6
842.375	46.93
842.551	30.55
842.727	44.88
842.903	63.32
843.079	-4.27
843.255	16.21
843.431	38.74
843.607	40.79
843.783	36.69
843.959	69.46
844.134	28.5
844.31	44.88
844.486	42.84
844.662	-37.03
844.838	-41.13
845.013	96.08
845.189	75.6
845.365	1.88
845.541	26.45
845.716	1.88
845.892	-28.84
846.068	44.88
846.244	61.27
846.419	36.69
846.595	67.41
846.77	53.08
846.946	67.41
847.122	-20.65
847.297	59.22
847.473	36.69
847.648	44.88
847.824	24.4
847.999	3.93
848.175	-28.84
848.35	51.03
848.526	18.26
848.701	65.36
848.876	67.41
849.052	51.03
849.227	77.65
849.403	77.65
849.578	53.08
849.753	36.69
849.929	73.56
850.104	12.12
850.279	32.6
850.454	8.02
850.63	28.5
850.805	89.94
850.98	5.97
851.155	57.17
851.33	116.56
851.505	51.03
851.681	42.84
851.856	32.6
852.031	69.46
852.206	38.74
852.381	22.36
852.556	10.07
852.731	46.93
852.906	18.26
853.081	110.42
853.256	14.17
853.431	20.31
853.606	-4.27
853.781	53.08
853.956	32.6
854.131	51.03
854.305	-16.55
854.48	-14.51
854.655	3.93
854.83	-12.46
855.005	61.27
855.18	51.03
855.354	-18.6
855.529	65.36
855.704	32.6
855.879	69.46
856.053	63.32
856.228	12.12
856.403	55.12
856.577	-22.7
856.752	94.04
856.926	77.65
857.101	1.88
857.276	14.17
857.45	-20.65
857.625	67.41
857.799	3.93
857.974	22.36
858.148	-0.17
858.323	46.93
858.497	-0.17
858.672	61.27
858.846	26.45
859.02	20.31
859.195	-22.7
859.369	65.36
859.543	28.5
859.718	-22.7
859.892	-24.75
860.066	96.08
860.241	-34.99
860.415	12.12
860.589	32.6
860.763	38.74
860.938	20.31
861.112	3.93
861.286	-34.99
861.46	1.88
861.634	-22.7
861.808	8.02
861.982	42.84
862.157	57.17
862.331	-30.89
862.505	32.6
862.679	46.93
862.853	71.51
863.027	-22.7
863.201	-6.31
863.375	12.12
863.549	87.89
863.722	24.4
863.896	-2.22
864.07	-4.27
864.244	77.65
864.418	14.17
864.592	-12.46
864.766	61.27
864.939	5.97
865.113	28.5
865.287	44.88
865.461	-49.32
865.634	67.41
865.808	3.93
865.982	12.12
866.156	20.31
866.329	69.46
866.503	63.32
866.676	12.12
866.85	59.22
867.024	-6.31
867.197	16.21
867.371	20.31
867.544	12.12
867.718	-12.46
867.891	14.17
868.065	-0.17
868.238	61.27
868.412	12.12
868.585	53.08
868.759	-6.31
868.932	-8.36
869.105	-26.79
869.279	16.21
869.452	-14.51
869.625	57.17
869.799	-37.03
869.972	-24.75
870.145	12.12
870.319	63.32
870.492	38.74
870.665	18.26
870.838	-49.32
871.011	42.84
871.185	12.12
871.358	53.08
871.531	36.69
871.704	36.69
871.877	63.32
872.05	14.17
872.223	-4.27
872.396	53.08
872.569	73.56
872.742	-0.17
872.915	71.51
873.088	85.84
873.261	-2.22
873.434	28.5
873.607	28.5
873.78	83.8
873.953	57.17
874.126	-34.99
874.299	-8.36
874.471	42.84
874.644	69.46
874.817	83.8
874.99	73.56
875.163	28.5
875.335	-32.94
875.508	12.12
875.681	106.32
875.853	28.5
876.026	42.84
876.199	5.97
876.371	81.75
876.544	-2.22
876.717	-0.17
876.889	69.46
877.062	77.65
877.234	26.45
877.407	-12.46
877.579	-10.41
877.752	-49.32
877.924	24.4
878.097	-12.46
878.269	26.45
878.442	-37.03
878.614	8.02
878.786	18.26
878.959	1.88
879.131	16.21
879.303	-14.51
879.476	-20.65
879.648	65.36
879.82	-0.17
879.993	40.79
880.165	34.64
880.337	55.12
880.509	26.45
880.681	-4.27
880.854	-10.41
881.026	59.22
881.198	96.08
881.37	65.36
881.542	38.74
881.714	-22.7
881.886	10.07
882.058	-59.56
882.23	24.4
882.402	14.17
882.574	16.21
882.746	20.31
882.918	36.69
883.09	-30.89
883.262	-16.55
883.434	-16.55
883.606	71.51
883.778	-22.7
883.95	71.51
884.122	-2.22
884.293	20.31
884.465	18.26
884.637	63.32
884.809	73.56
884.98	22.36
885.152	-10.41
885.324	63.32
885.496	63.32
885.667	40.79
885.839	-2.22
886.011	-30.89
886.182	-12.46
886.354	38.74
886.525	5.97
886.697	-6.31
886.869	-20.65
887.04	-39.08
887.212	38.74
887.383	55.12
887.555	38.74
887.726	38.74
887.897	32.6
888.069	38.74
888.24	85.84
888.412	3.93
888.583	26.45
888.754	20.31
888.926	-63.66
889.097	-10.41
889.268	44.88
889.44	89.94
889.611	18.26
889.782	32.6
889.953	-16.55
890.125	61.27
890.296	24.4
890.467	57.17
890.638	26.45
890.809	-53.42
890.98	-86.19
891.151	46.93
891.323	-30.89
891.494	26.45
891.665	-8.36
891.836	122.71
892.007	-8.36
892.178	-14.51
892.349	48.98
892.52	36.69
892.691	5.97
892.862	20.31
893.032	-2.22
893.203	-12.46
893.374	-53.42
893.545	61.27
893.716	71.51
893.887	75.6
894.057	36.69
894.228	-0.17
894.399	-16.55
894.57	85.84
894.74	8.02
894.911	69.46
895.082	-14.51
895.253	-37.03
895.423	28.5
895.594	51.03
895.764	-41.13
895.935	18.26
896.106	59.22
896.276	20.31
896.447	30.55
896.617	40.79
896.788	-6.31
896.958	5.97
897.129	14.17
897.299	87.89
897.47	36.69
897.64	-28.84
897.81	16.21
897.981	-24.75
898.151	-2.22
898.322	38.74
898.492	8.02
898.662	46.93
898.832	-39.08
899.003	69.46
899.173	65.36
899.343	14.17
899.513	-55.47
