Data from USB4F104151__11__12-53-12-675.txt Node

Date: Fri Mar 14 12:53:12 EDT 2025
User: louis
Spectrometer: USB4F10415
Trigger mode: 4
Integration Time (sec): 1.000000E-2
Scans to average: 1
Electric dark correction enabled: true
Nonlinearity correction enabled: false
Boxcar width: 0
XAxis mode: Wavelengths
Number of Pixels in Spectrum: 3648
>>>>>Begin Spectral Data<<<<<
178.204	-0.51
178.424	-0.51
178.644	-0.51
178.864	-12.8
179.084	-96.77
179.304	52.74
179.524	-0.51
179.744	-51.71
179.964	24.06
180.184	58.88
180.404	-96.77
180.624	17.92
180.844	15.87
181.064	5.63
181.283	-23.04
181.503	24.06
181.723	-27.14
181.943	-49.66
182.163	-10.75
182.383	58.88
182.602	-57.86
182.822	-35.33
183.042	101.89
183.262	5.63
183.482	17.92
183.701	-33.28
183.921	-6.66
184.141	1.54
184.361	46.59
184.58	1.54
184.8	44.54
185.02	-0.51
185.239	69.12
185.459	30.21
185.679	75.26
185.898	-18.94
186.118	34.3
186.338	44.54
186.557	48.64
186.777	7.68
186.997	7.68
187.216	7.68
187.436	-6.66
187.655	69.12
187.875	40.45
188.095	36.35
188.314	58.88
188.534	58.88
188.753	-10.75
188.973	30.21
189.192	71.17
189.412	42.5
189.631	7.68
189.851	-10.75
190.07	5.63
190.29	46.59
190.509	58.88
190.729	67.07
190.948	9.73
191.168	1.54
191.387	-20.99
191.607	-33.28
191.826	-2.56
192.045	1.54
192.265	24.06
192.484	60.93
192.704	5.63
192.923	-25.09
193.142	13.82
193.362	56.83
193.581	58.88
193.8	-18.94
194.02	-6.66
194.239	-18.94
194.458	-8.7
194.678	-61.95
194.897	17.92
195.116	30.21
195.335	58.88
195.555	-18.94
195.774	34.3
195.993	13.82
196.212	32.26
196.432	36.35
196.651	24.06
196.87	58.88
197.089	-49.66
197.308	38.4
197.528	81.41
197.747	26.11
197.966	-16.9
198.185	-2.56
198.404	67.07
198.623	36.35
198.842	50.69
199.062	85.5
199.281	15.87
199.5	26.11
199.719	32.26
199.938	3.58
200.157	32.26
200.376	19.97
200.595	7.68
200.814	-2.56
201.033	-23.04
201.252	26.11
201.471	9.73
201.69	-68.09
201.909	28.16
202.128	-0.51
202.347	3.58
202.566	52.74
202.785	19.97
203.004	-8.7
203.223	67.07
203.442	65.02
203.661	-25.09
203.879	34.3
204.098	-61.95
204.317	11.78
204.536	58.88
204.755	-27.14
204.974	22.02
205.193	11.78
205.411	56.83
205.63	73.21
205.849	24.06
206.068	73.21
206.287	3.58
206.505	7.68
206.724	-37.38
206.943	28.16
207.162	-61.95
207.381	3.58
207.599	24.06
207.818	-53.76
208.037	44.54
208.255	-23.04
208.474	-12.8
208.693	44.54
208.911	-57.86
209.13	48.64
209.349	32.26
209.567	-0.51
209.786	26.11
210.005	5.63
210.223	75.26
210.442	-6.66
210.661	65.02
210.879	-4.61
211.098	9.73
211.316	-23.04
211.535	44.54
211.753	17.92
211.972	26.11
212.191	34.3
212.409	19.97
212.628	5.63
212.846	3.58
213.065	-10.75
213.283	89.6
213.502	1.54
213.72	-6.66
213.938	52.74
214.157	15.87
214.375	-0.51
214.594	7.68
214.812	26.11
215.031	15.87
215.249	-43.52
215.467	34.3
215.686	-45.57
215.904	71.17
216.122	28.16
216.341	75.26
216.559	11.78
216.778	34.3
216.996	34.3
217.214	15.87
217.432	-23.04
217.651	-14.85
217.869	54.78
218.087	24.06
218.306	-37.38
218.524	15.87
218.742	50.69
218.96	-51.71
219.179	60.93
219.397	24.06
219.615	15.87
219.833	17.92
220.051	-61.95
220.27	30.21
220.488	9.73
220.706	58.88
220.924	22.02
221.142	93.69
221.36	22.02
221.578	52.74
221.796	52.74
222.015	-0.51
222.233	-16.9
222.451	34.3
222.669	124.41
222.887	48.64
223.105	30.21
223.323	36.35
223.541	-4.61
223.759	32.26
223.977	69.12
224.195	38.4
224.413	52.74
224.631	56.83
224.849	15.87
225.067	58.88
225.285	-43.52
225.503	-51.71
225.721	13.82
225.939	-16.9
226.157	1.54
226.375	26.11
226.592	26.11
226.81	28.16
227.028	65.02
227.246	89.6
227.464	17.92
227.682	56.83
227.9	9.73
228.117	67.07
228.335	-0.51
228.553	7.68
228.771	67.07
228.989	-6.66
229.206	83.45
229.424	9.73
229.642	83.45
229.86	26.11
230.077	85.5
230.295	9.73
230.513	40.45
230.731	30.21
230.948	-29.18
231.166	15.87
231.384	-12.8
231.601	19.97
231.819	26.11
232.037	-2.56
232.254	1.54
232.472	54.78
232.689	5.63
232.907	11.78
233.125	99.84
233.342	79.36
233.56	1.54
233.777	26.11
233.995	40.45
234.213	28.16
234.43	-20.99
234.648	-12.8
234.865	65.02
235.083	32.26
235.3	-31.23
235.518	58.88
235.735	87.55
235.953	26.11
236.17	-16.9
236.388	73.21
236.605	-64
236.822	56.83
237.04	-8.7
237.257	1.54
237.475	56.83
237.692	67.07
237.909	-8.7
238.127	15.87
238.344	42.5
238.562	9.73
238.779	-33.28
238.996	-51.71
239.214	7.68
239.431	58.88
239.648	13.82
239.865	56.83
240.083	7.68
240.3	19.97
240.517	19.97
240.735	44.54
240.952	65.02
241.169	58.88
241.386	17.92
241.603	30.21
241.821	-25.09
242.038	-23.04
242.255	-39.42
242.472	93.69
242.689	-14.85
242.907	71.17
243.124	48.64
243.341	36.35
243.558	28.16
243.775	17.92
243.992	-6.66
244.209	-16.9
244.426	54.78
244.643	97.79
244.86	15.87
245.078	19.97
245.295	46.59
245.512	44.54
245.729	44.54
245.946	83.45
246.163	46.59
246.38	-59.9
246.597	-18.94
246.814	3.58
247.031	60.93
247.248	114.17
247.464	11.78
247.681	-35.33
247.898	28.16
248.115	-0.51
248.332	13.82
248.549	97.79
248.766	9.73
248.983	58.88
249.2	28.16
249.417	48.64
249.633	91.65
249.85	42.5
250.067	40.45
250.284	36.35
250.501	3.58
250.717	-37.38
250.934	24.06
251.151	19.97
251.368	24.06
251.585	26.11
251.801	32.26
252.018	9.73
252.235	1.54
252.451	48.64
252.668	17.92
252.885	56.83
253.102	5.63
253.318	11.78
253.535	-4.61
253.752	11.78
253.968	-25.09
254.185	-59.9
254.401	-14.85
254.618	24.06
254.835	42.5
255.051	34.3
255.268	9.73
255.484	83.45
255.701	42.5
255.917	73.21
256.134	69.12
256.351	15.87
256.567	-25.09
256.784	13.82
257	-72.19
257.217	112.13
257.433	50.69
257.65	-33.28
257.866	26.11
258.082	22.02
258.299	17.92
258.515	15.87
258.732	36.35
258.948	52.74
259.165	15.87
259.381	24.06
259.597	48.64
259.814	30.21
260.03	-16.9
260.246	112.13
260.463	71.17
260.679	75.26
260.895	1.54
261.112	46.59
261.328	-4.61
261.544	-25.09
261.761	95.74
261.977	24.06
262.193	19.97
262.409	26.11
262.626	26.11
262.842	-35.33
263.058	-47.62
263.274	60.93
263.49	54.78
263.707	95.74
263.923	-20.99
264.139	26.11
264.355	65.02
264.571	-14.85
264.787	13.82
265.004	-25.09
265.22	15.87
265.436	24.06
265.652	56.83
265.868	-14.85
266.084	30.21
266.3	11.78
266.516	46.59
266.732	46.59
266.948	26.11
267.164	52.74
267.38	69.12
267.596	56.83
267.812	11.78
268.028	75.26
268.244	3.58
268.46	-10.75
268.676	32.26
268.892	-4.61
269.108	-41.47
269.324	-23.04
269.54	7.68
269.756	30.21
269.972	19.97
270.188	5.63
270.403	13.82
270.619	38.4
270.835	77.31
271.051	-0.51
271.267	-88.57
271.483	46.59
271.698	62.98
271.914	-37.38
272.13	22.02
272.346	19.97
272.562	-10.75
272.777	65.02
272.993	32.26
273.209	79.36
273.425	22.02
273.64	34.3
273.856	73.21
274.072	-23.04
274.287	11.78
274.503	69.12
274.719	73.21
274.934	-27.14
275.15	-18.94
275.366	9.73
275.581	-18.94
275.797	17.92
276.012	38.4
276.228	44.54
276.444	-29.18
276.659	48.64
276.875	32.26
277.09	81.41
277.306	11.78
277.521	-23.04
277.737	38.4
277.952	-10.75
278.168	22.02
278.383	26.11
278.599	30.21
278.814	-0.51
279.03	-2.56
279.245	85.5
279.461	-25.09
279.676	5.63
279.892	48.64
280.107	-2.56
280.322	-18.94
280.538	26.11
280.753	89.6
280.969	-27.14
281.184	-10.75
281.399	40.45
281.615	-2.56
281.83	17.92
282.045	46.59
282.26	36.35
282.476	54.78
282.691	54.78
282.906	19.97
283.122	30.21
283.337	3.58
283.552	40.45
283.767	58.88
283.983	15.87
284.198	-68.09
284.413	42.5
284.628	-6.66
284.843	7.68
285.058	44.54
285.274	48.64
285.489	-29.18
285.704	79.36
285.919	67.07
286.134	19.97
286.349	65.02
286.564	38.4
286.779	13.82
286.995	24.06
287.21	32.26
287.425	126.46
287.64	-10.75
287.855	17.92
288.07	-27.14
288.285	7.68
288.5	-14.85
288.715	101.89
288.93	15.87
289.145	48.64
289.36	-43.52
289.575	-23.04
289.79	-10.75
290.004	60.93
290.219	62.98
290.434	28.16
290.649	79.36
290.864	62.98
291.079	67.07
291.294	62.98
291.509	15.87
291.724	19.97
291.938	38.4
292.153	-8.7
292.368	46.59
292.583	15.87
292.798	9.73
293.012	42.5
293.227	22.02
293.442	7.68
293.657	-14.85
293.871	52.74
294.086	44.54
294.301	95.74
294.516	-29.18
294.73	58.88
294.945	7.68
295.16	-70.14
295.374	58.88
295.589	3.58
295.804	34.3
296.018	36.35
296.233	26.11
296.447	32.26
296.662	40.45
296.877	-6.66
297.091	19.97
297.306	24.06
297.52	-23.04
297.735	32.26
297.949	42.5
298.164	40.45
298.378	-25.09
298.593	-6.66
298.807	-49.66
299.022	44.54
299.236	-16.9
299.451	-8.7
299.665	3.58
299.88	28.16
300.094	40.45
300.309	67.07
300.523	52.74
300.737	26.11
300.952	28.16
301.166	-6.66
301.381	-23.04
301.595	46.59
301.809	-16.9
302.024	19.97
302.238	40.45
302.452	-10.75
302.667	99.84
302.881	36.35
303.095	-12.8
303.309	50.69
303.524	15.87
303.738	28.16
303.952	13.82
304.166	15.87
304.381	3.58
304.595	44.54
304.809	-16.9
305.023	56.83
305.237	24.06
305.452	26.11
305.666	15.87
305.88	42.5
306.094	44.54
306.308	-18.94
306.522	-20.99
306.736	110.08
306.95	97.79
307.164	69.12
307.379	-27.14
307.593	85.5
307.807	48.64
308.021	93.69
308.235	32.26
308.449	-25.09
308.663	54.78
308.877	75.26
309.091	1.54
309.305	17.92
309.519	48.64
309.733	26.11
309.947	32.26
310.161	75.26
310.374	58.88
310.588	95.74
310.802	13.82
311.016	15.87
311.23	9.73
311.444	38.4
311.658	42.5
311.872	28.16
312.085	19.97
312.299	48.64
312.513	69.12
312.727	30.21
312.941	36.35
313.154	1.54
313.368	9.73
313.582	85.5
313.796	42.5
314.009	48.64
314.223	62.98
314.437	60.93
314.651	-82.43
314.864	-10.75
315.078	30.21
315.292	-18.94
315.505	-6.66
315.719	28.16
315.933	-16.9
316.146	46.59
316.36	1.54
316.573	11.78
316.787	73.21
317.001	34.3
317.214	-25.09
317.428	30.21
317.641	50.69
317.855	17.92
318.068	65.02
318.282	38.4
318.495	3.58
318.709	48.64
318.922	-6.66
319.136	73.21
319.349	40.45
319.563	-4.61
319.776	79.36
319.99	42.5
320.203	26.11
320.417	144.89
320.63	54.78
320.843	28.16
321.057	32.26
321.27	50.69
321.483	34.3
321.697	30.21
321.91	-8.7
322.124	32.26
322.337	-35.33
322.55	-31.23
322.763	-25.09
322.977	42.5
323.19	-10.75
323.403	1.54
323.617	19.97
323.83	28.16
324.043	73.21
324.256	44.54
324.469	22.02
324.683	34.3
324.896	-64
325.109	13.82
325.322	81.41
325.535	77.31
325.748	75.26
325.962	89.6
326.175	11.78
326.388	-35.33
326.601	50.69
326.814	83.45
327.027	38.4
327.24	52.74
327.453	83.45
327.666	75.26
327.879	83.45
328.092	48.64
328.305	-53.76
328.518	58.88
328.731	44.54
328.944	19.97
329.157	-20.99
329.37	13.82
329.583	95.74
329.796	-25.09
330.009	-39.42
330.222	-2.56
330.435	75.26
330.648	38.4
330.861	28.16
331.073	85.5
331.286	65.02
331.499	73.21
331.712	65.02
331.925	79.36
332.138	19.97
332.35	-2.56
332.563	22.02
332.776	112.13
332.989	26.11
333.202	67.07
333.414	-49.66
333.627	9.73
333.84	-8.7
334.053	36.35
334.265	65.02
334.478	15.87
334.691	81.41
334.903	-53.76
335.116	-2.56
335.329	36.35
335.541	9.73
335.754	65.02
335.966	75.26
336.179	-25.09
336.392	17.92
336.604	44.54
336.817	19.97
337.029	-51.71
337.242	5.63
337.454	-8.7
337.667	17.92
337.88	46.59
338.092	-4.61
338.305	22.02
338.517	60.93
338.729	62.98
338.942	13.82
339.154	54.78
339.367	56.83
339.579	9.73
339.792	15.87
340.004	22.02
340.217	26.11
340.429	85.5
340.641	38.4
340.854	-23.04
341.066	-18.94
341.278	67.07
341.491	34.3
341.703	-39.42
341.915	62.98
342.128	-39.42
342.34	-18.94
342.552	19.97
342.764	87.55
342.977	26.11
343.189	48.64
343.401	77.31
343.613	1.54
343.826	58.88
344.038	48.64
344.25	50.69
344.462	38.4
344.674	89.6
344.886	73.21
345.099	44.54
345.311	95.74
345.523	34.3
345.735	44.54
345.947	42.5
346.159	79.36
346.371	52.74
346.583	-27.14
346.795	56.83
347.007	40.45
347.219	46.59
347.431	38.4
347.643	62.98
347.855	48.64
348.067	50.69
348.279	42.5
348.491	97.79
348.703	112.13
348.915	42.5
349.127	69.12
349.339	-64
349.551	-12.8
349.763	73.21
349.975	44.54
350.187	28.16
350.399	79.36
350.61	65.02
350.822	48.64
351.034	17.92
351.246	40.45
351.458	83.45
351.669	-16.9
351.881	-4.61
352.093	30.21
352.305	34.3
352.517	81.41
352.728	13.82
352.94	-0.51
353.152	73.21
353.363	19.97
353.575	89.6
353.787	54.78
353.999	50.69
354.21	40.45
354.422	40.45
354.633	-18.94
354.845	56.83
355.057	11.78
355.268	15.87
355.48	-8.7
355.692	24.06
355.903	34.3
356.115	5.63
356.326	7.68
356.538	-74.24
356.749	42.5
356.961	17.92
357.172	101.89
357.384	48.64
357.595	58.88
357.807	17.92
358.018	46.59
358.23	71.17
358.441	-0.51
358.653	48.64
358.864	67.07
359.075	91.65
359.287	-23.04
359.498	120.32
359.709	97.79
359.921	136.7
360.132	-14.85
360.344	11.78
360.555	87.55
360.766	7.68
360.977	40.45
361.189	40.45
361.4	28.16
361.611	93.69
361.823	26.11
362.034	77.31
362.245	44.54
362.456	7.68
362.667	75.26
362.879	46.59
363.09	65.02
363.301	81.41
363.512	62.98
363.723	44.54
363.935	24.06
364.146	73.21
364.357	13.82
364.568	38.4
364.779	15.87
364.99	1.54
365.201	-8.7
365.412	60.93
365.623	34.3
365.834	-6.66
366.045	3.58
366.256	58.88
366.467	-43.52
366.678	69.12
366.889	46.59
367.1	28.16
367.311	-23.04
367.522	89.6
367.733	28.16
367.944	60.93
368.155	42.5
368.366	60.93
368.577	83.45
368.788	1.54
368.999	46.59
369.209	-16.9
369.42	52.74
369.631	44.54
369.842	-2.56
370.053	91.65
370.264	24.06
370.474	50.69
370.685	42.5
370.896	38.4
371.107	24.06
371.317	-2.56
371.528	40.45
371.739	83.45
371.95	50.69
372.16	40.45
372.371	44.54
372.582	7.68
372.792	54.78
373.003	34.3
373.214	62.98
373.424	-16.9
373.635	58.88
373.846	-23.04
374.056	28.16
374.267	9.73
374.477	34.3
374.688	17.92
374.898	-0.51
375.109	-18.94
375.319	30.21
375.53	58.88
375.74	-18.94
375.951	24.06
376.161	93.69
376.372	60.93
376.582	-14.85
376.793	-8.7
377.003	7.68
377.214	79.36
377.424	58.88
377.635	9.73
377.845	22.02
378.055	83.45
378.266	36.35
378.476	17.92
378.686	-4.61
378.897	67.07
379.107	22.02
379.317	30.21
379.528	5.63
379.738	58.88
379.948	40.45
380.158	118.27
380.369	26.11
380.579	85.5
380.789	-12.8
380.999	103.93
381.21	36.35
381.42	108.03
381.63	-16.9
381.84	13.82
382.05	34.3
382.261	93.69
382.471	-6.66
382.681	56.83
382.891	93.69
383.101	69.12
383.311	62.98
383.521	42.5
383.731	58.88
383.941	44.54
384.151	22.02
384.361	52.74
384.571	36.35
384.781	24.06
384.991	30.21
385.201	140.8
385.411	67.07
385.621	28.16
385.831	5.63
386.041	97.79
386.251	67.07
386.461	48.64
386.671	85.5
386.881	-6.66
387.091	40.45
387.301	30.21
387.511	130.56
387.72	50.69
387.93	36.35
388.14	-6.66
388.35	54.78
388.56	79.36
388.769	134.65
388.979	19.97
389.189	48.64
389.399	65.02
389.609	69.12
389.818	54.78
390.028	71.17
390.238	32.26
390.447	52.74
390.657	34.3
390.867	75.26
391.076	42.5
391.286	26.11
391.496	44.54
391.705	69.12
391.915	48.64
392.125	79.36
392.334	26.11
392.544	65.02
392.753	48.64
392.963	62.98
393.172	105.98
393.382	38.4
393.591	50.69
393.801	60.93
394.01	73.21
394.22	48.64
394.429	44.54
394.639	22.02
394.848	130.56
395.058	3.58
395.267	71.17
395.477	67.07
395.686	124.41
395.895	65.02
396.105	95.74
396.314	22.02
396.524	24.06
396.733	34.3
396.942	65.02
397.152	34.3
397.361	136.7
397.57	1.54
397.78	87.55
397.989	15.87
398.198	52.74
398.407	101.89
398.617	9.73
398.826	116.22
399.035	89.6
399.244	89.6
399.453	124.41
399.663	40.45
399.872	28.16
400.081	52.74
400.29	58.88
400.499	38.4
400.708	108.03
400.917	83.45
401.127	89.6
401.336	97.79
401.545	89.6
401.754	110.08
401.963	87.55
402.172	120.32
402.381	-12.8
402.59	5.63
402.799	30.21
403.008	103.93
403.217	62.98
403.426	126.46
403.635	73.21
403.844	19.97
404.053	151.04
404.262	136.7
404.471	118.27
404.68	130.56
404.888	77.31
405.097	58.88
405.306	124.41
405.515	81.41
405.724	146.94
405.933	200.19
406.142	124.41
406.35	165.37
406.559	112.13
406.768	99.84
406.977	118.27
407.185	126.46
407.394	185.85
407.603	151.04
407.812	132.61
408.02	144.89
408.229	77.31
408.438	105.98
408.646	130.56
408.855	181.76
409.064	194.05
409.272	153.09
409.481	116.22
409.69	140.8
409.898	148.99
410.107	161.28
410.315	243.2
410.524	175.61
410.733	138.75
410.941	181.76
411.15	265.72
411.358	220.67
411.567	210.43
411.775	142.85
411.984	280.06
412.192	294.4
412.401	312.83
412.609	292.35
412.818	280.06
413.026	284.16
413.234	288.25
413.443	247.29
413.651	300.54
413.86	290.3
414.068	304.64
414.276	364.03
414.485	458.23
414.693	333.31
414.901	413.18
415.11	417.27
415.318	519.67
415.526	445.95
415.734	443.9
415.943	466.42
416.151	491
416.359	501.24
416.567	431.61
416.776	486.9
416.984	554.49
417.192	525.82
417.4	566.78
417.608	519.67
417.817	574.97
418.025	568.82
418.233	699.89
418.441	671.22
418.649	730.61
418.857	720.37
419.065	790
419.273	730.61
419.481	804.34
419.689	744.95
419.897	859.63
420.105	833.01
420.313	878.07
420.521	951.79
420.729	978.42
420.937	931.31
421.145	1019.38
421.353	1039.86
421.561	1138.16
421.769	1097.2
421.977	1261.04
422.185	1142.25
422.393	1201.65
422.601	1304.04
422.809	1256.94
423.017	1154.54
423.224	1271.28
423.432	1484.27
423.64	1410.54
423.848	1445.35
424.056	1410.54
424.263	1664.49
424.471	1662.44
424.679	1652.2
424.887	1764.84
425.094	1658.34
425.302	1639.91
425.51	1811.94
425.718	1828.32
425.925	1850.85
426.133	1981.92
426.341	2088.42
426.548	2196.96
426.756	2182.62
426.964	2248.16
427.171	2444.76
427.379	2282.97
427.586	2452.95
427.794	2522.59
428.001	2532.83
428.209	2696.66
428.417	2672.09
428.624	2964.95
428.832	2891.22
429.039	2930.13
429.247	2893.27
429.454	3145.17
429.662	3331.53
429.869	3286.48
430.076	3438.03
430.284	3329.49
430.491	3458.51
430.699	3530.19
430.906	3718.6
431.114	3673.54
431.321	3810.76
431.528	3788.23
431.736	4193.73
431.943	4367.81
432.15	4316.61
432.358	4349.37
432.565	4603.32
432.772	4490.68
432.979	4711.86
433.187	4861.37
433.394	4988.34
433.601	5279.15
433.808	5178.8
434.016	5352.88
434.223	5399.98
434.43	5588.39
434.637	5455.28
434.844	5971.36
435.052	5885.35
435.259	5985.7
435.466	6202.79
435.673	6032.8
435.88	6372.77
436.087	6747.55
436.294	6761.88
436.501	6688.15
436.708	6696.35
436.915	6882.71
437.122	7097.75
437.329	7241.11
437.537	7548.3
437.743	7691.66
437.95	7759.24
438.157	8304
438.364	8226.18
438.571	8293.76
438.778	8480.13
438.985	9102.71
439.192	8729.98
439.399	9092.47
439.606	8926.58
439.813	9446.77
440.02	9930.09
440.227	9811.31
440.433	9823.59
440.64	9901.42
440.847	9784.68
441.054	10216.8
441.261	10802.52
441.467	10610.01
441.674	10841.43
441.881	11113.81
442.088	11394.39
442.294	11308.37
442.501	11498.83
442.708	11656.53
442.914	12205.38
443.121	12758.33
443.328	12205.38
443.534	13219.13
443.741	12961.08
443.948	12713.28
444.154	13516.08
444.361	13559.09
444.568	13638.96
444.774	13772.08
444.981	13663.54
445.187	14200.1
445.394	14859.55
445.6	14628.13
445.807	16123.15
446.013	15469.84
446.22	15676.69
446.426	16389.38
446.633	16571.65
446.839	16948.48
447.046	16524.55
447.252	17151.23
447.459	17224.95
447.665	16944.38
447.871	18095.34
448.078	18662.63
448.284	17806.58
448.491	18334.95
448.697	18889.95
448.903	19260.63
449.11	19393.75
449.316	19135.71
449.522	19303.64
449.728	19850.45
449.935	20284.62
450.141	20174.03
450.347	20491.46
450.553	19948.75
450.76	20274.38
450.966	21091.52
451.172	20573.38
451.378	21333.18
451.584	20798.66
451.791	21210.3
451.997	21144.77
452.203	21490.87
452.409	21759.16
452.615	21623.99
452.821	20692.16
453.027	20804.8
453.233	21634.23
453.44	20665.54
453.646	21068.99
453.852	21054.65
454.058	21460.15
454.264	20493.51
454.47	21204.16
454.676	20821.19
454.882	21748.92
455.088	19600.6
455.294	20106.45
455.5	20139.21
455.705	20653.25
455.911	19588.31
456.117	19236.06
456.323	19016.93
456.529	18011.37
456.735	18787.55
456.941	18459.88
457.147	17814.77
457.352	17356.02
457.558	17061.12
457.764	17126.65
457.97	16954.62
458.176	16493.83
458.381	16633.09
458.587	15863.05
458.793	15981.84
458.999	14947.61
459.204	16069.9
459.41	15602.96
459.616	14714.14
459.821	14763.29
460.027	14486.82
460.233	14310.69
460.438	13636.91
460.644	13854
460.85	13110.58
461.055	13090.1
461.261	13051.19
461.466	12016.97
461.672	11597.14
461.878	12381.51
462.083	11599.18
462.289	11369.81
462.494	11306.32
462.7	10775.9
462.905	10538.34
463.111	10931.55
463.316	10839.39
463.522	10583.39
463.727	10896.73
463.932	10634.59
464.138	10540.38
464.343	10798.43
464.549	10401.12
464.754	10855.77
464.959	10698.08
465.165	10763.61
465.37	10147.17
465.575	9964.9
465.781	10249.57
465.986	10468.7
466.191	9966.95
466.397	9803.11
466.602	9295.22
466.807	9608.56
467.012	9663.85
467.218	9637.23
467.423	9762.16
467.628	9526.64
467.833	9872.75
468.038	9645.42
468.244	9479.54
468.449	9725.29
468.654	9495.92
468.859	9489.78
469.064	9397.62
469.269	8928.63
469.474	9096.57
469.679	9203.06
469.885	9063.8
470.09	9053.56
470.295	9012.6
470.5	8865.14
470.705	8842.62
470.91	8643.96
471.115	8557.95
471.32	8709.5
471.525	8691.07
471.73	8416.64
471.935	8533.37
472.139	8138.12
472.344	8199.55
472.549	8242.56
472.754	7982.47
472.959	7835.02
473.164	7650.7
473.369	7542.16
473.574	7855.5
473.778	7749
473.983	7806.34
474.188	7810.44
474.393	7323.02
474.598	7386.51
474.802	7462.29
475.007	7241.11
475.212	7292.3
475.417	6944.15
475.621	6935.96
475.826	6911.38
476.031	6743.45
476.235	6694.3
476.44	6849.94
476.645	6542.75
476.849	6739.35
477.054	6733.21
477.259	6696.35
477.463	6528.41
477.668	6340
477.872	6378.91
478.077	6213.03
478.282	6229.41
478.486	6120.87
478.691	6051.24
478.895	6063.52
479.1	6079.91
479.304	5932.45
479.509	5782.95
479.713	6045.09
479.918	5758.38
480.122	5684.65
480.326	5914.02
480.531	5928.36
480.735	5838.25
480.94	5776.81
481.144	5936.55
481.348	5596.59
481.553	5592.49
481.757	5619.11
481.961	5754.28
482.166	5701.03
482.37	5741.99
482.574	5588.39
482.778	5717.42
482.983	5692.84
483.187	5516.72
483.391	5735.85
483.595	5569.96
483.8	5533.1
484.004	5459.37
484.208	5664.17
484.412	5666.22
484.616	5766.57
484.821	5639.59
485.025	5479.85
485.229	5698.99
485.433	5785
485.637	5508.52
485.841	5559.72
486.045	5520.81
486.249	5621.16
486.453	5619.11
486.657	5674.41
486.861	5698.99
487.065	5547.44
487.269	5793.19
487.473	5686.7
487.677	5711.27
487.881	5776.81
488.085	5621.16
488.289	5875.11
488.493	5760.42
488.697	5807.53
488.901	5739.94
489.105	5688.75
489.309	5803.43
489.512	5774.76
489.716	5830.06
489.92	5809.58
490.124	5828.01
490.328	5963.17
490.531	6051.24
490.735	5899.69
490.939	6127.01
491.143	5932.45
491.346	5828.01
491.55	5907.88
491.754	6127.01
491.958	6057.38
492.161	6057.38
492.365	6120.87
492.569	6337.95
492.772	6188.45
492.976	6280.61
493.18	6329.76
493.383	6327.71
493.587	6428.06
493.79	6561.18
493.994	6352.29
494.197	6585.76
494.401	6593.95
494.605	6557.08
494.808	6677.91
495.012	6684.06
495.215	6677.91
495.419	6890.9
495.622	6837.66
495.825	7155.09
496.029	6905.24
496.232	7153.04
496.436	7087.51
496.639	7337.36
496.843	7484.81
497.046	7652.75
497.249	7632.27
497.453	7695.75
497.656	7660.94
497.859	7816.58
498.063	7814.54
498.266	8017.29
498.469	7742.86
498.673	8062.34
498.876	8174.98
499.079	8392.06
499.282	8289.67
499.485	8584.57
499.689	8648.06
499.892	8613.24
500.095	9020.79
500.298	9100.66
500.501	8910.2
500.705	9147.76
500.908	9223.54
501.111	9442.67
501.314	9315.7
501.517	9608.56
501.72	9934.18
501.923	9729.39
502.126	10108.26
502.329	10206.56
502.532	10329.44
502.735	10403.17
502.938	10773.85
503.141	10653.02
503.344	10665.31
503.547	10730.84
503.75	11005.27
503.953	11201.88
504.156	11427.15
504.359	11185.49
504.562	11421.01
504.765	11828.56
504.968	11810.12
505.17	12133.7
505.373	12229.96
505.576	12111.18
505.779	12557.63
505.982	12598.59
506.185	12770.62
506.387	12907.84
506.59	13137.21
506.793	13495.6
506.996	13505.84
507.198	13831.47
507.401	13587.76
507.604	13980.97
507.807	14183.72
508.009	14128.42
508.212	14425.38
508.415	14896.41
508.617	14720.29
508.82	14773.53
509.022	15146.26
509.225	15281.43
509.428	15473.94
509.63	15555.86
509.833	15654.16
510.035	16184.59
510.238	16098.57
510.44	16606.47
510.643	16373
510.845	16657.67
511.048	16659.71
511.25	16911.61
511.453	17024.25
511.655	17704.18
511.858	17566.96
512.06	17767.66
512.262	18056.43
512.465	17947.89
512.667	18394.34
512.87	18633.96
513.072	18916.58
513.274	19053.79
513.477	19238.11
513.679	19477.72
513.881	19633.36
514.084	20094.16
514.286	19897.55
514.488	20112.59
514.69	20638.92
514.893	20841.67
515.095	20896.96
515.297	20872.39
515.499	21058.75
515.701	21087.42
515.904	21521.59
516.106	22115.5
516.308	22140.08
516.51	22285.48
516.712	22475.95
516.914	22801.57
517.116	23135.39
517.318	23245.98
517.52	22944.93
517.722	23581.85
517.925	23721.11
518.127	23966.87
518.329	24181.9
518.531	23762.07
518.733	24689.8
518.935	24913.03
519.136	25283.71
519.338	25320.57
519.54	25330.81
519.742	25631.86
519.944	25494.65
520.146	25855.09
520.348	26143.86
520.55	26469.48
520.752	26369.13
520.954	27288.67
521.155	26727.53
521.357	27624.54
521.559	27446.37
521.761	27978.84
521.963	27790.42
522.164	28011.6
522.366	28191.83
522.568	28632.14
522.77	28339.28
522.971	28980.29
523.173	28593.23
523.375	29078.6
523.576	29346.88
523.778	29174.85
523.98	29494.33
524.181	29957.17
524.383	29727.8
524.584	30153.78
524.786	30288.95
524.988	30252.08
525.189	30704.68
525.391	30624.81
525.592	30981.16
525.794	31095.85
525.995	31044.65
526.197	31382.56
526.398	31247.4
526.6	31845.4
526.801	31714.33
527.003	31880.22
527.204	32085.01
527.406	31835.16
527.607	32144.41
527.808	32064.53
528.01	31876.12
528.211	32291.86
528.412	32969.74
528.614	32676.88
528.815	32664.59
529.016	32683.02
529.218	32584.72
529.419	32986.12
529.62	33205.25
529.822	33211.4
530.023	33113.09
530.224	33678.33
530.425	33502.21
530.626	33192.97
530.828	32914.44
531.029	34006.01
531.23	33745.92
531.431	33823.74
531.632	33723.39
531.833	33950.71
532.035	34038.78
532.236	33934.33
532.437	34436.08
532.638	33967.1
532.839	34343.92
533.04	34667.5
533.241	33999.87
533.442	34724.85
533.643	34501.62
533.844	34227.19
534.045	34388.98
534.246	34282.48
534.447	34470.9
534.648	34186.23
534.849	34446.32
535.05	34407.41
535.251	34626.54
535.451	34622.45
535.652	34583.54
535.853	34821.1
536.054	34448.37
536.255	35001.32
536.456	34552.82
536.657	35298.28
536.857	34692.08
537.058	34851.82
537.259	35345.38
537.46	34976.75
537.66	34653.17
537.861	34966.51
538.062	34870.25
538.263	35251.17
538.463	34735.09
538.664	34812.91
538.865	34925.55
539.065	35419.11
539.266	35087.34
539.466	35484.64
539.667	34812.91
539.868	35410.92
540.068	35179.5
540.269	35144.68
540.469	35333.09
540.67	35150.82
540.87	35249.13
541.071	35097.58
541.271	35396.58
541.472	35027.95
541.672	35367.91
541.873	35224.55
542.073	34618.35
542.274	35591.14
542.474	35202.02
542.675	35476.45
542.875	35365.86
543.075	35148.78
543.276	34628.59
543.476	35814.37
543.676	35193.83
543.877	35484.64
544.077	35169.26
544.277	35331.04
544.478	35339.24
544.678	35552.23
544.878	35296.23
545.078	35503.07
545.279	34958.31
545.479	34999.27
545.679	35304.42
545.879	35408.87
546.079	35511.27
546.28	35476.45
546.48	35073
546.68	35349.48
546.88	35351.52
547.08	35716.06
547.28	35122.15
547.48	35193.83
547.68	35236.84
547.88	35343.33
548.081	35472.35
548.281	35660.77
548.481	35216.36
548.681	35664.86
548.881	35472.35
549.081	35390.44
549.28	35458.02
549.48	35560.42
549.68	35294.18
549.88	36066.27
550.08	35242.98
550.28	35548.13
550.48	35138.54
550.68	35840.99
550.88	35449.83
551.08	35312.61
551.279	35312.61
551.479	35271.65
551.679	35505.12
551.879	35185.64
552.079	35697.63
552.278	35245.03
552.478	35380.2
552.678	35369.96
552.878	35236.84
553.077	35324.9
553.277	34702.32
553.477	35726.3
553.676	35181.54
553.876	35398.63
554.076	35322.85
554.275	35214.31
554.475	35017.71
554.674	35421.16
554.874	34898.92
555.074	34839.53
555.273	35306.47
555.473	35464.16
555.672	35154.92
555.872	34946.03
556.071	34894.83
556.271	35724.25
556.47	34808.81
556.67	34724.85
556.869	35109.86
557.068	34935.79
557.268	35046.38
557.467	34939.88
557.667	34847.72
557.866	34847.72
558.065	34597.87
558.265	34849.77
558.464	34933.74
558.663	34874.35
558.863	34452.47
559.062	35050.47
559.261	34745.33
559.461	34913.26
559.66	34765.81
559.859	34771.95
560.058	34677.74
560.258	34755.57
560.457	34415.6
560.656	34823.15
560.855	34630.64
561.054	34839.53
561.253	34565.1
561.453	34771.95
561.652	34698.22
561.851	34319.35
562.05	34249.72
562.249	34214.9
562.448	34368.5
562.647	34694.13
562.846	34003.96
563.045	34499.57
563.244	34112.5
563.443	34569.2
563.642	34026.49
563.841	34276.34
564.04	34194.42
564.239	34479.09
564.438	34323.44
564.637	34208.76
564.836	34188.28
565.035	33850.36
565.234	34305.01
565.432	33905.66
565.631	34327.54
565.83	34118.65
566.029	33903.61
566.228	33793.02
566.427	34106.36
566.625	34008.06
566.824	33874.94
567.023	34032.63
567.222	33287.17
567.42	33868.8
567.619	34030.58
567.818	33555.46
568.016	33899.51
568.215	33881.08
568.414	33778.68
568.612	33676.29
568.811	33467.39
569.01	33672.19
569.208	33168.39
569.407	33448.96
569.605	33455.11
569.804	33747.97
570.002	33414.15
570.201	33696.77
570.4	33156.1
570.598	33244.16
570.797	32777.23
570.995	33229.83
571.193	32812.04
571.392	33147.91
571.59	33006.6
571.789	33221.64
571.987	32558.1
572.186	32746.51
572.384	32756.75
572.582	32857.1
572.781	32744.46
572.979	32754.7
573.177	32697.36
573.376	32310.29
573.574	32603.15
573.772	32521.23
573.971	32259.09
574.169	32023.58
574.367	32144.41
574.565	31962.14
574.763	32287.76
574.962	31841.31
575.16	31493.15
575.358	31917.08
575.556	31603.74
575.754	32363.54
575.952	31220.77
576.151	31919.13
576.349	31280.16
576.547	31714.33
576.745	31400.99
576.943	31616.03
577.141	31376.42
577.339	31183.91
577.537	31237.16
577.735	31218.72
577.933	31212.58
578.131	31376.42
578.329	30684.2
578.527	30739.5
578.725	30833.71
578.923	30624.81
579.121	30686.25
579.319	30784.55
579.516	31011.88
579.714	30334
579.912	30448.69
580.11	30622.76
580.308	30579.76
580.506	30288.95
580.704	29926.46
580.901	30506.03
581.099	30503.98
581.297	29709.37
581.495	30159.92
581.692	29891.64
581.89	29488.19
582.088	30112.82
582.285	29869.11
582.483	30108.72
582.681	29699.13
582.878	29297.73
583.076	29070.4
583.274	29729.85
583.471	28953.67
583.669	29383.74
583.866	28822.6
584.064	29150.28
584.262	28925
584.459	29453.37
584.657	29025.35
584.854	29103.17
585.052	28781.64
585.249	28925
585.447	29097.03
585.644	28476.49
585.841	28851.27
586.039	28970.05
586.236	28234.83
586.434	28314.7
586.631	28132.43
586.828	28109.91
587.026	28601.42
587.223	28343.38
587.42	27630.68
587.618	27960.41
587.815	27984.98
588.012	27970.65
588.21	27685.98
588.407	28005.46
588.604	27608.15
588.801	27350.11
588.999	27401.31
589.196	27634.78
589.393	27425.89
589.59	27190.37
589.787	27262.05
589.984	27235.42
590.182	26743.91
590.379	27069.54
590.576	26936.42
590.773	27036.77
590.97	26983.52
591.167	26897.51
591.364	26412.14
591.561	26930.28
591.758	26774.63
591.955	26289.26
592.152	26649.71
592.349	26295.41
592.546	26059.89
592.743	26123.38
592.94	25545.85
593.137	26037.36
593.334	26129.52
593.531	25947.25
593.727	25816.18
593.924	25803.89
594.121	25365.63
594.318	26010.74
594.515	25267.33
594.712	25652.34
594.908	25406.59
595.105	25613.43
595.302	25310.33
595.499	25371.77
595.696	25371.77
595.892	25087.11
596.089	25183.36
596.286	25357.44
596.482	24902.79
596.679	25052.29
596.876	24736.9
597.072	24835.21
597.269	24781.96
597.466	24231.05
597.662	24601.74
597.859	24454.28
598.055	24253.58
598.252	23848.08
598.448	24036.5
598.645	24427.66
598.841	23723.16
599.038	24001.68
599.234	24276.11
599.431	23831.7
599.627	23827.6
599.824	23587.99
600.02	23553.18
600.217	23604.38
600.413	23565.46
600.609	23325.85
600.806	23438.49
601.002	23510.17
601.198	23321.76
601.395	23086.24
601.591	22977.7
601.787	23108.77
601.984	22559.91
602.18	23180.45
602.376	22713.51
602.572	22699.17
602.769	22885.54
602.965	22357.16
603.161	22500.52
603.357	22602.92
603.553	22285.48
603.75	22162.61
603.946	22256.81
604.142	22432.94
604.338	21791.92
604.534	22422.7
604.73	21959.86
604.926	21638.33
605.122	22164.65
605.318	21650.61
605.514	21812.4
605.71	21497.02
605.906	21753.01
606.102	21691.57
606.298	21689.53
606.494	21595.32
606.69	21402.81
606.886	21628.09
607.082	21132.48
607.278	21130.43
607.474	20888.77
607.67	21066.94
607.866	20880.58
608.062	21251.26
608.257	20673.73
608.453	20964.54
608.649	21112
608.845	20686.02
609.041	20608.2
609.236	21050.56
609.432	20612.29
609.628	20634.82
609.824	20528.33
610.019	20415.69
610.215	20745.41
610.411	20606.15
610.606	20561.09
610.802	20671.68
610.998	20520.13
611.193	20401.35
611.389	20298.95
611.584	20077.77
611.78	19918.03
611.976	20221.13
612.171	20174.03
612.367	20288.71
612.562	19963.09
612.758	19637.46
612.953	19799.25
613.149	20083.92
613.344	19684.56
613.539	19975.38
613.735	19698.9
613.93	19750.1
614.126	19588.31
614.321	19989.71
614.517	19870.93
614.712	19596.5
614.907	19426.52
615.103	19580.12
615.298	19428.57
615.493	19797.2
615.688	19268.83
615.884	19625.17
616.079	19229.91
616.274	19365.08
616.47	19346.65
616.665	19182.81
616.86	18947.29
617.055	18924.77
617.25	18957.53
617.445	19211.48
617.641	18564.32
617.836	19127.52
618.031	18625.76
618.226	18656.48
618.421	18494.69
618.616	18648.29
618.811	18549.99
619.006	18787.55
619.201	18103.53
619.396	18611.43
619.591	17929.45
619.786	18332.9
619.981	18052.33
620.176	18234.6
620.371	18011.37
620.566	17966.32
620.761	17997.04
620.956	17687.79
621.151	17562.87
621.346	17847.54
621.541	17374.45
621.735	17562.87
621.93	17214.71
622.125	17491.19
622.32	16962.81
622.515	16907.52
622.709	17001.72
622.904	16895.23
623.099	16710.91
623.294	16741.63
623.488	16770.3
623.683	16551.17
623.878	16385.29
624.072	16575.75
624.267	16319.75
624.462	16071.95
624.656	16243.98
624.851	15969.55
625.046	16114.95
625.24	16008.46
625.435	15729.94
625.629	15842.57
625.824	15791.38
626.018	15539.47
626.213	15142.17
626.407	15400.21
626.602	15252.76
626.796	15095.07
626.991	15181.08
627.185	15111.45
627.38	15050.01
627.574	14972.19
627.768	14959.9
627.963	14728.48
628.157	14570.79
628.352	14552.35
628.546	14304.55
628.74	14456.1
628.935	14183.72
629.129	14109.99
629.323	14204.2
629.517	14099.75
629.712	13884.72
629.906	13987.11
630.1	13892.91
630.294	14017.83
630.489	13700.4
630.683	13837.61
630.877	13688.11
631.071	13714.73
631.265	13559.09
631.459	13385.01
631.653	13323.57
631.848	13358.39
632.042	13219.13
632.236	13409.59
632.43	13172.02
632.624	13268.28
632.818	12764.48
633.012	12989.75
633.206	12985.66
633.4	12913.98
633.594	12662.08
633.788	12655.93
633.982	12504.39
634.176	12467.52
634.369	12547.39
634.563	12639.55
634.757	12600.64
634.951	12457.28
635.145	12205.38
635.339	12422.47
635.533	11971.91
635.726	12180.81
635.92	12107.08
636.114	11916.62
636.308	11967.82
636.501	12086.6
636.695	11765.07
636.889	11636.05
637.083	11582.8
637.276	11619.66
637.47	11492.69
637.664	11332.95
637.857	11384.15
638.051	11378
638.244	11248.98
638.438	11294.04
638.632	11199.83
638.825	10995.03
639.019	11226.45
639.212	10964.31
639.406	10845.53
639.599	10853.72
639.793	10947.93
639.986	10661.21
640.18	10855.77
640.373	10657.12
640.567	10368.35
640.76	10593.63
640.954	10372.45
641.147	10321.25
641.34	10257.76
641.534	10343.78
641.727	10175.84
641.92	10155.37
642.114	10110.31
642.307	9852.27
642.5	10184.04
642.694	9893.23
642.887	9831.79
643.08	9897.32
643.273	9725.29
643.467	9756.01
643.66	9602.41
643.853	9428.34
644.046	9510.25
644.239	9579.89
644.432	9446.77
644.626	9432.43
644.819	9282.93
645.012	9164.15
645.205	9229.68
645.398	9315.7
645.591	9135.48
645.784	8953.21
645.977	8861.05
646.17	8932.73
646.363	8877.43
646.556	8787.32
646.749	8772.99
646.942	8764.79
647.135	8594.81
647.328	8576.38
647.521	8588.67
647.714	8506.75
647.907	8463.74
648.099	8363.39
648.292	8387.97
648.485	8387.97
648.678	8166.79
648.871	8150.4
649.064	8045.96
649.256	8353.15
649.449	8015.24
649.642	8281.47
649.835	7906.7
650.027	8033.67
650.22	7800.2
650.413	7781.77
650.605	7763.34
650.798	7605.64
650.991	7765.39
651.183	7839.11
651.376	7605.64
651.568	7654.8
651.761	7427.47
651.954	7488.91
652.146	7462.29
652.339	7423.37
652.531	7382.42
652.724	7169.43
652.916	7433.61
653.109	7198.1
653.301	7265.68
653.494	7259.54
653.686	7036.31
653.879	7202.19
654.071	6813.08
654.263	7019.92
654.456	7083.41
654.648	6892.95
654.84	6786.46
655.033	6839.7
655.225	6745.5
655.417	6772.12
655.61	6673.82
655.802	6749.59
655.994	6573.47
656.186	6540.7
656.379	6378.91
656.571	6413.73
656.763	6423.97
656.955	6430.11
657.148	6397.34
657.34	6176.16
657.532	6378.91
657.724	6124.96
657.916	6200.74
658.108	6149.54
658.3	6135.2
658.492	6155.68
658.684	5983.65
658.876	6051.24
659.068	5942.69
659.26	5918.12
659.452	5848.49
659.644	5916.07
659.836	5705.13
660.028	5772.71
660.22	5672.36
660.412	5586.35
660.604	5475.76
660.796	5612.97
660.988	5537.2
661.18	5367.21
661.372	5555.63
661.563	5512.62
661.755	5397.93
661.947	5330.35
662.139	5311.92
662.331	5170.61
662.522	5207.47
662.714	5291.44
662.906	5133.75
663.097	5115.31
663.289	4887.99
663.481	5152.18
663.673	4986.29
663.864	4935.09
664.056	4965.81
664.247	5006.77
664.439	4705.72
664.631	4887.99
664.822	4744.63
665.014	4732.34
665.205	4629.95
665.397	4597.18
665.588	4693.43
665.78	4687.29
665.971	4709.82
666.163	4740.54
666.354	4414.91
666.546	4464.06
666.737	4515.26
666.929	4472.25
667.12	4423.1
667.311	4484.54
667.503	4384.19
667.694	4261.31
667.885	4296.13
668.077	4419
668.268	4109.76
668.459	4167.1
668.651	4242.88
668.842	4189.63
669.033	4158.91
669.224	4111.81
669.416	4187.58
669.607	4177.34
669.798	3894.72
669.989	3935.68
670.18	4064.71
670.371	3792.33
670.563	3823.05
670.754	3919.3
670.945	3882.44
671.136	3794.37
671.327	3677.64
671.518	3806.66
671.709	3886.53
671.9	3712.46
672.091	3714.5
672.282	3726.79
672.473	3706.31
672.664	3775.94
672.855	3751.37
673.046	3677.64
673.237	3671.5
673.428	3632.58
673.619	3521.99
673.809	3487.18
674	3579.34
674.191	3513.8
674.382	3587.53
674.573	3454.41
674.764	3476.94
674.954	3534.28
675.145	3474.89
675.336	3536.33
675.527	3331.53
675.717	3419.6
675.908	3302.86
676.099	3376.59
676.289	3288.53
676.48	3378.64
676.671	3220.94
676.861	3343.82
677.052	3292.62
677.243	3155.41
677.433	3182.03
677.624	3263.95
677.814	3083.73
678.005	3239.37
678.195	3186.13
678.386	3200.46
678.576	3010
678.767	3083.73
678.957	3241.42
679.148	3175.89
679.338	3106.26
679.529	3048.91
679.719	3100.11
679.909	2975.19
680.1	3057.11
680.29	3038.67
680.481	3018.19
680.671	2985.43
680.861	3036.63
681.052	3048.91
681.242	2999.76
681.432	3032.53
681.622	2971.09
681.813	2907.6
682.003	2926.04
682.193	3024.34
682.383	2930.13
682.573	2999.76
682.764	2840.02
682.954	2874.84
683.144	2827.73
683.334	2862.55
683.524	2880.98
683.714	2917.84
683.904	2983.38
684.094	2885.08
684.284	2885.08
684.474	2862.55
684.664	2852.31
684.854	2737.62
685.044	2934.23
685.234	2907.6
685.424	2932.18
685.614	2794.97
685.804	2817.49
685.994	2919.89
686.184	2862.55
686.374	2801.11
686.564	2690.52
686.753	2772.44
686.943	2821.59
687.133	2694.61
687.323	2784.73
687.513	2643.42
687.702	2670.04
687.892	2782.68
688.082	2633.18
688.272	2653.66
688.461	2772.44
688.651	2788.82
688.841	2702.81
689.03	2876.88
689.22	2743.77
689.41	2749.91
689.599	2647.51
689.789	2799.06
689.979	2612.7
690.168	2754.01
690.358	2606.55
690.547	2567.64
690.737	2612.7
690.926	2797.01
691.116	2633.18
691.305	2594.26
691.495	2678.23
691.684	2657.75
691.874	2569.69
692.063	2756.05
692.252	2604.5
692.442	2670.04
692.631	2774.49
692.82	2563.54
693.01	2614.74
693.199	2614.74
693.388	2491.87
693.578	2547.16
693.767	2553.31
693.956	2672.09
694.146	2534.87
694.335	2610.65
694.524	2598.36
694.713	2538.97
694.902	2532.83
695.092	2569.69
695.281	2491.87
695.47	2604.5
695.659	2455
695.848	2538.97
696.037	2440.67
696.226	2469.34
696.415	2379.23
696.604	2469.34
696.793	2452.95
696.982	2438.62
697.171	2424.28
697.36	2434.52
697.549	2442.71
697.738	2477.53
697.927	2457.05
698.116	2268.64
698.305	2383.32
698.494	2442.71
698.683	2405.85
698.872	2313.69
699.061	2330.08
699.25	2309.6
699.438	2432.47
699.627	2379.23
699.816	2244.06
700.005	2203.1
700.193	2282.97
700.382	2323.93
700.571	2487.77
700.76	2346.46
700.948	2287.07
701.137	2237.92
701.326	2328.03
701.514	2156
701.703	2350.56
701.892	2256.35
702.08	2211.29
702.269	2174.43
702.457	2186.72
702.646	2156
702.834	2194.91
703.023	2053.6
703.212	2072.03
703.4	2102.75
703.589	2227.68
703.777	2149.86
703.965	2078.18
704.154	1932.77
704.342	2033.12
704.531	2014.69
704.719	2143.71
704.907	2098.66
705.096	2133.47
705.284	2098.66
705.472	2078.18
705.661	1938.91
705.849	1986.02
706.037	2035.17
706.226	2049.5
706.414	1934.82
706.602	1869.28
706.79	1924.58
706.979	1947.11
707.167	1990.11
707.355	1828.32
707.543	1965.54
707.731	1934.82
707.919	1920.48
708.107	1883.62
708.296	1977.83
708.484	1834.47
708.672	1816.04
708.86	1854.95
709.048	1826.28
709.236	1990.11
709.424	1936.87
709.612	1834.47
709.8	1854.95
709.988	1887.72
710.176	1762.79
710.364	1762.79
710.551	1846.76
710.739	1795.56
710.927	1816.04
711.115	1875.43
711.303	1760.74
711.491	1760.74
711.679	1693.16
711.866	1693.16
712.054	1725.93
712.242	1619.43
712.43	1795.56
712.617	1719.78
712.805	1678.82
712.993	1715.69
713.181	1627.62
713.368	1695.21
713.556	1654.25
713.744	1652.2
713.931	1574.38
714.119	1646.05
714.306	1658.34
714.494	1594.86
714.682	1574.38
714.869	1590.76
715.057	1578.47
715.244	1613.29
715.432	1553.9
715.619	1498.6
715.807	1539.56
715.994	1490.41
716.182	1529.32
716.369	1551.85
716.556	1605.1
716.744	1469.93
716.931	1517.03
717.119	1523.18
717.306	1457.64
717.493	1512.94
717.681	1451.5
717.868	1471.98
718.055	1474.03
718.242	1539.56
718.43	1310.19
718.617	1506.79
718.804	1367.53
718.991	1390.06
719.179	1398.25
719.366	1357.29
719.553	1449.45
719.74	1451.5
719.927	1388.01
720.114	1347.05
720.301	1357.29
720.488	1293.8
720.676	1258.99
720.863	1293.8
721.05	1316.33
721.237	1414.63
721.424	1246.7
721.611	1306.09
721.798	1396.2
721.985	1230.32
722.172	1285.61
722.358	1287.66
722.545	1211.89
722.732	1328.62
722.919	1267.18
723.106	1271.28
723.293	1293.8
723.48	1277.42
723.667	1226.22
723.853	1164.78
724.04	1416.68
724.227	1228.27
724.414	1279.47
724.6	1213.93
724.787	1215.98
724.974	1220.08
725.161	1193.45
725.347	1154.54
725.534	1134.06
725.72	1123.82
725.907	1091.06
726.094	1142.25
726.28	1117.68
726.467	1150.45
726.653	1089.01
726.84	1187.31
727.027	1154.54
727.213	1107.44
727.4	1142.25
727.586	1109.49
727.773	1115.63
727.959	1156.59
728.145	1113.58
728.332	1123.82
728.518	1033.71
728.705	1136.11
728.891	1062.38
729.077	992.75
729.264	1089.01
729.45	1113.58
729.636	957.94
729.823	1050.1
730.009	1103.34
730.195	1093.1
730.382	1060.34
730.568	1046
730.754	959.99
730.94	1105.39
731.126	1046
731.313	957.94
731.499	992.75
731.685	1017.33
731.871	1074.67
732.057	1015.28
732.243	976.37
732.429	1005.04
732.615	996.85
732.801	966.13
732.987	974.32
733.173	959.99
733.359	959.99
733.545	892.4
733.731	923.12
733.917	966.13
734.103	892.4
734.289	996.85
734.475	1039.86
734.661	943.6
734.847	843.25
735.033	988.66
735.219	921.07
735.404	900.59
735.59	822.77
735.776	900.59
735.962	859.63
736.148	933.36
736.333	865.78
736.519	804.34
736.705	849.4
736.89	906.74
737.076	845.3
737.262	830.96
737.447	871.92
737.633	925.17
737.819	837.11
738.004	859.63
738.19	839.16
738.375	861.68
738.561	839.16
738.747	679.41
738.932	753.14
739.118	822.77
739.303	767.48
739.489	744.95
739.674	730.61
739.859	759.28
740.045	835.06
740.23	765.43
740.416	708.09
740.601	728.56
740.786	767.48
740.972	773.62
741.157	695.8
741.342	747
741.528	830.96
741.713	761.33
741.898	732.66
742.084	689.65
742.269	724.47
742.454	779.76
742.639	785.91
742.824	806.39
743.01	734.71
743.195	710.13
743.38	683.51
743.565	648.69
743.75	669.17
743.935	632.31
744.12	669.17
744.305	691.7
744.49	726.52
744.675	663.03
744.86	585.21
745.045	669.17
745.23	701.94
745.415	607.73
745.6	695.8
745.785	626.17
745.97	663.03
746.155	665.08
746.34	652.79
746.525	632.31
746.71	611.83
746.895	620.02
747.079	648.69
747.264	679.41
747.449	593.4
747.634	622.07
747.819	517.62
748.003	472.57
748.188	622.07
748.373	697.85
748.557	556.54
748.742	679.41
748.927	574.97
749.111	572.92
749.296	585.21
749.481	611.83
749.665	564.73
749.85	615.93
750.034	493.05
750.219	503.29
750.404	595.45
750.588	556.54
750.773	482.81
750.957	511.48
751.141	523.77
751.326	577.02
751.51	544.25
751.695	523.77
751.879	624.12
752.064	603.64
752.248	548.34
752.432	595.45
752.617	531.96
752.801	534.01
752.985	566.78
753.17	570.87
753.354	525.82
753.538	566.78
753.722	519.67
753.907	474.62
754.091	503.29
754.275	458.23
754.459	544.25
754.643	534.01
754.828	507.38
755.012	572.92
755.196	445.95
755.38	482.81
755.564	484.86
755.748	550.39
755.932	450.04
756.116	480.76
756.3	505.34
756.484	495.1
756.668	411.13
756.852	482.81
757.036	400.89
757.22	482.81
757.404	417.27
757.588	364.03
757.772	380.41
757.956	423.42
758.14	452.09
758.323	484.86
758.507	433.66
758.691	472.57
758.875	447.99
759.059	474.62
759.242	458.23
759.426	474.62
759.61	429.56
759.794	388.6
759.977	409.08
760.161	507.38
760.345	468.47
760.528	329.21
760.712	452.09
760.895	386.55
761.079	380.41
761.263	409.08
761.446	347.64
761.63	394.75
761.813	398.84
761.997	396.79
762.18	392.7
762.364	419.32
762.547	343.55
762.731	441.85
762.914	339.45
763.098	357.88
763.281	402.94
763.464	345.59
763.648	452.09
763.831	460.28
764.015	384.51
764.198	386.55
764.381	312.83
764.564	323.07
764.748	402.94
764.931	343.55
765.114	364.03
765.297	421.37
765.481	402.94
765.664	308.73
765.847	396.79
766.03	361.98
766.213	327.16
766.397	335.35
766.58	275.96
766.763	351.74
766.946	255.48
767.129	294.4
767.312	318.97
767.495	366.07
767.678	325.12
767.861	368.12
768.044	314.88
768.227	361.98
768.41	300.54
768.593	370.17
768.776	345.59
768.959	376.31
769.142	390.65
769.324	312.83
769.507	318.97
769.69	257.53
769.873	345.59
770.056	325.12
770.239	355.83
770.421	409.08
770.604	345.59
770.787	347.64
770.97	327.16
771.152	318.97
771.335	329.21
771.518	366.07
771.7	400.89
771.883	364.03
772.066	454.14
772.248	380.41
772.431	323.07
772.613	345.59
772.796	337.4
772.978	261.63
773.161	304.64
773.343	382.46
773.526	275.96
773.708	261.63
773.891	312.83
774.073	196.09
774.256	372.22
774.438	339.45
774.621	298.49
774.803	321.02
774.985	314.88
775.168	321.02
775.35	337.4
775.532	327.16
775.715	263.68
775.897	357.88
776.079	206.33
776.261	329.21
776.444	241.15
776.626	273.92
776.808	290.3
776.99	333.31
777.173	273.92
777.355	282.11
777.537	290.3
777.719	290.3
777.901	165.37
778.083	302.59
778.265	273.92
778.447	296.44
778.629	204.28
778.811	282.11
778.993	269.82
779.175	280.06
779.357	300.54
779.539	263.68
779.721	294.4
779.903	243.2
780.085	271.87
780.267	312.83
780.449	314.88
780.631	235
780.812	265.72
780.994	243.2
781.176	185.85
781.358	261.63
781.54	200.19
781.721	224.76
781.903	259.58
782.085	228.86
782.267	183.81
782.448	181.76
782.63	218.62
782.812	220.67
782.993	232.96
783.175	169.47
783.357	198.14
783.538	241.15
783.72	269.82
783.901	169.47
784.083	196.09
784.264	222.72
784.446	167.42
784.627	169.47
784.809	267.77
784.99	220.67
785.172	171.52
785.353	194.05
785.535	245.24
785.716	161.28
785.897	196.09
786.079	155.13
786.26	226.81
786.441	181.76
786.623	118.27
786.804	161.28
786.985	120.32
787.167	228.86
787.348	200.19
787.529	144.89
787.71	267.77
787.891	189.95
788.073	128.51
788.254	218.62
788.435	210.43
788.616	265.72
788.797	157.18
788.978	177.66
789.159	130.56
789.34	247.29
789.522	228.86
789.703	114.17
789.884	185.85
790.065	181.76
790.246	165.37
790.427	167.42
790.607	185.85
790.788	142.85
790.969	206.33
791.15	124.41
791.331	124.41
791.512	163.33
791.693	138.75
791.874	200.19
792.054	128.51
792.235	128.51
792.416	167.42
792.597	112.13
792.778	212.48
792.958	214.52
793.139	73.21
793.32	202.24
793.5	120.32
793.681	140.8
793.862	144.89
794.042	146.94
794.223	142.85
794.404	153.09
794.584	157.18
794.765	142.85
794.945	159.23
795.126	165.37
795.306	114.17
795.487	187.9
795.667	165.37
795.848	214.52
796.028	140.8
796.209	134.65
796.389	169.47
796.57	87.55
796.75	122.37
796.93	89.6
797.111	56.83
797.291	65.02
797.471	101.89
797.652	198.14
797.832	134.65
798.012	144.89
798.192	67.07
798.373	146.94
798.553	151.04
798.733	48.64
798.913	108.03
799.093	93.69
799.274	97.79
799.454	105.98
799.634	114.17
799.814	130.56
799.994	99.84
800.174	124.41
800.354	89.6
800.534	124.41
800.714	132.61
800.894	142.85
801.074	108.03
801.254	91.65
801.434	52.74
801.614	73.21
801.794	93.69
801.974	321.02
802.154	67.07
802.334	118.27
802.514	42.5
802.693	65.02
802.873	85.5
803.053	142.85
803.233	165.37
803.413	89.6
803.592	136.7
803.772	19.97
803.952	46.59
804.131	144.89
804.311	91.65
804.491	95.74
804.67	91.65
804.85	167.42
805.03	50.69
805.209	58.88
805.389	99.84
805.568	116.22
805.748	95.74
805.928	95.74
806.107	77.31
806.287	62.98
806.466	103.93
806.646	-12.8
806.825	134.65
807.004	177.66
807.184	93.69
807.363	134.65
807.543	9.73
807.722	73.21
807.901	140.8
808.081	97.79
808.26	95.74
808.439	134.65
808.619	28.16
808.798	44.54
808.977	67.07
809.156	60.93
809.336	34.3
809.515	58.88
809.694	159.23
809.873	85.5
810.052	79.36
810.231	87.55
810.411	112.13
810.59	93.69
810.769	52.74
810.948	122.37
811.127	60.93
811.306	93.69
811.485	52.74
811.664	114.17
811.843	40.45
812.022	122.37
812.201	146.94
812.38	134.65
812.559	28.16
812.737	148.99
812.916	13.82
813.095	30.21
813.274	24.06
813.453	40.45
813.632	114.17
813.811	81.41
813.989	50.69
814.168	91.65
814.347	52.74
814.526	130.56
814.704	79.36
814.883	44.54
815.062	69.12
815.24	52.74
815.419	56.83
815.598	-6.66
815.776	48.64
815.955	110.08
816.133	13.82
816.312	87.55
816.49	1.54
816.669	48.64
816.847	101.89
817.026	58.88
817.204	67.07
817.383	87.55
817.561	99.84
817.74	75.26
817.918	46.59
818.097	91.65
818.275	75.26
818.453	24.06
818.632	48.64
818.81	7.68
818.988	15.87
819.167	40.45
819.345	54.78
819.523	11.78
819.701	122.37
819.879	1.54
820.058	67.07
820.236	65.02
820.414	103.93
820.592	38.4
820.77	56.83
820.948	42.5
821.127	60.93
821.305	93.69
821.483	28.16
821.661	40.45
821.839	93.69
822.017	42.5
822.195	-55.81
822.373	83.45
822.551	32.26
822.729	50.69
822.907	13.82
823.085	54.78
823.262	91.65
823.44	132.61
823.618	-2.56
823.796	105.98
823.974	93.69
824.152	56.83
824.329	134.65
824.507	50.69
824.685	128.51
824.863	58.88
825.04	13.82
825.218	15.87
825.396	32.26
825.574	24.06
825.751	9.73
825.929	42.5
826.107	60.93
826.284	89.6
826.462	5.63
826.639	-25.09
826.817	-0.51
826.994	1.54
827.172	44.54
827.349	79.36
827.527	34.3
827.704	87.55
827.882	69.12
828.059	71.17
828.237	52.74
828.414	48.64
828.591	42.5
828.769	105.98
828.946	17.92
829.124	30.21
829.301	17.92
829.478	-4.61
829.655	28.16
829.833	69.12
830.01	67.07
830.187	22.02
830.364	67.07
830.542	56.83
830.719	19.97
830.896	52.74
831.073	50.69
831.25	44.54
831.427	79.36
831.604	73.21
831.782	60.93
831.959	40.45
832.136	-10.75
832.313	54.78
832.49	30.21
832.667	15.87
832.844	71.17
833.021	28.16
833.198	17.92
833.374	58.88
833.551	3.58
833.728	44.54
833.905	-8.7
834.082	134.65
834.259	32.26
834.436	105.98
834.612	103.93
834.789	73.21
834.966	24.06
835.143	79.36
835.319	7.68
835.496	67.07
835.673	19.97
835.85	34.3
836.026	46.59
836.203	34.3
836.38	9.73
836.556	91.65
836.733	79.36
836.909	40.45
837.086	24.06
837.262	-4.61
837.439	36.35
837.616	122.37
837.792	-6.66
837.968	-4.61
838.145	7.68
838.321	-14.85
838.498	-6.66
838.674	24.06
838.851	-14.85
839.027	28.16
839.203	99.84
839.38	26.11
839.556	77.31
839.732	36.35
839.909	-18.94
840.085	17.92
840.261	-29.18
840.437	56.83
840.614	-20.99
840.79	56.83
840.966	32.26
841.142	38.4
841.318	15.87
841.494	34.3
841.671	-45.57
841.847	28.16
842.023	22.02
842.199	15.87
842.375	-6.66
842.551	-23.04
842.727	-20.99
842.903	19.97
843.079	99.84
843.255	-8.7
843.431	22.02
843.607	48.64
843.783	-23.04
843.959	9.73
844.134	15.87
844.31	-10.75
844.486	-20.99
844.662	-33.28
844.838	-10.75
845.013	32.26
845.189	-6.66
845.365	60.93
845.541	15.87
845.716	-14.85
845.892	24.06
846.068	118.27
846.244	67.07
846.419	44.54
846.595	60.93
846.77	24.06
846.946	56.83
847.122	40.45
847.297	42.5
847.473	46.59
847.648	1.54
847.824	34.3
847.999	-4.61
848.175	-49.66
848.35	9.73
848.526	99.84
848.701	-18.94
848.876	60.93
849.052	-12.8
849.227	79.36
849.403	22.02
849.578	-12.8
849.753	58.88
849.929	-6.66
850.104	-25.09
850.279	7.68
850.454	26.11
850.63	7.68
850.805	38.4
850.98	73.21
851.155	52.74
851.33	136.7
851.505	28.16
851.681	40.45
851.856	48.64
852.031	75.26
852.206	19.97
852.381	15.87
852.556	60.93
852.731	67.07
852.906	48.64
853.081	36.35
853.256	19.97
853.431	-35.33
853.606	34.3
853.781	-29.18
853.956	-10.75
854.131	19.97
854.305	48.64
854.48	36.35
854.655	46.59
854.83	17.92
855.005	-29.18
855.18	42.5
855.354	24.06
855.529	28.16
855.704	73.21
855.879	-20.99
856.053	11.78
856.228	17.92
856.403	-39.42
856.577	36.35
856.752	13.82
856.926	-37.38
857.101	32.26
857.276	30.21
857.45	46.59
857.625	60.93
857.799	46.59
857.974	42.5
858.148	-6.66
858.323	9.73
858.497	65.02
858.672	-8.7
858.846	-47.62
859.02	32.26
859.195	3.58
859.369	-16.9
859.543	24.06
859.718	-6.66
859.892	15.87
860.066	73.21
860.241	-37.38
860.415	40.45
860.589	13.82
860.763	38.4
860.938	3.58
861.112	19.97
861.286	99.84
861.46	73.21
861.634	-0.51
861.808	5.63
861.982	52.74
862.157	56.83
862.331	19.97
862.505	48.64
862.679	17.92
862.853	-53.76
863.027	54.78
863.201	-0.51
863.375	30.21
863.549	-16.9
863.722	-14.85
863.896	26.11
864.07	-0.51
864.244	-0.51
864.418	-57.86
864.592	40.45
864.766	-12.8
864.939	-31.23
865.113	-12.8
865.287	44.54
865.461	75.26
865.634	-23.04
865.808	24.06
865.982	1.54
866.156	42.5
866.329	-14.85
866.503	48.64
866.676	38.4
866.85	-16.9
867.024	28.16
867.197	1.54
867.371	1.54
867.544	81.41
867.718	-45.57
867.891	46.59
868.065	58.88
868.238	-16.9
868.412	34.3
868.585	24.06
868.759	28.16
868.932	58.88
869.105	-20.99
869.279	-0.51
869.452	50.69
869.625	44.54
869.799	-39.42
869.972	-68.09
870.145	9.73
870.319	9.73
870.492	17.92
870.665	-0.51
870.838	15.87
871.011	15.87
871.185	-33.28
871.358	-41.47
871.531	3.58
871.704	52.74
871.877	19.97
872.05	-0.51
872.223	22.02
872.396	58.88
872.569	-2.56
872.742	-33.28
872.915	-20.99
873.088	-8.7
873.261	7.68
873.434	-0.51
873.607	62.98
873.78	30.21
873.953	9.73
874.126	34.3
874.299	3.58
874.471	-49.66
874.644	11.78
874.817	17.92
874.99	40.45
875.163	-23.04
875.335	17.92
875.508	9.73
875.681	60.93
875.853	-70.14
876.026	15.87
876.199	60.93
876.371	-33.28
876.544	-41.47
876.717	-2.56
876.889	-27.14
877.062	28.16
877.234	1.54
877.407	46.59
877.579	9.73
877.752	-4.61
877.924	32.26
878.097	65.02
878.269	83.45
878.442	7.68
878.614	-29.18
878.786	52.74
878.959	7.68
879.131	-6.66
879.303	-4.61
879.476	30.21
879.648	26.11
879.82	75.26
879.993	13.82
880.165	50.69
880.337	34.3
880.509	36.35
880.681	-6.66
880.854	83.45
881.026	34.3
881.198	71.17
881.37	56.83
881.542	-27.14
881.714	-37.38
881.886	-8.7
882.058	13.82
882.23	-20.99
882.402	32.26
882.574	17.92
882.746	-59.9
882.918	-10.75
883.09	38.4
883.262	-14.85
883.434	32.26
883.606	-25.09
883.778	-39.42
883.95	-6.66
884.122	3.58
884.293	1.54
884.465	44.54
884.637	-2.56
884.809	-12.8
884.98	-10.75
885.152	9.73
885.324	65.02
885.496	40.45
885.667	26.11
885.839	-2.56
886.011	-4.61
886.182	15.87
886.354	28.16
886.525	28.16
886.697	13.82
886.869	22.02
887.04	-37.38
887.212	89.6
887.383	22.02
887.555	-49.66
887.726	11.78
887.897	34.3
888.069	-23.04
888.24	40.45
888.412	-20.99
888.583	-109.05
888.754	17.92
888.926	-20.99
889.097	-20.99
889.268	24.06
889.44	28.16
889.611	-25.09
889.782	3.58
889.953	44.54
890.125	13.82
890.296	-33.28
890.467	17.92
890.638	38.4
890.809	-8.7
890.98	9.73
891.151	36.35
891.323	5.63
891.494	56.83
891.665	-2.56
891.836	54.78
892.007	-74.24
892.178	5.63
892.349	30.21
892.52	-0.51
892.691	19.97
892.862	28.16
893.032	28.16
893.203	-10.75
893.374	69.12
893.545	-18.94
893.716	24.06
893.887	-33.28
894.057	-2.56
894.228	-10.75
894.399	24.06
894.57	36.35
894.74	3.58
894.911	79.36
895.082	22.02
895.253	32.26
895.423	-14.85
895.594	-45.57
895.764	28.16
895.935	26.11
896.106	-0.51
896.276	-10.75
896.447	56.83
896.617	46.59
896.788	-27.14
896.958	19.97
897.129	-35.33
897.299	-55.81
897.47	-18.94
897.64	17.92
897.81	30.21
897.981	56.83
898.151	-18.94
898.322	65.02
898.492	-14.85
898.662	13.82
898.832	52.74
899.003	26.11
899.173	-31.23
899.343	24.06
899.513	11.78
