Data from USB4F104151__43__12-53-49-935.txt Node

Date: Fri Mar 14 12:53:49 EDT 2025
User: louis
Spectrometer: USB4F10415
Trigger mode: 4
Integration Time (sec): 1.000000E-2
Scans to average: 1
Electric dark correction enabled: true
Nonlinearity correction enabled: false
Boxcar width: 0
XAxis mode: Wavelengths
Number of Pixels in Spectrum: 3648
>>>>>Begin Spectral Data<<<<<
178.204	-22.02
178.424	-22.02
178.644	-22.02
178.864	45.57
179.084	-93.69
179.304	6.66
179.524	64
179.744	14.85
179.964	-5.63
180.184	33.28
180.404	2.56
180.624	23.04
180.844	-26.11
181.064	-30.21
181.283	-44.54
181.503	-24.06
181.723	-13.82
181.943	-15.87
182.163	4.61
182.383	-32.26
182.602	84.48
182.822	-67.07
183.042	37.38
183.262	-9.73
183.482	-5.63
183.701	68.09
183.921	49.66
184.141	43.52
184.361	-73.21
184.58	-38.4
184.8	-13.82
185.02	29.18
185.239	-30.21
185.459	39.42
185.679	16.9
185.898	-34.3
186.118	23.04
186.338	-75.26
186.557	23.04
186.777	31.23
186.997	23.04
187.216	39.42
187.436	8.7
187.655	45.57
187.875	8.7
188.095	-30.21
188.314	-5.63
188.534	27.14
188.753	45.57
188.973	10.75
189.192	55.81
189.412	16.9
189.631	-46.59
189.851	0.51
190.07	27.14
190.29	-34.3
190.509	-5.63
190.729	-79.36
190.948	-3.58
191.168	55.81
191.387	2.56
191.607	-9.73
191.826	66.05
192.045	-24.06
192.265	33.28
192.484	12.8
192.704	39.42
192.923	-30.21
193.142	-13.82
193.362	-15.87
193.581	37.38
193.8	-11.78
194.02	88.57
194.239	-13.82
194.458	-13.82
194.678	16.9
194.897	-60.93
195.116	12.8
195.335	-62.98
195.555	4.61
195.774	59.9
195.993	39.42
196.212	80.38
196.432	-15.87
196.651	12.8
196.87	-30.21
197.089	78.33
197.308	-22.02
197.528	-34.3
197.747	-22.02
197.966	57.86
198.185	55.81
198.404	-42.5
198.623	-9.73
198.842	20.99
199.062	37.38
199.281	51.71
199.5	-1.54
199.719	39.42
199.938	-62.98
200.157	66.05
200.376	-5.63
200.595	-32.26
200.814	-15.87
201.033	12.8
201.252	18.94
201.471	-13.82
201.69	6.66
201.909	51.71
202.128	55.81
202.347	121.34
202.566	41.47
202.785	111.1
203.004	-52.74
203.223	-34.3
203.442	33.28
203.661	94.72
203.879	-36.35
204.098	70.14
204.317	-9.73
204.536	45.57
204.755	41.47
204.974	2.56
205.193	-26.11
205.411	18.94
205.63	29.18
205.849	-9.73
206.068	-19.97
206.287	68.09
206.505	23.04
206.724	27.14
206.943	-3.58
207.162	61.95
207.381	-11.78
207.599	47.62
207.818	0.51
208.037	57.86
208.255	53.76
208.474	-7.68
208.693	8.7
208.911	20.99
209.13	-13.82
209.349	23.04
209.567	-22.02
209.786	43.52
210.005	6.66
210.223	-30.21
210.442	-103.93
210.661	25.09
210.879	-36.35
211.098	53.76
211.316	-46.59
211.535	-7.68
211.753	-15.87
211.972	-54.78
212.191	-32.26
212.409	29.18
212.628	33.28
212.846	23.04
213.065	47.62
213.283	10.75
213.502	-17.92
213.72	-17.92
213.938	47.62
214.157	51.71
214.375	45.57
214.594	39.42
214.812	-11.78
215.031	16.9
215.249	-95.74
215.467	20.99
215.686	25.09
215.904	72.19
216.122	39.42
216.341	51.71
216.559	12.8
216.778	31.23
216.996	64
217.214	16.9
217.432	31.23
217.651	0.51
217.869	29.18
218.087	-22.02
218.306	72.19
218.524	18.94
218.742	27.14
218.96	-13.82
219.179	12.8
219.397	55.81
219.615	25.09
219.833	10.75
220.051	-40.45
220.27	10.75
220.488	55.81
220.706	-69.12
220.924	-54.78
221.142	4.61
221.36	-11.78
221.578	29.18
221.796	-15.87
222.015	68.09
222.233	104.96
222.451	-71.17
222.669	-81.41
222.887	0.51
223.105	-17.92
223.323	35.33
223.541	-3.58
223.759	76.29
223.977	23.04
224.195	-17.92
224.413	-3.58
224.631	23.04
224.849	-15.87
225.067	4.61
225.285	-36.35
225.503	4.61
225.721	51.71
225.939	41.47
226.157	37.38
226.375	-36.35
226.592	31.23
226.81	31.23
227.028	92.67
227.246	43.52
227.464	104.96
227.682	0.51
227.9	27.14
228.117	-1.54
228.335	31.23
228.553	49.66
228.771	-3.58
228.989	-22.02
229.206	-7.68
229.424	76.29
229.642	27.14
229.86	51.71
230.077	78.33
230.295	72.19
230.513	35.33
230.731	51.71
230.948	-11.78
231.166	14.85
231.384	47.62
231.601	-22.02
231.819	-44.54
232.037	55.81
232.254	76.29
232.472	12.8
232.689	-19.97
232.907	-75.26
233.125	25.09
233.342	-26.11
233.56	29.18
233.777	-40.45
233.995	-32.26
234.213	-11.78
234.43	-71.17
234.648	0.51
234.865	51.71
235.083	10.75
235.3	27.14
235.518	35.33
235.735	-11.78
235.953	68.09
236.17	33.28
236.388	35.33
236.605	37.38
236.822	-11.78
237.04	72.19
237.257	57.86
237.475	31.23
237.692	70.14
237.909	80.38
238.127	-46.59
238.344	35.33
238.562	64
238.779	-13.82
238.996	12.8
239.214	-30.21
239.431	10.75
239.648	-52.74
239.865	8.7
240.083	4.61
240.3	16.9
240.517	-3.58
240.735	-26.11
240.952	-11.78
241.169	53.76
241.386	72.19
241.603	12.8
241.821	29.18
242.038	35.33
242.255	6.66
242.472	-13.82
242.689	33.28
242.907	35.33
243.124	14.85
243.341	37.38
243.558	4.61
243.775	14.85
243.992	64
244.209	14.85
244.426	94.72
244.643	-9.73
244.86	33.28
245.078	16.9
245.295	-7.68
245.512	-13.82
245.729	2.56
245.946	35.33
246.163	-42.5
246.38	33.28
246.597	4.61
246.814	-13.82
247.031	-19.97
247.248	-9.73
247.464	-26.11
247.681	39.42
247.898	14.85
248.115	12.8
248.332	39.42
248.549	29.18
248.766	6.66
248.983	-3.58
249.2	23.04
249.417	35.33
249.633	53.76
249.85	6.66
250.067	-40.45
250.284	-5.63
250.501	29.18
250.717	51.71
250.934	-22.02
251.151	61.95
251.368	-67.07
251.585	-5.63
251.801	90.62
252.018	51.71
252.235	55.81
252.451	-3.58
252.668	31.23
252.885	-19.97
253.102	6.66
253.318	51.71
253.535	59.9
253.752	6.66
253.968	2.56
254.185	-30.21
254.401	-1.54
254.618	135.68
254.835	45.57
255.051	23.04
255.268	8.7
255.484	8.7
255.701	25.09
255.917	47.62
256.134	-52.74
256.351	-28.16
256.567	-24.06
256.784	2.56
257	-38.4
257.217	18.94
257.433	6.66
257.65	49.66
257.866	35.33
258.082	-24.06
258.299	-5.63
258.515	-42.5
258.732	47.62
258.948	45.57
259.165	20.99
259.381	29.18
259.597	-11.78
259.814	18.94
260.03	20.99
260.246	37.38
260.463	51.71
260.679	-44.54
260.895	51.71
261.112	-17.92
261.328	-17.92
261.544	14.85
261.761	20.99
261.977	70.14
262.193	-15.87
262.409	45.57
262.626	31.23
262.842	-28.16
263.058	-15.87
263.274	86.53
263.49	-36.35
263.707	80.38
263.923	-15.87
264.139	-15.87
264.355	-22.02
264.571	59.9
264.787	-5.63
265.004	12.8
265.22	-44.54
265.436	-19.97
265.652	-15.87
265.868	-5.63
266.084	31.23
266.3	20.99
266.516	-17.92
266.732	23.04
266.948	-15.87
267.164	-19.97
267.38	20.99
267.596	59.9
267.812	29.18
268.028	14.85
268.244	29.18
268.46	27.14
268.676	31.23
268.892	20.99
269.108	12.8
269.324	-22.02
269.54	0.51
269.756	2.56
269.972	-9.73
270.188	-28.16
270.403	4.61
270.619	-17.92
270.835	4.61
271.051	-15.87
271.267	35.33
271.483	20.99
271.698	-108.03
271.914	18.94
272.13	51.71
272.346	-32.26
272.562	59.9
272.777	-1.54
272.993	4.61
273.209	-9.73
273.425	2.56
273.64	37.38
273.856	59.9
274.072	14.85
274.287	53.76
274.503	51.71
274.719	64
274.934	66.05
275.15	-5.63
275.366	33.28
275.581	0.51
275.797	20.99
276.012	53.76
276.228	-15.87
276.444	57.86
276.659	33.28
276.875	-3.58
277.09	-7.68
277.306	59.9
277.521	14.85
277.737	47.62
277.952	-24.06
278.168	0.51
278.383	-69.12
278.599	39.42
278.814	10.75
279.03	43.52
279.245	41.47
279.461	-17.92
279.676	-3.58
279.892	31.23
280.107	10.75
280.322	37.38
280.538	4.61
280.753	25.09
280.969	61.95
281.184	-50.69
281.399	-3.58
281.615	-9.73
281.83	12.8
282.045	6.66
282.26	45.57
282.476	53.76
282.691	45.57
282.906	25.09
283.122	74.24
283.337	2.56
283.552	23.04
283.767	51.71
283.983	27.14
284.198	23.04
284.413	35.33
284.628	-28.16
284.843	-11.78
285.058	6.66
285.274	6.66
285.489	-30.21
285.704	2.56
285.919	70.14
286.134	64
286.349	57.86
286.564	16.9
286.779	-38.4
286.995	23.04
287.21	-44.54
287.425	43.52
287.64	12.8
287.855	76.29
288.07	-7.68
288.285	35.33
288.5	29.18
288.715	-62.98
288.93	-36.35
289.145	37.38
289.36	-9.73
289.575	10.75
289.79	78.33
290.004	4.61
290.219	55.81
290.434	45.57
290.649	-9.73
290.864	43.52
291.079	64
291.294	4.61
291.509	20.99
291.724	84.48
291.938	43.52
292.153	23.04
292.368	14.85
292.583	76.29
292.798	51.71
293.012	61.95
293.227	35.33
293.442	12.8
293.657	-22.02
293.871	84.48
294.086	70.14
294.301	37.38
294.516	8.7
294.73	14.85
294.945	51.71
295.16	61.95
295.374	49.66
295.589	-34.3
295.804	107.01
296.018	39.42
296.233	66.05
296.447	18.94
296.662	90.62
296.877	-3.58
297.091	45.57
297.306	-44.54
297.52	4.61
297.735	-5.63
297.949	-22.02
298.164	35.33
298.378	12.8
298.593	45.57
298.807	14.85
299.022	12.8
299.236	29.18
299.451	39.42
299.665	27.14
299.88	23.04
300.094	0.51
300.309	4.61
300.523	-19.97
300.737	2.56
300.952	-60.93
301.166	57.86
301.381	51.71
301.595	51.71
301.809	43.52
302.024	-13.82
302.238	-52.74
302.452	61.95
302.667	86.53
302.881	31.23
303.095	41.47
303.309	27.14
303.524	12.8
303.738	47.62
303.952	33.28
304.166	2.56
304.381	14.85
304.595	-32.26
304.809	-17.92
305.023	35.33
305.237	29.18
305.452	4.61
305.666	25.09
305.88	12.8
306.094	10.75
306.308	-13.82
306.522	76.29
306.736	49.66
306.95	-19.97
307.164	37.38
307.379	20.99
307.593	6.66
307.807	27.14
308.021	6.66
308.235	4.61
308.449	18.94
308.663	33.28
308.877	-50.69
309.091	39.42
309.305	37.38
309.519	-60.93
309.733	29.18
309.947	20.99
310.161	49.66
310.374	51.71
310.588	64
310.802	-1.54
311.016	25.09
311.23	61.95
311.444	-5.63
311.658	16.9
311.872	94.72
312.085	78.33
312.299	0.51
312.513	-60.93
312.727	94.72
312.941	45.57
313.154	100.86
313.368	-15.87
313.582	33.28
313.796	102.91
314.009	0.51
314.223	4.61
314.437	12.8
314.651	47.62
314.864	12.8
315.078	-11.78
315.292	47.62
315.505	61.95
315.719	10.75
315.933	10.75
316.146	0.51
316.36	-17.92
316.573	18.94
316.787	55.81
317.001	57.86
317.214	14.85
317.428	39.42
317.641	51.71
317.855	64
318.068	-17.92
318.282	29.18
318.495	74.24
318.709	-17.92
318.922	47.62
319.136	10.75
319.349	59.9
319.563	127.49
319.776	20.99
319.99	45.57
320.203	51.71
320.417	2.56
320.63	-11.78
320.843	82.43
321.057	76.29
321.27	-46.59
321.483	66.05
321.697	31.23
321.91	41.47
322.124	33.28
322.337	-24.06
322.55	-24.06
322.763	2.56
322.977	37.38
323.19	-46.59
323.403	51.71
323.617	92.67
323.83	20.99
324.043	78.33
324.256	59.9
324.469	150.01
324.683	-5.63
324.896	61.95
325.109	8.7
325.322	-15.87
325.535	68.09
325.748	2.56
325.962	0.51
326.175	12.8
326.388	47.62
326.601	25.09
326.814	4.61
327.027	-11.78
327.24	104.96
327.453	33.28
327.666	37.38
327.879	109.05
328.092	90.62
328.305	92.67
328.518	-7.68
328.731	-97.79
328.944	-36.35
329.157	41.47
329.37	20.99
329.583	49.66
329.796	117.25
330.009	-30.21
330.222	-17.92
330.435	-36.35
330.648	16.9
330.861	-17.92
331.073	51.71
331.286	80.38
331.499	70.14
331.712	2.56
331.925	53.76
332.138	-46.59
332.35	45.57
332.563	-7.68
332.776	100.86
332.989	-5.63
333.202	12.8
333.414	18.94
333.627	-38.4
333.84	20.99
334.053	2.56
334.265	-5.63
334.478	51.71
334.691	23.04
334.903	16.9
335.116	27.14
335.329	72.19
335.541	12.8
335.754	4.61
335.966	2.56
336.179	49.66
336.392	-17.92
336.604	-24.06
336.817	49.66
337.029	70.14
337.242	-1.54
337.454	51.71
337.667	35.33
337.88	12.8
338.092	18.94
338.305	18.94
338.517	78.33
338.729	18.94
338.942	-15.87
339.154	53.76
339.367	35.33
339.579	-17.92
339.792	-11.78
340.004	45.57
340.217	27.14
340.429	133.63
340.641	41.47
340.854	18.94
341.066	68.09
341.278	76.29
341.491	53.76
341.703	2.56
341.915	6.66
342.128	-19.97
342.34	78.33
342.552	70.14
342.764	8.7
342.977	92.67
343.189	27.14
343.401	-24.06
343.613	-52.74
343.826	49.66
344.038	-15.87
344.25	41.47
344.462	53.76
344.674	18.94
344.886	-17.92
345.099	43.52
345.311	-58.88
345.523	100.86
345.735	-46.59
345.947	-1.54
346.159	-19.97
346.371	10.75
346.583	88.57
346.795	59.9
347.007	-13.82
347.219	37.38
347.431	43.52
347.643	61.95
347.855	59.9
348.067	68.09
348.279	57.86
348.491	68.09
348.703	2.56
348.915	37.38
349.127	37.38
349.339	25.09
349.551	45.57
349.763	49.66
349.975	33.28
350.187	49.66
350.399	49.66
350.61	-19.97
350.822	-17.92
351.034	-22.02
351.246	37.38
351.458	49.66
351.669	43.52
351.881	27.14
352.093	12.8
352.305	135.68
352.517	-48.64
352.728	92.67
352.94	8.7
353.152	47.62
353.363	53.76
353.575	20.99
353.787	117.25
353.999	55.81
354.21	72.19
354.422	-7.68
354.633	39.42
354.845	6.66
355.057	35.33
355.268	66.05
355.48	64
355.692	70.14
355.903	10.75
356.115	18.94
356.326	29.18
356.538	-32.26
356.749	12.8
356.961	2.56
357.172	10.75
357.384	41.47
357.595	23.04
357.807	57.86
358.018	18.94
358.23	25.09
358.441	23.04
358.653	88.57
358.864	68.09
359.075	-28.16
359.287	16.9
359.498	78.33
359.709	33.28
359.921	72.19
360.132	2.56
360.344	10.75
360.555	-3.58
360.766	-46.59
360.977	8.7
361.189	37.38
361.4	53.76
361.611	12.8
361.823	-3.58
362.034	10.75
362.245	25.09
362.456	35.33
362.667	-42.5
362.879	70.14
363.09	8.7
363.301	64
363.512	-5.63
363.723	-30.21
363.935	25.09
364.146	27.14
364.357	25.09
364.568	109.05
364.779	119.29
364.99	70.14
365.201	37.38
365.412	57.86
365.623	4.61
365.834	82.43
366.045	-46.59
366.256	14.85
366.467	8.7
366.678	129.53
366.889	0.51
367.1	53.76
367.311	57.86
367.522	23.04
367.733	80.38
367.944	10.75
368.155	37.38
368.366	14.85
368.577	-50.69
368.788	51.71
368.999	55.81
369.209	78.33
369.42	31.23
369.631	115.2
369.842	4.61
370.053	35.33
370.264	14.85
370.474	37.38
370.685	0.51
370.896	72.19
371.107	20.99
371.317	43.52
371.528	6.66
371.739	14.85
371.95	-5.63
372.16	102.91
372.371	51.71
372.582	31.23
372.792	33.28
373.003	78.33
373.214	94.72
373.424	76.29
373.635	33.28
373.846	12.8
374.056	82.43
374.267	94.72
374.477	-9.73
374.688	51.71
374.898	18.94
375.109	-9.73
375.319	10.75
375.53	70.14
375.74	37.38
375.951	-30.21
376.161	-7.68
376.372	20.99
376.582	33.28
376.793	25.09
377.003	39.42
377.214	70.14
377.424	-15.87
377.635	125.44
377.845	-3.58
378.055	29.18
378.266	4.61
378.476	10.75
378.686	57.86
378.897	-1.54
379.107	43.52
379.317	39.42
379.528	27.14
379.738	43.52
379.948	39.42
380.158	35.33
380.369	-13.82
380.579	51.71
380.789	6.66
380.999	86.53
381.21	84.48
381.42	96.77
381.63	-15.87
381.84	53.76
382.05	-19.97
382.261	39.42
382.471	6.66
382.681	53.76
382.891	12.8
383.101	55.81
383.311	35.33
383.521	25.09
383.731	23.04
383.941	35.33
384.151	98.81
384.361	45.57
384.571	18.94
384.781	125.44
384.991	10.75
385.201	12.8
385.411	74.24
385.621	45.57
385.831	74.24
386.041	78.33
386.251	25.09
386.461	92.67
386.671	-7.68
386.881	37.38
387.091	66.05
387.301	47.62
387.511	37.38
387.72	18.94
387.93	76.29
388.14	41.47
388.35	53.76
388.56	94.72
388.769	43.52
388.979	37.38
389.189	18.94
389.399	104.96
389.609	0.51
389.818	43.52
390.028	-11.78
390.238	59.9
390.447	-1.54
390.657	37.38
390.867	37.38
391.076	88.57
391.286	49.66
391.496	23.04
391.705	49.66
391.915	59.9
392.125	55.81
392.334	-11.78
392.544	78.33
392.753	76.29
392.963	25.09
393.172	37.38
393.382	-34.3
393.591	16.9
393.801	35.33
394.01	8.7
394.22	47.62
394.429	-9.73
394.639	4.61
394.848	68.09
395.058	78.33
395.267	45.57
395.477	39.42
395.686	-38.4
395.895	-3.58
396.105	109.05
396.314	72.19
396.524	78.33
396.733	66.05
396.942	53.76
397.152	72.19
397.361	107.01
397.57	78.33
397.78	74.24
397.989	76.29
398.198	80.38
398.407	33.28
398.617	14.85
398.826	111.1
399.035	43.52
399.244	94.72
399.453	90.62
399.663	129.53
399.872	16.9
400.081	59.9
400.29	64
400.499	88.57
400.708	145.92
400.917	-15.87
401.127	113.15
401.336	64
401.545	51.71
401.754	53.76
401.963	88.57
402.172	90.62
402.381	68.09
402.59	18.94
402.799	51.71
403.008	64
403.217	84.48
403.426	41.47
403.635	66.05
403.844	61.95
404.053	117.25
404.262	135.68
404.471	125.44
404.68	61.95
404.888	90.62
405.097	96.77
405.306	145.92
405.515	55.81
405.724	150.01
405.933	113.15
406.142	201.21
406.35	113.15
406.559	111.1
406.768	115.2
406.977	186.88
407.185	92.67
407.394	154.11
407.603	100.86
407.812	168.45
408.02	129.53
408.229	174.59
408.438	117.25
408.646	199.16
408.855	137.73
409.064	211.45
409.272	111.1
409.481	168.45
409.69	254.46
409.898	186.88
410.107	123.39
410.315	332.28
410.524	250.36
410.733	221.69
410.941	184.83
411.15	203.26
411.358	215.55
411.567	209.4
411.775	252.41
411.984	264.7
412.192	242.17
412.401	328.19
412.609	342.52
412.818	317.95
413.026	272.89
413.234	360.95
413.443	272.89
413.651	348.67
413.86	363
414.068	500.22
414.276	403.96
414.485	403.96
414.693	381.43
414.901	444.92
415.11	446.97
415.318	449.02
415.526	514.55
415.734	514.55
415.943	537.08
416.151	571.9
416.359	586.23
416.567	641.53
416.776	590.33
416.984	621.05
417.192	604.66
417.4	629.24
417.608	676.34
417.817	709.11
418.025	750.07
418.233	770.55
418.441	754.16
418.649	844.28
418.857	823.8
419.065	840.18
419.273	840.18
419.481	899.57
419.689	965.11
419.897	942.58
420.105	1018.35
420.313	1040.88
420.521	1096.18
420.729	1034.74
420.937	1090.03
421.145	1206.77
421.353	1194.48
421.561	1327.6
421.769	1255.92
421.977	1321.45
422.185	1331.69
422.393	1421.8
422.601	1485.29
422.809	1462.76
423.017	1599.98
423.224	1626.6
423.432	1597.93
423.64	1667.56
423.848	1860.07
424.056	1815.01
424.263	1829.35
424.471	1872.36
424.679	1815.01
424.887	1870.31
425.094	2046.43
425.302	2093.54
425.51	2165.21
425.718	2249.18
425.925	2255.33
426.133	2378.2
426.341	2380.25
426.548	2574.81
426.756	2591.19
426.964	2718.17
427.171	2841.04
427.379	2691.54
427.586	2877.91
427.794	2961.87
428.001	3123.66
428.209	3209.68
428.417	3195.34
428.624	3307.98
428.832	3432.91
429.039	3441.1
429.247	3338.7
429.454	3705.29
429.662	4100.55
429.869	3684.81
430.076	4028.87
430.284	3856.84
430.491	3934.66
430.699	4264.38
430.906	4356.54
431.114	4272.57
431.321	4516.28
431.528	4665.78
431.736	4753.85
431.943	5073.33
432.15	5015.99
432.358	4950.45
432.565	5269.94
432.772	5179.82
432.979	5511.6
433.187	5689.77
433.394	5642.67
433.601	6093.22
433.808	6181.28
434.016	6117.79
434.223	6365.6
434.43	6605.21
434.637	6676.89
434.844	6928.79
435.052	7172.5
435.259	7078.29
435.466	7076.24
435.673	6945.17
435.88	7608.72
436.087	8059.27
436.294	7913.86
436.501	7731.59
436.708	7950.73
436.915	8202.63
437.122	8475.01
437.329	8661.37
437.537	8849.78
437.743	9066.87
437.95	8956.28
438.157	9599.34
438.364	9673.07
438.571	9679.21
438.778	9673.07
438.985	10721.63
439.192	9927.02
439.399	10369.38
439.606	10279.27
439.813	10824.03
440.02	11538.77
440.227	11262.29
440.433	11221.33
440.64	11520.34
440.847	11727.18
441.054	11880.78
441.261	12794.17
441.467	12661.05
441.674	12642.62
441.881	13205.81
442.088	13345.08
442.294	13171
442.501	13275.45
442.708	13619.5
442.914	14414.12
443.121	14971.16
443.328	14641.44
443.534	15632.66
443.741	15395.09
443.948	14674.21
444.154	16052.49
444.361	15888.65
444.568	15964.43
444.774	15999.24
444.981	16234.76
445.187	16597.25
445.394	17244.41
445.6	17043.71
445.807	18538.73
446.013	17938.67
446.22	18319.59
446.426	19015.9
446.633	19210.46
446.839	19837.14
447.046	18995.42
447.252	20216.01
447.459	20492.49
447.665	20109.52
447.871	21248.19
448.078	21999.79
448.284	20887.75
448.491	21727.41
448.697	22188.21
448.903	22706.34
449.11	22730.92
449.316	22497.45
449.522	22925.47
449.728	23414.94
449.935	23695.51
450.141	23607.45
450.347	24422.54
450.553	23724.18
450.76	23941.27
450.966	24557.71
451.172	24268.94
451.378	24703.11
451.584	24723.59
451.791	24961.16
451.997	24639.62
452.203	25616.51
452.409	25270.4
452.615	25376.89
452.821	24479.88
453.027	24135.82
453.233	25839.73
453.44	24496.27
453.646	24682.63
453.852	25108.61
454.058	25555.07
454.264	24365.2
454.47	25184.38
454.676	24524.94
454.882	25239.68
455.088	23160.99
455.294	23449.75
455.5	23806.1
455.705	24144.02
455.911	23185.57
456.117	22632.61
456.323	22354.09
456.529	21317.82
456.735	22137.01
456.941	21459.13
457.147	21665.97
457.352	20621.51
457.558	20175.05
457.764	20261.07
457.97	20332.75
458.176	19792.08
458.381	19937.49
458.587	18725.09
458.793	18788.58
458.999	17563.89
459.204	18852.06
459.41	18432.23
459.616	17271.03
459.821	17340.66
460.027	17062.14
460.233	16898.3
460.438	16406.79
460.644	16298.25
460.85	15298.84
461.055	15120.67
461.261	15327.51
461.466	14272.81
461.672	13656.37
461.878	14563.62
462.083	13658.42
462.289	13574.45
462.494	13379.89
462.7	12759.36
462.905	12562.75
463.111	12972.35
463.316	13080.89
463.522	12751.17
463.727	12917.05
463.932	12775.74
464.138	12527.94
464.343	12579.14
464.549	12396.87
464.754	12585.28
464.959	12396.87
465.165	12579.14
465.37	12024.14
465.575	11524.43
465.781	12208.45
465.986	12214.6
466.191	11596.11
466.397	11567.44
466.602	10920.28
466.807	11491.66
467.012	11549.01
467.218	11385.17
467.423	11172.18
467.628	11389.27
467.833	11788.62
468.038	11166.04
468.244	10996.06
468.449	11559.25
468.654	10854.75
468.859	11026.78
469.064	10864.99
469.269	10715.48
469.474	10754.4
469.679	10803.55
469.885	10652
470.09	10828.12
470.295	10502.5
470.5	10305.89
470.705	10598.75
470.91	10142.05
471.115	9871.72
471.32	10226.02
471.525	10209.64
471.73	10010.98
471.935	9754.99
472.139	9392.5
472.344	9742.7
472.549	9509.23
472.754	9408.88
472.959	9247.09
473.164	8911.22
473.369	9050.49
473.574	9304.43
473.778	9140.6
473.983	9357.68
474.188	9093.49
474.393	8819.07
474.598	8700.28
474.802	8528.25
475.007	8638.84
475.212	8589.69
475.417	8231.3
475.621	8225.15
475.826	8421.76
476.031	7985.54
476.235	7940.49
476.44	8055.17
476.645	7891.34
476.849	8003.97
477.054	7756.17
477.259	7774.6
477.463	7655.82
477.668	7367.06
477.872	7651.72
478.077	7354.77
478.282	7143.83
478.486	7248.27
478.691	7172.5
478.895	7154.07
479.1	7059.86
479.304	6982.04
479.509	6803.86
479.713	6977.94
479.918	6990.23
480.122	6887.83
480.326	6726.04
480.531	6773.14
480.735	6689.18
480.94	6723.99
481.144	6822.3
481.348	6607.26
481.553	6594.97
481.757	6424.99
481.961	6637.98
482.166	6689.18
482.37	6797.72
482.574	6519.2
482.778	6685.08
482.983	6760.86
483.187	6646.17
483.391	6535.58
483.595	6572.44
483.8	6521.24
484.004	6605.21
484.208	6705.56
484.412	6572.44
484.616	6783.38
484.821	6666.65
485.025	6656.41
485.229	6740.38
485.433	6699.42
485.637	6521.24
485.841	6857.11
486.045	6773.14
486.249	6670.75
486.453	6576.54
486.657	6695.32
486.861	6832.54
487.065	6486.43
487.269	6570.4
487.473	6650.27
487.677	6687.13
487.881	6662.55
488.085	6672.79
488.289	6689.18
488.493	6594.97
488.697	6861.21
488.901	6789.53
489.105	6926.74
489.309	6857.11
489.512	6891.93
489.716	6889.88
489.92	6908.31
490.124	6805.91
490.328	7008.66
490.531	6689.18
490.735	6930.84
490.939	7213.46
491.143	7029.14
491.346	7176.59
491.55	7240.08
491.754	7156.11
491.958	7332.24
492.161	7354.77
492.365	7235.99
492.569	7295.38
492.772	7350.67
492.976	7334.29
493.18	7481.74
493.383	7557.52
493.587	7483.79
493.79	7659.92
493.994	7498.13
494.197	7778.7
494.401	7686.54
494.605	7831.94
494.808	7924.1
495.012	8053.13
495.215	8049.03
495.419	8210.82
495.622	8204.67
495.825	8294.79
496.029	8063.36
496.232	8485.25
496.436	8538.49
496.639	8522.11
496.843	8632.7
497.046	8825.21
497.249	8796.54
497.453	8782.2
497.656	9202.04
497.859	9232.76
498.063	9148.79
498.266	9453.94
498.469	9441.65
498.673	9445.74
498.876	9675.12
499.079	9802.09
499.282	9845.1
499.485	9990.5
499.689	10156.39
499.892	10314.08
500.095	10529.12
500.298	10621.28
500.501	10436.96
500.705	10799.45
500.908	10887.51
501.111	11106.65
501.314	11323.73
501.517	11456.85
501.72	11610.45
501.923	11704.65
502.126	11729.23
502.329	11966.79
502.532	12048.71
502.735	12243.27
502.938	12245.32
503.141	12304.71
503.344	12587.33
503.547	12849.47
503.75	12802.36
503.953	13197.62
504.156	13271.35
504.359	13697.33
504.562	13809.97
504.765	14147.88
504.968	13789.49
505.17	14235.94
505.373	14151.98
505.576	14524.71
505.779	14987.55
505.982	14747.93
506.185	15257.88
506.387	15339.8
506.59	15440.15
506.793	15497.49
506.996	15839.5
507.198	16261.38
507.401	16320.77
507.604	16427.27
507.807	16781.57
508.009	16859.39
508.212	16937.21
508.415	17103.1
508.617	17567.99
508.82	17887.47
509.022	17602.8
509.225	18280.68
509.428	18116.84
509.63	18458.85
509.833	18444.52
510.035	18946.27
510.238	18882.78
510.44	19103.96
510.643	19482.84
510.845	19661.01
511.048	19732.69
511.25	20365.51
511.453	20205.77
511.655	21135.55
511.858	20494.54
512.06	20965.57
512.262	21334.2
512.465	21024.96
512.667	21721.27
512.87	21700.79
513.072	21944.5
513.274	22427.82
513.477	22597.8
513.679	22919.33
513.881	23126.18
514.084	23459.99
514.286	23437.47
514.488	23914.64
514.69	24164.5
514.893	24406.16
515.095	24963.2
515.297	24926.34
515.499	24692.87
515.701	25129.09
515.904	25606.27
516.106	25698.42
516.308	25708.66
516.51	26429.55
516.712	26337.39
516.914	26488.94
517.116	27369.57
517.318	27142.24
517.52	27381.85
517.722	27662.43
517.925	27893.85
518.127	27992.15
518.329	28516.43
518.531	28160.08
518.733	29048.9
518.935	29044.8
519.136	29184.07
519.338	29452.35
519.54	29642.81
519.742	30259.25
519.944	29993.01
520.146	30459.95
520.348	31023.14
520.55	31186.98
520.752	30894.12
520.954	31658.01
521.155	31363.11
521.357	32153.62
521.559	31832.09
521.761	32786.44
521.963	32747.53
522.164	32864.27
522.366	33234.95
522.568	33232.9
522.77	33597.44
522.971	34103.29
523.173	33966.07
523.375	34066.42
523.576	34441.2
523.778	34717.68
523.98	34791.41
524.181	35248.1
524.383	35014.63
524.584	35401.7
524.786	35403.75
524.988	35723.23
525.189	35764.19
525.391	35948.51
525.592	36220.89
525.794	36229.08
525.995	36968.4
526.197	36397.01
526.398	36599.76
526.6	36786.13
526.801	37386.18
527.003	37701.57
527.204	37380.04
527.406	37869.5
527.607	37822.4
527.808	38229.94
528.01	37289.93
528.211	38100.92
528.412	38629.3
528.614	38377.4
528.815	38385.59
529.016	38666.16
529.218	38930.35
529.419	38725.55
529.62	39002.03
529.822	38981.55
530.023	39026.6
530.224	39268.26
530.425	39077.8
530.626	38950.83
530.828	39206.83
531.029	39618.47
531.23	39657.38
531.431	39532.45
531.632	39520.16
531.833	40009.63
532.035	40038.3
532.236	39905.18
532.437	39901.09
532.638	40005.53
532.839	40294.3
533.04	40077.21
533.241	39882.66
533.442	40734.61
533.643	40468.37
533.844	39858.08
534.045	40818.58
534.246	40003.49
534.447	40495
534.648	40929.17
534.849	40966.03
535.05	40413.08
535.251	40515.48
535.451	40251.29
535.652	40812.43
535.853	40664.98
536.054	40693.65
536.255	41127.82
536.456	40482.71
536.657	41518.98
536.857	40923.02
537.058	40898.45
537.259	41228.17
537.46	41086.86
537.66	40970.13
537.861	40894.35
538.062	40527.77
538.263	41181.07
538.463	41004.94
538.664	40638.36
538.865	40953.74
539.065	41412.49
539.266	40867.73
539.466	41721.73
539.667	40820.63
539.868	41578.37
540.068	41619.33
540.269	41533.32
540.469	41412.49
540.67	41316.23
540.87	41580.42
541.071	41469.83
541.271	41189.26
541.472	41707.4
541.672	41428.87
541.873	41006.99
542.073	40824.72
542.274	41922.43
542.474	41797.51
542.675	41101.2
542.875	41752.45
543.075	41349
543.276	41064.33
543.476	41686.92
543.676	41494.41
543.877	42194.81
544.077	41357.19
544.277	41312.14
544.478	41310.09
544.678	41574.28
544.878	41561.99
545.078	41592.71
545.279	40996.75
545.479	41445.26
545.679	41510.79
545.879	41641.86
546.079	41772.93
546.28	41533.32
546.48	41506.69
546.68	41770.88
546.88	41842.56
547.08	41539.46
547.28	41461.64
547.48	41258.89
547.68	41574.28
547.88	41510.79
548.081	42018.69
548.281	41975.68
548.481	41680.77
548.681	41838.47
548.881	41985.92
549.081	41686.92
549.28	41318.28
549.48	41455.5
549.68	41813.89
549.88	42368.89
550.08	41693.06
550.28	41895.81
550.48	41138.06
550.68	42160
550.88	41848.71
551.08	41338.76
551.279	41451.4
551.479	41727.88
551.679	41912.19
551.879	41211.79
552.079	41777.03
552.278	41717.64
552.478	41332.62
552.678	41197.45
552.878	41887.62
553.077	41406.34
553.277	41058.19
553.477	42041.21
553.676	41492.36
553.876	41652.1
554.076	41521.03
554.275	41316.23
554.475	40863.63
554.674	41424.78
554.874	41684.87
555.074	41295.75
555.273	41512.84
555.473	41533.32
555.672	41209.74
555.872	41412.49
556.071	41473.93
556.271	41193.36
556.47	41117.58
556.67	41050
556.869	41224.07
557.068	41545.61
557.268	41269.13
557.467	41164.68
557.667	41156.49
557.866	41197.45
558.065	41252.75
558.265	40959.89
558.464	40900.5
558.663	41533.32
558.863	40900.5
559.062	41482.12
559.261	40865.68
559.461	41011.09
559.66	40474.52
559.859	40970.13
560.058	40740.75
560.258	41158.54
560.457	40683.41
560.656	41295.75
560.855	40638.36
561.054	40857.49
561.253	40343.45
561.453	40544.15
561.652	40968.08
561.851	41076.62
562.05	40755.09
562.249	40419.22
562.448	40859.54
562.647	40638.36
562.846	40277.91
563.045	40679.32
563.244	40605.59
563.443	40783.76
563.642	40269.72
563.841	40576.92
564.04	40152.99
564.239	40480.66
564.438	39919.52
564.637	40382.36
564.836	40282.01
565.035	40163.23
565.234	40470.42
565.432	40583.06
565.631	40105.88
565.83	40247.19
566.029	40152.99
566.228	40089.5
566.427	40075.16
566.625	39937.95
566.824	39806.88
567.023	40585.11
567.222	39294.89
567.42	40714.13
567.619	39960.48
567.818	39829.41
568.016	39950.24
568.215	40320.92
568.414	39757.73
568.612	39999.39
568.811	39700.39
569.01	39804.83
569.208	39268.26
569.407	39714.72
569.605	39362.47
569.804	39892.9
570.002	39389.09
570.201	39374.76
570.4	39360.42
570.598	39301.03
570.797	38887.34
570.995	39452.58
571.193	38498.23
571.392	39753.63
571.59	38725.55
571.789	38825.9
571.987	38789.04
572.186	38873.01
572.384	38580.15
572.582	38883.25
572.781	39196.59
572.979	38516.66
573.177	38447.03
573.376	38676.4
573.574	38420.41
573.772	38643.63
573.971	38289.34
574.169	38041.53
574.367	38301.62
574.565	38467.51
574.763	38045.63
574.962	37881.79
575.16	37636.03
575.358	37572.55
575.556	37777.34
575.754	38401.97
575.952	37851.07
576.151	38367.16
576.349	37513.16
576.547	37494.72
576.745	37187.53
576.943	37603.27
577.141	37427.14
577.339	37257.16
577.537	37070.79
577.735	37160.9
577.933	36876.24
578.131	37158.86
578.329	37021.64
578.527	36833.23
578.725	36792.27
578.923	37189.58
579.121	36796.37
579.319	36632.53
579.516	36716.5
579.714	36630.48
579.912	36243.41
580.11	36427.73
580.308	36394.96
580.506	36554.71
580.704	35692.51
580.901	36036.57
581.099	36333.53
581.297	35583.97
581.495	35688.42
581.692	35962.84
581.89	35577.83
582.088	35813.34
582.285	35143.66
582.483	35743.71
582.681	35237.86
582.878	35225.57
583.076	35123.18
583.274	35790.81
583.471	34869.23
583.669	34957.29
583.866	34623.47
584.064	34988.01
584.262	34631.66
584.459	34863.08
584.657	34430.96
584.854	35127.27
585.052	34246.65
585.249	34297.84
585.447	34199.54
585.644	34387.96
585.841	33890.3
586.039	34658.29
586.236	33990.65
586.434	34236.41
586.631	33400.83
586.828	33968.12
587.026	33757.18
587.223	33730.56
587.42	33376.26
587.618	33564.67
587.815	32995.34
588.012	33200.13
588.21	33253.38
588.407	33290.24
588.604	32753.68
588.801	32446.48
588.999	33101.83
589.196	33046.54
589.393	32755.72
589.59	32647.18
589.787	32614.41
589.984	32469.01
590.182	32215.06
590.379	32385.04
590.576	32143.38
590.773	31901.72
590.97	31698.97
591.167	32120.85
591.364	31694.88
591.561	31911.96
591.758	31440.93
591.955	31686.68
592.152	31887.39
592.349	31397.92
592.546	31256.61
592.743	31336.48
592.94	30826.54
593.137	31074.34
593.334	31254.56
593.531	30965.8
593.727	30916.65
593.924	30902.31
594.121	30476.33
594.318	31064.1
594.515	30652.46
594.712	30609.45
594.908	30222.39
595.105	30273.59
595.302	30093.36
595.499	30263.35
595.696	30271.54
595.892	29868.09
596.089	29913.14
596.286	29890.62
596.482	29780.03
596.679	29784.12
596.876	29771.83
597.072	29296.7
597.269	29933.62
597.466	29012.04
597.662	29063.24
597.859	29018.18
598.055	29157.44
598.252	28706.89
598.448	29403.2
598.645	28604.49
598.841	28797
599.038	28708.94
599.234	28719.18
599.431	28897.35
599.627	28424.27
599.824	28469.33
600.02	28166.23
600.217	28198.99
600.413	28377.17
600.609	27869.27
600.806	27871.32
601.002	28166.23
601.198	27682.91
601.395	27676.76
601.591	27631.71
601.787	27625.56
601.984	27373.66
602.18	27594.84
602.376	27641.95
602.572	27050.08
602.769	27146.34
602.965	26898.53
603.161	27082.85
603.357	26869.86
603.553	27015.27
603.75	26849.38
603.946	26869.86
604.142	26730.6
604.338	26302.57
604.534	26650.73
604.73	26335.34
604.926	26296.43
605.122	26101.87
605.318	26284.14
605.514	26445.93
605.71	26038.39
605.906	25720.95
606.102	25833.59
606.298	25938.04
606.494	25809.01
606.69	25817.21
606.886	25823.35
607.082	25182.34
607.278	25675.9
607.474	25315.45
607.67	25380.99
607.866	24830.09
608.062	25430.14
608.257	25211.01
608.453	25071.75
608.649	25280.64
608.845	24948.87
609.041	24944.77
609.236	24791.17
609.432	24746.12
609.628	24795.27
609.824	24760.45
610.019	24643.72
610.215	24725.64
610.411	24676.49
610.606	24318.09
610.802	24660.1
610.998	24180.88
611.193	24594.57
611.389	24307.85
611.584	24035.47
611.78	24205.45
611.976	24357
612.171	24201.36
612.367	23996.56
612.562	23969.94
612.758	23759
612.953	23754.9
613.149	24008.85
613.344	23638.17
613.539	24217.74
613.735	24107.15
613.93	23644.31
614.126	23576.73
614.321	23679.13
614.517	23412.89
614.712	23263.39
614.907	23613.59
615.103	23789.72
615.298	23204
615.493	23611.54
615.688	22763.68
615.884	23449.75
616.079	22972.58
616.274	23419.03
616.47	23050.4
616.665	22968.48
616.86	23093.41
617.055	23079.07
617.25	22792.36
617.445	23064.74
617.641	22220.97
617.836	22755.49
618.031	22354.09
618.226	22483.11
618.421	22603.94
618.616	22554.79
618.811	21899.44
619.006	22311.08
619.201	21878.96
619.396	21995.7
619.591	21569.72
619.786	21979.31
619.981	21631.16
620.176	21895.35
620.371	21659.83
620.566	21344.44
620.761	21344.44
620.956	21493.94
621.151	21264.57
621.346	21201.08
621.541	20928.7
621.735	21246.14
621.93	20811.97
622.125	20873.41
622.32	20482.25
622.515	20711.62
622.709	20355.27
622.904	20404.42
623.099	20170.96
623.294	20236.49
623.488	20064.46
623.683	19808.47
623.878	19808.47
624.072	19470.55
624.267	19675.35
624.462	19394.78
624.656	19216.6
624.851	19118.3
625.046	19075.29
625.24	19423.45
625.435	19003.61
625.629	19136.73
625.824	18659.56
626.018	18684.13
626.213	18526.44
626.407	18540.77
626.602	18362.6
626.796	18247.91
626.991	18387.18
627.185	18170.09
627.38	17985.77
627.574	17996.01
627.768	17983.73
627.963	17858.8
628.157	17631.47
628.352	17809.65
628.546	17389.81
628.74	17400.05
628.935	16974.08
629.129	17293.56
629.323	16851.2
629.517	17010.94
629.712	16847.1
629.906	16976.12
630.1	16605.44
630.294	16699.65
630.489	16474.37
630.683	16453.89
630.877	16414.98
631.071	16242.95
631.265	16359.69
631.459	16193.8
631.653	15841.55
631.848	16132.36
632.042	15962.38
632.236	15964.43
632.43	15624.47
632.624	16052.49
632.818	15479.06
633.012	15522.07
633.206	15343.89
633.4	15472.92
633.594	14993.69
633.788	15190.3
633.982	15137.05
634.176	14930.2
634.369	14987.55
634.563	14962.97
634.757	14801.18
634.951	14866.72
635.145	14561.57
635.339	14596.39
635.533	14477.6
635.726	14405.92
635.92	14205.22
636.114	14276.9
636.308	14078.25
636.501	14324.01
636.695	14285.09
636.889	13908.27
637.083	13895.98
637.276	13926.7
637.47	13893.93
637.664	13637.94
637.857	13642.03
638.051	13689.14
638.244	13394.23
638.438	13459.76
638.632	13386.04
638.825	13394.23
639.019	13324.6
639.212	13203.77
639.406	13107.51
639.599	12953.91
639.793	13068.6
639.986	12566.85
640.18	12927.29
640.373	12921.15
640.567	12380.48
640.76	12716.35
640.954	12566.85
641.147	12462.4
641.34	12312.9
641.534	12200.26
641.727	12181.83
641.92	12341.57
642.114	11936.07
642.307	12259.65
642.5	12073.29
642.694	11903.31
642.887	11643.21
643.08	11815.24
643.273	11442.51
643.467	11796.81
643.66	11723.09
643.853	11329.88
644.046	11366.74
644.239	11305.3
644.432	11430.23
644.626	11290.96
644.819	11454.8
645.012	11065.69
645.205	11061.59
645.398	11106.65
645.591	10869.08
645.784	10975.58
645.977	10623.33
646.17	10824.03
646.363	10537.31
646.556	10303.84
646.749	10703.2
646.942	10703.2
647.135	10324.32
647.328	10422.62
647.521	10201.44
647.714	10266.98
647.907	10281.32
648.099	10082.66
648.292	10021.22
648.485	9988.46
648.678	9886.06
648.871	9826.67
649.064	9757.04
649.256	9902.44
649.449	9814.38
649.642	9580.91
649.835	9466.22
650.027	9675.12
650.22	9353.59
650.413	9212.28
650.605	9286
650.798	9337.2
650.991	9204.08
651.183	9261.43
651.376	8958.33
651.568	9161.08
651.761	9118.07
651.954	9040.25
652.146	8989.05
652.339	8876.41
652.531	8915.32
652.724	8696.19
652.916	8636.8
653.109	8567.17
653.301	8632.7
653.494	8622.46
653.686	8358.27
653.879	8624.51
654.071	8432
654.263	8343.94
654.456	8315.27
654.648	8382.85
654.84	8063.36
655.033	8100.23
655.225	8065.41
655.417	7997.83
655.61	8171.91
655.802	7987.59
655.994	7981.45
656.186	7842.18
656.379	7879.05
656.571	7850.38
656.763	7702.92
656.955	7590.28
657.148	7786.89
657.34	7684.49
657.532	7532.94
657.724	7414.16
657.916	7629.2
658.108	7467.41
658.3	7358.86
658.492	7430.54
658.684	7031.19
658.876	7203.22
659.068	7051.67
659.26	7192.98
659.452	7090.58
659.644	7111.06
659.836	6893.97
660.028	6986.13
660.22	6734.23
660.412	6715.8
660.604	6689.18
660.796	6672.79
660.988	6547.87
661.18	6623.64
661.372	6539.68
661.563	6592.92
661.755	6310.3
661.947	6384.03
662.139	6506.91
662.331	6142.37
662.522	6267.3
662.714	6295.97
662.906	6187.43
663.097	6173.09
663.289	6054.31
663.481	6054.31
663.673	6060.45
663.864	5990.82
664.056	5843.37
664.247	5876.13
664.439	5736.87
664.631	6007.2
664.822	5616.04
665.014	5730.73
665.205	5861.8
665.397	5767.59
665.588	5593.51
665.78	5493.16
665.971	5540.27
666.163	5466.54
666.354	5468.59
666.546	5304.75
666.737	5183.92
666.929	5335.47
667.12	5360.05
667.311	5333.42
667.503	5167.54
667.694	5216.69
667.885	4997.56
668.077	5257.65
668.268	5294.51
668.459	5089.71
668.651	4956.6
668.842	5042.61
669.033	4983.22
669.224	4835.77
669.416	4966.84
669.607	4882.87
669.798	4751.8
669.989	4745.66
670.18	4676.02
670.371	4559.29
670.563	4661.69
670.754	4798.9
670.945	4567.48
671.136	4528.57
671.327	4581.82
671.518	4514.24
671.709	4460.99
671.9	4532.67
672.091	4557.24
672.282	4504
672.473	4344.25
672.664	4471.23
672.855	4452.8
673.046	4307.39
673.237	4368.83
673.428	4241.86
673.619	4256.19
673.809	4307.39
674	4188.61
674.191	4090.31
674.382	4129.22
674.573	4225.47
674.764	4082.11
674.954	4102.59
675.145	3942.85
675.336	4114.88
675.527	4112.83
675.717	4041.15
675.908	4008.39
676.099	3920.32
676.289	4112.83
676.48	3828.17
676.671	4055.49
676.861	3848.65
677.052	3975.62
677.243	4010.43
677.433	3760.58
677.624	3860.93
677.814	3785.16
678.005	3840.45
678.195	3729.86
678.386	3668.42
678.576	3666.38
678.767	3713.48
678.957	3584.46
679.148	3664.33
679.338	3682.76
679.529	3600.84
679.719	3672.52
679.909	3520.97
680.1	3668.42
680.29	3707.34
680.481	3715.53
680.671	3695.05
680.861	3500.49
681.052	3520.97
681.242	3512.78
681.432	3570.12
681.622	3469.77
681.813	3453.39
682.003	3471.82
682.193	3475.91
682.383	3467.72
682.573	3437
682.764	3502.54
682.954	3482.06
683.144	3471.82
683.334	3422.67
683.524	3379.66
683.714	3480.01
683.904	3561.93
684.094	3287.5
684.284	3428.81
684.474	3459.53
684.664	3330.51
684.854	3484.11
685.044	3328.46
685.234	3291.6
685.424	3459.53
685.614	3334.61
685.804	3258.83
685.994	3254.73
686.184	3365.32
686.374	3199.44
686.564	3291.6
686.753	3301.84
686.943	3248.59
687.133	3318.22
687.323	3281.36
687.513	3199.44
687.702	3381.71
687.892	3228.11
688.082	3174.86
688.272	3279.31
688.461	3258.83
688.651	3224.01
688.841	3221.97
689.03	3375.56
689.22	3293.65
689.41	3258.83
689.599	3256.78
689.789	3224.01
689.979	3142.1
690.168	3232.21
690.358	3250.64
690.547	3140.05
690.737	3310.03
690.926	3195.34
691.116	3238.35
691.305	3322.32
691.495	3246.54
691.684	3185.1
691.874	3183.06
692.063	3129.81
692.252	3189.2
692.442	3215.82
692.631	3154.38
692.82	3074.51
693.01	3148.24
693.199	3082.7
693.388	3074.51
693.578	3064.27
693.767	3199.44
693.956	2965.97
694.146	3076.56
694.335	2945.49
694.524	2908.63
694.713	3088.85
694.902	2920.92
695.092	2922.96
695.281	2996.69
695.47	2937.3
695.659	3109.33
695.848	2943.44
696.037	2994.64
696.226	2931.16
696.415	2943.44
696.604	2918.87
696.793	3084.75
696.982	3119.57
697.171	2953.68
697.36	3019.22
697.549	2951.63
697.738	2984.4
697.927	2916.82
698.116	2890.2
698.305	2861.52
698.494	2789.85
698.683	2873.81
698.872	2761.17
699.061	2865.62
699.25	2734.55
699.438	2750.93
699.627	2691.54
699.816	2740.69
700.005	2718.17
700.193	2812.37
700.382	2781.65
700.571	2720.21
700.76	2783.7
700.948	2673.11
701.137	2613.72
701.326	2748.89
701.514	2630.1
701.703	2671.06
701.892	2648.54
702.08	2718.17
702.269	2613.72
702.457	2589.14
702.646	2515.42
702.834	2509.27
703.023	2535.9
703.212	2544.09
703.4	2644.44
703.589	2531.8
703.777	2527.71
703.965	2566.62
704.154	2560.47
704.342	2562.52
704.531	2310.62
704.719	2593.24
704.907	2519.51
705.096	2435.55
705.284	2392.54
705.472	2546.14
705.661	2355.68
705.849	2433.5
706.037	2339.29
706.226	2357.72
706.414	2392.54
706.602	2322.91
706.79	2288.09
706.979	2337.24
707.167	2271.71
707.355	2384.35
707.543	2202.08
707.731	2378.2
707.919	2349.53
708.107	2122.21
708.296	2189.79
708.484	2224.61
708.672	2105.82
708.86	2159.07
709.048	2228.7
709.236	2173.41
709.424	2114.02
709.612	2138.59
709.8	2161.12
709.988	2122.21
710.176	2138.59
710.364	2152.93
710.551	2189.79
710.739	2044.38
710.927	2062.82
711.115	2079.2
711.303	2075.1
711.491	2030.05
711.679	2140.64
711.866	2013.67
712.054	1989.09
712.242	2032.1
712.43	1964.51
712.617	2066.91
712.805	2023.91
712.993	1919.46
713.181	1966.56
713.368	1888.74
713.556	1870.31
713.744	1825.25
713.931	1915.36
714.119	1911.27
714.306	1862.12
714.494	1845.73
714.682	1841.64
714.869	1903.07
715.057	1774.05
715.244	1890.79
715.432	1800.68
715.619	1792.48
715.807	1714.66
715.994	1831.4
716.182	1784.29
716.369	1741.29
716.556	1769.96
716.744	1747.43
716.931	1759.72
717.119	1735.14
717.306	1778.15
717.493	1741.29
717.681	1640.93
717.868	1712.61
718.055	1714.66
718.242	1679.85
718.43	1671.65
718.617	1608.17
718.804	1651.17
718.991	1583.59
719.179	1665.51
719.366	1610.22
719.553	1577.45
719.74	1618.41
719.927	1520.1
720.114	1442.28
720.301	1542.63
720.488	1438.19
720.676	1507.82
720.863	1589.74
721.05	1475.05
721.237	1446.38
721.424	1554.92
721.611	1511.91
721.798	1528.3
721.985	1505.77
722.172	1556.97
722.358	1569.26
722.545	1493.48
722.732	1352.17
722.919	1462.76
723.106	1386.99
723.293	1477.1
723.48	1356.27
723.667	1395.18
723.853	1442.28
724.04	1440.23
724.227	1481.19
724.414	1343.98
724.6	1307.12
724.787	1337.84
724.974	1364.46
725.161	1296.88
725.347	1268.2
725.534	1305.07
725.72	1284.59
725.907	1321.45
726.094	1266.16
726.28	1278.44
726.467	1323.5
726.653	1270.25
726.84	1294.83
727.027	1284.59
727.213	1303.02
727.4	1253.87
727.586	1184.24
727.773	1196.53
727.959	1202.67
728.145	1305.07
728.332	1214.96
728.518	1182.19
728.705	1176.05
728.891	1190.38
729.077	1182.19
729.264	1184.24
729.45	1147.37
729.636	1227.25
729.823	1176.05
730.009	1194.48
730.195	1161.71
730.382	1165.81
730.568	1176.05
730.754	1112.56
730.94	1188.33
731.126	1139.18
731.313	1104.37
731.499	1149.42
731.685	1159.66
731.871	1114.61
732.057	1133.04
732.243	1059.31
732.429	1133.04
732.615	1051.12
732.801	1038.83
732.987	1014.26
733.173	1051.12
733.359	1067.5
733.545	1065.46
733.731	1040.88
733.917	1071.6
734.103	1128.94
734.289	1120.75
734.475	926.19
734.661	1067.5
734.847	956.91
735.033	1053.17
735.219	930.29
735.404	1008.11
735.59	987.63
735.776	1044.98
735.962	991.73
736.148	907.76
736.333	952.82
736.519	936.43
736.705	1059.31
736.89	903.67
737.076	956.91
737.262	999.92
737.447	870.9
737.633	893.43
737.819	1022.45
738.004	862.71
738.19	944.63
738.375	879.09
738.561	909.81
738.747	893.43
738.932	932.34
739.118	969.2
739.303	858.61
739.489	815.6
739.674	799.22
739.859	827.89
740.045	864.75
740.23	907.76
740.416	870.9
740.601	811.51
740.786	838.13
740.972	842.23
741.157	831.99
741.342	842.23
741.528	813.56
741.713	805.36
741.898	801.27
742.084	702.97
742.269	809.46
742.454	768.5
742.639	831.99
742.824	823.8
743.01	780.79
743.195	862.71
743.38	784.88
743.565	664.05
743.75	815.6
743.935	750.07
744.12	725.49
744.305	784.88
744.49	731.64
744.675	731.64
744.86	676.34
745.045	750.07
745.23	821.75
745.415	838.13
745.6	662.01
745.785	709.11
745.97	633.33
746.155	752.12
746.34	784.88
746.525	768.5
746.71	678.39
746.895	664.05
747.079	766.45
747.264	743.92
747.449	680.44
747.634	702.97
747.819	659.96
748.003	686.58
748.188	674.29
748.373	664.05
748.557	565.75
748.742	635.38
748.927	715.25
749.111	770.55
749.296	639.48
749.481	561.66
749.665	619
749.85	575.99
750.034	586.23
750.219	623.09
750.404	516.6
750.588	649.72
750.773	647.67
750.957	604.66
751.141	649.72
751.326	580.09
751.51	608.76
751.695	608.76
751.879	692.73
752.064	596.47
752.248	569.85
752.432	575.99
752.617	596.47
752.801	588.28
752.985	592.37
753.17	567.8
753.354	565.75
753.538	559.61
753.722	526.84
753.907	512.5
754.091	522.74
754.275	459.26
754.459	532.98
754.643	555.51
754.828	471.54
755.012	500.22
755.196	457.21
755.38	539.13
755.564	416.25
755.748	541.18
755.932	496.12
756.116	481.78
756.3	438.78
756.484	586.23
756.668	559.61
756.852	469.5
757.036	410.11
757.22	516.6
757.404	541.18
757.588	494.07
757.772	485.88
757.956	416.25
758.14	434.68
758.323	504.31
758.507	494.07
758.691	463.35
758.875	463.35
759.059	446.97
759.242	471.54
759.426	440.83
759.61	434.68
759.794	461.3
759.977	387.58
760.161	420.35
760.345	369.15
760.528	504.31
760.712	365.05
760.895	498.17
761.079	455.16
761.263	391.67
761.446	393.72
761.63	477.69
761.813	459.26
761.997	477.69
762.18	395.77
762.364	428.54
762.547	451.07
762.731	383.48
762.914	440.83
763.098	489.98
763.281	369.15
763.464	446.97
763.648	418.3
763.831	395.77
764.015	317.95
764.198	379.39
764.381	397.82
764.564	403.96
764.748	406.01
764.931	422.39
765.114	311.8
765.297	403.96
765.481	363
765.664	352.76
765.847	391.67
766.03	428.54
766.213	375.29
766.397	440.83
766.58	387.58
766.763	363
766.946	416.25
767.129	354.81
767.312	403.96
767.495	330.23
767.678	324.09
767.861	377.34
768.044	399.87
768.227	309.76
768.41	305.66
768.593	365.05
768.776	330.23
768.959	365.05
769.142	401.91
769.324	373.24
769.507	371.19
769.69	342.52
769.873	283.13
770.056	389.63
770.239	348.67
770.421	432.63
770.604	393.72
770.787	299.52
770.97	352.76
771.152	391.67
771.335	369.15
771.518	356.86
771.7	276.99
771.883	334.33
772.066	369.15
772.248	330.23
772.431	360.95
772.613	344.57
772.796	240.12
772.978	412.15
773.161	387.58
773.343	305.66
773.526	324.09
773.708	311.8
773.891	291.32
774.073	356.86
774.256	360.95
774.438	324.09
774.621	260.6
774.803	358.91
774.985	344.57
775.168	383.48
775.35	305.66
775.532	348.67
775.715	348.67
775.897	346.62
776.079	344.57
776.261	307.71
776.444	295.42
776.626	303.61
776.808	309.76
776.99	260.6
777.173	307.71
777.355	301.56
777.537	350.71
777.719	311.8
777.901	285.18
778.083	276.99
778.265	231.93
778.447	285.18
778.629	209.4
778.811	227.84
778.993	260.6
779.175	242.17
779.357	252.41
779.539	227.84
779.721	340.47
779.903	236.03
780.085	211.45
780.267	229.88
780.449	272.89
780.631	317.95
780.812	254.46
780.994	236.03
781.176	197.12
781.358	266.75
781.54	256.51
781.721	227.84
781.903	225.79
782.085	244.22
782.267	236.03
782.448	211.45
782.63	252.41
782.812	221.69
782.993	182.78
783.175	186.88
783.357	291.32
783.538	180.73
783.72	174.59
783.901	219.64
784.083	229.88
784.264	221.69
784.446	254.46
784.627	209.4
784.809	262.65
784.99	188.93
785.172	201.21
785.353	184.83
785.535	254.46
785.716	193.02
785.897	240.12
786.079	205.31
786.26	240.12
786.441	72.19
786.623	121.34
786.804	176.64
786.985	227.84
787.167	184.83
787.348	199.16
787.529	125.44
787.71	248.32
787.891	176.64
788.073	199.16
788.254	166.4
788.435	211.45
788.616	178.69
788.797	205.31
788.978	143.87
789.159	137.73
789.34	170.49
789.522	193.02
789.703	168.45
789.884	84.48
790.065	240.12
790.246	160.25
790.427	256.51
790.607	174.59
790.788	219.64
790.969	143.87
791.15	182.78
791.331	96.77
791.512	193.02
791.693	119.29
791.874	70.14
792.054	217.6
792.235	166.4
792.416	164.35
792.597	160.25
792.778	129.53
792.958	190.97
793.139	203.26
793.32	211.45
793.5	117.25
793.681	195.07
793.862	76.29
794.042	188.93
794.223	84.48
794.404	125.44
794.584	125.44
794.765	211.45
794.945	113.15
795.126	117.25
795.306	104.96
795.487	158.21
795.667	174.59
795.848	135.68
796.028	100.86
796.209	111.1
796.389	156.16
796.57	143.87
796.75	117.25
796.93	164.35
797.111	135.68
797.291	115.2
797.471	98.81
797.652	141.82
797.832	166.4
798.012	152.06
798.192	72.19
798.373	119.29
798.553	78.33
798.733	100.86
798.913	59.9
799.093	125.44
799.274	162.3
799.454	137.73
799.634	186.88
799.814	129.53
799.994	119.29
800.174	129.53
800.354	80.38
800.534	111.1
800.714	107.01
800.894	55.81
801.074	111.1
801.254	109.05
801.434	123.39
801.614	127.49
801.794	27.14
801.974	303.61
802.154	59.9
802.334	121.34
802.514	61.95
802.693	125.44
802.873	117.25
803.053	184.83
803.233	139.77
803.413	156.16
803.592	51.71
803.772	166.4
803.952	111.1
804.131	76.29
804.311	184.83
804.491	152.06
804.67	111.1
804.85	12.8
805.03	131.58
805.209	88.57
805.389	76.29
805.568	53.76
805.748	117.25
805.928	141.82
806.107	127.49
806.287	199.16
806.466	104.96
806.646	59.9
806.825	57.86
807.004	102.91
807.184	59.9
807.363	82.43
807.543	111.1
807.722	86.53
807.901	150.01
808.081	45.57
808.26	76.29
808.439	86.53
808.619	154.11
808.798	57.86
808.977	33.28
809.156	43.52
809.336	66.05
809.515	88.57
809.694	88.57
809.873	51.71
810.052	113.15
810.231	35.33
810.411	45.57
810.59	115.2
810.769	66.05
810.948	16.9
811.127	102.91
811.306	131.58
811.485	84.48
811.664	117.25
811.843	64
812.022	92.67
812.201	51.71
812.38	55.81
812.559	70.14
812.737	78.33
812.916	88.57
813.095	43.52
813.274	43.52
813.453	51.71
813.632	53.76
813.811	51.71
813.989	6.66
814.168	51.71
814.347	23.04
814.526	84.48
814.704	131.58
814.883	100.86
815.062	20.99
815.24	92.67
815.419	66.05
815.598	20.99
815.776	-17.92
815.955	2.56
816.133	20.99
816.312	111.1
816.49	-5.63
816.669	94.72
816.847	39.42
817.026	41.47
817.204	14.85
817.383	104.96
817.561	-36.35
817.74	59.9
817.918	84.48
818.097	82.43
818.275	64
818.453	84.48
818.632	49.66
818.81	12.8
818.988	49.66
819.167	76.29
819.345	-5.63
819.523	27.14
819.701	68.09
819.879	51.71
820.058	29.18
820.236	51.71
820.414	59.9
820.592	84.48
820.77	72.19
820.948	35.33
821.127	-3.58
821.305	43.52
821.483	35.33
821.661	39.42
821.839	96.77
822.017	59.9
822.195	125.44
822.373	43.52
822.551	47.62
822.729	117.25
822.907	-5.63
823.085	109.05
823.262	82.43
823.44	61.95
823.618	74.24
823.796	76.29
823.974	18.94
824.152	66.05
824.329	-19.97
824.507	8.7
824.685	-5.63
824.863	78.33
825.04	76.29
825.218	55.81
825.396	68.09
825.574	88.57
825.751	12.8
825.929	82.43
826.107	-7.68
826.284	-19.97
826.462	35.33
826.639	0.51
826.817	51.71
826.994	29.18
827.172	16.9
827.349	55.81
827.527	37.38
827.704	35.33
827.882	35.33
828.059	-44.54
828.237	94.72
828.414	4.61
828.591	23.04
828.769	107.01
828.946	76.29
829.124	59.9
829.301	53.76
829.478	14.85
829.655	39.42
829.833	90.62
830.01	4.61
830.187	82.43
830.364	-5.63
830.542	84.48
830.719	57.86
830.896	2.56
831.073	70.14
831.25	100.86
831.427	49.66
831.604	68.09
831.782	55.81
831.959	64
832.136	-30.21
832.313	14.85
832.49	35.33
832.667	10.75
832.844	57.86
833.021	27.14
833.198	-48.64
833.374	-7.68
833.551	49.66
833.728	18.94
833.905	43.52
834.082	41.47
834.259	-1.54
834.436	23.04
834.612	68.09
834.789	55.81
834.966	-11.78
835.143	14.85
835.319	-13.82
835.496	78.33
835.673	59.9
835.85	68.09
836.026	68.09
836.203	35.33
836.38	-11.78
836.556	27.14
836.733	45.57
836.909	45.57
837.086	-1.54
837.262	29.18
837.439	49.66
837.616	64
837.792	-48.64
837.968	31.23
838.145	25.09
838.321	33.28
838.498	10.75
838.674	47.62
838.851	14.85
839.027	-13.82
839.203	53.76
839.38	37.38
839.556	-13.82
839.732	37.38
839.909	10.75
840.085	-52.74
840.261	14.85
840.437	-19.97
840.614	29.18
840.79	53.76
840.966	-34.3
841.142	88.57
841.318	35.33
841.494	156.16
841.671	2.56
841.847	18.94
842.023	0.51
842.199	-5.63
842.375	-15.87
842.551	18.94
842.727	10.75
842.903	45.57
843.079	6.66
843.255	35.33
843.431	37.38
843.607	76.29
843.783	4.61
843.959	25.09
844.134	2.56
844.31	23.04
844.486	35.33
844.662	23.04
844.838	8.7
845.013	12.8
845.189	-42.5
845.365	64
845.541	25.09
845.716	10.75
845.892	35.33
846.068	70.14
846.244	-44.54
846.419	-19.97
846.595	86.53
846.77	-42.5
846.946	-13.82
847.122	37.38
847.297	-28.16
847.473	55.81
847.648	16.9
847.824	33.28
847.999	29.18
848.175	8.7
848.35	-9.73
848.526	-5.63
848.701	-11.78
848.876	43.52
849.052	33.28
849.227	-30.21
849.403	2.56
849.578	133.63
849.753	12.8
849.929	39.42
850.104	-5.63
850.279	29.18
850.454	16.9
850.63	-5.63
850.805	4.61
850.98	37.38
851.155	4.61
851.33	29.18
851.505	16.9
851.681	98.81
851.856	-52.74
852.031	23.04
852.206	6.66
852.381	-1.54
852.556	-13.82
852.731	59.9
852.906	29.18
853.081	41.47
853.256	6.66
853.431	51.71
853.606	12.8
853.781	-11.78
853.956	-26.11
854.131	70.14
854.305	8.7
854.48	57.86
854.655	37.38
854.83	47.62
855.005	20.99
855.18	64
855.354	27.14
855.529	-9.73
855.704	12.8
855.879	-44.54
856.053	-1.54
856.228	102.91
856.403	68.09
856.577	18.94
856.752	4.61
856.926	-38.4
857.101	33.28
857.276	27.14
857.45	-5.63
857.625	16.9
857.799	-30.21
857.974	4.61
858.148	-36.35
858.323	-17.92
858.497	16.9
858.672	14.85
858.846	2.56
859.02	51.71
859.195	16.9
859.369	14.85
859.543	-3.58
859.718	8.7
859.892	4.61
860.066	39.42
860.241	-42.5
860.415	55.81
860.589	-22.02
860.763	39.42
860.938	35.33
861.112	92.67
861.286	8.7
861.46	4.61
861.634	49.66
861.808	-54.78
861.982	-22.02
862.157	12.8
862.331	25.09
862.505	6.66
862.679	27.14
862.853	-40.45
863.027	-17.92
863.201	25.09
863.375	-15.87
863.549	72.19
863.722	-36.35
863.896	-5.63
864.07	29.18
864.244	-24.06
864.418	6.66
864.592	20.99
864.766	47.62
864.939	-42.5
865.113	8.7
865.287	20.99
865.461	-1.54
865.634	18.94
865.808	47.62
865.982	47.62
866.156	-17.92
866.329	82.43
866.503	8.7
866.676	-11.78
866.85	41.47
867.024	-5.63
867.197	23.04
867.371	4.61
867.544	41.47
867.718	-32.26
867.891	18.94
868.065	-34.3
868.238	16.9
868.412	23.04
868.585	35.33
868.759	6.66
868.932	-36.35
869.105	-65.02
869.279	31.23
869.452	51.71
869.625	23.04
869.799	-13.82
869.972	-7.68
870.145	-13.82
870.319	-22.02
870.492	-11.78
870.665	37.38
870.838	8.7
871.011	-34.3
871.185	29.18
871.358	6.66
871.531	-9.73
871.704	39.42
871.877	25.09
872.05	-3.58
872.223	74.24
872.396	-15.87
872.569	-26.11
872.742	-42.5
872.915	72.19
873.088	-7.68
873.261	-30.21
873.434	8.7
873.607	14.85
873.78	-11.78
873.953	51.71
874.126	51.71
874.299	14.85
874.471	14.85
874.644	33.28
874.817	-5.63
874.99	6.66
875.163	16.9
875.335	35.33
875.508	-5.63
875.681	-1.54
875.853	-50.69
876.026	-32.26
876.199	4.61
876.371	61.95
876.544	-36.35
876.717	-48.64
876.889	8.7
877.062	45.57
877.234	-11.78
877.407	14.85
877.579	-5.63
877.752	-40.45
877.924	-5.63
878.097	-28.16
878.269	-81.41
878.442	2.56
878.614	8.7
878.786	20.99
878.959	-13.82
879.131	49.66
879.303	-97.79
879.476	55.81
879.648	39.42
879.82	-26.11
879.993	43.52
880.165	23.04
880.337	-30.21
880.509	70.14
880.681	-28.16
880.854	6.66
881.026	10.75
881.198	-36.35
881.37	43.52
881.542	47.62
881.714	-79.36
881.886	10.75
882.058	-17.92
882.23	39.42
882.402	18.94
882.574	51.71
882.746	16.9
882.918	51.71
883.09	66.05
883.262	-67.07
883.434	18.94
883.606	41.47
883.778	-22.02
883.95	57.86
884.122	74.24
884.293	6.66
884.465	-19.97
884.637	-7.68
884.809	-48.64
884.98	29.18
885.152	29.18
885.324	0.51
885.496	-44.54
885.667	-26.11
885.839	37.38
886.011	0.51
886.182	-11.78
886.354	64
886.525	20.99
886.697	27.14
886.869	-65.02
887.04	49.66
887.212	43.52
887.383	37.38
887.555	14.85
887.726	68.09
887.897	10.75
888.069	-52.74
888.24	45.57
888.412	0.51
888.583	-30.21
888.754	6.66
888.926	-36.35
889.097	-44.54
889.268	-22.02
889.44	43.52
889.611	18.94
889.782	12.8
889.953	-1.54
890.125	37.38
890.296	-67.07
890.467	49.66
890.638	4.61
890.809	-5.63
890.98	-81.41
891.151	61.95
891.323	2.56
891.494	-38.4
891.665	57.86
891.836	-56.83
892.007	-58.88
892.178	-7.68
892.349	-36.35
892.52	-13.82
892.691	-28.16
892.862	-28.16
893.032	4.61
893.203	-26.11
893.374	2.56
893.545	-7.68
893.716	-32.26
893.887	70.14
894.057	18.94
894.228	45.57
894.399	-97.79
894.57	-1.54
894.74	78.33
894.911	-46.59
895.082	-44.54
895.253	29.18
895.423	-13.82
895.594	27.14
895.764	-30.21
895.935	-30.21
896.106	20.99
896.276	27.14
896.447	12.8
896.617	47.62
896.788	0.51
896.958	6.66
897.129	8.7
897.299	64
897.47	-24.06
897.64	49.66
897.81	-15.87
897.981	27.14
898.151	-48.64
898.322	41.47
898.492	35.33
898.662	-87.55
898.832	10.75
899.003	4.61
899.173	2.56
899.343	35.33
899.513	2.56
