Data from USB4F104151__24__12-53-28-947.txt Node

Date: Fri Mar 14 12:53:28 EDT 2025
User: louis
Spectrometer: USB4F10415
Trigger mode: 4
Integration Time (sec): 1.000000E-2
Scans to average: 1
Electric dark correction enabled: true
Nonlinearity correction enabled: false
Boxcar width: 0
XAxis mode: Wavelengths
Number of Pixels in Spectrum: 3648
>>>>>Begin Spectral Data<<<<<
178.204	9.05
178.424	9.05
178.644	9.05
178.864	-1.19
179.084	-48.3
179.304	11.09
179.524	25.43
179.744	35.67
179.964	15.19
180.184	-60.59
180.404	47.96
180.624	-17.58
180.844	-19.63
181.064	-15.53
181.283	-13.48
181.503	-9.39
181.723	0.85
181.943	39.76
182.163	-19.63
182.383	15.19
182.602	15.19
182.822	-1.19
183.042	109.4
183.262	-23.72
183.482	62.29
183.701	15.19
183.921	50
184.141	-3.24
184.361	21.33
184.58	-25.77
184.8	-58.54
185.02	-50.35
185.239	-9.39
185.459	-40.11
185.679	-52.39
185.898	43.86
186.118	-15.53
186.338	4.95
186.557	37.72
186.777	-60.59
186.997	115.54
187.216	0.85
187.436	39.76
187.655	-17.58
187.875	29.52
188.095	-27.82
188.314	37.72
188.534	-72.87
188.753	50
188.973	-11.43
189.192	-48.3
189.412	-1.19
189.631	72.53
189.851	39.76
190.07	4.95
190.29	9.05
190.509	19.29
190.729	21.33
190.948	-25.77
191.168	-27.82
191.387	-13.48
191.607	-29.87
191.826	31.57
192.045	23.38
192.265	29.52
192.484	52.05
192.704	39.76
192.923	-11.43
193.142	21.33
193.362	21.33
193.581	45.91
193.8	-62.63
194.02	29.52
194.239	19.29
194.458	21.33
194.678	-9.39
194.897	0.85
195.116	35.67
195.335	29.52
195.555	-23.72
195.774	19.29
195.993	11.09
196.212	4.95
196.432	23.38
196.651	58.2
196.87	4.95
197.089	56.15
197.308	-68.78
197.528	39.76
197.747	-40.11
197.966	97.11
198.185	35.67
198.404	-76.97
198.623	-11.43
198.842	47.96
199.062	21.33
199.281	62.29
199.5	-87.21
199.719	33.62
199.938	-25.77
200.157	11.09
200.376	58.2
200.595	-1.19
200.814	62.29
201.033	-1.19
201.252	39.76
201.471	25.43
201.69	41.81
201.909	27.48
202.128	-68.78
202.347	29.52
202.566	-31.91
202.785	78.68
203.004	-54.44
203.223	41.81
203.442	-29.87
203.661	-23.72
203.879	60.24
204.098	45.91
204.317	45.91
204.536	23.38
204.755	-60.59
204.974	90.96
205.193	50
205.411	-60.59
205.63	-70.83
205.849	58.2
206.068	7
206.287	-9.39
206.505	2.9
206.724	41.81
206.943	29.52
207.162	-5.29
207.381	-7.34
207.599	-19.63
207.818	-13.48
208.037	45.91
208.255	-1.19
208.474	54.1
208.693	9.05
208.911	68.44
209.13	19.29
209.349	-27.82
209.567	144.21
209.786	-76.97
210.005	-42.15
210.223	9.05
210.442	-15.53
210.661	72.53
210.879	88.92
211.098	43.86
211.316	7
211.535	62.29
211.753	-9.39
211.972	54.1
212.191	39.76
212.409	-23.72
212.628	-7.34
212.846	62.29
213.065	52.05
213.283	19.29
213.502	64.34
213.72	41.81
213.938	9.05
214.157	39.76
214.375	-48.3
214.594	-5.29
214.812	47.96
215.031	-52.39
215.249	-5.29
215.467	-64.68
215.686	-21.67
215.904	47.96
216.122	-19.63
216.341	41.81
216.559	-13.48
216.778	-5.29
216.996	17.24
217.214	11.09
217.432	19.29
217.651	-27.82
217.869	45.91
218.087	-3.24
218.306	29.52
218.524	25.43
218.742	13.14
218.96	11.09
219.179	33.62
219.397	-9.39
219.615	7
219.833	-17.58
220.051	-29.87
220.27	62.29
220.488	4.95
220.706	-1.19
220.924	29.52
221.142	-36.01
221.36	-15.53
221.578	-27.82
221.796	21.33
222.015	103.25
222.233	-42.15
222.451	64.34
222.669	78.68
222.887	148.31
223.105	-1.19
223.323	27.48
223.541	50
223.759	54.1
223.977	74.58
224.195	25.43
224.413	9.05
224.631	52.05
224.849	47.96
225.067	4.95
225.285	19.29
225.503	-17.58
225.721	21.33
225.939	13.14
226.157	-13.48
226.375	103.25
226.592	-44.2
226.81	56.15
227.028	2.9
227.246	29.52
227.464	13.14
227.682	54.1
227.9	-15.53
228.117	-9.39
228.335	-25.77
228.553	27.48
228.771	-29.87
228.989	9.05
229.206	4.95
229.424	17.24
229.642	-13.48
229.86	4.95
230.077	15.19
230.295	0.85
230.513	4.95
230.731	7
230.948	39.76
231.166	62.29
231.384	93.01
231.601	-19.63
231.819	-1.19
232.037	41.81
232.254	-1.19
232.472	-70.83
232.689	7
232.907	0.85
233.125	-23.72
233.342	-40.11
233.56	-62.63
233.777	-13.48
233.995	-17.58
234.213	-9.39
234.43	-31.91
234.648	39.76
234.865	17.24
235.083	-15.53
235.3	-19.63
235.518	58.2
235.735	68.44
235.953	-21.67
236.17	39.76
236.388	21.33
236.605	37.72
236.822	15.19
237.04	25.43
237.257	-33.96
237.475	21.33
237.692	33.62
237.909	-9.39
238.127	62.29
238.344	50
238.562	15.19
238.779	-40.11
238.996	45.91
239.214	-3.24
239.431	29.52
239.648	-72.87
239.865	-23.72
240.083	45.91
240.3	25.43
240.517	21.33
240.735	-27.82
240.952	58.2
241.169	-15.53
241.386	2.9
241.603	15.19
241.821	-7.34
242.038	25.43
242.255	-31.91
242.472	-7.34
242.689	90.96
242.907	-25.77
243.124	-48.3
243.341	45.91
243.558	-48.3
243.775	25.43
243.992	31.57
244.209	117.59
244.426	45.91
244.643	21.33
244.86	-23.72
245.078	31.57
245.295	33.62
245.512	13.14
245.729	-5.29
245.946	29.52
246.163	-9.39
246.38	66.39
246.597	-7.34
246.814	17.24
247.031	54.1
247.248	7
247.464	-9.39
247.681	82.77
247.898	2.9
248.115	41.81
248.332	2.9
248.549	21.33
248.766	-5.29
248.983	56.15
249.2	66.39
249.417	0.85
249.633	-17.58
249.85	-46.25
250.067	-33.96
250.284	15.19
250.501	50
250.717	43.86
250.934	76.63
251.151	-74.92
251.368	52.05
251.585	-19.63
251.801	27.48
252.018	41.81
252.235	37.72
252.451	13.14
252.668	19.29
252.885	33.62
253.102	-44.2
253.318	68.44
253.535	27.48
253.752	-7.34
253.968	70.48
254.185	-66.73
254.401	21.33
254.618	21.33
254.835	31.57
255.051	88.92
255.268	25.43
255.484	15.19
255.701	-50.35
255.917	-19.63
256.134	52.05
256.351	37.72
256.567	-3.24
256.784	80.72
257	41.81
257.217	7
257.433	-1.19
257.65	15.19
257.866	17.24
258.082	-31.91
258.299	17.24
258.515	23.38
258.732	-17.58
258.948	-7.34
259.165	-23.72
259.381	35.67
259.597	27.48
259.814	68.44
260.03	-21.67
260.246	41.81
260.463	-21.67
260.679	4.95
260.895	7
261.112	2.9
261.328	70.48
261.544	80.72
261.761	-5.29
261.977	27.48
262.193	54.1
262.409	23.38
262.626	-31.91
262.842	25.43
263.058	19.29
263.274	62.29
263.49	27.48
263.707	56.15
263.923	-7.34
264.139	72.53
264.355	43.86
264.571	33.62
264.787	45.91
265.004	-11.43
265.22	-21.67
265.436	4.95
265.652	-13.48
265.868	-33.96
266.084	-40.11
266.3	35.67
266.516	72.53
266.732	4.95
266.948	21.33
267.164	23.38
267.38	80.72
267.596	60.24
267.812	7
268.028	-7.34
268.244	45.91
268.46	72.53
268.676	39.76
268.892	0.85
269.108	54.1
269.324	37.72
269.54	-62.63
269.756	15.19
269.972	19.29
270.188	82.77
270.403	-1.19
270.619	13.14
270.835	45.91
271.051	-11.43
271.267	23.38
271.483	50
271.698	2.9
271.914	17.24
272.13	33.62
272.346	27.48
272.562	47.96
272.777	-25.77
272.993	-1.19
273.209	60.24
273.425	15.19
273.64	76.63
273.856	93.01
274.072	-17.58
274.287	72.53
274.503	-21.67
274.719	-27.82
274.934	-11.43
275.15	47.96
275.366	-54.44
275.581	-44.2
275.797	45.91
276.012	23.38
276.228	29.52
276.444	-27.82
276.659	39.76
276.875	13.14
277.09	-27.82
277.306	-42.15
277.521	-21.67
277.737	-64.68
277.952	70.48
278.168	-31.91
278.383	0.85
278.599	-27.82
278.814	9.05
279.03	17.24
279.245	54.1
279.461	2.9
279.676	-3.24
279.892	-66.73
280.107	64.34
280.322	31.57
280.538	-7.34
280.753	-15.53
280.969	62.29
281.184	13.14
281.399	7
281.615	29.52
281.83	31.57
282.045	-23.72
282.26	-50.35
282.476	119.64
282.691	25.43
282.906	37.72
283.122	-9.39
283.337	-15.53
283.552	52.05
283.767	13.14
283.983	-17.58
284.198	68.44
284.413	-11.43
284.628	-68.78
284.843	-1.19
285.058	21.33
285.274	29.52
285.489	4.95
285.704	74.58
285.919	-5.29
286.134	0.85
286.349	50
286.564	15.19
286.779	23.38
286.995	54.1
287.21	-25.77
287.425	-1.19
287.64	17.24
287.855	37.72
288.07	15.19
288.285	-58.54
288.5	-5.29
288.715	-13.48
288.93	35.67
289.145	-52.39
289.36	78.68
289.575	-13.48
289.79	4.95
290.004	-60.59
290.219	-3.24
290.434	-36.01
290.649	13.14
290.864	-25.77
291.079	-3.24
291.294	62.29
291.509	-1.19
291.724	-1.19
291.938	2.9
292.153	13.14
292.368	19.29
292.583	-11.43
292.798	-19.63
293.012	4.95
293.227	7
293.442	33.62
293.657	41.81
293.871	-21.67
294.086	19.29
294.301	9.05
294.516	54.1
294.73	17.24
294.945	9.05
295.16	7
295.374	68.44
295.589	15.19
295.804	-40.11
296.018	-15.53
296.233	-31.91
296.447	-33.96
296.662	-36.01
296.877	-19.63
297.091	0.85
297.306	4.95
297.52	25.43
297.735	9.05
297.949	-66.73
298.164	-1.19
298.378	15.19
298.593	-7.34
298.807	31.57
299.022	-68.78
299.236	58.2
299.451	13.14
299.665	47.96
299.88	45.91
300.094	29.52
300.309	-50.35
300.523	88.92
300.737	70.48
300.952	-48.3
301.166	82.77
301.381	29.52
301.595	-1.19
301.809	4.95
302.024	9.05
302.238	-17.58
302.452	52.05
302.667	4.95
302.881	17.24
303.095	41.81
303.309	62.29
303.524	-29.87
303.738	-36.01
303.952	56.15
304.166	82.77
304.381	-13.48
304.595	74.58
304.809	-27.82
305.023	13.14
305.237	-97.45
305.452	54.1
305.666	-3.24
305.88	56.15
306.094	7
306.308	17.24
306.522	19.29
306.736	-5.29
306.95	47.96
307.164	25.43
307.379	35.67
307.593	15.19
307.807	101.2
308.021	41.81
308.235	-3.24
308.449	29.52
308.663	-17.58
308.877	54.1
309.091	-44.2
309.305	-62.63
309.519	31.57
309.733	-19.63
309.947	45.91
310.161	62.29
310.374	50
310.588	50
310.802	-5.29
311.016	-1.19
311.23	-68.78
311.444	56.15
311.658	45.91
311.872	2.9
312.085	9.05
312.299	33.62
312.513	78.68
312.727	45.91
312.941	-3.24
313.154	35.67
313.368	74.58
313.582	15.19
313.796	13.14
314.009	9.05
314.223	58.2
314.437	66.39
314.651	-3.24
314.864	68.44
315.078	52.05
315.292	11.09
315.505	-31.91
315.719	39.76
315.933	9.05
316.146	0.85
316.36	25.43
316.573	101.2
316.787	-3.24
317.001	25.43
317.214	45.91
317.428	-42.15
317.641	-23.72
317.855	-58.54
318.068	-1.19
318.282	50
318.495	64.34
318.709	-36.01
318.922	-27.82
319.136	41.81
319.349	-21.67
319.563	21.33
319.776	0.85
319.99	23.38
320.203	56.15
320.417	-38.06
320.63	-1.19
320.843	56.15
321.057	33.62
321.27	-1.19
321.483	-76.97
321.697	88.92
321.91	45.91
322.124	37.72
322.337	56.15
322.55	-66.73
322.763	15.19
322.977	-11.43
323.19	70.48
323.403	64.34
323.617	-15.53
323.83	4.95
324.043	35.67
324.256	39.76
324.469	27.48
324.683	23.38
324.896	54.1
325.109	-25.77
325.322	-87.21
325.535	78.68
325.748	-3.24
325.962	4.95
326.175	-9.39
326.388	9.05
326.601	-19.63
326.814	9.05
327.027	68.44
327.24	-13.48
327.453	-19.63
327.666	25.43
327.879	-31.91
328.092	60.24
328.305	25.43
328.518	-19.63
328.731	-44.2
328.944	-21.67
329.157	17.24
329.37	19.29
329.583	-11.43
329.796	47.96
330.009	-25.77
330.222	37.72
330.435	15.19
330.648	45.91
330.861	2.9
331.073	-23.72
331.286	7
331.499	99.16
331.712	27.48
331.925	-46.25
332.138	9.05
332.35	31.57
332.563	23.38
332.776	33.62
332.989	109.4
333.202	-29.87
333.414	-1.19
333.627	-44.2
333.84	-25.77
334.053	-31.91
334.265	-5.29
334.478	0.85
334.691	7
334.903	60.24
335.116	-13.48
335.329	43.86
335.541	13.14
335.754	4.95
335.966	35.67
336.179	7
336.392	4.95
336.604	15.19
336.817	11.09
337.029	-5.29
337.242	50
337.454	39.76
337.667	-3.24
337.88	68.44
338.092	29.52
338.305	0.85
338.517	17.24
338.729	29.52
338.942	15.19
339.154	2.9
339.367	13.14
339.579	9.05
339.792	0.85
340.004	84.82
340.217	29.52
340.429	13.14
340.641	17.24
340.854	64.34
341.066	2.9
341.278	37.72
341.491	-13.48
341.703	13.14
341.915	17.24
342.128	78.68
342.34	50
342.552	37.72
342.764	33.62
342.977	50
343.189	45.91
343.401	27.48
343.613	17.24
343.826	64.34
344.038	-50.35
344.25	9.05
344.462	66.39
344.674	-27.82
344.886	17.24
345.099	11.09
345.311	0.85
345.523	31.57
345.735	-81.07
345.947	0.85
346.159	-15.53
346.371	52.05
346.583	45.91
346.795	50
347.007	39.76
347.219	-40.11
347.431	25.43
347.643	35.67
347.855	31.57
348.067	25.43
348.279	31.57
348.491	45.91
348.703	-38.06
348.915	-11.43
349.127	72.53
349.339	52.05
349.551	4.95
349.763	13.14
349.975	-17.58
350.187	-5.29
350.399	25.43
350.61	19.29
350.822	33.62
351.034	-17.58
351.246	-76.97
351.458	66.39
351.669	-17.58
351.881	72.53
352.093	-27.82
352.305	66.39
352.517	-11.43
352.728	-31.91
352.94	-23.72
353.152	68.44
353.363	2.9
353.575	21.33
353.787	23.38
353.999	54.1
354.21	50
354.422	7
354.633	17.24
354.845	76.63
355.057	-7.34
355.268	43.86
355.48	0.85
355.692	-46.25
355.903	17.24
356.115	23.38
356.326	0.85
356.538	-25.77
356.749	4.95
356.961	95.06
357.172	19.29
357.384	-11.43
357.595	-29.87
357.807	47.96
358.018	54.1
358.23	-33.96
358.441	-17.58
358.653	-44.2
358.864	-17.58
359.075	-21.67
359.287	37.72
359.498	-76.97
359.709	50
359.921	-11.43
360.132	-11.43
360.344	78.68
360.555	29.52
360.766	7
360.977	-1.19
361.189	74.58
361.4	41.81
361.611	97.11
361.823	50
362.034	-11.43
362.245	-56.49
362.456	66.39
362.667	-17.58
362.879	43.86
363.09	-7.34
363.301	-33.96
363.512	105.3
363.723	-15.53
363.935	-7.34
364.146	72.53
364.357	39.76
364.568	74.58
364.779	-9.39
364.99	-13.48
365.201	33.62
365.412	39.76
365.623	-17.58
365.834	11.09
366.045	15.19
366.256	-1.19
366.467	11.09
366.678	17.24
366.889	-3.24
367.1	64.34
367.311	11.09
367.522	-15.53
367.733	27.48
367.944	-27.82
368.155	-19.63
368.366	9.05
368.577	4.95
368.788	39.76
368.999	-46.25
369.209	-40.11
369.42	-9.39
369.631	70.48
369.842	-9.39
370.053	23.38
370.264	23.38
370.474	39.76
370.685	-13.48
370.896	35.67
371.107	56.15
371.317	35.67
371.528	17.24
371.739	23.38
371.95	4.95
372.16	0.85
372.371	-19.63
372.582	-33.96
372.792	-68.78
373.003	11.09
373.214	54.1
373.424	-38.06
373.635	13.14
373.846	56.15
374.056	-31.91
374.267	-17.58
374.477	21.33
374.688	41.81
374.898	74.58
375.109	-11.43
375.319	23.38
375.53	54.1
375.74	29.52
375.951	27.48
376.161	11.09
376.372	33.62
376.582	7
376.793	23.38
377.003	7
377.214	23.38
377.424	-17.58
377.635	66.39
377.845	-66.73
378.055	35.67
378.266	76.63
378.476	4.95
378.686	43.86
378.897	-7.34
379.107	-21.67
379.317	86.87
379.528	-13.48
379.738	117.59
379.948	-40.11
380.158	-17.58
380.369	-70.83
380.579	86.87
380.789	15.19
380.999	52.05
381.21	105.3
381.42	21.33
381.63	-3.24
381.84	41.81
382.05	27.48
382.261	-33.96
382.471	-3.24
382.681	-27.82
382.891	45.91
383.101	9.05
383.311	27.48
383.521	-17.58
383.731	72.53
383.941	0.85
384.151	-46.25
384.361	33.62
384.571	2.9
384.781	47.96
384.991	88.92
385.201	52.05
385.411	62.29
385.621	47.96
385.831	-19.63
386.041	-62.63
386.251	21.33
386.461	33.62
386.671	13.14
386.881	15.19
387.091	25.43
387.301	70.48
387.511	-3.24
387.72	52.05
387.93	27.48
388.14	-29.87
388.35	-1.19
388.56	-9.39
388.769	107.35
388.979	54.1
389.189	-85.16
389.399	41.81
389.609	13.14
389.818	39.76
390.028	33.62
390.238	11.09
390.447	33.62
390.657	50
390.867	-15.53
391.076	-11.43
391.286	29.52
391.496	47.96
391.705	0.85
391.915	13.14
392.125	-5.29
392.334	78.68
392.544	-1.19
392.753	47.96
392.963	33.62
393.172	4.95
393.382	68.44
393.591	62.29
393.801	-3.24
394.01	29.52
394.22	13.14
394.429	7
394.639	-25.77
394.848	-7.34
395.058	35.67
395.267	7
395.477	90.96
395.686	47.96
395.895	58.2
396.105	9.05
396.314	15.19
396.524	-1.19
396.733	-19.63
396.942	39.76
397.152	-3.24
397.361	-46.25
397.57	35.67
397.78	-74.92
397.989	-3.24
398.198	-29.87
398.407	0.85
398.617	111.44
398.826	47.96
399.035	-50.35
399.244	-3.24
399.453	2.9
399.663	13.14
399.872	54.1
400.081	0.85
400.29	43.86
400.499	50
400.708	13.14
400.917	-27.82
401.127	-21.67
401.336	17.24
401.545	4.95
401.754	4.95
401.963	97.11
402.172	0.85
402.381	19.29
402.59	-31.91
402.799	15.19
403.008	-9.39
403.217	0.85
403.426	-7.34
403.635	-13.48
403.844	19.29
404.053	111.44
404.262	-42.15
404.471	111.44
404.68	-50.35
404.888	-54.44
405.097	7
405.306	90.96
405.515	47.96
405.724	4.95
405.933	-1.19
406.142	76.63
406.35	47.96
406.559	4.95
406.768	43.86
406.977	39.76
407.185	-9.39
407.394	4.95
407.603	-27.82
407.812	-31.91
408.02	13.14
408.229	21.33
408.438	62.29
408.646	7
408.855	56.15
409.064	31.57
409.272	41.81
409.481	72.53
409.69	23.38
409.898	72.53
410.107	54.1
410.315	54.1
410.524	47.96
410.733	37.72
410.941	80.72
411.15	142.16
411.358	99.16
411.567	78.68
411.775	111.44
411.984	25.43
412.192	39.76
412.401	80.72
412.609	68.44
412.818	86.87
413.026	45.91
413.234	70.48
413.443	113.49
413.651	76.63
413.86	39.76
414.068	68.44
414.276	115.54
414.485	103.25
414.693	113.49
414.901	166.74
415.11	119.64
415.318	125.78
415.526	150.36
415.734	170.83
415.943	115.54
416.151	107.35
416.359	93.01
416.567	203.6
416.776	154.45
416.984	142.16
417.192	158.55
417.4	215.89
417.608	119.64
417.817	203.6
418.025	181.07
418.233	267.09
418.441	158.55
418.649	176.98
418.857	181.07
419.065	250.71
419.273	185.17
419.481	203.6
419.689	217.94
419.897	234.32
420.105	205.65
420.313	201.55
420.521	285.52
420.729	328.53
420.937	316.24
421.145	336.72
421.353	314.19
421.561	295.76
421.769	408.4
421.977	297.81
422.185	402.26
422.393	367.44
422.601	279.38
422.809	392.02
423.017	414.54
423.224	492.37
423.432	410.45
423.64	398.16
423.848	492.37
424.056	432.97
424.263	484.17
424.471	422.73
424.679	420.69
424.887	510.8
425.094	535.37
425.302	437.07
425.51	463.69
425.718	611.15
425.925	607.05
426.133	621.39
426.341	619.34
426.548	627.53
426.756	619.34
426.964	627.53
427.171	721.74
427.379	619.34
427.586	777.03
427.794	768.84
428.001	721.74
428.209	861
428.417	828.23
428.624	928.58
428.832	875.34
429.039	752.46
429.247	785.23
429.454	938.82
429.662	977.73
429.869	912.2
430.076	951.11
430.284	944.97
430.491	953.16
430.699	1047.37
430.906	996.17
431.114	1082.18
431.321	1098.56
431.528	1192.77
431.736	1266.5
431.943	1276.74
432.15	1233.73
432.358	1311.55
432.565	1268.55
432.772	1344.32
432.979	1471.29
433.187	1465.15
433.394	1397.57
433.601	1393.47
433.808	1569.6
434.016	1520.45
434.223	1534.78
434.43	1565.5
434.637	1626.94
434.844	1809.21
435.052	1809.21
435.259	1841.98
435.466	1841.98
435.673	1610.56
435.88	1948.47
436.087	2020.15
436.294	1962.81
436.501	1985.34
436.708	1880.89
436.915	2085.69
437.122	2163.51
437.329	2122.55
437.537	2157.36
437.743	2274.1
437.95	2227
438.157	2394.93
438.364	2370.35
438.571	2548.53
438.778	2356.02
438.985	2546.48
439.192	2632.49
439.399	2571.05
439.606	2689.84
439.813	2794.28
440.02	2853.67
440.227	2822.95
440.433	2816.81
440.64	2835.24
440.847	2878.25
441.054	2929.45
441.261	3113.77
441.467	3128.1
441.674	3175.2
441.881	3207.97
442.088	3171.11
442.294	3310.37
442.501	3226.4
442.708	3408.67
442.914	3629.85
443.121	3607.33
443.328	3502.88
443.534	3799.84
443.741	3619.61
443.948	3736.35
444.154	3932.95
444.361	3953.43
444.568	3945.24
444.774	3918.62
444.981	3953.43
445.187	4119.32
445.394	4389.65
445.6	4252.44
445.807	4657.93
446.013	4586.26
446.22	4391.7
446.426	4713.23
446.633	4854.54
446.839	4924.17
447.046	4733.71
447.252	4969.23
447.459	4932.36
447.665	4971.27
447.871	5278.47
448.078	5470.98
448.284	5247.75
448.491	5313.28
448.697	5600
448.903	5530.37
449.11	5589.76
449.316	5593.86
449.522	5616.38
449.728	5810.94
449.935	5843.71
450.141	5798.65
450.347	5958.39
450.553	5817.08
450.76	5823.23
450.966	6021.88
451.172	6009.59
451.378	6300.41
451.584	6044.41
451.791	6206.2
451.997	6185.72
452.203	6195.96
452.409	6345.46
452.615	6322.93
452.821	5960.44
453.027	6079.22
453.233	6337.27
453.44	6056.7
453.646	6075.13
453.852	6071.03
454.058	6210.29
454.264	6081.27
454.47	6210.29
454.676	5960.44
454.882	6122.23
455.088	5731.07
455.294	5743.36
455.5	5958.39
455.705	6064.89
455.911	5755.65
456.117	5552.9
456.323	5542.66
456.529	5219.08
456.735	5458.69
456.941	5225.22
457.147	5077.77
457.352	5131.02
457.558	5065.48
457.764	4815.63
457.97	4940.55
458.176	4811.53
458.381	4803.34
458.587	4643.6
458.793	4641.55
458.999	4514.58
459.204	4680.46
459.41	4537.1
459.616	4285.2
459.821	4125.46
460.027	4168.47
460.233	4102.93
460.438	3973.91
460.644	4039.45
460.85	3863.32
461.055	3691.29
461.261	3717.92
461.466	3447.58
461.672	3380
461.878	3756.83
462.083	3345.19
462.289	3230.5
462.494	3271.46
462.7	3142.44
462.905	2997.03
463.111	3181.35
463.316	3255.08
463.522	3042.09
463.727	3212.07
463.932	3060.52
464.138	3162.92
464.343	3201.83
464.549	2949.93
464.754	3214.12
464.959	3259.17
465.165	3015.46
465.37	3078.95
465.575	2835.24
465.781	2968.36
465.986	2990.89
466.191	2923.3
466.397	2710.32
466.602	2716.46
466.807	2753.32
467.012	2798.38
467.218	2773.8
467.423	2794.28
467.628	2855.72
467.833	2997.03
468.038	2792.23
468.244	2710.32
468.449	2894.63
468.654	2872.11
468.859	2738.99
469.064	2693.93
469.269	2569.01
469.474	2724.65
469.679	2704.17
469.885	2634.54
470.09	2612.01
470.295	2587.44
470.5	2536.24
470.705	2558.77
470.91	2456.37
471.115	2439.98
471.32	2505.52
471.525	2538.29
471.73	2403.12
471.935	2454.32
472.139	2272.05
472.344	2466.61
472.549	2470.7
472.754	2343.73
472.959	2327.35
473.164	2343.73
473.369	2153.27
473.574	2374.45
473.778	2261.81
473.983	2300.72
474.188	2274.1
474.393	2284.34
474.598	2069.3
474.802	2118.45
475.007	2032.44
475.212	2196.28
475.417	2069.3
475.621	1971
475.826	2071.35
476.031	2112.31
476.235	1954.62
476.44	2124.6
476.645	1968.95
476.849	1909.56
477.054	1997.62
477.259	1942.33
477.463	1954.62
477.668	1897.27
477.872	1897.27
478.077	1876.79
478.282	1876.79
478.486	1850.17
478.691	1735.48
478.895	1841.98
479.1	1835.83
479.304	1876.79
479.509	1772.35
479.713	1788.73
479.918	1801.02
480.122	1698.62
480.326	1768.25
480.531	1811.26
480.735	1655.61
480.94	1710.91
481.144	1704.76
481.348	1715
481.553	1706.81
481.757	1735.48
481.961	1676.09
482.166	1751.87
482.37	1770.3
482.574	1579.84
482.778	1751.87
482.983	1782.59
483.187	1684.28
483.391	1712.96
483.595	1635.13
483.8	1743.67
484.004	1702.72
484.208	1715
484.412	1825.59
484.616	1733.43
484.821	1678.14
485.025	1737.53
485.229	1663.8
485.433	1733.43
485.637	1635.13
485.841	1688.38
486.045	1641.28
486.249	1768.25
486.453	1698.62
486.657	1702.72
486.861	1751.87
487.065	1678.14
487.269	1749.82
487.473	1602.36
487.677	1780.54
487.881	1770.3
488.085	1790.78
488.289	1665.85
488.493	1741.63
488.697	1862.46
488.901	1645.37
489.105	1612.6
489.309	1749.82
489.512	1821.5
489.716	1833.79
489.92	1704.76
490.124	1762.11
490.328	1819.45
490.531	1776.44
490.735	1780.54
490.939	1782.59
491.143	1854.27
491.346	1762.11
491.55	1921.85
491.754	1884.98
491.958	1839.93
492.161	1815.35
492.365	1850.17
492.569	1850.17
492.772	1848.12
492.976	1854.27
493.18	2018.1
493.383	2054.97
493.587	1934.14
493.79	2014.01
493.994	1946.42
494.197	1997.62
494.401	2110.26
494.605	1940.28
494.808	2059.06
495.012	2003.77
495.215	2020.15
495.419	2171.7
495.622	2020.15
495.825	2179.89
496.029	2143.03
496.232	2208.56
496.436	2097.97
496.639	2177.84
496.843	2241.33
497.046	2267.95
497.249	2218.8
497.453	2292.53
497.656	2284.34
497.859	2433.84
498.063	2300.72
498.266	2413.36
498.469	2429.74
498.673	2437.94
498.876	2519.85
499.079	2528.05
499.282	2442.03
499.485	2513.71
499.689	2591.53
499.892	2757.42
500.095	2663.21
500.298	2747.18
500.501	2685.74
500.705	2874.15
500.908	2808.62
501.111	2880.3
501.314	2937.64
501.517	2847.53
501.72	2882.35
501.923	2888.49
502.126	2898.73
502.329	3066.66
502.532	3119.91
502.735	3060.52
502.938	3228.45
503.141	3328.8
503.344	3261.22
503.547	3402.53
503.75	3394.34
503.953	3287.84
504.156	3445.54
504.359	3412.77
504.562	3533.6
504.765	3552.03
504.968	3566.37
505.17	3566.37
505.373	3519.26
505.576	3701.53
505.779	3654.43
505.982	3664.67
506.185	3865.37
506.387	3920.67
506.59	3822.36
506.793	3969.82
506.996	3963.67
507.198	4143.89
507.401	4184.85
507.604	4182.81
507.807	4266.77
508.009	4246.29
508.212	4508.43
508.415	4459.28
508.617	4387.6
508.82	4428.56
509.022	4358.93
509.225	4686.61
509.428	4584.21
509.63	4809.48
509.833	4750.09
510.035	4784.91
510.238	5047.05
510.44	4977.42
510.643	5057.29
510.845	5110.54
511.048	5131.02
511.25	5122.82
511.453	5200.65
511.655	5327.62
511.858	5395.2
512.06	5339.91
512.262	5618.43
512.465	5382.92
512.667	5481.22
512.87	5716.73
513.072	5600
513.274	5784.32
513.477	5937.91
513.679	5696.25
513.881	5937.91
514.084	6042.36
514.286	6066.94
514.488	6226.68
514.69	6255.35
514.893	6329.08
515.095	6316.79
515.297	6271.73
515.499	6390.52
515.701	6589.17
515.904	6589.17
516.106	6771.44
516.308	6738.67
516.51	6796.01
516.712	6705.9
516.914	6826.73
517.116	7062.25
517.318	6976.23
517.52	7033.58
517.722	7090.92
517.925	7193.32
518.127	7250.66
518.329	7461.6
518.531	7412.45
518.733	7475.94
518.935	7520.99
519.136	7619.3
519.338	7582.43
519.54	7652.06
519.742	7748.32
519.944	7989.98
520.146	7987.93
520.348	8030.94
520.55	7975.64
520.752	8139.48
520.954	8334.04
521.155	8166.1
521.357	8571.6
521.559	8364.76
521.761	8524.5
521.963	8606.42
522.164	8450.77
522.366	8633.04
522.568	8714.96
522.77	8639.19
522.971	8911.57
523.173	8886.99
523.375	8819.41
523.576	8936.14
523.778	8745.68
523.98	9306.82
524.181	9097.93
524.383	9290.44
524.584	9454.28
524.786	9388.74
524.988	9229
525.189	9306.82
525.391	9388.74
525.592	9456.33
525.794	9294.54
525.995	9595.59
526.197	9640.64
526.398	9704.13
526.6	9738.94
526.801	9827.01
527.003	9835.2
527.204	9855.68
527.406	10111.68
527.607	10099.39
527.808	9994.94
528.01	10152.63
528.211	9874.11
528.412	10177.21
528.614	9943.74
528.815	10130.11
529.016	10189.5
529.218	10126.01
529.419	10361.53
529.62	10134.2
529.822	10218.17
530.023	10230.46
530.224	10334.9
530.425	10248.89
530.626	10207.93
530.828	10459.83
531.029	10410.68
531.23	10459.83
531.431	10234.55
531.632	10564.28
531.833	10633.91
532.035	10523.32
532.236	10476.21
532.437	10670.77
532.638	10613.43
532.839	10519.22
533.04	10615.48
533.241	10457.78
533.442	10484.41
533.643	10664.63
533.844	10652.34
534.045	10656.43
534.246	10400.44
534.447	10869.42
534.648	10695.35
534.849	10726.07
535.05	10599.09
535.251	10785.46
535.451	10818.22
535.652	10695.35
535.853	10666.67
536.054	10783.41
536.255	10822.32
536.456	10855.09
536.657	10867.38
536.857	10672.82
537.058	10748.59
537.259	10754.74
537.46	10666.67
537.66	10894
537.861	10760.88
538.062	10738.35
538.263	10621.62
538.463	10793.65
538.664	10549.94
538.865	10871.47
539.065	10896.05
539.266	10670.77
539.466	10912.43
539.667	10566.32
539.868	10916.53
540.068	10775.22
540.269	10842.8
540.469	10947.25
540.67	10732.21
540.87	10848.94
541.071	10848.94
541.271	10939.05
541.472	10678.96
541.672	10787.5
541.873	10574.52
542.073	10672.82
542.274	11051.69
542.474	10760.88
542.675	11045.55
542.875	10805.94
543.075	10728.11
543.276	10742.45
543.476	10902.19
543.676	10916.53
543.877	11057.84
544.077	10916.53
544.277	10744.5
544.478	10842.8
544.678	10740.4
544.878	10711.73
545.078	10902.19
545.279	10658.48
545.479	10865.33
545.679	10734.26
545.879	10613.43
546.079	10773.17
546.28	10613.43
546.48	10713.78
546.68	10687.15
546.88	10779.31
547.08	10715.83
547.28	10838.7
547.48	10650.29
547.68	10627.76
547.88	10732.21
548.081	10971.82
548.281	10869.42
548.481	10801.84
548.681	10836.66
548.881	10896.05
549.081	10969.77
549.28	10691.25
549.48	10656.43
549.68	10662.58
549.88	10769.07
550.08	10738.35
550.28	10814.13
550.48	10764.98
550.68	10678.96
550.88	10685.11
551.08	10779.31
551.279	10805.94
551.479	10697.39
551.679	11057.84
551.879	10666.67
552.079	10853.04
552.278	10693.3
552.478	10850.99
552.678	10676.91
552.878	10728.11
553.077	10455.73
553.277	10689.2
553.477	10717.87
553.676	10771.12
553.876	10785.46
554.076	10732.21
554.275	10801.84
554.475	10465.97
554.674	10666.67
554.874	10603.19
555.074	10556.08
555.273	10674.87
555.473	10894
555.672	10490.55
555.872	10537.65
556.071	10664.63
556.271	10748.59
556.47	10793.65
556.67	10650.29
556.869	10398.39
557.068	10556.08
557.268	10437.3
557.467	10459.83
557.667	10687.15
557.866	10465.97
558.065	10625.72
558.265	10476.21
558.464	10527.41
558.663	10468.02
558.863	10416.82
559.062	10502.84
559.261	10443.45
559.461	10957.49
559.66	10312.38
559.859	10304.18
560.058	10539.7
560.258	10420.92
560.457	10222.27
560.656	10166.97
560.855	10308.28
561.054	10250.94
561.253	10369.72
561.453	10339
561.652	10312.38
561.851	10367.67
562.05	10373.82
562.249	10269.37
562.448	10474.17
562.647	10371.77
562.846	10312.38
563.045	10173.11
563.244	10230.46
563.443	10511.03
563.642	10162.87
563.841	10275.51
564.04	10091.2
564.239	10367.67
564.438	10175.16
564.637	10179.26
564.836	10236.6
565.035	10042.04
565.234	10197.69
565.432	10068.67
565.631	9984.7
565.83	9970.37
566.029	10146.49
566.228	10089.15
566.427	9859.77
566.625	9870.01
566.824	9677.51
567.023	10050.24
567.222	9654.98
567.42	9863.87
567.619	9861.82
567.818	9749.18
568.016	9646.79
568.215	9872.06
568.414	10066.62
568.612	9841.34
568.811	9861.82
569.01	9753.28
569.208	9779.9
569.407	9640.64
569.605	9730.75
569.804	9808.58
570.002	9867.97
570.201	9732.8
570.4	9618.11
570.598	9530.05
570.797	9593.54
570.995	9427.65
571.193	9681.6
571.392	9579.2
571.59	9472.71
571.789	9519.81
571.987	9362.12
572.186	9439.94
572.384	9302.73
572.582	9429.7
572.781	9528
572.979	9339.59
573.177	9267.91
573.376	9353.93
573.574	9349.83
573.772	9245.38
573.971	9229
574.169	9040.59
574.367	9132.75
574.565	9261.77
574.763	9065.16
574.962	9091.79
575.16	9036.49
575.358	9159.37
575.556	9190.09
575.754	9194.19
575.952	8860.37
576.151	9114.31
576.349	8903.37
576.547	8981.2
576.745	8870.61
576.943	9183.95
577.141	8946.38
577.339	8766.16
577.537	8846.03
577.735	8993.48
577.933	8721.1
578.131	8968.91
578.329	8934.09
578.527	8743.63
578.725	8706.77
578.923	8643.28
579.121	8710.86
579.319	8698.58
579.516	8723.15
579.714	8635.09
579.912	8540.88
580.11	8508.12
580.308	8592.08
580.506	8655.57
580.704	8563.41
580.901	8473.3
581.099	8602.32
581.297	8364.76
581.495	8422.1
581.692	8393.43
581.89	8368.85
582.088	8338.13
582.285	8340.18
582.483	8336.09
582.681	8360.66
582.878	8309.46
583.076	8159.96
583.274	8190.68
583.471	8131.29
583.669	8010.46
583.866	8270.55
584.064	8188.63
584.262	8131.29
584.459	8352.47
584.657	8088.28
584.854	8231.64
585.052	7867.1
585.249	8071.9
585.447	8041.18
585.644	7992.03
585.841	8073.95
586.039	8051.42
586.236	7932.64
586.434	7803.61
586.631	7863.01
586.828	7912.16
587.026	7969.5
587.223	7856.86
587.42	7920.35
587.618	7756.51
587.815	7955.16
588.012	7803.61
588.21	7680.74
588.407	7883.49
588.604	7621.35
588.801	7744.22
588.999	7680.74
589.196	7422.69
589.393	7629.54
589.59	7643.87
589.787	7477.99
589.984	7516.9
590.182	7473.89
590.379	7357.16
590.576	7475.94
590.773	7496.42
590.97	7320.29
591.167	7353.06
591.364	7308.01
591.561	7424.74
591.758	7451.36
591.955	7258.85
592.152	7150.31
592.349	7203.56
592.546	7422.69
592.743	7320.29
592.94	7191.27
593.137	7228.14
593.334	7459.56
593.531	6988.52
593.727	7199.46
593.924	7160.55
594.121	7140.07
594.318	7060.2
594.515	6933.23
594.712	7133.93
594.908	6998.76
595.105	7023.34
595.302	6959.85
595.499	6982.38
595.696	6767.34
595.892	6927.08
596.089	6810.35
596.286	7047.91
596.482	6916.84
596.679	7052.01
596.876	6853.36
597.072	6748.91
597.269	7039.72
597.466	6632.18
597.662	6802.16
597.859	6861.55
598.055	6628.08
598.252	6787.82
598.448	6603.5
598.645	6666.99
598.841	6646.51
599.038	6546.16
599.234	6660.85
599.431	6615.79
599.627	6540.02
599.824	6425.33
600.02	6460.15
600.217	6527.73
600.413	6486.77
600.609	6558.45
600.806	6396.66
601.002	6363.89
601.198	6474.48
601.395	6390.52
601.591	6447.86
601.787	6482.67
601.984	6198.01
602.18	6474.48
602.376	6372.08
602.572	6509.3
602.769	6415.09
602.965	6132.47
603.161	6247.16
603.357	6331.12
603.553	6150.9
603.75	6341.36
603.946	6179.58
604.142	6177.53
604.338	6071.03
604.534	6015.74
604.73	5944.06
604.926	5954.3
605.122	6093.56
605.318	6054.65
605.514	6083.32
605.71	6001.4
605.906	6056.7
606.102	5952.25
606.298	5837.56
606.494	5866.24
606.69	5917.44
606.886	5989.11
607.082	5864.19
607.278	5858.04
607.474	5911.29
607.67	5929.72
607.866	5815.04
608.062	5810.94
608.257	5831.42
608.453	5698.3
608.649	5776.13
608.845	5686.01
609.041	5739.26
609.236	5712.64
609.432	5567.23
609.628	5651.2
609.824	5575.42
610.019	5460.74
610.215	5745.41
610.411	5683.97
610.606	5421.83
610.802	5653.25
610.998	5477.12
611.193	5681.92
611.389	5573.38
611.584	5473.03
611.78	5397.25
611.976	5462.79
612.171	5456.64
612.367	5513.99
612.562	5520.13
612.758	5329.67
612.953	5493.51
613.149	5378.82
613.344	5456.64
613.539	5464.83
613.735	5276.42
613.93	5247.75
614.126	5366.53
614.321	5534.46
614.517	5368.58
614.712	5331.72
614.907	5292.8
615.103	5440.26
615.298	5298.95
615.493	5397.25
615.688	5151.49
615.884	5427.97
616.079	5317.38
616.274	5303.04
616.47	5286.66
616.665	5257.99
616.86	5161.73
617.055	5147.4
617.25	5114.63
617.445	5229.32
617.641	5190.41
617.836	5026.57
618.031	5034.76
618.226	5262.09
618.421	5102.34
618.616	5055.24
618.811	5008.14
619.006	5006.09
619.201	4983.56
619.396	5006.09
619.591	4961.03
619.786	5010.18
619.981	4717.33
620.176	4944.65
620.371	4756.24
620.566	4887.31
620.761	4981.51
620.956	4856.59
621.151	4823.82
621.346	4819.72
621.541	4700.94
621.735	4707.09
621.93	4741.9
622.125	4793.1
622.32	4490
622.515	4631.31
622.709	4653.84
622.904	4582.16
623.099	4502.29
623.294	4700.94
623.488	4469.52
623.683	4403.99
623.878	4383.51
624.072	4528.91
624.267	4422.42
624.462	4391.7
624.656	4371.22
624.851	4279.06
625.046	4219.67
625.24	4317.97
625.435	4371.22
625.629	4258.58
625.824	4350.74
626.018	4213.53
626.213	4170.52
626.407	4289.3
626.602	4137.75
626.796	4147.99
626.991	4219.67
627.185	4080.41
627.38	4061.98
627.574	4092.69
627.768	4088.6
627.963	4010.78
628.157	3887.9
628.352	3836.7
628.546	3799.84
628.74	3871.51
628.935	3918.62
629.129	3844.89
629.323	3855.13
629.517	3816.22
629.712	3857.18
629.906	3765.02
630.1	3832.6
630.294	3791.64
630.489	3625.76
630.683	3769.12
630.877	3672.86
631.071	3758.88
631.265	3779.36
631.459	3668.77
631.653	3570.46
631.848	3509.02
632.042	3627.81
632.236	3576.61
632.43	3572.51
632.624	3580.7
632.818	3443.49
633.012	3437.34
633.206	3517.22
633.4	3529.5
633.594	3441.44
633.788	3435.3
633.982	3390.24
634.176	3449.63
634.369	3396.39
634.563	3261.22
634.757	3418.91
634.951	3349.28
635.145	3214.12
635.339	3363.62
635.533	3238.69
635.726	3398.43
635.92	3330.85
636.114	3234.6
636.308	3259.17
636.501	3275.56
636.695	3253.03
636.889	3207.97
637.083	3140.39
637.276	3134.25
637.47	3148.58
637.664	3136.29
637.857	3183.4
638.051	3164.97
638.244	2968.36
638.438	3035.94
638.632	3201.83
638.825	3076.9
639.019	3060.52
639.212	2986.79
639.406	2933.54
639.599	2951.98
639.793	2870.06
639.986	2962.22
640.18	3001.13
640.373	2857.77
640.567	2792.23
640.76	2880.3
640.954	2769.71
641.147	2769.71
641.34	2900.78
641.534	2808.62
641.727	2878.25
641.92	2765.61
642.114	2640.69
642.307	2767.66
642.5	2720.56
642.694	2618.16
642.887	2671.4
643.08	2675.5
643.273	2698.03
643.467	2738.99
643.66	2618.16
643.853	2589.49
644.046	2642.73
644.239	2446.13
644.432	2593.58
644.626	2497.33
644.819	2607.92
645.012	2579.25
645.205	2626.35
645.398	2515.76
645.591	2566.96
645.784	2491.18
645.977	2341.68
646.17	2429.74
646.363	2482.99
646.556	2341.68
646.749	2372.4
646.942	2448.18
647.135	2331.44
647.328	2353.97
647.521	2382.64
647.714	2251.57
647.907	2454.32
648.099	2196.28
648.292	2384.69
648.485	2310.96
648.678	2290.48
648.871	2212.66
649.064	2151.22
649.256	2247.48
649.449	2110.26
649.642	2233.14
649.835	2124.6
650.027	2190.13
650.22	2130.74
650.413	2147.12
650.605	2241.33
650.798	2087.73
650.991	2009.91
651.183	2024.25
651.376	2145.08
651.568	2100.02
651.761	2106.17
651.954	2106.17
652.146	2079.54
652.339	2009.91
652.531	1964.86
652.724	2024.25
652.916	1968.95
653.109	1981.24
653.301	1983.29
653.494	1983.29
653.686	1895.22
653.879	1930.04
654.071	1913.66
654.263	1905.46
654.456	1927.99
654.648	1919.8
654.84	1919.8
655.033	1831.74
655.225	1852.22
655.417	1874.74
655.61	1919.8
655.802	1841.98
655.994	1817.4
656.186	1790.78
656.379	1846.07
656.571	1715
656.763	1667.9
656.955	1760.06
657.148	1788.73
657.34	1753.91
657.532	1737.53
657.724	1725.24
657.916	1731.39
658.108	1758.01
658.3	1633.08
658.492	1721.15
658.684	1637.18
658.876	1710.91
659.068	1631.04
659.26	1540.93
659.452	1497.92
659.644	1600.32
659.836	1553.21
660.028	1610.56
660.22	1565.5
660.412	1557.31
660.604	1524.54
660.796	1512.25
660.988	1588.03
661.18	1563.45
661.372	1510.21
661.563	1512.25
661.755	1473.34
661.947	1413.95
662.139	1491.77
662.331	1391.42
662.522	1473.34
662.714	1473.34
662.906	1504.06
663.097	1381.18
663.289	1383.23
663.481	1409.86
663.673	1424.19
663.864	1372.99
664.056	1444.67
664.247	1422.14
664.439	1362.75
664.631	1405.76
664.822	1430.34
665.014	1289.03
665.205	1424.19
665.397	1276.74
665.588	1293.12
665.78	1268.55
665.971	1364.8
666.163	1338.18
666.354	1264.45
666.546	1352.51
666.737	1352.51
666.929	1219.39
667.12	1221.44
667.311	1178.44
667.503	1334.08
667.694	1297.22
667.885	1188.68
668.077	1233.73
668.268	1217.35
668.459	1151.81
668.651	1319.75
668.842	1266.5
669.033	1190.72
669.224	1219.39
669.416	1284.93
669.607	1151.81
669.798	1119.04
669.989	1123.14
670.18	1157.96
670.371	1076.04
670.563	1149.76
670.754	1198.92
670.945	1160
671.136	1106.76
671.327	1108.8
671.518	1082.18
671.709	1196.87
671.9	1162.05
672.091	1098.56
672.282	1147.72
672.473	1045.32
672.664	1106.76
672.855	1114.95
673.046	1045.32
673.237	1082.18
673.428	1088.32
673.619	1104.71
673.809	1043.27
674	1037.13
674.191	1061.7
674.382	955.21
674.573	1065.8
674.764	1080.13
674.954	1037.13
675.145	1030.98
675.336	981.83
675.527	998.21
675.717	1006.41
675.908	961.35
676.099	990.02
676.289	1114.95
676.48	940.87
676.671	975.69
676.861	967.49
677.052	947.01
677.243	975.69
677.433	981.83
677.624	979.78
677.814	1043.27
678.005	904.01
678.195	1037.13
678.386	977.73
678.576	985.93
678.767	957.25
678.957	975.69
679.148	1053.51
679.338	963.4
679.529	979.78
679.719	947.01
679.909	971.59
680.1	994.12
680.29	891.72
680.481	938.82
680.671	1014.6
680.861	920.39
681.052	891.72
681.242	883.53
681.432	983.88
681.622	893.77
681.813	910.15
682.003	912.2
682.193	965.45
682.383	973.64
682.573	975.69
682.764	957.25
682.954	875.34
683.144	957.25
683.334	940.87
683.524	975.69
683.714	906.06
683.904	912.2
684.094	881.48
684.284	885.58
684.474	861
684.664	961.35
684.854	869.19
685.044	942.92
685.234	912.2
685.424	901.96
685.614	944.97
685.804	908.1
685.994	863.05
686.184	883.53
686.374	899.91
686.564	983.88
686.753	1010.5
686.943	942.92
687.133	987.97
687.323	981.83
687.513	867.14
687.702	910.15
687.892	854.86
688.082	977.73
688.272	938.82
688.461	832.33
688.651	897.86
688.841	873.29
689.03	920.39
689.22	895.82
689.41	887.62
689.599	904.01
689.789	922.44
689.979	832.33
690.168	856.9
690.358	914.25
690.547	830.28
690.737	926.54
690.926	791.37
691.116	852.81
691.305	891.72
691.495	904.01
691.684	901.96
691.874	895.82
692.063	791.37
692.252	824.14
692.442	916.3
692.631	883.53
692.82	883.53
693.01	805.71
693.199	863.05
693.388	824.14
693.578	852.81
693.767	774.99
693.956	867.14
694.146	811.85
694.335	916.3
694.524	832.33
694.713	822.09
694.902	846.66
695.092	826.18
695.281	832.33
695.47	764.75
695.659	781.13
695.848	807.75
696.037	820.04
696.226	817.99
696.415	832.33
696.604	760.65
696.793	787.27
696.982	744.27
697.171	809.8
697.36	697.16
697.549	826.18
697.738	783.18
697.927	809.8
698.116	768.84
698.305	748.36
698.494	861
698.683	791.37
698.872	766.79
699.061	826.18
699.25	832.33
699.438	779.08
699.627	799.56
699.816	756.55
700.005	844.62
700.193	748.36
700.382	750.41
700.571	744.27
700.76	789.32
700.948	774.99
701.137	740.17
701.326	791.37
701.514	717.64
701.703	754.51
701.892	774.99
702.08	840.52
702.269	781.13
702.457	768.84
702.646	719.69
702.834	729.93
703.023	709.45
703.212	703.31
703.4	715.59
703.589	789.32
703.777	699.21
703.965	766.79
704.154	811.85
704.342	715.59
704.531	639.82
704.719	721.74
704.907	772.94
705.096	727.88
705.284	701.26
705.472	693.07
705.661	854.86
705.849	721.74
706.037	762.7
706.226	750.41
706.414	699.21
706.602	770.89
706.79	717.64
706.979	725.83
707.167	678.73
707.355	719.69
707.543	799.56
707.731	693.07
707.919	750.41
708.107	785.23
708.296	727.88
708.484	627.53
708.672	654.16
708.86	758.6
709.048	731.98
709.236	750.41
709.424	678.73
709.612	688.97
709.8	709.45
709.988	631.63
710.176	625.48
710.364	754.51
710.551	684.87
710.739	680.78
710.927	707.4
711.115	774.99
711.303	766.79
711.491	701.26
711.679	668.49
711.866	629.58
712.054	680.78
712.242	650.06
712.43	600.91
712.617	633.68
712.805	688.97
712.993	586.57
713.181	650.06
713.368	713.55
713.556	643.92
713.744	621.39
713.931	676.68
714.119	697.16
714.306	721.74
714.494	672.59
714.682	637.77
714.869	562
715.057	641.87
715.244	594.76
715.432	744.27
715.619	582.48
715.807	605
715.994	623.44
716.182	621.39
716.369	566.09
716.556	650.06
716.744	643.92
716.931	617.29
717.119	654.16
717.306	676.68
717.493	605
717.681	670.54
717.868	629.58
718.055	598.86
718.242	553.8
718.43	578.38
718.617	613.2
718.804	625.48
718.991	682.83
719.179	615.24
719.366	691.02
719.553	590.67
719.74	637.77
719.927	619.34
720.114	584.52
720.301	637.77
720.488	695.11
720.676	666.44
720.863	639.82
721.05	670.54
721.237	623.44
721.424	707.4
721.611	619.34
721.798	652.11
721.985	570.19
722.172	557.9
722.358	623.44
722.545	551.76
722.732	512.85
722.919	629.58
723.106	496.46
723.293	635.72
723.48	584.52
723.667	633.68
723.853	590.67
724.04	514.89
724.227	605
724.414	551.76
724.6	631.63
724.787	559.95
724.974	582.48
725.161	648.01
725.347	639.82
725.534	623.44
725.72	629.58
725.907	559.95
726.094	658.25
726.28	578.38
726.467	596.81
726.653	541.52
726.84	639.82
727.027	639.82
727.213	523.09
727.4	621.39
727.586	568.14
727.773	596.81
727.959	672.59
728.145	557.9
728.332	549.71
728.518	596.81
728.705	602.96
728.891	570.19
729.077	518.99
729.264	514.89
729.45	551.76
729.636	635.72
729.823	590.67
730.009	592.72
730.195	596.81
730.382	545.61
730.568	582.48
730.754	539.47
730.94	570.19
731.126	533.33
731.313	607.05
731.499	557.9
731.685	559.95
731.871	527.18
732.057	547.66
732.243	566.09
732.429	512.85
732.615	600.91
732.801	521.04
732.987	619.34
733.173	590.67
733.359	500.56
733.545	592.72
733.731	531.28
733.917	514.89
734.103	580.43
734.289	504.65
734.475	521.04
734.661	478.03
734.847	535.37
735.033	506.7
735.219	576.33
735.404	502.61
735.59	514.89
735.776	496.46
735.962	539.47
736.148	492.37
736.333	607.05
736.519	570.19
736.705	531.28
736.89	564.04
737.076	457.55
737.262	613.2
737.447	557.9
737.633	596.81
737.819	611.15
738.004	506.7
738.19	504.65
738.375	502.61
738.561	590.67
738.747	598.86
738.932	494.41
739.118	535.37
739.303	510.8
739.489	600.91
739.674	516.94
739.859	566.09
740.045	572.24
740.23	525.13
740.416	496.46
740.601	551.76
740.786	488.27
740.972	492.37
741.157	482.13
741.342	570.19
741.528	496.46
741.713	562
741.898	553.8
742.084	553.8
742.269	562
742.454	504.65
742.639	500.56
742.824	537.42
743.01	535.37
743.195	459.6
743.38	523.09
743.565	564.04
743.75	455.5
743.935	457.55
744.12	553.8
744.305	445.26
744.49	523.09
744.675	461.65
744.86	527.18
745.045	521.04
745.23	490.32
745.415	594.76
745.6	529.23
745.785	539.47
745.97	447.31
746.155	488.27
746.34	469.84
746.525	439.12
746.71	553.8
746.895	461.65
747.079	502.61
747.264	467.79
747.449	467.79
747.634	533.33
747.819	480.08
748.003	437.07
748.188	498.51
748.373	463.69
748.557	457.55
748.742	471.89
748.927	430.93
749.111	451.41
749.296	480.08
749.481	471.89
749.665	492.37
749.85	496.46
750.034	498.51
750.219	430.93
750.404	408.4
750.588	441.17
750.773	439.12
750.957	398.16
751.141	437.07
751.326	455.5
751.51	408.4
751.695	402.26
751.879	379.73
752.064	377.68
752.248	418.64
752.432	443.21
752.617	402.26
752.801	324.43
752.985	363.34
753.17	445.26
753.354	353.1
753.538	426.83
753.722	457.55
753.907	344.91
754.091	385.87
754.275	375.63
754.459	351.06
754.643	379.73
754.828	498.51
755.012	357.2
755.196	371.54
755.38	324.43
755.564	330.58
755.748	365.39
755.932	406.35
756.116	310.1
756.3	389.97
756.484	306
756.668	377.68
756.852	353.1
757.036	324.43
757.22	373.58
757.404	375.63
757.588	324.43
757.772	291.66
757.956	344.91
758.14	320.34
758.323	435.02
758.507	303.95
758.691	254.8
758.875	244.56
759.059	410.45
759.242	324.43
759.426	295.76
759.61	338.77
759.794	371.54
759.977	322.38
760.161	351.06
760.345	322.38
760.528	424.78
760.712	420.69
760.895	324.43
761.079	303.95
761.263	361.3
761.446	396.11
761.63	240.47
761.813	355.15
761.997	308.05
762.18	299.86
762.364	318.29
762.547	273.23
762.731	224.08
762.914	308.05
763.098	285.52
763.281	387.92
763.464	267.09
763.648	277.33
763.831	275.28
764.015	271.19
764.198	283.47
764.381	224.08
764.564	252.75
764.748	275.28
764.931	314.19
765.114	244.56
765.297	258.9
765.481	215.89
765.664	236.37
765.847	295.76
766.03	260.95
766.213	213.84
766.397	230.23
766.58	279.38
766.763	310.1
766.946	185.17
767.129	185.17
767.312	222.03
767.495	242.51
767.678	287.57
767.861	248.66
768.044	291.66
768.227	279.38
768.41	258.9
768.593	293.71
768.776	303.95
768.959	285.52
769.142	238.42
769.324	236.37
769.507	265.04
769.69	209.75
769.873	242.51
770.056	269.14
770.239	279.38
770.421	230.23
770.604	234.32
770.787	185.17
770.97	236.37
771.152	236.37
771.335	267.09
771.518	275.28
771.7	293.71
771.883	299.86
772.066	250.71
772.248	287.57
772.431	129.88
772.613	275.28
772.796	201.55
772.978	269.14
773.161	258.9
773.343	234.32
773.526	209.75
773.708	193.36
773.891	199.51
774.073	236.37
774.256	226.13
774.438	252.75
774.621	295.76
774.803	205.65
774.985	148.31
775.168	222.03
775.35	213.84
775.532	213.84
775.715	209.75
775.897	252.75
776.079	164.69
776.261	172.88
776.444	174.93
776.626	168.79
776.808	215.89
776.99	213.84
777.173	142.16
777.355	168.79
777.537	213.84
777.719	222.03
777.901	242.51
778.083	209.75
778.265	181.07
778.447	176.98
778.629	199.51
778.811	160.59
778.993	211.79
779.175	189.27
779.357	244.56
779.539	199.51
779.721	176.98
779.903	113.49
780.085	99.16
780.267	166.74
780.449	127.83
780.631	115.54
780.812	203.6
780.994	131.92
781.176	160.59
781.358	164.69
781.54	140.12
781.721	170.83
781.903	158.55
782.085	140.12
782.267	164.69
782.448	234.32
782.63	113.49
782.812	189.27
782.993	209.75
783.175	156.5
783.357	156.5
783.538	138.07
783.72	170.83
783.901	160.59
784.083	181.07
784.264	222.03
784.446	203.6
784.627	109.4
784.809	86.87
784.99	113.49
785.172	76.63
785.353	209.75
785.535	125.78
785.716	140.12
785.897	146.26
786.079	140.12
786.26	234.32
786.441	129.88
786.623	82.77
786.804	47.96
786.985	148.31
787.167	219.99
787.348	90.96
787.529	133.97
787.71	103.25
787.891	123.73
788.073	45.91
788.254	52.05
788.435	88.92
788.616	176.98
788.797	123.73
788.978	131.92
789.159	138.07
789.34	86.87
789.522	95.06
789.703	93.01
789.884	58.2
790.065	117.59
790.246	127.83
790.427	78.68
790.607	176.98
790.788	129.88
790.969	158.55
791.15	140.12
791.331	93.01
791.512	136.02
791.693	64.34
791.874	82.77
792.054	80.72
792.235	181.07
792.416	80.72
792.597	66.39
792.778	152.4
792.958	19.29
793.139	56.15
793.32	95.06
793.5	146.26
793.681	103.25
793.862	95.06
794.042	119.64
794.223	21.33
794.404	131.92
794.584	101.2
794.765	103.25
794.945	138.07
795.126	105.3
795.306	164.69
795.487	115.54
795.667	78.68
795.848	115.54
796.028	129.88
796.209	66.39
796.389	88.92
796.57	88.92
796.75	93.01
796.93	45.91
797.111	78.68
797.291	109.4
797.471	80.72
797.652	54.1
797.832	76.63
798.012	80.72
798.192	146.26
798.373	23.38
798.553	97.11
798.733	90.96
798.913	39.76
799.093	50
799.274	95.06
799.454	-31.91
799.634	35.67
799.814	47.96
799.994	43.86
800.174	82.77
800.354	90.96
800.534	62.29
800.714	142.16
800.894	172.88
801.074	-15.53
801.254	131.92
801.434	88.92
801.614	76.63
801.794	64.34
801.974	265.04
802.154	41.81
802.334	97.11
802.514	43.86
802.693	68.44
802.873	121.68
803.053	103.25
803.233	84.82
803.413	64.34
803.592	-25.77
803.772	-42.15
803.952	127.83
804.131	-17.58
804.311	78.68
804.491	64.34
804.67	-11.43
804.85	82.77
805.03	54.1
805.209	52.05
805.389	86.87
805.568	-21.67
805.748	80.72
805.928	78.68
806.107	101.2
806.287	41.81
806.466	95.06
806.646	72.53
806.825	66.39
807.004	17.24
807.184	66.39
807.363	105.3
807.543	-7.34
807.722	121.68
807.901	29.52
808.081	21.33
808.26	64.34
808.439	74.58
808.619	47.96
808.798	47.96
808.977	60.24
809.156	45.91
809.336	15.19
809.515	88.92
809.694	80.72
809.873	95.06
810.052	43.86
810.231	60.24
810.411	7
810.59	66.39
810.769	23.38
810.948	80.72
811.127	50
811.306	101.2
811.485	29.52
811.664	62.29
811.843	33.62
812.022	78.68
812.201	-7.34
812.38	62.29
812.559	64.34
812.737	-23.72
812.916	31.57
813.095	11.09
813.274	41.81
813.453	-5.29
813.632	119.64
813.811	82.77
813.989	31.57
814.168	60.24
814.347	-11.43
814.526	80.72
814.704	66.39
814.883	27.48
815.062	33.62
815.24	68.44
815.419	27.48
815.598	76.63
815.776	9.05
815.955	54.1
816.133	52.05
816.312	60.24
816.49	17.24
816.669	47.96
816.847	80.72
817.026	131.92
817.204	17.24
817.383	45.91
817.561	84.82
817.74	13.14
817.918	90.96
818.097	21.33
818.275	62.29
818.453	2.9
818.632	76.63
818.81	86.87
818.988	76.63
819.167	33.62
819.345	33.62
819.523	-42.15
819.701	31.57
819.879	27.48
820.058	4.95
820.236	-9.39
820.414	2.9
820.592	78.68
820.77	43.86
820.948	37.72
821.127	37.72
821.305	19.29
821.483	43.86
821.661	50
821.839	11.09
822.017	21.33
822.195	56.15
822.373	13.14
822.551	-42.15
822.729	-27.82
822.907	21.33
823.085	0.85
823.262	17.24
823.44	45.91
823.618	7
823.796	25.43
823.974	54.1
824.152	-3.24
824.329	7
824.507	31.57
824.685	62.29
824.863	7
825.04	-21.67
825.218	9.05
825.396	52.05
825.574	39.76
825.751	7
825.929	62.29
826.107	39.76
826.284	-15.53
826.462	-11.43
826.639	0.85
826.817	47.96
826.994	27.48
827.172	50
827.349	97.11
827.527	29.52
827.704	56.15
827.882	0.85
828.059	-17.58
828.237	31.57
828.414	29.52
828.591	21.33
828.769	62.29
828.946	2.9
829.124	56.15
829.301	56.15
829.478	4.95
829.655	-17.58
829.833	4.95
830.01	7
830.187	50
830.364	70.48
830.542	-38.06
830.719	101.2
830.896	4.95
831.073	21.33
831.25	56.15
831.427	62.29
831.604	29.52
831.782	35.67
831.959	78.68
832.136	54.1
832.313	7
832.49	-46.25
832.667	39.76
832.844	-5.29
833.021	41.81
833.198	58.2
833.374	62.29
833.551	21.33
833.728	23.38
833.905	-23.72
834.082	58.2
834.259	-19.63
834.436	31.57
834.612	-27.82
834.789	37.72
834.966	35.67
835.143	43.86
835.319	52.05
835.496	41.81
835.673	-19.63
835.85	103.25
836.026	52.05
836.203	29.52
836.38	41.81
836.556	-9.39
836.733	-17.58
836.909	58.2
837.086	-23.72
837.262	4.95
837.439	13.14
837.616	2.9
837.792	58.2
837.968	0.85
838.145	50
838.321	37.72
838.498	70.48
838.674	-7.34
838.851	50
839.027	95.06
839.203	31.57
839.38	21.33
839.556	4.95
839.732	7
839.909	15.19
840.085	-11.43
840.261	84.82
840.437	33.62
840.614	-25.77
840.79	7
840.966	7
841.142	41.81
841.318	29.52
841.494	-46.25
841.671	25.43
841.847	45.91
842.023	37.72
842.199	-36.01
842.375	-15.53
842.551	29.52
842.727	78.68
842.903	45.91
843.079	15.19
843.255	90.96
843.431	-36.01
843.607	4.95
843.783	-17.58
843.959	-33.96
844.134	43.86
844.31	-66.73
844.486	68.44
844.662	68.44
844.838	62.29
845.013	17.24
845.189	7
845.365	33.62
845.541	60.24
845.716	-13.48
845.892	-13.48
846.068	-1.19
846.244	-54.44
846.419	-17.58
846.595	-15.53
846.77	-15.53
846.946	-48.3
847.122	7
847.297	-9.39
847.473	129.88
847.648	13.14
847.824	15.19
847.999	-81.07
848.175	27.48
848.35	2.9
848.526	54.1
848.701	-23.72
848.876	4.95
849.052	-1.19
849.227	52.05
849.403	-19.63
849.578	107.35
849.753	-9.39
849.929	29.52
850.104	-81.07
850.279	-13.48
850.454	13.14
850.63	68.44
850.805	19.29
850.98	-64.68
851.155	54.1
851.33	47.96
851.505	39.76
851.681	37.72
851.856	-3.24
852.031	50
852.206	-3.24
852.381	-21.67
852.556	25.43
852.731	-17.58
852.906	2.9
853.081	4.95
853.256	-1.19
853.431	52.05
853.606	-36.01
853.781	2.9
853.956	68.44
854.131	13.14
854.305	7
854.48	35.67
854.655	-15.53
854.83	50
855.005	25.43
855.18	37.72
855.354	50
855.529	68.44
855.704	-66.73
855.879	54.1
856.053	2.9
856.228	74.58
856.403	-66.73
856.577	39.76
856.752	-40.11
856.926	25.43
857.101	107.35
857.276	60.24
857.45	62.29
857.625	70.48
857.799	-44.2
857.974	7
858.148	31.57
858.323	-36.01
858.497	25.43
858.672	2.9
858.846	-36.01
859.02	66.39
859.195	58.2
859.369	7
859.543	21.33
859.718	21.33
859.892	27.48
860.066	58.2
860.241	31.57
860.415	43.86
860.589	-7.34
860.763	54.1
860.938	7
861.112	-42.15
861.286	54.1
861.46	11.09
861.634	25.43
861.808	-25.77
861.982	9.05
862.157	13.14
862.331	-27.82
862.505	13.14
862.679	0.85
862.853	45.91
863.027	-13.48
863.201	29.52
863.375	-36.01
863.549	4.95
863.722	93.01
863.896	23.38
864.07	-52.39
864.244	62.29
864.418	66.39
864.592	54.1
864.766	-38.06
864.939	-3.24
865.113	21.33
865.287	29.52
865.461	37.72
865.634	-3.24
865.808	-60.59
865.982	4.95
866.156	54.1
866.329	50
866.503	62.29
866.676	-23.72
866.85	29.52
867.024	-42.15
867.197	-109.74
867.371	60.24
867.544	0.85
867.718	15.19
867.891	62.29
868.065	0.85
868.238	39.76
868.412	88.92
868.585	-50.35
868.759	7
868.932	23.38
869.105	78.68
869.279	31.57
869.452	136.02
869.625	4.95
869.799	64.34
869.972	-11.43
870.145	-58.54
870.319	-31.91
870.492	-11.43
870.665	19.29
870.838	-31.91
871.011	-31.91
871.185	-25.77
871.358	-52.39
871.531	-70.83
871.704	-33.96
871.877	-7.34
872.05	2.9
872.223	-11.43
872.396	58.2
872.569	-1.19
872.742	47.96
872.915	-13.48
873.088	80.72
873.261	88.92
873.434	-15.53
873.607	29.52
873.78	31.57
873.953	70.48
874.126	7
874.299	29.52
874.471	13.14
874.644	11.09
874.817	-5.29
874.99	95.06
875.163	-62.63
875.335	39.76
875.508	78.68
875.681	7
875.853	-7.34
876.026	-15.53
876.199	2.9
876.371	-15.53
876.544	-7.34
876.717	41.81
876.889	43.86
877.062	41.81
877.234	-21.67
877.407	23.38
877.579	37.72
877.752	-11.43
877.924	56.15
878.097	17.24
878.269	-29.87
878.442	9.05
878.614	-68.78
878.786	47.96
878.959	13.14
879.131	-74.92
879.303	11.09
879.476	-64.68
879.648	31.57
879.82	50
879.993	9.05
880.165	-29.87
880.337	-1.19
880.509	27.48
880.681	-33.96
880.854	-42.15
881.026	11.09
881.198	45.91
881.37	7
881.542	25.43
881.714	31.57
881.886	-31.91
882.058	-15.53
882.23	-23.72
882.402	0.85
882.574	29.52
882.746	-9.39
882.918	-3.24
883.09	29.52
883.262	-25.77
883.434	19.29
883.606	29.52
883.778	41.81
883.95	-1.19
884.122	-15.53
884.293	37.72
884.465	0.85
884.637	56.15
884.809	0.85
884.98	47.96
885.152	58.2
885.324	13.14
885.496	23.38
885.667	-31.91
885.839	-7.34
886.011	76.63
886.182	47.96
886.354	33.62
886.525	90.96
886.697	-7.34
886.869	2.9
887.04	-23.72
887.212	-21.67
887.383	-9.39
887.555	-11.43
887.726	-44.2
887.897	-54.44
888.069	31.57
888.24	66.39
888.412	82.77
888.583	50
888.754	19.29
888.926	-21.67
889.097	0.85
889.268	35.67
889.44	-5.29
889.611	-7.34
889.782	-42.15
889.953	23.38
890.125	0.85
890.296	19.29
890.467	11.09
890.638	25.43
890.809	72.53
890.98	-36.01
891.151	-19.63
891.323	52.05
891.494	4.95
891.665	-38.06
891.836	9.05
892.007	-13.48
892.178	97.11
892.349	13.14
892.52	13.14
892.691	-3.24
892.862	56.15
893.032	-38.06
893.203	33.62
893.374	45.91
893.545	-13.48
893.716	-62.63
893.887	54.1
894.057	7
894.228	-40.11
894.399	33.62
894.57	19.29
894.74	-19.63
894.911	-29.87
895.082	29.52
895.253	-19.63
895.423	-31.91
895.594	9.05
895.764	-19.63
895.935	-13.48
896.106	-33.96
896.276	-64.68
896.447	68.44
896.617	82.77
896.788	-11.43
896.958	54.1
897.129	-25.77
897.299	2.9
897.47	29.52
897.64	23.38
897.81	-23.72
897.981	39.76
898.151	11.09
898.322	47.96
898.492	-17.58
898.662	-3.24
898.832	-42.15
899.003	41.81
899.173	17.24
899.343	-5.29
899.513	-29.87
