Data from USB4F104151__47__12-53-54-794.txt Node

Date: Fri Mar 14 12:53:54 EDT 2025
User: louis
Spectrometer: USB4F10415
Trigger mode: 4
Integration Time (sec): 1.000000E-2
Scans to average: 1
Electric dark correction enabled: true
Nonlinearity correction enabled: false
Boxcar width: 0
XAxis mode: Wavelengths
Number of Pixels in Spectrum: 3648
>>>>>Begin Spectral Data<<<<<
178.204	-190.12
178.424	-190.12
178.644	-190.12
178.864	0.34
179.084	26.96
179.304	-32.43
179.524	18.77
179.744	0.34
179.964	-1.71
180.184	88.4
180.404	-38.57
180.624	6.49
180.844	24.92
181.064	-50.86
181.283	-52.91
181.503	-26.28
181.723	63.83
181.943	-48.81
182.163	74.07
182.383	4.44
182.602	43.35
182.822	-1.71
183.042	6.49
183.262	-40.62
183.482	-26.28
183.701	35.16
183.921	-5.8
184.141	16.73
184.361	-22.19
184.58	-20.14
184.8	29.01
185.02	-52.91
185.239	51.54
185.459	4.44
185.679	43.35
185.898	35.16
186.118	72.02
186.338	39.25
186.557	4.44
186.777	0.34
186.997	-48.81
187.216	-16.04
187.436	26.96
187.655	65.88
187.875	65.88
188.095	-22.19
188.314	74.07
188.534	12.63
188.753	37.2
188.973	29.01
189.192	80.21
189.412	-22.19
189.631	47.44
189.851	-28.33
190.07	51.54
190.29	-5.8
190.509	57.68
190.729	-30.38
190.948	-13.99
191.168	39.25
191.387	76.12
191.607	-1.71
191.826	20.82
192.045	-42.67
192.265	6.49
192.484	26.96
192.704	-26.28
192.923	-52.91
193.142	47.44
193.362	16.73
193.581	33.11
193.8	24.92
194.02	76.12
194.239	33.11
194.458	-11.95
194.678	22.87
194.897	-7.85
195.116	0.34
195.335	2.39
195.555	-26.28
195.774	-34.47
195.993	57.68
196.212	-18.09
196.432	6.49
196.651	43.35
196.87	-24.23
197.089	51.54
197.308	49.49
197.528	49.49
197.747	-106.15
197.966	16.73
198.185	41.3
198.404	18.77
198.623	14.68
198.842	-40.62
199.062	49.49
199.281	22.87
199.5	-32.43
199.719	16.73
199.938	74.07
200.157	14.68
200.376	-9.9
200.595	14.68
200.814	-22.19
201.033	-50.86
201.252	-3.75
201.471	8.53
201.69	24.92
201.909	-32.43
202.128	-38.57
202.347	0.34
202.566	45.4
202.785	-11.95
203.004	-32.43
203.223	14.68
203.442	37.2
203.661	8.53
203.879	-16.04
204.098	33.11
204.317	-5.8
204.536	29.01
204.755	-1.71
204.974	29.01
205.193	20.82
205.411	59.73
205.63	-5.8
205.849	20.82
206.068	22.87
206.287	-50.86
206.505	14.68
206.724	18.77
206.943	26.96
207.162	10.58
207.381	-1.71
207.599	-40.62
207.818	22.87
208.037	31.06
208.255	24.92
208.474	49.49
208.693	31.06
208.911	20.82
209.13	29.01
209.349	35.16
209.567	-7.85
209.786	63.83
210.005	49.49
210.223	-9.9
210.442	92.5
210.661	0.34
210.879	26.96
211.098	-73.39
211.316	51.54
211.535	67.92
211.753	22.87
211.972	-73.39
212.191	16.73
212.409	69.97
212.628	20.82
212.846	-24.23
213.065	45.4
213.283	33.11
213.502	4.44
213.72	-11.95
213.938	-20.14
214.157	14.68
214.375	24.92
214.594	51.54
214.812	12.63
215.031	47.44
215.249	4.44
215.467	26.96
215.686	-18.09
215.904	61.78
216.122	-36.52
216.341	33.11
216.559	41.3
216.778	84.31
216.996	59.73
217.214	69.97
217.432	6.49
217.651	-22.19
217.869	-28.33
218.087	41.3
218.306	18.77
218.524	10.58
218.742	22.87
218.96	-28.33
219.179	-22.19
219.397	92.5
219.615	-32.43
219.833	49.49
220.051	59.73
220.27	-3.75
220.488	14.68
220.706	-9.9
220.924	-24.23
221.142	20.82
221.36	20.82
221.578	65.88
221.796	29.01
222.015	22.87
222.233	4.44
222.451	-73.39
222.669	12.63
222.887	43.35
223.105	-5.8
223.323	-1.71
223.541	37.2
223.759	-36.52
223.977	-67.24
224.195	6.49
224.413	26.96
224.631	45.4
224.849	16.73
225.067	33.11
225.285	4.44
225.503	16.73
225.721	0.34
225.939	20.82
226.157	-5.8
226.375	63.83
226.592	-7.85
226.81	72.02
227.028	0.34
227.246	31.06
227.464	-18.09
227.682	-69.29
227.9	29.01
228.117	-16.04
228.335	26.96
228.553	10.58
228.771	24.92
228.989	33.11
229.206	57.68
229.424	-3.75
229.642	74.07
229.86	-46.76
230.077	47.44
230.295	67.92
230.513	55.64
230.731	-13.99
230.948	-50.86
231.166	29.01
231.384	35.16
231.601	47.44
231.819	-7.85
232.037	31.06
232.254	65.88
232.472	2.39
232.689	43.35
232.907	16.73
233.125	-3.75
233.342	41.3
233.56	24.92
233.777	8.53
233.995	-77.48
234.213	-42.67
234.43	-1.71
234.648	22.87
234.865	35.16
235.083	-36.52
235.3	29.01
235.518	35.16
235.735	61.78
235.953	82.26
236.17	22.87
236.388	20.82
236.605	-46.76
236.822	-28.33
237.04	-3.75
237.257	22.87
237.475	-26.28
237.692	-13.99
237.909	39.25
238.127	-20.14
238.344	-5.8
238.562	22.87
238.779	10.58
238.996	-52.91
239.214	12.63
239.431	18.77
239.648	-9.9
239.865	31.06
240.083	57.68
240.3	-46.76
240.517	45.4
240.735	16.73
240.952	0.34
241.169	61.78
241.386	-1.71
241.603	-11.95
241.821	-26.28
242.038	37.2
242.255	-32.43
242.472	8.53
242.689	37.2
242.907	24.92
243.124	-13.99
243.341	51.54
243.558	22.87
243.775	-83.63
243.992	-22.19
244.209	74.07
244.426	49.49
244.643	8.53
244.86	-18.09
245.078	33.11
245.295	-18.09
245.512	31.06
245.729	12.63
245.946	-26.28
246.163	16.73
246.38	86.36
246.597	6.49
246.814	-18.09
247.031	20.82
247.248	41.3
247.464	43.35
247.681	16.73
247.898	-46.76
248.115	49.49
248.332	-9.9
248.549	47.44
248.766	-7.85
248.983	39.25
249.2	-38.57
249.417	39.25
249.633	-38.57
249.85	88.4
250.067	6.49
250.284	-44.71
250.501	-30.38
250.717	10.58
250.934	-22.19
251.151	35.16
251.368	-73.39
251.585	45.4
251.801	-13.99
252.018	20.82
252.235	-22.19
252.451	-61.1
252.668	53.59
252.885	-9.9
253.102	-63.15
253.318	41.3
253.535	-24.23
253.752	33.11
253.968	31.06
254.185	-30.38
254.401	29.01
254.618	55.64
254.835	-24.23
255.051	37.2
255.268	63.83
255.484	20.82
255.701	26.96
255.917	-28.33
256.134	12.63
256.351	-9.9
256.567	-44.71
256.784	22.87
257	-13.99
257.217	31.06
257.433	-67.24
257.65	76.12
257.866	-16.04
258.082	-48.81
258.299	-1.71
258.515	-28.33
258.732	22.87
258.948	18.77
259.165	10.58
259.381	2.39
259.597	-18.09
259.814	74.07
260.03	53.59
260.246	-11.95
260.463	-28.33
260.679	65.88
260.895	14.68
261.112	-16.04
261.328	-1.71
261.544	78.16
261.761	57.68
261.977	29.01
262.193	18.77
262.409	43.35
262.626	-5.8
262.842	41.3
263.058	16.73
263.274	0.34
263.49	16.73
263.707	-22.19
263.923	26.96
264.139	24.92
264.355	18.77
264.571	-5.8
264.787	0.34
265.004	61.78
265.22	41.3
265.436	78.16
265.652	6.49
265.868	14.68
266.084	29.01
266.3	-5.8
266.516	24.92
266.732	-3.75
266.948	31.06
267.164	92.5
267.38	-18.09
267.596	37.2
267.812	6.49
268.028	59.73
268.244	-26.28
268.46	-3.75
268.676	6.49
268.892	45.4
269.108	4.44
269.324	-24.23
269.54	35.16
269.756	84.31
269.972	-24.23
270.188	35.16
270.403	26.96
270.619	41.3
270.835	-22.19
271.051	-1.71
271.267	-13.99
271.483	82.26
271.698	-5.8
271.914	-9.9
272.13	45.4
272.346	12.63
272.562	-26.28
272.777	-9.9
272.993	18.77
273.209	31.06
273.425	49.49
273.64	-44.71
273.856	47.44
274.072	-1.71
274.287	-16.04
274.503	-16.04
274.719	-20.14
274.934	-3.75
275.15	43.35
275.366	-61.1
275.581	-3.75
275.797	49.49
276.012	4.44
276.228	6.49
276.444	-65.19
276.659	-16.04
276.875	16.73
277.09	55.64
277.306	6.49
277.521	-46.76
277.737	33.11
277.952	35.16
278.168	24.92
278.383	35.16
278.599	-13.99
278.814	4.44
279.03	-13.99
279.245	61.78
279.461	20.82
279.676	53.59
279.892	6.49
280.107	-34.47
280.322	53.59
280.538	74.07
280.753	-48.81
280.969	31.06
281.184	14.68
281.399	67.92
281.615	-5.8
281.83	16.73
282.045	-28.33
282.26	8.53
282.476	-5.8
282.691	14.68
282.906	20.82
283.122	47.44
283.337	94.55
283.552	-32.43
283.767	-36.52
283.983	-1.71
284.198	4.44
284.413	20.82
284.628	39.25
284.843	12.63
285.058	59.73
285.274	20.82
285.489	-1.71
285.704	4.44
285.919	24.92
286.134	18.77
286.349	-32.43
286.564	-26.28
286.779	39.25
286.995	61.78
287.21	4.44
287.425	-1.71
287.64	-30.38
287.855	-3.75
288.07	-3.75
288.285	-16.04
288.5	12.63
288.715	88.4
288.93	-42.67
289.145	-7.85
289.36	74.07
289.575	69.97
289.79	6.49
290.004	43.35
290.219	20.82
290.434	-22.19
290.649	-42.67
290.864	-46.76
291.079	-16.04
291.294	43.35
291.509	31.06
291.724	-1.71
291.938	-34.47
292.153	47.44
292.368	-54.95
292.583	22.87
292.798	18.77
293.012	74.07
293.227	-9.9
293.442	39.25
293.657	16.73
293.871	47.44
294.086	14.68
294.301	31.06
294.516	37.2
294.73	41.3
294.945	90.45
295.16	96.6
295.374	20.82
295.589	29.01
295.804	-18.09
296.018	-36.52
296.233	14.68
296.447	49.49
296.662	-95.91
296.877	-7.85
297.091	-34.47
297.306	10.58
297.52	49.49
297.735	-18.09
297.949	55.64
298.164	39.25
298.378	22.87
298.593	37.2
298.807	-30.38
299.022	-9.9
299.236	-1.71
299.451	6.49
299.665	-32.43
299.88	33.11
300.094	-30.38
300.309	41.3
300.523	55.64
300.737	-9.9
300.952	20.82
301.166	45.4
301.381	39.25
301.595	80.21
301.809	-20.14
302.024	-11.95
302.238	45.4
302.452	8.53
302.667	22.87
302.881	41.3
303.095	72.02
303.309	-22.19
303.524	35.16
303.738	65.88
303.952	-40.62
304.166	-1.71
304.381	-18.09
304.595	-24.23
304.809	6.49
305.023	-46.76
305.237	-16.04
305.452	35.16
305.666	-52.91
305.88	12.63
306.094	-34.47
306.308	14.68
306.522	20.82
306.736	31.06
306.95	33.11
307.164	-20.14
307.379	26.96
307.593	-9.9
307.807	-52.91
308.021	24.92
308.235	0.34
308.449	-36.52
308.663	14.68
308.877	61.78
309.091	-11.95
309.305	0.34
309.519	47.44
309.733	-7.85
309.947	-9.9
310.161	24.92
310.374	-7.85
310.588	37.2
310.802	31.06
311.016	-5.8
311.23	-65.19
311.444	22.87
311.658	-26.28
311.872	-7.85
312.085	65.88
312.299	-22.19
312.513	49.49
312.727	41.3
312.941	-13.99
313.154	22.87
313.368	-9.9
313.582	53.59
313.796	2.39
314.009	-3.75
314.223	104.79
314.437	-5.8
314.651	-1.71
314.864	82.26
315.078	-20.14
315.292	-22.19
315.505	26.96
315.719	-36.52
315.933	-67.24
316.146	80.21
316.36	49.49
316.573	65.88
316.787	49.49
317.001	61.78
317.214	-22.19
317.428	59.73
317.641	-40.62
317.855	-11.95
318.068	53.59
318.282	53.59
318.495	12.63
318.709	33.11
318.922	4.44
319.136	10.58
319.349	22.87
319.563	-13.99
319.776	31.06
319.99	22.87
320.203	-11.95
320.417	14.68
320.63	-36.52
320.843	41.3
321.057	12.63
321.27	18.77
321.483	-3.75
321.697	121.17
321.91	-32.43
322.124	10.58
322.337	31.06
322.55	20.82
322.763	53.59
322.977	47.44
323.19	33.11
323.403	65.88
323.617	35.16
323.83	-13.99
324.043	6.49
324.256	72.02
324.469	-79.53
324.683	67.92
324.896	67.92
325.109	61.78
325.322	-104.11
325.535	16.73
325.748	45.4
325.962	-7.85
326.175	121.17
326.388	-1.71
326.601	-20.14
326.814	43.35
327.027	22.87
327.24	-3.75
327.453	-28.33
327.666	88.4
327.879	55.64
328.092	45.4
328.305	-59.05
328.518	45.4
328.731	-7.85
328.944	-52.91
329.157	16.73
329.37	-34.47
329.583	4.44
329.796	26.96
330.009	0.34
330.222	43.35
330.435	-79.53
330.648	20.82
330.861	59.73
331.073	4.44
331.286	59.73
331.499	-24.23
331.712	51.54
331.925	-18.09
332.138	59.73
332.35	-3.75
332.563	4.44
332.776	-42.67
332.989	51.54
333.202	31.06
333.414	49.49
333.627	53.59
333.84	39.25
334.053	24.92
334.265	-11.95
334.478	24.92
334.691	-71.34
334.903	6.49
335.116	-36.52
335.329	24.92
335.541	51.54
335.754	57.68
335.966	14.68
336.179	14.68
336.392	-26.28
336.604	2.39
336.817	-30.38
337.029	80.21
337.242	12.63
337.454	31.06
337.667	72.02
337.88	4.44
338.092	22.87
338.305	4.44
338.517	16.73
338.729	26.96
338.942	-22.19
339.154	16.73
339.367	-59.05
339.579	82.26
339.792	-40.62
340.004	22.87
340.217	37.2
340.429	-32.43
340.641	-28.33
340.854	31.06
341.066	-24.23
341.278	-18.09
341.491	0.34
341.703	10.58
341.915	12.63
342.128	33.11
342.34	-26.28
342.552	49.49
342.764	59.73
342.977	-30.38
343.189	16.73
343.401	-16.04
343.613	33.11
343.826	-16.04
344.038	-1.71
344.25	57.68
344.462	10.58
344.674	65.88
344.886	8.53
345.099	88.4
345.311	20.82
345.523	-38.57
345.735	14.68
345.947	4.44
346.159	69.97
346.371	8.53
346.583	-16.04
346.795	8.53
347.007	10.58
347.219	26.96
347.431	22.87
347.643	49.49
347.855	2.39
348.067	31.06
348.279	80.21
348.491	-34.47
348.703	-24.23
348.915	-5.8
349.127	-13.99
349.339	0.34
349.551	-16.04
349.763	-67.24
349.975	33.11
350.187	22.87
350.399	14.68
350.61	47.44
350.822	59.73
351.034	80.21
351.246	-20.14
351.458	8.53
351.669	84.31
351.881	14.68
352.093	45.4
352.305	-24.23
352.517	33.11
352.728	-13.99
352.94	26.96
353.152	10.58
353.363	-48.81
353.575	20.82
353.787	33.11
353.999	55.64
354.21	14.68
354.422	-52.91
354.633	39.25
354.845	57.68
355.057	0.34
355.268	-7.85
355.48	18.77
355.692	-1.71
355.903	-79.53
356.115	4.44
356.326	18.77
356.538	-5.8
356.749	72.02
356.961	78.16
357.172	84.31
357.384	29.01
357.595	-30.38
357.807	14.68
358.018	-1.71
358.23	-1.71
358.441	-18.09
358.653	94.55
358.864	22.87
359.075	90.45
359.287	4.44
359.498	16.73
359.709	45.4
359.921	-22.19
360.132	-20.14
360.344	41.3
360.555	-34.47
360.766	94.55
360.977	24.92
361.189	-20.14
361.4	-13.99
361.611	-28.33
361.823	35.16
362.034	22.87
362.245	-42.67
362.456	72.02
362.667	20.82
362.879	24.92
363.09	41.3
363.301	53.59
363.512	-11.95
363.723	22.87
363.935	-3.75
364.146	4.44
364.357	16.73
364.568	-1.71
364.779	-54.95
364.99	-22.19
365.201	-9.9
365.412	-16.04
365.623	-24.23
365.834	4.44
366.045	14.68
366.256	41.3
366.467	0.34
366.678	53.59
366.889	-26.28
367.1	-26.28
367.311	57.68
367.522	37.2
367.733	43.35
367.944	65.88
368.155	-71.34
368.366	-1.71
368.577	39.25
368.788	0.34
368.999	-63.15
369.209	31.06
369.42	-28.33
369.631	78.16
369.842	55.64
370.053	51.54
370.264	14.68
370.474	-16.04
370.685	-1.71
370.896	18.77
371.107	-13.99
371.317	24.92
371.528	10.58
371.739	8.53
371.95	31.06
372.16	-7.85
372.371	-24.23
372.582	96.6
372.792	6.49
373.003	-7.85
373.214	92.5
373.424	76.12
373.635	-38.57
373.846	-20.14
374.056	43.35
374.267	55.64
374.477	37.2
374.688	0.34
374.898	39.25
375.109	35.16
375.319	-20.14
375.53	29.01
375.74	-57
375.951	41.3
376.161	10.58
376.372	4.44
376.582	78.16
376.793	-5.8
377.003	-7.85
377.214	37.2
377.424	-5.8
377.635	31.06
377.845	31.06
378.055	-24.23
378.266	-3.75
378.476	72.02
378.686	16.73
378.897	0.34
379.107	-34.47
379.317	-36.52
379.528	26.96
379.738	55.64
379.948	33.11
380.158	-18.09
380.369	80.21
380.579	69.97
380.789	0.34
380.999	26.96
381.21	14.68
381.42	-3.75
381.63	45.4
381.84	-7.85
382.05	22.87
382.261	45.4
382.471	55.64
382.681	24.92
382.891	-13.99
383.101	84.31
383.311	0.34
383.521	59.73
383.731	26.96
383.941	33.11
384.151	-3.75
384.361	-11.95
384.571	-24.23
384.781	22.87
384.991	10.58
385.201	6.49
385.411	-1.71
385.621	39.25
385.831	4.44
386.041	31.06
386.251	53.59
386.461	35.16
386.671	-24.23
386.881	8.53
387.091	49.49
387.301	31.06
387.511	-3.75
387.72	-7.85
387.93	-9.9
388.14	-44.71
388.35	63.83
388.56	80.21
388.769	29.01
388.979	35.16
389.189	-30.38
389.399	84.31
389.609	-42.67
389.818	-11.95
390.028	22.87
390.238	-1.71
390.447	2.39
390.657	37.2
390.867	16.73
391.076	20.82
391.286	12.63
391.496	59.73
391.705	-11.95
391.915	59.73
392.125	-87.72
392.334	41.3
392.544	39.25
392.753	-9.9
392.963	51.54
393.172	-38.57
393.382	53.59
393.591	41.3
393.801	-3.75
394.01	57.68
394.22	41.3
394.429	65.88
394.639	-13.99
394.848	43.35
395.058	90.45
395.267	26.96
395.477	59.73
395.686	20.82
395.895	57.68
396.105	65.88
396.314	67.92
396.524	8.53
396.733	39.25
396.942	-20.14
397.152	-11.95
397.361	12.63
397.57	2.39
397.78	10.58
397.989	0.34
398.198	49.49
398.407	4.44
398.617	6.49
398.826	45.4
399.035	-7.85
399.244	94.55
399.453	33.11
399.663	31.06
399.872	20.82
400.081	35.16
400.29	35.16
400.499	-11.95
400.708	-1.71
400.917	-36.52
401.127	45.4
401.336	49.49
401.545	29.01
401.754	53.59
401.963	12.63
402.172	24.92
402.381	45.4
402.59	-7.85
402.799	63.83
403.008	47.44
403.217	4.44
403.426	47.44
403.635	76.12
403.844	10.58
404.053	59.73
404.262	16.73
404.471	-26.28
404.68	35.16
404.888	39.25
405.097	76.12
405.306	26.96
405.515	96.6
405.724	82.26
405.933	-5.8
406.142	67.92
406.35	67.92
406.559	90.45
406.768	39.25
406.977	51.54
407.185	29.01
407.394	86.36
407.603	110.93
407.812	55.64
408.02	41.3
408.229	82.26
408.438	125.27
408.646	-3.75
408.855	10.58
409.064	69.97
409.272	76.12
409.481	90.45
409.69	6.49
409.898	90.45
410.107	49.49
410.315	-3.75
410.524	98.64
410.733	123.22
410.941	8.53
411.15	88.4
411.358	16.73
411.567	137.56
411.775	82.26
411.984	86.36
412.192	104.79
412.401	33.11
412.609	131.41
412.818	88.4
413.026	45.4
413.234	112.98
413.443	147.8
413.651	133.46
413.86	117.08
414.068	106.84
414.276	100.69
414.485	121.17
414.693	72.02
414.901	170.32
415.11	96.6
415.318	63.83
415.526	123.22
415.734	198.99
415.943	155.99
416.151	176.47
416.359	178.51
416.567	139.6
416.776	123.22
416.984	158.03
417.192	211.28
417.4	166.23
417.608	176.47
417.817	223.57
418.025	237.91
418.233	239.95
418.441	209.23
418.649	203.09
418.857	239.95
419.065	258.39
419.273	108.88
419.481	219.47
419.689	325.97
419.897	305.49
420.105	225.62
420.313	315.73
420.521	223.57
420.729	332.11
420.937	278.87
421.145	360.78
421.353	373.07
421.561	336.21
421.769	352.59
421.977	362.83
422.185	362.83
422.393	399.7
422.601	454.99
422.809	395.6
423.017	379.22
423.224	416.08
423.432	473.42
423.64	465.23
423.848	477.52
424.056	461.13
424.263	590.16
424.471	543.05
424.679	567.63
424.887	604.49
425.094	579.92
425.302	647.5
425.51	655.69
425.718	598.35
425.925	575.82
426.133	667.98
426.341	700.75
426.548	629.07
426.756	696.65
426.964	598.35
427.171	706.89
427.379	727.37
427.586	821.58
427.794	854.34
428.001	844.1
428.209	874.82
428.417	911.69
428.624	944.45
428.832	926.02
429.039	868.68
429.247	864.58
429.454	1069.38
429.662	1136.96
429.869	1030.47
430.076	1048.9
430.284	1122.63
430.491	1093.96
430.699	1136.96
430.906	1177.92
431.114	1210.69
431.321	1190.21
431.528	1288.51
431.736	1239.36
431.943	1390.91
432.15	1311.04
432.358	1392.96
432.565	1481.02
432.772	1419.58
432.979	1548.61
433.187	1460.54
433.394	1554.75
433.601	1747.26
433.808	1704.25
434.016	1702.2
434.223	1663.29
434.43	1804.6
434.637	1777.98
434.844	1849.66
435.052	1870.14
435.259	1927.48
435.466	1935.67
435.673	1995.06
435.88	2029.88
436.087	2148.66
436.294	2214.2
436.501	2185.52
436.708	2181.43
436.915	2222.39
437.122	2337.07
437.329	2277.68
437.537	2316.59
437.743	2464.05
437.95	2314.55
438.157	2615.6
438.364	2720.04
438.571	2541.87
438.778	2588.97
438.985	2859.31
439.192	2806.06
439.399	2881.83
439.606	2799.91
439.813	2992.42
440.02	3129.64
440.227	3105.06
440.433	3060.01
440.64	3160.36
440.847	3053.86
441.054	3248.42
441.261	3500.32
441.467	3387.68
441.674	3524.9
441.881	3500.32
442.088	3627.29
442.294	3551.52
442.501	3569.95
442.708	3725.6
442.914	3819.8
443.121	4030.74
443.328	3932.44
443.534	4172.05
443.741	3987.74
443.948	4090.13
444.154	4415.76
444.361	4335.89
444.568	4192.53
444.774	4337.94
444.981	4346.13
445.187	4626.7
445.394	4733.2
445.6	4518.16
445.807	5097.74
446.013	4966.67
446.22	4878.6
446.426	5085.45
446.633	5245.19
446.839	5245.19
447.046	5064.97
447.252	5370.12
447.459	5423.36
447.665	5345.54
447.871	5634.3
448.078	5914.88
448.284	5771.52
448.491	5748.99
448.697	5890.3
448.903	6254.84
449.11	6138.1
449.316	6045.95
449.522	6189.3
449.728	6336.76
449.935	6336.76
450.141	6342.9
450.347	6461.68
450.553	6347
450.76	6269.17
450.966	6652.14
451.172	6637.81
451.378	6779.12
451.584	6486.26
451.791	6809.84
451.997	6725.87
452.203	6727.92
452.409	7010.54
452.615	6830.32
452.821	6699.25
453.027	6555.89
453.233	6842.6
453.44	6689.01
453.646	6648.05
453.852	6809.84
454.058	6897.9
454.264	6723.82
454.47	6838.51
454.676	6680.82
454.882	7014.63
455.088	6203.64
455.294	6480.11
455.5	6633.71
455.705	6512.88
455.911	6428.92
456.117	6115.58
456.323	6252.79
456.529	5890.3
456.735	6041.85
456.941	5724.41
457.147	5910.78
457.352	5732.61
457.558	5497.09
457.764	5603.58
457.97	5470.47
458.176	5406.98
458.381	5409.03
458.587	5026.06
458.793	4970.76
458.999	4868.36
459.204	5325.06
459.41	5267.72
459.616	4815.12
459.821	4751.63
460.027	4774.16
460.233	4704.53
460.438	4487.44
460.644	4440.34
460.85	4290.84
461.055	4307.22
461.261	4210.97
461.466	3954.97
461.672	3903.77
461.878	4067.61
462.083	3615.01
462.289	3901.72
462.494	3760.41
462.7	3651.87
462.905	3430.69
463.111	3655.97
463.316	3621.15
463.522	3578.14
463.727	3621.15
463.932	3543.33
464.138	3596.57
464.343	3574.05
464.549	3533.09
464.754	3688.73
464.959	3621.15
465.165	3584.29
465.37	3340.58
465.575	3305.76
465.781	3539.23
465.986	3496.22
466.191	3395.87
466.397	3328.29
466.602	3092.77
466.807	3414.31
467.012	3375.39
467.218	3236.13
467.423	3234.08
467.628	3227.94
467.833	3371.3
468.038	3170.6
468.244	3211.56
468.449	3338.53
468.654	3223.84
468.859	3137.83
469.064	3148.07
469.269	3060.01
469.474	2953.51
469.679	3021.1
469.885	2976.04
470.09	3053.86
470.295	3062.05
470.5	3031.34
470.705	2978.09
470.91	3004.71
471.115	2750.76
471.32	2861.35
471.525	2953.51
471.73	2851.11
471.935	2806.06
472.139	2654.51
472.344	2701.61
472.549	2732.33
472.754	2713.9
472.959	2775.34
473.164	2720.04
473.369	2464.05
473.574	2638.13
473.778	2584.88
473.983	2638.13
474.188	2525.49
474.393	2470.19
474.598	2515.25
474.802	2511.15
475.007	2439.47
475.212	2392.37
475.417	2287.92
475.621	2230.58
475.826	2431.28
476.031	2339.12
476.235	2308.4
476.44	2326.83
476.645	2279.73
476.849	2320.69
477.054	2222.39
477.259	2187.57
477.463	2163
477.668	2201.91
477.872	2148.66
478.077	2054.45
478.282	2046.26
478.486	2132.28
478.691	2033.97
478.895	2027.83
479.1	2132.28
479.304	2097.46
479.509	2072.89
479.713	1988.92
479.918	1933.62
480.122	1831.23
480.326	1882.42
480.531	2009.4
480.735	1917.24
480.94	1861.94
481.144	2009.4
481.348	1798.46
481.553	1919.29
481.757	1812.79
481.961	1911.1
482.166	1915.19
482.37	1898.81
482.574	1866.04
482.778	1853.75
482.983	1907
483.187	1857.85
483.391	1894.71
483.595	1900.86
483.8	1923.38
484.004	2007.35
484.208	1872.18
484.412	1890.62
484.616	1868.09
484.821	1861.94
485.025	1909.05
485.229	1933.62
485.433	1853.75
485.637	1880.38
485.841	1882.42
486.045	1845.56
486.249	1863.99
486.453	1913.14
486.657	1868.09
486.861	2027.83
487.065	1960.25
487.269	1907
487.473	1896.76
487.677	1878.33
487.881	2115.89
488.085	1945.91
488.289	1894.71
488.493	2015.54
488.697	2033.97
488.901	2007.35
489.105	1993.01
489.309	2072.89
489.512	2081.08
489.716	1986.87
489.92	2038.07
490.124	1997.11
490.328	1978.68
490.531	1911.1
490.735	2158.9
490.939	2122.04
491.143	2060.6
491.346	2156.85
491.55	2195.76
491.754	2113.85
491.958	2165.04
492.161	2169.14
492.365	2134.32
492.569	2216.24
492.772	2277.68
492.976	2253.11
493.18	2353.46
493.383	2265.39
493.587	2306.35
493.79	2289.97
493.994	2347.31
494.197	2345.27
494.401	2349.36
494.605	2257.2
494.808	2408.75
495.012	2603.31
495.215	2502.96
495.419	2406.7
495.622	2402.61
495.825	2591.02
496.029	2513.2
496.232	2711.85
496.436	2552.11
496.639	2660.65
496.843	2750.76
497.046	2824.49
497.249	2699.56
497.453	2873.64
497.656	2634.03
497.859	2881.83
498.063	2808.11
498.266	2949.42
498.469	2959.66
498.673	3012.9
498.876	3008.81
499.079	3029.29
499.282	3219.75
499.485	3264.8
499.689	3211.56
499.892	3193.12
500.095	3244.32
500.298	3369.25
500.501	3365.15
500.705	3596.57
500.908	3569.95
501.111	3520.8
501.314	3625.25
501.517	3717.4
501.72	3799.32
501.923	3688.73
502.126	3682.59
502.329	3961.11
502.532	3873.05
502.735	3948.83
502.938	4002.07
503.141	4163.86
503.344	4137.24
503.547	4213.01
503.75	4229.4
503.953	4229.4
504.156	4344.08
504.359	4376.85
504.562	4454.67
504.765	4616.46
504.968	4618.51
505.17	4704.53
505.373	4540.69
505.576	4761.87
505.779	4888.84
505.982	4927.75
506.185	5007.62
506.387	5048.58
506.59	5015.82
506.793	5153.03
506.996	5347.59
507.198	5368.07
507.401	5224.71
507.604	5460.23
507.807	5423.36
508.009	5646.59
508.212	5802.24
508.415	5839.1
508.617	5900.54
508.82	5826.81
509.022	5906.68
509.225	6000.89
509.428	6025.47
509.63	6125.82
509.833	6172.92
510.035	6400.24
510.238	6494.45
510.44	6312.18
510.643	6488.31
510.845	6646
511.048	6875.37
511.25	6856.94
511.453	6830.32
511.655	6914.28
511.858	7053.55
512.06	7074.03
512.262	7225.58
512.465	7317.73
512.667	7393.51
512.87	7540.96
513.072	7399.65
513.274	7727.33
513.477	7837.92
513.679	7995.61
513.881	8022.23
514.084	7925.98
514.286	8087.77
514.488	8128.73
514.69	8390.87
514.893	8534.23
515.095	8374.49
515.297	8564.95
515.499	8859.85
515.701	8564.95
515.904	8698.06
516.106	9103.56
516.308	9025.74
516.51	9175.24
516.712	9238.73
516.914	9423.05
517.116	9547.97
517.318	9527.49
517.52	9607.36
517.722	9701.57
517.925	9820.35
518.127	9887.93
518.329	9849.02
518.531	9740.48
518.733	10299.58
518.935	10098.88
519.136	10289.34
519.338	10510.52
519.54	10518.71
519.742	10719.41
519.944	10625.2
520.146	10897.58
520.348	10907.82
520.55	10940.59
520.752	11059.37
520.954	11276.46
521.155	11305.13
521.357	11288.75
521.559	11520.17
521.761	11661.48
521.963	11638.95
522.164	11761.83
522.366	11778.21
522.568	11870.37
522.77	11970.72
522.971	12290.2
523.173	12155.04
523.375	12118.17
523.576	12224.67
523.778	12437.66
523.98	12505.24
524.181	12785.81
524.383	12722.32
524.584	12912.78
524.786	12923.02
524.988	12847.25
525.189	13013.13
525.391	13150.35
525.592	13322.38
525.794	13148.3
525.995	13432.97
526.197	13287.56
526.398	13273.23
526.6	13600.9
526.801	13797.51
527.003	13746.31
527.204	13703.3
527.406	13734.02
527.607	13830.27
527.808	13973.63
528.01	13740.16
528.211	13834.37
528.412	14391.42
528.614	14311.55
528.815	14123.13
529.016	14444.66
529.218	14252.16
529.419	14266.49
529.62	14413.95
529.822	14565.5
530.023	14418.04
530.224	14661.75
530.425	14614.65
530.626	14536.82
530.828	14397.56
531.029	14710.9
531.23	14436.47
531.431	14538.87
531.632	14766.2
531.833	14723.19
532.035	14688.37
532.236	14850.16
532.437	14948.47
532.638	14811.25
532.839	15102.06
533.04	14907.51
533.241	15054.96
533.442	15321.2
533.643	15237.23
533.844	15059.06
534.045	15292.52
534.246	14909.55
534.447	15014
534.648	15380.59
534.849	15282.28
535.05	14991.47
535.251	15237.23
535.451	15456.36
535.652	15341.68
535.853	15253.61
536.054	15261.8
536.255	15100.01
536.456	15349.87
536.657	15620.2
536.857	15257.71
537.058	15485.03
537.259	15706.21
537.46	15622.25
537.66	15659.11
537.861	15511.66
538.062	15583.34
538.263	15685.73
538.463	15356.01
538.664	15474.79
538.865	15497.32
539.065	15652.97
539.266	15517.8
539.466	15843.43
539.667	15571.05
539.868	15796.32
540.068	15575.14
540.269	15843.43
540.469	15800.42
540.67	15587.43
540.87	15775.84
541.071	15595.62
541.271	15816.8
541.472	15671.4
541.672	15528.04
541.873	15528.04
542.073	15523.94
542.274	15941.73
542.474	15822.95
542.675	15755.36
542.875	16025.7
543.075	15999.07
543.276	15908.96
543.476	16021.6
543.676	15724.65
543.877	15853.67
544.077	16134.24
544.277	15626.34
544.478	15888.48
544.678	16167.01
544.878	15829.09
545.078	15923.3
545.279	15786.08
545.479	15888.48
545.679	16140.38
545.879	15894.63
546.079	16009.31
546.28	15939.68
546.48	15640.68
546.68	16117.86
546.88	16113.76
547.08	16285.79
547.28	15779.94
547.48	15853.67
547.68	16244.83
547.88	15712.36
548.081	16228.45
548.281	16185.44
548.481	15884.39
548.681	16136.29
548.881	16382.04
549.081	16109.66
549.28	15906.91
549.48	15960.16
549.68	15978.59
549.88	16296.03
550.08	15677.54
550.28	16048.22
550.48	15978.59
550.68	16293.98
550.88	16089.18
551.08	16052.32
551.279	16175.2
551.479	15888.48
551.679	16103.52
551.879	15994.98
552.079	16418.91
552.278	16033.89
552.478	16177.25
552.678	16224.35
552.878	16201.82
553.077	16154.72
553.277	15941.73
553.477	16115.81
553.676	15792.23
553.876	15974.5
554.076	15937.63
554.275	16025.7
554.475	16035.94
554.674	16062.56
554.874	16037.98
555.074	16109.66
555.273	16017.5
555.473	16037.98
555.672	16001.12
555.872	16293.98
556.071	16095.33
556.271	16056.42
556.47	16185.44
556.67	15915.11
556.869	16242.78
557.068	16240.73
557.268	16195.68
557.467	16066.66
557.667	16357.47
557.866	16027.74
558.065	16021.6
558.265	15892.58
558.464	15835.24
558.663	15929.44
558.863	16058.46
559.062	16011.36
559.261	16003.17
559.461	16021.6
559.66	15825
559.859	15958.11
560.058	15857.76
560.258	16074.85
560.457	15923.3
560.656	15947.87
560.855	15626.34
561.054	15951.97
561.253	15831.14
561.453	15956.07
561.652	15982.69
561.851	16052.32
562.05	15925.35
562.249	15818.85
562.448	15937.63
562.647	15726.69
562.846	15984.74
563.045	15896.67
563.244	15587.43
563.443	15947.87
563.642	15777.89
563.841	15831.14
564.04	15775.84
564.239	15872.1
564.438	15595.62
564.637	15808.61
564.836	16183.39
565.035	15816.8
565.234	15851.62
565.432	15763.56
565.631	15870.05
565.83	15816.8
566.029	15874.15
566.228	15831.14
566.427	15706.21
566.625	15880.29
566.824	15552.62
567.023	15880.29
567.222	15411.31
567.42	15386.73
567.619	15933.54
567.818	15536.23
568.016	15720.55
568.215	15691.88
568.414	15370.35
568.612	15636.58
568.811	15564.9
569.01	15712.36
569.208	15206.51
569.407	15597.67
569.605	15302.76
569.804	15468.65
570.002	15298.67
570.201	15603.82
570.4	15417.45
570.598	15433.83
570.797	15218.8
570.995	15300.72
571.193	15349.87
571.392	15394.92
571.59	15356.01
571.789	15313
571.987	15401.07
572.186	15165.55
572.384	15202.41
572.582	15235.18
572.781	15276.14
572.979	15134.83
573.177	15054.96
573.376	15048.82
573.574	14921.84
573.772	15132.78
573.971	15046.77
574.169	14942.32
574.367	15032.43
574.565	15167.6
574.763	14833.78
574.962	14860.4
575.16	14829.68
575.358	15140.97
575.556	14823.54
575.754	14844.02
575.952	14798.96
576.151	14743.67
576.349	14598.26
576.547	14671.99
576.745	14762.1
576.943	14520.44
577.141	14495.86
577.339	14727.28
577.537	14637.17
577.735	14610.55
577.933	14442.62
578.131	14350.46
578.329	14381.18
578.527	14422.14
578.725	14307.45
578.923	14440.57
579.121	14504.06
579.319	14346.36
579.516	14409.85
579.714	14338.17
579.912	14268.54
580.11	14188.67
580.308	14585.97
580.506	14112.89
580.704	14137.47
580.901	14180.48
581.099	13944.96
581.297	13981.82
581.495	13877.38
581.692	14203
581.89	13973.63
582.088	13959.3
582.285	14071.93
582.483	13990.02
582.681	13842.56
582.878	14028.93
583.076	13785.22
583.274	13805.7
583.471	13518.98
583.669	13478.02
583.866	13461.64
584.064	13600.9
584.262	13574.28
584.459	13666.44
584.657	13574.28
584.854	13435.02
585.052	13461.64
585.249	13478.02
585.447	13459.59
585.644	13445.26
585.841	13420.68
586.039	13228.17
586.236	13076.62
586.434	13355.15
586.631	13322.38
586.828	13326.47
587.026	13191.31
587.223	13084.81
587.42	13271.18
587.618	13195.4
587.815	12976.27
588.012	12927.12
588.21	12966.03
588.407	13011.09
588.604	12845.2
588.801	12664.98
588.999	13129.87
589.196	12804.24
589.393	12929.17
589.59	12644.5
589.787	12443.8
589.984	12490.9
590.182	12626.07
590.379	12707.99
590.576	12558.49
590.773	12392.6
590.97	12451.99
591.167	12570.77
591.364	12363.93
591.561	12478.61
591.758	12421.27
591.955	12376.22
592.152	12458.14
592.349	12419.22
592.546	12234.91
592.743	12245.15
592.94	11974.81
593.137	12185.76
593.334	12417.18
593.531	11999.39
593.727	12179.61
593.924	12054.69
594.121	11917.47
594.318	12329.11
594.515	11759.78
594.712	12069.02
594.908	11841.7
595.105	11942.05
595.302	12011.68
595.499	11831.46
595.696	11806.88
595.892	11772.07
596.089	12083.36
596.286	11585.7
596.482	11626.66
596.679	11655.33
596.876	11479.21
597.072	11530.41
597.269	11563.17
597.466	11534.5
597.662	11454.63
597.859	11473.06
598.055	11278.51
598.252	11352.23
598.448	11423.91
598.645	11468.97
598.841	11264.17
599.038	11264.17
599.234	11266.22
599.431	11120.81
599.627	11172.01
599.824	11131.05
600.02	11073.71
600.217	10997.93
600.413	10848.43
600.609	10893.49
600.806	10707.12
601.002	10789.04
601.198	11024.56
601.395	10932.4
601.591	10752.18
601.787	10791.09
601.984	10688.69
602.18	10737.84
602.376	10492.09
602.572	10758.32
602.769	10743.99
602.965	10735.79
603.161	10547.38
603.357	10692.79
603.553	10381.49
603.75	10520.76
603.946	10344.63
604.142	10408.12
604.338	10270.9
604.534	10219.71
604.73	10242.23
604.926	10080.44
605.122	10223.8
605.318	10318.01
605.514	10143.93
605.71	9959.61
605.906	10098.88
606.102	10098.88
606.298	10004.67
606.494	10047.68
606.69	10254.52
606.886	10039.48
607.082	10039.48
607.278	9924.8
607.474	9728.19
607.67	9941.18
607.866	9554.12
608.062	9865.41
608.257	9810.11
608.453	9889.98
608.649	9687.23
608.845	9640.13
609.041	9797.82
609.236	9746.62
609.432	9808.06
609.628	9582.79
609.824	9588.93
610.019	9590.98
610.215	9771.2
610.411	9820.35
610.606	9474.24
610.802	9558.21
610.998	9484.48
611.193	9554.12
611.389	9453.77
611.584	9232.58
611.78	9394.37
611.976	9390.28
612.171	9611.46
612.367	9296.07
612.562	9263.3
612.758	9136.33
612.953	9003.21
613.149	9363.65
613.344	9066.7
613.539	9285.83
613.735	9259.21
613.93	9332.93
614.126	9121.99
614.321	9208.01
614.517	9189.58
614.712	9136.33
614.907	9107.66
615.103	9171.15
615.298	9009.36
615.493	9222.34
615.688	9005.26
615.884	9136.33
616.079	8984.78
616.274	9126.09
616.47	8698.06
616.665	8882.38
616.86	8855.76
617.055	9003.21
617.25	8802.51
617.445	8798.42
617.641	8722.64
617.836	8681.68
618.031	8573.14
618.226	8794.32
618.421	8425.68
618.616	8777.94
618.811	8509.65
619.006	8775.89
619.201	8470.74
619.396	8671.44
619.591	8349.91
619.786	8562.9
619.981	8263.9
620.176	8456.4
620.371	8298.71
620.566	8403.16
620.761	8343.77
620.956	8245.46
621.151	8032.47
621.346	8259.8
621.541	7991.52
621.735	8134.87
621.93	8007.9
622.125	8050.91
622.32	8134.87
622.515	7989.47
622.709	8020.19
622.904	7749.86
623.099	7766.24
623.294	7874.78
623.488	7592.16
623.683	7739.62
623.878	7649.5
624.072	7874.78
624.267	7684.32
624.462	7633.12
624.656	7543.01
624.851	7450.85
625.046	7272.68
625.24	7319.78
625.435	7348.45
625.629	7553.25
625.824	7176.42
626.018	7280.87
626.213	7100.65
626.407	7176.42
626.602	6858.99
626.796	7076.07
626.991	7172.33
627.185	6988.01
627.38	6971.63
627.574	6830.32
627.768	6824.17
627.963	6951.15
628.157	6904.04
628.352	6822.13
628.546	6654.19
628.74	6703.34
628.935	6633.71
629.129	6596.85
629.323	6443.25
629.517	6693.1
629.712	6584.56
629.906	6484.21
630.1	6465.78
630.294	6476.02
630.489	6301.94
630.683	6347
630.877	6371.57
631.071	6197.49
631.265	6244.6
631.459	6273.27
631.653	6164.73
631.848	6185.21
632.042	6052.09
632.236	6217.97
632.43	6127.86
632.624	6160.63
632.818	6002.94
633.012	5904.64
633.206	5884.16
633.4	6228.21
633.594	5744.89
633.788	5898.49
633.982	5738.75
634.176	5773.57
634.369	5818.62
634.563	5880.06
634.757	5865.72
634.951	5705.98
635.145	5716.22
635.339	5716.22
635.533	5568.77
635.726	5744.89
635.92	5638.4
636.114	5536
636.308	5605.63
636.501	5349.64
636.695	5435.65
636.889	5384.45
637.083	5400.83
637.276	5423.36
637.47	5329.16
637.664	5081.35
637.857	5421.31
638.051	5177.61
638.244	5159.17
638.438	5173.51
638.632	5273.86
638.825	5103.88
639.019	5331.2
639.212	5124.36
639.406	5148.93
639.599	5112.07
639.793	5224.71
639.986	4933.9
640.18	4933.9
640.373	4862.22
640.567	4847.88
640.76	4948.23
640.954	4817.16
641.147	4716.81
641.34	4870.41
641.534	4696.33
641.727	4692.24
641.92	4761.87
642.114	4663.57
642.307	4753.68
642.5	4747.53
642.694	4667.66
642.887	4565.26
643.08	4722.96
643.273	4559.12
643.467	4423.95
643.66	4479.25
643.853	4479.25
644.046	4294.93
644.239	4405.52
644.432	4370.71
644.626	4251.92
644.819	4313.36
645.012	4225.3
645.205	4309.27
645.398	4264.21
645.591	4339.99
645.784	4151.57
645.977	3967.26
646.17	3967.26
646.363	4090.13
646.556	3934.49
646.749	3963.16
646.942	4112.66
647.135	4149.53
647.328	4008.22
647.521	3993.88
647.714	3961.11
647.907	3979.54
648.099	4012.31
648.292	3987.74
648.485	3791.13
648.678	3711.26
648.871	3729.69
649.064	3793.18
649.256	3741.98
649.449	3842.33
649.642	3766.56
649.835	3694.88
650.027	3737.88
650.22	3666.21
650.413	3586.33
650.605	3604.77
650.798	3502.37
650.991	3449.12
651.183	3545.38
651.376	3602.72
651.568	3453.22
651.761	3404.07
651.954	3418.4
652.146	3461.41
652.339	3426.59
652.531	3324.19
652.724	3375.39
652.916	3199.27
653.109	3365.15
653.301	3291.43
653.494	3277.09
653.686	3275.04
653.879	3125.54
654.071	3221.8
654.263	3182.88
654.456	3217.7
654.648	3082.53
654.84	3203.36
655.033	3076.39
655.225	3008.81
655.417	3014.95
655.61	3031.34
655.802	3047.72
655.994	3053.86
656.186	2976.04
656.379	2994.47
656.571	2910.5
656.763	2980.14
656.955	2881.83
657.148	2851.11
657.34	2836.78
657.532	2820.39
657.724	2828.59
657.916	2769.2
658.108	2826.54
658.3	2840.87
658.492	2783.53
658.684	2689.32
658.876	2804.01
659.068	2595.12
659.26	2599.21
659.452	2650.41
659.644	2654.51
659.836	2570.54
660.028	2609.45
660.22	2564.4
660.412	2523.44
660.604	2529.58
660.796	2410.8
660.988	2611.5
661.18	2476.34
661.372	2402.61
661.563	2384.18
661.755	2402.61
661.947	2421.04
662.139	2355.51
662.331	2306.35
662.522	2298.16
662.714	2433.33
662.906	2273.59
663.097	2294.07
663.289	2275.63
663.481	2251.06
663.673	2185.52
663.864	2287.92
664.056	2064.69
664.247	2093.37
664.439	2142.52
664.631	2163
664.822	2058.55
665.014	2074.93
665.205	2056.5
665.397	1988.92
665.588	2107.7
665.78	2025.78
665.971	2001.21
666.163	1952.06
666.354	1933.62
666.546	1945.91
666.737	1880.38
666.929	1863.99
667.12	1941.82
667.311	1978.68
667.503	1792.31
667.694	1904.95
667.885	1902.9
668.077	1892.66
668.268	1892.66
668.459	1751.35
668.651	1845.56
668.842	1859.9
669.033	1798.46
669.224	1784.12
669.416	1802.55
669.607	1663.29
669.798	1720.64
669.989	1720.64
670.18	1734.97
670.371	1714.49
670.563	1710.4
670.754	1659.2
670.945	1720.64
671.136	1610.04
671.327	1632.57
671.518	1532.22
671.709	1569.09
671.9	1589.57
672.091	1569.09
672.282	1544.51
672.473	1605.95
672.664	1532.22
672.855	1558.85
673.046	1429.82
673.237	1532.22
673.428	1511.74
673.619	1450.3
673.809	1478.97
674	1505.6
674.191	1540.41
674.382	1423.68
674.573	1526.08
674.764	1524.03
674.954	1474.88
675.145	1489.21
675.336	1458.5
675.527	1341.76
675.717	1384.77
675.908	1399.1
676.099	1374.53
676.289	1458.5
676.48	1505.6
676.671	1292.61
676.861	1325.38
677.052	1382.72
677.243	1368.38
677.433	1319.23
677.624	1268.03
677.814	1261.89
678.005	1343.81
678.195	1435.97
678.386	1286.47
678.576	1356.1
678.767	1392.96
678.957	1339.71
679.148	1286.47
679.338	1335.62
679.529	1292.61
679.719	1186.12
679.909	1352
680.1	1343.81
680.29	1319.23
680.481	1360.19
680.671	1237.31
680.861	1263.94
681.052	1333.57
681.242	1286.47
681.432	1325.38
681.622	1270.08
681.813	1278.27
682.003	1329.47
682.193	1270.08
682.383	1272.13
682.573	1239.36
682.764	1171.78
682.954	1257.79
683.144	1204.55
683.334	1204.55
683.524	1255.75
683.714	1165.64
683.904	1188.16
684.094	1114.44
684.284	1325.38
684.474	1235.27
684.664	1196.36
684.854	1274.18
685.044	1186.12
685.234	1124.68
685.424	1206.59
685.614	1247.55
685.804	1225.03
685.994	1184.07
686.184	1268.03
686.374	1200.45
686.564	1208.64
686.753	1284.42
686.943	1153.35
687.133	1229.12
687.323	1089.86
687.513	1190.21
687.702	1274.18
687.892	1212.74
688.082	1188.16
688.272	1194.31
688.461	1184.07
688.651	1390.91
688.841	1161.54
689.03	1220.93
689.22	1186.12
689.41	1165.64
689.599	1220.93
689.789	1171.78
689.979	1268.03
690.168	1190.21
690.358	1212.74
690.547	1167.68
690.737	1225.03
690.926	1177.92
691.116	1182.02
691.305	1237.31
691.495	1173.83
691.684	1184.07
691.874	1202.5
692.063	1128.77
692.252	1225.03
692.442	1173.83
692.631	1222.98
692.82	1216.83
693.01	1276.23
693.199	1225.03
693.388	1171.78
693.578	1196.36
693.767	1159.49
693.956	1268.03
694.146	1212.74
694.335	1120.58
694.524	1165.64
694.713	1202.5
694.902	1278.27
695.092	1245.51
695.281	1153.35
695.47	1098.05
695.659	1190.21
695.848	1243.46
696.037	1173.83
696.226	1175.88
696.415	1130.82
696.604	1124.68
696.793	1134.92
696.982	1108.29
697.171	1169.73
697.36	1157.44
697.549	1110.34
697.738	1128.77
697.927	1247.55
698.116	1134.92
698.305	1251.65
698.494	1212.74
698.683	1132.87
698.872	1007.94
699.061	1100.1
699.25	1173.83
699.438	1114.44
699.627	1173.83
699.816	1053
700.005	1059.14
700.193	1143.11
700.382	1042.76
700.571	1036.61
700.76	1026.37
700.948	1188.16
701.137	1046.85
701.326	1048.9
701.514	1038.66
701.703	1014.09
701.892	1018.18
702.08	997.7
702.269	1071.43
702.457	1032.52
702.646	1030.47
702.834	1012.04
703.023	1016.13
703.212	1096
703.4	1012.04
703.589	983.37
703.777	975.17
703.965	991.56
704.154	1044.81
704.342	1053
704.531	1034.57
704.719	1141.06
704.907	907.59
705.096	1014.09
705.284	897.35
705.472	971.08
705.661	979.27
705.849	971.08
706.037	1016.13
706.226	936.26
706.414	1014.09
706.602	919.88
706.79	901.45
706.979	938.31
707.167	1012.04
707.355	977.22
707.543	946.5
707.731	997.7
707.919	897.35
708.107	907.59
708.296	872.78
708.484	923.98
708.672	940.36
708.86	950.6
709.048	874.82
709.236	926.02
709.424	831.82
709.612	835.91
709.8	862.54
709.988	932.17
710.176	907.59
710.364	827.72
710.551	815.43
710.739	782.67
710.927	831.82
711.115	846.15
711.303	874.82
711.491	819.53
711.679	817.48
711.866	794.95
712.054	860.49
712.242	792.91
712.43	827.72
712.617	801.1
712.805	807.24
712.993	772.43
713.181	817.48
713.368	803.15
713.556	743.75
713.744	842.06
713.931	772.43
714.119	717.13
714.306	778.57
714.494	684.36
714.682	778.57
714.869	770.38
715.057	772.43
715.244	762.19
715.432	766.28
715.619	674.12
715.807	749.9
715.994	741.71
716.182	805.19
716.369	723.27
716.556	657.74
716.744	758.09
716.931	665.93
717.119	647.5
717.306	657.74
717.493	737.61
717.681	717.13
717.868	735.56
718.055	696.65
718.242	717.13
718.43	602.44
718.617	688.46
718.804	631.12
718.991	647.5
719.179	702.79
719.366	651.6
719.553	506.19
719.74	690.51
719.927	657.74
720.114	655.69
720.301	624.97
720.488	635.21
720.676	610.64
720.863	713.03
721.05	596.3
721.237	631.12
721.424	575.82
721.611	764.23
721.798	577.87
721.985	543.05
722.172	555.34
722.358	549.2
722.545	569.68
722.732	571.72
722.919	612.68
723.106	624.97
723.293	563.53
723.48	565.58
723.667	624.97
723.853	524.62
724.04	639.31
724.227	555.34
724.414	549.2
724.6	608.59
724.787	571.72
724.974	567.63
725.161	571.72
725.347	510.29
725.534	604.49
725.72	514.38
725.907	508.24
726.094	549.2
726.28	616.78
726.467	500.05
726.653	547.15
726.84	530.77
727.027	551.24
727.213	524.62
727.4	522.57
727.586	532.81
727.773	416.08
727.959	500.05
728.145	454.99
728.332	520.53
728.518	485.71
728.705	473.42
728.891	446.8
729.077	491.85
729.264	424.27
729.45	471.37
729.636	518.48
729.823	428.37
730.009	420.17
730.195	512.33
730.382	477.52
730.568	524.62
730.754	454.99
730.94	424.27
731.126	465.23
731.313	459.09
731.499	397.65
731.685	409.94
731.871	401.74
732.057	440.65
732.243	434.51
732.429	469.33
732.615	469.33
732.801	446.8
732.987	405.84
733.173	416.08
733.359	477.52
733.545	397.65
733.731	409.94
733.917	424.27
734.103	440.65
734.289	448.85
734.475	399.7
734.661	473.42
734.847	399.7
735.033	395.6
735.219	457.04
735.404	395.6
735.59	403.79
735.776	442.7
735.962	420.17
736.148	444.75
736.333	368.98
736.519	328.02
736.705	336.21
736.89	336.21
737.076	334.16
737.262	342.35
737.447	352.59
737.633	379.22
737.819	407.89
738.004	426.32
738.19	313.68
738.375	418.13
738.561	362.83
738.747	368.98
738.932	420.17
739.118	371.02
739.303	377.17
739.489	321.87
739.674	285.01
739.859	381.26
740.045	385.36
740.23	301.39
740.416	325.97
740.601	338.26
740.786	256.34
740.972	381.26
741.157	328.02
741.342	459.09
741.528	270.67
741.713	414.03
741.898	278.87
742.084	305.49
742.269	305.49
742.454	305.49
742.639	293.2
742.824	274.77
743.01	342.35
743.195	414.03
743.38	348.5
743.565	311.63
743.75	293.2
743.935	344.4
744.12	385.36
744.305	295.25
744.49	299.34
744.675	321.87
744.86	334.16
745.045	305.49
745.23	295.25
745.415	282.96
745.6	266.58
745.785	301.39
745.97	239.95
746.155	299.34
746.34	344.4
746.525	237.91
746.71	217.43
746.895	203.09
747.079	321.87
747.264	297.3
747.449	248.15
747.634	295.25
747.819	219.47
748.003	262.48
748.188	244.05
748.373	268.63
748.557	205.14
748.742	332.11
748.927	295.25
749.111	239.95
749.296	262.48
749.481	278.87
749.665	227.67
749.85	278.87
750.034	268.63
750.219	280.91
750.404	248.15
750.588	325.97
750.773	285.01
750.957	248.15
751.141	264.53
751.326	297.3
751.51	248.15
751.695	180.56
751.879	252.24
752.064	268.63
752.248	287.06
752.432	248.15
752.617	196.95
752.801	205.14
752.985	217.43
753.17	162.13
753.354	221.52
753.538	252.24
753.722	219.47
753.907	223.57
754.091	115.03
754.275	139.6
754.459	164.18
754.643	223.57
754.828	192.85
755.012	233.81
755.196	139.6
755.38	207.19
755.564	235.86
755.748	213.33
755.932	239.95
756.116	182.61
756.3	158.03
756.484	186.71
756.668	180.56
756.852	215.38
757.036	176.47
757.22	176.47
757.404	106.84
757.588	198.99
757.772	248.15
757.956	178.51
758.14	227.67
758.323	196.95
758.507	153.94
758.691	90.45
758.875	211.28
759.059	213.33
759.242	174.42
759.426	225.62
759.61	239.95
759.794	137.56
759.977	217.43
760.161	153.94
760.345	201.04
760.528	207.19
760.712	252.24
760.895	201.04
761.079	186.71
761.263	203.09
761.446	137.56
761.63	217.43
761.813	170.32
761.997	172.37
762.18	145.75
762.364	198.99
762.547	176.47
762.731	229.71
762.914	184.66
763.098	125.27
763.281	102.74
763.464	192.85
763.648	176.47
763.831	143.7
764.015	141.65
764.198	115.03
764.381	129.36
764.564	252.24
764.748	176.47
764.931	196.95
765.114	184.66
765.297	131.41
765.481	137.56
765.664	172.37
765.847	207.19
766.03	145.75
766.213	196.95
766.397	166.23
766.58	155.99
766.763	67.92
766.946	43.35
767.129	254.29
767.312	90.45
767.495	250.19
767.678	153.94
767.861	194.9
768.044	92.5
768.227	223.57
768.41	139.6
768.593	153.94
768.776	196.95
768.959	137.56
769.142	108.88
769.324	170.32
769.507	182.61
769.69	153.94
769.873	151.89
770.056	192.85
770.239	47.44
770.421	213.33
770.604	125.27
770.787	137.56
770.97	110.93
771.152	188.75
771.335	207.19
771.518	186.71
771.7	137.56
771.883	153.94
772.066	192.85
772.248	92.5
772.431	115.03
772.613	149.84
772.796	98.64
772.978	190.8
773.161	90.45
773.343	143.7
773.526	90.45
773.708	192.85
773.891	78.16
774.073	51.54
774.256	203.09
774.438	119.12
774.621	184.66
774.803	129.36
774.985	135.51
775.168	188.75
775.35	104.79
775.532	125.27
775.715	76.12
775.897	194.9
776.079	125.27
776.261	106.84
776.444	53.59
776.626	178.51
776.808	84.31
776.99	162.13
777.173	129.36
777.355	166.23
777.537	139.6
777.719	137.56
777.901	86.36
778.083	65.88
778.265	147.8
778.447	164.18
778.629	129.36
778.811	166.23
778.993	121.17
779.175	123.22
779.357	178.51
779.539	153.94
779.721	108.88
779.903	92.5
780.085	145.75
780.267	196.95
780.449	88.4
780.631	102.74
780.812	155.99
780.994	110.93
781.176	80.21
781.358	82.26
781.54	106.84
781.721	88.4
781.903	158.03
782.085	100.69
782.267	96.6
782.448	119.12
782.63	22.87
782.812	72.02
782.993	110.93
783.175	63.83
783.357	117.08
783.538	123.22
783.72	45.4
783.901	65.88
784.083	41.3
784.264	121.17
784.446	41.3
784.627	108.88
784.809	78.16
784.99	72.02
785.172	72.02
785.353	65.88
785.535	131.41
785.716	92.5
785.897	-20.14
786.079	125.27
786.26	112.98
786.441	55.64
786.623	59.73
786.804	94.55
786.985	47.44
787.167	82.26
787.348	35.16
787.529	110.93
787.71	82.26
787.891	88.4
788.073	80.21
788.254	137.56
788.435	94.55
788.616	76.12
788.797	55.64
788.978	55.64
789.159	74.07
789.34	74.07
789.522	-7.85
789.703	74.07
789.884	63.83
790.065	102.74
790.246	88.4
790.427	43.35
790.607	98.64
790.788	121.17
790.969	67.92
791.15	90.45
791.331	82.26
791.512	18.77
791.693	-5.8
791.874	49.49
792.054	31.06
792.235	106.84
792.416	90.45
792.597	127.32
792.778	88.4
792.958	108.88
793.139	6.49
793.32	72.02
793.5	61.78
793.681	98.64
793.862	-5.8
794.042	49.49
794.223	4.44
794.404	162.13
794.584	63.83
794.765	88.4
794.945	61.78
795.126	53.59
795.306	67.92
795.487	63.83
795.667	133.46
795.848	92.5
796.028	43.35
796.209	82.26
796.389	45.4
796.57	82.26
796.75	63.83
796.93	80.21
797.111	0.34
797.291	24.92
797.471	102.74
797.652	47.44
797.832	96.6
798.012	106.84
798.192	33.11
798.373	0.34
798.553	20.82
798.733	41.3
798.913	-54.95
799.093	112.98
799.274	0.34
799.454	31.06
799.634	74.07
799.814	88.4
799.994	47.44
800.174	76.12
800.354	-5.8
800.534	39.25
800.714	43.35
800.894	67.92
801.074	4.44
801.254	72.02
801.434	63.83
801.614	-42.67
801.794	35.16
801.974	260.43
802.154	0.34
802.334	-28.33
802.514	67.92
802.693	65.88
802.873	-9.9
803.053	63.83
803.233	20.82
803.413	63.83
803.592	82.26
803.772	-1.71
803.952	26.96
804.131	112.98
804.311	84.31
804.491	10.58
804.67	20.82
804.85	43.35
805.03	110.93
805.209	59.73
805.389	16.73
805.568	43.35
805.748	-36.52
805.928	57.68
806.107	31.06
806.287	45.4
806.466	78.16
806.646	74.07
806.825	45.4
807.004	76.12
807.184	65.88
807.363	29.01
807.543	24.92
807.722	47.44
807.901	65.88
808.081	43.35
808.26	41.3
808.439	33.11
808.619	-52.91
808.798	160.08
808.977	55.64
809.156	102.74
809.336	2.39
809.515	22.87
809.694	-22.19
809.873	39.25
810.052	16.73
810.231	26.96
810.411	2.39
810.59	82.26
810.769	20.82
810.948	57.68
811.127	24.92
811.306	22.87
811.485	33.11
811.664	96.6
811.843	69.97
812.022	35.16
812.201	57.68
812.38	47.44
812.559	47.44
812.737	24.92
812.916	65.88
813.095	61.78
813.274	24.92
813.453	10.58
813.632	20.82
813.811	82.26
813.989	63.83
814.168	-22.19
814.347	-20.14
814.526	22.87
814.704	59.73
814.883	47.44
815.062	4.44
815.24	37.2
815.419	24.92
815.598	39.25
815.776	26.96
815.955	18.77
816.133	65.88
816.312	69.97
816.49	86.36
816.669	55.64
816.847	-26.28
817.026	31.06
817.204	-32.43
817.383	12.63
817.561	-36.52
817.74	53.59
817.918	-46.76
818.097	61.78
818.275	-9.9
818.453	51.54
818.632	8.53
818.81	35.16
818.988	37.2
819.167	-28.33
819.345	37.2
819.523	59.73
819.701	45.4
819.879	-16.04
820.058	33.11
820.236	-9.9
820.414	49.49
820.592	65.88
820.77	72.02
820.948	2.39
821.127	39.25
821.305	-11.95
821.483	2.39
821.661	26.96
821.839	69.97
822.017	24.92
822.195	12.63
822.373	-59.05
822.551	-11.95
822.729	94.55
822.907	88.4
823.085	90.45
823.262	65.88
823.44	31.06
823.618	12.63
823.796	31.06
823.974	-13.99
824.152	90.45
824.329	31.06
824.507	-24.23
824.685	55.64
824.863	41.3
825.04	14.68
825.218	14.68
825.396	4.44
825.574	39.25
825.751	10.58
825.929	72.02
826.107	104.79
826.284	10.58
826.462	37.2
826.639	-36.52
826.817	16.73
826.994	-24.23
827.172	-50.86
827.349	35.16
827.527	-54.95
827.704	-71.34
827.882	-7.85
828.059	37.2
828.237	31.06
828.414	24.92
828.591	-87.72
828.769	-40.62
828.946	-22.19
829.124	22.87
829.301	61.78
829.478	-18.09
829.655	6.49
829.833	59.73
830.01	-48.81
830.187	37.2
830.364	-57
830.542	12.63
830.719	2.39
830.896	12.63
831.073	16.73
831.25	16.73
831.427	4.44
831.604	-18.09
831.782	-22.19
831.959	18.77
832.136	16.73
832.313	57.68
832.49	-50.86
832.667	90.45
832.844	-26.28
833.021	102.74
833.198	6.49
833.374	16.73
833.551	6.49
833.728	31.06
833.905	-9.9
834.082	20.82
834.259	4.44
834.436	29.01
834.612	-42.67
834.789	16.73
834.966	33.11
835.143	-3.75
835.319	12.63
835.496	37.2
835.673	14.68
835.85	33.11
836.026	33.11
836.203	51.54
836.38	4.44
836.556	16.73
836.733	24.92
836.909	16.73
837.086	24.92
837.262	12.63
837.439	98.64
837.616	-7.85
837.792	-40.62
837.968	65.88
838.145	12.63
838.321	41.3
838.498	35.16
838.674	31.06
838.851	35.16
839.027	-1.71
839.203	123.22
839.38	-7.85
839.556	4.44
839.732	76.12
839.909	-13.99
840.085	26.96
840.261	-9.9
840.437	31.06
840.614	-46.76
840.79	12.63
840.966	16.73
841.142	84.31
841.318	35.16
841.494	2.39
841.671	47.44
841.847	-102.06
842.023	6.49
842.199	47.44
842.375	53.59
842.551	6.49
842.727	2.39
842.903	18.77
843.079	-7.85
843.255	57.68
843.431	-75.43
843.607	-57
843.783	-9.9
843.959	39.25
844.134	-30.38
844.31	43.35
844.486	-11.95
844.662	90.45
844.838	0.34
845.013	10.58
845.189	16.73
845.365	26.96
845.541	10.58
845.716	33.11
845.892	-7.85
846.068	0.34
846.244	-18.09
846.419	8.53
846.595	18.77
846.77	-57
846.946	-7.85
847.122	24.92
847.297	-22.19
847.473	43.35
847.648	86.36
847.824	-22.19
847.999	-24.23
848.175	-22.19
848.35	-32.43
848.526	37.2
848.701	39.25
848.876	20.82
849.052	4.44
849.227	26.96
849.403	2.39
849.578	2.39
849.753	31.06
849.929	59.73
850.104	-34.47
850.279	45.4
850.454	31.06
850.63	0.34
850.805	-57
850.98	-61.1
851.155	-22.19
851.33	-20.14
851.505	41.3
851.681	20.82
851.856	49.49
852.031	12.63
852.206	-67.24
852.381	8.53
852.556	53.59
852.731	2.39
852.906	-59.05
853.081	20.82
853.256	-20.14
853.431	-36.52
853.606	59.73
853.781	31.06
853.956	-9.9
854.131	41.3
854.305	-67.24
854.48	35.16
854.655	8.53
854.83	8.53
855.005	-28.33
855.18	65.88
855.354	-9.9
855.529	53.59
855.704	12.63
855.879	88.4
856.053	-26.28
856.228	-22.19
856.403	-38.57
856.577	112.98
856.752	20.82
856.926	80.21
857.101	0.34
857.276	-1.71
857.45	24.92
857.625	-59.05
857.799	39.25
857.974	24.92
858.148	22.87
858.323	-48.81
858.497	-34.47
858.672	-5.8
858.846	-48.81
859.02	43.35
859.195	-9.9
859.369	39.25
859.543	-26.28
859.718	-1.71
859.892	45.4
860.066	-97.96
860.241	-52.91
860.415	20.82
860.589	-46.76
860.763	-18.09
860.938	-20.14
861.112	12.63
861.286	-57
861.46	29.01
861.634	43.35
861.808	22.87
861.982	-26.28
862.157	6.49
862.331	20.82
862.505	-26.28
862.679	10.58
862.853	2.39
863.027	-34.47
863.201	84.31
863.375	-20.14
863.549	41.3
863.722	65.88
863.896	20.82
864.07	37.2
864.244	-22.19
864.418	31.06
864.592	0.34
864.766	-26.28
864.939	-71.34
865.113	-59.05
865.287	4.44
865.461	63.83
865.634	53.59
865.808	10.58
865.982	41.3
866.156	31.06
866.329	47.44
866.503	-13.99
866.676	12.63
866.85	-7.85
867.024	-13.99
867.197	-93.87
867.371	31.06
867.544	10.58
867.718	47.44
867.891	10.58
868.065	14.68
868.238	22.87
868.412	31.06
868.585	-32.43
868.759	-7.85
868.932	-34.47
869.105	-38.57
869.279	16.73
869.452	55.64
869.625	-11.95
869.799	57.68
869.972	55.64
870.145	-73.39
870.319	-24.23
870.492	37.2
870.665	-7.85
870.838	-44.71
871.011	-30.38
871.185	-48.81
871.358	16.73
871.531	33.11
871.704	-24.23
871.877	-18.09
872.05	20.82
872.223	-30.38
872.396	57.68
872.569	-18.09
872.742	37.2
872.915	43.35
873.088	-1.71
873.261	53.59
873.434	35.16
873.607	55.64
873.78	-3.75
873.953	-32.43
874.126	6.49
874.299	29.01
874.471	6.49
874.644	-9.9
874.817	-67.24
874.99	78.16
875.163	33.11
875.335	80.21
875.508	-9.9
875.681	-67.24
875.853	35.16
876.026	18.77
876.199	31.06
876.371	-38.57
876.544	-22.19
876.717	-61.1
876.889	-38.57
877.062	37.2
877.234	29.01
877.407	53.59
877.579	-16.04
877.752	16.73
877.924	-34.47
878.097	-9.9
878.269	4.44
878.442	29.01
878.614	16.73
878.786	-9.9
878.959	10.58
879.131	16.73
879.303	-91.82
879.476	16.73
879.648	-20.14
879.82	-34.47
879.993	-24.23
880.165	-67.24
880.337	-32.43
880.509	-50.86
880.681	-36.52
880.854	-20.14
881.026	-24.23
881.198	0.34
881.37	-42.67
881.542	53.59
881.714	76.12
881.886	-28.33
882.058	-18.09
882.23	29.01
882.402	22.87
882.574	-22.19
882.746	-26.28
882.918	-16.04
883.09	-32.43
883.262	-59.05
883.434	-16.04
883.606	41.3
883.778	-24.23
883.95	59.73
884.122	0.34
884.293	-7.85
884.465	-77.48
884.637	-26.28
884.809	-42.67
884.98	-7.85
885.152	-1.71
885.324	14.68
885.496	0.34
885.667	24.92
885.839	-5.8
886.011	-48.81
886.182	-7.85
886.354	26.96
886.525	14.68
886.697	35.16
886.869	-20.14
887.04	-46.76
887.212	37.2
887.383	-18.09
887.555	35.16
887.726	-1.71
887.897	63.83
888.069	-20.14
888.24	-40.62
888.412	84.31
888.583	-1.71
888.754	31.06
888.926	-13.99
889.097	43.35
889.268	-1.71
889.44	-71.34
889.611	-20.14
889.782	-3.75
889.953	-52.91
890.125	49.49
890.296	-30.38
890.467	45.4
890.638	-50.86
890.809	41.3
890.98	-69.29
891.151	-40.62
891.323	-16.04
891.494	31.06
891.665	35.16
891.836	49.49
892.007	-32.43
892.178	35.16
892.349	4.44
892.52	53.59
892.691	-3.75
892.862	37.2
893.032	0.34
893.203	-5.8
893.374	10.58
893.545	41.3
893.716	82.26
893.887	-3.75
894.057	26.96
894.228	6.49
894.399	-67.24
894.57	12.63
894.74	18.77
894.911	-40.62
895.082	92.5
895.253	-13.99
895.423	-26.28
895.594	-20.14
895.764	14.68
895.935	12.63
896.106	-24.23
896.276	45.4
896.447	-54.95
896.617	-69.29
896.788	-1.71
896.958	-7.85
897.129	-75.43
897.299	16.73
897.47	37.2
897.64	-7.85
897.81	4.44
897.981	-9.9
898.151	-9.9
898.322	-38.57
898.492	-20.14
898.662	6.49
898.832	24.92
899.003	10.58
899.173	45.4
899.343	-36.52
899.513	-59.05
