Data from USB4F104151__14__12-53-13-489.txt Node

Date: Fri Mar 14 12:53:13 EDT 2025
User: louis
Spectrometer: USB4F10415
Trigger mode: 4
Integration Time (sec): 1.000000E-2
Scans to average: 1
Electric dark correction enabled: true
Nonlinearity correction enabled: false
Boxcar width: 0
XAxis mode: Wavelengths
Number of Pixels in Spectrum: 3648
>>>>>Begin Spectral Data<<<<<
178.204	-68.78
178.424	-68.78
178.644	-68.78
178.864	-46.25
179.084	-19.63
179.304	-38.06
179.524	-9.39
179.744	-5.29
179.964	31.57
180.184	-36.01
180.404	0.85
180.624	33.62
180.844	-11.43
181.064	11.09
181.283	35.67
181.503	-36.01
181.723	23.38
181.943	-62.63
182.163	7
182.383	0.85
182.602	84.82
182.822	19.29
183.042	15.19
183.262	-33.96
183.482	-44.2
183.701	-17.58
183.921	-31.91
184.141	47.96
184.361	-38.06
184.58	41.81
184.8	64.34
185.02	4.95
185.239	-9.39
185.459	-3.24
185.679	47.96
185.898	-23.72
186.118	101.2
186.338	11.09
186.557	-9.39
186.777	-54.44
186.997	7
187.216	-25.77
187.436	33.62
187.655	33.62
187.875	4.95
188.095	-56.49
188.314	-91.31
188.534	25.43
188.753	25.43
188.973	-25.77
189.192	37.72
189.412	-33.96
189.631	-15.53
189.851	29.52
190.07	15.19
190.29	39.76
190.509	-38.06
190.729	35.67
190.948	4.95
191.168	29.52
191.387	-3.24
191.607	13.14
191.826	-29.87
192.045	66.39
192.265	52.05
192.484	-5.29
192.704	15.19
192.923	-3.24
193.142	60.24
193.362	-25.77
193.581	45.91
193.8	58.2
194.02	93.01
194.239	-40.11
194.458	0.85
194.678	0.85
194.897	-64.68
195.116	43.86
195.335	37.72
195.555	68.44
195.774	-46.25
195.993	35.67
196.212	-25.77
196.432	29.52
196.651	-48.3
196.87	-9.39
197.089	19.29
197.308	-11.43
197.528	17.24
197.747	-29.87
197.966	105.3
198.185	23.38
198.404	27.48
198.623	56.15
198.842	-50.35
199.062	-13.48
199.281	29.52
199.5	-9.39
199.719	0.85
199.938	-5.29
200.157	70.48
200.376	0.85
200.595	52.05
200.814	25.43
201.033	15.19
201.252	-7.34
201.471	-1.19
201.69	7
201.909	-17.58
202.128	-56.49
202.347	43.86
202.566	33.62
202.785	7
203.004	13.14
203.223	56.15
203.442	15.19
203.661	43.86
203.879	-9.39
204.098	-50.35
204.317	27.48
204.536	35.67
204.755	27.48
204.974	-97.45
205.193	27.48
205.411	23.38
205.63	-23.72
205.849	35.67
206.068	23.38
206.287	72.53
206.505	27.48
206.724	-33.96
206.943	0.85
207.162	21.33
207.381	-44.2
207.599	27.48
207.818	62.29
208.037	90.96
208.255	-3.24
208.474	103.25
208.693	0.85
208.911	-1.19
209.13	27.48
209.349	27.48
209.567	64.34
209.786	31.57
210.005	-15.53
210.223	35.67
210.442	-48.3
210.661	97.11
210.879	47.96
211.098	68.44
211.316	-13.48
211.535	50
211.753	-87.21
211.972	43.86
212.191	-7.34
212.409	37.72
212.628	39.76
212.846	-76.97
213.065	39.76
213.283	39.76
213.502	-23.72
213.72	19.29
213.938	27.48
214.157	52.05
214.375	25.43
214.594	7
214.812	25.43
215.031	125.78
215.249	-60.59
215.467	41.81
215.686	0.85
215.904	39.76
216.122	29.52
216.341	76.63
216.559	4.95
216.778	-5.29
216.996	58.2
217.214	31.57
217.432	-1.19
217.651	11.09
217.869	25.43
218.087	47.96
218.306	-11.43
218.524	-1.19
218.742	39.76
218.96	-5.29
219.179	19.29
219.397	-29.87
219.615	13.14
219.833	2.9
220.051	-25.77
220.27	-1.19
220.488	-87.21
220.706	52.05
220.924	-7.34
221.142	-54.44
221.36	-17.58
221.578	-25.77
221.796	27.48
222.015	-27.82
222.233	-1.19
222.451	103.25
222.669	23.38
222.887	31.57
223.105	7
223.323	-29.87
223.541	-7.34
223.759	19.29
223.977	-1.19
224.195	29.52
224.413	31.57
224.631	47.96
224.849	37.72
225.067	82.77
225.285	45.91
225.503	23.38
225.721	-15.53
225.939	25.43
226.157	25.43
226.375	-52.39
226.592	-33.96
226.81	43.86
227.028	-19.63
227.246	4.95
227.464	2.9
227.682	43.86
227.9	-7.34
228.117	-21.67
228.335	-31.91
228.553	-1.19
228.771	39.76
228.989	97.11
229.206	23.38
229.424	-23.72
229.642	-1.19
229.86	66.39
230.077	37.72
230.295	58.2
230.513	-21.67
230.731	-56.49
230.948	47.96
231.166	2.9
231.384	23.38
231.601	58.2
231.819	-21.67
232.037	45.91
232.254	15.19
232.472	27.48
232.689	-9.39
232.907	50
233.125	47.96
233.342	23.38
233.56	-5.29
233.777	2.9
233.995	58.2
234.213	9.05
234.43	11.09
234.648	99.16
234.865	19.29
235.083	37.72
235.3	-36.01
235.518	-9.39
235.735	2.9
235.953	-29.87
236.17	-38.06
236.388	-1.19
236.605	7
236.822	2.9
237.04	-23.72
237.257	52.05
237.475	35.67
237.692	-81.07
237.909	88.92
238.127	-11.43
238.344	21.33
238.562	37.72
238.779	-21.67
238.996	17.24
239.214	-11.43
239.431	45.91
239.648	-66.73
239.865	11.09
240.083	-11.43
240.3	-1.19
240.517	-60.59
240.735	-9.39
240.952	7
241.169	37.72
241.386	31.57
241.603	7
241.821	60.24
242.038	15.19
242.255	-25.77
242.472	21.33
242.689	56.15
242.907	4.95
243.124	17.24
243.341	-21.67
243.558	-5.29
243.775	27.48
243.992	-25.77
244.209	74.58
244.426	88.92
244.643	45.91
244.86	0.85
245.078	31.57
245.295	-27.82
245.512	-9.39
245.729	-33.96
245.946	58.2
246.163	17.24
246.38	-9.39
246.597	15.19
246.814	39.76
247.031	2.9
247.248	-36.01
247.464	17.24
247.681	39.76
247.898	-3.24
248.115	31.57
248.332	-27.82
248.549	-17.58
248.766	25.43
248.983	41.81
249.2	-46.25
249.417	-33.96
249.633	68.44
249.85	7
250.067	-48.3
250.284	-48.3
250.501	7
250.717	27.48
250.934	4.95
251.151	-36.01
251.368	29.52
251.585	80.72
251.801	58.2
252.018	84.82
252.235	54.1
252.451	62.29
252.668	-27.82
252.885	25.43
253.102	15.19
253.318	21.33
253.535	31.57
253.752	-38.06
253.968	-38.06
254.185	50
254.401	-62.63
254.618	60.24
254.835	9.05
255.051	9.05
255.268	23.38
255.484	25.43
255.701	9.05
255.917	84.82
256.134	-42.15
256.351	13.14
256.567	4.95
256.784	-42.15
257	13.14
257.217	80.72
257.433	-21.67
257.65	-25.77
257.866	33.62
258.082	47.96
258.299	15.19
258.515	105.3
258.732	-19.63
258.948	11.09
259.165	21.33
259.381	9.05
259.597	47.96
259.814	60.24
260.03	-33.96
260.246	23.38
260.463	11.09
260.679	-17.58
260.895	2.9
261.112	21.33
261.328	0.85
261.544	4.95
261.761	31.57
261.977	-31.91
262.193	-36.01
262.409	-15.53
262.626	29.52
262.842	9.05
263.058	-36.01
263.274	2.9
263.49	64.34
263.707	56.15
263.923	66.39
264.139	-5.29
264.355	84.82
264.571	41.81
264.787	-17.58
265.004	25.43
265.22	2.9
265.436	21.33
265.652	15.19
265.868	74.58
266.084	-44.2
266.3	60.24
266.516	-5.29
266.732	-27.82
266.948	29.52
267.164	15.19
267.38	39.76
267.596	-7.34
267.812	66.39
268.028	39.76
268.244	-33.96
268.46	17.24
268.676	-72.87
268.892	33.62
269.108	52.05
269.324	72.53
269.54	25.43
269.756	68.44
269.972	29.52
270.188	-25.77
270.403	52.05
270.619	33.62
270.835	82.77
271.051	-36.01
271.267	-31.91
271.483	-42.15
271.698	31.57
271.914	41.81
272.13	-9.39
272.346	39.76
272.562	31.57
272.777	-15.53
272.993	35.67
273.209	41.81
273.425	-11.43
273.64	-33.96
273.856	35.67
274.072	-11.43
274.287	17.24
274.503	97.11
274.719	-1.19
274.934	52.05
275.15	76.63
275.366	43.86
275.581	9.05
275.797	17.24
276.012	21.33
276.228	-11.43
276.444	-17.58
276.659	84.82
276.875	60.24
277.09	31.57
277.306	56.15
277.521	39.76
277.737	-5.29
277.952	64.34
278.168	-13.48
278.383	45.91
278.599	103.25
278.814	7
279.03	-27.82
279.245	7
279.461	39.76
279.676	-7.34
279.892	-25.77
280.107	-7.34
280.322	-7.34
280.538	-27.82
280.753	-3.24
280.969	33.62
281.184	-5.29
281.399	-7.34
281.615	-7.34
281.83	-3.24
282.045	-44.2
282.26	-7.34
282.476	84.82
282.691	107.35
282.906	25.43
283.122	82.77
283.337	-15.53
283.552	47.96
283.767	50
283.983	60.24
284.198	-15.53
284.413	35.67
284.628	-21.67
284.843	-17.58
285.058	27.48
285.274	58.2
285.489	25.43
285.704	62.29
285.919	-3.24
286.134	58.2
286.349	78.68
286.564	9.05
286.779	29.52
286.995	0.85
287.21	-5.29
287.425	54.1
287.64	58.2
287.855	45.91
288.07	56.15
288.285	-38.06
288.5	31.57
288.715	-85.16
288.93	-13.48
289.145	-33.96
289.36	72.53
289.575	-36.01
289.79	-21.67
290.004	-1.19
290.219	50
290.434	31.57
290.649	35.67
290.864	-38.06
291.079	-13.48
291.294	37.72
291.509	101.2
291.724	15.19
291.938	-74.92
292.153	4.95
292.368	31.57
292.583	27.48
292.798	4.95
293.012	-52.39
293.227	29.52
293.442	9.05
293.657	37.72
293.871	58.2
294.086	62.29
294.301	7
294.516	-5.29
294.73	21.33
294.945	-27.82
295.16	68.44
295.374	4.95
295.589	-68.78
295.804	-33.96
296.018	84.82
296.233	0.85
296.447	-19.63
296.662	-7.34
296.877	-23.72
297.091	-70.83
297.306	54.1
297.52	0.85
297.735	-7.34
297.949	13.14
298.164	45.91
298.378	4.95
298.593	23.38
298.807	-36.01
299.022	-1.19
299.236	-42.15
299.451	54.1
299.665	70.48
299.88	109.4
300.094	50
300.309	-19.63
300.523	-46.25
300.737	58.2
300.952	-17.58
301.166	50
301.381	35.67
301.595	88.92
301.809	21.33
302.024	-36.01
302.238	13.14
302.452	88.92
302.667	19.29
302.881	82.77
303.095	-19.63
303.309	-9.39
303.524	21.33
303.738	64.34
303.952	-33.96
304.166	-40.11
304.381	62.29
304.595	17.24
304.809	-1.19
305.023	33.62
305.237	-58.54
305.452	19.29
305.666	-38.06
305.88	37.72
306.094	76.63
306.308	39.76
306.522	97.11
306.736	60.24
306.95	2.9
307.164	-7.34
307.379	9.05
307.593	-42.15
307.807	52.05
308.021	97.11
308.235	-40.11
308.449	2.9
308.663	-70.83
308.877	62.29
309.091	23.38
309.305	121.68
309.519	-36.01
309.733	50
309.947	-46.25
310.161	-7.34
310.374	-13.48
310.588	-3.24
310.802	-54.44
311.016	-15.53
311.23	-7.34
311.444	-15.53
311.658	0.85
311.872	52.05
312.085	13.14
312.299	-17.58
312.513	19.29
312.727	-31.91
312.941	-48.3
313.154	23.38
313.368	7
313.582	88.92
313.796	27.48
314.009	11.09
314.223	2.9
314.437	45.91
314.651	86.87
314.864	11.09
315.078	-21.67
315.292	-25.77
315.505	23.38
315.719	52.05
315.933	88.92
316.146	-1.19
316.36	11.09
316.573	15.19
316.787	58.2
317.001	66.39
317.214	52.05
317.428	-1.19
317.641	56.15
317.855	-25.77
318.068	-42.15
318.282	-5.29
318.495	11.09
318.709	47.96
318.922	39.76
319.136	70.48
319.349	17.24
319.563	25.43
319.776	-52.39
319.99	74.58
320.203	29.52
320.417	33.62
320.63	33.62
320.843	17.24
321.057	52.05
321.27	54.1
321.483	-25.77
321.697	25.43
321.91	54.1
322.124	50
322.337	21.33
322.55	37.72
322.763	95.06
322.977	80.72
323.19	15.19
323.403	27.48
323.617	54.1
323.83	-38.06
324.043	99.16
324.256	2.9
324.469	-46.25
324.683	-58.54
324.896	70.48
325.109	15.19
325.322	-17.58
325.535	17.24
325.748	-25.77
325.962	50
326.175	35.67
326.388	58.2
326.601	56.15
326.814	-21.67
327.027	9.05
327.24	62.29
327.453	29.52
327.666	-29.87
327.879	33.62
328.092	45.91
328.305	11.09
328.518	9.05
328.731	25.43
328.944	17.24
329.157	70.48
329.37	25.43
329.583	15.19
329.796	101.2
330.009	82.77
330.222	47.96
330.435	-9.39
330.648	-33.96
330.861	4.95
331.073	-17.58
331.286	-64.68
331.499	52.05
331.712	-23.72
331.925	15.19
332.138	35.67
332.35	21.33
332.563	31.57
332.776	41.81
332.989	-1.19
333.202	62.29
333.414	0.85
333.627	33.62
333.84	113.49
334.053	41.81
334.265	33.62
334.478	52.05
334.691	72.53
334.903	23.38
335.116	-7.34
335.329	-25.77
335.541	33.62
335.754	82.77
335.966	-7.34
336.179	84.82
336.392	33.62
336.604	80.72
336.817	17.24
337.029	95.06
337.242	25.43
337.454	2.9
337.667	13.14
337.88	41.81
338.092	13.14
338.305	41.81
338.517	7
338.729	56.15
338.942	29.52
339.154	19.29
339.367	0.85
339.579	23.38
339.792	25.43
340.004	74.58
340.217	66.39
340.429	107.35
340.641	4.95
340.854	2.9
341.066	-9.39
341.278	-13.48
341.491	43.86
341.703	7
341.915	60.24
342.128	19.29
342.34	-54.44
342.552	95.06
342.764	39.76
342.977	84.82
343.189	25.43
343.401	13.14
343.613	39.76
343.826	-27.82
344.038	13.14
344.25	50
344.462	0.85
344.674	86.87
344.886	11.09
345.099	37.72
345.311	-21.67
345.523	27.48
345.735	-5.29
345.947	35.67
346.159	23.38
346.371	15.19
346.583	-27.82
346.795	107.35
347.007	-21.67
347.219	97.11
347.431	52.05
347.643	0.85
347.855	45.91
348.067	11.09
348.279	56.15
348.491	56.15
348.703	-58.54
348.915	80.72
349.127	-68.78
349.339	43.86
349.551	-13.48
349.763	-7.34
349.975	-36.01
350.187	33.62
350.399	25.43
350.61	82.77
350.822	90.96
351.034	45.91
351.246	21.33
351.458	31.57
351.669	54.1
351.881	64.34
352.093	86.87
352.305	56.15
352.517	-13.48
352.728	15.19
352.94	66.39
353.152	25.43
353.363	-15.53
353.575	50
353.787	-3.24
353.999	88.92
354.21	52.05
354.422	-1.19
354.633	-15.53
354.845	47.96
355.057	84.82
355.268	66.39
355.48	64.34
355.692	31.57
355.903	0.85
356.115	88.92
356.326	0.85
356.538	56.15
356.749	7
356.961	9.05
357.172	19.29
357.384	90.96
357.595	2.9
357.807	-33.96
358.018	-40.11
358.23	41.81
358.441	35.67
358.653	45.91
358.864	0.85
359.075	47.96
359.287	-33.96
359.498	23.38
359.709	4.95
359.921	13.14
360.132	56.15
360.344	13.14
360.555	35.67
360.766	7
360.977	29.52
361.189	0.85
361.4	58.2
361.611	-3.24
361.823	33.62
362.034	52.05
362.245	17.24
362.456	-36.01
362.667	37.72
362.879	2.9
363.09	68.44
363.301	-31.91
363.512	4.95
363.723	70.48
363.935	19.29
364.146	-19.63
364.357	88.92
364.568	33.62
364.779	-27.82
364.99	19.29
365.201	25.43
365.412	80.72
365.623	-17.58
365.834	72.53
366.045	-9.39
366.256	17.24
366.467	31.57
366.678	64.34
366.889	60.24
367.1	-95.4
367.311	25.43
367.522	39.76
367.733	39.76
367.944	56.15
368.155	123.73
368.366	101.2
368.577	-23.72
368.788	66.39
368.999	50
369.209	35.67
369.42	93.01
369.631	125.78
369.842	-13.48
370.053	39.76
370.264	56.15
370.474	29.52
370.685	21.33
370.896	-23.72
371.107	35.67
371.317	-15.53
371.528	47.96
371.739	23.38
371.95	60.24
372.16	19.29
372.371	43.86
372.582	37.72
372.792	93.01
373.003	15.19
373.214	43.86
373.424	39.76
373.635	50
373.846	43.86
374.056	-9.39
374.267	19.29
374.477	15.19
374.688	52.05
374.898	0.85
375.109	39.76
375.319	68.44
375.53	31.57
375.74	95.06
375.951	74.58
376.161	56.15
376.372	72.53
376.582	52.05
376.793	29.52
377.003	19.29
377.214	97.11
377.424	-44.2
377.635	-25.77
377.845	7
378.055	60.24
378.266	0.85
378.476	43.86
378.686	7
378.897	31.57
379.107	56.15
379.317	150.36
379.528	23.38
379.738	70.48
379.948	47.96
380.158	62.29
380.369	-1.19
380.579	2.9
380.789	-9.39
380.999	50
381.21	17.24
381.42	74.58
381.63	7
381.84	-3.24
382.05	52.05
382.261	-31.91
382.471	72.53
382.681	-13.48
382.891	-1.19
383.101	15.19
383.311	-1.19
383.521	27.48
383.731	19.29
383.941	86.87
384.151	31.57
384.361	37.72
384.571	33.62
384.781	90.96
384.991	-3.24
385.201	101.2
385.411	80.72
385.621	62.29
385.831	47.96
386.041	82.77
386.251	-31.91
386.461	97.11
386.671	25.43
386.881	41.81
387.091	88.92
387.301	7
387.511	52.05
387.72	70.48
387.93	86.87
388.14	-9.39
388.35	0.85
388.56	58.2
388.769	76.63
388.979	43.86
389.189	27.48
389.399	50
389.609	33.62
389.818	76.63
390.028	56.15
390.238	15.19
390.447	35.67
390.657	17.24
390.867	11.09
391.076	-25.77
391.286	29.52
391.496	54.1
391.705	2.9
391.915	70.48
392.125	47.96
392.334	-42.15
392.544	66.39
392.753	74.58
392.963	43.86
393.172	17.24
393.382	60.24
393.591	113.49
393.801	35.67
394.01	109.4
394.22	58.2
394.429	97.11
394.639	27.48
394.848	23.38
395.058	35.67
395.267	74.58
395.477	39.76
395.686	25.43
395.895	25.43
396.105	43.86
396.314	13.14
396.524	-15.53
396.733	33.62
396.942	21.33
397.152	25.43
397.361	56.15
397.57	43.86
397.78	95.06
397.989	82.77
398.198	88.92
398.407	15.19
398.617	66.39
398.826	-5.29
399.035	-7.34
399.244	54.1
399.453	66.39
399.663	74.58
399.872	17.24
400.081	25.43
400.29	117.59
400.499	37.72
400.708	54.1
400.917	76.63
401.127	11.09
401.336	88.92
401.545	74.58
401.754	7
401.963	70.48
402.172	97.11
402.381	39.76
402.59	62.29
402.799	95.06
403.008	142.16
403.217	103.25
403.426	66.39
403.635	74.58
403.844	41.81
404.053	103.25
404.262	41.81
404.471	127.83
404.68	90.96
404.888	101.2
405.097	45.91
405.306	181.07
405.515	93.01
405.724	119.64
405.933	136.02
406.142	54.1
406.35	168.79
406.559	129.88
406.768	56.15
406.977	78.68
407.185	111.44
407.394	152.4
407.603	47.96
407.812	138.07
408.02	50
408.229	95.06
408.438	174.93
408.646	105.3
408.855	93.01
409.064	154.45
409.272	144.21
409.481	170.83
409.69	199.51
409.898	140.12
410.107	211.79
410.315	191.31
410.524	176.98
410.733	213.84
410.941	142.16
411.15	211.79
411.358	260.95
411.567	226.13
411.775	236.37
411.984	269.14
412.192	211.79
412.401	267.09
412.609	232.27
412.818	267.09
413.026	275.28
413.234	295.76
413.443	295.76
413.651	244.56
413.86	322.38
414.068	361.3
414.276	424.78
414.485	426.83
414.693	389.97
414.901	435.02
415.11	398.16
415.318	435.02
415.526	336.72
415.734	480.08
415.943	394.06
416.151	555.85
416.359	473.93
416.567	541.52
416.776	463.69
416.984	541.52
417.192	553.8
417.4	580.43
417.608	588.62
417.817	652.11
418.025	648.01
418.233	652.11
418.441	590.67
418.649	717.64
418.857	715.59
419.065	727.88
419.273	721.74
419.481	799.56
419.689	727.88
419.897	861
420.105	803.66
420.313	953.16
420.521	944.97
420.729	901.96
420.937	883.53
421.145	951.11
421.353	1035.08
421.561	1047.37
421.769	1178.44
421.977	1186.63
422.185	1121.09
422.393	1190.72
422.601	1256.26
422.809	1186.63
423.017	1219.39
423.224	1375.04
423.432	1450.82
423.64	1399.62
423.848	1483.58
424.056	1487.68
424.263	1481.53
424.471	1549.12
424.679	1657.66
424.887	1745.72
425.094	1755.96
425.302	1786.68
425.51	1776.44
425.718	1925.94
425.925	1880.89
426.133	2052.92
426.341	2075.45
426.548	2202.42
426.756	2188.08
426.964	2165.56
427.171	2353.97
427.379	2405.17
427.586	2489.14
427.794	2487.09
428.001	2757.42
428.209	2753.32
428.417	2741.04
428.624	3046.18
428.832	2870.06
429.039	2982.7
429.247	2814.76
429.454	3177.25
429.662	3232.55
429.869	3152.68
430.076	3369.76
430.284	3343.14
430.491	3343.14
430.699	3676.96
430.906	3595.04
431.114	3662.62
431.321	3842.84
431.528	3887.9
431.736	4055.83
431.943	4264.72
432.15	4260.63
432.358	4254.48
432.565	4473.62
432.772	4516.62
432.979	4805.39
433.187	4776.72
433.394	4821.77
433.601	5079.82
433.808	5079.82
434.016	5157.64
434.223	5366.53
434.43	5692.16
434.637	5634.82
434.844	5952.25
435.052	5985.02
435.259	5847.8
435.466	6087.42
435.673	6066.94
435.88	6433.52
436.087	6777.58
436.294	6644.46
436.501	6578.93
436.708	6734.57
436.915	7037.67
437.122	7252.71
437.329	7285.48
437.537	7707.36
437.743	7600.87
437.95	7658.21
438.157	7936.73
438.364	8039.13
438.571	8342.23
438.778	8454.87
438.985	9009.87
439.192	8860.37
439.399	8973
439.606	8927.95
439.813	9284.3
440.02	9822.91
440.227	9609.92
440.433	9566.92
440.64	9927.36
440.847	9863.87
441.054	9964.22
441.261	10746.55
441.467	10568.37
441.674	10764.98
441.881	11295.4
442.088	11115.18
442.294	11170.47
442.501	11416.23
442.708	11696.8
442.914	12059.29
443.121	12624.53
443.328	12151.45
443.534	13212.3
443.741	12864.15
443.948	12788.37
444.154	13613.7
444.361	13601.41
444.568	13523.59
444.774	13425.29
444.981	13920.9
445.187	14373.5
445.394	14758.52
445.6	14518.9
445.807	16157.28
446.013	15254.12
446.22	15606.38
446.426	16155.23
446.633	16278.11
446.839	16839.25
447.046	16255.58
447.252	17300.05
447.459	17173.07
447.665	17103.44
447.871	17990.21
448.078	18768.44
448.284	17668.68
448.491	18291.26
448.697	18795.06
448.903	19190.32
449.11	19378.73
449.316	19348.01
449.522	19518
449.728	19962.4
449.935	19839.53
450.141	19954.21
450.347	20986.39
450.553	20255.26
450.76	20312.61
450.966	20701.72
451.172	20419.1
451.378	21148.18
451.584	20783.64
451.791	21074.45
451.997	21199.38
452.203	21367.31
452.409	21520.91
452.615	21760.52
452.821	20648.47
453.027	20238.88
453.233	21545.48
453.44	20767.26
453.646	21271.06
453.852	21099.03
454.058	21649.93
454.264	20693.53
454.47	21123.6
454.676	20419.1
454.882	21361.17
455.088	19499.56
455.294	19780.14
455.5	20292.13
455.705	20519.45
455.911	19532.33
456.117	19282.48
456.323	19030.58
456.529	18049.6
456.735	18694.71
456.941	18268.73
457.147	18072.13
457.352	17650.25
457.558	17341
457.764	17386.06
457.97	17093.2
458.176	16566.87
458.381	16552.54
458.587	15661.67
458.793	16020.06
458.999	14828.15
459.204	16226.91
459.41	15768.16
459.616	14828.15
459.821	14527.1
460.027	14537.34
460.233	14164.61
460.438	13572.74
460.644	13746.82
460.85	13070.99
461.055	13142.67
461.261	12724.88
461.466	11911.84
461.672	11717.28
461.878	12612.24
462.083	11510.44
462.289	11512.49
462.494	11295.4
462.7	10830.51
462.905	10611.38
463.111	10873.52
463.316	11109.04
463.522	10701.49
463.727	10615.48
463.932	10681.01
464.138	10853.04
464.343	10678.96
464.549	10347.19
464.754	10623.67
464.959	10683.06
465.165	10410.68
465.37	10070.72
465.575	9798.34
465.781	10287.8
465.986	10209.98
466.191	9966.27
466.397	9775.81
466.602	9128.65
466.807	9763.52
467.012	9648.83
467.218	9607.87
467.423	9642.69
467.628	9478.85
467.833	10052.28
468.038	9708.23
468.244	9394.89
468.449	9796.29
468.654	9239.24
468.859	9304.78
469.064	9337.54
469.269	8831.69
469.474	8960.72
469.679	9206.47
469.885	9001.68
470.09	9073.35
470.295	9073.35
470.5	8649.43
470.705	8864.46
470.91	8602.32
471.115	8573.65
471.32	8778.45
471.525	8723.15
471.73	8329.94
471.935	8372.95
472.139	8104.67
472.344	8184.54
472.549	7932.64
472.754	8012.51
472.959	7824.09
473.164	7688.93
473.369	7617.25
473.574	8102.62
473.778	7844.57
473.983	7697.12
474.188	7703.26
474.393	7154.41
474.598	7301.86
474.802	7295.72
475.007	7359.21
475.212	7162.6
475.417	6961.9
475.621	7019.24
475.826	7103.21
476.031	6830.83
476.235	6607.6
476.44	6933.23
476.645	6796.01
476.849	6642.42
477.054	6654.7
477.259	6423.28
477.463	6513.39
477.668	6396.66
477.872	6359.8
478.077	6259.45
478.282	6085.37
478.486	6054.65
478.691	6048.51
478.895	6023.93
479.1	6021.88
479.304	5958.39
479.509	5714.69
479.713	6017.79
479.918	5823.23
480.122	5667.58
480.326	5925.63
480.531	5833.47
480.735	5778.17
480.94	5792.51
481.144	5786.37
481.348	5612.29
481.553	5665.53
481.757	5552.9
481.961	5681.92
482.166	5800.7
482.37	5731.07
482.574	5702.4
482.778	5765.89
482.983	5702.4
483.187	5477.12
483.391	5737.21
483.595	5581.57
483.8	5589.76
484.004	5604.1
484.208	5706.49
484.412	5618.43
484.616	5720.83
484.821	5729.02
485.025	5579.52
485.229	5696.25
485.433	5663.49
485.637	5616.38
485.841	5513.99
486.045	5495.55
486.249	5610.24
486.453	5683.97
486.657	5651.2
486.861	5622.53
487.065	5524.23
487.269	5618.43
487.473	5563.14
487.677	5616.38
487.881	5643.01
488.085	5608.19
488.289	5835.52
488.493	5683.97
488.697	5653.25
488.901	5772.03
489.105	5696.25
489.309	5802.75
489.512	5851.9
489.716	5860.09
489.92	5819.13
490.124	5698.3
490.328	5917.44
490.531	5905.15
490.735	5862.14
490.939	6030.07
491.143	5980.92
491.346	6042.36
491.55	6138.62
491.754	6226.68
491.958	6206.2
492.161	6171.38
492.365	6077.18
492.569	6191.86
492.772	6241.01
492.976	6208.25
493.18	6390.52
493.383	6224.63
493.587	6382.32
493.79	6533.87
493.994	6388.47
494.197	6460.15
494.401	6593.26
494.605	6710
494.808	6781.68
495.012	6724.33
495.215	6789.87
495.419	6839.02
495.622	6691.57
495.825	6933.23
496.029	6990.57
496.232	7154.41
496.436	7019.24
496.639	7518.95
496.843	7357.16
497.046	7422.69
497.249	7617.25
497.453	7580.39
497.656	7654.11
497.859	7615.2
498.063	7811.81
498.266	7885.53
498.469	7963.36
498.673	8022.75
498.876	8297.17
499.079	8293.08
499.282	8198.87
499.485	8565.46
499.689	8471.25
499.892	8700.62
500.095	8600.27
500.298	8952.52
500.501	8772.3
500.705	9185.99
500.908	9181.9
501.111	9329.35
501.314	9581.25
501.517	9634.5
501.72	9771.71
501.923	9896.64
502.126	10107.58
502.329	10369.72
502.532	10115.77
502.735	10142.39
502.938	10386.1
503.141	10574.52
503.344	10955.44
503.547	10711.73
503.75	10758.83
503.953	11197.1
504.156	11084.46
504.359	11483.81
504.562	11403.94
504.765	11850.4
504.968	11993.76
505.17	12004
505.373	11993.76
505.576	12253.85
505.779	12589.72
505.982	12567.19
506.185	12853.91
506.387	12833.43
506.59	13240.97
506.793	13335.18
506.996	13296.27
507.198	13664.9
507.401	13769.35
507.604	13765.25
507.807	14174.85
508.009	14379.64
508.212	14477.94
508.415	14611.06
508.617	14875.25
508.82	15008.37
509.022	14957.17
509.225	15166.06
509.428	15432.3
509.63	15573.61
509.833	15854.18
510.035	16052.83
510.238	16128.61
510.44	16331.36
510.643	16675.41
510.845	16769.62
511.048	16786.01
511.25	17064.53
511.453	17244.75
511.655	17889.86
511.858	17375.82
512.06	18076.23
512.262	17998.4
512.465	17879.62
512.667	18285.12
512.87	18643.51
513.072	18512.44
513.274	18887.22
513.477	19030.58
513.679	19485.23
513.881	19452.46
514.084	19999.27
514.286	19730.98
514.488	19974.69
514.69	20834.84
514.893	20562.46
515.095	20431.39
515.297	21010.96
515.499	21236.24
515.701	21565.96
515.904	21817.86
516.106	21717.51
516.308	22030.85
516.51	22245.89
516.712	22153.73
516.914	22503.93
517.116	22866.42
517.318	22860.28
517.52	23149.04
517.722	23251.44
517.925	23757.29
518.127	24300
518.329	24050.15
518.531	23939.56
518.733	24457.7
518.935	24783.32
519.136	24904.15
519.338	25268.69
519.54	24990.17
519.742	25567.7
519.944	25670.09
520.146	26202.57
520.348	26139.08
520.55	26438.08
520.752	26384.83
520.954	27052.47
521.155	26907.07
521.357	27359.67
521.559	27322.8
521.761	27904.43
521.963	27920.81
522.164	27945.39
522.366	27912.62
522.568	28520.87
522.77	28533.15
522.971	29067.67
523.173	28352.93
523.375	28838.3
523.576	28869.02
523.778	29387.16
523.98	29651.34
524.181	29798.8
524.383	29794.7
524.584	30267.78
524.786	30214.54
524.988	29897.1
525.189	30642.56
525.391	30800.26
525.592	30853.5
525.794	31023.48
525.995	31138.17
526.197	31498.61
526.398	31353.21
526.6	31895.92
526.801	31383.93
527.003	31582.58
527.204	31441.27
527.406	32096.62
527.607	32158.06
527.808	32225.64
528.01	31820.14
528.211	32475.49
528.412	32985.44
528.614	32807.26
528.815	32694.63
529.016	33098.08
529.218	32985.44
529.419	32762.21
529.62	33163.61
529.822	33120.6
530.023	33270.11
530.224	33089.88
530.425	33200.47
530.626	33280.35
530.828	33243.48
531.029	34093.39
531.23	33157.47
531.431	33425.75
531.632	33708.37
531.833	34181.45
532.035	33870.16
532.236	34171.21
532.437	33855.82
532.638	34163.02
532.839	34414.92
533.04	34052.43
533.241	34013.52
533.442	34752.84
533.643	34431.3
533.844	34390.34
534.045	34537.8
534.246	34259.27
534.447	34564.42
534.648	34322.76
534.849	34918.72
535.05	33980.75
535.251	34695.49
535.451	34300.23
535.652	34924.86
535.853	34570.57
536.054	34556.23
536.255	34572.61
536.456	34380.1
536.657	35002.69
536.857	34650.44
537.058	34826.56
537.259	34844.99
537.46	34726.21
537.66	34642.24
537.861	35025.21
538.062	34713.92
538.263	35338.55
538.463	34769.22
538.664	34931.01
538.865	35256.64
539.065	35326.27
539.266	34482.5
539.466	35406.14
539.667	34775.36
539.868	35795.25
540.068	35051.84
540.269	35139.9
540.469	35004.74
540.67	34865.47
540.87	35363.13
541.071	35088.7
541.271	35463.48
541.472	35012.93
541.672	34806.08
541.873	35293.5
542.073	34660.68
542.274	35578.17
542.474	35625.27
542.675	34601.29
542.875	35807.54
543.075	35387.71
543.276	34873.67
543.476	35428.66
543.676	35078.46
543.877	35127.61
544.077	35434.81
544.277	35203.39
544.478	35266.88
544.678	35549.49
544.878	35246.4
545.078	35162.43
545.279	35148.09
545.479	35203.39
545.679	35438.9
545.879	35340.6
546.079	35209.53
546.28	35189.05
546.48	35076.41
546.68	35426.62
546.88	35490.1
547.08	35100.99
547.28	35232.06
547.48	34840.9
547.68	35610.93
547.88	35158.33
548.081	36002.1
548.281	35367.23
548.481	35195.2
548.681	35625.27
548.881	35111.23
549.081	35856.69
549.28	35174.72
549.48	35477.82
549.68	34961.73
549.88	35293.5
550.08	35100.99
550.28	35467.58
550.48	35178.81
550.68	35537.21
550.88	35164.48
551.08	35492.15
551.279	35809.59
551.479	35293.5
551.679	35258.68
551.879	35170.62
552.079	35432.76
552.278	35252.54
552.478	35430.71
552.678	35248.44
552.878	35567.93
553.077	35131.71
553.277	35221.82
553.477	35871.03
553.676	35100.99
553.876	35311.93
554.076	35252.54
554.275	35213.63
554.475	35195.2
554.674	35164.48
554.874	35428.66
555.074	35146.05
555.273	35201.34
555.473	35336.51
555.672	35262.78
555.872	35006.78
556.071	35023.17
556.271	35447.1
556.47	35121.47
556.67	34953.54
556.869	34885.95
557.068	35088.7
557.268	34593.09
557.467	35215.68
557.667	34658.63
557.866	34599.24
558.065	34470.22
558.265	34668.87
558.464	34668.87
558.663	35238.2
558.863	34531.65
559.062	35258.68
559.261	34625.86
559.461	34730.31
559.66	34627.91
559.859	34844.99
560.058	34844.99
560.258	34505.03
560.457	34085.2
560.656	34687.3
560.855	34560.33
561.054	34777.41
561.253	34574.66
561.453	34476.36
561.652	34271.56
561.851	34992.45
562.05	34459.98
562.249	34427.21
562.448	34816.32
562.647	34289.99
562.846	34363.72
563.045	34576.71
563.244	33990.99
563.443	34646.34
563.642	34173.26
563.841	34156.88
564.04	34109.77
564.239	34371.91
564.438	34113.87
564.637	34089.29
564.836	34310.47
565.035	34320.71
565.234	34074.96
565.432	33710.42
565.631	33810.77
565.83	34242.89
566.029	34226.51
566.228	34015.57
566.427	34005.33
566.625	33683.8
566.824	33872.21
567.023	34072.91
567.222	33407.32
567.42	34179.4
567.619	33675.6
567.818	33515.86
568.016	33603.92
568.215	34158.92
568.414	33358.17
568.612	33872.21
568.811	33376.6
569.01	33917.26
569.208	33161.56
569.407	33530.2
569.605	33247.58
569.804	33626.45
570.002	32885.09
570.201	33317.21
570.4	33573.21
570.598	33022.3
570.797	33196.38
570.995	33425.75
571.193	32452.97
571.392	32909.66
571.59	32770.4
571.789	32872.8
571.987	32813.41
572.186	32801.12
572.384	32848.22
572.582	32921.95
572.781	32823.65
572.979	32825.7
573.177	32657.76
573.376	32510.31
573.574	32227.69
573.772	32446.82
573.971	32020.84
574.169	32115.05
574.367	31775.09
574.565	32223.59
574.763	32059.76
574.962	31693.17
575.16	31641.97
575.358	32000.37
575.556	31711.6
575.754	32176.49
575.952	31889.77
576.151	31906.16
576.349	31478.13
576.547	31560.05
576.745	31340.92
576.943	31584.63
577.141	31750.51
577.339	31353.21
577.537	31115.64
577.735	31144.31
577.933	31080.83
578.131	31295.86
578.329	30867.84
578.527	30742.91
578.725	30722.43
578.923	31201.66
579.121	30693.76
579.319	30595.46
579.516	30792.06
579.714	30761.34
579.912	30572.93
580.11	30779.78
580.308	30554.5
580.506	30321.03
580.704	30179.72
580.901	30232.97
581.099	30620.03
581.297	30159.24
581.495	29938.06
581.692	30093.71
581.89	29757.84
582.088	30241.16
582.285	29694.35
582.483	29778.32
582.681	29471.12
582.878	29526.42
583.076	29602.19
583.274	29843.85
583.471	29122.97
583.669	29532.56
583.866	29219.22
584.064	29143.45
584.262	28967.32
584.459	29036.95
584.657	29098.39
584.854	29421.97
585.052	28465.57
585.249	28434.85
585.447	28912.03
585.644	28527.01
585.841	28453.28
586.039	28711.33
586.236	28266.92
586.434	28447.14
586.631	28049.83
586.828	28164.52
587.026	28064.17
587.223	27754.93
587.42	28178.86
587.618	28328.36
587.815	27552.18
588.012	27924.91
588.21	27619.76
588.407	27795.89
588.604	27478.45
588.801	27470.26
588.999	27455.92
589.196	27584.94
589.393	27558.32
589.59	27050.42
589.787	27328.95
589.984	26952.12
590.182	26819
590.379	27009.47
590.576	26632.64
590.773	27124.15
590.97	26765.76
591.167	26976.7
591.364	26313.16
591.561	26802.62
591.758	26200.52
591.955	26239.43
592.152	26591.68
592.349	26274.24
592.546	26366.4
592.743	26479.04
592.94	25889.23
593.137	26165.7
593.334	26003.91
593.531	25905.61
593.727	25760.2
593.924	25754.06
594.121	25655.76
594.318	25817.55
594.515	25207.25
594.712	25653.71
594.908	25299.41
595.105	25797.07
595.302	25278.93
595.499	25280.98
595.696	24998.36
595.892	24762.84
596.089	25373.14
596.286	25090.52
596.482	24771.04
596.679	24740.32
596.876	25037.27
597.072	24664.54
597.269	24672.73
597.466	24637.92
597.662	24476.13
597.859	24615.39
598.055	24199.65
598.252	24140.26
598.448	24259.04
598.645	24121.83
598.841	24011.24
599.038	24048.1
599.234	23781.87
599.431	23671.28
599.627	23759.34
599.824	23953.9
600.02	23632.36
600.217	23663.08
600.413	23282.16
600.609	23364.08
600.806	23372.27
601.002	23384.56
601.198	23179.76
601.395	22843.9
601.591	23132.66
601.787	23009.78
601.984	22802.94
602.18	23028.21
602.376	22778.36
602.572	22772.22
602.769	22512.13
602.965	22448.64
603.161	22592
603.357	22231.55
603.553	22221.31
603.75	22317.57
603.946	22266.37
604.142	22102.53
604.338	21889.54
604.534	22047.24
604.73	21928.45
604.926	21674.51
605.122	22012.42
605.318	21633.55
605.514	21608.97
605.71	21725.71
605.906	21631.5
606.102	21506.57
606.298	21699.08
606.494	21498.38
606.69	21641.74
606.886	21703.18
607.082	21355.02
607.278	21328.4
607.474	21144.08
607.67	21357.07
607.866	20906.52
608.062	20937.24
608.257	20984.34
608.453	21148.18
608.649	20849.18
608.845	21039.64
609.041	20994.58
609.236	20834.84
609.432	20544.03
609.628	20580.89
609.824	20511.26
610.019	20048.42
610.215	20406.81
610.411	20367.9
610.606	20537.88
610.802	20384.29
610.998	20255.26
611.193	20367.9
611.389	20222.5
611.584	20087.33
611.78	20066.85
611.976	20445.73
612.171	20367.9
612.367	20189.73
612.562	20083.23
612.758	19884.58
612.953	19921.45
613.149	20025.89
613.344	19876.39
613.539	20144.67
613.735	19739.18
613.93	19561
614.126	19399.21
614.321	19679.79
614.517	19659.31
614.712	19638.83
614.907	19466.8
615.103	19505.71
615.298	19472.94
615.493	19552.81
615.688	19141.17
615.884	19810.86
616.079	18928.18
616.274	19221.04
616.47	19411.5
616.665	18930.23
616.86	18819.64
617.055	19132.98
617.25	19026.48
617.445	19046.96
617.641	18481.72
617.836	18887.22
618.031	18694.71
618.226	18850.36
618.421	18776.63
618.616	18784.82
618.811	18459.2
619.006	18684.47
619.201	18149.95
619.396	18381.37
619.591	18084.42
619.786	18354.75
619.981	17828.42
620.176	18092.61
620.371	17920.58
620.566	17859.14
620.761	17828.42
620.956	18063.94
621.151	17713.74
621.346	17553.99
621.541	17379.92
621.735	17646.15
621.93	17207.89
622.125	17308.24
622.32	16923.22
622.515	17105.49
622.709	16661.08
622.904	16857.68
623.099	16636.5
623.294	16878.16
623.488	16482.91
623.683	16818.77
623.878	16550.49
624.072	16259.68
624.267	16554.58
624.462	16142.94
624.656	16247.39
624.851	16292.44
625.046	15876.71
625.24	16058.98
625.435	15891.04
625.629	16003.68
625.824	15442.54
626.018	15731.3
626.213	15442.54
626.407	15501.93
626.602	15239.79
626.796	15137.39
626.991	15258.22
627.185	15110.77
627.38	15002.22
627.574	14877.3
627.768	14592.63
627.963	14746.23
628.157	14563.96
628.352	14740.08
628.546	14197.37
628.74	14715.51
628.935	14451.32
629.129	14559.86
629.323	14092.93
629.517	14111.36
629.712	14293.63
629.906	14076.54
630.1	13877.89
630.294	13816.45
630.489	13652.61
630.683	13855.36
630.877	13474.44
631.071	13656.71
631.265	13513.35
631.459	13402.76
631.653	13406.86
631.848	13513.35
632.042	13300.36
632.236	13177.48
632.43	13128.33
632.624	12882.58
632.818	12853.91
633.012	12608.15
633.206	12858
633.4	12706.45
633.594	12710.55
633.788	12677.78
633.982	12733.08
634.176	12640.92
634.369	12403.35
634.563	12597.91
634.757	12245.66
634.951	12341.91
635.145	12253.85
635.339	12327.58
635.533	12018.33
635.726	12145.31
635.92	11891.36
636.114	11932.32
636.308	11668.13
636.501	11633.32
636.695	11793.06
636.889	11573.92
637.083	11739.81
637.276	11596.45
637.47	11565.73
637.664	11279.02
637.857	11463.33
638.051	11358.89
638.244	11147.95
638.438	11127.47
638.632	10967.73
638.825	10891.95
639.019	10810.03
639.212	10910.38
639.406	10875.57
639.599	10519.22
639.793	10549.94
639.986	10576.56
640.18	10758.83
640.373	10592.95
640.567	10410.68
640.76	10736.31
640.954	10246.84
641.147	10275.51
641.34	10418.87
641.534	10392.25
641.727	10359.48
641.92	10246.84
642.114	9851.58
642.307	9951.93
642.5	9886.4
642.694	9798.34
642.887	9786.05
643.08	9882.3
643.273	9831.1
643.467	9534.15
643.66	9616.07
643.853	9509.57
644.046	9448.13
644.239	9474.76
644.432	9589.44
644.626	9355.97
644.819	9419.46
645.012	9321.16
645.205	9319.11
645.398	9067.21
645.591	9194.19
645.784	9071.31
645.977	8917.71
646.17	8794.83
646.363	8774.35
646.556	8725.2
646.749	8651.47
646.942	8960.72
647.135	8540.88
647.328	8674
647.521	8536.79
647.714	8528.6
647.907	8323.8
648.099	8430.29
648.292	8196.82
648.485	8299.22
648.678	8264.41
648.871	8217.3
649.064	8075.99
649.256	8235.74
649.449	8028.89
649.642	8065.75
649.835	7914.2
650.027	8065.75
650.22	7912.16
650.413	7779.04
650.605	7885.53
650.798	7572.19
650.991	7674.59
651.183	7748.32
651.376	7764.7
651.568	7658.21
651.761	7672.54
651.954	7488.23
652.146	7588.58
652.339	7437.03
652.531	7471.84
652.724	7219.94
652.916	7230.18
653.109	7250.66
653.301	7207.66
653.494	7211.75
653.686	6972.14
653.879	7240.42
654.071	7174.89
654.263	6961.9
654.456	6857.45
654.648	6877.93
654.84	6775.53
655.033	6998.76
655.225	6732.53
655.417	6656.75
655.61	6611.7
655.802	6626.03
655.994	6486.77
656.186	6636.27
656.379	6566.64
656.571	6374.13
656.763	6451.95
656.955	6417.14
657.148	6392.56
657.34	6329.08
657.532	6105.85
657.724	6241.01
657.916	6032.12
658.108	6148.86
658.3	6148.86
658.492	6034.17
658.684	6021.88
658.876	6111.99
659.068	6025.98
659.26	5796.6
659.452	5835.52
659.644	5999.35
659.836	5774.08
660.028	5745.41
660.22	5618.43
660.412	5700.35
660.604	5495.55
660.796	5665.53
660.988	5528.32
661.18	5409.54
661.372	5579.52
661.563	5645.06
661.755	5513.99
661.947	5350.15
662.139	5169.93
662.331	5233.41
662.522	5247.75
662.714	5131.02
662.906	5262.09
663.097	5229.32
663.289	5012.23
663.481	5061.38
663.673	5073.67
663.864	4975.37
664.056	4881.16
664.247	4913.93
664.439	4784.91
664.631	4813.58
664.822	4789
665.014	4836.11
665.205	4778.76
665.397	4469.52
665.588	4621.07
665.78	4629.26
665.971	4508.43
666.163	4592.4
666.354	4453.14
666.546	4528.91
666.737	4580.11
666.929	4508.43
667.12	4578.06
667.311	4350.74
667.503	4387.6
667.694	4309.78
667.885	4477.71
668.077	4334.36
668.268	4274.96
668.459	4256.53
668.651	4186.9
668.842	4266.77
669.033	4068.12
669.224	3955.48
669.416	4061.98
669.607	4000.54
669.798	3996.44
669.989	3961.62
670.18	3965.72
670.371	3838.75
670.563	3939.1
670.754	3883.8
670.945	3791.64
671.136	3826.46
671.327	3754.78
671.518	3732.25
671.709	3754.78
671.9	3894.04
672.091	3726.11
672.282	3750.68
672.473	3660.57
672.664	3693.34
672.855	3754.78
673.046	3715.87
673.237	3568.41
673.428	3629.85
673.619	3646.24
673.809	3580.7
674	3570.46
674.191	3513.12
674.382	3459.87
674.573	3472.16
674.764	3617.57
674.954	3392.29
675.145	3390.24
675.336	3431.2
675.527	3369.76
675.717	3281.7
675.908	3296.04
676.099	3343.14
676.289	3277.6
676.48	3334.95
676.671	3199.78
676.861	3390.24
677.052	3386.15
677.243	3234.6
677.433	3187.49
677.624	3210.02
677.814	3164.97
678.005	3121.96
678.195	3201.83
678.386	3113.77
678.576	3183.4
678.767	3113.77
678.957	3037.99
679.148	3203.88
679.338	3173.16
679.529	3040.04
679.719	3011.37
679.909	3074.85
680.1	3107.62
680.29	2978.6
680.481	3025.7
680.671	2982.7
680.861	2954.02
681.052	2939.69
681.242	2863.91
681.432	3003.18
681.622	2974.5
681.813	2865.96
682.003	2958.12
682.193	2958.12
682.383	2943.78
682.573	2890.54
682.764	3011.37
682.954	2956.07
683.144	2849.58
683.334	2779.95
683.524	2833.19
683.714	2767.66
683.904	2757.42
684.094	2911.02
684.284	2775.85
684.474	2958.12
684.664	2792.23
684.854	2841.39
685.044	2730.8
685.234	2796.33
685.424	2693.93
685.614	2741.04
685.804	2857.77
685.994	2835.24
686.184	2784.04
686.374	2784.04
686.564	2700.08
686.753	2839.34
686.943	2718.51
687.133	2773.8
687.323	2761.52
687.513	2777.9
687.702	2851.63
687.892	2695.98
688.082	2687.79
688.272	2706.22
688.461	2638.64
688.651	2714.41
688.841	2644.78
689.03	2755.37
689.22	2675.5
689.41	2603.82
689.599	2671.4
689.789	2714.41
689.979	2677.55
690.168	2716.46
690.358	2718.51
690.547	2650.92
690.737	2665.26
690.926	2741.04
691.116	2566.96
691.305	2540.33
691.495	2689.84
691.684	2618.16
691.874	2638.64
692.063	2671.4
692.252	2487.09
692.442	2675.5
692.631	2599.73
692.82	2564.91
693.01	2632.49
693.199	2560.81
693.388	2605.87
693.578	2669.36
693.767	2476.85
693.956	2476.85
694.146	2612.01
694.335	2571.05
694.524	2603.82
694.713	2528.05
694.902	2562.86
695.092	2511.66
695.281	2532.14
695.47	2509.62
695.659	2403.12
695.848	2403.12
696.037	2337.59
696.226	2554.67
696.415	2429.74
696.604	2482.99
696.793	2405.17
696.982	2448.18
697.171	2390.83
697.36	2495.28
697.549	2323.25
697.738	2374.45
697.927	2458.42
698.116	2454.32
698.305	2454.32
698.494	2425.65
698.683	2253.62
698.872	2378.55
699.061	2423.6
699.25	2458.42
699.438	2265.91
699.627	2448.18
699.816	2335.54
700.005	2304.82
700.193	2327.35
700.382	2329.39
700.571	2253.62
700.76	2282.29
700.948	2224.95
701.137	2200.37
701.326	2296.63
701.514	2270
701.703	2343.73
701.892	2134.84
702.08	2300.72
702.269	2296.63
702.457	2175.8
702.646	2192.18
702.834	2091.83
703.023	2108.21
703.212	2231.09
703.4	2212.66
703.589	2167.6
703.777	2026.29
703.965	2011.96
704.154	2200.37
704.342	2100.02
704.531	1997.62
704.719	2044.73
704.907	2120.5
705.096	1977.14
705.284	2085.69
705.472	1999.67
705.661	1938.23
705.849	2050.87
706.037	1971
706.226	2071.35
706.414	2046.77
706.602	1981.24
706.79	1936.18
706.979	1981.24
707.167	1915.7
707.355	1925.94
707.543	1977.14
707.731	1948.47
707.919	1966.9
708.107	1971
708.296	1944.38
708.484	1702.72
708.672	1819.45
708.86	1774.39
709.048	1774.39
709.236	1891.13
709.424	1798.97
709.612	1819.45
709.8	1760.06
709.988	1715
710.176	1835.83
710.364	1856.31
710.551	1635.13
710.739	1813.31
710.927	1776.44
711.115	1647.42
711.303	1782.59
711.491	1747.77
711.679	1706.81
711.866	1729.34
712.054	1639.23
712.242	1727.29
712.43	1655.61
712.617	1676.09
712.805	1659.71
712.993	1575.74
713.181	1661.76
713.368	1762.11
713.556	1696.57
713.744	1651.52
713.931	1680.19
714.119	1661.76
714.306	1575.74
714.494	1569.6
714.682	1581.89
714.869	1594.17
715.057	1575.74
715.244	1594.17
715.432	1436.48
715.619	1622.84
715.807	1514.3
715.994	1506.11
716.182	1555.26
716.369	1526.59
716.556	1620.8
716.744	1491.77
716.931	1424.19
717.119	1497.92
717.306	1542.97
717.493	1409.86
717.681	1491.77
717.868	1502.01
718.055	1475.39
718.242	1475.39
718.43	1428.29
718.617	1477.44
718.804	1379.14
718.991	1444.67
719.179	1375.04
719.366	1325.89
719.553	1469.25
719.74	1336.13
719.927	1346.37
720.114	1321.79
720.301	1282.88
720.488	1342.27
720.676	1338.18
720.863	1282.88
721.05	1286.98
721.237	1354.56
721.424	1329.99
721.611	1284.93
721.798	1372.99
721.985	1270.59
722.172	1239.87
722.358	1221.44
722.545	1215.3
722.732	1260.35
722.919	1215.3
723.106	1309.51
723.293	1235.78
723.48	1233.73
723.667	1352.51
723.853	1219.39
724.04	1223.49
724.227	1223.49
724.414	1221.44
724.6	1286.98
724.787	1155.91
724.974	1252.16
725.161	1207.11
725.347	1213.25
725.534	1135.43
725.72	1100.61
725.907	1176.39
726.094	1141.57
726.28	1133.38
726.467	1145.67
726.653	1164.1
726.84	1098.56
727.027	1137.48
727.213	1117
727.4	1114.95
727.586	1147.72
727.773	1076.04
727.959	987.97
728.145	1104.71
728.332	1018.69
728.518	1162.05
728.705	1065.8
728.891	1135.43
729.077	1125.19
729.264	1035.08
729.45	951.11
729.636	1024.84
729.823	1012.55
730.009	1010.5
730.195	1018.69
730.382	1028.93
730.568	1014.6
730.754	1092.42
730.94	1061.7
731.126	1010.5
731.313	973.64
731.499	998.21
731.685	977.73
731.871	924.49
732.057	1006.41
732.243	1012.55
732.429	951.11
732.615	942.92
732.801	1026.89
732.987	901.96
733.173	1012.55
733.359	953.16
733.545	992.07
733.731	848.71
733.917	977.73
734.103	918.34
734.289	901.96
734.475	975.69
734.661	981.83
734.847	924.49
735.033	877.38
735.219	861
735.404	887.62
735.59	912.2
735.776	973.64
735.962	863.05
736.148	897.86
736.333	848.71
736.519	848.71
736.705	852.81
736.89	828.23
737.076	867.14
737.262	899.91
737.447	858.95
737.633	832.33
737.819	854.86
738.004	832.33
738.19	891.72
738.375	750.41
738.561	852.81
738.747	856.9
738.932	779.08
739.118	795.47
739.303	826.18
739.489	848.71
739.674	805.71
739.859	672.59
740.045	770.89
740.23	746.31
740.416	809.8
740.601	701.26
740.786	803.66
740.972	727.88
741.157	699.21
741.342	817.99
741.528	650.06
741.713	744.27
741.898	672.59
742.084	688.97
742.269	680.78
742.454	680.78
742.639	725.83
742.824	697.16
743.01	754.51
743.195	709.45
743.38	719.69
743.565	645.96
743.75	682.83
743.935	768.84
744.12	723.79
744.305	615.24
744.49	695.11
744.675	668.49
744.86	682.83
745.045	688.97
745.23	611.15
745.415	639.82
745.6	701.26
745.785	582.48
745.97	617.29
746.155	727.88
746.34	695.11
746.525	645.96
746.71	555.85
746.895	564.04
747.079	572.24
747.264	621.39
747.449	654.16
747.634	648.01
747.819	545.61
748.003	617.29
748.188	559.95
748.373	623.44
748.557	590.67
748.742	541.52
748.927	506.7
749.111	590.67
749.296	639.82
749.481	562
749.665	553.8
749.85	518.99
750.034	621.39
750.219	566.09
750.404	498.51
750.588	584.52
750.773	516.94
750.957	543.57
751.141	453.45
751.326	535.37
751.51	492.37
751.695	553.8
751.879	422.73
752.064	504.65
752.248	553.8
752.432	492.37
752.617	512.85
752.801	553.8
752.985	482.13
753.17	475.98
753.354	447.31
753.538	523.09
753.722	498.51
753.907	475.98
754.091	500.56
754.275	510.8
754.459	475.98
754.643	486.22
754.828	535.37
755.012	480.08
755.196	471.89
755.38	455.5
755.564	426.83
755.748	510.8
755.932	410.45
756.116	467.79
756.3	383.82
756.484	402.26
756.668	402.26
756.852	410.45
757.036	469.84
757.22	543.57
757.404	475.98
757.588	389.97
757.772	359.25
757.956	492.37
758.14	490.32
758.323	426.83
758.507	441.17
758.691	475.98
758.875	394.06
759.059	351.06
759.242	430.93
759.426	346.96
759.61	394.06
759.794	424.78
759.977	453.45
760.161	521.04
760.345	394.06
760.528	422.73
760.712	428.88
760.895	330.58
761.079	361.3
761.263	377.68
761.446	424.78
761.63	387.92
761.813	351.06
761.997	396.11
762.18	334.67
762.364	365.39
762.547	353.1
762.731	396.11
762.914	363.34
763.098	385.87
763.281	344.91
763.464	367.44
763.648	342.86
763.831	295.76
764.015	361.3
764.198	310.1
764.381	287.57
764.564	318.29
764.748	320.34
764.931	361.3
765.114	340.82
765.297	320.34
765.481	367.44
765.664	301.9
765.847	310.1
766.03	375.63
766.213	365.39
766.397	334.67
766.58	330.58
766.763	351.06
766.946	342.86
767.129	316.24
767.312	359.25
767.495	246.61
767.678	437.07
767.861	316.24
768.044	303.95
768.227	385.87
768.41	332.62
768.593	369.49
768.776	308.05
768.959	267.09
769.142	330.58
769.324	222.03
769.507	369.49
769.69	297.81
769.873	355.15
770.056	365.39
770.239	320.34
770.421	338.77
770.604	260.95
770.787	353.1
770.97	363.34
771.152	375.63
771.335	260.95
771.518	351.06
771.7	351.06
771.883	240.47
772.066	287.57
772.248	246.61
772.431	400.21
772.613	299.86
772.796	312.14
772.978	250.71
773.161	361.3
773.343	275.28
773.526	285.52
773.708	215.89
773.891	262.99
774.073	271.19
774.256	265.04
774.438	267.09
774.621	308.05
774.803	332.62
774.985	293.71
775.168	314.19
775.35	240.47
775.532	330.58
775.715	258.9
775.897	238.42
776.079	281.43
776.261	346.96
776.444	326.48
776.626	281.43
776.808	281.43
776.99	303.95
777.173	258.9
777.355	252.75
777.537	310.1
777.719	275.28
777.901	260.95
778.083	328.53
778.265	199.51
778.447	277.33
778.629	246.61
778.811	219.99
778.993	179.03
779.175	320.34
779.357	234.32
779.539	222.03
779.721	258.9
779.903	203.6
780.085	242.51
780.267	265.04
780.449	215.89
780.631	217.94
780.812	244.56
780.994	256.85
781.176	232.27
781.358	219.99
781.54	275.28
781.721	203.6
781.903	236.37
782.085	252.75
782.267	267.09
782.448	236.37
782.63	179.03
782.812	191.31
782.993	211.79
783.175	219.99
783.357	187.22
783.538	203.6
783.72	207.7
783.901	209.75
784.083	197.46
784.264	240.47
784.446	207.7
784.627	228.18
784.809	189.27
784.99	168.79
785.172	166.74
785.353	133.97
785.535	240.47
785.716	217.94
785.897	174.93
786.079	248.66
786.26	246.61
786.441	203.6
786.623	183.12
786.804	207.7
786.985	144.21
787.167	211.79
787.348	207.7
787.529	211.79
787.71	197.46
787.891	226.13
788.073	156.5
788.254	181.07
788.435	179.03
788.616	234.32
788.797	197.46
788.978	121.68
789.159	181.07
789.34	154.45
789.522	170.83
789.703	74.58
789.884	179.03
790.065	64.34
790.246	127.83
790.427	170.83
790.607	162.64
790.788	160.59
790.969	142.16
791.15	222.03
791.331	168.79
791.512	144.21
791.693	172.88
791.874	129.88
792.054	146.26
792.235	170.83
792.416	140.12
792.597	226.13
792.778	131.92
792.958	228.18
793.139	115.54
793.32	133.97
793.5	76.63
793.681	148.31
793.862	176.98
794.042	129.88
794.223	47.96
794.404	174.93
794.584	168.79
794.765	154.45
794.945	107.35
795.126	111.44
795.306	133.97
795.487	109.4
795.667	185.17
795.848	136.02
796.028	127.83
796.209	115.54
796.389	101.2
796.57	127.83
796.75	84.82
796.93	154.45
797.111	107.35
797.291	111.44
797.471	101.2
797.652	127.83
797.832	90.96
798.012	74.58
798.192	43.86
798.373	93.01
798.553	142.16
798.733	90.96
798.913	15.19
799.093	64.34
799.274	105.3
799.454	152.4
799.634	74.58
799.814	84.82
799.994	82.77
800.174	72.53
800.354	74.58
800.534	45.91
800.714	99.16
800.894	99.16
801.074	66.39
801.254	140.12
801.434	158.55
801.614	90.96
801.794	90.96
801.974	299.86
802.154	195.41
802.334	109.4
802.514	88.92
802.693	88.92
802.873	7
803.053	109.4
803.233	133.97
803.413	88.92
803.592	88.92
803.772	7
803.952	90.96
804.131	17.24
804.311	142.16
804.491	60.24
804.67	-5.29
804.85	111.44
805.03	35.67
805.209	117.59
805.389	109.4
805.568	74.58
805.748	47.96
805.928	97.11
806.107	99.16
806.287	74.58
806.466	101.2
806.646	123.73
806.825	19.29
807.004	41.81
807.184	121.68
807.363	131.92
807.543	29.52
807.722	99.16
807.901	97.11
808.081	138.07
808.26	7
808.439	80.72
808.619	131.92
808.798	56.15
808.977	131.92
809.156	95.06
809.336	117.59
809.515	76.63
809.694	101.2
809.873	74.58
810.052	0.85
810.231	113.49
810.411	117.59
810.59	95.06
810.769	109.4
810.948	80.72
811.127	72.53
811.306	60.24
811.485	35.67
811.664	146.26
811.843	111.44
812.022	39.76
812.201	70.48
812.38	39.76
812.559	64.34
812.737	72.53
812.916	-9.39
813.095	105.3
813.274	2.9
813.453	109.4
813.632	7
813.811	113.49
813.989	121.68
814.168	50
814.347	50
814.526	93.01
814.704	64.34
814.883	15.19
815.062	45.91
815.24	60.24
815.419	-33.96
815.598	109.4
815.776	-1.19
815.955	-1.19
816.133	54.1
816.312	80.72
816.49	-27.82
816.669	23.38
816.847	90.96
817.026	33.62
817.204	39.76
817.383	-9.39
817.561	23.38
817.74	78.68
817.918	70.48
818.097	52.05
818.275	129.88
818.453	66.39
818.632	4.95
818.81	86.87
818.988	64.34
819.167	144.21
819.345	21.33
819.523	41.81
819.701	56.15
819.879	82.77
820.058	27.48
820.236	117.59
820.414	23.38
820.592	78.68
820.77	25.43
820.948	123.73
821.127	19.29
821.305	111.44
821.483	33.62
821.661	82.77
821.839	-52.39
822.017	68.44
822.195	50
822.373	43.86
822.551	23.38
822.729	13.14
822.907	31.57
823.085	-11.43
823.262	-25.77
823.44	25.43
823.618	146.26
823.796	58.2
823.974	-9.39
824.152	39.76
824.329	54.1
824.507	99.16
824.685	70.48
824.863	80.72
825.04	64.34
825.218	31.57
825.396	82.77
825.574	97.11
825.751	62.29
825.929	50
826.107	27.48
826.284	25.43
826.462	82.77
826.639	9.05
826.817	15.19
826.994	17.24
827.172	-29.87
827.349	7
827.527	93.01
827.704	35.67
827.882	90.96
828.059	76.63
828.237	25.43
828.414	84.82
828.591	43.86
828.769	37.72
828.946	-36.01
829.124	39.76
829.301	66.39
829.478	-5.29
829.655	64.34
829.833	64.34
830.01	-3.24
830.187	64.34
830.364	-33.96
830.542	31.57
830.719	27.48
830.896	60.24
831.073	70.48
831.25	50
831.427	23.38
831.604	4.95
831.782	4.95
831.959	-29.87
832.136	101.2
832.313	-1.19
832.49	45.91
832.667	80.72
832.844	-25.77
833.021	78.68
833.198	33.62
833.374	52.05
833.551	37.72
833.728	-50.35
833.905	-1.19
834.082	25.43
834.259	64.34
834.436	70.48
834.612	-33.96
834.789	-13.48
834.966	-13.48
835.143	39.76
835.319	15.19
835.496	47.96
835.673	-33.96
835.85	33.62
836.026	7
836.203	0.85
836.38	43.86
836.556	-5.29
836.733	2.9
836.909	11.09
837.086	13.14
837.262	17.24
837.439	27.48
837.616	7
837.792	60.24
837.968	50
838.145	64.34
838.321	7
838.498	19.29
838.674	54.1
838.851	19.29
839.027	37.72
839.203	43.86
839.38	47.96
839.556	-9.39
839.732	58.2
839.909	7
840.085	31.57
840.261	-31.91
840.437	17.24
840.614	37.72
840.79	68.44
840.966	19.29
841.142	-15.53
841.318	39.76
841.494	17.24
841.671	72.53
841.847	9.05
842.023	-62.63
842.199	80.72
842.375	64.34
842.551	21.33
842.727	37.72
842.903	35.67
843.079	29.52
843.255	99.16
843.431	82.77
843.607	21.33
843.783	39.76
843.959	11.09
844.134	-7.34
844.31	19.29
844.486	-21.67
844.662	25.43
844.838	-50.35
845.013	103.25
845.189	9.05
845.365	-11.43
845.541	7
845.716	56.15
845.892	72.53
846.068	56.15
846.244	37.72
846.419	13.14
846.595	-7.34
846.77	19.29
846.946	74.58
847.122	-13.48
847.297	17.24
847.473	-21.67
847.648	23.38
847.824	19.29
847.999	-5.29
848.175	62.29
848.35	72.53
848.526	7
848.701	13.14
848.876	64.34
849.052	35.67
849.227	99.16
849.403	-19.63
849.578	0.85
849.753	15.19
849.929	-27.82
850.104	-15.53
850.279	13.14
850.454	-42.15
850.63	47.96
850.805	-27.82
850.98	60.24
851.155	70.48
851.33	-9.39
851.505	0.85
851.681	82.77
851.856	11.09
852.031	4.95
852.206	47.96
852.381	19.29
852.556	0.85
852.731	27.48
852.906	17.24
853.081	90.96
853.256	72.53
853.431	-33.96
853.606	-38.06
853.781	47.96
853.956	19.29
854.131	31.57
854.305	62.29
854.48	103.25
854.655	2.9
854.83	-17.58
855.005	4.95
855.18	9.05
855.354	-5.29
855.529	13.14
855.704	-56.49
855.879	31.57
856.053	35.67
856.228	72.53
856.403	37.72
856.577	74.58
856.752	-31.91
856.926	113.49
857.101	-56.49
857.276	-17.58
857.45	23.38
857.625	99.16
857.799	11.09
857.974	33.62
858.148	37.72
858.323	4.95
858.497	54.1
858.672	33.62
858.846	2.9
859.02	82.77
859.195	-15.53
859.369	4.95
859.543	19.29
859.718	47.96
859.892	19.29
860.066	19.29
860.241	33.62
860.415	-9.39
860.589	23.38
860.763	-23.72
860.938	-5.29
861.112	-17.58
861.286	-17.58
861.46	64.34
861.634	19.29
861.808	13.14
861.982	25.43
862.157	78.68
862.331	17.24
862.505	19.29
862.679	-72.87
862.853	-23.72
863.027	-27.82
863.201	-19.63
863.375	23.38
863.549	54.1
863.722	-48.3
863.896	31.57
864.07	-27.82
864.244	-60.59
864.418	11.09
864.592	-60.59
864.766	15.19
864.939	31.57
865.113	-19.63
865.287	62.29
865.461	-27.82
865.634	-19.63
865.808	-36.01
865.982	50
866.156	90.96
866.329	-38.06
866.503	39.76
866.676	58.2
866.85	23.38
867.024	19.29
867.197	60.24
867.371	-5.29
867.544	-48.3
867.718	-13.48
867.891	9.05
868.065	-27.82
868.238	47.96
868.412	86.87
868.585	29.52
868.759	-25.77
868.932	-42.15
869.105	-19.63
869.279	84.82
869.452	-23.72
869.625	-31.91
869.799	-15.53
869.972	31.57
870.145	33.62
870.319	50
870.492	-21.67
870.665	17.24
870.838	39.76
871.011	-27.82
871.185	7
871.358	66.39
871.531	-38.06
871.704	-46.25
871.877	-60.59
872.05	4.95
872.223	27.48
872.396	-1.19
872.569	25.43
872.742	-81.07
872.915	47.96
873.088	-36.01
873.261	19.29
873.434	-13.48
873.607	33.62
873.78	33.62
873.953	45.91
874.126	-27.82
874.299	-25.77
874.471	0.85
874.644	17.24
874.817	2.9
874.99	-72.87
875.163	2.9
875.335	56.15
875.508	-17.58
875.681	-21.67
875.853	9.05
876.026	7
876.199	-9.39
876.371	-17.58
876.544	2.9
876.717	72.53
876.889	29.52
877.062	7
877.234	0.85
877.407	7
877.579	-36.01
877.752	15.19
877.924	-42.15
878.097	50
878.269	35.67
878.442	-42.15
878.614	-52.39
878.786	-38.06
878.959	-15.53
879.131	9.05
879.303	39.76
879.476	-70.83
879.648	-25.77
879.82	19.29
879.993	29.52
880.165	50
880.337	15.19
880.509	-17.58
880.681	39.76
880.854	117.59
881.026	-1.19
881.198	-13.48
881.37	33.62
881.542	17.24
881.714	-7.34
881.886	21.33
882.058	-29.87
882.23	-9.39
882.402	15.19
882.574	64.34
882.746	45.91
882.918	80.72
883.09	19.29
883.262	54.1
883.434	95.06
883.606	-15.53
883.778	13.14
883.95	-13.48
884.122	-3.24
884.293	9.05
884.465	-52.39
884.637	41.81
884.809	-13.48
884.98	-13.48
885.152	2.9
885.324	56.15
885.496	25.43
885.667	82.77
885.839	19.29
886.011	50
886.182	-46.25
886.354	45.91
886.525	-27.82
886.697	88.92
886.869	4.95
887.04	11.09
887.212	52.05
887.383	-9.39
887.555	-1.19
887.726	70.48
887.897	-17.58
888.069	-44.2
888.24	31.57
888.412	-7.34
888.583	23.38
888.754	-25.77
888.926	33.62
889.097	11.09
889.268	-56.49
889.44	-7.34
889.611	-89.26
889.782	13.14
889.953	-7.34
890.125	-1.19
890.296	39.76
890.467	29.52
890.638	27.48
890.809	-33.96
890.98	-29.87
891.151	11.09
891.323	29.52
891.494	50
891.665	-56.49
891.836	25.43
892.007	-25.77
892.178	17.24
892.349	-29.87
892.52	43.86
892.691	11.09
892.862	4.95
893.032	-62.63
893.203	23.38
893.374	-23.72
893.545	35.67
893.716	7
893.887	-19.63
894.057	-31.91
894.228	27.48
894.399	29.52
894.57	11.09
894.74	-17.58
894.911	41.81
895.082	47.96
895.253	47.96
895.423	-36.01
895.594	66.39
895.764	29.52
895.935	-21.67
896.106	62.29
896.276	39.76
896.447	-17.58
896.617	-33.96
896.788	50
896.958	-1.19
897.129	-7.34
897.299	33.62
897.47	-5.29
897.64	25.43
897.81	-15.53
897.981	-54.44
898.151	33.62
898.322	2.9
898.492	-97.45
898.662	-25.77
898.832	9.05
899.003	-17.58
899.173	4.95
899.343	101.2
899.513	-1.19
