Data from USB4F104151__60__12-54-06-263.txt Node

Date: Fri Mar 14 12:54:06 EDT 2025
User: louis
Spectrometer: USB4F10415
Trigger mode: 4
Integration Time (sec): 1.000000E-2
Scans to average: 1
Electric dark correction enabled: true
Nonlinearity correction enabled: false
Boxcar width: 0
XAxis mode: Wavelengths
Number of Pixels in Spectrum: 3648
>>>>>Begin Spectral Data<<<<<
178.204	-107.01
178.424	-107.01
178.644	-107.01
178.864	50.69
179.084	-31.23
179.304	22.02
179.524	22.02
179.744	73.21
179.964	-37.38
180.184	15.87
180.404	9.73
180.624	-20.99
180.844	-16.9
181.064	-31.23
181.283	-33.28
181.503	15.87
181.723	-18.94
181.943	-76.29
182.163	5.63
182.383	15.87
182.602	13.82
182.822	38.4
183.042	7.68
183.262	54.78
183.482	-14.85
183.701	40.45
183.921	3.58
184.141	-37.38
184.361	73.21
184.58	38.4
184.8	52.74
185.02	28.16
185.239	9.73
185.459	36.35
185.679	40.45
185.898	30.21
186.118	22.02
186.338	26.11
186.557	-59.9
186.777	17.92
186.997	24.06
187.216	73.21
187.436	19.97
187.655	28.16
187.875	22.02
188.095	-37.38
188.314	38.4
188.534	36.35
188.753	11.78
188.973	85.5
189.192	7.68
189.412	9.73
189.631	52.74
189.851	-6.66
190.07	38.4
190.29	-20.99
190.509	60.93
190.729	-8.7
190.948	5.63
191.168	60.93
191.387	17.92
191.607	44.54
191.826	28.16
192.045	32.26
192.265	-14.85
192.484	26.11
192.704	48.64
192.923	54.78
193.142	-25.09
193.362	50.69
193.581	9.73
193.8	1.54
194.02	22.02
194.239	26.11
194.458	-4.61
194.678	-41.47
194.897	3.58
195.116	-41.47
195.335	17.92
195.555	38.4
195.774	-27.14
195.993	-12.8
196.212	-16.9
196.432	58.88
196.651	50.69
196.87	26.11
197.089	9.73
197.308	7.68
197.528	30.21
197.747	71.17
197.966	13.82
198.185	81.41
198.404	52.74
198.623	77.31
198.842	3.58
199.062	-20.99
199.281	69.12
199.5	67.07
199.719	130.56
199.938	38.4
200.157	28.16
200.376	32.26
200.595	-25.09
200.814	24.06
201.033	5.63
201.252	1.54
201.471	65.02
201.69	77.31
201.909	40.45
202.128	65.02
202.347	79.36
202.566	40.45
202.785	-31.23
203.004	-0.51
203.223	-10.75
203.442	-39.42
203.661	26.11
203.879	13.82
204.098	30.21
204.317	52.74
204.536	85.5
204.755	-72.19
204.974	13.82
205.193	9.73
205.411	91.65
205.63	28.16
205.849	71.17
206.068	-4.61
206.287	-16.9
206.505	5.63
206.724	52.74
206.943	-12.8
207.162	22.02
207.381	1.54
207.599	-37.38
207.818	50.69
208.037	13.82
208.255	32.26
208.474	67.07
208.693	-25.09
208.911	-27.14
209.13	38.4
209.349	-41.47
209.567	-4.61
209.786	38.4
210.005	11.78
210.223	19.97
210.442	-33.28
210.661	60.93
210.879	69.12
211.098	-31.23
211.316	1.54
211.535	-27.14
211.753	30.21
211.972	69.12
212.191	36.35
212.409	-18.94
212.628	19.97
212.846	40.45
213.065	44.54
213.283	44.54
213.502	65.02
213.72	-12.8
213.938	56.83
214.157	95.74
214.375	91.65
214.594	71.17
214.812	48.64
215.031	112.13
215.249	77.31
215.467	52.74
215.686	-8.7
215.904	7.68
216.122	38.4
216.341	79.36
216.559	7.68
216.778	-16.9
216.996	28.16
217.214	44.54
217.432	-4.61
217.651	38.4
217.869	-20.99
218.087	44.54
218.306	-18.94
218.524	34.3
218.742	-8.7
218.96	15.87
219.179	26.11
219.397	17.92
219.615	67.07
219.833	-16.9
220.051	-33.28
220.27	44.54
220.488	60.93
220.706	118.27
220.924	32.26
221.142	44.54
221.36	17.92
221.578	93.69
221.796	-12.8
222.015	52.74
222.233	28.16
222.451	-6.66
222.669	-12.8
222.887	32.26
223.105	11.78
223.323	-25.09
223.541	87.55
223.759	36.35
223.977	-8.7
224.195	56.83
224.413	83.45
224.631	-16.9
224.849	73.21
225.067	-10.75
225.285	48.64
225.503	73.21
225.721	46.59
225.939	7.68
226.157	-8.7
226.375	128.51
226.592	-14.85
226.81	32.26
227.028	48.64
227.246	50.69
227.464	30.21
227.682	46.59
227.9	24.06
228.117	69.12
228.335	28.16
228.553	30.21
228.771	-16.9
228.989	38.4
229.206	42.5
229.424	5.63
229.642	97.79
229.86	32.26
230.077	32.26
230.295	1.54
230.513	85.5
230.731	-4.61
230.948	-14.85
231.166	42.5
231.384	91.65
231.601	-20.99
231.819	40.45
232.037	67.07
232.254	22.02
232.472	67.07
232.689	1.54
232.907	19.97
233.125	-4.61
233.342	17.92
233.56	34.3
233.777	-10.75
233.995	42.5
234.213	44.54
234.43	99.84
234.648	11.78
234.865	-18.94
235.083	73.21
235.3	26.11
235.518	-14.85
235.735	22.02
235.953	62.98
236.17	62.98
236.388	13.82
236.605	42.5
236.822	65.02
237.04	-43.52
237.257	52.74
237.475	-6.66
237.692	62.98
237.909	-49.66
238.127	65.02
238.344	50.69
238.562	-4.61
238.779	34.3
238.996	46.59
239.214	-4.61
239.431	-18.94
239.648	24.06
239.865	36.35
240.083	105.98
240.3	24.06
240.517	15.87
240.735	36.35
240.952	1.54
241.169	-29.18
241.386	44.54
241.603	-16.9
241.821	42.5
242.038	1.54
242.255	9.73
242.472	46.59
242.689	-23.04
242.907	26.11
243.124	28.16
243.341	13.82
243.558	3.58
243.775	30.21
243.992	50.69
244.209	-16.9
244.426	75.26
244.643	22.02
244.86	56.83
245.078	32.26
245.295	-37.38
245.512	73.21
245.729	26.11
245.946	58.88
246.163	79.36
246.38	44.54
246.597	54.78
246.814	38.4
247.031	-27.14
247.248	-18.94
247.464	22.02
247.681	71.17
247.898	-27.14
248.115	-8.7
248.332	-33.28
248.549	19.97
248.766	85.5
248.983	56.83
249.2	7.68
249.417	-0.51
249.633	-10.75
249.85	32.26
250.067	54.78
250.284	-20.99
250.501	30.21
250.717	9.73
250.934	36.35
251.151	48.64
251.368	7.68
251.585	38.4
251.801	71.17
252.018	44.54
252.235	7.68
252.451	15.87
252.668	-25.09
252.885	46.59
253.102	28.16
253.318	5.63
253.535	-49.66
253.752	69.12
253.968	-0.51
254.185	5.63
254.401	15.87
254.618	-53.76
254.835	13.82
255.051	-27.14
255.268	56.83
255.484	87.55
255.701	30.21
255.917	81.41
256.134	13.82
256.351	9.73
256.567	17.92
256.784	-12.8
257	-31.23
257.217	60.93
257.433	9.73
257.65	40.45
257.866	-0.51
258.082	-39.42
258.299	-41.47
258.515	34.3
258.732	24.06
258.948	-6.66
259.165	-35.33
259.381	48.64
259.597	48.64
259.814	32.26
260.03	-14.85
260.246	24.06
260.463	-6.66
260.679	48.64
260.895	17.92
261.112	75.26
261.328	36.35
261.544	54.78
261.761	24.06
261.977	-20.99
262.193	7.68
262.409	60.93
262.626	36.35
262.842	91.65
263.058	19.97
263.274	48.64
263.49	-43.52
263.707	89.6
263.923	48.64
264.139	110.08
264.355	-10.75
264.571	38.4
264.787	24.06
265.004	81.41
265.22	-8.7
265.436	60.93
265.652	15.87
265.868	-6.66
266.084	-43.52
266.3	58.88
266.516	13.82
266.732	73.21
266.948	95.74
267.164	62.98
267.38	50.69
267.596	87.55
267.812	60.93
268.028	75.26
268.244	-29.18
268.46	34.3
268.676	30.21
268.892	-0.51
269.108	99.84
269.324	7.68
269.54	-14.85
269.756	40.45
269.972	5.63
270.188	19.97
270.403	19.97
270.619	132.61
270.835	19.97
271.051	-27.14
271.267	9.73
271.483	60.93
271.698	13.82
271.914	79.36
272.13	19.97
272.346	54.78
272.562	40.45
272.777	-16.9
272.993	108.03
273.209	44.54
273.425	34.3
273.64	60.93
273.856	38.4
274.072	79.36
274.287	24.06
274.503	15.87
274.719	-6.66
274.934	34.3
275.15	-6.66
275.366	-0.51
275.581	44.54
275.797	48.64
276.012	36.35
276.228	11.78
276.444	-18.94
276.659	9.73
276.875	-10.75
277.09	-33.28
277.306	-20.99
277.521	26.11
277.737	52.74
277.952	30.21
278.168	13.82
278.383	46.59
278.599	22.02
278.814	54.78
279.03	54.78
279.245	-23.04
279.461	-12.8
279.676	7.68
279.892	-14.85
280.107	65.02
280.322	-25.09
280.538	56.83
280.753	30.21
280.969	-6.66
281.184	56.83
281.399	65.02
281.615	17.92
281.83	34.3
282.045	26.11
282.26	77.31
282.476	26.11
282.691	-10.75
282.906	1.54
283.122	50.69
283.337	32.26
283.552	36.35
283.767	-51.71
283.983	69.12
284.198	26.11
284.413	19.97
284.628	22.02
284.843	30.21
285.058	56.83
285.274	-12.8
285.489	58.88
285.704	60.93
285.919	38.4
286.134	30.21
286.349	24.06
286.564	118.27
286.779	46.59
286.995	32.26
287.21	13.82
287.425	28.16
287.64	52.74
287.855	34.3
288.07	85.5
288.285	-57.86
288.5	9.73
288.715	58.88
288.93	19.97
289.145	118.27
289.36	62.98
289.575	44.54
289.79	38.4
290.004	52.74
290.219	58.88
290.434	58.88
290.649	54.78
290.864	7.68
291.079	95.74
291.294	5.63
291.509	9.73
291.724	38.4
291.938	50.69
292.153	5.63
292.368	75.26
292.583	73.21
292.798	-18.94
293.012	24.06
293.227	75.26
293.442	38.4
293.657	50.69
293.871	34.3
294.086	40.45
294.301	40.45
294.516	28.16
294.73	87.55
294.945	22.02
295.16	77.31
295.374	24.06
295.589	11.78
295.804	1.54
296.018	7.68
296.233	26.11
296.447	65.02
296.662	15.87
296.877	67.07
297.091	62.98
297.306	60.93
297.52	32.26
297.735	67.07
297.949	-4.61
298.164	73.21
298.378	52.74
298.593	116.22
298.807	-31.23
299.022	58.88
299.236	26.11
299.451	-6.66
299.665	7.68
299.88	32.26
300.094	32.26
300.309	58.88
300.523	81.41
300.737	11.78
300.952	-12.8
301.166	46.59
301.381	19.97
301.595	26.11
301.809	11.78
302.024	-8.7
302.238	-12.8
302.452	81.41
302.667	-6.66
302.881	50.69
303.095	58.88
303.309	56.83
303.524	28.16
303.738	40.45
303.952	-10.75
304.166	9.73
304.381	62.98
304.595	62.98
304.809	24.06
305.023	44.54
305.237	44.54
305.452	56.83
305.666	1.54
305.88	-16.9
306.094	48.64
306.308	69.12
306.522	38.4
306.736	44.54
306.95	3.58
307.164	5.63
307.379	5.63
307.593	79.36
307.807	87.55
308.021	15.87
308.235	46.59
308.449	-0.51
308.663	36.35
308.877	110.08
309.091	15.87
309.305	60.93
309.519	52.74
309.733	58.88
309.947	-4.61
310.161	19.97
310.374	3.58
310.588	91.65
310.802	15.87
311.016	62.98
311.23	-16.9
311.444	54.78
311.658	67.07
311.872	34.3
312.085	3.58
312.299	15.87
312.513	38.4
312.727	36.35
312.941	5.63
313.154	118.27
313.368	3.58
313.582	-4.61
313.796	-12.8
314.009	32.26
314.223	99.84
314.437	105.98
314.651	15.87
314.864	34.3
315.078	34.3
315.292	11.78
315.505	-29.18
315.719	116.22
315.933	28.16
316.146	5.63
316.36	56.83
316.573	46.59
316.787	-55.81
317.001	87.55
317.214	-12.8
317.428	28.16
317.641	30.21
317.855	36.35
318.068	71.17
318.282	75.26
318.495	48.64
318.709	85.5
318.922	-25.09
319.136	13.82
319.349	77.31
319.563	-18.94
319.776	26.11
319.99	58.88
320.203	89.6
320.417	85.5
320.63	-33.28
320.843	87.55
321.057	28.16
321.27	9.73
321.483	60.93
321.697	22.02
321.91	34.3
322.124	19.97
322.337	19.97
322.55	32.26
322.763	44.54
322.977	-4.61
323.19	30.21
323.403	48.64
323.617	42.5
323.83	112.13
324.043	36.35
324.256	71.17
324.469	-35.33
324.683	105.98
324.896	38.4
325.109	62.98
325.322	-70.14
325.535	32.26
325.748	71.17
325.962	120.32
326.175	46.59
326.388	108.03
326.601	46.59
326.814	22.02
327.027	-10.75
327.24	95.74
327.453	-31.23
327.666	36.35
327.879	-41.47
328.092	89.6
328.305	24.06
328.518	34.3
328.731	50.69
328.944	44.54
329.157	11.78
329.37	3.58
329.583	73.21
329.796	58.88
330.009	15.87
330.222	-33.28
330.435	34.3
330.648	-35.33
330.861	40.45
331.073	-18.94
331.286	-61.95
331.499	97.79
331.712	-29.18
331.925	67.07
332.138	52.74
332.35	11.78
332.563	50.69
332.776	-8.7
332.989	71.17
333.202	-0.51
333.414	40.45
333.627	101.89
333.84	-16.9
334.053	54.78
334.265	11.78
334.478	-2.56
334.691	58.88
334.903	11.78
335.116	-2.56
335.329	5.63
335.541	75.26
335.754	11.78
335.966	-41.47
336.179	13.82
336.392	56.83
336.604	-2.56
336.817	-10.75
337.029	71.17
337.242	75.26
337.454	1.54
337.667	-8.7
337.88	69.12
338.092	3.58
338.305	9.73
338.517	-14.85
338.729	69.12
338.942	7.68
339.154	46.59
339.367	19.97
339.579	56.83
339.792	9.73
340.004	50.69
340.217	77.31
340.429	58.88
340.641	58.88
340.854	15.87
341.066	148.99
341.278	36.35
341.491	-8.7
341.703	3.58
341.915	-8.7
342.128	83.45
342.34	26.11
342.552	-12.8
342.764	71.17
342.977	34.3
343.189	81.41
343.401	87.55
343.613	-39.42
343.826	99.84
344.038	28.16
344.25	93.69
344.462	69.12
344.674	30.21
344.886	81.41
345.099	87.55
345.311	54.78
345.523	81.41
345.735	28.16
345.947	44.54
346.159	44.54
346.371	22.02
346.583	52.74
346.795	34.3
347.007	40.45
347.219	52.74
347.431	-0.51
347.643	108.03
347.855	19.97
348.067	44.54
348.279	-6.66
348.491	-8.7
348.703	42.5
348.915	-16.9
349.127	77.31
349.339	34.3
349.551	5.63
349.763	71.17
349.975	11.78
350.187	60.93
350.399	-6.66
350.61	65.02
350.822	5.63
351.034	40.45
351.246	52.74
351.458	128.51
351.669	36.35
351.881	30.21
352.093	62.98
352.305	60.93
352.517	-0.51
352.728	30.21
352.94	-66.05
353.152	95.74
353.363	112.13
353.575	28.16
353.787	40.45
353.999	44.54
354.21	28.16
354.422	15.87
354.633	-72.19
354.845	58.88
355.057	-0.51
355.268	93.69
355.48	67.07
355.692	15.87
355.903	40.45
356.115	5.63
356.326	13.82
356.538	77.31
356.749	69.12
356.961	89.6
357.172	3.58
357.384	-0.51
357.595	75.26
357.807	17.92
358.018	22.02
358.23	87.55
358.441	83.45
358.653	17.92
358.864	-18.94
359.075	38.4
359.287	77.31
359.498	67.07
359.709	69.12
359.921	85.5
360.132	-4.61
360.344	54.78
360.555	-4.61
360.766	77.31
360.977	93.69
361.189	32.26
361.4	-18.94
361.611	62.98
361.823	50.69
362.034	46.59
362.245	-20.99
362.456	44.54
362.667	44.54
362.879	24.06
363.09	71.17
363.301	-6.66
363.512	48.64
363.723	69.12
363.935	56.83
364.146	103.93
364.357	34.3
364.568	24.06
364.779	62.98
364.99	52.74
365.201	60.93
365.412	24.06
365.623	52.74
365.834	-23.04
366.045	15.87
366.256	28.16
366.467	46.59
366.678	42.5
366.889	62.98
367.1	77.31
367.311	22.02
367.522	-23.04
367.733	67.07
367.944	32.26
368.155	81.41
368.366	32.26
368.577	50.69
368.788	56.83
368.999	-0.51
369.209	30.21
369.42	83.45
369.631	105.98
369.842	9.73
370.053	91.65
370.264	60.93
370.474	22.02
370.685	-12.8
370.896	9.73
371.107	-12.8
371.317	19.97
371.528	5.63
371.739	11.78
371.95	-8.7
372.16	132.61
372.371	77.31
372.582	22.02
372.792	65.02
373.003	73.21
373.214	1.54
373.424	120.32
373.635	-12.8
373.846	48.64
374.056	40.45
374.267	54.78
374.477	-18.94
374.688	56.83
374.898	-6.66
375.109	28.16
375.319	81.41
375.53	11.78
375.74	13.82
375.951	97.79
376.161	110.08
376.372	9.73
376.582	69.12
376.793	46.59
377.003	28.16
377.214	44.54
377.424	67.07
377.635	124.41
377.845	-16.9
378.055	83.45
378.266	-4.61
378.476	34.3
378.686	46.59
378.897	124.41
379.107	48.64
379.317	28.16
379.528	36.35
379.738	24.06
379.948	5.63
380.158	101.89
380.369	153.09
380.579	44.54
380.789	138.75
380.999	38.4
381.21	38.4
381.42	52.74
381.63	52.74
381.84	77.31
382.05	13.82
382.261	87.55
382.471	34.3
382.681	19.97
382.891	52.74
383.101	34.3
383.311	36.35
383.521	56.83
383.731	62.98
383.941	22.02
384.151	26.11
384.361	87.55
384.571	28.16
384.781	46.59
384.991	62.98
385.201	60.93
385.411	155.13
385.621	81.41
385.831	-12.8
386.041	-37.38
386.251	54.78
386.461	3.58
386.671	-0.51
386.881	46.59
387.091	9.73
387.301	32.26
387.511	-2.56
387.72	36.35
387.93	11.78
388.14	36.35
388.35	44.54
388.56	1.54
388.769	83.45
388.979	56.83
389.189	-37.38
389.399	93.69
389.609	81.41
389.818	91.65
390.028	7.68
390.238	79.36
390.447	69.12
390.657	56.83
390.867	69.12
391.076	-14.85
391.286	95.74
391.496	62.98
391.705	5.63
391.915	-33.28
392.125	42.5
392.334	81.41
392.544	46.59
392.753	22.02
392.963	114.17
393.172	42.5
393.382	30.21
393.591	144.89
393.801	48.64
394.01	69.12
394.22	60.93
394.429	52.74
394.639	77.31
394.848	83.45
395.058	5.63
395.267	83.45
395.477	77.31
395.686	97.79
395.895	9.73
396.105	81.41
396.314	114.17
396.524	-6.66
396.733	126.46
396.942	122.37
397.152	132.61
397.361	46.59
397.57	13.82
397.78	79.36
397.989	99.84
398.198	110.08
398.407	85.5
398.617	108.03
398.826	97.79
399.035	75.26
399.244	91.65
399.453	26.11
399.663	36.35
399.872	30.21
400.081	71.17
400.29	-14.85
400.499	42.5
400.708	85.5
400.917	69.12
401.127	77.31
401.336	71.17
401.545	130.56
401.754	83.45
401.963	112.13
402.172	79.36
402.381	69.12
402.59	71.17
402.799	161.28
403.008	24.06
403.217	71.17
403.426	134.65
403.635	95.74
403.844	58.88
404.053	99.84
404.262	142.85
404.471	126.46
404.68	67.07
404.888	134.65
405.097	97.79
405.306	118.27
405.515	128.51
405.724	105.98
405.933	69.12
406.142	58.88
406.35	67.07
406.559	97.79
406.768	155.13
406.977	171.52
407.185	144.89
407.394	173.57
407.603	151.04
407.812	97.79
408.02	171.52
408.229	116.22
408.438	136.7
408.646	99.84
408.855	259.58
409.064	151.04
409.272	122.37
409.481	323.07
409.69	155.13
409.898	175.61
410.107	210.43
410.315	308.73
410.524	202.24
410.733	220.67
410.941	206.33
411.15	253.44
411.358	206.33
411.567	292.35
411.775	284.16
411.984	208.38
412.192	212.48
412.401	196.09
412.609	255.48
412.818	347.64
413.026	325.12
413.234	343.55
413.443	282.11
413.651	333.31
413.86	458.23
414.068	368.12
414.276	378.36
414.485	388.6
414.693	419.32
414.901	480.76
415.11	495.1
415.318	478.71
415.526	521.72
415.734	558.58
415.943	507.38
416.151	587.26
416.359	511.48
416.567	601.59
416.776	544.25
416.984	579.06
417.192	650.74
417.4	617.97
417.608	634.36
417.817	628.21
418.025	749.04
418.233	763.38
418.441	706.04
418.649	677.37
418.857	871.92
419.065	810.48
419.273	949.75
419.481	859.63
419.689	925.17
419.897	919.03
420.105	912.88
420.313	1037.81
420.521	980.47
420.729	1072.62
420.937	1107.44
421.145	1215.98
421.353	1060.34
421.561	1275.37
421.769	1261.04
421.977	1238.51
422.185	1201.65
422.393	1371.63
422.601	1437.16
422.809	1443.31
423.017	1420.78
423.224	1629.67
423.432	1596.9
423.64	1641.96
423.848	1744.36
424.056	1678.82
424.263	1752.55
424.471	1754.6
424.679	1822.18
424.887	1988.07
425.094	2008.55
425.302	2012.64
425.51	2164.19
425.718	2078.18
425.925	2123.23
426.133	2307.55
426.341	2297.31
426.548	2551.26
426.756	2508.25
426.964	2549.21
427.171	2698.71
427.379	2739.67
427.586	2792.92
427.794	2829.78
428.001	3038.67
428.209	3145.17
428.417	3087.82
428.624	3204.56
428.832	3233.23
429.039	3192.27
429.247	3202.51
429.454	3614.15
429.662	3751.37
429.869	3487.18
430.076	3792.33
430.284	3741.13
430.491	3941.83
430.699	4158.91
430.906	4107.71
431.114	4076.99
431.321	4167.1
431.528	4431.29
431.736	4709.82
431.943	4842.93
432.15	4715.96
432.358	4849.08
432.565	5133.75
432.772	4998.58
432.979	5334.45
433.187	5492.14
433.394	5377.45
433.601	5848.49
433.808	5768.62
434.016	5805.48
434.223	6061.48
434.43	6436.25
434.637	6319.52
434.844	6659.48
435.052	6907.29
435.259	6761.88
435.466	6991.25
435.673	6866.33
435.88	7198.1
436.087	7568.78
436.294	7556.49
436.501	7497.1
436.708	7613.84
436.915	7851.4
437.122	8097.16
437.329	8203.65
437.537	8574.33
437.743	8697.21
437.95	8435.07
438.157	9016.69
438.364	9207.16
438.571	9325.94
438.778	9301.36
438.985	10202.47
439.192	9721.2
439.399	9979.24
439.606	9770.35
439.813	10329.44
440.02	11107.67
440.227	10898.78
440.433	10648.93
440.64	11302.23
440.847	11273.56
441.054	11277.65
441.261	11959.63
441.467	11857.23
441.674	12303.68
441.881	12694.85
442.088	12336.45
442.294	12614.98
442.501	13014.33
442.708	13088.06
442.914	13610.29
443.121	13976.87
443.328	13434.16
443.534	14585.12
443.741	14157.1
443.948	14114.09
444.154	15146.26
444.361	15156.5
444.568	15088.92
444.774	15209.75
444.981	15150.36
445.187	15772.94
445.394	16356.61
445.6	16327.94
445.807	17702.13
446.013	17036.54
446.22	17413.37
446.426	17870.06
446.633	18173.16
446.839	18769.12
447.046	18248.94
447.252	19033.31
447.459	19127.52
447.665	19133.66
447.871	19817.68
448.078	20686.02
448.284	19614.93
448.491	20270.28
448.697	21312.7
448.903	21384.38
449.11	21261.5
449.316	21021.89
449.522	21531.83
449.728	22166.7
449.935	22453.42
450.141	22445.23
450.347	22983.84
450.553	22043.82
450.76	22457.51
450.966	23141.53
451.172	22725.8
451.378	23475.35
451.584	22912.16
451.791	23626.9
451.997	23585.94
452.203	23954.58
452.409	24071.31
452.615	24087.7
452.821	23065.76
453.027	22883.49
453.233	23876.76
453.44	23028.9
453.646	23375
453.852	23512.22
454.058	23573.66
454.264	23102.62
454.47	23501.98
454.676	23039.14
454.882	23989.39
455.088	21546.17
455.294	21998.77
455.5	22750.37
455.705	22830.24
455.911	21824.69
456.117	21335.23
456.323	21310.65
456.529	19936.46
456.735	20950.21
456.941	20362.44
457.147	20104.4
457.352	19328.22
457.558	19301.59
457.764	19207.39
457.97	18744.55
458.176	18543.85
458.381	18388.2
458.587	17376.5
458.793	17788.14
458.999	16362.76
459.204	17685.75
459.41	17437.94
459.616	16327.94
459.821	16229.64
460.027	16088.33
460.233	15760.66
460.438	15314.2
460.644	15457.56
460.85	14634.27
461.055	14372.13
461.261	14193.96
461.466	13260.09
461.672	13129.02
461.878	13999.4
462.083	13049.14
462.289	12842.3
462.494	12649.79
462.7	12133.7
462.905	11793.74
463.111	12107.08
463.316	12367.17
463.522	11889.99
463.727	12127.56
463.932	12033.35
464.138	11812.17
464.343	11900.23
464.549	11601.23
464.754	11730.25
464.959	11863.37
465.165	11816.27
465.37	11283.8
465.575	11191.64
465.781	11265.36
465.986	11584.85
466.191	11124.05
466.397	10874.2
466.602	10517.86
466.807	10777.95
467.012	10941.79
467.218	10782.04
467.423	10687.84
467.628	10847.58
467.833	11175.25
468.038	10720.6
468.244	10419.55
468.449	10745.18
468.654	10339.68
468.859	10460.51
469.064	10272.1
469.269	9862.51
469.474	10296.67
469.679	10458.46
469.885	10073.45
470.09	10026.34
470.295	10007.91
470.5	9743.72
470.705	9868.65
470.91	9565.55
471.115	9600.37
471.32	9717.1
471.525	9465.2
471.73	9360.75
471.935	9403.76
472.139	9221.49
472.344	9039.22
472.549	8994.17
472.754	9049.46
472.959	8750.46
473.164	8531.33
473.369	8467.84
473.574	8883.58
473.778	8732.03
473.983	8701.31
474.188	8494.46
474.393	8295.81
474.598	8179.08
474.802	8072.58
475.007	8146.31
475.212	7806.34
475.417	7841.16
475.621	7697.8
475.826	7837.06
476.031	7656.84
476.235	7636.36
476.44	7646.6
476.645	7421.33
476.849	7542.16
477.054	7261.59
477.259	7280.02
477.463	7280.02
477.668	7073.17
477.872	7001.49
478.077	6899.09
478.282	6778.26
478.486	6935.96
478.691	6673.82
478.895	6806.94
479.1	6784.41
479.304	6569.37
479.509	6626.71
479.713	6712.73
479.918	6518.17
480.122	6358.43
480.326	6573.47
480.531	6483.36
480.735	6348.19
480.94	6417.82
481.144	6534.56
481.348	6233.5
481.553	6340
481.757	6174.11
481.961	6235.55
482.166	6466.97
482.37	6374.81
482.574	6174.11
482.778	6225.31
482.983	6413.73
483.187	6370.72
483.391	6350.24
483.595	6184.35
483.8	5963.17
484.004	6272.42
484.208	6294.94
484.412	6213.03
484.616	6288.8
484.821	6243.74
485.025	6229.41
485.229	6413.73
485.433	6219.17
485.637	6286.75
485.841	6346.14
486.045	6135.2
486.249	6264.22
486.453	6325.66
486.657	6176.16
486.861	6389.15
487.065	6237.6
487.269	6440.35
487.473	6137.25
487.677	6366.62
487.881	6491.55
488.085	6358.43
488.289	6557.08
488.493	6397.34
488.697	6448.54
488.901	6575.52
489.105	6403.49
489.309	6454.69
489.512	6706.59
489.716	6532.51
489.92	6567.32
490.124	6583.71
490.328	6688.15
490.531	6442.4
490.735	6655.39
490.939	6679.96
491.143	6591.9
491.346	6735.26
491.55	6776.22
491.754	6923.67
491.958	6833.56
492.161	6839.7
492.365	6952.34
492.569	7101.84
492.772	6948.25
492.976	6991.25
493.18	7087.51
493.383	7146.9
493.587	7165.33
493.79	7366.03
493.994	7370.13
494.197	7286.16
494.401	7396.75
494.605	7466.38
494.808	7558.54
495.012	7439.76
495.215	7585.16
495.419	7732.62
495.622	7617.93
495.825	7830.92
496.029	7902.6
496.232	8105.35
496.436	7785.87
496.639	8064.39
496.843	8287.62
497.046	8478.08
497.249	8371.58
497.453	8500.61
497.656	8490.37
497.859	8711.55
498.063	8666.49
498.266	8985.97
498.469	8856.95
498.673	9213.3
498.876	9090.42
499.079	9196.92
499.282	9299.31
499.485	9635.18
499.689	9817.45
499.892	9803.11
500.095	9694.57
500.298	10190.18
500.501	10046.82
500.705	10259.81
500.908	10497.38
501.111	10669.41
501.314	10413.41
501.517	10714.46
501.72	11128.15
501.923	10958.17
502.126	11343.19
502.329	11584.85
502.532	11746.64
502.735	11513.17
502.938	11943.24
503.141	11754.83
503.344	12313.92
503.547	12121.42
503.75	12348.74
503.953	12582.21
504.156	12860.73
504.359	13086.01
504.562	13141.3
504.765	13255.99
504.968	13393.2
505.17	13679.92
505.373	13622.58
505.576	14052.65
505.779	14079.27
505.982	14183.72
506.185	14587.17
506.387	14542.11
506.59	14830.88
506.793	15035.67
506.996	15011.1
507.198	15777.04
507.401	15555.86
507.604	15725.84
507.807	15719.7
508.009	15987.98
508.212	16055.56
508.415	16399.62
508.617	16749.82
508.82	16960.77
509.022	17044.73
509.225	17433.85
509.428	17388.79
509.63	17763.57
509.833	17976.56
510.035	18341.1
510.238	17988.85
510.44	18574.56
510.643	18746.59
510.845	19068.13
511.048	18932.96
511.25	19209.43
511.453	19633.36
511.655	20167.88
511.858	19778.77
512.06	20128.97
512.262	20415.69
512.465	20542.66
512.667	20905.15
512.87	21071.04
513.072	21132.48
513.274	21626.04
513.477	21816.5
513.679	21882.03
513.881	22424.75
514.084	22459.56
514.286	22666.41
514.488	22836.39
514.69	23403.67
514.893	23585.94
515.095	23518.36
515.297	23702.68
515.499	23989.39
515.701	24134.8
515.904	24593.54
516.106	24648.84
516.308	25050.24
516.51	25463.93
516.712	25252.99
516.914	25707.64
517.116	25812.09
517.318	26199.15
517.52	26475.63
517.722	26459.24
517.925	27004
518.127	27440.22
518.329	27329.63
518.531	27251.81
518.733	28114
518.935	28060.76
519.136	28296.27
519.338	28718.15
519.54	28742.73
519.742	29131.84
519.944	29217.86
520.146	29928.5
520.348	29969.46
520.55	30299.19
520.752	30073.91
520.954	30807.08
521.155	30809.13
521.357	31247.4
521.559	31407.14
521.761	31247.4
521.963	31648.8
522.164	31771.68
522.366	32019.48
522.568	32422.93
522.77	32390.16
522.971	32891.91
523.173	32545.81
523.375	33014.79
523.576	33350.66
523.778	33375.23
523.98	33721.34
524.181	33756.16
524.383	33717.25
524.584	34415.6
524.786	34298.87
524.988	34315.25
525.189	34909.16
525.391	35001.32
525.592	35384.29
525.794	35216.36
525.995	35185.64
526.197	35329
526.398	35625.95
526.6	35955.68
526.801	36213.72
527.003	36244.44
527.204	35994.59
527.406	36633.55
527.607	36266.97
527.808	36889.55
528.01	36172.76
528.211	36725.71
528.412	37579.71
528.614	37163.98
528.815	37153.74
529.016	37786.56
529.218	37481.41
529.419	37499.84
529.62	37460.93
529.822	37546.95
530.023	37999.55
530.224	38026.17
530.425	37811.14
530.626	37718.98
530.828	37905.34
531.029	38122.43
531.23	37962.68
531.431	38204.35
531.632	38192.06
531.833	38579.12
532.035	38609.84
532.236	38472.63
532.437	38980.53
532.638	38568.88
532.839	39168.94
533.04	39238.57
533.241	38538.16
533.442	39533.48
533.643	39068.59
533.844	39134.12
534.045	39146.41
534.246	38734.77
534.447	39453.61
534.648	39267.24
534.849	39424.93
535.05	38933.42
535.251	39312.3
535.451	39275.43
535.652	39373.74
535.853	39297.96
536.054	39281.58
536.255	39359.4
536.456	39340.97
536.657	39752.61
536.857	39156.65
537.058	39611.3
537.259	39869.34
537.46	39670.69
537.66	39429.03
537.861	39805.86
538.062	39566.24
538.263	39580.58
538.463	39576.48
538.664	39852.96
538.865	39785.38
539.065	40172.44
539.266	39588.77
539.466	40119.2
539.667	39623.59
539.868	40268.7
540.068	40113.05
540.269	39859.1
540.469	39928.73
540.67	39773.09
540.87	39787.42
541.071	39857.06
541.271	40258.46
541.472	39742.37
541.672	39846.82
541.873	39988.13
542.073	39383.98
542.274	40407.96
542.474	40141.72
542.675	39885.73
542.875	40100.76
543.075	40129.44
543.276	39689.12
543.476	40072.09
543.676	40170.4
543.877	40485.78
544.077	40065.95
544.277	40070.04
544.478	39889.82
544.678	40266.65
544.878	40229.79
545.078	40367
545.279	40117.15
545.479	40283.03
545.679	40201.11
545.879	40543.13
546.079	40164.25
546.28	40188.83
546.48	39662.5
546.68	40387.48
546.88	40045.47
547.08	40602.52
547.28	40117.15
547.48	39977.89
547.68	40508.31
547.88	40229.79
548.081	40094.62
548.281	40004.51
548.481	39902.11
548.681	40373.14
548.881	40321.94
549.081	40090.52
549.28	39926.69
549.48	40620.95
549.68	40172.44
549.88	41073.55
550.08	39947.17
550.28	40360.86
550.48	40049.56
550.68	40532.89
550.88	39855.01
551.08	40168.35
551.279	40031.13
551.479	40303.51
551.679	40199.07
551.879	40207.26
552.079	40299.42
552.278	39779.23
552.478	39975.84
552.678	40321.94
552.878	40389.53
553.077	40080.28
553.277	39717.79
553.477	40420.25
553.676	40225.69
553.876	40027.04
554.076	39943.07
554.275	40158.11
554.475	39928.73
554.674	40113.05
554.874	39986.08
555.074	39728.03
555.273	39994.27
555.473	40229.79
555.672	39760.8
555.872	39936.93
556.071	40059.8
556.271	40164.25
556.47	39947.17
556.67	39771.04
556.869	39693.22
557.068	40393.62
557.268	39938.97
557.467	39482.28
557.667	39895.97
557.866	39553.96
558.065	40020.89
558.265	39678.88
558.464	39599.01
558.663	40063.9
558.863	39187.37
559.062	40254.36
559.261	39259.05
559.461	39818.14
559.66	39089.07
559.859	39764.9
560.058	39021.48
560.258	39748.51
560.457	39269.29
560.656	39594.92
560.855	38742.96
561.054	39697.31
561.253	39328.68
561.453	39007.15
561.652	39588.77
561.851	39582.63
562.05	39469.99
562.249	39236.52
562.448	39697.31
562.647	39818.14
562.846	38968.24
563.045	39191.47
563.244	39048.11
563.443	39508.9
563.642	38718.39
563.841	39390.12
564.04	38783.92
564.239	39639.97
564.438	38599.6
564.637	39222.19
564.836	39263.14
565.035	39089.07
565.234	38687.67
565.432	38804.4
565.631	38820.78
565.83	39119.79
566.029	38853.55
566.228	38413.24
566.427	38890.41
566.625	38687.67
566.824	38329.27
567.023	39138.22
567.222	38405.05
567.42	39267.24
567.619	38321.08
567.818	38906.8
568.016	38708.15
568.215	38894.51
568.414	38165.43
568.612	38771.63
568.811	38237.11
569.01	38407.09
569.208	38022.08
569.407	38534.07
569.605	38089.66
569.804	38562.74
570.002	38267.83
570.201	38556.6
570.4	38013.88
570.598	38050.75
570.797	37807.04
570.995	38308.79
571.193	37675.97
571.392	37940.16
571.59	37936.06
571.789	37710.78
571.987	37505.99
572.186	38089.66
572.384	37624.77
572.582	37839.81
572.781	37706.69
572.979	37514.18
573.177	37536.71
573.376	37264.33
573.574	37047.24
573.772	37694.4
573.971	37237.7
574.169	37407.69
574.367	37184.46
574.565	37391.3
574.763	37094.35
574.962	37127.11
575.16	36574.16
575.358	37145.55
575.556	36334.55
575.754	37069.77
575.952	36213.72
576.151	37133.26
576.349	36658.13
576.547	36418.52
576.745	36402.13
576.943	36568.02
577.141	36322.26
577.339	36365.27
577.537	36027.35
577.735	35879.9
577.933	35638.24
578.131	35970.01
578.329	36004.83
578.527	35638.24
578.725	35458.02
578.923	35955.68
579.121	35574.75
579.319	35750.88
579.516	35838.94
579.714	35245.03
579.912	35345.38
580.11	35075.05
580.308	35609.57
580.506	35193.83
580.704	34610.16
580.901	35361.76
581.099	35093.48
581.297	34647.02
581.495	35308.52
581.692	35077.1
581.89	34413.55
582.088	34862.06
582.285	34548.72
582.483	34814.96
582.681	34634.74
582.878	34485.23
583.076	34096.12
583.274	34122.74
583.471	34106.36
583.669	34180.09
583.866	33819.64
584.064	34487.28
584.262	33713.15
584.459	33864.7
584.657	33567.74
584.854	33932.28
585.052	33506.3
585.249	33444.87
585.447	33850.36
585.644	33350.66
585.841	33569.79
586.039	33408
586.236	32943.11
586.434	33098.76
586.631	32922.63
586.828	32949.26
587.026	32822.28
587.223	32791.56
587.42	32822.28
587.618	32824.33
587.815	32136.21
588.012	32429.07
588.21	32097.3
588.407	32689.17
588.604	32291.86
588.801	31839.26
588.999	32003.1
589.196	32015.38
589.393	31919.13
589.59	31878.17
589.787	31515.68
589.984	31511.58
590.182	31282.21
590.379	31620.13
590.576	31374.37
590.773	31390.75
590.97	31134.76
591.167	31429.66
591.364	30790.7
591.561	31147.04
591.758	30874.66
591.955	30862.38
592.152	30872.62
592.349	30786.6
592.546	30626.86
592.743	30528.56
592.94	30288.95
593.137	30334
593.334	30430.26
593.531	29746.23
593.727	30039.09
593.924	30190.64
594.121	29799.48
594.318	30307.38
594.515	29695.03
594.712	30301.23
594.908	29727.8
595.105	29846.58
595.302	29412.42
595.499	29148.23
595.696	29168.71
595.892	29017.16
596.089	28998.73
596.286	29109.32
596.482	28978.25
596.679	29398.08
596.876	28959.81
597.072	29099.08
597.269	28857.42
597.466	28544.08
597.662	28640.33
597.859	28402.77
598.055	28582.99
598.252	28351.57
598.448	28320.85
598.645	27991.12
598.841	27880.53
599.038	27923.54
599.234	28019.8
599.431	27880.53
599.627	27653.21
599.824	28077.14
600.02	27454.56
600.217	27659.35
600.413	27309.15
600.609	27405.41
600.806	27245.66
601.002	27163.75
601.198	27161.7
601.395	27149.41
601.591	27264.1
601.787	26797.16
601.984	26788.97
602.18	26862.69
602.376	26713.19
602.572	26569.83
602.769	26694.76
602.965	26225.78
603.161	26596.46
603.357	26231.92
603.553	25910.39
603.75	26227.82
603.946	26080.37
604.142	25922.68
604.338	25468.03
604.534	25898.1
604.73	25521.27
604.926	25717.88
605.122	25816.18
605.318	25662.58
605.514	25488.51
605.71	24986.75
605.906	25392.25
606.102	25330.81
606.298	25484.41
606.494	25162.88
606.69	25169.02
606.886	25128.06
607.082	24841.35
607.278	25144.45
607.474	24681.61
607.67	24880.26
607.866	24710.28
608.062	24822.92
608.257	24816.77
608.453	24822.92
608.649	24489.1
608.845	24523.91
609.041	24571.02
609.236	24462.47
609.432	24104.08
609.628	24312.97
609.824	24339.6
610.019	24040.59
610.215	24110.22
610.411	24128.66
610.606	24044.69
610.802	24110.22
610.998	23940.24
611.193	23817.36
611.389	23717.01
611.584	23579.8
611.78	23741.59
611.976	23569.56
612.171	23606.42
612.367	23360.67
612.562	23338.14
612.758	23297.18
612.953	23243.93
613.149	23409.82
613.344	23012.51
613.539	23583.9
613.735	23393.44
613.93	23233.69
614.126	23020.7
614.321	23190.69
614.517	22981.79
614.712	23010.46
614.907	22860.96
615.103	23211.17
615.298	22879.39
615.493	22883.49
615.688	22465.71
615.884	23172.25
616.079	22533.29
616.274	22539.43
616.47	22719.65
616.665	22750.37
616.86	22670.5
617.055	22467.75
617.25	22248.62
617.445	22555.82
617.641	22322.35
617.836	22383.79
618.031	21892.27
618.226	22588.58
618.421	21886.13
618.616	22353.07
618.811	22019.25
619.006	21922.99
619.201	21828.79
619.396	21757.11
619.591	21583.03
619.786	21773.49
619.981	21392.57
620.176	21441.72
620.371	21083.33
620.566	21462.2
620.761	20817.09
620.956	20954.3
621.151	20741.32
621.346	21081.28
621.541	20378.83
621.735	20667.59
621.93	20753.6
622.125	20679.88
622.32	20280.52
622.515	20430.02
622.709	19993.81
622.904	20073.68
623.099	19891.41
623.294	19698.9
623.488	19516.63
623.683	19703
623.878	19352.79
624.072	19401.94
624.267	19313.88
624.462	18978.01
624.656	19016.93
624.851	18990.3
625.046	19100.89
625.24	18857.18
625.435	18851.04
625.629	18824.42
625.824	18300.14
626.018	18296.04
626.213	18380.01
626.407	18261.23
626.602	17880.3
626.796	18257.13
626.991	17976.56
627.185	17724.66
627.38	17802.48
627.574	17566.96
627.768	17358.07
627.963	17767.66
628.157	17366.26
628.352	17437.94
628.546	17001.72
628.74	17073.4
628.935	17028.35
629.129	17042.68
629.323	16848.13
629.517	16813.31
629.712	16731.39
629.906	16706.82
630.1	16424.2
630.294	16518.4
630.489	16246.02
630.683	16436.49
630.877	15924.49
631.071	16108.81
631.265	16200.97
631.459	15832.33
631.653	15772.94
631.848	15736.08
632.042	15428.88
632.236	15514.9
632.43	15127.83
632.624	15959.31
632.818	15273.24
633.012	15281.43
633.206	15369.49
633.4	15396.12
633.594	14927.13
633.788	14945.56
633.982	14880.03
634.176	14857.5
634.369	14818.59
634.563	14796.06
634.757	14601.51
634.951	14488.87
635.145	14566.69
635.339	14480.68
635.533	14398.76
635.726	14304.55
635.92	14017.83
636.114	14296.36
636.308	14241.06
636.501	14355.75
636.695	13987.11
636.889	14003.5
637.083	13810.99
637.276	13743.41
637.47	13593.9
637.664	13370.68
637.857	13577.52
638.051	13554.99
638.244	13192.5
638.438	13268.28
638.632	13313.33
638.825	12999.99
639.019	12961.08
639.212	13126.97
639.406	12852.54
639.599	12903.74
639.793	12758.33
639.986	12627.26
640.18	12617.02
640.373	12565.82
640.567	12477.76
640.76	12309.83
640.954	12338.5
641.147	12141.89
641.34	12143.94
641.534	12092.74
641.727	12205.38
641.92	12053.83
642.114	11982.15
642.307	12004.68
642.5	11605.33
642.694	11765.07
642.887	11562.32
643.08	11724.11
643.273	11660.62
643.467	11566.42
643.66	11552.08
643.853	11332.95
644.046	11160.92
644.239	11289.94
644.432	11181.4
644.626	11087.19
644.819	11085.14
645.012	11126.1
645.205	11115.86
645.398	10939.74
645.591	10890.59
645.784	11001.18
645.977	10679.65
646.17	10802.52
646.363	10509.66
646.556	10534.24
646.749	10360.16
646.942	10421.6
647.135	10306.91
647.328	10362.21
647.521	10112.36
647.714	10093.93
647.907	10128.74
648.099	9950.57
648.292	10225
648.485	9948.52
648.678	9717.1
648.871	9620.85
649.064	9729.39
649.256	9657.71
649.449	9729.39
649.642	9416.05
649.835	9678.19
650.027	9262.45
650.22	9430.38
650.413	9209.2
650.605	9317.75
650.798	9254.26
650.991	9192.82
651.183	9278.83
651.376	9078.13
651.568	9065.85
651.761	9041.27
651.954	8781.18
652.146	8820.09
652.339	8664.44
652.531	8844.67
652.724	8654.2
652.916	8592.76
653.109	8621.44
653.301	8549.76
653.494	8598.91
653.686	8375.68
653.879	8531.33
654.071	8359.3
654.263	8129.92
654.456	8344.96
654.648	8394.11
654.84	8154.5
655.033	8168.84
655.225	8172.93
655.417	8027.53
655.61	7892.36
655.802	7900.55
655.994	7945.61
656.186	7767.43
656.379	7626.12
656.571	7800.2
656.763	7708.04
656.955	7726.47
657.148	7622.03
657.34	7568.78
657.532	7601.55
657.724	7265.68
657.916	7495.05
658.108	7234.96
658.3	7161.23
658.492	7384.46
658.684	7177.62
658.876	7101.84
659.068	7118.23
659.26	7009.69
659.452	7060.88
659.644	7116.18
659.836	6827.42
660.028	6978.97
660.22	6755.74
660.412	6733.21
660.604	6679.96
660.796	6725.02
660.988	6669.72
661.18	6479.26
661.372	6436.25
661.563	6600.09
661.755	6438.3
661.947	6284.7
662.139	6331.81
662.331	6129.06
662.522	6188.45
662.714	6096.29
662.906	6034.85
663.097	6114.72
663.289	6061.48
663.481	6034.85
663.673	6131.11
663.864	5928.36
664.056	5922.21
664.247	5942.69
664.439	5684.65
664.631	5881.25
664.822	5647.79
665.014	5754.28
665.205	5658.03
665.397	5619.11
665.588	5729.7
665.78	5512.62
665.971	5467.56
666.163	5541.29
666.354	5426.61
666.546	5625.26
666.737	5346.73
666.929	5410.22
667.12	5221.81
667.311	5232.05
667.503	5154.23
667.694	5133.75
667.885	5154.23
668.077	5160.37
668.268	5100.98
668.459	4980.15
668.651	5002.68
668.842	4963.76
669.033	4969.91
669.224	4842.93
669.416	4869.56
669.607	4863.41
669.798	4785.59
669.989	4705.72
670.18	4781.5
670.371	4914.61
670.563	4738.49
670.754	4767.16
670.945	4756.92
671.136	4648.38
671.327	4599.23
671.518	4496.83
671.709	4578.75
671.9	4509.12
672.091	4390.33
672.282	4330.94
672.473	4556.22
672.664	4363.71
672.855	4382.14
673.046	4228.54
673.237	4445.63
673.428	4261.31
673.619	4382.14
673.809	4173.25
674	4253.12
674.191	4191.68
674.382	4130.24
674.573	4251.07
674.764	4179.39
674.954	4087.23
675.145	4126.15
675.336	4068.8
675.527	4179.39
675.717	4060.61
675.908	3882.44
676.099	4226.5
676.289	3904.96
676.48	4005.31
676.671	3954.12
676.861	3816.9
677.052	3947.97
677.243	3902.92
677.433	3837.38
677.624	3837.38
677.814	3804.61
678.005	3814.85
678.195	3640.78
678.386	3913.16
678.576	3710.41
678.767	3794.37
678.957	3741.13
679.148	3679.69
679.338	3796.42
679.529	3777.99
679.719	3618.25
679.909	3642.82
680.1	3669.45
680.29	3640.78
680.481	3732.94
680.671	3608.01
680.861	3513.8
681.052	3585.48
681.242	3589.58
681.432	3509.71
681.622	3427.79
681.813	3470.8
682.003	3548.62
682.193	3567.05
682.383	3390.92
682.573	3505.61
682.764	3495.37
682.954	3382.73
683.144	3419.6
683.334	3423.69
683.524	3468.75
683.714	3466.7
683.904	3427.79
684.094	3399.12
684.284	3438.03
684.474	3347.92
684.664	3427.79
684.854	3292.62
685.044	3438.03
685.234	3280.33
685.424	3345.87
685.614	3378.64
685.804	3220.94
685.994	3354.06
686.184	3306.96
686.374	3429.84
686.564	3239.37
686.753	3284.43
686.943	3190.22
687.133	3270.09
687.323	3241.42
687.513	3222.99
687.702	3296.72
687.892	3194.32
688.082	3216.85
688.272	3362.25
688.461	3212.75
688.651	3212.75
688.841	3225.04
689.03	3315.15
689.22	3243.47
689.41	3186.13
689.599	3143.12
689.789	3112.4
689.979	3085.78
690.168	3124.69
690.358	3153.36
690.547	3089.87
690.737	3192.27
690.926	3173.84
691.116	3108.3
691.305	3077.59
691.495	3102.16
691.684	3079.63
691.874	3124.69
692.063	3112.4
692.252	3085.78
692.442	3110.35
692.631	3005.91
692.82	2983.38
693.01	3126.74
693.199	2983.38
693.388	2993.62
693.578	2997.71
693.767	3032.53
693.956	3102.16
694.146	2946.52
694.335	2966.99
694.524	2946.52
694.713	3061.2
694.902	2936.28
695.092	2876.88
695.281	2948.56
695.47	2919.89
695.659	2969.04
695.848	2842.07
696.037	2944.47
696.226	2760.15
696.415	2868.69
696.604	2864.6
696.793	2977.23
696.982	2895.32
697.171	2842.07
697.36	2878.93
697.549	2878.93
697.738	2749.91
697.927	2735.57
698.116	2747.86
698.305	2751.96
698.494	2772.44
698.683	2737.62
698.872	2733.53
699.061	2778.58
699.25	2711
699.438	2665.94
699.627	2670.04
699.816	2690.52
700.005	2805.21
700.193	2602.46
700.382	2680.28
700.571	2672.09
700.76	2573.78
700.948	2639.32
701.137	2536.92
701.326	2674.14
701.514	2551.26
701.703	2518.49
701.892	2448.86
702.08	2614.74
702.269	2514.39
702.457	2555.35
702.646	2559.45
702.834	2428.38
703.023	2504.15
703.212	2444.76
703.4	2354.65
703.589	2364.89
703.777	2340.32
703.965	2432.47
704.154	2346.46
704.342	2295.26
704.531	2342.36
704.719	2190.81
704.907	2293.21
705.096	2344.41
705.284	2233.82
705.472	2199.01
705.661	2336.22
705.849	2293.21
706.037	2393.56
706.226	2280.93
706.414	2223.58
706.602	2285.02
706.79	2287.07
706.979	2156
707.167	2235.87
707.355	2133.47
707.543	2217.44
707.731	2217.44
707.919	2182.62
708.107	2235.87
708.296	2147.81
708.484	2088.42
708.672	2033.12
708.86	2096.61
709.048	2059.74
709.236	2090.46
709.424	2076.13
709.612	2096.61
709.8	2078.18
709.988	2004.45
710.176	2084.32
710.364	2033.12
710.551	1981.92
710.739	1953.25
710.927	1920.48
711.115	2012.64
711.303	1963.49
711.491	1910.24
711.679	1912.29
711.866	1916.39
712.054	1981.92
712.242	1889.76
712.43	1957.35
712.617	2000.35
712.805	1795.56
712.993	1822.18
713.181	1822.18
713.368	1893.86
713.556	1797.6
713.744	1881.57
713.931	1705.45
714.119	1713.64
714.306	1756.65
714.494	1805.8
714.682	1795.56
714.869	1883.62
715.057	1857
715.244	1650.15
715.432	1695.21
715.619	1754.6
715.807	1644.01
715.994	1736.17
716.182	1682.92
716.369	1699.3
716.556	1691.11
716.744	1676.77
716.931	1635.82
717.119	1629.67
717.306	1584.62
717.493	1574.38
717.681	1617.38
717.868	1471.98
718.055	1703.4
718.242	1615.34
718.43	1580.52
718.617	1598.95
718.804	1547.75
718.991	1547.75
719.179	1547.75
719.366	1609.19
719.553	1682.92
719.74	1461.74
719.927	1545.7
720.114	1568.23
720.301	1355.24
720.488	1527.27
720.676	1476.07
720.863	1388.01
721.05	1478.12
721.237	1451.5
721.424	1443.31
721.611	1420.78
721.798	1414.63
721.985	1338.86
722.172	1424.87
722.358	1439.21
722.545	1359.34
722.732	1385.96
722.919	1414.63
723.106	1308.14
723.293	1318.38
723.48	1375.72
723.667	1242.61
723.853	1267.18
724.04	1320.43
724.227	1402.35
724.414	1289.71
724.6	1357.29
724.787	1318.38
724.974	1332.72
725.161	1258.99
725.347	1306.09
725.534	1297.9
725.72	1144.3
725.907	1240.56
726.094	1275.37
726.28	1181.17
726.467	1215.98
726.653	1220.08
726.84	1195.5
727.027	1271.28
727.213	1281.52
727.4	1175.02
727.586	1258.99
727.773	1168.88
727.959	1191.41
728.145	1179.12
728.332	1119.73
728.518	1070.58
728.705	1201.65
728.891	1195.5
729.077	1127.92
729.264	1119.73
729.45	1123.82
729.636	1129.97
729.823	1117.68
730.009	1199.6
730.195	1105.39
730.382	1095.15
730.568	1084.91
730.754	1031.66
730.94	1084.91
731.126	959.99
731.313	1084.91
731.499	1080.82
731.685	1091.06
731.871	1054.19
732.057	1097.2
732.243	1046
732.429	1015.28
732.615	1041.9
732.801	1019.38
732.987	994.8
733.173	1027.57
733.359	1050.1
733.545	1031.66
733.731	972.27
733.917	1054.19
734.103	919.03
734.289	986.61
734.475	949.75
734.661	1011.18
734.847	898.55
735.033	1015.28
735.219	976.37
735.404	949.75
735.59	898.55
735.776	863.73
735.962	890.35
736.148	896.5
736.333	908.79
736.519	974.32
736.705	833.01
736.89	900.59
737.076	853.49
737.262	886.26
737.447	847.35
737.633	859.63
737.819	871.92
738.004	927.22
738.19	810.48
738.375	835.06
738.561	955.89
738.747	808.44
738.932	976.37
739.118	869.87
739.303	800.24
739.489	865.78
739.674	824.82
739.859	876.02
740.045	826.87
740.23	847.35
740.416	818.68
740.601	790
740.786	855.54
740.972	818.68
741.157	765.43
741.342	652.79
741.528	757.24
741.713	802.29
741.898	732.66
742.084	744.95
742.269	736.76
742.454	808.44
742.639	769.52
742.824	777.72
743.01	728.56
743.195	728.56
743.38	781.81
743.565	769.52
743.75	767.48
743.935	628.21
744.12	736.76
744.305	701.94
744.49	638.45
744.675	708.09
744.86	646.65
745.045	701.94
745.23	622.07
745.415	747
745.6	691.7
745.785	693.75
745.97	636.41
746.155	650.74
746.34	648.69
746.525	626.17
746.71	644.6
746.895	646.65
747.079	593.4
747.264	658.93
747.449	577.02
747.634	712.18
747.819	650.74
748.003	648.69
748.188	642.55
748.373	603.64
748.557	579.06
748.742	628.21
748.927	564.73
749.111	620.02
749.296	581.11
749.481	572.92
749.665	648.69
749.85	628.21
750.034	667.13
750.219	503.29
750.404	529.91
750.588	562.68
750.773	536.06
750.957	570.87
751.141	558.58
751.326	517.62
751.51	546.3
751.695	546.3
751.879	460.28
752.064	579.06
752.248	624.12
752.432	577.02
752.617	577.02
752.801	509.43
752.985	472.57
753.17	595.45
753.354	474.62
753.538	531.96
753.722	548.34
753.907	458.23
754.091	513.53
754.275	560.63
754.459	570.87
754.643	439.8
754.828	507.38
755.012	484.86
755.196	529.91
755.38	511.48
755.564	482.81
755.748	460.28
755.932	437.75
756.116	433.66
756.3	552.44
756.484	460.28
756.668	486.9
756.852	488.95
757.036	427.51
757.22	462.33
757.404	445.95
757.588	390.65
757.772	447.99
757.956	456.19
758.14	474.62
758.323	525.82
758.507	452.09
758.691	372.22
758.875	497.14
759.059	400.89
759.242	357.88
759.426	398.84
759.61	390.65
759.794	382.46
759.977	505.34
760.161	415.23
760.345	394.75
760.528	339.45
760.712	460.28
760.895	441.85
761.079	359.93
761.263	376.31
761.446	343.55
761.63	488.95
761.813	337.4
761.997	345.59
762.18	400.89
762.364	402.94
762.547	462.33
762.731	355.83
762.914	415.23
763.098	398.84
763.281	419.32
763.464	386.55
763.648	339.45
763.831	343.55
764.015	349.69
764.198	384.51
764.381	456.19
764.564	443.9
764.748	396.79
764.931	345.59
765.114	394.75
765.297	368.12
765.481	374.27
765.664	300.54
765.847	314.88
766.03	337.4
766.213	349.69
766.397	323.07
766.58	345.59
766.763	341.5
766.946	425.47
767.129	302.59
767.312	284.16
767.495	308.73
767.678	357.88
767.861	296.44
768.044	425.47
768.227	382.46
768.41	347.64
768.593	382.46
768.776	366.07
768.959	413.18
769.142	396.79
769.324	349.69
769.507	316.92
769.69	378.36
769.873	337.4
770.056	388.6
770.239	359.93
770.421	351.74
770.604	292.35
770.787	263.68
770.97	261.63
771.152	333.31
771.335	392.7
771.518	374.27
771.7	359.93
771.883	341.5
772.066	314.88
772.248	333.31
772.431	355.83
772.613	355.83
772.796	339.45
772.978	333.31
773.161	296.44
773.343	355.83
773.526	333.31
773.708	286.2
773.891	278.01
774.073	327.16
774.256	310.78
774.438	325.12
774.621	302.59
774.803	398.84
774.985	382.46
775.168	316.92
775.35	296.44
775.532	288.25
775.715	230.91
775.897	267.77
776.079	269.82
776.261	316.92
776.444	357.88
776.626	355.83
776.808	325.12
776.99	257.53
777.173	316.92
777.355	323.07
777.537	280.06
777.719	347.64
777.901	275.96
778.083	294.4
778.265	257.53
778.447	318.97
778.629	298.49
778.811	308.73
778.993	179.71
779.175	210.43
779.357	208.38
779.539	228.86
779.721	341.5
779.903	278.01
780.085	273.92
780.267	290.3
780.449	275.96
780.631	255.48
780.812	192
780.994	267.77
781.176	220.67
781.358	224.76
781.54	177.66
781.721	302.59
781.903	271.87
782.085	243.2
782.267	210.43
782.448	273.92
782.63	230.91
782.812	249.34
782.993	241.15
783.175	208.38
783.357	194.05
783.538	212.48
783.72	241.15
783.901	208.38
784.083	261.63
784.264	235
784.446	230.91
784.627	167.42
784.809	140.8
784.99	261.63
785.172	146.94
785.353	278.01
785.535	226.81
785.716	251.39
785.897	226.81
786.079	226.81
786.26	173.57
786.441	249.34
786.623	183.81
786.804	251.39
786.985	198.14
787.167	183.81
787.348	163.33
787.529	185.85
787.71	202.24
787.891	187.9
788.073	224.76
788.254	192
788.435	124.41
788.616	224.76
788.797	118.27
788.978	185.85
789.159	198.14
789.34	187.9
789.522	138.75
789.703	87.55
789.884	183.81
790.065	196.09
790.246	136.7
790.427	155.13
790.607	181.76
790.788	144.89
790.969	173.57
791.15	171.52
791.331	161.28
791.512	134.65
791.693	218.62
791.874	136.7
792.054	189.95
792.235	169.47
792.416	146.94
792.597	208.38
792.778	126.46
792.958	134.65
793.139	118.27
793.32	148.99
793.5	146.94
793.681	200.19
793.862	157.18
794.042	159.23
794.223	177.66
794.404	183.81
794.584	189.95
794.765	140.8
794.945	146.94
795.126	173.57
795.306	124.41
795.487	46.59
795.667	128.51
795.848	144.89
796.028	167.42
796.209	118.27
796.389	159.23
796.57	101.89
796.75	144.89
796.93	134.65
797.111	36.35
797.291	73.21
797.471	124.41
797.652	108.03
797.832	85.5
798.012	122.37
798.192	132.61
798.373	134.65
798.553	157.18
798.733	54.78
798.913	108.03
799.093	75.26
799.274	101.89
799.454	157.18
799.634	130.56
799.814	134.65
799.994	138.75
800.174	103.93
800.354	87.55
800.534	89.6
800.714	124.41
800.894	118.27
801.074	114.17
801.254	89.6
801.434	99.84
801.614	60.93
801.794	22.02
801.974	282.11
802.154	103.93
802.334	134.65
802.514	89.6
802.693	151.04
802.873	69.12
803.053	132.61
803.233	60.93
803.413	142.85
803.592	97.79
803.772	132.61
803.952	118.27
804.131	79.36
804.311	95.74
804.491	126.46
804.67	71.17
804.85	89.6
805.03	54.78
805.209	87.55
805.389	126.46
805.568	56.83
805.748	91.65
805.928	91.65
806.107	79.36
806.287	128.51
806.466	136.7
806.646	128.51
806.825	79.36
807.004	67.07
807.184	73.21
807.363	60.93
807.543	71.17
807.722	69.12
807.901	103.93
808.081	112.13
808.26	79.36
808.439	163.33
808.619	85.5
808.798	79.36
808.977	128.51
809.156	85.5
809.336	83.45
809.515	124.41
809.694	50.69
809.873	114.17
810.052	114.17
810.231	99.84
810.411	112.13
810.59	71.17
810.769	89.6
810.948	101.89
811.127	73.21
811.306	69.12
811.485	103.93
811.664	132.61
811.843	99.84
812.022	99.84
812.201	89.6
812.38	89.6
812.559	34.3
812.737	24.06
812.916	56.83
813.095	36.35
813.274	128.51
813.453	11.78
813.632	44.54
813.811	130.56
813.989	42.5
814.168	114.17
814.347	28.16
814.526	114.17
814.704	179.71
814.883	52.74
815.062	77.31
815.24	44.54
815.419	89.6
815.598	34.3
815.776	-0.51
815.955	48.64
816.133	28.16
816.312	138.75
816.49	73.21
816.669	11.78
816.847	44.54
817.026	87.55
817.204	89.6
817.383	69.12
817.561	28.16
817.74	58.88
817.918	34.3
818.097	79.36
818.275	-16.9
818.453	44.54
818.632	93.69
818.81	93.69
818.988	54.78
819.167	87.55
819.345	54.78
819.523	38.4
819.701	65.02
819.879	134.65
820.058	26.11
820.236	77.31
820.414	3.58
820.592	69.12
820.77	44.54
820.948	32.26
821.127	36.35
821.305	54.78
821.483	1.54
821.661	71.17
821.839	97.79
822.017	71.17
822.195	36.35
822.373	54.78
822.551	81.41
822.729	11.78
822.907	38.4
823.085	60.93
823.262	17.92
823.44	44.54
823.618	58.88
823.796	9.73
823.974	54.78
824.152	19.97
824.329	24.06
824.507	-0.51
824.685	34.3
824.863	138.75
825.04	77.31
825.218	73.21
825.396	79.36
825.574	142.85
825.751	-4.61
825.929	11.78
826.107	15.87
826.284	44.54
826.462	75.26
826.639	-18.94
826.817	48.64
826.994	75.26
827.172	34.3
827.349	42.5
827.527	62.98
827.704	99.84
827.882	1.54
828.059	13.82
828.237	75.26
828.414	52.74
828.591	42.5
828.769	28.16
828.946	75.26
829.124	17.92
829.301	77.31
829.478	62.98
829.655	44.54
829.833	7.68
830.01	73.21
830.187	97.79
830.364	-29.18
830.542	65.02
830.719	44.54
830.896	17.92
831.073	46.59
831.25	81.41
831.427	24.06
831.604	67.07
831.782	22.02
831.959	73.21
832.136	26.11
832.313	79.36
832.49	28.16
832.667	71.17
832.844	19.97
833.021	91.65
833.198	7.68
833.374	73.21
833.551	17.92
833.728	-6.66
833.905	50.69
834.082	46.59
834.259	13.82
834.436	15.87
834.612	87.55
834.789	13.82
834.966	62.98
835.143	62.98
835.319	-10.75
835.496	52.74
835.673	83.45
835.85	46.59
836.026	56.83
836.203	30.21
836.38	85.5
836.556	79.36
836.733	7.68
836.909	62.98
837.086	11.78
837.262	26.11
837.439	-27.14
837.616	13.82
837.792	48.64
837.968	110.08
838.145	-27.14
838.321	-12.8
838.498	48.64
838.674	-10.75
838.851	60.93
839.027	1.54
839.203	48.64
839.38	5.63
839.556	-8.7
839.732	15.87
839.909	28.16
840.085	46.59
840.261	22.02
840.437	36.35
840.614	-16.9
840.79	-2.56
840.966	-8.7
841.142	1.54
841.318	-33.28
841.494	44.54
841.671	26.11
841.847	13.82
842.023	17.92
842.199	148.99
842.375	46.59
842.551	3.58
842.727	30.21
842.903	62.98
843.079	5.63
843.255	56.83
843.431	95.74
843.607	65.02
843.783	9.73
843.959	105.98
844.134	9.73
844.31	77.31
844.486	3.58
844.662	60.93
844.838	32.26
845.013	13.82
845.189	36.35
845.365	52.74
845.541	26.11
845.716	71.17
845.892	85.5
846.068	36.35
846.244	-25.09
846.419	87.55
846.595	7.68
846.77	42.5
846.946	81.41
847.122	22.02
847.297	48.64
847.473	112.13
847.648	-47.62
847.824	75.26
847.999	36.35
848.175	-0.51
848.35	-18.94
848.526	58.88
848.701	-35.33
848.876	38.4
849.052	-14.85
849.227	42.5
849.403	15.87
849.578	-12.8
849.753	-53.76
849.929	-25.09
850.104	-8.7
850.279	44.54
850.454	60.93
850.63	9.73
850.805	42.5
850.98	11.78
851.155	24.06
851.33	-39.42
851.505	58.88
851.681	36.35
851.856	32.26
852.031	73.21
852.206	54.78
852.381	-16.9
852.556	28.16
852.731	65.02
852.906	-14.85
853.081	30.21
853.256	-6.66
853.431	22.02
853.606	-37.38
853.781	38.4
853.956	19.97
854.131	-27.14
854.305	-8.7
854.48	11.78
854.655	48.64
854.83	60.93
855.005	9.73
855.18	-29.18
855.354	28.16
855.529	89.6
855.704	17.92
855.879	-18.94
856.053	60.93
856.228	52.74
856.403	52.74
856.577	-39.42
856.752	-2.56
856.926	38.4
857.101	1.54
857.276	50.69
857.45	11.78
857.625	48.64
857.799	34.3
857.974	-35.33
858.148	-53.76
858.323	-6.66
858.497	87.55
858.672	-31.23
858.846	9.73
859.02	40.45
859.195	58.88
859.369	62.98
859.543	-2.56
859.718	36.35
859.892	5.63
860.066	-20.99
860.241	3.58
860.415	15.87
860.589	-12.8
860.763	48.64
860.938	-14.85
861.112	3.58
861.286	40.45
861.46	52.74
861.634	42.5
861.808	60.93
861.982	26.11
862.157	62.98
862.331	-57.86
862.505	65.02
862.679	-12.8
862.853	-16.9
863.027	1.54
863.201	17.92
863.375	30.21
863.549	48.64
863.722	5.63
863.896	128.51
864.07	71.17
864.244	42.5
864.418	15.87
864.592	71.17
864.766	5.63
864.939	93.69
865.113	15.87
865.287	15.87
865.461	-39.42
865.634	19.97
865.808	77.31
865.982	36.35
866.156	13.82
866.329	19.97
866.503	-53.76
866.676	40.45
866.85	-14.85
867.024	17.92
867.197	65.02
867.371	-27.14
867.544	-8.7
867.718	67.07
867.891	42.5
868.065	7.68
868.238	1.54
868.412	38.4
868.585	19.97
868.759	136.7
868.932	36.35
869.105	26.11
869.279	24.06
869.452	22.02
869.625	19.97
869.799	19.97
869.972	24.06
870.145	48.64
870.319	79.36
870.492	95.74
870.665	34.3
870.838	48.64
871.011	-0.51
871.185	38.4
871.358	-12.8
871.531	52.74
871.704	26.11
871.877	46.59
872.05	28.16
872.223	11.78
872.396	40.45
872.569	40.45
872.742	-23.04
872.915	69.12
873.088	3.58
873.261	52.74
873.434	-0.51
873.607	-2.56
873.78	-33.28
873.953	15.87
874.126	-0.51
874.299	28.16
874.471	30.21
874.644	-4.61
874.817	-25.09
874.99	-16.9
875.163	13.82
875.335	9.73
875.508	50.69
875.681	5.63
875.853	-76.29
876.026	32.26
876.199	-6.66
876.371	-20.99
876.544	9.73
876.717	-10.75
876.889	38.4
877.062	28.16
877.234	-18.94
877.407	77.31
877.579	-31.23
877.752	58.88
877.924	3.58
878.097	22.02
878.269	1.54
878.442	67.07
878.614	38.4
878.786	26.11
878.959	-35.33
879.131	9.73
879.303	11.78
879.476	17.92
879.648	65.02
879.82	11.78
879.993	32.26
880.165	77.31
880.337	58.88
880.509	50.69
880.681	-27.14
880.854	58.88
881.026	-37.38
881.198	-16.9
881.37	22.02
881.542	-10.75
881.714	30.21
881.886	30.21
882.058	13.82
882.23	-25.09
882.402	36.35
882.574	32.26
882.746	42.5
882.918	9.73
883.09	-12.8
883.262	30.21
883.434	-14.85
883.606	17.92
883.778	-31.23
883.95	42.5
884.122	22.02
884.293	22.02
884.465	-8.7
884.637	11.78
884.809	-0.51
884.98	42.5
885.152	42.5
885.324	13.82
885.496	95.74
885.667	93.69
885.839	-18.94
886.011	42.5
886.182	26.11
886.354	11.78
886.525	-35.33
886.697	30.21
886.869	-4.61
887.04	13.82
887.212	36.35
887.383	46.59
887.555	110.08
887.726	52.74
887.897	-33.28
888.069	17.92
888.24	5.63
888.412	28.16
888.583	81.41
888.754	58.88
888.926	30.21
889.097	54.78
889.268	-10.75
889.44	-33.28
889.611	-27.14
889.782	65.02
889.953	19.97
890.125	38.4
890.296	24.06
890.467	-14.85
890.638	26.11
890.809	13.82
890.98	-102.91
891.151	-55.81
891.323	50.69
891.494	32.26
891.665	-10.75
891.836	3.58
892.007	-2.56
892.178	-10.75
892.349	28.16
892.52	22.02
892.691	-4.61
892.862	19.97
893.032	36.35
893.203	54.78
893.374	-10.75
893.545	56.83
893.716	44.54
893.887	30.21
894.057	-10.75
894.228	-88.57
894.399	3.58
894.57	-33.28
894.74	5.63
894.911	-16.9
895.082	-23.04
895.253	50.69
895.423	13.82
895.594	38.4
895.764	38.4
895.935	7.68
896.106	5.63
896.276	-20.99
896.447	71.17
896.617	38.4
896.788	-20.99
896.958	1.54
897.129	5.63
897.299	3.58
897.47	-29.18
897.64	69.12
897.81	30.21
897.981	-2.56
898.151	3.58
898.322	-10.75
898.492	7.68
898.662	-16.9
898.832	-10.75
899.003	19.97
899.173	44.54
899.343	46.59
899.513	-35.33
