Data from USB4F104151__59__12-54-05-943.txt Node

Date: Fri Mar 14 12:54:05 EDT 2025
User: louis
Spectrometer: USB4F10415
Trigger mode: 4
Integration Time (sec): 1.000000E-2
Scans to average: 1
Electric dark correction enabled: true
Nonlinearity correction enabled: false
Boxcar width: 0
XAxis mode: Wavelengths
Number of Pixels in Spectrum: 3648
>>>>>Begin Spectral Data<<<<<
178.204	6.83
178.424	6.83
178.644	6.83
178.864	10.92
179.084	-60.76
179.304	-25.94
179.524	27.31
179.744	19.11
179.964	2.73
180.184	17.07
180.404	-21.84
180.624	-44.37
180.844	15.02
181.064	15.02
181.283	-3.41
181.503	-32.08
181.723	31.4
181.943	-64.85
182.163	74.41
182.383	72.36
182.602	47.79
182.822	66.22
183.042	96.94
183.262	-23.89
183.482	64.17
183.701	41.64
183.921	88.75
184.141	68.27
184.361	58.03
184.58	23.21
184.8	39.59
185.02	31.4
185.239	12.97
185.459	17.07
185.679	53.93
185.898	31.4
186.118	27.31
186.338	49.83
186.557	86.7
186.777	19.11
186.997	33.45
187.216	70.31
187.436	78.51
187.655	80.55
187.875	43.69
188.095	94.89
188.314	15.02
188.534	45.74
188.753	86.7
188.973	15.02
189.192	27.31
189.412	15.02
189.631	74.41
189.851	66.22
190.07	-7.51
190.29	49.83
190.509	49.83
190.729	-3.41
190.948	88.75
191.168	51.88
191.387	66.22
191.607	37.55
191.826	60.07
192.045	4.78
192.265	-7.51
192.484	-23.89
192.704	41.64
192.923	0.68
193.142	80.55
193.362	37.55
193.581	72.36
193.8	47.79
194.02	88.75
194.239	10.92
194.458	0.68
194.678	19.11
194.897	43.69
195.116	55.98
195.335	55.98
195.555	51.88
195.774	6.83
195.993	-3.41
196.212	39.59
196.432	55.98
196.651	37.55
196.87	86.7
197.089	105.13
197.308	109.23
197.528	109.23
197.747	35.5
197.966	12.97
198.185	64.17
198.404	17.07
198.623	49.83
198.842	35.5
199.062	23.21
199.281	76.46
199.5	19.11
199.719	25.26
199.938	60.07
200.157	49.83
200.376	58.03
200.595	98.99
200.814	31.4
201.033	25.26
201.252	31.4
201.471	41.64
201.69	41.64
201.909	21.16
202.128	72.36
202.347	17.07
202.566	-42.32
202.785	8.87
203.004	84.65
203.223	105.13
203.442	33.45
203.661	170.66
203.879	107.18
204.098	86.7
204.317	43.69
204.536	23.21
204.755	62.12
204.974	80.55
205.193	21.16
205.411	119.46
205.63	-17.75
205.849	80.55
206.068	66.22
206.287	31.4
206.505	51.88
206.724	10.92
206.943	10.92
207.162	76.46
207.381	27.31
207.599	92.84
207.818	39.59
208.037	12.97
208.255	12.97
208.474	117.42
208.693	8.87
208.911	68.27
209.13	72.36
209.349	15.02
209.567	35.5
209.786	144.04
210.005	29.35
210.223	64.17
210.442	8.87
210.661	37.55
210.879	-7.51
211.098	2.73
211.316	66.22
211.535	78.51
211.753	74.41
211.972	39.59
212.191	88.75
212.409	-25.94
212.628	-46.42
212.846	-5.46
213.065	27.31
213.283	35.5
213.502	8.87
213.72	109.23
213.938	31.4
214.157	74.41
214.375	119.46
214.594	-11.61
214.812	6.83
215.031	29.35
215.249	-5.46
215.467	123.56
215.686	111.27
215.904	68.27
216.122	35.5
216.341	90.79
216.559	17.07
216.778	39.59
216.996	66.22
217.214	49.83
217.432	80.55
217.651	72.36
217.869	43.69
218.087	62.12
218.306	78.51
218.524	98.99
218.742	64.17
218.96	66.22
219.179	68.27
219.397	33.45
219.615	78.51
219.833	19.11
220.051	70.31
220.27	107.18
220.488	49.83
220.706	82.6
220.924	-15.7
221.142	64.17
221.36	39.59
221.578	80.55
221.796	19.11
222.015	47.79
222.233	45.74
222.451	35.5
222.669	88.75
222.887	27.31
223.105	62.12
223.323	76.46
223.541	101.03
223.759	80.55
223.977	39.59
224.195	78.51
224.413	53.93
224.631	111.27
224.849	2.73
225.067	39.59
225.285	53.93
225.503	45.74
225.721	0.68
225.939	31.4
226.157	80.55
226.375	15.02
226.592	0.68
226.81	107.18
227.028	103.08
227.246	64.17
227.464	12.97
227.682	64.17
227.9	66.22
228.117	53.93
228.335	35.5
228.553	23.21
228.771	4.78
228.989	23.21
229.206	58.03
229.424	47.79
229.642	-9.56
229.86	94.89
230.077	35.5
230.295	66.22
230.513	-25.94
230.731	78.51
230.948	25.26
231.166	76.46
231.384	4.78
231.601	60.07
231.819	-13.65
232.037	68.27
232.254	47.79
232.472	19.11
232.689	107.18
232.907	64.17
233.125	27.31
233.342	94.89
233.56	10.92
233.777	15.02
233.995	10.92
234.213	103.08
234.43	33.45
234.648	49.83
234.865	92.84
235.083	60.07
235.3	33.45
235.518	60.07
235.735	101.03
235.953	25.26
236.17	64.17
236.388	111.27
236.605	12.97
236.822	76.46
237.04	76.46
237.257	109.23
237.475	137.9
237.692	-3.41
237.909	39.59
238.127	74.41
238.344	10.92
238.562	135.85
238.779	45.74
238.996	31.4
239.214	117.42
239.431	78.51
239.648	60.07
239.865	41.64
240.083	80.55
240.3	82.6
240.517	27.31
240.735	-5.46
240.952	31.4
241.169	47.79
241.386	80.55
241.603	58.03
241.821	74.41
242.038	15.02
242.255	8.87
242.472	66.22
242.689	-3.41
242.907	43.69
243.124	60.07
243.341	53.93
243.558	37.55
243.775	55.98
243.992	6.83
244.209	27.31
244.426	15.02
244.643	2.73
244.86	39.59
245.078	96.94
245.295	49.83
245.512	68.27
245.729	39.59
245.946	66.22
246.163	-34.13
246.38	41.64
246.597	17.07
246.814	62.12
247.031	29.35
247.248	49.83
247.464	125.61
247.681	29.35
247.898	101.03
248.115	35.5
248.332	-9.56
248.549	92.84
248.766	107.18
248.983	37.55
249.2	39.59
249.417	70.31
249.633	33.45
249.85	82.6
250.067	92.84
250.284	-5.46
250.501	10.92
250.717	31.4
250.934	15.02
251.151	60.07
251.368	78.51
251.585	113.32
251.801	21.16
252.018	70.31
252.235	39.59
252.451	51.88
252.668	-1.37
252.885	60.07
253.102	0.68
253.318	19.11
253.535	66.22
253.752	37.55
253.968	64.17
254.185	27.31
254.401	62.12
254.618	49.83
254.835	74.41
255.051	41.64
255.268	88.75
255.484	103.08
255.701	58.03
255.917	15.02
256.134	66.22
256.351	92.84
256.567	80.55
256.784	113.32
257	-19.8
257.217	113.32
257.433	66.22
257.65	53.93
257.866	51.88
258.082	60.07
258.299	-15.7
258.515	47.79
258.732	35.5
258.948	113.32
259.165	47.79
259.381	84.65
259.597	55.98
259.814	109.23
260.03	60.07
260.246	105.13
260.463	37.55
260.679	88.75
260.895	25.26
261.112	66.22
261.328	78.51
261.544	21.16
261.761	96.94
261.977	105.13
262.193	43.69
262.409	47.79
262.626	74.41
262.842	98.99
263.058	88.75
263.274	45.74
263.49	64.17
263.707	107.18
263.923	43.69
264.139	41.64
264.355	51.88
264.571	70.31
264.787	17.07
265.004	109.23
265.22	-19.8
265.436	92.84
265.652	2.73
265.868	53.93
266.084	121.51
266.3	94.89
266.516	0.68
266.732	72.36
266.948	17.07
267.164	80.55
267.38	101.03
267.596	43.69
267.812	137.9
268.028	55.98
268.244	68.27
268.46	27.31
268.676	70.31
268.892	80.55
269.108	23.21
269.324	29.35
269.54	45.74
269.756	117.42
269.972	39.59
270.188	37.55
270.403	0.68
270.619	94.89
270.835	88.75
271.051	76.46
271.267	31.4
271.483	8.87
271.698	31.4
271.914	25.26
272.13	49.83
272.346	80.55
272.562	31.4
272.777	31.4
272.993	-34.13
273.209	78.51
273.425	62.12
273.64	45.74
273.856	62.12
274.072	78.51
274.287	43.69
274.503	33.45
274.719	31.4
274.934	113.32
275.15	-15.7
275.366	37.55
275.581	90.79
275.797	53.93
276.012	68.27
276.228	49.83
276.444	10.92
276.659	98.99
276.875	49.83
277.09	82.6
277.306	19.11
277.521	41.64
277.737	80.55
277.952	23.21
278.168	47.79
278.383	82.6
278.599	33.45
278.814	41.64
279.03	68.27
279.245	84.65
279.461	53.93
279.676	29.35
279.892	39.59
280.107	80.55
280.322	25.26
280.538	84.65
280.753	2.73
280.969	72.36
281.184	29.35
281.399	60.07
281.615	109.23
281.83	47.79
282.045	80.55
282.26	84.65
282.476	66.22
282.691	76.46
282.906	23.21
283.122	15.02
283.337	62.12
283.552	29.35
283.767	35.5
283.983	82.6
284.198	66.22
284.413	70.31
284.628	35.5
284.843	107.18
285.058	146.09
285.274	84.65
285.489	0.68
285.704	47.79
285.919	74.41
286.134	139.94
286.349	-25.94
286.564	35.5
286.779	10.92
286.995	17.07
287.21	60.07
287.425	146.09
287.64	53.93
287.855	25.26
288.07	-21.84
288.285	41.64
288.5	21.16
288.715	39.59
288.93	92.84
289.145	66.22
289.36	33.45
289.575	43.69
289.79	39.59
290.004	55.98
290.219	98.99
290.434	101.03
290.649	21.16
290.864	15.02
291.079	64.17
291.294	113.32
291.509	53.93
291.724	86.7
291.938	15.02
292.153	72.36
292.368	23.21
292.583	60.07
292.798	74.41
293.012	88.75
293.227	58.03
293.442	29.35
293.657	43.69
293.871	92.84
294.086	-3.41
294.301	137.9
294.516	96.94
294.73	29.35
294.945	78.51
295.16	80.55
295.374	49.83
295.589	86.7
295.804	49.83
296.018	94.89
296.233	43.69
296.447	113.32
296.662	49.83
296.877	43.69
297.091	47.79
297.306	117.42
297.52	98.99
297.735	43.69
297.949	33.45
298.164	86.7
298.378	-30.04
298.593	47.79
298.807	103.08
299.022	-17.75
299.236	23.21
299.451	78.51
299.665	62.12
299.88	70.31
300.094	12.97
300.309	19.11
300.523	58.03
300.737	23.21
300.952	45.74
301.166	141.99
301.381	84.65
301.595	10.92
301.809	41.64
302.024	111.27
302.238	78.51
302.452	37.55
302.667	-1.37
302.881	23.21
303.095	23.21
303.309	162.47
303.524	74.41
303.738	72.36
303.952	43.69
304.166	19.11
304.381	64.17
304.595	101.03
304.809	66.22
305.023	96.94
305.237	78.51
305.452	58.03
305.666	15.02
305.88	27.31
306.094	76.46
306.308	-15.7
306.522	6.83
306.736	80.55
306.95	84.65
307.164	88.75
307.379	33.45
307.593	84.65
307.807	49.83
308.021	55.98
308.235	74.41
308.449	146.09
308.663	62.12
308.877	66.22
309.091	43.69
309.305	49.83
309.519	8.87
309.733	33.45
309.947	-3.41
310.161	162.47
310.374	27.31
310.588	74.41
310.802	6.83
311.016	107.18
311.23	60.07
311.444	68.27
311.658	33.45
311.872	113.32
312.085	51.88
312.299	-27.99
312.513	109.23
312.727	15.02
312.941	-21.84
313.154	64.17
313.368	-38.23
313.582	60.07
313.796	45.74
314.009	98.99
314.223	2.73
314.437	39.59
314.651	43.69
314.864	86.7
315.078	23.21
315.292	15.02
315.505	21.16
315.719	55.98
315.933	70.31
316.146	47.79
316.36	98.99
316.573	78.51
316.787	8.87
317.001	105.13
317.214	72.36
317.428	-7.51
317.641	64.17
317.855	82.6
318.068	39.59
318.282	68.27
318.495	105.13
318.709	27.31
318.922	15.02
319.136	117.42
319.349	96.94
319.563	41.64
319.776	-1.37
319.99	53.93
320.203	17.07
320.417	105.13
320.63	51.88
320.843	43.69
321.057	127.66
321.27	90.79
321.483	58.03
321.697	66.22
321.91	88.75
322.124	84.65
322.337	76.46
322.55	41.64
322.763	0.68
322.977	8.87
323.19	47.79
323.403	4.78
323.617	72.36
323.83	82.6
324.043	23.21
324.256	82.6
324.469	49.83
324.683	45.74
324.896	49.83
325.109	84.65
325.322	47.79
325.535	76.46
325.748	58.03
325.962	55.98
326.175	29.35
326.388	68.27
326.601	123.56
326.814	105.13
327.027	21.16
327.24	92.84
327.453	27.31
327.666	15.02
327.879	115.37
328.092	66.22
328.305	68.27
328.518	66.22
328.731	27.31
328.944	64.17
329.157	101.03
329.37	74.41
329.583	60.07
329.796	68.27
330.009	96.94
330.222	88.75
330.435	90.79
330.648	41.64
330.861	53.93
331.073	51.88
331.286	6.83
331.499	55.98
331.712	70.31
331.925	107.18
332.138	74.41
332.35	53.93
332.563	43.69
332.776	90.79
332.989	64.17
333.202	49.83
333.414	43.69
333.627	98.99
333.84	25.26
334.053	39.59
334.265	53.93
334.478	-1.37
334.691	23.21
334.903	82.6
335.116	74.41
335.329	49.83
335.541	105.13
335.754	29.35
335.966	33.45
336.179	49.83
336.392	62.12
336.604	55.98
336.817	23.21
337.029	51.88
337.242	78.51
337.454	58.03
337.667	80.55
337.88	148.14
338.092	55.98
338.305	74.41
338.517	45.74
338.729	12.97
338.942	86.7
339.154	62.12
339.367	-1.37
339.579	66.22
339.792	105.13
340.004	121.51
340.217	35.5
340.429	12.97
340.641	123.56
340.854	96.94
341.066	74.41
341.278	121.51
341.491	43.69
341.703	125.61
341.915	88.75
342.128	29.35
342.34	23.21
342.552	96.94
342.764	62.12
342.977	90.79
343.189	53.93
343.401	45.74
343.613	84.65
343.826	94.89
344.038	41.64
344.25	119.46
344.462	119.46
344.674	90.79
344.886	17.07
345.099	92.84
345.311	78.51
345.523	90.79
345.735	121.51
345.947	62.12
346.159	33.45
346.371	90.79
346.583	37.55
346.795	39.59
347.007	17.07
347.219	4.78
347.431	101.03
347.643	90.79
347.855	25.26
348.067	111.27
348.279	33.45
348.491	137.9
348.703	-3.41
348.915	45.74
349.127	27.31
349.339	76.46
349.551	43.69
349.763	96.94
349.975	103.08
350.187	-1.37
350.399	98.99
350.61	105.13
350.822	41.64
351.034	82.6
351.246	-5.46
351.458	76.46
351.669	80.55
351.881	31.4
352.093	39.59
352.305	98.99
352.517	109.23
352.728	70.31
352.94	84.65
353.152	80.55
353.363	-5.46
353.575	113.32
353.787	109.23
353.999	123.56
354.21	115.37
354.422	90.79
354.633	70.31
354.845	115.37
355.057	115.37
355.268	117.42
355.48	76.46
355.692	53.93
355.903	72.36
356.115	80.55
356.326	31.4
356.538	135.85
356.749	82.6
356.961	98.99
357.172	8.87
357.384	53.93
357.595	123.56
357.807	-19.8
358.018	43.69
358.23	88.75
358.441	68.27
358.653	125.61
358.864	55.98
359.075	103.08
359.287	76.46
359.498	64.17
359.709	76.46
359.921	92.84
360.132	29.35
360.344	86.7
360.555	109.23
360.766	15.02
360.977	8.87
361.189	74.41
361.4	-44.37
361.611	107.18
361.823	86.7
362.034	53.93
362.245	76.46
362.456	19.11
362.667	96.94
362.879	66.22
363.09	101.03
363.301	66.22
363.512	164.52
363.723	96.94
363.935	-13.65
364.146	43.69
364.357	98.99
364.568	113.32
364.779	53.93
364.99	27.31
365.201	70.31
365.412	139.94
365.623	72.36
365.834	127.66
366.045	131.75
366.256	137.9
366.467	62.12
366.678	92.84
366.889	-21.84
367.1	23.21
367.311	92.84
367.522	141.99
367.733	41.64
367.944	115.37
368.155	94.89
368.366	15.02
368.577	139.94
368.788	107.18
368.999	23.21
369.209	121.51
369.42	72.36
369.631	96.94
369.842	74.41
370.053	60.07
370.264	121.51
370.474	64.17
370.685	12.97
370.896	88.75
371.107	25.26
371.317	80.55
371.528	72.36
371.739	103.08
371.95	35.5
372.16	113.32
372.371	74.41
372.582	96.94
372.792	39.59
373.003	92.84
373.214	49.83
373.424	164.52
373.635	127.66
373.846	72.36
374.056	41.64
374.267	17.07
374.477	74.41
374.688	-19.8
374.898	86.7
375.109	58.03
375.319	10.92
375.53	60.07
375.74	92.84
375.951	82.6
376.161	72.36
376.372	70.31
376.582	43.69
376.793	105.13
377.003	96.94
377.214	62.12
377.424	47.79
377.635	154.28
377.845	103.08
378.055	125.61
378.266	103.08
378.476	88.75
378.686	109.23
378.897	70.31
379.107	25.26
379.317	139.94
379.528	17.07
379.738	84.65
379.948	-11.61
380.158	88.75
380.369	-7.51
380.579	115.37
380.789	12.97
380.999	90.79
381.21	133.8
381.42	90.79
381.63	90.79
381.84	94.89
382.05	105.13
382.261	88.75
382.471	121.51
382.681	86.7
382.891	96.94
383.101	111.27
383.311	115.37
383.521	84.65
383.731	27.31
383.941	70.31
384.151	98.99
384.361	131.75
384.571	64.17
384.781	115.37
384.991	121.51
385.201	72.36
385.411	115.37
385.621	19.11
385.831	76.46
386.041	80.55
386.251	113.32
386.461	137.9
386.671	33.45
386.881	115.37
387.091	6.83
387.301	78.51
387.511	96.94
387.72	111.27
387.93	53.93
388.14	113.32
388.35	-7.51
388.56	-17.75
388.769	64.17
388.979	103.08
389.189	98.99
389.399	109.23
389.609	74.41
389.818	58.03
390.028	23.21
390.238	98.99
390.447	111.27
390.657	101.03
390.867	103.08
391.076	70.31
391.286	53.93
391.496	70.31
391.705	105.13
391.915	111.27
392.125	148.14
392.334	117.42
392.544	80.55
392.753	98.99
392.963	96.94
393.172	10.92
393.382	152.23
393.591	125.61
393.801	55.98
394.01	53.93
394.22	62.12
394.429	125.61
394.639	60.07
394.848	90.79
395.058	90.79
395.267	158.38
395.477	72.36
395.686	55.98
395.895	19.11
396.105	139.94
396.314	148.14
396.524	47.79
396.733	76.46
396.942	146.09
397.152	131.75
397.361	164.52
397.57	154.28
397.78	96.94
397.989	17.07
398.198	115.37
398.407	96.94
398.617	141.99
398.826	137.9
399.035	74.41
399.244	115.37
399.453	96.94
399.663	148.14
399.872	174.76
400.081	74.41
400.29	113.32
400.499	72.36
400.708	115.37
400.917	49.83
401.127	51.88
401.336	84.65
401.545	133.8
401.754	88.75
401.963	139.94
402.172	86.7
402.381	35.5
402.59	88.75
402.799	41.64
403.008	146.09
403.217	164.52
403.426	115.37
403.635	150.18
403.844	68.27
404.053	180.9
404.262	162.47
404.471	144.04
404.68	119.46
404.888	137.9
405.097	80.55
405.306	125.61
405.515	98.99
405.724	178.86
405.933	70.31
406.142	203.43
406.35	158.38
406.559	193.19
406.768	158.38
406.977	203.43
407.185	98.99
407.394	219.82
407.603	201.38
407.812	109.23
408.02	98.99
408.229	207.53
408.438	144.04
408.646	209.58
408.855	189.1
409.064	195.24
409.272	121.51
409.481	207.53
409.69	244.39
409.898	197.29
410.107	191.14
410.315	289.45
410.524	262.82
410.733	316.07
410.941	260.77
411.15	291.49
411.358	131.75
411.567	316.07
411.775	309.93
411.984	293.54
412.192	297.64
412.401	279.21
412.609	326.31
412.818	350.89
413.026	342.69
413.234	326.31
413.443	385.7
413.651	363.17
413.86	357.03
414.068	428.71
414.276	451.24
414.485	408.23
414.693	453.28
414.901	488.1
415.11	418.47
415.318	504.48
415.526	467.62
415.734	527.01
415.943	488.1
416.151	498.34
416.359	580.26
416.567	606.88
416.776	629.41
416.984	670.37
417.192	688.8
417.4	701.09
417.608	696.99
417.817	703.14
418.025	604.83
418.233	832.16
418.441	670.37
418.649	760.48
418.857	805.53
419.065	776.86
419.273	756.38
419.481	860.83
419.689	938.65
419.897	963.23
420.105	998.04
420.313	1000.09
420.521	981.66
420.729	1043.1
420.937	1129.11
421.145	1217.18
421.353	1233.56
421.561	1256.09
421.769	1235.61
421.977	1376.92
422.185	1331.86
422.393	1358.49
422.601	1477.27
422.809	1610.39
423.017	1528.47
423.224	1536.66
423.432	1604.24
423.64	1575.57
423.848	1858.19
424.056	1759.89
424.263	1829.52
424.471	1794.7
424.679	1880.72
424.887	1974.92
425.094	2009.74
425.302	2007.69
425.51	2003.6
425.718	2220.68
425.925	2130.57
426.133	2206.35
426.341	2364.04
426.548	2505.35
426.756	2503.3
426.964	2468.49
427.171	2712.19
427.379	2869.89
427.586	2697.86
427.794	2876.03
428.001	2931.33
428.209	3119.74
428.417	3103.36
428.624	3424.89
428.832	3390.07
429.039	3263.1
429.247	3275.38
429.454	3547.76
429.662	3742.32
429.869	3623.54
430.076	3773.04
430.284	3814
430.491	3857.01
430.699	4295.27
430.906	4082.28
431.114	4098.67
431.321	4414.06
431.528	4383.34
431.736	4618.85
431.943	4924
432.15	4872.8
432.358	4854.37
432.565	5165.66
432.772	5005.92
432.979	5401.18
433.187	5304.92
433.394	5499.48
433.601	5960.27
433.808	5956.18
434.016	5837.39
434.223	6034
434.43	6519.37
434.637	6189.64
434.844	6679.11
435.052	6685.25
435.259	6777.41
435.466	6928.96
435.673	6933.06
435.88	7307.84
436.087	7645.75
436.294	7633.46
436.501	7535.16
436.708	7623.22
436.915	7881.27
437.122	8077.87
437.329	8340.01
437.537	8372.78
437.743	8487.47
437.95	8475.18
438.157	8911.39
438.364	9341.47
438.571	9273.89
438.778	9396.76
438.985	10230.29
439.192	9728.53
439.399	10084.88
439.606	9900.56
439.813	10326.54
440.02	11184.64
440.227	10924.55
440.433	10773
440.64	11190.78
440.847	10885.64
441.054	11409.92
441.261	11936.24
441.467	12083.7
441.674	12022.26
441.881	12679.66
442.088	12734.95
442.294	12321.26
442.501	12618.22
442.708	12882.41
442.914	13500.89
443.121	14195.15
443.328	13748.7
443.534	14643.66
443.741	14594.51
443.948	14174.67
444.154	15329.73
444.361	14836.17
444.568	15319.49
444.774	15208.9
444.981	15202.75
445.187	15860.15
445.394	16427.44
445.6	16144.82
445.807	17719.71
446.013	16953.77
446.22	17521.06
446.426	17785.24
446.633	18213.27
446.839	18946.44
447.046	18250.13
447.252	18934.15
447.459	18831.76
447.665	19020.17
447.871	20064.63
448.078	20652.4
448.284	19470.72
448.491	20447.6
448.697	21266.79
448.903	21471.59
449.11	21633.38
449.316	21260.65
449.522	21836.13
449.728	22333.78
449.935	22532.43
450.141	22356.31
450.347	23044.43
450.553	22247.77
450.76	22411.6
450.966	23304.52
451.172	22978.89
451.378	23447.88
451.584	23109.96
451.791	23552.32
451.997	23605.57
452.203	23671.11
452.409	24043.84
452.615	23742.78
452.821	23339.33
453.027	22569.3
453.233	24135.99
453.44	23142.73
453.646	23621.95
453.852	23263.56
454.058	23935.29
454.264	23222.6
454.47	23626.05
454.676	22901.07
454.882	23908.67
455.088	21899.61
455.294	22344.02
455.5	22200.66
455.705	22823.25
455.911	21961.05
456.117	21244.26
456.323	21164.39
456.529	19782.01
456.735	20908.4
456.941	20357.49
457.147	20103.54
457.352	19415.43
457.558	19138.95
457.764	19216.77
457.97	18848.14
458.176	18315.67
458.381	18688.4
458.587	17463.71
458.793	17502.62
458.999	16648.62
459.204	17709.47
459.41	17629.6
459.616	16345.52
459.821	16357.81
460.027	16191.92
460.233	15886.78
460.438	15358.4
460.644	15546.81
460.85	14453.2
461.055	14563.79
461.261	14393.81
461.466	13359.58
461.672	12810.73
461.878	13973.97
462.083	12880.36
462.289	12835.3
462.494	12700.14
462.7	12038.64
462.905	11719.16
463.111	12095.99
463.316	12143.09
463.522	11948.53
463.727	11969.01
463.932	11936.24
464.138	11618.81
464.343	11901.43
464.549	11743.74
464.754	11866.61
464.959	11880.95
465.165	11870.71
465.37	11207.17
465.575	11106.82
465.781	11645.43
465.986	11848.18
466.191	11069.95
466.397	11121.15
466.602	10736.13
466.807	10797.57
467.012	10930.69
467.218	10797.57
467.423	10488.33
467.628	10646.02
467.833	11115.01
468.038	10877.44
468.244	10424.84
468.449	10834.44
468.654	10512.91
468.859	10463.75
469.064	10357.26
469.269	10086.93
469.474	10177.04
469.679	10228.24
469.885	9968.15
470.09	10213.9
470.295	9943.57
470.5	9933.33
470.705	9939.47
470.91	9437.72
471.115	9589.27
471.32	9622.04
471.525	9654.81
471.73	9450.01
471.935	9300.51
472.139	8981.03
472.344	9058.85
472.549	9073.18
472.754	9118.24
472.959	8847.91
473.164	8401.45
473.369	8602.15
473.574	8761.89
473.778	8647.21
473.983	8587.82
474.188	8399.4
474.393	8251.95
474.598	8292.91
474.802	8067.63
475.007	8032.82
475.212	8102.45
475.417	7858.74
475.621	7995.95
475.826	7778.87
476.031	7590.45
476.235	7574.07
476.44	7625.27
476.645	7338.55
476.849	7598.65
477.054	7334.46
477.259	7389.75
477.463	7211.58
477.668	7096.89
477.872	7187.01
478.077	7064.13
478.282	6943.3
478.486	6814.27
478.691	6732.36
478.895	6799.94
479.1	6650.44
479.304	6720.07
479.509	6613.57
479.713	6756.93
479.918	6605.38
480.122	6425.16
480.326	6359.63
480.531	6412.87
480.735	6408.78
480.94	6359.63
481.144	6492.74
481.348	6267.47
481.553	6357.58
481.757	6226.51
481.961	6320.71
482.166	6427.21
482.37	6283.85
482.574	6226.51
482.778	6392.39
482.983	6191.69
483.187	6455.88
483.391	6390.35
483.595	6214.22
483.8	6199.88
484.004	6464.07
484.208	6398.54
484.412	6353.48
484.616	6324.81
484.821	6193.74
485.025	6189.64
485.229	6425.16
485.433	6279.75
485.637	6220.36
485.841	6199.88
486.045	6140.49
486.249	6369.87
486.453	6140.49
486.657	6271.56
486.861	6451.78
487.065	6177.36
487.269	6316.62
487.473	6275.66
487.677	6304.33
487.881	6449.74
488.085	6302.28
488.289	6490.7
488.493	6283.85
488.697	6457.93
488.901	6416.97
489.105	6443.59
489.309	6472.26
489.512	6396.49
489.716	6462.02
489.92	6695.49
490.124	6490.7
490.328	6672.96
490.531	6556.23
490.735	6961.73
490.939	6564.42
491.143	6605.38
491.346	6787.65
491.55	7019.07
491.754	6672.96
491.958	6851.14
492.161	6871.62
492.365	6933.06
492.569	6974.02
492.772	6963.78
492.976	7160.38
493.18	7084.61
493.383	7133.76
493.587	7344.7
493.79	7363.13
493.994	7338.55
494.197	7520.82
494.401	7406.14
494.605	7520.82
494.808	7598.65
495.012	7496.25
495.215	7584.31
495.419	7746.1
495.622	7610.93
495.825	7854.64
496.029	7963.19
496.232	8180.27
496.436	8057.39
496.639	8249.9
496.843	8118.83
497.046	8505.9
497.249	8469.03
497.453	8798.76
497.656	8639.01
497.859	8675.88
498.063	8929.83
498.266	9030.18
498.469	8991.27
498.673	9099.81
498.876	9415.19
499.079	9476.63
499.282	9372.19
499.485	9380.38
499.689	9792.02
499.892	9867.8
500.095	9974.29
500.298	10170.9
500.501	10082.83
500.705	10281.49
500.908	10473.99
501.111	10770.95
501.314	10721.8
501.517	10809.86
501.72	10947.08
501.923	11215.36
502.126	11231.74
502.329	11469.31
502.532	11717.11
502.735	11663.86
502.938	11876.85
503.141	11897.33
503.344	12245.49
503.547	12200.43
503.75	12577.26
503.953	12675.56
504.156	12671.47
504.359	12839.4
504.562	12988.9
504.765	13425.12
504.968	13482.46
505.17	13638.11
505.373	13455.84
505.576	14010.84
505.779	14203.35
505.982	14117.33
506.185	14424.53
506.387	14686.67
506.59	14864.84
506.793	14950.85
506.996	15215.04
507.198	15636.92
507.401	15432.13
507.604	15741.37
507.807	16021.94
508.009	15819.19
508.212	16335.28
508.415	16583.09
508.617	16902.57
508.82	16974.25
509.022	16626.09
509.225	17506.72
509.428	17500.58
509.63	17621.41
509.833	17725.85
510.035	18223.51
510.238	18217.36
510.44	18594.19
510.643	18684.3
510.845	18696.59
511.048	18932.11
511.25	19247.49
511.453	19462.53
511.655	20185.46
511.858	19603.84
512.06	20164.98
512.262	20418.93
512.465	20218.23
512.667	20818.28
512.87	21004.65
513.072	20740.46
513.274	21700.96
513.477	21608.8
513.679	22026.59
513.881	22260.06
514.084	22702.42
514.286	22813.01
514.488	22944.08
514.69	23298.38
514.893	23417.16
515.095	23603.52
515.297	23935.29
515.499	24033.6
515.701	24402.23
515.904	24729.91
516.106	24768.82
516.308	25176.36
516.51	25545
516.712	25254.19
516.914	25825.57
517.116	26016.03
517.318	26097.95
517.52	26491.16
517.722	26599.7
517.925	26970.38
518.127	27109.64
518.329	27459.85
518.531	27281.67
518.733	28076.29
518.935	28242.17
519.136	28377.34
519.338	28829.94
519.54	28510.46
519.742	29511.91
519.944	29194.48
520.146	29888.74
520.348	29884.64
520.55	30003.42
520.752	30083.3
520.954	30955.73
521.155	30718.17
521.357	31054.03
521.559	31350.99
521.761	31711.43
521.963	31596.74
522.164	32051.39
522.366	32307.39
522.568	32565.43
522.77	32456.89
522.971	33130.67
523.173	32850.1
523.375	32807.09
523.576	33181.87
523.778	33497.26
523.98	33949.86
524.181	34179.23
524.383	34076.83
524.584	34341.02
524.786	34267.3
524.988	34203.81
525.189	34664.6
525.391	34869.4
525.592	35033.24
525.794	35242.13
525.995	35365.01
526.197	35715.21
526.398	35571.85
526.6	35772.55
526.801	35686.54
527.003	36200.58
527.204	36225.15
527.406	36636.8
527.607	36706.43
527.808	36923.51
528.01	36300.93
528.211	37116.02
528.412	37558.38
528.614	37079.16
528.815	37535.85
529.016	38121.57
529.218	37105.78
529.419	37476.46
529.62	37775.47
529.822	38103.14
530.023	37775.47
530.224	37988.45
530.425	37546.09
530.626	37830.76
530.828	37550.19
531.029	38824.03
531.23	37777.51
531.431	38109.29
531.632	38381.67
531.833	38766.68
532.035	38484.06
532.236	38623.33
532.437	38860.89
532.638	38207.59
532.839	38828.12
533.04	38772.83
533.241	38565.98
533.442	39594.06
533.643	38985.82
533.844	39231.57
534.045	39233.62
534.246	38834.27
534.447	39059.54
534.648	39415.89
534.849	39340.11
535.05	38799.45
535.251	39270.48
535.451	39465.04
535.652	39462.99
535.853	39458.9
536.054	39280.72
536.255	39290.96
536.456	39106.65
536.657	40153.16
536.857	39663.69
537.058	39510.1
537.259	39929.93
537.46	39858.25
537.66	39219.28
537.861	39577.68
538.062	40071.24
538.263	39862.35
538.463	39766.09
538.664	39907.4
538.865	39641.17
539.065	39901.26
539.266	39753.8
539.466	40167.49
539.667	39694.41
539.868	40206.41
540.068	39946.31
540.269	39675.98
540.469	39962.7
540.67	39575.63
540.87	40036.42
541.071	40251.46
541.271	39759.95
541.472	39956.55
541.672	39661.65
541.873	39696.46
542.073	39598.16
542.274	40015.94
542.474	39999.56
542.675	40050.76
542.875	40499.26
543.075	39958.6
543.276	39841.87
543.476	40364.1
543.676	39893.07
543.877	40302.66
544.077	40163.4
544.277	40007.75
544.478	40347.71
544.678	40474.69
544.878	40273.99
545.078	40437.83
545.279	40015.94
545.479	39843.91
545.679	40409.15
545.879	40738.88
546.079	40503.36
546.28	40390.72
546.48	40228.93
546.68	40378.43
546.88	40294.47
547.08	40429.63
547.28	39845.96
547.48	40482.88
547.68	40226.88
547.88	39815.24
548.081	40278.08
548.281	40026.18
548.481	40048.71
548.681	40460.35
548.881	40151.11
549.081	40820.8
549.28	39972.94
549.48	40663.1
549.68	40185.93
549.88	40648.77
550.08	40302.66
550.28	40249.41
550.48	40022.09
550.68	40077.38
550.88	40245.32
551.08	40196.17
551.279	40282.18
551.479	40003.66
551.679	40564.8
551.879	40468.55
552.079	40626.24
552.278	40065.1
552.478	40118.34
552.678	40331.33
552.878	40511.55
553.077	40310.85
553.277	39690.32
553.477	40241.22
553.676	40101.96
553.876	40312.9
554.076	40091.72
554.275	39970.89
554.475	39956.55
554.674	39884.87
554.874	40044.62
555.074	40243.27
555.273	40208.45
555.473	40443.97
555.672	39954.5
555.872	39768.14
556.071	40245.32
556.271	40261.7
556.47	39821.39
556.67	39737.42
556.869	39659.6
557.068	40071.24
557.268	39534.67
557.467	39762
557.667	39751.76
557.866	40110.15
558.065	39807.05
558.265	39721.04
558.464	39346.26
558.663	39692.36
558.863	39379.03
559.062	40192.07
559.261	39387.22
559.461	39575.63
559.66	39737.42
559.859	39714.89
560.058	39333.97
560.258	39514.19
560.457	39120.98
560.656	39618.64
560.855	39374.93
561.054	39567.44
561.253	39278.68
561.453	39587.92
561.652	39657.55
561.851	39460.94
562.05	39231.57
562.249	38932.57
562.448	39956.55
562.647	39549.01
562.846	39168.08
563.045	39485.52
563.244	38836.31
563.443	39299.15
563.642	38819.93
563.841	39147.61
564.04	39133.27
564.239	39356.5
564.438	38867.03
564.637	39014.49
564.836	39311.44
565.035	38574.17
565.234	39037.01
565.432	39024.73
565.631	38955.1
565.83	39159.89
566.029	39084.12
566.228	38961.24
566.427	38719.58
566.625	38641.76
566.824	38496.35
567.023	39151.7
567.222	38463.58
567.42	38879.32
567.619	39004.25
567.818	38529.12
568.016	38422.62
568.215	38959.19
568.414	38459.49
568.612	38838.36
568.811	38555.74
569.01	38707.29
569.208	38342.75
569.407	38623.33
569.605	37720.17
569.804	38799.45
570.002	38443.1
570.201	38402.14
570.4	37984.36
570.598	38172.77
570.797	37898.34
570.995	37910.63
571.193	37986.41
571.392	38418.53
571.59	38056.04
571.789	37642.35
571.987	37652.59
572.186	37920.87
572.384	37605.48
572.582	37695.6
572.781	37578.86
572.979	37232.75
573.177	37431.41
573.376	37560.43
573.574	37255.28
573.772	37539.95
573.971	37236.85
574.169	37255.28
574.367	37095.54
574.565	37464.17
574.763	36964.47
574.962	36982.9
575.16	36655.23
575.358	37251.19
575.556	36522.11
575.754	36956.28
575.952	36698.23
576.151	36980.85
576.349	36509.82
576.547	36075.65
576.745	36479.1
576.943	36466.81
577.141	36173.95
577.339	36407.42
577.537	35911.81
577.735	36032.64
577.933	35739.79
578.131	36100.23
578.329	35842.18
578.527	35555.47
578.725	36040.84
578.923	35940.49
579.121	35549.32
579.319	35696.78
579.516	35897.48
579.714	35491.98
579.912	35113.11
580.11	35405.97
580.308	35461.26
580.506	35330.19
580.704	34764.95
580.901	35047.57
581.099	35506.32
581.297	34613.4
581.495	34771.1
581.692	35188.88
581.89	34527.39
582.088	34775.19
582.285	34379.93
582.483	35016.85
582.681	34609.31
582.878	34246.82
583.076	34046.12
583.274	34525.34
583.471	34238.62
583.669	33972.39
583.866	33888.42
584.064	34138.27
584.262	33607.85
584.459	33726.63
584.657	33818.79
584.854	33927.33
585.052	33353.9
585.249	33685.67
585.447	33724.58
585.644	33288.37
585.841	33288.37
586.039	33642.67
586.236	33124.53
586.434	33003.7
586.631	32901.3
586.828	32811.19
587.026	33020.08
587.223	32788.66
587.42	32776.37
587.618	32440.51
587.815	32202.94
588.012	32567.48
588.21	32213.18
588.407	32630.97
588.604	32358.59
588.801	32237.76
588.999	32272.57
589.196	32012.48
589.393	32030.91
589.59	31996.1
589.787	31516.87
589.984	31770.82
590.182	31140.05
590.379	31576.26
590.576	31387.85
590.773	31484.11
590.97	31086.8
591.167	31453.39
591.364	30877.91
591.561	31111.38
591.758	30611.67
591.955	30875.86
592.152	31033.55
592.349	30693.59
592.546	30793.94
592.743	30681.3
592.94	30296.28
593.137	30449.88
593.334	30490.84
593.531	30060.77
593.727	30191.84
593.924	29812.96
594.121	29939.94
594.318	29792.48
594.515	29618.41
594.712	30484.7
594.908	29503.72
595.105	29575.4
595.302	29647.08
595.499	29511.91
595.696	29196.53
595.892	28965.1
596.089	29495.53
596.286	29174
596.482	29223.15
596.679	29053.17
596.876	29202.67
597.072	28973.3
597.269	28743.92
597.466	28608.76
597.662	28715.25
597.859	28393.72
598.055	28481.78
598.252	28387.58
598.448	28174.59
598.645	28240.12
598.841	27842.82
599.038	27996.42
599.234	28064
599.431	27447.56
599.627	27994.37
599.824	27758.85
600.02	27797.76
600.217	27597.06
600.413	27580.68
600.609	27633.92
600.806	27359.5
601.002	27279.63
601.198	27345.16
601.395	26927.38
601.591	26837.27
601.787	26984.72
601.984	26800.4
602.18	27048.21
602.376	26679.57
602.572	26941.71
602.769	26566.93
602.965	26415.38
603.161	26476.82
603.357	26286.36
603.553	26001.69
603.75	25796.9
603.946	26155.29
604.142	26100
604.338	25811.23
604.534	26009.89
604.73	25917.73
604.926	25755.94
605.122	25618.72
605.318	25682.21
605.514	25033
605.71	25442.6
605.906	25342.25
606.102	25438.5
606.298	25303.34
606.494	25293.1
606.69	25016.62
606.886	25108.78
607.082	24719.67
607.278	24920.37
607.474	24785.2
607.67	24863.02
607.866	24545.59
608.062	24973.61
608.257	24598.84
608.453	24738.1
608.649	24680.75
608.845	24625.46
609.041	24662.32
609.236	24521.01
609.432	24228.15
609.628	24172.86
609.824	24406.33
610.019	24203.58
610.215	23941.44
610.411	24256.82
610.606	23863.61
610.802	23957.82
610.998	24013.12
611.193	24123.71
611.389	23974.2
611.584	23638.34
611.78	23624
611.976	23693.63
612.171	23396.68
612.367	23812.42
612.562	23368.01
612.758	23570.75
612.953	23220.55
613.149	23470.4
613.344	23163.21
613.539	23689.54
613.735	23509.32
613.93	23419.21
614.126	23173.45
614.321	23140.68
614.517	23476.55
614.712	23085.39
614.907	23064.91
615.103	23079.24
615.298	22667.6
615.493	22892.88
615.688	22655.31
615.884	22917.45
616.079	22417.75
616.274	22890.83
616.47	22860.11
616.665	22870.35
616.86	22464.85
617.055	22565.2
617.25	22323.54
617.445	22446.42
617.641	21989.72
617.836	22335.83
618.031	22024.54
618.226	22114.65
618.421	21907.8
618.616	21952.86
618.811	21762.4
619.006	22128.98
619.201	22006.11
619.396	21623.14
619.591	21444.96
619.786	21707.1
619.981	21416.29
620.176	21528.93
620.371	21141.86
620.566	21086.57
620.761	21264.74
620.956	21266.79
621.151	20752.75
621.346	21033.32
621.541	20631.92
621.735	20842.86
621.93	20236.66
622.125	20451.7
622.32	20314.48
622.515	20482.42
622.709	20035.96
622.904	20162.93
623.099	19839.36
623.294	19849.6
623.488	19966.33
623.683	19648.89
623.878	19540.35
624.072	19335.56
624.267	19384.71
624.462	19386.75
624.656	19087.75
624.851	18940.3
625.046	18870.67
625.24	18928.01
625.435	18768.27
625.629	18760.08
625.824	18506.13
626.018	18639.25
626.213	18061.72
626.407	18074.01
626.602	17955.22
626.796	18254.23
626.991	17975.7
627.185	17861.02
627.38	17766.81
627.574	17674.65
627.768	17359.27
627.963	17478.05
628.157	17174.95
628.352	17301.92
628.546	16918.95
628.74	17244.58
628.935	16984.49
629.129	17064.36
629.323	16701.87
629.517	16720.3
629.712	16673.2
629.906	16642.48
630.1	16554.41
630.294	16404.91
630.489	16398.77
630.683	16480.69
630.877	16054.71
631.071	16001.46
631.265	16249.27
631.459	15817.15
631.653	15913.4
631.848	15778.23
632.042	15561.15
632.236	15694.27
632.43	15397.31
632.624	15620.54
632.818	15339.97
633.012	15301.06
633.206	15288.77
633.4	15294.91
633.594	15047.11
633.788	14909.9
633.982	14877.13
634.176	14770.63
634.369	14844.36
634.563	14602.7
634.757	14817.74
634.951	14469.58
635.145	14545.36
635.339	14356.94
635.533	14455.25
635.726	14332.37
635.92	14080.47
636.114	14121.43
636.308	14066.13
636.501	13965.78
636.695	13955.54
636.889	13896.15
637.083	13808.09
637.276	13875.67
637.47	13300.19
637.664	13674.97
637.857	13474.27
638.051	13353.44
638.244	13507.04
638.438	13281.76
638.632	13353.44
638.825	13162.98
639.019	12921.32
639.212	12986.85
639.406	13122.02
639.599	13013.48
639.793	12972.52
639.986	12802.54
640.18	12878.31
640.373	12782.06
640.567	12411.37
640.76	12233.2
640.954	12528.11
641.147	12386.8
641.34	12255.73
641.534	12364.27
641.727	12206.58
641.92	12079.6
642.114	12001.78
642.307	12171.76
642.5	11956.72
642.694	11790.84
642.887	11809.27
643.08	11676.15
643.273	11559.42
643.467	11663.86
643.66	11502.08
643.853	11573.75
644.046	11334.14
644.239	11420.16
644.432	11371.01
644.626	11041.28
644.819	11237.89
645.012	11065.86
645.205	11164.16
645.398	10912.26
645.591	10732.04
645.784	10840.58
645.977	10703.37
646.17	10738.18
646.363	10729.99
646.556	10625.54
646.749	10525.19
646.942	10641.93
647.135	10285.58
647.328	10355.21
647.521	10297.87
647.714	10070.54
647.907	10074.64
648.099	10101.26
648.292	9955.86
648.485	9978.39
648.678	9699.86
648.871	9853.46
649.064	9521.69
649.256	9824.79
649.449	9835.03
649.642	9470.49
649.835	9419.29
650.027	9409.05
650.22	9486.87
650.413	9411.1
650.605	9353.76
650.798	9206.3
650.991	9206.3
651.183	9099.81
651.376	9019.94
651.568	9142.82
651.761	8917.54
651.954	9013.79
652.146	8843.81
652.339	8913.44
652.531	8520.23
652.724	8585.77
652.916	8583.72
653.109	8505.9
653.301	8712.74
653.494	8727.08
653.686	8415.79
653.879	8544.81
654.071	8225.33
654.263	8221.23
654.456	8440.36
654.648	8325.68
654.84	8018.48
655.033	8157.74
655.225	8315.44
655.417	8084.02
655.61	8120.88
655.802	7934.51
655.994	7920.18
656.186	8000.05
656.379	7817.78
656.571	7825.97
656.763	7674.42
656.955	7574.07
657.148	7641.65
657.34	7520.82
657.532	7490.1
657.724	7529.02
657.916	7498.3
658.108	7486.01
658.3	7338.55
658.492	7121.47
658.684	7043.65
658.876	7117.37
659.068	7023.17
659.26	6961.73
659.452	7035.46
659.644	7035.46
659.836	6654.53
660.028	6916.67
660.22	6933.06
660.412	6783.56
660.604	6763.08
660.796	6699.59
660.988	6560.33
661.18	6584.9
661.372	6545.99
661.563	6570.57
661.755	6453.83
661.947	6492.74
662.139	6435.4
662.331	6400.59
662.522	6314.57
662.714	6269.52
662.906	6105.68
663.097	6058.57
663.289	6218.32
663.481	6023.76
663.673	5997.14
663.864	5915.22
664.056	5898.83
664.247	5911.12
664.439	5782.1
664.631	5886.54
664.822	5802.58
665.014	5859.92
665.205	5759.57
665.397	5620.31
665.588	5542.49
665.78	5517.91
665.971	5569.11
666.163	5571.16
666.354	5462.62
666.546	5268.06
666.737	5528.15
666.929	5339.74
667.12	5366.36
667.311	5360.22
667.503	5225.05
667.694	5229.15
667.885	5173.85
668.077	5163.61
668.268	4962.91
668.459	5141.08
668.651	5038.69
668.842	5065.31
669.033	4971.1
669.224	4854.37
669.416	5010.01
669.607	4999.77
669.798	4850.27
669.989	4887.14
670.18	4868.7
670.371	4895.33
670.563	4770.4
670.754	4764.26
670.945	4745.83
671.136	4696.68
671.327	4577.89
671.518	4715.11
671.709	4586.08
671.9	4545.13
672.091	4663.91
672.282	4590.18
672.473	4467.3
672.664	4422.25
672.855	4268.65
673.046	4342.38
673.237	4524.65
673.428	4352.62
673.619	4250.22
673.809	4344.42
674	4192.87
674.191	4223.59
674.382	4391.53
674.573	4186.73
674.764	4225.64
674.954	4268.65
675.145	4233.83
675.336	4149.87
675.527	4115.05
675.717	4178.54
675.908	3922.54
676.099	4088.43
676.289	3940.97
676.48	3990.13
676.671	3981.93
676.861	3975.79
677.052	4006.51
677.243	3932.78
677.433	3850.86
677.624	3945.07
677.814	3822.19
678.005	3842.67
678.195	3809.9
678.386	3725.94
678.576	3793.52
678.767	3818.1
678.957	3775.09
679.148	3789.42
679.338	3744.37
679.529	3594.87
679.719	3664.5
679.909	3656.31
680.1	3598.96
680.29	3660.4
680.481	3619.44
680.671	3549.81
680.861	3576.44
681.052	3619.44
681.242	3609.2
681.432	3564.15
681.622	3541.62
681.813	3619.44
682.003	3625.59
682.193	3615.35
682.383	3455.61
682.573	3476.09
682.764	3566.2
682.954	3529.33
683.144	3545.72
683.334	3445.37
683.524	3553.91
683.714	3433.08
683.904	3394.17
684.094	3404.41
684.284	3381.88
684.474	3259
684.664	3353.21
684.854	3324.54
685.044	3422.84
685.234	3197.56
685.424	3385.98
685.614	3250.81
685.804	3283.58
685.994	3357.3
686.184	3402.36
686.374	3275.38
686.564	3281.53
686.753	3297.91
686.943	3367.54
687.133	3248.76
687.323	3336.82
687.513	3289.72
687.702	3189.37
687.892	3269.24
688.082	3338.87
688.272	3381.88
688.461	3287.67
688.651	3322.49
688.841	3236.47
689.03	3129.98
689.22	3265.14
689.41	3183.23
689.599	3177.08
689.789	3134.07
689.979	3213.95
690.168	3347.06
690.358	3289.72
690.547	3232.38
690.737	3168.89
690.926	3240.57
691.116	3193.47
691.305	3181.18
691.495	3179.13
691.684	3027.58
691.874	3109.5
692.063	3101.31
692.252	3050.11
692.442	3205.75
692.631	3086.97
692.82	3195.51
693.01	3074.68
693.199	3031.68
693.388	3109.5
693.578	3072.64
693.767	3136.12
693.956	3043.96
694.146	3091.07
694.335	3080.83
694.524	3095.16
694.713	3060.35
694.902	2976.38
695.092	3076.73
695.281	2900.61
695.47	3050.11
695.659	2937.47
695.848	2957.95
696.037	2912.89
696.226	2984.57
696.415	3003
696.604	2933.37
696.793	2900.61
696.982	2972.29
697.171	2855.55
697.36	2927.23
697.549	2845.31
697.738	2722.43
697.927	2796.16
698.116	2689.67
698.305	2822.78
698.494	2720.39
698.683	2744.96
698.872	2810.5
699.061	2765.44
699.25	2730.62
699.438	2675.33
699.627	2726.53
699.816	2732.67
700.005	2710.15
700.193	2570.88
700.382	2624.13
700.571	2673.28
700.76	2697.86
700.948	2589.32
701.137	2644.61
701.326	2542.21
701.514	2620.03
701.703	2671.23
701.892	2583.17
702.08	2587.27
702.269	2523.78
702.457	2460.29
702.646	2574.98
702.834	2466.44
703.023	2417.29
703.212	2572.93
703.4	2372.23
703.589	2357.89
703.777	2364.04
703.965	2542.21
704.154	2394.76
704.342	2466.44
704.531	2425.48
704.719	2318.98
704.907	2341.51
705.096	2310.79
705.284	2302.6
705.472	2325.13
705.661	2343.56
705.849	2267.78
706.037	2361.99
706.226	2402.95
706.414	2286.22
706.602	2212.49
706.79	2302.6
706.979	2323.08
707.167	2243.21
707.355	2355.85
707.543	2339.46
707.731	2120.33
707.919	2144.91
708.107	2052.75
708.296	2206.35
708.484	2097.8
708.672	2198.15
708.86	2105.99
709.048	2161.29
709.236	2075.28
709.424	2136.71
709.612	2071.18
709.8	2050.7
709.988	2132.62
710.176	2089.61
710.364	2120.33
710.551	2134.67
710.739	2105.99
710.927	1962.64
711.115	2009.74
711.303	1968.78
711.491	2003.6
711.679	1966.73
711.866	2003.6
712.054	2083.47
712.242	1880.72
712.43	1976.97
712.617	1862.29
712.805	1970.83
712.993	1806.99
713.181	1811.09
713.368	1915.53
713.556	1784.46
713.744	1882.77
713.931	1776.27
714.119	1770.13
714.306	1782.42
714.494	1776.27
714.682	1845.9
714.869	1714.83
715.057	1749.65
715.244	1804.94
715.432	1790.61
715.619	1776.27
715.807	1696.4
715.994	1737.36
716.182	1766.03
716.369	1790.61
716.556	1657.49
716.744	1745.55
716.931	1577.62
717.119	1768.08
717.306	1579.67
717.493	1661.59
717.681	1714.83
717.868	1649.3
718.055	1657.49
718.242	1514.13
718.43	1657.49
718.617	1583.76
718.804	1571.47
718.991	1546.9
719.179	1540.76
719.366	1520.28
719.553	1444.5
719.74	1555.09
719.927	1532.56
720.114	1563.28
720.301	1538.71
720.488	1546.9
720.676	1485.46
720.863	1415.83
721.05	1520.28
721.237	1467.03
721.424	1594
721.611	1342.1
721.798	1493.65
721.985	1436.31
722.172	1432.21
722.358	1381.01
722.545	1503.89
722.732	1338.01
722.919	1397.4
723.106	1446.55
723.293	1426.07
723.48	1286.81
723.667	1409.69
723.853	1348.25
724.04	1315.48
724.227	1342.1
724.414	1360.53
724.6	1311.38
724.787	1344.15
724.974	1286.81
725.161	1333.91
725.347	1305.24
725.534	1268.38
725.72	1217.18
725.907	1178.26
726.094	1231.51
726.28	1266.33
726.467	1276.57
726.653	1254.04
726.84	1313.43
727.027	1221.27
727.213	1292.95
727.4	1200.79
727.586	1122.97
727.773	1219.22
727.959	1186.46
728.145	1225.37
728.332	1215.13
728.518	1163.93
728.705	1192.6
728.891	1155.74
729.077	1174.17
729.264	1098.39
729.45	1104.54
729.636	1075.87
729.823	1071.77
730.009	1106.59
730.195	1141.4
730.382	1051.29
730.568	1155.74
730.754	1125.02
730.94	1047.19
731.126	1155.74
731.313	1157.79
731.499	1045.15
731.685	1016.48
731.871	1069.72
732.057	1112.73
732.243	1039
732.429	1092.25
732.615	1047.19
732.801	1075.87
732.987	950.94
733.173	940.7
733.359	991.9
733.545	1002.14
733.731	1028.76
733.917	1061.53
734.103	1006.24
734.289	932.51
734.475	967.32
734.661	1024.67
734.847	1098.39
735.033	946.84
735.219	971.42
735.404	1036.95
735.59	934.56
735.776	920.22
735.962	1010.33
736.148	893.6
736.333	942.75
736.519	996
736.705	936.6
736.89	948.89
737.076	916.12
737.262	926.36
737.447	932.51
737.633	938.65
737.819	819.87
738.004	883.36
738.19	877.21
738.375	928.41
738.561	887.45
738.747	795.29
738.932	815.77
739.118	914.08
739.303	922.27
739.489	840.35
739.674	879.26
739.859	926.36
740.045	817.82
740.23	809.63
740.416	778.91
740.601	811.68
740.786	785.05
740.972	856.73
741.157	803.49
741.342	801.44
741.528	764.58
741.713	780.96
741.898	737.95
742.084	756.38
742.269	805.53
742.454	789.15
742.639	764.58
742.824	787.1
743.01	758.43
743.195	740
743.38	811.68
743.565	801.44
743.75	750.24
743.935	719.52
744.12	639.65
744.305	694.94
744.49	819.87
744.675	748.19
744.86	662.18
745.045	676.51
745.23	754.34
745.415	744.1
745.6	676.51
745.785	705.18
745.97	740
746.155	705.18
746.34	641.7
746.525	625.31
746.71	676.51
746.895	658.08
747.079	637.6
747.264	561.83
747.449	633.51
747.634	676.51
747.819	588.45
748.003	627.36
748.188	623.27
748.373	619.17
748.557	672.42
748.742	608.93
748.927	672.42
749.111	660.13
749.296	604.83
749.481	621.22
749.665	537.25
749.85	717.47
750.034	574.11
750.219	615.07
750.404	664.22
750.588	600.74
750.773	574.11
750.957	565.92
751.141	535.2
751.326	649.89
751.51	559.78
751.695	524.96
751.879	596.64
752.064	539.3
752.248	539.3
752.432	600.74
752.617	645.79
752.801	582.31
752.985	545.44
753.17	498.34
753.354	541.35
753.538	584.35
753.722	467.62
753.907	643.74
754.091	492.2
754.275	586.4
754.459	512.67
754.643	533.15
754.828	506.53
755.012	516.77
755.196	443.04
755.38	561.83
755.564	500.39
755.748	494.24
755.932	498.34
756.116	572.07
756.3	545.44
756.484	449.19
756.668	508.58
756.852	449.19
757.036	481.96
757.22	504.48
757.404	557.73
757.588	443.04
757.772	453.28
757.956	492.2
758.14	457.38
758.323	488.1
758.507	441
758.691	438.95
758.875	527.01
759.059	475.81
759.242	459.43
759.426	516.77
759.61	490.15
759.794	471.72
759.977	488.1
760.161	418.47
760.345	453.28
760.528	451.24
760.712	424.61
760.895	391.84
761.079	385.7
761.263	381.6
761.446	467.62
761.63	414.37
761.813	397.99
761.997	338.6
762.18	408.23
762.364	361.13
762.547	416.42
762.731	338.6
762.914	436.9
763.098	475.81
763.281	451.24
763.464	453.28
763.648	328.36
763.831	457.38
764.015	336.55
764.198	463.52
764.381	441
764.564	371.37
764.748	387.75
764.931	469.67
765.114	338.6
765.297	371.37
765.481	451.24
765.664	377.51
765.847	381.6
766.03	408.23
766.213	387.75
766.397	404.13
766.58	484
766.763	426.66
766.946	383.65
767.129	447.14
767.312	451.24
767.495	344.74
767.678	383.65
767.861	395.94
768.044	303.78
768.227	400.04
768.41	344.74
768.593	438.95
768.776	383.65
768.959	408.23
769.142	449.19
769.324	334.5
769.507	352.93
769.69	371.37
769.873	387.75
770.056	350.89
770.239	369.32
770.421	354.98
770.604	359.08
770.787	342.69
770.97	402.08
771.152	342.69
771.335	414.37
771.518	412.32
771.7	342.69
771.883	361.13
772.066	275.11
772.248	363.17
772.431	307.88
772.613	393.89
772.796	354.98
772.978	381.6
773.161	338.6
773.343	336.55
773.526	338.6
773.708	365.22
773.891	295.59
774.073	348.84
774.256	318.12
774.438	406.18
774.621	281.25
774.803	402.08
774.985	357.03
775.168	338.6
775.35	285.35
775.532	334.5
775.715	336.55
775.897	377.51
776.079	328.36
776.261	328.36
776.444	307.88
776.626	328.36
776.808	410.28
776.99	287.4
777.173	320.17
777.355	301.73
777.537	324.26
777.719	295.59
777.901	223.91
778.083	297.64
778.265	293.54
778.447	303.78
778.629	334.5
778.811	314.02
778.993	293.54
779.175	283.3
779.357	254.63
779.539	279.21
779.721	318.12
779.903	240.3
780.085	340.65
780.267	277.16
780.449	303.78
780.631	375.46
780.812	283.3
780.994	264.87
781.176	283.3
781.358	225.96
781.54	223.91
781.721	305.83
781.903	268.97
782.085	344.74
782.267	330.41
782.448	262.82
782.63	285.35
782.812	240.3
782.993	182.95
783.175	256.68
783.357	283.3
783.538	137.9
783.72	250.53
783.901	273.06
784.083	189.1
784.264	271.01
784.446	238.25
784.627	234.15
784.809	254.63
784.99	260.77
785.172	174.76
785.353	262.82
785.535	238.25
785.716	295.59
785.897	211.62
786.079	234.15
786.26	191.14
786.441	293.54
786.623	205.48
786.804	217.77
786.985	279.21
787.167	219.82
787.348	264.87
787.529	236.2
787.71	185
787.891	240.3
788.073	236.2
788.254	213.67
788.435	258.73
788.616	289.45
788.797	172.71
788.978	244.39
789.159	156.33
789.34	242.34
789.522	187.05
789.703	252.58
789.884	225.96
790.065	156.33
790.246	205.48
790.427	133.8
790.607	260.77
790.788	199.34
790.969	221.86
791.15	266.92
791.331	234.15
791.512	266.92
791.693	94.89
791.874	146.09
792.054	182.95
792.235	244.39
792.416	178.86
792.597	195.24
792.778	238.25
792.958	185
793.139	195.24
793.32	195.24
793.5	215.72
793.681	277.16
793.862	174.76
794.042	113.32
794.223	160.42
794.404	234.15
794.584	189.1
794.765	105.13
794.945	144.04
795.126	182.95
795.306	115.37
795.487	113.32
795.667	105.13
795.848	176.81
796.028	131.75
796.209	189.1
796.389	174.76
796.57	191.14
796.75	139.94
796.93	131.75
797.111	72.36
797.291	221.86
797.471	174.76
797.652	170.66
797.832	121.51
798.012	115.37
798.192	207.53
798.373	162.47
798.553	166.57
798.733	121.51
798.913	119.46
799.093	197.29
799.274	144.04
799.454	150.18
799.634	176.81
799.814	162.47
799.994	187.05
800.174	213.67
800.354	168.62
800.534	117.42
800.714	223.91
800.894	37.55
801.074	139.94
801.254	195.24
801.434	109.23
801.614	211.62
801.794	72.36
801.974	332.45
802.154	164.52
802.334	98.99
802.514	170.66
802.693	125.61
802.873	185
803.053	160.42
803.233	176.81
803.413	182.95
803.592	125.61
803.772	66.22
803.952	129.7
804.131	98.99
804.311	189.1
804.491	178.86
804.67	123.56
804.85	103.08
805.03	62.12
805.209	92.84
805.389	-1.37
805.568	162.47
805.748	109.23
805.928	80.55
806.107	150.18
806.287	131.75
806.466	121.51
806.646	109.23
806.825	195.24
807.004	64.17
807.184	47.79
807.363	135.85
807.543	70.31
807.722	96.94
807.901	107.18
808.081	115.37
808.26	105.13
808.439	107.18
808.619	115.37
808.798	133.8
808.977	131.75
809.156	84.65
809.336	174.76
809.515	109.23
809.694	131.75
809.873	135.85
810.052	72.36
810.231	103.08
810.411	96.94
810.59	72.36
810.769	74.41
810.948	109.23
811.127	66.22
811.306	41.64
811.485	72.36
811.664	105.13
811.843	162.47
812.022	88.75
812.201	82.6
812.38	94.89
812.559	98.99
812.737	84.65
812.916	90.79
813.095	62.12
813.274	101.03
813.453	96.94
813.632	78.51
813.811	121.51
813.989	55.98
814.168	185
814.347	125.61
814.526	86.7
814.704	135.85
814.883	109.23
815.062	76.46
815.24	131.75
815.419	53.93
815.598	156.33
815.776	47.79
815.955	105.13
816.133	86.7
816.312	94.89
816.49	123.56
816.669	141.99
816.847	21.16
817.026	-11.61
817.204	133.8
817.383	129.7
817.561	101.03
817.74	74.41
817.918	121.51
818.097	90.79
818.275	51.88
818.453	74.41
818.632	80.55
818.81	103.08
818.988	135.85
819.167	107.18
819.345	135.85
819.523	92.84
819.701	66.22
819.879	19.11
820.058	47.79
820.236	133.8
820.414	72.36
820.592	90.79
820.77	-1.37
820.948	115.37
821.127	96.94
821.305	101.03
821.483	66.22
821.661	35.5
821.839	119.46
822.017	39.59
822.195	43.69
822.373	139.94
822.551	88.75
822.729	146.09
822.907	21.16
823.085	62.12
823.262	103.08
823.44	90.79
823.618	41.64
823.796	37.55
823.974	23.21
824.152	82.6
824.329	39.59
824.507	49.83
824.685	82.6
824.863	53.93
825.04	96.94
825.218	35.5
825.396	47.79
825.574	98.99
825.751	49.83
825.929	129.7
826.107	129.7
826.284	101.03
826.462	98.99
826.639	23.21
826.817	70.31
826.994	135.85
827.172	82.6
827.349	113.32
827.527	78.51
827.704	66.22
827.882	105.13
828.059	39.59
828.237	117.42
828.414	139.94
828.591	23.21
828.769	101.03
828.946	53.93
829.124	21.16
829.301	72.36
829.478	121.51
829.655	90.79
829.833	29.35
830.01	84.65
830.187	101.03
830.364	98.99
830.542	146.09
830.719	43.69
830.896	39.59
831.073	111.27
831.25	0.68
831.427	31.4
831.604	41.64
831.782	68.27
831.959	98.99
832.136	156.33
832.313	66.22
832.49	15.02
832.667	111.27
832.844	-11.61
833.021	74.41
833.198	88.75
833.374	25.26
833.551	141.99
833.728	90.79
833.905	139.94
834.082	23.21
834.259	168.62
834.436	51.88
834.612	64.17
834.789	21.16
834.966	66.22
835.143	58.03
835.319	23.21
835.496	-21.84
835.673	31.4
835.85	84.65
836.026	33.45
836.203	60.07
836.38	111.27
836.556	78.51
836.733	92.84
836.909	58.03
837.086	82.6
837.262	90.79
837.439	84.65
837.616	82.6
837.792	60.07
837.968	98.99
838.145	31.4
838.321	43.69
838.498	47.79
838.674	88.75
838.851	-7.51
839.027	55.98
839.203	-13.65
839.38	92.84
839.556	98.99
839.732	107.18
839.909	146.09
840.085	121.51
840.261	-50.52
840.437	86.7
840.614	115.37
840.79	80.55
840.966	43.69
841.142	78.51
841.318	94.89
841.494	8.87
841.671	33.45
841.847	53.93
842.023	86.7
842.199	92.84
842.375	33.45
842.551	55.98
842.727	4.78
842.903	60.07
843.079	125.61
843.255	141.99
843.431	53.93
843.607	43.69
843.783	39.59
843.959	62.12
844.134	39.59
844.31	111.27
844.486	-21.84
844.662	47.79
844.838	101.03
845.013	96.94
845.189	21.16
845.365	70.31
845.541	45.74
845.716	96.94
845.892	29.35
846.068	55.98
846.244	115.37
846.419	35.5
846.595	17.07
846.77	21.16
846.946	74.41
847.122	78.51
847.297	19.11
847.473	62.12
847.648	82.6
847.824	113.32
847.999	4.78
848.175	-23.89
848.35	19.11
848.526	8.87
848.701	15.02
848.876	105.13
849.052	80.55
849.227	94.89
849.403	25.26
849.578	162.47
849.753	72.36
849.929	76.46
850.104	-17.75
850.279	19.11
850.454	19.11
850.63	66.22
850.805	90.79
850.98	64.17
851.155	80.55
851.33	82.6
851.505	45.74
851.681	105.13
851.856	23.21
852.031	60.07
852.206	43.69
852.381	70.31
852.556	66.22
852.731	84.65
852.906	53.93
853.081	78.51
853.256	76.46
853.431	-32.08
853.606	70.31
853.781	66.22
853.956	2.73
854.131	47.79
854.305	8.87
854.48	53.93
854.655	90.79
854.83	47.79
855.005	49.83
855.18	0.68
855.354	39.59
855.529	86.7
855.704	43.69
855.879	10.92
856.053	-32.08
856.228	76.46
856.403	6.83
856.577	6.83
856.752	-15.7
856.926	37.55
857.101	49.83
857.276	29.35
857.45	78.51
857.625	25.26
857.799	82.6
857.974	25.26
858.148	37.55
858.323	60.07
858.497	76.46
858.672	49.83
858.846	27.31
859.02	90.79
859.195	45.74
859.369	74.41
859.543	43.69
859.718	70.31
859.892	43.69
860.066	58.03
860.241	35.5
860.415	15.02
860.589	86.7
860.763	72.36
860.938	88.75
861.112	74.41
861.286	27.31
861.46	49.83
861.634	10.92
861.808	139.94
861.982	10.92
862.157	0.68
862.331	84.65
862.505	94.89
862.679	35.5
862.853	-3.41
863.027	49.83
863.201	41.64
863.375	51.88
863.549	101.03
863.722	45.74
863.896	107.18
864.07	74.41
864.244	55.98
864.418	-15.7
864.592	66.22
864.766	66.22
864.939	17.07
865.113	68.27
865.287	-9.56
865.461	29.35
865.634	0.68
865.808	23.21
865.982	55.98
866.156	-3.41
866.329	84.65
866.503	-7.51
866.676	148.14
866.85	41.64
867.024	-9.56
867.197	17.07
867.371	60.07
867.544	6.83
867.718	15.02
867.891	84.65
868.065	-1.37
868.238	19.11
868.412	43.69
868.585	64.17
868.759	49.83
868.932	74.41
869.105	41.64
869.279	29.35
869.452	31.4
869.625	105.13
869.799	90.79
869.972	62.12
870.145	64.17
870.319	55.98
870.492	19.11
870.665	39.59
870.838	49.83
871.011	15.02
871.185	66.22
871.358	-50.52
871.531	41.64
871.704	29.35
871.877	66.22
872.05	47.79
872.223	35.5
872.396	45.74
872.569	74.41
872.742	-9.56
872.915	-17.75
873.088	47.79
873.261	64.17
873.434	8.87
873.607	84.65
873.78	-1.37
873.953	31.4
874.126	31.4
874.299	15.02
874.471	27.31
874.644	76.46
874.817	39.59
874.99	37.55
875.163	29.35
875.335	-3.41
875.508	-7.51
875.681	0.68
875.853	66.22
876.026	107.18
876.199	-50.52
876.371	-13.65
876.544	35.5
876.717	33.45
876.889	41.64
877.062	115.37
877.234	-62.8
877.407	-7.51
877.579	-9.56
877.752	94.89
877.924	53.93
878.097	-64.85
878.269	80.55
878.442	72.36
878.614	66.22
878.786	10.92
878.959	21.16
879.131	66.22
879.303	33.45
879.476	29.35
879.648	45.74
879.82	17.07
879.993	-21.84
880.165	76.46
880.337	86.7
880.509	121.51
880.681	60.07
880.854	-23.89
881.026	6.83
881.198	64.17
881.37	35.5
881.542	15.02
881.714	31.4
881.886	66.22
882.058	43.69
882.23	33.45
882.402	17.07
882.574	78.51
882.746	19.11
882.918	74.41
883.09	-23.89
883.262	60.07
883.434	82.6
883.606	-5.46
883.778	-27.99
883.95	68.27
884.122	-32.08
884.293	49.83
884.465	82.6
884.637	90.79
884.809	-9.56
884.98	53.93
885.152	43.69
885.324	115.37
885.496	33.45
885.667	45.74
885.839	58.03
886.011	45.74
886.182	12.97
886.354	29.35
886.525	53.93
886.697	98.99
886.869	-32.08
887.04	6.83
887.212	101.03
887.383	43.69
887.555	-1.37
887.726	23.21
887.897	82.6
888.069	98.99
888.24	-19.8
888.412	37.55
888.583	66.22
888.754	-3.41
888.926	23.21
889.097	6.83
889.268	80.55
889.44	10.92
889.611	8.87
889.782	70.31
889.953	37.55
890.125	27.31
890.296	66.22
890.467	80.55
890.638	109.23
890.809	31.4
890.98	58.03
891.151	-50.52
891.323	98.99
891.494	117.42
891.665	70.31
891.836	74.41
892.007	49.83
892.178	53.93
892.349	33.45
892.52	101.03
892.691	-1.37
892.862	88.75
893.032	70.31
893.203	88.75
893.374	90.79
893.545	133.8
893.716	31.4
893.887	21.16
894.057	58.03
894.228	55.98
894.399	27.31
894.57	47.79
894.74	39.59
894.911	70.31
895.082	76.46
895.253	53.93
895.423	6.83
895.594	41.64
895.764	68.27
895.935	86.7
896.106	25.26
896.276	21.16
896.447	21.16
896.617	94.89
896.788	-54.61
896.958	27.31
897.129	98.99
897.299	-21.84
897.47	90.79
897.64	64.17
897.81	2.73
897.981	84.65
898.151	-25.94
898.322	-5.46
898.492	117.42
898.662	10.92
898.832	43.69
899.003	8.87
899.173	12.97
899.343	4.78
899.513	96.94
