Data from USB4F104151__52__12-53-59-813.txt Node

Date: Fri Mar 14 12:53:59 EDT 2025
User: louis
Spectrometer: USB4F10415
Trigger mode: 4
Integration Time (sec): 1.000000E-2
Scans to average: 1
Electric dark correction enabled: true
Nonlinearity correction enabled: false
Boxcar width: 0
XAxis mode: Wavelengths
Number of Pixels in Spectrum: 3648
>>>>>Begin Spectral Data<<<<<
178.204	9.9
178.424	9.9
178.644	9.9
178.864	-14.68
179.084	-53.59
179.304	73.39
179.524	-57.68
179.744	30.38
179.964	-31.06
180.184	-41.3
180.404	-18.77
180.624	46.76
180.844	3.75
181.064	-39.25
181.283	-2.39
181.503	3.75
181.723	32.43
181.943	-4.44
182.163	54.95
182.383	-4.44
182.602	-4.44
182.822	13.99
183.042	-4.44
183.262	59.05
183.482	-2.39
183.701	-24.92
183.921	16.04
184.141	9.9
184.361	38.57
184.58	32.43
184.8	44.71
185.02	36.52
185.239	59.05
185.459	-63.83
185.679	13.99
185.898	7.85
186.118	-16.73
186.338	-20.82
186.557	-0.34
186.777	20.14
186.997	-4.44
187.216	20.14
187.436	26.28
187.655	87.72
187.875	59.05
188.095	24.23
188.314	30.38
188.534	5.8
188.753	69.29
188.973	-18.77
189.192	-10.58
189.412	32.43
189.631	1.71
189.851	13.99
190.07	-16.73
190.29	-16.73
190.509	-6.49
190.729	-8.53
190.948	81.58
191.168	65.19
191.387	57
191.607	28.33
191.826	95.91
192.045	9.9
192.265	-78.16
192.484	28.33
192.704	-10.58
192.923	20.14
193.142	-6.49
193.362	42.67
193.581	50.86
193.8	11.95
194.02	30.38
194.239	-20.82
194.458	34.47
194.678	-20.82
194.897	-35.16
195.116	26.28
195.335	18.09
195.555	-20.82
195.774	73.39
195.993	-8.53
196.212	-22.87
196.432	32.43
196.651	20.14
196.87	-49.49
197.089	46.76
197.308	22.19
197.528	-0.34
197.747	-39.25
197.966	-29.01
198.185	34.47
198.404	-18.77
198.623	-4.44
198.842	36.52
199.062	-8.53
199.281	61.1
199.5	-22.87
199.719	-0.34
199.938	5.8
200.157	32.43
200.376	48.81
200.595	48.81
200.814	30.38
201.033	36.52
201.252	-26.96
201.471	-33.11
201.69	30.38
201.909	5.8
202.128	9.9
202.347	36.52
202.566	11.95
202.785	16.04
203.004	20.14
203.223	102.06
203.442	-4.44
203.661	-6.49
203.879	22.19
204.098	30.38
204.317	32.43
204.536	91.82
204.755	-6.49
204.974	42.67
205.193	16.04
205.411	30.38
205.63	-2.39
205.849	69.29
206.068	7.85
206.287	5.8
206.505	18.09
206.724	-12.63
206.943	-24.92
207.162	-33.11
207.381	30.38
207.599	26.28
207.818	-24.92
208.037	-22.87
208.255	48.81
208.474	13.99
208.693	-2.39
208.911	40.62
209.13	42.67
209.349	34.47
209.567	26.28
209.786	73.39
210.005	57
210.223	59.05
210.442	48.81
210.661	20.14
210.879	-20.82
211.098	44.71
211.316	44.71
211.535	-0.34
211.753	22.19
211.972	-20.82
212.191	71.34
212.409	48.81
212.628	18.09
212.846	63.15
213.065	13.99
213.283	30.38
213.502	46.76
213.72	-16.73
213.938	-47.44
214.157	-14.68
214.375	28.33
214.594	26.28
214.812	-20.82
215.031	42.67
215.249	-37.2
215.467	54.95
215.686	5.8
215.904	-18.77
216.122	-6.49
216.341	75.43
216.559	46.76
216.778	7.85
216.996	-33.11
217.214	67.24
217.432	-14.68
217.651	22.19
217.869	67.24
218.087	-22.87
218.306	46.76
218.524	38.57
218.742	-20.82
218.96	54.95
219.179	20.14
219.397	77.48
219.615	-0.34
219.833	34.47
220.051	85.67
220.27	48.81
220.488	22.19
220.706	11.95
220.924	-0.34
221.142	11.95
221.36	54.95
221.578	30.38
221.796	42.67
222.015	79.53
222.233	24.23
222.451	-35.16
222.669	52.91
222.887	85.67
223.105	-37.2
223.323	26.28
223.541	-49.49
223.759	24.23
223.977	106.15
224.195	57
224.413	5.8
224.631	54.95
224.849	-35.16
225.067	1.71
225.285	13.99
225.503	-8.53
225.721	-10.58
225.939	16.04
226.157	-6.49
226.375	-2.39
226.592	13.99
226.81	36.52
227.028	13.99
227.246	3.75
227.464	-43.35
227.682	-8.53
227.9	50.86
228.117	26.28
228.335	46.76
228.553	75.43
228.771	32.43
228.989	75.43
229.206	46.76
229.424	30.38
229.642	-33.11
229.86	-10.58
230.077	7.85
230.295	46.76
230.513	59.05
230.731	89.77
230.948	13.99
231.166	-10.58
231.384	24.23
231.601	59.05
231.819	9.9
232.037	-14.68
232.254	22.19
232.472	26.28
232.689	81.58
232.907	-26.96
233.125	-24.92
233.342	-16.73
233.56	48.81
233.777	36.52
233.995	24.23
234.213	114.34
234.43	75.43
234.648	38.57
234.865	-24.92
235.083	-8.53
235.3	-10.58
235.518	79.53
235.735	46.76
235.953	40.62
236.17	-37.2
236.388	-8.53
236.605	-51.54
236.822	40.62
237.04	7.85
237.257	-2.39
237.475	-10.58
237.692	26.28
237.909	54.95
238.127	38.57
238.344	48.81
238.562	28.33
238.779	-6.49
238.996	-63.83
239.214	3.75
239.431	24.23
239.648	22.19
239.865	11.95
240.083	38.57
240.3	1.71
240.517	118.44
240.735	7.85
240.952	16.04
241.169	3.75
241.386	18.09
241.603	-10.58
241.821	38.57
242.038	44.71
242.255	13.99
242.472	38.57
242.689	108.2
242.907	57
243.124	-57.68
243.341	16.04
243.558	20.14
243.775	3.75
243.992	93.87
244.209	42.67
244.426	97.96
244.643	71.34
244.86	46.76
245.078	-20.82
245.295	9.9
245.512	118.44
245.729	-33.11
245.946	11.95
246.163	16.04
246.38	73.39
246.597	-2.39
246.814	16.04
247.031	24.23
247.248	-20.82
247.464	-39.25
247.681	24.23
247.898	104.11
248.115	34.47
248.332	50.86
248.549	44.71
248.766	11.95
248.983	124.58
249.2	69.29
249.417	1.71
249.633	65.19
249.85	38.57
250.067	-26.96
250.284	67.24
250.501	42.67
250.717	40.62
250.934	50.86
251.151	32.43
251.368	50.86
251.585	-6.49
251.801	42.67
252.018	22.19
252.235	79.53
252.451	38.57
252.668	-2.39
252.885	48.81
253.102	57
253.318	40.62
253.535	-16.73
253.752	34.47
253.968	44.71
254.185	3.75
254.401	-0.34
254.618	57
254.835	69.29
255.051	67.24
255.268	13.99
255.484	-2.39
255.701	50.86
255.917	5.8
256.134	9.9
256.351	50.86
256.567	-29.01
256.784	20.14
257	28.33
257.217	20.14
257.433	-8.53
257.65	7.85
257.866	36.52
258.082	40.62
258.299	-72.02
258.515	-26.96
258.732	42.67
258.948	-20.82
259.165	44.71
259.381	65.19
259.597	18.09
259.814	91.82
260.03	46.76
260.246	-8.53
260.463	61.1
260.679	34.47
260.895	40.62
261.112	-4.44
261.328	32.43
261.544	16.04
261.761	22.19
261.977	11.95
262.193	-14.68
262.409	81.58
262.626	24.23
262.842	-29.01
263.058	-24.92
263.274	-10.58
263.49	-35.16
263.707	57
263.923	7.85
264.139	77.48
264.355	46.76
264.571	9.9
264.787	24.23
265.004	26.28
265.22	24.23
265.436	18.09
265.652	77.48
265.868	32.43
266.084	-4.44
266.3	3.75
266.516	26.28
266.732	-22.87
266.948	3.75
267.164	65.19
267.38	3.75
267.596	48.81
267.812	22.19
268.028	77.48
268.244	18.09
268.46	81.58
268.676	30.38
268.892	-22.87
269.108	-8.53
269.324	36.52
269.54	-43.35
269.756	-51.54
269.972	5.8
270.188	69.29
270.403	36.52
270.619	-10.58
270.835	48.81
271.051	-0.34
271.267	-43.35
271.483	75.43
271.698	-63.83
271.914	-20.82
272.13	34.47
272.346	52.91
272.562	-57.68
272.777	63.15
272.993	48.81
273.209	36.52
273.425	59.05
273.64	11.95
273.856	32.43
274.072	-82.26
274.287	40.62
274.503	-6.49
274.719	83.63
274.934	46.76
275.15	24.23
275.366	85.67
275.581	50.86
275.797	85.67
276.012	63.15
276.228	-10.58
276.444	-22.87
276.659	5.8
276.875	22.19
277.09	44.71
277.306	81.58
277.521	75.43
277.737	61.1
277.952	-4.44
278.168	13.99
278.383	36.52
278.599	40.62
278.814	-8.53
279.03	61.1
279.245	93.87
279.461	32.43
279.676	20.14
279.892	38.57
280.107	-24.92
280.322	-51.54
280.538	52.91
280.753	42.67
280.969	52.91
281.184	-43.35
281.399	13.99
281.615	38.57
281.83	63.15
282.045	61.1
282.26	75.43
282.476	-37.2
282.691	5.8
282.906	42.67
283.122	65.19
283.337	28.33
283.552	85.67
283.767	54.95
283.983	7.85
284.198	22.19
284.413	13.99
284.628	-22.87
284.843	1.71
285.058	59.05
285.274	-20.82
285.489	34.47
285.704	59.05
285.919	-16.73
286.134	28.33
286.349	7.85
286.564	-24.92
286.779	36.52
286.995	16.04
287.21	-35.16
287.425	83.63
287.64	-84.31
287.855	42.67
288.07	-16.73
288.285	77.48
288.5	24.23
288.715	89.77
288.93	30.38
289.145	48.81
289.36	26.28
289.575	52.91
289.79	48.81
290.004	-10.58
290.219	-6.49
290.434	20.14
290.649	-29.01
290.864	3.75
291.079	59.05
291.294	44.71
291.509	-14.68
291.724	-43.35
291.938	36.52
292.153	71.34
292.368	5.8
292.583	30.38
292.798	-22.87
293.012	130.73
293.227	93.87
293.442	44.71
293.657	26.28
293.871	50.86
294.086	44.71
294.301	79.53
294.516	-2.39
294.73	22.19
294.945	46.76
295.16	57
295.374	-10.58
295.589	106.15
295.804	-6.49
296.018	30.38
296.233	-8.53
296.447	57
296.662	-24.92
296.877	73.39
297.091	13.99
297.306	-16.73
297.52	-6.49
297.735	83.63
297.949	11.95
298.164	54.95
298.378	26.28
298.593	-14.68
298.807	40.62
299.022	79.53
299.236	42.67
299.451	32.43
299.665	59.05
299.88	7.85
300.094	-35.16
300.309	13.99
300.523	-12.63
300.737	30.38
300.952	71.34
301.166	59.05
301.381	26.28
301.595	24.23
301.809	54.95
302.024	-35.16
302.238	-33.11
302.452	57
302.667	24.23
302.881	59.05
303.095	28.33
303.309	50.86
303.524	7.85
303.738	11.95
303.952	-24.92
304.166	38.57
304.381	-0.34
304.595	122.54
304.809	18.09
305.023	63.15
305.237	46.76
305.452	61.1
305.666	-72.02
305.88	1.71
306.094	-39.25
306.308	40.62
306.522	50.86
306.736	-10.58
306.95	28.33
307.164	7.85
307.379	-14.68
307.593	-16.73
307.807	24.23
308.021	1.71
308.235	77.48
308.449	3.75
308.663	59.05
308.877	28.33
309.091	5.8
309.305	34.47
309.519	22.19
309.733	61.1
309.947	7.85
310.161	59.05
310.374	20.14
310.588	-16.73
310.802	69.29
311.016	16.04
311.23	-0.34
311.444	30.38
311.658	38.57
311.872	52.91
312.085	-39.25
312.299	75.43
312.513	95.91
312.727	-2.39
312.941	-65.88
313.154	28.33
313.368	54.95
313.582	-14.68
313.796	-24.92
314.009	102.06
314.223	116.39
314.437	-4.44
314.651	-2.39
314.864	-39.25
315.078	-20.82
315.292	3.75
315.505	32.43
315.719	-10.58
315.933	42.67
316.146	63.15
316.36	-18.77
316.573	69.29
316.787	1.71
317.001	44.71
317.214	22.19
317.428	40.62
317.641	-8.53
317.855	-14.68
318.068	18.09
318.282	52.91
318.495	100.01
318.709	-2.39
318.922	40.62
319.136	54.95
319.349	-10.58
319.563	48.81
319.776	-10.58
319.99	24.23
320.203	3.75
320.417	44.71
320.63	65.19
320.843	65.19
321.057	30.38
321.27	54.95
321.483	20.14
321.697	77.48
321.91	-10.58
322.124	57
322.337	36.52
322.55	-8.53
322.763	30.38
322.977	-10.58
323.19	16.04
323.403	34.47
323.617	-35.16
323.83	57
324.043	-47.44
324.256	97.96
324.469	-31.06
324.683	-26.96
324.896	44.71
325.109	-55.64
325.322	-22.87
325.535	-0.34
325.748	81.58
325.962	48.81
326.175	9.9
326.388	30.38
326.601	71.34
326.814	40.62
327.027	42.67
327.24	40.62
327.453	-4.44
327.666	-20.82
327.879	69.29
328.092	9.9
328.305	46.76
328.518	61.1
328.731	5.8
328.944	1.71
329.157	157.35
329.37	71.34
329.583	89.77
329.796	44.71
330.009	1.71
330.222	1.71
330.435	-22.87
330.648	22.19
330.861	-10.58
331.073	91.82
331.286	-2.39
331.499	38.57
331.712	-31.06
331.925	73.39
332.138	46.76
332.35	22.19
332.563	-67.92
332.776	79.53
332.989	63.15
333.202	28.33
333.414	52.91
333.627	40.62
333.84	104.11
334.053	57
334.265	75.43
334.478	42.67
334.691	-24.92
334.903	32.43
335.116	7.85
335.329	5.8
335.541	38.57
335.754	38.57
335.966	32.43
336.179	9.9
336.392	-8.53
336.604	1.71
336.817	-4.44
337.029	46.76
337.242	1.71
337.454	75.43
337.667	-24.92
337.88	7.85
338.092	83.63
338.305	18.09
338.517	30.38
338.729	81.58
338.942	13.99
339.154	22.19
339.367	13.99
339.579	30.38
339.792	-12.63
340.004	-0.34
340.217	42.67
340.429	48.81
340.641	42.67
340.854	-10.58
341.066	-29.01
341.278	-24.92
341.491	83.63
341.703	52.91
341.915	9.9
342.128	32.43
342.34	87.72
342.552	50.86
342.764	48.81
342.977	-18.77
343.189	46.76
343.401	63.15
343.613	48.81
343.826	20.14
344.038	59.05
344.25	59.05
344.462	116.39
344.674	13.99
344.886	32.43
345.099	3.75
345.311	16.04
345.523	-67.92
345.735	97.96
345.947	-8.53
346.159	65.19
346.371	3.75
346.583	11.95
346.795	63.15
347.007	38.57
347.219	24.23
347.431	13.99
347.643	48.81
347.855	-22.87
348.067	63.15
348.279	52.91
348.491	13.99
348.703	-33.11
348.915	26.28
349.127	83.63
349.339	32.43
349.551	79.53
349.763	83.63
349.975	42.67
350.187	18.09
350.399	-35.16
350.61	38.57
350.822	69.29
351.034	71.34
351.246	30.38
351.458	22.19
351.669	89.77
351.881	87.72
352.093	24.23
352.305	79.53
352.517	36.52
352.728	136.87
352.94	50.86
353.152	67.24
353.363	11.95
353.575	79.53
353.787	26.28
353.999	57
354.21	77.48
354.422	30.38
354.633	-18.77
354.845	-31.06
355.057	71.34
355.268	40.62
355.48	-57.68
355.692	34.47
355.903	104.11
356.115	52.91
356.326	-16.73
356.538	38.57
356.749	91.82
356.961	7.85
357.172	61.1
357.384	11.95
357.595	126.63
357.807	95.91
358.018	57
358.23	63.15
358.441	11.95
358.653	91.82
358.864	9.9
359.075	61.1
359.287	-53.59
359.498	87.72
359.709	16.04
359.921	87.72
360.132	-41.3
360.344	-2.39
360.555	-0.34
360.766	89.77
360.977	36.52
361.189	124.58
361.4	18.09
361.611	34.47
361.823	57
362.034	42.67
362.245	67.24
362.456	85.67
362.667	100.01
362.879	128.68
363.09	102.06
363.301	59.05
363.512	3.75
363.723	-4.44
363.935	54.95
364.146	54.95
364.357	20.14
364.568	40.62
364.779	-14.68
364.99	71.34
365.201	91.82
365.412	67.24
365.623	13.99
365.834	46.76
366.045	50.86
366.256	52.91
366.467	75.43
366.678	30.38
366.889	-33.11
367.1	61.1
367.311	54.95
367.522	16.04
367.733	79.53
367.944	7.85
368.155	61.1
368.366	5.8
368.577	112.3
368.788	102.06
368.999	-39.25
369.209	1.71
369.42	46.76
369.631	59.05
369.842	34.47
370.053	34.47
370.264	69.29
370.474	75.43
370.685	52.91
370.896	77.48
371.107	28.33
371.317	79.53
371.528	1.71
371.739	122.54
371.95	83.63
372.16	52.91
372.371	-55.64
372.582	77.48
372.792	7.85
373.003	81.58
373.214	-26.96
373.424	87.72
373.635	5.8
373.846	30.38
374.056	42.67
374.267	54.95
374.477	-2.39
374.688	13.99
374.898	38.57
375.109	16.04
375.319	110.25
375.53	67.24
375.74	38.57
375.951	-6.49
376.161	28.33
376.372	3.75
376.582	69.29
376.793	3.75
377.003	95.91
377.214	-12.63
377.424	40.62
377.635	67.24
377.845	63.15
378.055	59.05
378.266	-0.34
378.476	-14.68
378.686	-10.58
378.897	-43.35
379.107	22.19
379.317	102.06
379.528	93.87
379.738	44.71
379.948	67.24
380.158	65.19
380.369	95.91
380.579	30.38
380.789	42.67
380.999	69.29
381.21	-0.34
381.42	67.24
381.63	22.19
381.84	61.1
382.05	100.01
382.261	22.19
382.471	42.67
382.681	13.99
382.891	42.67
383.101	108.2
383.311	54.95
383.521	9.9
383.731	11.95
383.941	48.81
384.151	48.81
384.361	38.57
384.571	67.24
384.781	40.62
384.991	73.39
385.201	11.95
385.411	50.86
385.621	65.19
385.831	132.78
386.041	48.81
386.251	38.57
386.461	73.39
386.671	61.1
386.881	38.57
387.091	57
387.301	54.95
387.511	36.52
387.72	-10.58
387.93	42.67
388.14	1.71
388.35	30.38
388.56	63.15
388.769	52.91
388.979	-16.73
389.189	32.43
389.399	18.09
389.609	22.19
389.818	87.72
390.028	44.71
390.238	57
390.447	38.57
390.657	52.91
390.867	30.38
391.076	44.71
391.286	7.85
391.496	34.47
391.705	24.23
391.915	120.49
392.125	54.95
392.334	16.04
392.544	85.67
392.753	81.58
392.963	-22.87
393.172	77.48
393.382	59.05
393.591	50.86
393.801	63.15
394.01	30.38
394.22	54.95
394.429	61.1
394.639	69.29
394.848	85.67
395.058	59.05
395.267	120.49
395.477	57
395.686	71.34
395.895	122.54
396.105	63.15
396.314	50.86
396.524	18.09
396.733	7.85
396.942	34.47
397.152	34.47
397.361	161.45
397.57	5.8
397.78	71.34
397.989	13.99
398.198	179.88
398.407	71.34
398.617	93.87
398.826	20.14
399.035	30.38
399.244	116.39
399.453	73.39
399.663	67.24
399.872	136.87
400.081	87.72
400.29	116.39
400.499	57
400.708	120.49
400.917	106.15
401.127	26.28
401.336	79.53
401.545	175.78
401.754	159.4
401.963	46.76
402.172	75.43
402.381	112.3
402.59	63.15
402.799	132.78
403.008	143.02
403.217	114.34
403.426	155.3
403.635	63.15
403.844	73.39
404.053	87.72
404.262	106.15
404.471	30.38
404.68	102.06
404.888	181.93
405.097	65.19
405.306	149.16
405.515	89.77
405.724	177.83
405.933	112.3
406.142	114.34
406.35	145.06
406.559	190.12
406.768	140.97
406.977	122.54
407.185	114.34
407.394	194.22
407.603	149.16
407.812	241.32
408.02	157.35
408.229	208.55
408.438	173.74
408.646	210.6
408.855	122.54
409.064	235.18
409.272	163.5
409.481	224.94
409.69	169.64
409.898	194.22
410.107	183.98
410.315	231.08
410.524	222.89
410.733	226.98
410.941	186.02
411.15	358.05
411.358	247.46
411.567	319.14
411.775	263.85
411.984	272.04
412.192	349.86
412.401	360.1
412.609	327.33
412.818	306.85
413.026	394.92
413.234	386.72
413.443	358.05
413.651	396.96
413.86	394.92
414.068	499.36
414.276	478.88
414.485	425.64
414.693	452.26
414.901	489.12
415.11	456.36
415.318	446.12
415.526	573.09
415.734	597.67
415.943	542.37
416.151	618.15
416.359	659.1
416.567	657.06
416.776	587.43
416.984	628.39
417.192	685.73
417.4	747.17
417.608	667.3
417.817	704.16
418.025	775.84
418.233	833.18
418.441	824.99
418.649	861.85
418.857	827.04
419.065	939.68
419.273	1015.45
419.481	980.64
419.689	1099.42
419.897	1148.57
420.105	1093.27
420.313	1119.9
420.521	1101.47
420.729	1126.04
420.937	1203.86
421.145	1353.37
421.353	1402.52
421.561	1373.85
421.769	1478.29
421.977	1451.67
422.185	1459.86
422.393	1547.92
422.601	1654.42
422.809	1656.47
423.017	1597.07
423.224	1775.25
423.432	1902.22
423.64	1877.65
423.848	1953.42
424.056	1906.32
424.263	1922.7
424.471	2018.96
424.679	2051.72
424.887	2299.53
425.094	2426.5
425.302	2307.72
425.51	2336.39
425.718	2487.94
425.925	2498.18
426.133	2487.94
426.341	2637.44
426.548	2811.52
426.756	2852.48
426.964	2842.24
427.171	3094.14
427.379	3069.56
427.586	3120.76
427.794	3253.88
428.001	3475.06
428.209	3659.38
428.417	3479.16
428.624	3835.5
428.832	3835.5
429.039	3786.35
429.247	3761.78
429.454	4144.75
429.662	4376.17
429.869	4066.92
430.076	4324.97
430.284	4306.54
430.491	4370.02
430.699	4691.56
430.906	4736.61
431.114	4871.78
431.321	4965.98
431.528	4992.61
431.736	5361.24
431.943	5520.98
432.15	5498.45
432.358	5506.65
432.565	5817.94
432.772	5897.81
432.979	6266.44
433.187	6227.53
433.394	6229.58
433.601	6864.45
433.808	6792.77
434.016	6700.61
434.223	6899.27
434.43	7499.32
434.637	7028.29
434.844	7874.1
435.052	7958.07
435.259	7857.71
435.466	7773.75
435.673	7896.63
435.88	8394.28
436.087	8717.86
436.294	8893.99
436.501	8660.52
436.708	8781.35
436.915	9029.15
437.122	9651.74
437.329	9377.31
437.537	9836.05
437.743	10141.2
437.95	9903.64
438.157	10290.7
438.364	10714.63
438.571	10628.62
438.778	10724.87
438.985	11974.13
439.192	11322.88
439.399	11853.3
439.606	11535.87
439.813	12166.64
440.02	12805.61
440.227	12449.26
440.433	12457.45
440.64	12543.47
440.847	12746.22
441.054	13264.35
441.261	13805.02
441.467	14056.92
441.674	14235.09
441.881	14616.01
442.088	14353.87
442.294	14480.85
442.501	14517.71
442.708	15082.95
442.914	15529.41
443.121	16180.66
443.328	15852.98
443.534	17141.16
443.741	16614.83
443.948	16498.09
444.154	17460.64
444.361	17450.4
444.568	17497.5
444.774	17704.35
444.981	18159
445.187	18089.37
445.394	18953.61
445.6	18845.07
445.807	20923.76
446.013	19862.91
446.22	20202.87
446.426	20888.94
446.633	21099.88
446.839	21892.44
447.046	21054.83
447.252	22224.22
447.459	22041.95
447.665	21921.12
447.871	23172.43
448.078	23956.8
448.284	22885.71
448.491	23536.96
448.697	24747.31
448.903	25056.56
449.11	25208.11
449.316	24687.92
449.522	25171.24
449.728	25623.84
449.935	25986.33
450.141	25754.91
450.347	26613.01
450.553	25724.19
450.76	25945.37
450.966	27049.23
451.172	26529.05
451.378	27256.07
451.584	26864.91
451.791	27200.78
451.997	27268.36
452.203	27794.69
452.409	28095.74
452.615	27901.18
452.821	26410.26
453.027	26483.99
453.233	27940.1
453.44	27053.33
453.646	27217.16
453.852	27182.35
454.058	27870.47
454.264	26692.88
454.47	27536.65
454.676	26834.19
454.882	27997.44
455.088	25314.6
455.294	25734.43
455.5	25675.04
455.705	26465.56
455.911	25109.8
456.117	24659.25
456.323	24868.14
456.529	23321.93
456.735	24481.08
456.941	23760.19
457.147	23201.1
457.352	22308.18
457.558	22248.79
457.764	22396.24
457.97	21831.01
458.176	21398.88
458.381	21208.42
458.587	20508.02
458.793	20446.58
458.999	19508.61
459.204	20753.77
459.41	20333.94
459.616	18824.59
459.821	19004.81
460.027	19006.86
460.233	18396.56
460.438	17474.98
460.644	17665.44
460.85	16848.3
461.055	16956.84
461.261	16801.19
461.466	15601.08
461.672	14919.11
461.878	15955.38
462.083	15242.69
462.289	14525.9
462.494	14589.39
462.7	14061.01
462.905	13641.18
463.111	14108.12
463.316	14271.95
463.522	13831.64
463.727	13927.89
463.932	14050.77
464.138	13641.18
464.343	13839.83
464.549	13573.6
464.754	13710.81
464.959	13723.1
465.165	13643.23
465.37	13233.63
465.575	12609
465.781	13313.5
465.986	13440.48
466.191	13041.12
466.397	12735.98
466.602	11879.93
466.807	12568.04
467.012	12801.51
467.218	12715.5
467.423	12244.46
467.628	12420.59
467.833	12940.77
468.038	12375.53
468.244	12097.01
468.449	12649.96
468.654	12262.9
468.859	11947.51
469.064	12131.83
469.269	11679.22
469.474	11615.74
469.679	11750.9
469.885	11613.69
470.09	11369.98
470.295	11550.2
470.5	11447.8
470.705	11570.68
470.91	11212.29
471.115	11048.45
471.32	11206.14
471.525	11036.16
471.73	10962.44
471.935	11044.35
472.139	10204.69
472.344	10802.69
472.549	10579.47
472.754	10419.72
472.959	10036.75
473.164	9963.03
473.369	9686.55
473.574	10145.3
473.778	10067.47
473.983	9942.55
474.188	9858.58
474.393	9305.63
474.598	9547.29
474.802	9420.31
475.007	9416.22
475.212	9238.05
475.417	9090.59
475.621	8988.19
475.826	9131.55
476.031	8719.91
476.235	8554.02
476.44	8881.7
476.645	8746.53
476.849	8662.57
477.054	8572.46
477.259	8308.27
477.463	8441.39
477.668	8039.98
477.872	8418.86
478.077	8248.88
478.282	7933.49
478.486	7902.77
478.691	7855.67
478.895	7884.34
479.1	7720.5
479.304	7831.09
479.509	7550.52
479.713	7515.7
479.918	7517.75
480.122	7534.14
480.326	7415.35
480.531	7607.86
480.735	7411.26
480.94	7214.65
481.144	7435.83
481.348	7327.29
481.553	7347.77
481.757	7329.34
481.961	7310.91
482.166	7499.32
482.37	7370.3
482.574	7249.47
482.778	7302.72
482.983	7398.97
483.187	7183.93
483.391	7200.32
483.595	7110.21
483.8	7116.35
484.004	7196.22
484.208	7304.76
484.412	7251.52
484.616	7364.15
484.821	7327.29
485.025	7390.78
485.229	7286.33
485.433	7237.18
485.637	7423.55
485.841	7331.39
486.045	7151.17
486.249	7042.62
486.453	7241.28
486.657	7364.15
486.861	7370.3
487.065	7044.67
487.269	7290.43
487.473	7308.86
487.677	7292.48
487.881	7448.12
488.085	7444.03
488.289	7226.94
488.493	7474.74
488.697	7501.37
488.901	7489.08
489.105	7454.26
489.309	7632.44
489.512	7454.26
489.716	7558.71
489.92	7593.53
490.124	7505.46
490.328	7775.8
490.531	7511.61
490.735	7605.81
490.939	7738.93
491.143	7738.93
491.346	7792.18
491.55	7673.4
491.754	7620.15
491.958	7931.44
492.161	8001.07
492.365	8109.61
492.569	7962.16
492.772	7833.14
492.976	8031.79
493.18	8222.25
493.383	8252.97
493.587	8201.77
493.79	8418.86
493.994	8371.75
494.197	8529.45
494.401	8488.49
494.605	8734.25
494.808	8650.28
495.012	8820.26
495.215	8615.46
495.419	8934.95
495.622	8834.6
495.825	8810.02
496.029	8863.27
496.232	9119.26
496.436	9309.72
496.639	9479.71
496.843	9494.04
497.046	9727.51
497.249	9723.41
497.453	9743.89
497.656	9809.43
497.859	9954.83
498.063	9930.26
498.266	10288.65
498.469	10364.43
498.673	10452.49
498.876	10718.73
499.079	10731.01
499.282	10671.62
499.485	11023.87
499.689	11030.02
499.892	11171.33
500.095	11179.52
500.298	11693.56
500.501	11617.79
500.705	11906.55
500.908	12043.76
501.111	12058.1
501.314	12226.03
501.517	12375.53
501.72	12664.3
501.923	12586.47
502.126	12930.53
502.329	13174.24
502.532	13258.21
502.735	13313.5
502.938	13563.36
503.141	13659.61
503.344	14042.58
503.547	13807.06
503.75	14136.79
503.953	14302.67
504.156	14663.11
504.359	14859.72
504.562	15013.32
504.765	15263.17
504.968	15101.38
505.17	15566.27
505.373	15578.56
505.576	16178.61
505.779	16022.97
505.982	16057.78
506.185	16414.13
506.387	16539.05
506.59	16850.35
506.793	17139.11
506.996	16946.6
507.198	17687.96
507.401	17427.87
507.604	17849.75
507.807	17925.53
508.009	18474.38
508.212	18126.23
508.415	18994.57
508.617	19109.26
508.82	19293.57
509.022	19088.78
509.225	19527.04
509.428	19895.68
509.63	20006.27
509.833	20254.07
510.035	20637.04
510.238	20567.41
510.44	21028.2
510.643	21357.92
510.845	21312.87
511.048	21372.26
511.25	21880.16
511.453	21820.77
511.655	22535.51
511.858	22566.23
512.06	22512.98
512.262	23133.51
512.465	23049.55
512.667	23500.1
512.87	23926.08
513.072	24016.19
513.274	24423.73
513.477	24900.91
513.679	24769.84
513.881	25042.22
514.084	25369.9
514.286	25498.92
514.488	25632.04
514.69	26180.89
514.893	26332.44
515.095	26555.67
515.297	26936.59
515.499	26955.02
515.701	27256.07
515.904	27723.01
516.106	27794.69
516.308	28183.8
516.51	28423.42
516.712	28335.35
516.914	28882.16
517.116	29652.2
517.318	29379.82
517.52	29684.97
517.722	29828.32
517.925	30201.05
518.127	30579.93
518.329	30508.25
518.531	30674.13
518.733	31214.8
518.935	31743.17
519.136	31536.33
519.338	31990.98
519.54	32314.56
519.742	32625.85
519.944	32609.47
520.146	33615.02
520.348	33486
520.55	33721.51
520.752	33830.05
520.954	34618.52
521.155	34217.12
521.357	34659.48
521.559	34997.4
521.761	35699.85
521.963	35300.5
522.164	35513.48
522.366	35599.5
522.568	36088.96
522.77	36396.16
522.971	37076.08
523.173	36494.46
523.375	37256.31
523.576	36955.25
523.778	37155.96
523.98	37416.05
524.181	37973.1
524.383	37831.79
524.584	38392.93
524.786	38675.55
524.988	38405.22
525.189	39093.33
525.391	39171.16
525.592	39347.28
525.794	39615.57
525.995	39355.47
526.197	39652.43
526.398	39775.31
526.6	39769.16
526.801	40625.21
527.003	40412.23
527.204	40324.16
527.406	40760.38
527.607	40555.58
527.808	41069.62
528.01	40793.15
528.211	40887.35
528.412	41819.18
528.614	41514.03
528.815	41538.61
529.016	41942.06
529.218	41413.68
529.419	41663.53
529.62	41976.87
529.822	41733.17
530.023	42046.51
530.224	42060.84
530.425	42570.79
530.626	42165.29
530.828	42236.97
531.029	42556.45
531.23	42411.04
531.431	42343.46
531.632	42683.42
531.833	42986.52
532.035	42845.21
532.236	43058.2
532.437	43414.55
532.638	42853.4
532.839	43394.07
533.04	43598.87
533.241	43105.3
533.442	43774.99
533.643	43906.06
533.844	42925.08
534.045	43693.07
534.246	43017.24
534.447	43699.22
534.648	43467.8
534.849	43770.89
535.05	43424.79
535.251	43949.07
535.451	43377.68
535.652	43641.87
535.853	43779.09
536.054	43797.52
536.255	43742.22
536.456	43488.28
536.657	44340.23
536.857	43682.83
537.058	43471.89
537.259	44514.31
537.46	44108.81
537.66	43848.72
537.861	43844.62
538.062	43994.12
538.263	44438.53
538.463	43904.01
538.664	44033.03
538.865	44178.44
539.065	44102.67
539.266	44155.91
539.466	44393.48
539.667	43537.43
539.868	44657.67
540.068	44186.63
540.269	43711.5
540.469	44506.12
540.67	44293.13
540.87	44534.79
541.071	44409.86
541.271	44585.99
541.472	44487.68
541.672	44321.8
541.873	44166.15
542.073	43660.3
542.274	45022.2
542.474	44145.67
542.675	44579.84
542.875	44624.9
543.075	44403.72
543.276	43926.54
543.476	44467.2
543.676	44592.13
543.877	44450.82
544.077	44454.92
544.277	44514.31
544.478	44274.7
544.678	44803.07
544.878	44350.47
545.078	44297.22
545.279	44336.13
545.479	44469.25
545.679	44766.21
545.879	44643.33
546.079	44440.58
546.28	44495.88
546.48	44338.18
546.68	44979.2
546.88	44811.26
547.08	44196.87
547.28	44231.69
547.48	43891.72
547.68	44491.78
547.88	44184.58
548.081	44876.8
548.281	44602.37
548.481	43949.07
548.681	44594.18
548.881	44710.91
549.081	44807.17
549.28	44301.32
549.48	44753.92
549.68	44487.68
549.88	44909.57
550.08	44213.26
550.28	44663.81
550.48	44538.88
550.68	45003.77
550.88	44418.05
551.08	44846.08
551.279	44616.71
551.479	44325.89
551.679	44471.3
551.879	44450.82
552.079	45059.07
552.278	44416
552.478	44512.26
552.678	44170.25
552.878	44364.81
553.077	44663.81
553.277	44297.22
553.477	44897.28
553.676	44313.61
553.876	44282.89
554.076	43992.08
554.275	44090.38
554.475	44035.08
554.674	44059.66
554.874	44450.82
555.074	44309.51
555.273	44035.08
555.473	44542.98
555.672	44186.63
555.872	43811.85
556.071	44295.17
556.271	43996.17
556.47	43992.08
556.67	43551.76
556.869	43893.77
557.068	44299.27
557.268	43934.73
557.467	44286.98
557.667	43709.46
557.866	44102.67
558.065	43910.16
558.265	43607.06
558.464	43631.63
558.663	44323.85
558.863	43486.23
559.062	44284.93
559.261	43910.16
559.461	44301.32
559.66	43551.76
559.859	43820.05
560.058	43506.71
560.258	43762.7
560.457	43590.67
560.656	43904.01
560.855	43293.72
561.054	43854.86
561.253	43615.25
561.453	43645.97
561.652	43881.49
561.851	43645.97
562.05	43916.3
562.249	43289.62
562.448	43643.92
562.647	43494.42
562.846	43228.18
563.045	43443.22
563.244	43205.66
563.443	43803.66
563.642	43007
563.841	42970.14
564.04	43164.7
564.239	43885.58
564.438	43199.51
564.637	43058.2
564.836	43283.48
565.035	42753.05
565.234	43416.6
565.432	43105.3
565.631	43039.77
565.83	43729.94
566.029	43017.24
566.228	42759.2
566.427	43133.98
566.625	42800.16
566.824	42288.17
567.023	43275.29
567.222	42089.51
567.42	43031.58
567.619	42650.66
567.818	42955.8
568.016	42501.15
568.215	42964
568.414	42855.45
568.612	42798.11
568.811	42482.72
569.01	42746.91
569.208	42120.23
569.407	42476.58
569.605	41997.35
569.804	42497.06
570.002	42116.14
570.201	42624.03
570.4	42243.11
570.598	41563.18
570.797	42222.63
570.995	42435.62
571.193	41980.97
571.392	42095.66
571.59	41929.77
571.789	41847.85
571.987	41993.26
572.186	42159.14
572.384	41661.49
572.582	41403.44
572.781	41798.7
572.979	40883.26
573.177	41243.7
573.376	41595.95
573.574	41151.54
573.772	41438.26
573.971	41086.01
574.169	41196.6
574.367	40909.88
574.565	41454.64
574.763	40748.09
574.962	40944.7
575.16	40643.65
575.358	40727.61
575.556	40571.97
575.754	41135.16
575.952	40354.88
576.151	40555.58
576.349	39953.48
576.547	40084.55
576.745	40318.02
576.943	40322.12
577.141	40150.09
577.339	40309.83
577.537	40369.22
577.735	39754.83
577.933	39498.83
578.131	39861.32
578.329	39814.22
578.527	39550.03
578.725	39619.66
578.923	39486.54
579.121	39259.22
579.319	39543.89
579.516	39201.88
579.714	39302.23
579.912	39031.9
580.11	39261.27
580.308	39048.28
580.506	38837.34
580.704	38458.46
580.901	38804.57
581.099	38755.42
581.297	38362.21
581.495	38306.91
581.692	38798.43
581.89	38098.02
582.088	38390.88
582.285	37997.67
582.483	38456.42
582.681	37956.71
582.878	37751.91
583.076	37715.05
583.274	38102.12
583.471	37622.89
583.669	37784.68
583.866	37387.38
584.064	37540.97
584.262	37387.38
584.459	37323.89
584.657	36570.24
584.854	37258.35
585.052	36711.55
585.249	37184.63
585.447	37076.08
585.644	36400.26
585.841	36805.75
586.039	37235.83
586.236	36398.21
586.434	36140.16
586.631	36562.04
586.828	36607.1
587.026	36201.6
587.223	36314.24
587.42	36121.73
587.618	36367.49
587.815	35875.98
588.012	35497.1
588.21	35697.8
588.407	36041.86
588.604	35736.71
588.801	35363.98
588.999	35243.15
589.196	35267.73
589.393	35142.8
589.59	35275.92
589.787	35040.4
589.984	34821.27
590.182	34753.69
590.379	34966.68
590.576	34591.9
590.773	34747.54
590.97	34591.9
591.167	34624.67
591.364	34024.61
591.561	34374.81
591.758	33858.73
591.955	33864.87
592.152	34225.31
592.349	34036.9
592.546	33789.1
592.743	33828.01
592.94	33590.44
593.137	33721.51
593.334	33508.52
593.531	33137.84
593.727	33477.8
593.924	33445.04
594.121	32898.23
594.318	33526.96
594.515	32867.51
594.712	32998.58
594.908	32537.79
595.105	32781.49
595.302	32394.43
595.499	32791.73
595.696	32402.62
595.892	32099.52
596.089	32388.28
596.286	31974.59
596.482	31952.07
596.679	32169.15
596.876	32167.1
597.072	31741.13
597.269	31818.95
597.466	31571.14
597.662	31454.41
597.859	31415.5
598.055	31751.37
598.252	31554.76
598.448	31304.91
598.645	31225.04
598.841	30862.55
599.038	30866.64
599.234	30913.75
599.431	30649.56
599.627	30817.49
599.824	30766.29
600.02	30395.61
600.217	30584.02
600.413	30348.51
600.609	29957.35
600.806	30127.33
601.002	30278.88
601.198	30383.32
601.395	29746.4
601.591	29936.87
601.787	29869.28
601.984	29644.01
602.18	29422.83
602.376	29611.24
602.572	29506.79
602.769	29428.97
602.965	29240.56
603.161	29220.08
603.357	29043.95
603.553	28902.64
603.75	29064.43
603.946	28798.2
604.142	29062.38
604.338	28466.42
604.534	28632.31
604.73	28415.23
604.926	28192
605.122	28687.6
605.318	28218.62
605.514	28269.82
605.71	28077.31
605.906	27905.28
606.102	28085.5
606.298	28032.25
606.494	27680
606.69	27694.34
606.886	27858.18
607.082	27565.32
607.278	27833.6
607.474	27102.48
607.67	27733.25
607.866	27184.4
608.062	27538.69
608.257	27274.51
608.453	27483.4
608.649	27368.71
608.845	27024.65
609.041	27122.96
609.236	26858.77
609.432	26985.74
609.628	26823.95
609.824	26590.48
610.019	26758.42
610.215	26922.26
610.411	26420.5
610.606	26666.26
610.802	26707.22
610.998	26666.26
611.193	26205.47
611.389	26303.77
611.584	26531.09
611.78	26111.26
611.976	26133.79
612.171	26514.71
612.367	26164.51
612.562	26135.84
612.758	25959.71
612.953	25701.67
613.149	26223.9
613.344	25662.76
613.539	25865.5
613.735	25785.63
613.93	25781.54
614.126	25253.16
614.321	26031.39
614.517	25572.64
614.712	25515.3
614.907	25277.74
615.103	25568.55
615.298	25500.97
615.493	25765.15
615.688	25115.95
615.884	25550.12
616.079	25136.43
616.274	25294.12
616.47	25074.99
616.665	25187.63
616.86	24841.52
617.055	24880.43
617.25	24923.44
617.445	25122.09
617.641	24106.3
617.836	24620.34
618.031	24403.25
618.226	24700.21
618.421	24431.93
618.616	24538.42
618.811	24251.7
619.006	24436.02
619.201	24038.72
619.396	24155.45
619.591	23680.32
619.786	23913.79
619.981	23502.15
620.176	23823.68
620.371	23328.07
620.566	23416.13
620.761	23246.15
620.956	23110.99
621.151	22963.53
621.346	23115.08
621.541	22973.77
621.735	22809.93
621.93	22379.86
622.125	22713.68
622.32	22199.64
622.515	22525.27
622.709	22338.9
622.904	22087
623.099	22168.92
623.294	22340.95
623.488	21714.27
623.683	21658.98
623.878	21658.98
624.072	21466.47
624.267	21536.1
624.462	21359.97
624.656	21175.66
624.851	21159.27
625.046	21151.08
625.24	20897.13
625.435	20643.18
625.629	20512.11
625.824	20551.03
626.018	20567.41
626.213	19813.76
626.407	20166.01
626.602	19932.54
626.796	19950.97
626.991	19996.03
627.185	19666.3
627.38	19842.43
627.574	19557.76
627.768	19322.24
627.963	19455.36
628.157	19000.71
628.352	19330.44
628.546	18847.12
628.74	19260.8
628.935	18963.85
629.129	18851.21
629.323	18601.36
629.517	18404.75
629.712	18642.32
629.906	18523.54
630.1	17931.67
630.294	18113.94
630.489	18029.98
630.683	18126.23
630.877	17773.98
631.071	17741.21
631.265	17769.88
631.459	17587.61
631.653	17388.96
631.848	17163.68
632.042	17323.43
632.236	17434.02
632.43	17259.94
632.624	17270.18
632.818	17116.58
633.012	16698.8
633.206	16793
633.4	16719.28
633.594	16666.03
633.788	16764.33
633.982	16616.88
634.176	16532.91
634.369	16147.89
634.563	16221.62
634.757	16221.62
634.951	16027.06
635.145	15920.57
635.339	16045.49
635.533	16041.4
635.726	15568.32
635.92	15719.87
636.114	15545.79
636.308	15672.76
636.501	15572.41
636.695	15537.6
636.889	15353.28
637.083	15166.92
637.276	15390.14
637.47	15128
637.664	14945.73
637.857	15150.53
638.051	14749.13
638.244	14761.42
638.438	14923.21
638.632	14826.95
638.825	14646.73
639.019	14300.62
639.212	14263.76
639.406	14314.96
639.599	14507.47
639.793	14405.07
639.986	13706.71
640.18	13985.24
640.373	14040.53
640.567	13975
640.76	13950.42
640.954	13622.75
641.147	13618.65
641.34	13587.93
641.534	13569.5
641.727	13452.77
641.92	13563.36
642.114	13303.26
642.307	13356.51
642.5	13225.44
642.694	12951.01
642.887	12879.33
643.08	13080.04
643.273	13012.45
643.467	12836.33
643.66	12889.57
643.853	12664.3
644.046	12441.07
644.239	12604.91
644.432	12525.04
644.626	12279.28
644.819	12121.59
645.012	12412.4
645.205	12281.33
645.398	12078.58
645.591	12203.5
645.784	11863.54
645.977	11978.23
646.17	11740.66
646.363	11701.75
646.556	11357.69
646.749	11779.57
646.942	11460.09
647.135	11384.32
647.328	11281.92
647.521	11525.63
647.714	11300.35
647.907	11306.49
648.099	10989.06
648.292	11095.55
648.485	11138.56
648.678	10876.42
648.871	10909.19
649.064	10690.06
649.256	10876.42
649.449	10737.16
649.642	10561.03
649.835	10524.17
650.027	10493.45
650.22	10339.85
650.413	10391.05
650.605	10425.87
650.798	10313.23
650.991	10051.09
651.183	10176.02
651.376	10061.33
651.568	9989.65
651.761	9862.68
651.954	9924.12
652.146	10006.03
652.339	9868.82
652.531	9862.68
652.724	9805.33
652.916	9403.93
653.109	9592.34
653.301	9397.79
653.494	9383.45
653.686	9330.2
653.879	9381.4
654.071	9455.13
654.263	9393.69
654.456	9152.03
654.648	9141.79
654.84	9000.48
655.033	8990.24
655.225	8949.28
655.417	8820.26
655.61	8850.98
655.802	8828.45
655.994	8879.65
656.186	8738.34
656.379	8850.98
656.571	8744.49
656.763	8410.67
656.955	8457.77
657.148	8435.24
657.34	8361.52
657.532	8398.38
657.724	8193.58
657.916	8295.98
658.108	8220.21
658.3	7996.98
658.492	7980.59
658.684	7796.28
658.876	7874.1
659.068	8085.04
659.26	7654.97
659.452	7845.43
659.644	7605.81
659.836	7523.9
660.028	7685.69
660.22	7446.07
660.412	7497.27
660.604	7388.73
660.796	7415.35
660.988	7431.74
661.18	7433.79
661.372	7323.19
661.563	7288.38
661.755	7198.27
661.947	7251.52
662.139	7059.01
662.331	6895.17
662.522	6972.99
662.714	6995.52
662.906	7005.76
663.097	7106.11
663.289	6788.68
663.481	6727.24
663.673	6774.34
663.864	6479.43
664.056	6706.76
664.247	6575.69
664.439	6426.18
664.631	6481.48
664.822	6559.3
665.014	6309.45
665.205	6288.97
665.397	6225.48
665.588	6219.34
665.78	6188.62
665.971	6092.37
666.163	6223.44
666.354	6137.42
666.546	6075.98
666.737	6037.07
666.929	5996.11
667.12	5729.88
667.311	5879.38
667.503	5805.65
667.694	5781.07
667.885	5809.75
668.077	5719.64
668.268	5776.98
668.459	5635.67
668.651	5850.71
668.842	5551.7
669.033	5619.28
669.224	5551.7
669.416	5486.17
669.607	5381.72
669.798	5394.01
669.989	5465.69
670.18	5361.24
670.371	5217.88
670.563	5162.59
670.754	5117.53
670.945	5221.98
671.136	5066.33
671.327	5060.19
671.518	5019.23
671.709	4998.75
671.9	5146.2
672.091	4953.7
672.282	5023.33
672.473	4994.65
672.664	4816.48
672.855	4904.54
673.046	4918.88
673.237	4896.35
673.428	4789.86
673.619	4832.86
673.809	4869.73
674	4599.4
674.191	4802.15
674.382	4773.47
674.573	4763.23
674.764	4562.53
674.954	4531.81
675.145	4781.67
675.336	4671.08
675.527	4462.18
675.717	4585.06
675.908	4427.37
676.099	4626.02
676.289	4603.49
676.48	4367.98
676.671	4365.93
676.861	4613.73
677.052	4355.69
677.243	4396.65
677.433	4355.69
677.624	4427.37
677.814	4363.88
678.005	4312.68
678.195	4251.24
678.386	4187.75
678.576	4273.77
678.767	4109.93
678.957	4197.99
679.148	4189.8
679.338	4111.98
679.529	4064.88
679.719	4105.84
679.909	4046.44
680.1	4077.16
680.29	4054.64
680.481	4001.39
680.671	4001.39
680.861	4073.07
681.052	4132.46
681.242	4007.53
681.432	3929.71
681.622	3851.89
681.813	3864.18
682.003	3923.57
682.193	3901.04
682.383	3944.05
682.573	3784.3
682.764	3892.85
682.954	3880.56
683.144	3880.56
683.334	3802.74
683.524	3765.87
683.714	3765.87
683.904	3804.78
684.094	3702.39
684.284	3829.36
684.474	3810.93
684.664	3665.52
684.854	3647.09
685.044	3718.77
685.234	3636.85
685.424	3800.69
685.614	3647.09
685.804	3765.87
685.994	3774.07
686.184	3710.58
686.374	3647.09
686.564	3593.84
686.753	3700.34
686.943	3683.95
687.133	3761.78
687.323	3626.61
687.513	3526.26
687.702	3579.51
687.892	3499.64
688.082	3589.75
688.272	3679.86
688.461	3636.85
688.651	3669.62
688.841	3546.74
689.03	3554.93
689.22	3573.36
689.41	3520.12
689.599	3538.55
689.789	3610.23
689.979	3491.45
690.168	3640.95
690.358	3546.74
690.547	3528.31
690.737	3503.73
690.926	3567.22
691.116	3548.79
691.305	3516.02
691.495	3427.96
691.684	3464.82
691.874	3460.73
692.063	3475.06
692.252	3434.1
692.442	3391.09
692.631	3321.46
692.82	3329.66
693.01	3343.99
693.199	3430.01
693.388	3309.18
693.578	3409.53
693.767	3169.91
693.956	3278.46
694.146	3282.55
694.335	3257.98
694.524	3364.47
694.713	3204.73
694.902	3331.7
695.092	3270.26
695.281	3331.7
695.47	3167.87
695.659	3223.16
695.848	3147.39
696.037	3200.63
696.226	3284.6
696.415	3227.26
696.604	3266.17
696.793	3044.99
696.982	3180.15
697.171	3128.95
697.36	3094.14
697.549	3055.23
697.738	3026.56
697.927	3088
698.116	2940.54
698.305	3118.72
698.494	2997.88
698.683	2973.31
698.872	3040.89
699.061	2946.69
699.25	2942.59
699.438	2922.11
699.627	2991.74
699.816	2950.78
700.005	3075.71
700.193	2979.45
700.382	2834.05
700.571	2918.01
700.76	2813.57
700.948	2868.86
701.137	2872.96
701.326	2930.3
701.514	2889.34
701.703	2862.72
701.892	2694.79
702.08	2813.57
702.269	2899.58
702.457	2606.72
702.646	2711.17
702.834	2743.94
703.023	2709.12
703.212	2680.45
703.4	2680.45
703.589	2647.68
703.777	2682.5
703.965	2569.86
704.154	2594.44
704.342	2563.72
704.531	2633.35
704.719	2487.94
704.907	2469.51
705.096	2559.62
705.284	2565.76
705.472	2571.91
705.661	2502.28
705.849	2487.94
706.037	2436.74
706.226	2483.84
706.414	2426.5
706.602	2483.84
706.79	2416.26
706.979	2389.64
707.167	2449.03
707.355	2422.41
707.543	2342.53
707.731	2393.73
707.919	2432.65
708.107	2369.16
708.296	2395.78
708.484	2305.67
708.672	2301.58
708.86	2277
709.048	2326.15
709.236	2326.15
709.424	2313.86
709.612	2332.3
709.8	2170.51
709.988	2131.59
710.176	2244.23
710.364	2213.51
710.551	2231.94
710.739	2293.38
710.927	2070.16
711.115	2199.18
711.303	2248.33
711.491	2178.7
711.679	2070.16
711.866	2051.72
712.054	2014.86
712.242	2072.2
712.43	2031.24
712.617	2066.06
712.805	2051.72
712.993	2061.96
713.181	2152.07
713.368	1988.24
713.556	2012.81
713.744	2039.44
713.931	1986.19
714.119	1982.09
714.306	1896.08
714.494	1982.09
714.682	1943.18
714.869	1832.59
715.057	1873.55
715.244	1875.6
715.432	2059.92
715.619	1881.74
715.807	1900.17
715.994	1906.32
716.182	1846.93
716.369	1889.93
716.556	1877.65
716.744	1902.22
716.931	1758.86
717.119	1767.06
717.306	1820.3
717.493	1717.9
717.681	1773.2
717.868	1699.47
718.055	1705.62
718.242	1867.41
718.43	1791.63
718.617	1781.39
718.804	1719.95
718.991	1810.06
719.179	1748.62
719.366	1568.4
719.553	1535.64
719.74	1654.42
719.927	1566.35
720.114	1703.57
720.301	1664.66
720.488	1697.42
720.676	1601.17
720.863	1711.76
721.05	1607.31
721.237	1500.82
721.424	1560.21
721.611	1531.54
721.798	1517.2
721.985	1519.25
722.172	1603.22
722.358	1500.82
722.545	1531.54
722.732	1504.92
722.919	1506.96
723.106	1515.16
723.293	1480.34
723.48	1490.58
723.667	1345.17
723.853	1482.39
724.04	1566.35
724.227	1437.33
724.414	1339.03
724.6	1449.62
724.787	1390.23
724.974	1439.38
725.161	1353.37
725.347	1355.41
725.534	1367.7
725.72	1261.21
725.907	1343.13
726.094	1492.63
726.28	1328.79
726.467	1351.32
726.653	1398.42
726.84	1334.93
727.027	1361.56
727.213	1242.78
727.4	1351.32
727.586	1390.23
727.773	1283.74
727.959	1154.71
728.145	1250.97
728.332	1314.45
728.518	1187.48
728.705	1177.24
728.891	1224.34
729.077	1226.39
729.264	1308.31
729.45	1228.44
729.636	1285.78
729.823	1179.29
730.009	1250.97
730.195	1267.35
730.382	1119.9
730.568	1187.48
730.754	1162.9
730.94	1205.91
731.126	1126.04
731.313	1056.41
731.499	1105.56
731.685	1169.05
731.871	1177.24
732.057	1164.95
732.243	1132.19
732.429	1113.75
732.615	1085.08
732.801	1074.84
732.987	1080.99
733.173	1117.85
733.359	982.68
733.545	1115.8
733.731	1013.4
733.917	943.77
734.103	949.92
734.289	1136.28
734.475	997.02
734.661	1093.27
734.847	1046.17
735.033	1033.88
735.219	1068.7
735.404	1027.74
735.59	980.64
735.776	1013.4
735.962	1011.36
736.148	1097.37
736.333	986.78
736.519	1023.64
736.705	1009.31
736.89	974.49
737.076	970.4
737.262	1029.79
737.447	966.3
737.633	1001.12
737.819	908.96
738.004	929.44
738.19	978.59
738.375	884.38
738.561	857.76
738.747	872.09
738.932	902.81
739.118	970.4
739.303	929.44
739.489	956.06
739.674	939.68
739.859	880.29
740.045	880.29
740.23	882.33
740.416	781.98
740.601	906.91
740.786	806.56
740.972	890.53
741.157	886.43
741.342	851.61
741.528	777.89
741.713	833.18
741.898	790.17
742.084	880.29
742.269	829.09
742.454	753.31
742.639	855.71
742.824	726.69
743.01	773.79
743.195	796.32
743.38	784.03
743.565	753.31
743.75	802.46
743.935	865.95
744.12	775.84
744.305	743.07
744.49	843.42
744.675	702.11
744.86	710.3
745.045	784.03
745.23	784.03
745.415	722.59
745.6	679.58
745.785	685.73
745.97	892.57
746.155	673.44
746.34	726.69
746.525	751.26
746.71	818.85
746.895	685.73
747.079	630.43
747.264	577.19
747.449	675.49
747.634	710.3
747.819	669.34
748.003	655.01
748.188	683.68
748.373	743.07
748.557	679.58
748.742	655.01
748.927	693.92
749.111	716.45
749.296	575.14
749.481	595.62
749.665	620.19
749.85	663.2
750.034	644.77
750.219	638.62
750.404	609.95
750.588	616.1
750.773	687.78
750.957	657.06
751.141	624.29
751.326	650.91
751.51	562.85
751.695	607.91
751.879	605.86
752.064	661.15
752.248	655.01
752.432	538.27
752.617	620.19
752.801	650.91
752.985	620.19
753.17	556.71
753.354	562.85
753.538	521.89
753.722	513.7
753.907	609.95
754.091	460.45
754.275	589.47
754.459	560.8
754.643	609.95
754.828	573.09
755.012	478.88
755.196	497.32
755.38	472.74
755.564	523.94
755.748	515.75
755.932	530.08
756.116	497.32
756.3	480.93
756.484	505.51
756.668	450.21
756.852	536.23
757.036	558.75
757.22	403.11
757.404	491.17
757.588	466.6
757.772	480.93
757.956	480.93
758.14	501.41
758.323	427.68
758.507	511.65
758.691	544.42
758.875	499.36
759.059	523.94
759.242	417.44
759.426	439.97
759.61	497.32
759.794	482.98
759.977	450.21
760.161	411.3
760.345	466.6
760.528	429.73
760.712	454.31
760.895	489.12
761.079	446.12
761.263	411.3
761.446	435.88
761.63	429.73
761.813	464.55
761.997	448.16
762.18	425.64
762.364	384.68
762.547	446.12
762.731	343.72
762.914	353.96
763.098	415.4
763.281	366.25
763.464	384.68
763.648	401.06
763.831	399.01
764.015	405.16
764.198	415.4
764.381	464.55
764.564	401.06
764.748	370.34
764.931	476.84
765.114	450.21
765.297	362.15
765.481	413.35
765.664	370.34
765.847	419.49
766.03	419.49
766.213	331.43
766.397	452.26
766.58	372.39
766.763	415.4
766.946	394.92
767.129	431.78
767.312	374.44
767.495	347.81
767.678	433.83
767.861	403.11
768.044	376.48
768.227	407.2
768.41	372.39
768.593	353.96
768.776	458.4
768.959	409.25
769.142	462.5
769.324	407.2
769.507	386.72
769.69	446.12
769.873	284.33
770.056	343.72
770.239	317.09
770.421	388.77
770.604	392.87
770.787	376.48
770.97	341.67
771.152	435.88
771.335	284.33
771.518	386.72
771.7	333.48
771.883	411.3
772.066	401.06
772.248	349.86
772.431	364.2
772.613	360.1
772.796	345.77
772.978	409.25
773.161	327.33
773.343	323.24
773.526	249.51
773.708	310.95
773.891	304.81
774.073	259.75
774.256	300.71
774.438	419.49
774.621	339.62
774.803	315.05
774.985	313
775.168	374.44
775.35	282.28
775.532	364.2
775.715	345.77
775.897	220.84
776.079	394.92
776.261	349.86
776.444	292.52
776.626	337.57
776.808	294.57
776.99	300.71
777.173	298.66
777.355	337.57
777.537	337.57
777.719	335.53
777.901	368.29
778.083	335.53
778.265	265.89
778.447	267.94
778.629	427.68
778.811	315.05
778.993	374.44
779.175	321.19
779.357	280.23
779.539	325.29
779.721	265.89
779.903	407.2
780.085	245.41
780.267	302.76
780.449	251.56
780.631	321.19
780.812	196.26
780.994	259.75
781.176	257.7
781.358	304.81
781.54	235.18
781.721	327.33
781.903	288.42
782.085	343.72
782.267	163.5
782.448	218.79
782.63	206.5
782.812	331.43
782.993	204.46
783.175	272.04
783.357	177.83
783.538	237.22
783.72	247.46
783.901	122.54
784.083	267.94
784.264	267.94
784.446	216.74
784.627	220.84
784.809	294.57
784.99	243.37
785.172	231.08
785.353	247.46
785.535	194.22
785.716	202.41
785.897	255.65
786.079	153.26
786.26	206.5
786.441	229.03
786.623	183.98
786.804	226.98
786.985	179.88
787.167	212.65
787.348	188.07
787.529	216.74
787.71	212.65
787.891	208.55
788.073	124.58
788.254	192.17
788.435	235.18
788.616	110.25
788.797	165.54
788.978	177.83
789.159	220.84
789.34	149.16
789.522	224.94
789.703	222.89
789.884	233.13
790.065	204.46
790.246	206.5
790.427	177.83
790.607	130.73
790.788	128.68
790.969	140.97
791.15	147.11
791.331	222.89
791.512	196.26
791.693	134.82
791.874	136.87
792.054	120.49
792.235	136.87
792.416	179.88
792.597	167.59
792.778	177.83
792.958	134.82
793.139	159.4
793.32	108.2
793.5	188.07
793.681	183.98
793.862	124.58
794.042	155.3
794.223	138.92
794.404	192.17
794.584	132.78
794.765	95.91
794.945	177.83
795.126	198.31
795.306	186.02
795.487	143.02
795.667	122.54
795.848	130.73
796.028	169.64
796.209	112.3
796.389	200.36
796.57	65.19
796.75	124.58
796.93	153.26
797.111	136.87
797.291	145.06
797.471	110.25
797.652	145.06
797.832	155.3
798.012	155.3
798.192	97.96
798.373	100.01
798.553	87.72
798.733	183.98
798.913	110.25
799.093	163.5
799.274	44.71
799.454	110.25
799.634	57
799.814	188.07
799.994	143.02
800.174	110.25
800.354	155.3
800.534	63.15
800.714	132.78
800.894	122.54
801.074	69.29
801.254	50.86
801.434	120.49
801.614	136.87
801.794	136.87
801.974	331.43
802.154	89.77
802.334	65.19
802.514	132.78
802.693	145.06
802.873	89.77
803.053	157.35
803.233	161.45
803.413	149.16
803.592	59.05
803.772	140.97
803.952	106.15
804.131	106.15
804.311	159.4
804.491	118.44
804.67	132.78
804.85	122.54
805.03	73.39
805.209	149.16
805.389	46.76
805.568	155.3
805.748	81.58
805.928	75.43
806.107	75.43
806.287	143.02
806.466	116.39
806.646	79.53
806.825	138.92
807.004	89.77
807.184	77.48
807.363	130.73
807.543	79.53
807.722	93.87
807.901	89.77
808.081	110.25
808.26	11.95
808.439	145.06
808.619	106.15
808.798	159.4
808.977	71.34
809.156	108.2
809.336	112.3
809.515	38.57
809.694	59.05
809.873	18.09
810.052	112.3
810.231	108.2
810.411	134.82
810.59	42.67
810.769	104.11
810.948	89.77
811.127	108.2
811.306	95.91
811.485	61.1
811.664	42.67
811.843	93.87
812.022	116.39
812.201	30.38
812.38	91.82
812.559	153.26
812.737	175.78
812.916	32.43
813.095	30.38
813.274	61.1
813.453	87.72
813.632	38.57
813.811	32.43
813.989	-8.53
814.168	87.72
814.347	89.77
814.526	40.62
814.704	157.35
814.883	126.63
815.062	120.49
815.24	128.68
815.419	100.01
815.598	97.96
815.776	116.39
815.955	16.04
816.133	63.15
816.312	147.11
816.49	38.57
816.669	134.82
816.847	71.34
817.026	79.53
817.204	81.58
817.383	87.72
817.561	112.3
817.74	22.19
817.918	79.53
818.097	122.54
818.275	61.1
818.453	91.82
818.632	81.58
818.81	114.34
818.988	104.11
819.167	42.67
819.345	95.91
819.523	63.15
819.701	61.1
819.879	48.81
820.058	30.38
820.236	22.19
820.414	63.15
820.592	48.81
820.77	46.76
820.948	63.15
821.127	57
821.305	65.19
821.483	18.09
821.661	97.96
821.839	20.14
822.017	67.24
822.195	40.62
822.373	30.38
822.551	-41.3
822.729	79.53
822.907	50.86
823.085	42.67
823.262	63.15
823.44	54.95
823.618	40.62
823.796	24.23
823.974	-10.58
824.152	83.63
824.329	77.48
824.507	67.24
824.685	20.14
824.863	59.05
825.04	69.29
825.218	42.67
825.396	42.67
825.574	48.81
825.751	18.09
825.929	52.91
826.107	83.63
826.284	81.58
826.462	73.39
826.639	-31.06
826.817	-16.73
826.994	32.43
827.172	34.47
827.349	57
827.527	40.62
827.704	28.33
827.882	-4.44
828.059	24.23
828.237	-16.73
828.414	77.48
828.591	48.81
828.769	59.05
828.946	30.38
829.124	63.15
829.301	91.82
829.478	63.15
829.655	18.09
829.833	9.9
830.01	50.86
830.187	63.15
830.364	59.05
830.542	59.05
830.719	-16.73
830.896	73.39
831.073	65.19
831.25	44.71
831.427	-29.01
831.604	38.57
831.782	5.8
831.959	16.04
832.136	24.23
832.313	81.58
832.49	44.71
832.667	38.57
832.844	32.43
833.021	65.19
833.198	30.38
833.374	-31.06
833.551	18.09
833.728	67.24
833.905	38.57
834.082	-20.82
834.259	83.63
834.436	36.52
834.612	1.71
834.789	1.71
834.966	36.52
835.143	36.52
835.319	54.95
835.496	38.57
835.673	13.99
835.85	36.52
836.026	59.05
836.203	69.29
836.38	-2.39
836.556	79.53
836.733	-18.77
836.909	42.67
837.086	24.23
837.262	-16.73
837.439	-63.83
837.616	54.95
837.792	9.9
837.968	118.44
838.145	-33.11
838.321	28.33
838.498	-16.73
838.674	67.24
838.851	20.14
839.027	-41.3
839.203	73.39
839.38	9.9
839.556	-6.49
839.732	75.43
839.909	-14.68
840.085	48.81
840.261	40.62
840.437	69.29
840.614	-0.34
840.79	71.34
840.966	-26.96
841.142	87.72
841.318	22.19
841.494	-10.58
841.671	28.33
841.847	-4.44
842.023	11.95
842.199	65.19
842.375	59.05
842.551	-0.34
842.727	9.9
842.903	106.15
843.079	61.1
843.255	71.34
843.431	-43.35
843.607	-51.54
843.783	-26.96
843.959	38.57
844.134	13.99
844.31	32.43
844.486	22.19
844.662	-14.68
844.838	83.63
845.013	46.76
845.189	100.01
845.365	36.52
845.541	46.76
845.716	24.23
845.892	61.1
846.068	67.24
846.244	-35.16
846.419	9.9
846.595	24.23
846.77	54.95
846.946	-2.39
847.122	20.14
847.297	7.85
847.473	73.39
847.648	85.67
847.824	32.43
847.999	122.54
848.175	79.53
848.35	20.14
848.526	34.47
848.701	-4.44
848.876	54.95
849.052	42.67
849.227	-20.82
849.403	22.19
849.578	46.76
849.753	-57.68
849.929	57
850.104	-10.58
850.279	77.48
850.454	46.76
850.63	7.85
850.805	61.1
850.98	-20.82
851.155	11.95
851.33	28.33
851.505	-8.53
851.681	59.05
851.856	5.8
852.031	54.95
852.206	-35.16
852.381	-16.73
852.556	44.71
852.731	-65.88
852.906	52.91
853.081	63.15
853.256	-16.73
853.431	9.9
853.606	-0.34
853.781	13.99
853.956	-8.53
854.131	13.99
854.305	-31.06
854.48	22.19
854.655	-33.11
854.83	61.1
855.005	46.76
855.18	44.71
855.354	13.99
855.529	108.2
855.704	-16.73
855.879	9.9
856.053	13.99
856.228	63.15
856.403	-14.68
856.577	38.57
856.752	46.76
856.926	-4.44
857.101	-8.53
857.276	-29.01
857.45	61.1
857.625	50.86
857.799	16.04
857.974	34.47
858.148	-63.83
858.323	22.19
858.497	-16.73
858.672	20.14
858.846	-29.01
859.02	-35.16
859.195	46.76
859.369	-2.39
859.543	18.09
859.718	48.81
859.892	-2.39
860.066	65.19
860.241	-24.92
860.415	-8.53
860.589	-6.49
860.763	-18.77
860.938	-0.34
861.112	59.05
861.286	9.9
861.46	18.09
861.634	7.85
861.808	61.1
861.982	-12.63
862.157	28.33
862.331	7.85
862.505	22.19
862.679	-22.87
862.853	71.34
863.027	69.29
863.201	3.75
863.375	42.67
863.549	30.38
863.722	-31.06
863.896	26.28
864.07	5.8
864.244	-57.68
864.418	-16.73
864.592	26.28
864.766	-10.58
864.939	48.81
865.113	-24.92
865.287	5.8
865.461	36.52
865.634	-14.68
865.808	-6.49
865.982	28.33
866.156	-29.01
866.329	-86.36
866.503	-31.06
866.676	44.71
866.85	40.62
867.024	-14.68
867.197	54.95
867.371	1.71
867.544	-37.2
867.718	-55.64
867.891	30.38
868.065	3.75
868.238	5.8
868.412	24.23
868.585	36.52
868.759	13.99
868.932	30.38
869.105	106.15
869.279	-6.49
869.452	-31.06
869.625	-22.87
869.799	26.28
869.972	-24.92
870.145	34.47
870.319	63.15
870.492	9.9
870.665	-18.77
870.838	48.81
871.011	-51.54
871.185	-39.25
871.358	-47.44
871.531	20.14
871.704	-37.2
871.877	-26.96
872.05	-22.87
872.223	-0.34
872.396	20.14
872.569	-8.53
872.742	-8.53
872.915	38.57
873.088	16.04
873.261	-49.49
873.434	75.43
873.607	-2.39
873.78	48.81
873.953	30.38
874.126	30.38
874.299	9.9
874.471	36.52
874.644	22.19
874.817	38.57
874.99	13.99
875.163	-35.16
875.335	20.14
875.508	11.95
875.681	50.86
875.853	3.75
876.026	-39.25
876.199	-55.64
876.371	50.86
876.544	-10.58
876.717	-16.73
876.889	28.33
877.062	-24.92
877.234	-26.96
877.407	3.75
877.579	-63.83
877.752	-29.01
877.924	-10.58
878.097	-2.39
878.269	-2.39
878.442	93.87
878.614	67.24
878.786	-20.82
878.959	54.95
879.131	44.71
879.303	9.9
879.476	18.09
879.648	46.76
879.82	46.76
879.993	-65.88
880.165	-0.34
880.337	-12.63
880.509	26.28
880.681	-20.82
880.854	11.95
881.026	81.58
881.198	100.01
881.37	-33.11
881.542	-10.58
881.714	81.58
881.886	32.43
882.058	40.62
882.23	-24.92
882.402	32.43
882.574	63.15
882.746	1.71
882.918	54.95
883.09	-24.92
883.262	44.71
883.434	44.71
883.606	-26.96
883.778	59.05
883.95	18.09
884.122	-2.39
884.293	65.19
884.465	34.47
884.637	20.14
884.809	57
884.98	36.52
885.152	42.67
885.324	13.99
885.496	5.8
885.667	-6.49
885.839	-18.77
886.011	83.63
886.182	42.67
886.354	30.38
886.525	-14.68
886.697	38.57
886.869	-14.68
887.04	11.95
887.212	30.38
887.383	11.95
887.555	38.57
887.726	1.71
887.897	-29.01
888.069	-14.68
888.24	-33.11
888.412	24.23
888.583	-57.68
888.754	30.38
888.926	18.09
889.097	-10.58
889.268	-10.58
889.44	50.86
889.611	-10.58
889.782	-41.3
889.953	-37.2
890.125	50.86
890.296	-16.73
890.467	71.34
890.638	18.09
890.809	-26.96
890.98	40.62
891.151	54.95
891.323	65.19
891.494	-45.4
891.665	32.43
891.836	75.43
892.007	16.04
892.178	-65.88
892.349	-4.44
892.52	87.72
892.691	-65.88
892.862	46.76
893.032	1.71
893.203	-39.25
893.374	-29.01
893.545	79.53
893.716	22.19
893.887	28.33
894.057	-39.25
894.228	1.71
894.399	40.62
894.57	16.04
894.74	-31.06
894.911	-67.92
895.082	28.33
895.253	-35.16
895.423	50.86
895.594	9.9
895.764	-55.64
895.935	46.76
896.106	11.95
896.276	54.95
896.447	-6.49
896.617	38.57
896.788	9.9
896.958	-35.16
897.129	-72.02
897.299	9.9
897.47	-35.16
897.64	-22.87
897.81	20.14
897.981	-8.53
898.151	-2.39
898.322	50.86
898.492	11.95
898.662	-10.58
898.832	-14.68
899.003	50.86
899.173	48.81
899.343	3.75
899.513	-43.35
