Data from USB4F104151__58__12-54-05-623.txt Node

Date: Fri Mar 14 12:54:05 EDT 2025
User: louis
Spectrometer: USB4F10415
Trigger mode: 4
Integration Time (sec): 1.000000E-2
Scans to average: 1
Electric dark correction enabled: true
Nonlinearity correction enabled: false
Boxcar width: 0
XAxis mode: Wavelengths
Number of Pixels in Spectrum: 3648
>>>>>Begin Spectral Data<<<<<
178.204	27.14
178.424	27.14
178.644	27.14
178.864	-67.07
179.084	-60.93
179.304	-22.02
179.524	35.33
179.744	-3.58
179.964	-19.97
180.184	-83.45
180.404	23.04
180.624	53.76
180.844	33.28
181.064	-89.6
181.283	-13.82
181.503	61.95
181.723	25.09
181.943	23.04
182.163	0.51
182.383	76.29
182.602	84.48
182.822	27.14
183.042	45.57
183.262	2.56
183.482	29.18
183.701	-38.4
183.921	33.28
184.141	-24.06
184.361	16.9
184.58	49.66
184.8	55.81
185.02	16.9
185.239	6.66
185.459	6.66
185.679	-60.93
185.898	27.14
186.118	8.7
186.338	-5.63
186.557	84.48
186.777	-46.59
186.997	64
187.216	20.99
187.436	86.53
187.655	14.85
187.875	4.61
188.095	-50.69
188.314	111.1
188.534	31.23
188.753	49.66
188.973	-5.63
189.192	6.66
189.412	78.33
189.631	18.94
189.851	27.14
190.07	57.86
190.29	-7.68
190.509	2.56
190.729	47.62
190.948	0.51
191.168	45.57
191.387	66.05
191.607	8.7
191.826	10.75
192.045	-24.06
192.265	-1.54
192.484	66.05
192.704	-11.78
192.923	-11.78
193.142	4.61
193.362	72.19
193.581	33.28
193.8	27.14
194.02	94.72
194.239	-28.16
194.458	6.66
194.678	41.47
194.897	80.38
195.116	4.61
195.335	41.47
195.555	23.04
195.774	88.57
195.993	-28.16
196.212	-3.58
196.432	8.7
196.651	-11.78
196.87	-15.87
197.089	45.57
197.308	10.75
197.528	76.29
197.747	-44.54
197.966	4.61
198.185	90.62
198.404	39.42
198.623	27.14
198.842	-5.63
199.062	39.42
199.281	37.38
199.5	-22.02
199.719	33.28
199.938	-3.58
200.157	94.72
200.376	-17.92
200.595	74.24
200.814	20.99
201.033	-56.83
201.252	-56.83
201.471	55.81
201.69	-28.16
201.909	18.94
202.128	8.7
202.347	-3.58
202.566	16.9
202.785	25.09
203.004	31.23
203.223	20.99
203.442	104.96
203.661	57.86
203.879	-40.45
204.098	31.23
204.317	14.85
204.536	4.61
204.755	47.62
204.974	-24.06
205.193	37.38
205.411	-7.68
205.63	18.94
205.849	-13.82
206.068	76.29
206.287	0.51
206.505	64
206.724	43.52
206.943	47.62
207.162	29.18
207.381	33.28
207.599	12.8
207.818	35.33
208.037	-15.87
208.255	-48.64
208.474	4.61
208.693	25.09
208.911	-11.78
209.13	-7.68
209.349	-42.5
209.567	45.57
209.786	78.33
210.005	25.09
210.223	53.76
210.442	-28.16
210.661	-9.73
210.879	82.43
211.098	37.38
211.316	47.62
211.535	25.09
211.753	-24.06
211.972	41.47
212.191	-7.68
212.409	-9.73
212.628	-13.82
212.846	45.57
213.065	37.38
213.283	80.38
213.502	8.7
213.72	25.09
213.938	27.14
214.157	35.33
214.375	59.9
214.594	39.42
214.812	29.18
215.031	8.7
215.249	-17.92
215.467	-22.02
215.686	16.9
215.904	86.53
216.122	14.85
216.341	88.57
216.559	41.47
216.778	39.42
216.996	10.75
217.214	18.94
217.432	41.47
217.651	66.05
217.869	39.42
218.087	29.18
218.306	-32.26
218.524	27.14
218.742	-1.54
218.96	25.09
219.179	-11.78
219.397	57.86
219.615	10.75
219.833	33.28
220.051	64
220.27	8.7
220.488	27.14
220.706	53.76
220.924	8.7
221.142	37.38
221.36	76.29
221.578	-38.4
221.796	23.04
222.015	23.04
222.233	-46.59
222.451	55.81
222.669	2.56
222.887	-17.92
223.105	74.24
223.323	37.38
223.541	31.23
223.759	29.18
223.977	-7.68
224.195	55.81
224.413	-1.54
224.631	45.57
224.849	4.61
225.067	107.01
225.285	68.09
225.503	66.05
225.721	8.7
225.939	35.33
226.157	61.95
226.375	-5.63
226.592	64
226.81	-3.58
227.028	8.7
227.246	27.14
227.464	51.71
227.682	-46.59
227.9	33.28
228.117	-26.11
228.335	-28.16
228.553	8.7
228.771	29.18
228.989	70.14
229.206	96.77
229.424	8.7
229.642	-58.88
229.86	45.57
230.077	123.39
230.295	-26.11
230.513	59.9
230.731	0.51
230.948	33.28
231.166	16.9
231.384	-19.97
231.601	-34.3
231.819	68.09
232.037	64
232.254	45.57
232.472	59.9
232.689	8.7
232.907	-1.54
233.125	10.75
233.342	16.9
233.56	-65.02
233.777	-3.58
233.995	76.29
234.213	-24.06
234.43	74.24
234.648	-28.16
234.865	14.85
235.083	43.52
235.3	35.33
235.518	70.14
235.735	12.8
235.953	-44.54
236.17	-42.5
236.388	78.33
236.605	4.61
236.822	25.09
237.04	41.47
237.257	80.38
237.475	35.33
237.692	74.24
237.909	39.42
238.127	0.51
238.344	10.75
238.562	31.23
238.779	10.75
238.996	16.9
239.214	-1.54
239.431	18.94
239.648	-3.58
239.865	-5.63
240.083	82.43
240.3	18.94
240.517	74.24
240.735	0.51
240.952	61.95
241.169	20.99
241.386	61.95
241.603	-17.92
241.821	16.9
242.038	25.09
242.255	14.85
242.472	59.9
242.689	-34.3
242.907	76.29
243.124	-15.87
243.341	25.09
243.558	-13.82
243.775	41.47
243.992	53.76
244.209	-19.97
244.426	-17.92
244.643	29.18
244.86	-56.83
245.078	47.62
245.295	-40.45
245.512	64
245.729	-54.78
245.946	2.56
246.163	25.09
246.38	66.05
246.597	-9.73
246.814	68.09
247.031	-34.3
247.248	23.04
247.464	59.9
247.681	-34.3
247.898	31.23
248.115	49.66
248.332	8.7
248.549	113.15
248.766	76.29
248.983	-9.73
249.2	-58.88
249.417	4.61
249.633	-28.16
249.85	6.66
250.067	4.61
250.284	-69.12
250.501	-5.63
250.717	82.43
250.934	20.99
251.151	41.47
251.368	-28.16
251.585	66.05
251.801	33.28
252.018	29.18
252.235	33.28
252.451	-5.63
252.668	4.61
252.885	10.75
253.102	-13.82
253.318	33.28
253.535	-71.17
253.752	53.76
253.968	31.23
254.185	39.42
254.401	41.47
254.618	14.85
254.835	12.8
255.051	41.47
255.268	29.18
255.484	86.53
255.701	-65.02
255.917	35.33
256.134	-11.78
256.351	29.18
256.567	18.94
256.784	-28.16
257	57.86
257.217	64
257.433	2.56
257.65	-5.63
257.866	23.04
258.082	96.77
258.299	70.14
258.515	76.29
258.732	20.99
258.948	-1.54
259.165	-5.63
259.381	35.33
259.597	14.85
259.814	68.09
260.03	49.66
260.246	16.9
260.463	59.9
260.679	-11.78
260.895	14.85
261.112	61.95
261.328	39.42
261.544	-22.02
261.761	23.04
261.977	45.57
262.193	-5.63
262.409	59.9
262.626	-3.58
262.842	70.14
263.058	4.61
263.274	88.57
263.49	25.09
263.707	121.34
263.923	47.62
264.139	39.42
264.355	43.52
264.571	68.09
264.787	53.76
265.004	45.57
265.22	37.38
265.436	31.23
265.652	-11.78
265.868	115.2
266.084	-48.64
266.3	14.85
266.516	25.09
266.732	27.14
266.948	66.05
267.164	45.57
267.38	31.23
267.596	-19.97
267.812	45.57
268.028	29.18
268.244	-1.54
268.46	14.85
268.676	2.56
268.892	4.61
269.108	68.09
269.324	-11.78
269.54	-34.3
269.756	61.95
269.972	-24.06
270.188	16.9
270.403	29.18
270.619	88.57
270.835	-65.02
271.051	45.57
271.267	41.47
271.483	16.9
271.698	-38.4
271.914	37.38
272.13	-13.82
272.346	68.09
272.562	29.18
272.777	55.81
272.993	23.04
273.209	-26.11
273.425	20.99
273.64	14.85
273.856	-7.68
274.072	4.61
274.287	18.94
274.503	25.09
274.719	-13.82
274.934	45.57
275.15	18.94
275.366	-28.16
275.581	25.09
275.797	72.19
276.012	43.52
276.228	117.25
276.444	0.51
276.659	123.39
276.875	25.09
277.09	57.86
277.306	39.42
277.521	70.14
277.737	88.57
277.952	-46.59
278.168	74.24
278.383	53.76
278.599	20.99
278.814	18.94
279.03	39.42
279.245	35.33
279.461	-38.4
279.676	64
279.892	-46.59
280.107	-67.07
280.322	74.24
280.538	25.09
280.753	45.57
280.969	-60.93
281.184	-24.06
281.399	96.77
281.615	23.04
281.83	64
282.045	-11.78
282.26	14.85
282.476	61.95
282.691	-24.06
282.906	-1.54
283.122	82.43
283.337	35.33
283.552	27.14
283.767	20.99
283.983	92.67
284.198	-50.69
284.413	-5.63
284.628	-65.02
284.843	61.95
285.058	49.66
285.274	61.95
285.489	47.62
285.704	37.38
285.919	-5.63
286.134	37.38
286.349	96.77
286.564	-30.21
286.779	12.8
286.995	8.7
287.21	29.18
287.425	49.66
287.64	-54.78
287.855	57.86
288.07	74.24
288.285	61.95
288.5	68.09
288.715	51.71
288.93	12.8
289.145	37.38
289.36	70.14
289.575	6.66
289.79	18.94
290.004	72.19
290.219	6.66
290.434	39.42
290.649	41.47
290.864	102.91
291.079	-28.16
291.294	20.99
291.509	16.9
291.724	-19.97
291.938	-50.69
292.153	6.66
292.368	18.94
292.583	14.85
292.798	25.09
293.012	74.24
293.227	96.77
293.442	78.33
293.657	20.99
293.871	86.53
294.086	-11.78
294.301	33.28
294.516	-13.82
294.73	-26.11
294.945	-9.73
295.16	-73.21
295.374	80.38
295.589	53.76
295.804	2.56
296.018	-22.02
296.233	-42.5
296.447	25.09
296.662	25.09
296.877	14.85
297.091	61.95
297.306	12.8
297.52	72.19
297.735	51.71
297.949	-24.06
298.164	8.7
298.378	6.66
298.593	37.38
298.807	0.51
299.022	20.99
299.236	96.77
299.451	-34.3
299.665	31.23
299.88	6.66
300.094	20.99
300.309	57.86
300.523	16.9
300.737	-28.16
300.952	66.05
301.166	-7.68
301.381	-19.97
301.595	-11.78
301.809	10.75
302.024	-11.78
302.238	39.42
302.452	-19.97
302.667	55.81
302.881	74.24
303.095	76.29
303.309	109.05
303.524	-34.3
303.738	20.99
303.952	-17.92
304.166	4.61
304.381	-28.16
304.595	74.24
304.809	-9.73
305.023	55.81
305.237	53.76
305.452	37.38
305.666	4.61
305.88	25.09
306.094	86.53
306.308	37.38
306.522	-5.63
306.736	55.81
306.95	20.99
307.164	12.8
307.379	59.9
307.593	16.9
307.807	23.04
308.021	59.9
308.235	20.99
308.449	8.7
308.663	66.05
308.877	88.57
309.091	66.05
309.305	23.04
309.519	10.75
309.733	45.57
309.947	2.56
310.161	16.9
310.374	43.52
310.588	12.8
310.802	-9.73
311.016	104.96
311.23	-1.54
311.444	86.53
311.658	29.18
311.872	-5.63
312.085	53.76
312.299	4.61
312.513	64
312.727	-11.78
312.941	14.85
313.154	14.85
313.368	35.33
313.582	-13.82
313.796	20.99
314.009	49.66
314.223	55.81
314.437	37.38
314.651	8.7
314.864	31.23
315.078	-7.68
315.292	29.18
315.505	37.38
315.719	76.29
315.933	80.38
316.146	102.91
316.36	-26.11
316.573	35.33
316.787	-5.63
317.001	64
317.214	0.51
317.428	8.7
317.641	66.05
317.855	39.42
318.068	45.57
318.282	70.14
318.495	96.77
318.709	68.09
318.922	-54.78
319.136	78.33
319.349	12.8
319.563	41.47
319.776	39.42
319.99	2.56
320.203	45.57
320.417	14.85
320.63	-65.02
320.843	78.33
321.057	45.57
321.27	10.75
321.483	39.42
321.697	37.38
321.91	14.85
322.124	57.86
322.337	61.95
322.55	76.29
322.763	57.86
322.977	-24.06
323.19	-22.02
323.403	23.04
323.617	-75.26
323.83	20.99
324.043	84.48
324.256	0.51
324.469	23.04
324.683	-19.97
324.896	147.97
325.109	88.57
325.322	68.09
325.535	-9.73
325.748	8.7
325.962	100.86
326.175	6.66
326.388	29.18
326.601	-36.35
326.814	107.01
327.027	51.71
327.24	61.95
327.453	-15.87
327.666	47.62
327.879	82.43
328.092	33.28
328.305	-75.26
328.518	0.51
328.731	94.72
328.944	-1.54
329.157	-11.78
329.37	53.76
329.583	-36.35
329.796	23.04
330.009	-17.92
330.222	43.52
330.435	10.75
330.648	27.14
330.861	10.75
331.073	82.43
331.286	31.23
331.499	88.57
331.712	20.99
331.925	18.94
332.138	-19.97
332.35	70.14
332.563	16.9
332.776	37.38
332.989	-3.58
333.202	31.23
333.414	12.8
333.627	53.76
333.84	6.66
334.053	55.81
334.265	14.85
334.478	0.51
334.691	8.7
334.903	39.42
335.116	39.42
335.329	47.62
335.541	-40.45
335.754	80.38
335.966	-24.06
336.179	59.9
336.392	6.66
336.604	-40.45
336.817	59.9
337.029	64
337.242	-40.45
337.454	-1.54
337.667	-3.58
337.88	47.62
338.092	74.24
338.305	16.9
338.517	4.61
338.729	53.76
338.942	-13.82
339.154	43.52
339.367	111.1
339.579	66.05
339.792	43.52
340.004	25.09
340.217	-52.74
340.429	-19.97
340.641	-15.87
340.854	35.33
341.066	8.7
341.278	61.95
341.491	37.38
341.703	37.38
341.915	59.9
342.128	10.75
342.34	49.66
342.552	31.23
342.764	0.51
342.977	41.47
343.189	-19.97
343.401	82.43
343.613	12.8
343.826	12.8
344.038	61.95
344.25	82.43
344.462	-11.78
344.674	18.94
344.886	74.24
345.099	107.01
345.311	18.94
345.523	68.09
345.735	29.18
345.947	25.09
346.159	-24.06
346.371	16.9
346.583	-9.73
346.795	74.24
347.007	10.75
347.219	64
347.431	8.7
347.643	61.95
347.855	4.61
348.067	23.04
348.279	39.42
348.491	45.57
348.703	41.47
348.915	61.95
349.127	-3.58
349.339	-9.73
349.551	-60.93
349.763	23.04
349.975	41.47
350.187	18.94
350.399	-26.11
350.61	-15.87
350.822	29.18
351.034	31.23
351.246	2.56
351.458	-26.11
351.669	47.62
351.881	100.86
352.093	43.52
352.305	84.48
352.517	33.28
352.728	31.23
352.94	41.47
353.152	41.47
353.363	-15.87
353.575	47.62
353.787	-44.54
353.999	70.14
354.21	10.75
354.422	78.33
354.633	51.71
354.845	100.86
355.057	45.57
355.268	23.04
355.48	4.61
355.692	-3.58
355.903	31.23
356.115	111.1
356.326	41.47
356.538	64
356.749	70.14
356.961	12.8
357.172	-65.02
357.384	47.62
357.595	59.9
357.807	96.77
358.018	2.56
358.23	53.76
358.441	4.61
358.653	10.75
358.864	86.53
359.075	16.9
359.287	47.62
359.498	86.53
359.709	-19.97
359.921	8.7
360.132	18.94
360.344	53.76
360.555	-17.92
360.766	57.86
360.977	82.43
361.189	70.14
361.4	66.05
361.611	-22.02
361.823	57.86
362.034	-15.87
362.245	10.75
362.456	37.38
362.667	45.57
362.879	37.38
363.09	-50.69
363.301	23.04
363.512	66.05
363.723	4.61
363.935	47.62
364.146	72.19
364.357	68.09
364.568	-5.63
364.779	23.04
364.99	18.94
365.201	-42.5
365.412	8.7
365.623	-5.63
365.834	107.01
366.045	121.34
366.256	-46.59
366.467	31.23
366.678	92.67
366.889	-34.3
367.1	-17.92
367.311	74.24
367.522	20.99
367.733	47.62
367.944	66.05
368.155	4.61
368.366	29.18
368.577	10.75
368.788	41.47
368.999	123.39
369.209	20.99
369.42	-54.78
369.631	82.43
369.842	49.66
370.053	90.62
370.264	31.23
370.474	-28.16
370.685	20.99
370.896	45.57
371.107	6.66
371.317	49.66
371.528	25.09
371.739	51.71
371.95	-1.54
372.16	-22.02
372.371	0.51
372.582	-15.87
372.792	41.47
373.003	-5.63
373.214	47.62
373.424	47.62
373.635	45.57
373.846	51.71
374.056	10.75
374.267	8.7
374.477	10.75
374.688	41.47
374.898	16.9
375.109	-30.21
375.319	33.28
375.53	59.9
375.74	35.33
375.951	41.47
376.161	14.85
376.372	-9.73
376.582	64
376.793	59.9
377.003	14.85
377.214	4.61
377.424	29.18
377.635	47.62
377.845	39.42
378.055	4.61
378.266	33.28
378.476	20.99
378.686	47.62
378.897	-5.63
379.107	98.81
379.317	45.57
379.528	2.56
379.738	94.72
379.948	29.18
380.158	-9.73
380.369	57.86
380.579	16.9
380.789	20.99
380.999	45.57
381.21	-13.82
381.42	-11.78
381.63	10.75
381.84	0.51
382.05	14.85
382.261	57.86
382.471	8.7
382.681	-28.16
382.891	152.06
383.101	98.81
383.311	45.57
383.521	4.61
383.731	72.19
383.941	59.9
384.151	20.99
384.361	-17.92
384.571	27.14
384.781	84.48
384.991	37.38
385.201	113.15
385.411	-5.63
385.621	68.09
385.831	47.62
386.041	4.61
386.251	10.75
386.461	41.47
386.671	64
386.881	57.86
387.091	64
387.301	0.51
387.511	29.18
387.72	25.09
387.93	43.52
388.14	37.38
388.35	84.48
388.56	23.04
388.769	72.19
388.979	94.72
389.189	16.9
389.399	45.57
389.609	31.23
389.818	-15.87
390.028	121.34
390.238	74.24
390.447	45.57
390.657	76.29
390.867	68.09
391.076	37.38
391.286	-11.78
391.496	43.52
391.705	57.86
391.915	57.86
392.125	51.71
392.334	59.9
392.544	-28.16
392.753	61.95
392.963	8.7
393.172	-1.54
393.382	-22.02
393.591	16.9
393.801	20.99
394.01	45.57
394.22	61.95
394.429	78.33
394.639	57.86
394.848	84.48
395.058	70.14
395.267	76.29
395.477	0.51
395.686	125.44
395.895	39.42
396.105	64
396.314	25.09
396.524	66.05
396.733	49.66
396.942	107.01
397.152	90.62
397.361	49.66
397.57	64
397.78	31.23
397.989	49.66
398.198	55.81
398.407	2.56
398.617	78.33
398.826	25.09
399.035	72.19
399.244	59.9
399.453	162.3
399.663	47.62
399.872	70.14
400.081	33.28
400.29	121.34
400.499	70.14
400.708	125.44
400.917	70.14
401.127	29.18
401.336	39.42
401.545	123.39
401.754	88.57
401.963	94.72
402.172	76.29
402.381	-9.73
402.59	57.86
402.799	104.96
403.008	86.53
403.217	59.9
403.426	96.77
403.635	141.82
403.844	90.62
404.053	78.33
404.262	94.72
404.471	145.92
404.68	68.09
404.888	76.29
405.097	137.73
405.306	96.77
405.515	86.53
405.724	78.33
405.933	119.29
406.142	35.33
406.35	88.57
406.559	127.49
406.768	119.29
406.977	137.73
407.185	121.34
407.394	162.3
407.603	53.76
407.812	100.86
408.02	168.45
408.229	139.77
408.438	227.84
408.646	102.91
408.855	152.06
409.064	156.16
409.272	121.34
409.481	272.89
409.69	201.21
409.898	231.93
410.107	207.36
410.315	190.97
410.524	182.78
410.733	172.54
410.941	166.4
411.15	279.04
411.358	238.08
411.567	307.71
411.775	313.85
411.984	215.55
412.192	219.64
412.401	336.38
412.609	287.23
412.818	393.72
413.026	342.52
413.234	287.23
413.443	301.56
413.651	348.67
413.86	305.66
414.068	367.1
414.276	373.24
414.485	383.48
414.693	434.68
414.901	373.24
415.11	455.16
415.318	446.97
415.526	514.55
415.734	438.78
415.943	543.22
416.151	569.85
416.359	426.49
416.567	543.22
416.776	563.7
416.984	627.19
417.192	670.2
417.4	655.86
417.608	623.09
417.817	604.66
418.025	696.82
418.233	674.29
418.441	793.08
418.649	723.44
418.857	866.8
419.065	856.56
419.273	827.89
419.481	856.56
419.689	915.95
419.897	911.86
420.105	932.34
420.313	907.76
420.521	993.78
420.729	1061.36
420.937	971.25
421.145	1143.28
421.353	1151.47
421.561	1176.05
421.769	1235.44
421.977	1307.12
422.185	1266.16
422.393	1368.56
422.601	1417.71
422.809	1499.63
423.017	1479.15
423.224	1532.39
423.432	1571.3
423.64	1559.02
423.848	1749.48
424.056	1741.29
424.263	1815.01
424.471	1884.64
424.679	1827.3
424.887	1968.61
425.094	1901.03
425.302	1898.98
425.51	2136.54
425.718	2210.27
425.925	2204.13
426.133	2234.85
426.341	2310.62
426.548	2472.41
426.756	2503.13
426.964	2490.84
427.171	2611.67
427.379	2718.17
427.586	2822.61
427.794	2812.37
428.001	3041.75
428.209	3156.43
428.417	2986.45
428.624	3301.84
428.832	3158.48
429.039	3125.71
429.247	3387.85
429.454	3584.46
429.662	3801.54
429.869	3473.87
430.076	3693
430.284	3617.22
430.491	3774.92
430.699	4227.52
430.906	4110.79
431.114	4161.98
431.321	4180.42
431.528	4428.22
431.736	4731.32
431.943	4921.78
432.15	4704.7
432.358	4835.77
432.565	5128.63
432.772	5163.44
432.979	5267.89
433.187	5499.31
433.394	5403.05
433.601	5931.43
433.808	5886.37
434.016	5753.26
434.223	6103.46
434.43	6304.16
434.637	6218.15
434.844	6711.71
435.052	7002.52
435.259	6898.07
435.466	6810.01
435.673	6842.78
435.88	7217.55
436.087	7567.76
436.294	7614.86
436.501	7317.9
436.708	7682.44
436.915	7727.5
437.122	8200.58
437.329	8120.71
437.537	8319.36
437.743	8653.18
437.95	8542.59
438.157	8927.61
438.364	9415.02
438.571	9236.85
438.778	9179.51
438.985	10039.65
439.192	9785.71
439.399	10113.38
439.606	9806.19
439.813	10465.63
440.02	11118.93
440.227	10658.14
440.433	10830.17
440.64	11127.13
440.847	10989.91
441.054	11254.1
441.261	11888.97
441.467	11891.02
441.674	12163.4
441.881	12597.57
442.088	12480.83
442.294	12384.58
442.501	12831.04
442.708	13027.64
442.914	13357.36
443.121	14299.43
443.328	13750.57
443.534	14727.46
443.741	14342.44
443.948	14043.43
444.154	15139.1
444.361	14987.55
444.568	15042.84
444.774	15063.32
444.981	15274.26
445.187	15698.19
445.394	16326.92
445.6	16140.55
445.807	17692.91
446.013	17002.75
446.22	17355
446.426	18030.83
446.633	18178.28
446.839	18919.65
447.046	17991.92
447.252	18974.94
447.459	19382.49
447.665	18966.75
447.871	19830.99
448.078	20828.35
448.284	19927.25
448.491	20183.24
448.697	20891.84
448.903	21379.26
449.11	21559.48
449.316	21309.63
449.522	21475.51
449.728	22044.85
449.935	22327.47
450.141	22194.35
450.347	22522.02
450.553	22184.11
450.76	22337.71
450.966	23263.39
451.172	22675.62
451.378	23333.02
451.584	23154.85
451.791	23648.41
451.997	23584.92
452.203	24047.76
452.409	24252.56
452.615	23715.99
452.821	22800.55
453.027	22902.95
453.233	23822.48
453.44	23249.05
453.646	23285.92
453.852	23435.42
454.058	23576.73
454.264	22978.72
454.47	23949.46
454.676	23120.03
454.882	24080.53
455.088	21764.28
455.294	22198.45
455.5	22251.69
455.705	22534.31
455.911	22003.89
456.117	21301.43
456.323	21123.26
456.529	19978.45
456.735	20920.51
456.941	20277.45
457.147	19933.39
457.352	19273.95
457.558	19228.89
457.764	19294.43
457.97	19075.29
458.176	18551.01
458.381	18233.58
458.587	17600.76
458.793	17701.11
458.999	16894.21
459.204	17936.62
459.41	17359.1
459.616	16259.34
459.821	16259.34
460.027	16242.95
460.233	15905.04
460.438	15137.05
460.644	15397.14
460.85	14543.14
461.055	14584.1
461.261	14424.36
461.466	13267.25
461.672	13127.99
461.878	13967.66
462.083	12818.75
462.289	12677.44
462.494	12722.49
462.7	12247.37
462.905	11815.24
463.111	12220.74
463.316	12237.13
463.522	12050.76
463.727	11979.08
463.932	11925.83
464.138	12136.77
464.343	11880.78
464.549	11678.03
464.754	11878.73
464.959	12056.9
465.165	11899.21
465.37	11383.12
465.575	11051.35
465.781	11583.82
465.986	11702.61
466.191	11153.75
466.397	10951
466.602	10467.68
466.807	10701.15
467.012	10998.1
467.218	10963.29
467.423	10486.11
467.628	10647.9
467.833	11309.4
468.038	10629.47
468.244	10563.93
468.449	10735.96
468.654	10574.17
468.859	10602.85
469.064	10357.09
469.269	10129.77
469.474	10013.03
469.679	10109.29
469.885	9935.21
470.09	10051.94
470.295	9949.54
470.5	9816.43
470.705	10006.89
470.91	9558.38
471.115	9531.76
471.32	9693.55
471.525	9548.14
471.73	9433.46
471.935	9275.76
472.139	8921.46
472.344	9210.23
472.549	9077.11
472.754	8896.89
472.959	8853.88
473.164	8501.63
473.369	8384.9
473.574	8778.11
473.778	8698.24
473.983	8720.76
474.188	8524.16
474.393	8087.94
474.598	8339.84
474.802	8016.26
475.007	8143.24
475.212	7958.92
475.417	7606.67
475.621	7944.58
475.826	7829.9
476.031	7584.14
476.235	7553.42
476.44	7631.24
476.645	7332.24
476.849	7307.66
477.054	7315.86
477.259	7270.8
477.463	7158.16
477.668	7104.92
477.872	7020.95
478.077	6922.65
478.282	6680.99
478.486	6764.95
478.691	6795.67
478.895	6719.9
479.1	6769.05
479.304	6760.86
479.509	6420.89
479.713	6670.75
479.918	6508.96
480.122	6361.5
480.326	6566.3
480.531	6570.4
480.735	6431.13
480.94	6318.5
481.144	6410.65
481.348	6240.67
481.553	6195.62
481.757	6214.05
481.961	6248.86
482.166	6322.59
482.37	6105.51
482.574	6177.19
482.778	6195.62
482.983	6228.38
483.187	6156.71
483.391	6320.54
483.595	6275.49
483.8	6234.53
484.004	6269.34
484.208	6314.4
484.412	6029.73
484.616	6265.25
484.821	6332.83
485.025	6291.87
485.229	6353.31
485.433	6281.63
485.637	6359.45
485.841	6298.02
486.045	6353.31
486.249	6197.67
486.453	6293.92
486.657	6314.4
486.861	6179.23
487.065	6187.43
487.269	6259.1
487.473	6232.48
487.677	6351.26
487.881	6424.99
488.085	6355.36
488.289	6447.52
488.493	6347.17
488.697	6414.75
488.901	6386.08
489.105	6400.41
489.309	6439.33
489.512	6470.05
489.716	6431.13
489.92	6646.17
490.124	6461.85
490.328	6711.71
490.531	6683.03
490.735	6640.03
490.939	6642.07
491.143	6674.84
491.346	6783.38
491.55	6728.09
491.754	6957.46
491.958	6875.54
492.161	6953.37
492.365	6695.32
492.569	6918.55
492.772	6951.32
492.976	7033.24
493.18	6902.17
493.383	7102.87
493.587	7233.94
493.79	7293.33
493.994	7235.99
494.197	7414.16
494.401	7569.8
494.605	7369.1
494.808	7512.46
495.012	7559.56
495.215	7555.47
495.419	7723.4
495.622	7582.09
495.825	7903.62
496.029	7887.24
496.232	8020.36
496.436	8135.04
496.639	8069.51
496.843	8307.07
497.046	8262.02
497.249	8558.97
497.453	8464.77
497.656	8704.38
497.859	8657.28
498.063	8872.31
498.266	8821.11
498.469	8915.32
498.673	9009.53
498.876	9189.75
499.079	9376.11
499.282	9269.62
499.485	9419.12
499.689	9515.37
499.892	9689.45
500.095	9896.3
500.298	10373.47
500.501	10072.42
500.705	10287.46
500.908	10432.86
501.111	10643.81
501.314	10762.59
501.517	10817.88
501.72	11258.2
501.923	11004.25
502.126	11303.25
502.329	11319.64
502.532	11419.99
502.735	11551.06
502.938	11858.25
503.141	11903.31
503.344	12319.04
503.547	11972.94
503.75	12441.92
503.953	12519.74
504.156	12489.03
504.359	12962.11
504.562	13068.6
504.765	13531.44
504.968	13484.34
505.17	13564.21
505.373	13558.07
505.576	13658.42
505.779	14020.91
505.982	14207.27
506.185	14670.11
506.387	14706.98
506.59	14666.02
506.793	14958.88
506.996	14948.64
507.198	15716.62
507.401	15233.3
507.604	15733.01
507.807	16093.45
508.009	15995.15
508.212	16314.63
508.415	16785.66
508.617	16695.55
508.82	16861.44
509.022	16800
509.225	17193.21
509.428	17709.3
509.63	17545.46
509.833	17830.13
510.035	18333.93
510.238	18114.8
510.44	18473.19
510.643	18874.59
510.845	18936.03
511.048	19011.81
511.25	19253.47
511.453	19390.68
511.655	20254.92
511.858	19794.13
512.06	19919.06
512.262	20555.97
512.465	20306.12
512.667	20811.97
512.87	21274.81
513.072	21145.79
513.274	21600.44
513.477	21737.65
513.679	22153.39
513.881	22419.63
514.084	22419.63
514.286	22501.54
514.488	22640.81
514.69	23322.78
514.893	23629.98
515.095	23521.43
515.297	23787.67
515.499	23949.46
515.701	24316.04
515.904	24567.95
516.106	24881.28
516.308	25225.34
516.51	25208.96
516.712	25290.88
516.914	25843.83
517.116	26339.44
517.318	26191.98
517.52	26458.22
517.722	26724.46
517.925	27203.68
518.127	27064.42
518.329	27394.14
518.531	27453.53
518.733	27770.97
518.935	28235.86
519.136	28377.17
519.338	28653.64
519.54	28667.98
519.742	29179.97
519.944	29206.59
520.146	29853.75
520.348	29927.48
520.55	30193.72
520.752	30011.45
520.954	30734.38
521.155	30767.15
521.357	30924.84
521.559	30912.55
521.761	31359.01
521.963	31186.98
522.164	32129.05
522.366	31641.63
522.568	32024.6
522.77	32434.19
522.971	32755.72
523.173	32720.91
523.375	33050.63
523.576	33019.91
523.778	33323.01
523.98	33953.79
524.181	33808.38
524.383	33855.48
524.584	34260.98
524.786	34232.31
524.988	34416.63
525.189	34740.21
525.391	34756.59
525.592	35086.31
525.794	34918.38
525.995	35631.07
526.197	35760.09
526.398	35555.3
526.6	36169.69
526.801	35975.13
527.003	36216.79
527.204	36485.08
527.406	36808.65
527.607	36419.54
527.808	36509.65
528.01	36202.46
528.211	37035.98
528.412	37763.01
528.614	37257.16
528.815	37619.65
529.016	37898.17
529.218	37468.1
529.419	37777.34
529.62	37523.4
529.822	37672.9
530.023	37830.59
530.224	37732.29
530.425	37769.15
530.626	37789.63
530.828	37930.94
531.029	38715.31
531.23	38006.72
531.431	37908.41
531.632	38229.94
531.833	39057.32
532.035	38707.12
532.236	38752.18
532.437	38531
532.638	38924.21
532.839	38840.24
533.04	38842.29
533.241	38459.32
533.442	39305.13
533.643	38780.85
533.844	38729.65
534.045	39032.75
534.246	39051.18
534.447	39182.25
534.648	38979.5
534.849	39391.14
535.05	39024.56
535.251	39632.8
535.451	39143.34
535.652	39772.07
535.853	39630.76
536.054	39362.47
536.255	39552.93
536.456	39622.56
536.657	40007.58
536.857	39497.64
537.058	39419.81
537.259	39659.43
537.46	40066.97
537.66	39258.02
537.861	39751.59
538.062	39317.42
538.263	39849.89
538.463	39495.59
538.664	39794.59
538.865	40028.06
539.065	39767.97
539.266	39569.32
539.466	39972.77
539.667	39387.05
539.868	40028.06
540.068	39886.75
540.269	39763.87
540.469	40251.29
540.67	39794.59
540.87	39956.38
541.071	39720.87
541.271	40064.92
541.472	40124.32
541.672	40101.79
541.873	39833.5
542.073	39593.89
542.274	40417.18
542.474	40327.06
542.675	39718.82
542.875	40167.32
543.075	39739.3
543.276	39569.32
543.476	40658.84
543.676	40044.44
543.877	40161.18
544.077	40085.4
544.277	40120.22
544.478	39905.18
544.678	40636.31
544.878	40157.08
545.078	40302.49
545.279	39673.76
545.479	39878.56
545.679	40505.24
545.879	40419.22
546.079	40427.42
546.28	40202.14
546.48	40140.7
546.68	40040.35
546.88	40206.23
547.08	39970.72
547.28	40056.73
547.48	39923.61
547.68	40503.19
547.88	39864.22
548.081	40310.68
548.281	40038.3
548.481	40206.23
548.681	40574.87
548.881	40216.47
549.081	40218.52
549.28	39964.57
549.48	40322.97
549.68	40161.18
549.88	40820.63
550.08	40169.37
550.28	40284.06
550.48	39964.57
550.68	40654.74
550.88	39940
551.08	40198.04
551.279	40578.96
551.479	39806.88
551.679	40425.37
551.879	40208.28
552.079	40189.85
552.278	39735.2
552.478	40386.46
552.678	40247.19
552.878	40302.49
553.077	39985.05
553.277	39389.09
553.477	40347.54
553.676	40298.39
553.876	39948.19
554.076	39632.8
554.275	40292.25
554.475	39688.1
554.674	40048.54
554.874	40214.43
555.074	39991.2
555.273	40146.84
555.473	40343.45
555.672	39698.34
555.872	39845.79
556.071	40202.14
556.271	40109.98
556.47	39864.22
556.67	39481.25
556.869	40202.14
557.068	40431.51
557.268	39763.87
557.467	39714.72
557.667	39677.86
557.866	39856.03
558.065	39847.84
558.265	39589.8
558.464	39581.6
558.663	39995.29
558.863	39399.33
559.062	40103.84
559.261	39114.67
559.461	39866.27
559.66	39118.76
559.859	39864.22
560.058	39223.21
560.258	39770.02
560.457	39239.59
560.656	39655.33
560.855	39333.8
561.054	39870.37
561.253	39247.79
561.453	39714.72
561.652	39421.86
561.851	39341.99
562.05	39270.31
562.249	38942.64
562.448	39503.78
562.647	39428.01
562.846	39131.05
563.045	39643.04
563.244	39145.39
563.443	39546.79
563.642	39024.56
563.841	39188.39
564.04	38936.49
564.239	39307.18
564.438	38920.11
564.637	39151.53
564.836	39395.24
565.035	38703.03
565.234	39169.96
565.432	38844.34
565.631	38639.54
565.83	39161.77
566.029	38809.52
566.228	38840.24
566.427	38764.46
566.625	38883.25
566.824	38571.96
567.023	38928.3
567.222	38336.44
567.42	39075.76
567.619	38680.5
567.818	38475.7
568.016	38639.54
568.215	38993.84
568.414	38483.89
568.612	38903.73
568.811	38406.07
569.01	38367.16
569.208	37924.8
569.407	38492.08
569.605	38223.8
569.804	38311.86
570.002	38238.14
570.201	38432.69
570.4	37973.95
570.598	38186.94
570.797	38105.02
570.995	38289.34
571.193	37795.78
571.392	38072.25
571.59	37844.93
571.789	38131.64
571.987	37642.18
572.186	37541.83
572.384	37941.18
572.582	38168.51
572.781	38006.72
572.979	37126.09
573.177	37523.4
573.376	37670.85
573.574	37265.35
573.772	37375.94
573.971	37179.34
574.169	37097.42
574.367	36655.06
574.565	37035.98
574.763	37146.57
574.962	37208.01
575.16	36974.54
575.358	36728.78
575.556	36632.53
575.754	37312.45
575.952	36376.53
576.151	36868.05
576.349	36665.3
576.547	36440.02
576.745	36536.27
576.943	36560.85
577.141	36519.89
577.339	36335.57
577.537	36372.44
577.735	36216.79
577.933	36093.91
578.131	36095.96
578.329	36276.18
578.527	35528.67
578.725	35911.64
578.923	35919.84
579.121	35612.64
579.319	35229.67
579.516	35805.15
579.714	35604.45
579.912	35483.62
580.11	35256.29
580.308	35641.31
580.506	35430.37
580.704	34463.73
580.901	35123.18
581.099	35278.82
581.297	34824.17
581.495	35026.92
581.692	34777.07
581.89	34852.84
582.088	34992.11
582.285	34531.31
582.483	34742.25
582.681	34533.36
582.878	34447.35
583.076	34156.53
583.274	34357.24
583.471	33966.07
583.669	34250.74
583.866	34070.52
584.064	33970.17
584.262	33359.87
584.459	34019.32
584.657	33546.24
584.854	34254.84
585.052	33544.19
585.249	33796.09
585.447	33832.96
585.644	33128.45
585.841	33220.61
586.039	33579.01
586.236	33009.67
586.434	32823.31
586.631	32817.16
586.828	33099.78
587.026	32493.58
587.223	32731.15
587.42	32632.85
587.618	32710.67
587.815	32507.92
588.012	32237.59
588.21	32167.96
588.407	32575.5
588.604	31944.73
588.801	31911.96
588.999	32100.37
589.196	31762.46
589.393	31942.68
589.59	32022.55
589.787	31416.35
589.984	31535.13
590.182	31326.24
590.379	31649.82
590.576	31023.14
590.773	31211.56
590.97	31168.55
591.167	31047.72
591.364	30785.58
591.561	31074.34
591.758	30767.15
591.955	30885.93
592.152	30847.02
592.349	30597.17
592.546	30799.91
592.743	30627.88
592.94	30181.43
593.137	30591.02
593.334	30345.26
593.531	29954.1
593.727	30111.8
593.924	30138.42
594.121	29683.77
594.318	30296.11
594.515	29798.46
594.712	29560.89
594.908	29372.48
595.105	29511.74
595.302	29235.27
595.499	29648.96
595.696	29300.8
595.892	29300.8
596.089	29468.73
596.286	29227.07
596.482	28883.02
596.679	29282.37
596.876	28868.68
597.072	28749.9
597.269	29087.81
597.466	28760.14
597.662	28661.83
597.859	28250.19
598.055	28354.64
598.252	28270.67
598.448	28035.16
598.645	28123.22
598.841	27703.39
599.038	28055.64
599.234	28217.43
599.431	27713.63
599.627	27842.65
599.824	27762.78
600.02	27531.36
600.217	28057.68
600.413	27621.47
600.609	27549.79
600.806	27162.72
601.002	27461.72
601.198	27256.93
601.395	26792.04
601.591	27039.84
601.787	27160.67
601.984	26691.69
602.18	26884.2
602.376	26703.98
602.572	26654.83
602.769	26468.46
602.965	26447.98
603.161	26263.66
603.357	26390.64
603.553	26353.77
603.75	26536.04
603.946	25933.94
604.142	26044.53
604.338	25626.74
604.534	26345.58
604.73	25847.93
604.926	25645.18
605.122	25643.13
605.318	25694.33
605.514	25409.66
605.71	25512.06
605.906	25208.96
606.102	25397.37
606.298	25258.11
606.494	25180.29
606.69	25008.26
606.886	25231.49
607.082	24686.73
607.278	24998.02
607.474	24735.88
607.67	25120.9
607.866	24645.77
608.062	24825.99
608.257	24764.55
608.453	24531.08
608.649	24842.37
608.845	24457.35
609.041	24289.42
609.236	24479.88
609.432	24055.95
609.628	24094.86
609.824	24238.22
610.019	23816.34
610.215	24098.96
610.411	24352.91
610.606	23984.27
610.802	24029.33
610.998	24010.9
611.193	24201.36
611.389	23644.31
611.584	23799.96
611.78	23654.55
611.976	23527.58
612.171	23584.92
612.367	23621.78
612.562	23443.61
612.758	23089.31
612.953	23601.3
613.149	23824.53
613.344	23183.52
613.539	23660.69
613.735	23148.7
613.93	23283.87
614.126	23206.05
614.321	23367.84
614.517	23224.48
614.712	22814.88
614.907	23158.94
615.103	23527.58
615.298	22675.62
615.493	23136.41
615.688	22876.32
615.884	23396.51
616.079	22659.24
616.274	23034.02
616.47	22550.7
616.665	22562.98
616.86	22655.14
617.055	22388.91
617.25	22124.72
617.445	22548.65
617.641	22155.44
617.836	22139.05
618.031	22032.56
618.226	22360.23
618.421	22042.8
618.616	22300.84
618.811	21801.14
619.006	21952.69
619.201	21715.12
619.396	21846.19
619.591	21438.65
619.786	21416.12
619.981	21272.76
620.176	21543.1
620.371	21115.07
620.566	21049.53
620.761	21074.11
620.956	21020.86
621.151	20668.61
621.346	20981.95
621.541	20519.11
621.735	20920.51
621.93	20340.94
622.125	20596.93
622.32	20228.3
622.515	20240.59
622.709	20189.39
622.904	20013.26
623.099	19896.53
623.294	19947.73
623.488	19658.96
623.683	19968.21
623.878	19411.16
624.072	19364.06
624.267	19413.21
624.462	19032.29
624.656	19153.12
624.851	19192.03
625.046	18538.73
625.24	19007.71
625.435	18495.72
625.629	18831.58
625.824	18321.64
626.018	18282.73
626.213	17942.77
626.407	18260.2
626.602	18043.12
626.796	18252.01
626.991	18049.26
627.185	17815.79
627.38	17668.34
627.574	17619.19
627.768	17502.45
627.963	17408.25
628.157	17311.99
628.352	17592.56
628.546	17082.62
628.74	17139.96
628.935	16818.43
629.129	17092.86
629.323	16720.13
629.517	16736.51
629.712	16681.22
629.906	16597.25
630.1	16085.26
630.294	16302.34
630.489	16349.45
630.683	16363.78
630.877	16136.46
631.071	15888.65
631.265	15993.1
631.459	16007.44
631.653	15855.89
631.848	15958.28
632.042	15585.55
632.236	15491.35
632.43	15405.33
632.624	15769.87
632.818	15296.79
633.012	15391
633.206	15061.27
633.4	15118.62
633.594	14901.53
633.788	15008.03
633.982	15069.47
634.176	15155.48
634.369	14819.61
634.563	14623.01
634.757	14747.93
634.951	14655.78
635.145	14440.74
635.339	14313.77
635.533	14508.32
635.726	14139.69
635.92	14076.2
636.114	14108.97
636.308	14102.82
636.501	13994.28
636.695	13932.84
636.889	13822.25
637.083	13977.9
637.276	13553.97
637.47	13474.1
637.664	13465.91
637.857	13467.95
638.051	13482.29
638.244	13465.91
638.438	13418.8
638.632	13187.38
638.825	13029.69
639.019	13101.37
639.212	12796.22
639.406	12966.2
639.599	12767.55
639.793	12824.89
639.986	12818.75
640.18	12568.9
640.373	12663.1
640.567	12517.7
640.76	12611.9
640.954	12380.48
641.147	12269.89
641.34	12357.96
641.534	12120.39
641.727	12204.36
641.92	12155.21
642.114	11796.81
642.307	11774.28
642.5	12009.8
642.694	11530.58
642.887	11714.89
643.08	11893.07
643.273	11473.23
643.467	11534.67
643.66	11573.58
643.853	11397.46
644.046	11252.05
644.239	11358.55
644.432	11217.24
644.626	11221.33
644.819	10879.32
645.012	11196.76
645.205	11049.3
645.398	10836.31
645.591	10654.05
645.784	10639.71
645.977	10641.76
646.17	10586.46
646.363	10543.46
646.556	10463.58
646.749	10551.65
646.942	10606.94
647.135	10213.73
647.328	10451.3
647.521	10359.14
647.714	10111.33
647.907	10166.63
648.099	10314.08
648.292	10207.59
648.485	9951.59
648.678	9847.15
648.871	9873.77
649.064	9623.92
649.256	9744.75
649.449	9711.98
649.642	9509.23
649.835	9519.47
650.027	9429.36
650.22	9601.39
650.413	9316.72
650.605	9351.54
650.798	9294.19
650.991	9089.4
651.183	9068.92
651.376	9009.53
651.568	8968.57
651.761	8888.7
651.954	9005.43
652.146	8806.78
652.339	8677.76
652.531	8710.52
652.724	8778.11
652.916	8587.64
653.109	8630.65
653.301	8565.12
653.494	8620.41
653.686	8427.9
653.879	8515.97
654.071	8358.27
654.263	8145.28
654.456	8345.98
654.648	8040.84
654.84	8092.04
655.033	8116.61
655.225	7905.67
655.417	7809.42
655.61	7870.86
655.802	8124.8
655.994	7985.54
656.186	8003.97
656.379	7848.33
656.571	7647.63
656.763	7653.77
656.955	7543.18
657.148	7797.13
657.34	7543.18
657.532	7313.81
657.724	7287.18
657.916	7350.67
658.108	7350.67
658.3	7289.23
658.492	7149.97
658.684	7059.86
658.876	7152.02
659.068	7102.87
659.26	7043.48
659.452	7074.2
659.644	6873.5
659.836	6769.05
660.028	6855.06
660.22	6672.79
660.412	6652.31
660.604	6781.34
660.796	6789.53
660.988	6597.02
661.18	6476.19
661.372	6500.76
661.563	6470.05
661.755	6539.68
661.947	6326.69
662.139	6414.75
662.331	6300.06
662.522	6181.28
662.714	6144.42
662.906	6070.69
663.097	6259.1
663.289	6119.84
663.481	6044.07
663.673	6074.79
663.864	6119.84
664.056	5798.31
664.247	5876.13
664.439	5783.98
664.631	5740.97
664.822	5712.3
665.014	5763.5
665.205	5595.56
665.397	5642.67
665.588	5611.95
665.78	5550.51
665.971	5441.96
666.163	5581.23
666.354	5362.09
666.546	5401.01
666.737	5261.74
666.929	5147.06
667.12	5290.42
667.311	5298.61
667.503	5288.37
667.694	5091.76
667.885	5050.8
668.077	5093.81
668.268	5095.86
668.459	5108.15
668.651	4977.08
668.842	4932.02
669.033	4964.79
669.224	4833.72
669.416	4985.27
669.607	4835.77
669.798	4762.04
669.989	4811.19
670.18	4624.83
670.371	4788.66
670.563	4684.22
670.754	4608.44
670.945	4647.35
671.136	4383.17
671.327	4614.59
671.518	4620.73
671.709	4579.77
671.9	4598.2
672.091	4438.46
672.282	4555.19
672.473	4415.93
672.664	4360.64
672.855	4417.98
673.046	4415.93
673.237	4438.46
673.428	4313.53
673.619	4407.74
673.809	4319.68
674	4239.81
674.191	4231.62
674.382	4233.66
674.573	4145.6
674.764	4286.91
674.954	4127.17
675.145	3998.15
675.336	3965.38
675.527	4100.55
675.717	4110.79
675.908	3877.32
676.099	3928.52
676.289	3989.96
676.48	4092.35
676.671	3930.56
676.861	3797.45
677.052	3838.41
677.243	3873.22
677.433	3887.56
677.624	3983.81
677.814	3903.94
678.005	3795.4
678.195	3733.96
678.386	3797.45
678.576	3619.27
678.767	3699.14
678.957	3789.25
679.148	3781.06
679.338	3789.25
679.529	3596.75
679.719	3678.66
679.909	3680.71
680.1	3623.37
680.29	3609.03
680.481	3437
680.671	3541.45
680.861	3553.74
681.052	3586.51
681.242	3541.45
681.432	3615.18
681.622	3504.59
681.813	3537.35
682.003	3580.36
682.193	3412.43
682.383	3533.26
682.573	3412.43
682.764	3363.28
682.954	3324.37
683.144	3338.7
683.334	3426.76
683.524	3379.66
683.714	3310.03
683.904	3410.38
684.094	3439.05
684.284	3277.26
684.474	3353.04
684.664	3289.55
684.854	3260.88
685.044	3299.79
685.234	3318.22
685.424	3279.31
685.614	3203.54
685.804	3238.35
685.994	3330.51
686.184	3174.86
686.374	3340.75
686.564	3262.93
686.753	3299.79
686.943	3338.7
687.133	3193.3
687.323	3215.82
687.513	3224.01
687.702	3219.92
687.892	3160.53
688.082	3269.07
688.272	3193.3
688.461	3299.79
688.651	3099.09
688.841	3252.69
689.03	3193.3
689.22	3293.65
689.41	3123.66
689.599	3084.75
689.789	3174.86
689.979	3150.29
690.168	3080.66
690.358	3176.91
690.547	3127.76
690.737	3219.92
690.926	3117.52
691.116	3049.94
691.305	3146.19
691.495	3199.44
691.684	2992.59
691.874	3217.87
692.063	3119.57
692.252	3039.7
692.442	3027.41
692.631	3219.92
692.82	3062.23
693.01	3127.76
693.199	3058.13
693.388	2980.31
693.578	3025.36
693.767	3101.14
693.956	2986.45
694.146	2992.59
694.335	2916.82
694.524	3013.07
694.713	2927.06
694.902	2929.11
695.092	3051.99
695.281	2834.9
695.47	3004.88
695.659	2855.38
695.848	2777.56
696.037	2834.9
696.226	2843.09
696.415	2818.52
696.604	2822.61
696.793	2787.8
696.982	2896.34
697.171	2744.79
697.36	2869.72
697.549	2898.39
697.738	2820.56
697.927	2787.8
698.116	2718.17
698.305	2693.59
698.494	2763.22
698.683	2568.66
698.872	2752.98
699.061	2712.02
699.25	2617.82
699.438	2830.8
699.627	2632.15
699.816	2589.14
700.005	2515.42
700.193	2705.88
700.382	2650.58
700.571	2722.26
700.76	2603.48
700.948	2685.4
701.137	2462.17
701.326	2490.84
701.514	2480.6
701.703	2517.47
701.892	2562.52
702.08	2505.18
702.269	2542.04
702.457	2406.88
702.646	2521.56
702.834	2531.8
703.023	2421.21
703.212	2406.88
703.4	2347.48
703.589	2396.64
703.777	2359.77
703.965	2402.78
704.154	2433.5
704.342	2281.95
704.531	2341.34
704.719	2384.35
704.907	2320.86
705.096	2243.04
705.284	2318.81
705.472	2298.33
705.661	2318.81
705.849	2431.45
706.037	2210.27
706.226	2284
706.414	2181.6
706.602	2259.42
706.79	2288.09
706.979	2175.45
707.167	2208.22
707.355	2216.41
707.543	2169.31
707.731	2214.37
707.919	2103.78
708.107	2111.97
708.296	2122.21
708.484	2132.45
708.672	2214.37
708.86	2071.01
709.048	2048.48
709.236	2054.62
709.424	2146.78
709.612	2019.81
709.8	2013.67
709.988	1993.19
710.176	2095.58
710.364	1968.61
710.551	2013.67
710.739	1982.95
710.927	1944.03
711.115	2001.38
711.303	1915.36
711.491	1935.84
711.679	1868.26
711.866	1767.91
712.054	1870.31
712.242	1858.02
712.43	1915.36
712.617	1860.07
712.805	1862.12
712.993	1851.88
713.181	1710.57
713.368	1829.35
713.556	1890.79
713.744	1831.4
713.931	1804.77
714.119	1806.82
714.306	1839.59
714.494	1724.9
714.682	1753.57
714.869	1769.96
715.057	1843.68
715.244	1735.14
715.432	1759.72
715.619	1634.79
715.807	1669.61
715.994	1690.09
716.182	1743.33
716.369	1706.47
716.556	1669.61
716.744	1628.65
716.931	1724.9
717.119	1634.79
717.306	1655.27
717.493	1585.64
717.681	1585.64
717.868	1505.77
718.055	1599.98
718.242	1581.54
718.43	1552.87
718.617	1546.73
718.804	1505.77
718.991	1542.63
719.179	1559.02
719.366	1503.72
719.553	1546.73
719.74	1425.9
719.927	1540.58
720.114	1343.98
720.301	1487.34
720.488	1493.48
720.676	1495.53
720.863	1425.9
721.05	1413.61
721.237	1417.71
721.424	1315.31
721.611	1446.38
721.798	1411.56
721.985	1389.03
722.172	1450.47
722.358	1374.7
722.545	1397.23
722.732	1358.32
722.919	1350.12
723.106	1393.13
723.293	1401.32
723.48	1362.41
723.667	1362.41
723.853	1237.49
724.04	1352.17
724.227	1348.08
724.414	1284.59
724.6	1325.55
724.787	1356.27
724.974	1221.1
725.161	1323.5
725.347	1210.86
725.534	1251.82
725.72	1294.83
725.907	1245.68
726.094	1276.4
726.28	1190.38
726.467	1225.2
726.653	1128.94
726.84	1282.54
727.027	1288.68
727.213	1116.65
727.4	1243.63
727.586	1090.03
727.773	1167.85
727.959	1227.25
728.145	1210.86
728.332	1163.76
728.518	1135.09
728.705	1139.18
728.891	1116.65
729.077	1133.04
729.264	1122.8
729.45	1053.17
729.636	1161.71
729.823	1116.65
730.009	1126.89
730.195	1044.98
730.382	1092.08
730.568	1006.06
730.754	1059.31
730.94	997.87
731.126	1126.89
731.313	1047.02
731.499	1112.56
731.685	1092.08
731.871	1047.02
732.057	1024.5
732.243	1059.31
732.429	1065.46
732.615	981.49
732.801	1028.59
732.987	997.87
733.173	942.58
733.359	987.63
733.545	952.82
733.731	999.92
733.917	944.63
734.103	1028.59
734.289	991.73
734.475	961.01
734.661	1038.83
734.847	993.78
735.033	930.29
735.219	877.04
735.404	1004.02
735.59	881.14
735.776	850.42
735.962	942.58
736.148	893.43
736.333	936.43
736.519	807.41
736.705	934.39
736.89	907.76
737.076	887.28
737.262	918
737.447	887.28
737.633	813.56
737.819	807.41
738.004	860.66
738.19	817.65
738.375	852.47
738.561	838.13
738.747	827.89
738.932	846.32
739.118	928.24
739.303	782.84
739.489	823.8
739.674	741.88
739.859	764.4
740.045	797.17
740.23	891.38
740.416	782.84
740.601	760.31
740.786	821.75
740.972	782.84
741.157	756.21
741.342	817.65
741.528	764.4
741.713	811.51
741.898	801.27
742.084	741.88
742.269	723.44
742.454	807.41
742.639	788.98
742.824	741.88
743.01	735.73
743.195	739.83
743.38	780.79
743.565	784.88
743.75	672.25
743.935	766.45
744.12	655.86
744.305	692.73
744.49	702.97
744.675	745.97
744.86	674.29
745.045	735.73
745.23	700.92
745.415	672.25
745.6	676.34
745.785	649.72
745.97	612.85
746.155	780.79
746.34	651.77
746.525	639.48
746.71	690.68
746.895	586.23
747.079	676.34
747.264	692.73
747.449	588.28
747.634	575.99
747.819	657.91
748.003	539.13
748.188	547.32
748.373	678.39
748.557	616.95
748.742	659.96
748.927	596.47
749.111	553.46
749.296	553.46
749.481	485.88
749.665	625.14
749.85	606.71
750.034	575.99
750.219	573.94
750.404	582.14
750.588	602.61
750.773	520.7
750.957	588.28
751.141	606.71
751.326	510.46
751.51	625.14
751.695	582.14
751.879	496.12
752.064	508.41
752.248	535.03
752.432	582.14
752.617	635.38
752.801	487.93
752.985	559.61
753.17	487.93
753.354	557.56
753.538	537.08
753.722	440.83
753.907	535.03
754.091	557.56
754.275	485.88
754.459	446.97
754.643	498.17
754.828	526.84
755.012	463.35
755.196	424.44
755.38	473.59
755.564	442.87
755.748	455.16
755.932	449.02
756.116	475.64
756.3	461.3
756.484	569.85
756.668	481.78
756.852	492.02
757.036	522.74
757.22	451.07
757.404	424.44
757.588	457.21
757.772	504.31
757.956	455.16
758.14	451.07
758.323	412.15
758.507	485.88
758.691	451.07
758.875	416.25
759.059	363
759.242	403.96
759.426	434.68
759.61	430.59
759.794	360.95
759.977	428.54
760.161	522.74
760.345	426.49
760.528	416.25
760.712	416.25
760.895	399.87
761.079	363
761.263	422.39
761.446	397.82
761.63	414.2
761.813	444.92
761.997	418.3
762.18	403.96
762.364	430.59
762.547	365.05
762.731	336.38
762.914	369.15
763.098	348.67
763.281	393.72
763.464	367.1
763.648	451.07
763.831	358.91
764.015	338.43
764.198	356.86
764.381	424.44
764.564	342.52
764.748	377.34
764.931	348.67
765.114	303.61
765.297	381.43
765.481	346.62
765.664	444.92
765.847	365.05
766.03	414.2
766.213	420.35
766.397	397.82
766.58	356.86
766.763	422.39
766.946	332.28
767.129	336.38
767.312	363
767.495	324.09
767.678	379.39
767.861	315.9
768.044	311.8
768.227	293.37
768.41	324.09
768.593	365.05
768.776	266.75
768.959	332.28
769.142	391.67
769.324	383.48
769.507	330.23
769.69	379.39
769.873	365.05
770.056	313.85
770.239	358.91
770.421	322.04
770.604	291.32
770.787	311.8
770.97	379.39
771.152	281.08
771.335	330.23
771.518	367.1
771.7	414.2
771.883	414.2
772.066	320
772.248	358.91
772.431	299.52
772.613	399.87
772.796	272.89
772.978	358.91
773.161	371.19
773.343	291.32
773.526	332.28
773.708	324.09
773.891	336.38
774.073	270.84
774.256	344.57
774.438	250.36
774.621	299.52
774.803	350.71
774.985	289.28
775.168	367.1
775.35	285.18
775.532	301.56
775.715	307.71
775.897	283.13
776.079	301.56
776.261	262.65
776.444	254.46
776.626	309.76
776.808	299.52
776.99	309.76
777.173	231.93
777.355	336.38
777.537	281.08
777.719	287.23
777.901	287.23
778.083	170.49
778.265	317.95
778.447	276.99
778.629	281.08
778.811	311.8
778.993	254.46
779.175	274.94
779.357	256.51
779.539	246.27
779.721	217.6
779.903	322.04
780.085	266.75
780.267	268.8
780.449	297.47
780.631	307.71
780.812	262.65
780.994	303.61
781.176	164.35
781.358	283.13
781.54	225.79
781.721	246.27
781.903	254.46
782.085	264.7
782.267	254.46
782.448	225.79
782.63	190.97
782.812	221.69
782.993	299.52
783.175	207.36
783.357	207.36
783.538	182.78
783.72	152.06
783.901	197.12
784.083	242.17
784.264	213.5
784.446	227.84
784.627	168.45
784.809	176.64
784.99	205.31
785.172	197.12
785.353	178.69
785.535	252.41
785.716	229.88
785.897	213.5
786.079	156.16
786.26	156.16
786.441	223.74
786.623	139.77
786.804	160.25
786.985	201.21
787.167	225.79
787.348	174.59
787.529	176.64
787.71	172.54
787.891	287.23
788.073	248.32
788.254	141.82
788.435	174.59
788.616	205.31
788.797	141.82
788.978	182.78
789.159	121.34
789.34	223.74
789.522	209.4
789.703	150.01
789.884	80.38
790.065	154.11
790.246	209.4
790.427	195.07
790.607	164.35
790.788	197.12
790.969	121.34
791.15	162.3
791.331	76.29
791.512	147.97
791.693	78.33
791.874	152.06
792.054	215.55
792.235	176.64
792.416	166.4
792.597	137.73
792.778	186.88
792.958	88.57
793.139	139.77
793.32	80.38
793.5	150.01
793.681	162.3
793.862	135.68
794.042	113.15
794.223	133.63
794.404	158.21
794.584	113.15
794.765	129.53
794.945	172.54
795.126	121.34
795.306	209.4
795.487	119.29
795.667	107.01
795.848	184.83
796.028	156.16
796.209	139.77
796.389	199.16
796.57	125.44
796.75	90.62
796.93	78.33
797.111	43.52
797.291	123.39
797.471	80.38
797.652	188.93
797.832	109.05
798.012	143.87
798.192	162.3
798.373	127.49
798.553	82.43
798.733	170.49
798.913	102.91
799.093	150.01
799.274	117.25
799.454	82.43
799.634	102.91
799.814	172.54
799.994	90.62
800.174	98.81
800.354	131.58
800.534	180.73
800.714	137.73
800.894	90.62
801.074	68.09
801.254	82.43
801.434	107.01
801.614	141.82
801.794	145.92
801.974	287.23
802.154	98.81
802.334	90.62
802.514	100.86
802.693	135.68
802.873	-19.97
803.053	55.81
803.233	70.14
803.413	57.86
803.592	49.66
803.772	78.33
803.952	23.04
804.131	119.29
804.311	113.15
804.491	160.25
804.67	47.62
804.85	104.96
805.03	23.04
805.209	90.62
805.389	158.21
805.568	88.57
805.748	45.57
805.928	61.95
806.107	137.73
806.287	80.38
806.466	84.48
806.646	59.9
806.825	76.29
807.004	86.53
807.184	129.53
807.363	57.86
807.543	57.86
807.722	107.01
807.901	37.38
808.081	80.38
808.26	123.39
808.439	86.53
808.619	84.48
808.798	123.39
808.977	55.81
809.156	102.91
809.336	45.57
809.515	133.63
809.694	49.66
809.873	107.01
810.052	135.68
810.231	96.77
810.411	113.15
810.59	94.72
810.769	37.38
810.948	25.09
811.127	41.47
811.306	98.81
811.485	70.14
811.664	0.51
811.843	35.33
812.022	102.91
812.201	-1.54
812.38	113.15
812.559	66.05
812.737	121.34
812.916	64
813.095	49.66
813.274	59.9
813.453	-7.68
813.632	49.66
813.811	98.81
813.989	107.01
814.168	76.29
814.347	64
814.526	139.77
814.704	27.14
814.883	43.52
815.062	45.57
815.24	55.81
815.419	-34.3
815.598	68.09
815.776	94.72
815.955	74.24
816.133	57.86
816.312	8.7
816.49	43.52
816.669	127.49
816.847	82.43
817.026	109.05
817.204	117.25
817.383	37.38
817.561	70.14
817.74	76.29
817.918	45.57
818.097	27.14
818.275	47.62
818.453	94.72
818.632	74.24
818.81	59.9
818.988	53.76
819.167	31.23
819.345	78.33
819.523	20.99
819.701	113.15
819.879	74.24
820.058	-44.54
820.236	55.81
820.414	59.9
820.592	94.72
820.77	31.23
820.948	33.28
821.127	49.66
821.305	37.38
821.483	125.44
821.661	70.14
821.839	18.94
822.017	94.72
822.195	-19.97
822.373	-3.58
822.551	133.63
822.729	127.49
822.907	18.94
823.085	53.76
823.262	78.33
823.44	51.71
823.618	86.53
823.796	45.57
823.974	109.05
824.152	45.57
824.329	70.14
824.507	84.48
824.685	-36.35
824.863	27.14
825.04	55.81
825.218	53.76
825.396	84.48
825.574	25.09
825.751	-11.78
825.929	39.42
826.107	23.04
826.284	104.96
826.462	53.76
826.639	37.38
826.817	10.75
826.994	74.24
827.172	94.72
827.349	35.33
827.527	-1.54
827.704	-7.68
827.882	25.09
828.059	78.33
828.237	78.33
828.414	92.67
828.591	-58.88
828.769	37.38
828.946	12.8
829.124	61.95
829.301	53.76
829.478	88.57
829.655	4.61
829.833	49.66
830.01	2.56
830.187	-30.21
830.364	8.7
830.542	29.18
830.719	43.52
830.896	27.14
831.073	39.42
831.25	37.38
831.427	47.62
831.604	6.66
831.782	82.43
831.959	14.85
832.136	-15.87
832.313	35.33
832.49	31.23
832.667	76.29
832.844	-15.87
833.021	90.62
833.198	45.57
833.374	86.53
833.551	18.94
833.728	55.81
833.905	27.14
834.082	-11.78
834.259	23.04
834.436	33.28
834.612	6.66
834.789	45.57
834.966	25.09
835.143	18.94
835.319	29.18
835.496	23.04
835.673	84.48
835.85	25.09
836.026	10.75
836.203	94.72
836.38	-34.3
836.556	88.57
836.733	43.52
836.909	2.56
837.086	57.86
837.262	18.94
837.439	25.09
837.616	72.19
837.792	-26.11
837.968	14.85
838.145	0.51
838.321	27.14
838.498	47.62
838.674	156.16
838.851	27.14
839.027	-7.68
839.203	-34.3
839.38	12.8
839.556	88.57
839.732	104.96
839.909	43.52
840.085	33.28
840.261	-9.73
840.437	57.86
840.614	64
840.79	86.53
840.966	-5.63
841.142	94.72
841.318	45.57
841.494	76.29
841.671	29.18
841.847	-3.58
842.023	31.23
842.199	20.99
842.375	-40.45
842.551	29.18
842.727	4.61
842.903	14.85
843.079	-9.73
843.255	4.61
843.431	-24.06
843.607	59.9
843.783	-7.68
843.959	47.62
844.134	-9.73
844.31	88.57
844.486	18.94
844.662	-13.82
844.838	25.09
845.013	33.28
845.189	88.57
845.365	70.14
845.541	55.81
845.716	-3.58
845.892	20.99
846.068	94.72
846.244	16.9
846.419	55.81
846.595	68.09
846.77	125.44
846.946	88.57
847.122	-22.02
847.297	-17.92
847.473	18.94
847.648	88.57
847.824	20.99
847.999	-46.59
848.175	-7.68
848.35	-13.82
848.526	0.51
848.701	23.04
848.876	43.52
849.052	74.24
849.227	-1.54
849.403	37.38
849.578	66.05
849.753	27.14
849.929	31.23
850.104	4.61
850.279	-22.02
850.454	-46.59
850.63	53.76
850.805	74.24
850.98	-3.58
851.155	57.86
851.33	2.56
851.505	25.09
851.681	70.14
851.856	31.23
852.031	115.2
852.206	27.14
852.381	61.95
852.556	-3.58
852.731	14.85
852.906	39.42
853.081	-17.92
853.256	33.28
853.431	111.1
853.606	64
853.781	57.86
853.956	14.85
854.131	90.62
854.305	2.56
854.48	53.76
854.655	29.18
854.83	76.29
855.005	96.77
855.18	-28.16
855.354	0.51
855.529	-11.78
855.704	72.19
855.879	-34.3
856.053	23.04
856.228	49.66
856.403	-1.54
856.577	59.9
856.752	47.62
856.926	4.61
857.101	57.86
857.276	-58.88
857.45	16.9
857.625	43.52
857.799	-9.73
857.974	-15.87
858.148	10.75
858.323	8.7
858.497	-3.58
858.672	14.85
858.846	-13.82
859.02	29.18
859.195	-22.02
859.369	2.56
859.543	61.95
859.718	-34.3
859.892	57.86
860.066	107.01
860.241	61.95
860.415	98.81
860.589	45.57
860.763	59.9
860.938	53.76
861.112	61.95
861.286	55.81
861.46	55.81
861.634	-17.92
861.808	23.04
861.982	-24.06
862.157	-3.58
862.331	23.04
862.505	-5.63
862.679	-83.45
862.853	39.42
863.027	-50.69
863.201	33.28
863.375	10.75
863.549	14.85
863.722	-3.58
863.896	94.72
864.07	49.66
864.244	61.95
864.418	0.51
864.592	68.09
864.766	-13.82
864.939	41.47
865.113	43.52
865.287	14.85
865.461	-28.16
865.634	8.7
865.808	-34.3
865.982	45.57
866.156	6.66
866.329	-34.3
866.503	4.61
866.676	74.24
866.85	78.33
867.024	-50.69
867.197	-60.93
867.371	107.01
867.544	27.14
867.718	53.76
867.891	14.85
868.065	-22.02
868.238	-3.58
868.412	-65.02
868.585	-28.16
868.759	27.14
868.932	-42.5
869.105	-1.54
869.279	-34.3
869.452	12.8
869.625	-3.58
869.799	-46.59
869.972	6.66
870.145	53.76
870.319	25.09
870.492	-44.54
870.665	74.24
870.838	70.14
871.011	-1.54
871.185	-30.21
871.358	-52.74
871.531	0.51
871.704	-36.35
871.877	-7.68
872.05	23.04
872.223	33.28
872.396	43.52
872.569	4.61
872.742	-11.78
872.915	8.7
873.088	23.04
873.261	29.18
873.434	-1.54
873.607	66.05
873.78	-34.3
873.953	29.18
874.126	-7.68
874.299	59.9
874.471	31.23
874.644	-22.02
874.817	-50.69
874.99	2.56
875.163	-58.88
875.335	-5.63
875.508	33.28
875.681	117.25
875.853	-15.87
876.026	-38.4
876.199	-22.02
876.371	14.85
876.544	-3.58
876.717	43.52
876.889	-85.5
877.062	10.75
877.234	-34.3
877.407	-36.35
877.579	43.52
877.752	33.28
877.924	-69.12
878.097	78.33
878.269	-38.4
878.442	61.95
878.614	-36.35
878.786	2.56
878.959	74.24
879.131	-44.54
879.303	59.9
879.476	-11.78
879.648	12.8
879.82	16.9
879.993	-1.54
880.165	47.62
880.337	-42.5
880.509	-1.54
880.681	55.81
880.854	35.33
881.026	33.28
881.198	49.66
881.37	90.62
881.542	20.99
881.714	-5.63
881.886	23.04
882.058	-42.5
882.23	-32.26
882.402	33.28
882.574	72.19
882.746	-34.3
882.918	53.76
883.09	-11.78
883.262	-15.87
883.434	-22.02
883.606	8.7
883.778	14.85
883.95	16.9
884.122	16.9
884.293	16.9
884.465	-30.21
884.637	14.85
884.809	82.43
884.98	-42.5
885.152	-26.11
885.324	-50.69
885.496	-9.73
885.667	45.57
885.839	45.57
886.011	39.42
886.182	29.18
886.354	68.09
886.525	-19.97
886.697	47.62
886.869	-24.06
887.04	70.14
887.212	23.04
887.383	10.75
887.555	6.66
887.726	18.94
887.897	20.99
888.069	102.91
888.24	8.7
888.412	2.56
888.583	49.66
888.754	-7.68
888.926	-62.98
889.097	-13.82
889.268	-17.92
889.44	-7.68
889.611	16.9
889.782	35.33
889.953	12.8
890.125	55.81
890.296	10.75
890.467	2.56
890.638	-42.5
890.809	-11.78
890.98	12.8
891.151	-56.83
891.323	45.57
891.494	31.23
891.665	61.95
891.836	102.91
892.007	-30.21
892.178	12.8
892.349	-36.35
892.52	-3.58
892.691	20.99
892.862	4.61
893.032	4.61
893.203	20.99
893.374	-60.93
893.545	74.24
893.716	25.09
893.887	14.85
894.057	-38.4
894.228	-11.78
894.399	-54.78
894.57	39.42
894.74	-58.88
894.911	57.86
895.082	-7.68
895.253	-26.11
895.423	27.14
895.594	-110.08
895.764	39.42
895.935	-15.87
896.106	45.57
896.276	61.95
896.447	-17.92
896.617	-5.63
896.788	-11.78
896.958	29.18
897.129	25.09
897.299	12.8
897.47	2.56
897.64	39.42
897.81	-42.5
897.981	-52.74
898.151	23.04
898.322	35.33
898.492	-26.11
898.662	-28.16
898.832	-54.78
899.003	27.14
899.173	-15.87
899.343	-22.02
899.513	-9.73
