Data from USB4F104151__69__12-54-14-202.txt Node

Date: Fri Mar 14 12:54:14 EDT 2025
User: louis
Spectrometer: USB4F10415
Trigger mode: 4
Integration Time (sec): 1.000000E-2
Scans to average: 1
Electric dark correction enabled: true
Nonlinearity correction enabled: false
Boxcar width: 0
XAxis mode: Wavelengths
Number of Pixels in Spectrum: 3648
>>>>>Begin Spectral Data<<<<<
178.204	-54.1
178.424	-54.1
178.644	-54.1
178.864	-47.96
179.084	-7
179.304	17.58
179.524	5.29
179.744	-33.62
179.964	31.91
180.184	-17.24
180.404	-27.48
180.624	-2.9
180.844	-11.09
181.064	27.82
181.283	70.83
181.503	-56.15
181.723	-4.95
181.943	-76.63
182.163	1.19
182.383	15.53
182.602	29.87
182.822	48.3
183.042	17.58
183.262	7.34
183.482	3.24
183.701	-0.85
183.921	27.82
184.141	42.15
184.361	44.2
184.58	-9.05
184.8	5.29
185.02	-39.76
185.239	7.34
185.459	56.49
185.679	13.48
185.898	13.48
186.118	-4.95
186.338	-13.14
186.557	33.96
186.777	42.15
186.997	46.25
187.216	3.24
187.436	13.48
187.655	40.11
187.875	58.54
188.095	79.02
188.314	7.34
188.534	-41.81
188.753	-9.05
188.973	5.29
189.192	38.06
189.412	-2.9
189.631	44.2
189.851	87.21
190.07	-52.05
190.29	27.82
190.509	-19.29
190.729	56.49
190.948	46.25
191.168	25.77
191.387	97.45
191.607	21.67
191.826	79.02
192.045	-25.43
192.265	-21.33
192.484	3.24
192.704	50.35
192.923	1.19
193.142	15.53
193.362	44.2
193.581	9.39
193.8	-15.19
194.02	181.42
194.239	-62.29
194.458	132.26
194.678	-4.95
194.897	58.54
195.116	7.34
195.335	40.11
195.555	54.44
195.774	23.72
195.993	52.39
196.212	11.43
196.432	-37.72
196.651	31.91
196.87	15.53
197.089	58.54
197.308	60.59
197.528	40.11
197.747	19.63
197.966	42.15
198.185	50.35
198.404	3.24
198.623	-7
198.842	44.2
199.062	-17.24
199.281	52.39
199.5	5.29
199.719	-2.9
199.938	5.29
200.157	83.11
200.376	60.59
200.595	109.74
200.814	19.63
201.033	56.49
201.252	-27.48
201.471	68.78
201.69	64.68
201.909	76.97
202.128	46.25
202.347	124.07
202.566	52.39
202.785	-13.14
203.004	-23.38
203.223	17.58
203.442	13.48
203.661	44.2
203.879	5.29
204.098	46.25
204.317	3.24
204.536	85.16
204.755	19.63
204.974	23.72
205.193	-33.62
205.411	50.35
205.63	42.15
205.849	-25.43
206.068	-45.91
206.287	-50
206.505	-45.91
206.724	-11.09
206.943	-19.29
207.162	74.92
207.381	23.72
207.599	15.53
207.818	11.43
208.037	-33.62
208.255	52.39
208.474	42.15
208.693	21.67
208.911	72.87
209.13	87.21
209.349	-17.24
209.567	25.77
209.786	79.02
210.005	-15.19
210.223	25.77
210.442	-43.86
210.661	-23.38
210.879	-39.76
211.098	31.91
211.316	-0.85
211.535	44.2
211.753	31.91
211.972	-2.9
212.191	40.11
212.409	17.58
212.628	-0.85
212.846	58.54
213.065	-9.05
213.283	60.59
213.502	-25.43
213.72	19.63
213.938	-17.24
214.157	27.82
214.375	-37.72
214.594	66.73
214.812	72.87
215.031	-7
215.249	-19.29
215.467	62.63
215.686	50.35
215.904	83.11
216.122	-9.05
216.341	40.11
216.559	48.3
216.778	19.63
216.996	11.43
217.214	60.59
217.432	19.63
217.651	27.82
217.869	-2.9
218.087	31.91
218.306	-7
218.524	33.96
218.742	21.67
218.96	29.87
219.179	42.15
219.397	31.91
219.615	50.35
219.833	15.53
220.051	5.29
220.27	25.77
220.488	21.67
220.706	-0.85
220.924	-17.24
221.142	44.2
221.36	97.45
221.578	-35.67
221.796	-66.39
222.015	68.78
222.233	-23.38
222.451	-35.67
222.669	-56.15
222.887	42.15
223.105	-21.33
223.323	38.06
223.541	25.77
223.759	66.73
223.977	-2.9
224.195	19.63
224.413	17.58
224.631	56.49
224.849	-27.48
225.067	58.54
225.285	-13.14
225.503	93.35
225.721	9.39
225.939	-39.76
226.157	13.48
226.375	23.72
226.592	-4.95
226.81	7.34
227.028	107.69
227.246	15.53
227.464	36.01
227.682	46.25
227.9	36.01
228.117	48.3
228.335	-47.96
228.553	79.02
228.771	-19.29
228.989	7.34
229.206	-4.95
229.424	33.96
229.642	42.15
229.86	7.34
230.077	11.43
230.295	85.16
230.513	11.43
230.731	3.24
230.948	95.4
231.166	91.31
231.384	38.06
231.601	87.21
231.819	50.35
232.037	42.15
232.254	-33.62
232.472	-2.9
232.689	-39.76
232.907	68.78
233.125	25.77
233.342	-4.95
233.56	13.48
233.777	-9.05
233.995	21.67
234.213	50.35
234.43	13.48
234.648	5.29
234.865	54.44
235.083	54.44
235.3	-23.38
235.518	79.02
235.735	9.39
235.953	46.25
236.17	-43.86
236.388	52.39
236.605	85.16
236.822	103.59
237.04	56.49
237.257	52.39
237.475	13.48
237.692	52.39
237.909	17.58
238.127	29.87
238.344	60.59
238.562	27.82
238.779	33.96
238.996	42.15
239.214	29.87
239.431	33.96
239.648	64.68
239.865	-31.57
240.083	31.91
240.3	48.3
240.517	1.19
240.735	68.78
240.952	31.91
241.169	33.96
241.386	17.58
241.603	-11.09
241.821	-7
242.038	113.83
242.255	38.06
242.472	17.58
242.689	9.39
242.907	1.19
243.124	-13.14
243.341	13.48
243.558	48.3
243.775	29.87
243.992	36.01
244.209	62.63
244.426	-0.85
244.643	56.49
244.86	42.15
245.078	21.67
245.295	68.78
245.512	42.15
245.729	68.78
245.946	5.29
246.163	60.59
246.38	58.54
246.597	-0.85
246.814	-2.9
247.031	3.24
247.248	-31.57
247.464	27.82
247.681	33.96
247.898	50.35
248.115	31.91
248.332	54.44
248.549	52.39
248.766	87.21
248.983	124.07
249.2	122.02
249.417	-11.09
249.633	83.11
249.85	-39.76
250.067	44.2
250.284	23.72
250.501	1.19
250.717	-15.19
250.934	19.63
251.151	42.15
251.368	17.58
251.585	44.2
251.801	-19.29
252.018	23.72
252.235	-31.57
252.451	7.34
252.668	-45.91
252.885	21.67
253.102	93.35
253.318	-56.15
253.535	31.91
253.752	50.35
253.968	38.06
254.185	1.19
254.401	52.39
254.618	138.41
254.835	9.39
255.051	-4.95
255.268	89.26
255.484	-7
255.701	-7
255.917	27.82
256.134	91.31
256.351	17.58
256.567	-27.48
256.784	25.77
257	-21.33
257.217	48.3
257.433	50.35
257.65	60.59
257.866	87.21
258.082	5.29
258.299	-7
258.515	-17.24
258.732	7.34
258.948	74.92
259.165	-31.57
259.381	-4.95
259.597	25.77
259.814	44.2
260.03	-17.24
260.246	38.06
260.463	21.67
260.679	25.77
260.895	11.43
261.112	48.3
261.328	-9.05
261.544	64.68
261.761	44.2
261.977	60.59
262.193	33.96
262.409	31.91
262.626	15.53
262.842	-11.09
263.058	-11.09
263.274	-19.29
263.49	46.25
263.707	31.91
263.923	-23.38
264.139	42.15
264.355	21.67
264.571	36.01
264.787	23.72
265.004	1.19
265.22	25.77
265.436	74.92
265.652	58.54
265.868	83.11
266.084	-25.43
266.3	42.15
266.516	-4.95
266.732	19.63
266.948	81.07
267.164	66.73
267.38	25.77
267.596	21.67
267.812	62.63
268.028	101.55
268.244	27.82
268.46	38.06
268.676	46.25
268.892	9.39
269.108	19.63
269.324	9.39
269.54	-19.29
269.756	27.82
269.972	50.35
270.188	74.92
270.403	60.59
270.619	40.11
270.835	117.93
271.051	17.58
271.267	107.69
271.483	-37.72
271.698	-13.14
271.914	101.55
272.13	38.06
272.346	-0.85
272.562	64.68
272.777	66.73
272.993	33.96
273.209	85.16
273.425	87.21
273.64	23.72
273.856	42.15
274.072	52.39
274.287	23.72
274.503	66.73
274.719	31.91
274.934	1.19
275.15	74.92
275.366	36.01
275.581	-4.95
275.797	62.63
276.012	13.48
276.228	50.35
276.444	27.82
276.659	50.35
276.875	27.82
277.09	85.16
277.306	-7
277.521	60.59
277.737	13.48
277.952	50.35
278.168	91.31
278.383	-11.09
278.599	52.39
278.814	33.96
279.03	25.77
279.245	54.44
279.461	40.11
279.676	56.49
279.892	11.43
280.107	21.67
280.322	64.68
280.538	93.35
280.753	-35.67
280.969	33.96
281.184	-4.95
281.399	17.58
281.615	-13.14
281.83	50.35
282.045	25.77
282.26	21.67
282.476	33.96
282.691	29.87
282.906	74.92
283.122	44.2
283.337	27.82
283.552	-7
283.767	36.01
283.983	85.16
284.198	-11.09
284.413	60.59
284.628	85.16
284.843	31.91
285.058	42.15
285.274	56.49
285.489	21.67
285.704	83.11
285.919	-31.57
286.134	105.64
286.349	1.19
286.564	13.48
286.779	-0.85
286.995	31.91
287.21	-27.48
287.425	54.44
287.64	99.5
287.855	17.58
288.07	-4.95
288.285	50.35
288.5	72.87
288.715	33.96
288.93	-27.48
289.145	31.91
289.36	19.63
289.575	1.19
289.79	83.11
290.004	15.53
290.219	-23.38
290.434	-7
290.649	7.34
290.864	46.25
291.079	-33.62
291.294	74.92
291.509	17.58
291.724	66.73
291.938	-4.95
292.153	50.35
292.368	15.53
292.583	29.87
292.798	60.59
293.012	5.29
293.227	23.72
293.442	44.2
293.657	25.77
293.871	89.26
294.086	36.01
294.301	38.06
294.516	17.58
294.73	54.44
294.945	36.01
295.16	33.96
295.374	-11.09
295.589	9.39
295.804	36.01
296.018	27.82
296.233	-25.43
296.447	46.25
296.662	70.83
296.877	17.58
297.091	36.01
297.306	-21.33
297.52	19.63
297.735	103.59
297.949	42.15
298.164	66.73
298.378	42.15
298.593	93.35
298.807	23.72
299.022	-9.05
299.236	29.87
299.451	7.34
299.665	48.3
299.88	23.72
300.094	21.67
300.309	-17.24
300.523	-7
300.737	52.39
300.952	50.35
301.166	38.06
301.381	-7
301.595	44.2
301.809	-21.33
302.024	58.54
302.238	17.58
302.452	15.53
302.667	-33.62
302.881	74.92
303.095	70.83
303.309	-39.76
303.524	17.58
303.738	48.3
303.952	13.48
304.166	5.29
304.381	48.3
304.595	19.63
304.809	-17.24
305.023	44.2
305.237	-43.86
305.452	99.5
305.666	52.39
305.88	58.54
306.094	-54.1
306.308	79.02
306.522	11.43
306.736	-21.33
306.95	48.3
307.164	91.31
307.379	38.06
307.593	19.63
307.807	29.87
308.021	-23.38
308.235	81.07
308.449	-41.81
308.663	21.67
308.877	54.44
309.091	-50
309.305	29.87
309.519	-21.33
309.733	13.48
309.947	13.48
310.161	40.11
310.374	62.63
310.588	11.43
310.802	44.2
311.016	115.88
311.23	99.5
311.444	68.78
311.658	36.01
311.872	-15.19
312.085	70.83
312.299	83.11
312.513	-41.81
312.727	15.53
312.941	-11.09
313.154	5.29
313.368	-4.95
313.582	58.54
313.796	-23.38
314.009	48.3
314.223	33.96
314.437	91.31
314.651	31.91
314.864	33.96
315.078	-19.29
315.292	48.3
315.505	54.44
315.719	25.77
315.933	-4.95
316.146	44.2
316.36	36.01
316.573	42.15
316.787	9.39
317.001	-4.95
317.214	158.89
317.428	50.35
317.641	50.35
317.855	21.67
318.068	-37.72
318.282	29.87
318.495	-33.62
318.709	48.3
318.922	38.06
319.136	124.07
319.349	-0.85
319.563	117.93
319.776	23.72
319.99	-0.85
320.203	7.34
320.417	25.77
320.63	3.24
320.843	107.69
321.057	-56.15
321.27	95.4
321.483	11.43
321.697	66.73
321.91	60.59
322.124	27.82
322.337	38.06
322.55	25.77
322.763	72.87
322.977	-39.76
323.19	19.63
323.403	3.24
323.617	60.59
323.83	93.35
324.043	15.53
324.256	-23.38
324.469	70.83
324.683	13.48
324.896	-2.9
325.109	25.77
325.322	-0.85
325.535	91.31
325.748	52.39
325.962	83.11
326.175	5.29
326.388	83.11
326.601	-11.09
326.814	54.44
327.027	-23.38
327.24	5.29
327.453	17.58
327.666	23.72
327.879	58.54
328.092	36.01
328.305	72.87
328.518	-13.14
328.731	62.63
328.944	17.58
329.157	38.06
329.37	66.73
329.583	99.5
329.796	11.43
330.009	54.44
330.222	36.01
330.435	81.07
330.648	13.48
330.861	-9.05
331.073	46.25
331.286	27.82
331.499	9.39
331.712	23.72
331.925	44.2
332.138	21.67
332.35	72.87
332.563	50.35
332.776	-2.9
332.989	15.53
333.202	44.2
333.414	31.91
333.627	-15.19
333.84	95.4
334.053	33.96
334.265	3.24
334.478	29.87
334.691	40.11
334.903	-39.76
335.116	97.45
335.329	101.55
335.541	-27.48
335.754	95.4
335.966	52.39
336.179	13.48
336.392	-9.05
336.604	15.53
336.817	21.67
337.029	181.42
337.242	33.96
337.454	44.2
337.667	31.91
337.88	66.73
338.092	72.87
338.305	44.2
338.517	36.01
338.729	-2.9
338.942	54.44
339.154	130.22
339.367	29.87
339.579	70.83
339.792	-29.52
340.004	31.91
340.217	5.29
340.429	40.11
340.641	95.4
340.854	81.07
341.066	-21.33
341.278	52.39
341.491	17.58
341.703	50.35
341.915	122.02
342.128	27.82
342.34	-4.95
342.552	27.82
342.764	-29.52
342.977	66.73
343.189	38.06
343.401	56.49
343.613	-29.52
343.826	-21.33
344.038	40.11
344.25	76.97
344.462	33.96
344.674	17.58
344.886	33.96
345.099	-31.57
345.311	40.11
345.523	29.87
345.735	-31.57
345.947	56.49
346.159	44.2
346.371	62.63
346.583	7.34
346.795	70.83
347.007	33.96
347.219	99.5
347.431	29.87
347.643	107.69
347.855	36.01
348.067	11.43
348.279	3.24
348.491	46.25
348.703	83.11
348.915	29.87
349.127	38.06
349.339	44.2
349.551	-9.05
349.763	-43.86
349.975	36.01
350.187	70.83
350.399	144.55
350.61	79.02
350.822	33.96
351.034	60.59
351.246	11.43
351.458	17.58
351.669	58.54
351.881	-2.9
352.093	83.11
352.305	62.63
352.517	85.16
352.728	17.58
352.94	13.48
353.152	27.82
353.363	3.24
353.575	56.49
353.787	50.35
353.999	58.54
354.21	76.97
354.422	70.83
354.633	3.24
354.845	70.83
355.057	-2.9
355.268	52.39
355.48	-2.9
355.692	9.39
355.903	9.39
356.115	29.87
356.326	1.19
356.538	64.68
356.749	42.15
356.961	36.01
357.172	113.83
357.384	89.26
357.595	-7
357.807	13.48
358.018	-2.9
358.23	68.78
358.441	81.07
358.653	83.11
358.864	58.54
359.075	5.29
359.287	9.39
359.498	-21.33
359.709	58.54
359.921	117.93
360.132	50.35
360.344	58.54
360.555	9.39
360.766	44.2
360.977	5.29
361.189	64.68
361.4	54.44
361.611	5.29
361.823	52.39
362.034	87.21
362.245	40.11
362.456	52.39
362.667	56.49
362.879	68.78
363.09	19.63
363.301	52.39
363.512	-17.24
363.723	-7
363.935	33.96
364.146	97.45
364.357	31.91
364.568	66.73
364.779	31.91
364.99	50.35
365.201	40.11
365.412	72.87
365.623	91.31
365.834	99.5
366.045	-60.24
366.256	58.54
366.467	33.96
366.678	132.26
366.889	38.06
367.1	17.58
367.311	5.29
367.522	97.45
367.733	40.11
367.944	76.97
368.155	-0.85
368.366	-13.14
368.577	79.02
368.788	74.92
368.999	-27.48
369.209	70.83
369.42	74.92
369.631	50.35
369.842	60.59
370.053	70.83
370.264	5.29
370.474	79.02
370.685	36.01
370.896	11.43
371.107	19.63
371.317	48.3
371.528	76.97
371.739	15.53
371.95	42.15
372.16	52.39
372.371	-21.33
372.582	23.72
372.792	25.77
373.003	66.73
373.214	13.48
373.424	46.25
373.635	-4.95
373.846	58.54
374.056	85.16
374.267	5.29
374.477	48.3
374.688	19.63
374.898	-21.33
375.109	17.58
375.319	19.63
375.53	70.83
375.74	23.72
375.951	25.77
376.161	17.58
376.372	48.3
376.582	76.97
376.793	9.39
377.003	-43.86
377.214	58.54
377.424	-7
377.635	50.35
377.845	21.67
378.055	42.15
378.266	17.58
378.476	58.54
378.686	66.73
378.897	58.54
379.107	50.35
379.317	-25.43
379.528	101.55
379.738	36.01
379.948	93.35
380.158	21.67
380.369	99.5
380.579	58.54
380.789	42.15
380.999	21.67
381.21	72.87
381.42	50.35
381.63	-21.33
381.84	13.48
382.05	25.77
382.261	23.72
382.471	50.35
382.681	46.25
382.891	62.63
383.101	52.39
383.311	89.26
383.521	50.35
383.731	58.54
383.941	42.15
384.151	76.97
384.361	36.01
384.571	50.35
384.781	23.72
384.991	-25.43
385.201	50.35
385.411	103.59
385.621	52.39
385.831	44.2
386.041	48.3
386.251	5.29
386.461	17.58
386.671	29.87
386.881	64.68
387.091	33.96
387.301	3.24
387.511	97.45
387.72	68.78
387.93	54.44
388.14	40.11
388.35	58.54
388.56	50.35
388.769	11.43
388.979	48.3
389.189	97.45
389.399	81.07
389.609	91.31
389.818	60.59
390.028	54.44
390.238	58.54
390.447	29.87
390.657	44.2
390.867	-0.85
391.076	36.01
391.286	60.59
391.496	58.54
391.705	25.77
391.915	87.21
392.125	56.49
392.334	70.83
392.544	54.44
392.753	70.83
392.963	68.78
393.172	101.55
393.382	36.01
393.591	48.3
393.801	15.53
394.01	74.92
394.22	44.2
394.429	111.78
394.639	-27.48
394.848	62.63
395.058	44.2
395.267	81.07
395.477	-15.19
395.686	128.17
395.895	50.35
396.105	95.4
396.314	17.58
396.524	130.22
396.733	42.15
396.942	91.31
397.152	52.39
397.361	93.35
397.57	36.01
397.78	68.78
397.989	156.84
398.198	87.21
398.407	140.46
398.617	44.2
398.826	11.43
399.035	58.54
399.244	52.39
399.453	89.26
399.663	64.68
399.872	72.87
400.081	58.54
400.29	25.77
400.499	36.01
400.708	87.21
400.917	148.65
401.127	87.21
401.336	33.96
401.545	46.25
401.754	76.97
401.963	25.77
402.172	74.92
402.381	107.69
402.59	79.02
402.799	140.46
403.008	107.69
403.217	111.78
403.426	31.91
403.635	165.03
403.844	109.74
404.053	144.55
404.262	126.12
404.471	60.59
404.68	122.02
404.888	42.15
405.097	74.92
405.306	74.92
405.515	99.5
405.724	158.89
405.933	128.17
406.142	115.88
406.35	109.74
406.559	111.78
406.768	119.98
406.977	70.83
407.185	76.97
407.394	93.35
407.603	93.35
407.812	122.02
408.02	165.03
408.229	95.4
408.438	76.97
408.646	93.35
408.855	167.08
409.064	158.89
409.272	214.18
409.481	105.64
409.69	101.55
409.898	117.93
410.107	79.02
410.315	167.08
410.524	244.9
410.733	224.42
410.941	101.55
411.15	173.22
411.358	216.23
411.567	169.13
411.775	242.85
411.984	228.52
412.192	187.56
412.401	275.62
412.609	345.25
412.818	263.33
413.026	246.95
413.234	267.43
413.443	236.71
413.651	287.91
413.86	287.91
414.068	330.92
414.276	402.6
414.485	320.68
414.693	343.21
414.901	412.84
415.11	289.96
415.318	343.21
415.526	359.59
415.734	396.45
415.943	371.88
416.151	388.26
416.359	386.21
416.567	335.01
416.776	439.46
416.984	572.58
417.192	500.9
417.4	582.82
417.608	515.23
417.817	572.58
418.025	591.01
418.233	572.58
418.441	502.95
418.649	533.67
418.857	591.01
419.065	660.64
419.273	648.35
419.481	619.68
419.689	648.35
419.897	720.03
420.105	730.27
420.313	752.8
420.521	867.49
420.729	775.33
420.937	885.92
421.145	916.64
421.353	867.49
421.561	980.12
421.769	1019.04
421.977	986.27
422.185	1051.8
422.393	1158.3
422.601	1121.43
422.809	1010.84
423.017	1205.4
423.224	1100.95
423.432	1201.3
423.64	1258.65
423.848	1414.29
424.056	1324.18
424.263	1467.54
424.471	1434.77
424.679	1447.06
424.887	1395.86
425.094	1451.16
425.302	1569.94
425.51	1623.19
425.718	1631.38
425.925	1647.76
426.133	1660.05
426.341	1801.36
426.548	1987.72
426.756	1836.17
426.964	1928.33
427.171	2057.36
427.379	2075.79
427.586	2157.71
427.794	2278.54
428.001	2299.02
428.209	2456.71
428.417	2378.89
428.624	2579.59
428.832	2512
429.039	2595.97
429.247	2411.65
429.454	2706.56
429.662	2817.15
429.869	2835.58
430.076	3019.9
430.284	2798.72
430.491	2942.08
430.699	3132.54
430.906	3150.97
431.114	3007.61
431.321	3306.62
431.528	3421.3
431.736	3628.15
431.943	3902.58
432.15	3718.26
432.358	3660.91
432.565	3851.38
432.772	3970.16
432.979	4174.95
433.187	4308.07
433.394	4109.42
433.601	4635.75
433.808	4377.7
434.016	4537.45
434.223	4600.93
434.43	4949.09
434.637	4953.18
434.844	5252.19
435.052	5207.13
435.259	5174.36
435.466	5323.87
435.673	5260.38
435.88	5592.15
436.087	5717.08
436.294	5960.78
436.501	5842
436.708	5964.88
436.915	6095.95
437.122	6196.3
437.329	6284.36
437.537	6503.5
437.743	6630.47
437.95	6663.24
438.157	6931.52
438.364	7253.05
438.571	7144.51
438.778	7240.76
438.985	7808.05
439.192	7482.42
439.399	7820.34
439.606	7758.9
439.813	7822.39
440.02	8543.27
440.227	8313.9
440.433	8293.42
440.64	8653.86
440.847	8346.67
441.054	8686.63
441.261	9442.33
441.467	9270.3
441.674	9538.59
441.881	9772.05
442.088	9765.91
442.294	9714.71
442.501	9915.41
442.708	10120.21
442.914	10501.13
443.121	10918.92
443.328	10605.58
443.534	11508.73
443.741	11027.46
443.948	10949.64
444.154	11607.03
444.361	11600.89
444.568	11742.2
444.774	11650.04
444.981	11942.9
445.187	12522.48
445.394	12575.72
445.6	12545
445.807	13751.26
446.013	13138.91
446.22	13388.77
446.426	14048.21
446.633	14160.85
446.839	14515.15
447.046	13919.19
447.252	14818.25
447.459	14674.89
447.665	14988.23
447.871	15537.09
448.078	15969.21
448.284	15504.32
448.491	15590.33
448.697	16434.1
448.903	16743.34
449.11	16765.87
449.316	16425.9
449.522	16726.96
449.728	17038.25
449.935	17302.43
450.141	17251.24
450.347	17486.75
450.553	17259.43
450.76	17083.3
450.966	18090.9
451.172	17890.2
451.378	18355.09
451.584	17925.02
451.791	18113.43
451.997	18232.21
452.203	18604.94
452.409	18549.65
452.615	18328.47
452.821	17769.37
453.027	17755.04
453.233	18572.18
453.44	17984.41
453.646	18082.71
453.852	18219.92
454.058	18092.95
454.264	17785.76
454.47	18387.86
454.676	18000.79
454.882	18695.05
455.088	17120.17
455.294	17052.58
455.5	17517.47
455.705	17777.56
455.911	17071.01
456.117	16538.54
456.323	16366.51
456.529	15750.07
456.735	16206.77
456.941	15885.24
457.147	15545.28
457.352	15184.83
457.558	15010.76
457.764	14902.22
457.97	14566.35
458.176	14330.83
458.381	14605.26
458.587	13790.17
458.793	13755.35
458.999	13065.19
459.204	13874.13
459.41	13564.89
459.616	12747.75
459.821	12831.72
460.027	12714.98
460.233	12356.59
460.438	11879.41
460.644	12082.16
460.85	11357.18
461.055	11379.71
461.261	11308.03
461.466	10519.56
461.672	10206.22
461.878	10933.25
462.083	10214.41
462.289	9935.89
462.494	9821.2
462.7	9452.57
462.905	9180.19
463.111	9526.3
463.316	9454.62
463.522	9499.67
463.727	9421.85
463.932	9425.95
464.138	9434.14
464.343	9356.32
464.549	9059.36
464.754	9419.8
464.959	9270.3
465.165	9534.49
465.37	8860.71
465.575	8584.23
465.781	8965.15
465.986	9124.9
466.191	8774.69
466.397	8670.25
466.602	8096.82
466.807	8475.69
467.012	8522.79
467.218	8526.89
467.423	8455.21
467.628	8395.82
467.833	8662.05
468.038	8338.48
468.244	8451.11
468.449	8692.77
468.654	8356.91
468.859	8256.56
469.064	8178.73
469.269	7851.06
469.474	7806
469.679	8035.38
469.885	7851.06
470.09	8031.28
470.295	7908.4
470.5	7640.12
470.705	7580.73
470.91	7615.54
471.115	7552.06
471.32	7664.69
471.525	7601.21
471.73	7326.78
471.935	7210.04
472.139	7097.41
472.344	7304.25
472.549	7234.62
472.754	6988.86
472.959	6814.79
473.164	6798.4
473.369	6655.05
473.574	6904.9
473.778	6847.55
473.983	6808.64
474.188	6827.07
474.393	6325.32
474.598	6437.96
474.802	6554.69
475.007	6397
475.212	6290.51
475.417	6083.66
475.621	6163.53
475.826	6163.53
476.031	5979.22
476.235	5831.76
476.44	5934.16
476.645	5907.54
476.849	5989.46
477.054	5815.38
477.259	5778.51
477.463	5778.51
477.668	5663.83
477.872	5706.84
478.077	5573.72
478.282	5489.75
478.486	5323.87
478.691	5274.71
478.895	5241.95
479.1	5172.32
479.304	5459.03
479.509	5055.58
479.713	5194.84
479.918	5026.91
480.122	4994.14
480.326	5153.88
480.531	5059.68
480.735	5110.88
480.94	4975.71
481.144	5227.61
481.348	4863.07
481.553	5088.35
481.757	4906.08
481.961	5063.77
482.166	5018.72
482.37	5002.33
482.574	4961.37
482.778	4867.17
482.983	4910.18
483.187	4944.99
483.391	4906.08
483.595	4897.89
483.8	4908.13
484.004	4863.07
484.208	5088.35
484.412	5000.29
484.616	5031.01
484.821	4846.69
485.025	4766.82
485.229	4916.32
485.433	4797.54
485.637	5045.34
485.841	4951.14
486.045	4936.8
486.249	4916.32
486.453	4967.52
486.657	5000.29
486.861	5090.4
487.065	4920.42
487.269	5012.57
487.473	4994.14
487.677	5059.68
487.881	5063.77
488.085	4949.09
488.289	5174.36
488.493	5031.01
488.697	4963.42
488.901	5098.59
489.105	5090.4
489.309	5057.63
489.512	5094.49
489.716	5348.44
489.92	4926.56
490.124	5198.94
490.328	5334.11
490.531	5186.65
490.735	5303.39
490.939	5397.59
491.143	5160.03
491.346	5383.26
491.55	5364.82
491.754	5549.14
491.958	5514.33
492.161	5416.02
492.365	5504.09
492.569	5547.09
492.772	5577.81
492.976	5577.81
493.18	5758.03
493.383	5848.15
493.587	5846.1
493.79	5895.25
493.994	5751.89
494.197	5803.09
494.401	5977.17
494.605	5801.04
494.808	5925.97
495.012	6104.14
495.215	6247.5
495.419	6243.4
495.622	6169.68
495.825	6218.83
496.029	6310.99
496.232	6429.77
496.436	6362.19
496.639	6683.72
496.843	6640.71
497.046	6790.21
497.249	6818.88
497.453	6890.56
497.656	6923.33
497.859	7072.83
498.063	7052.35
498.266	7255.1
498.469	7236.67
498.673	7396.41
498.876	7511.1
499.079	7664.69
499.282	7644.21
499.485	7795.76
499.689	7748.66
499.892	7980.08
500.095	7996.46
500.298	8297.52
500.501	8115.25
500.705	8586.28
500.908	8549.42
501.111	8782.88
501.314	8911.91
501.517	8924.19
501.72	8899.62
501.923	8873
502.126	9063.46
502.329	9317.4
502.532	9382.94
502.735	9546.78
502.938	9643.03
503.141	9778.2
503.344	9894.93
503.547	10077.2
503.75	10007.57
503.953	10286.09
504.156	10290.19
504.359	10564.62
504.562	10636.3
504.765	10918.92
504.968	10957.83
505.17	11289.6
505.373	11052.03
505.576	11551.74
505.779	11396.09
505.982	11738.1
506.185	11881.46
506.387	11951.09
506.59	12190.7
506.793	12389.36
506.996	12387.31
507.198	12823.53
507.401	12485.61
507.604	12755.94
507.807	13241.31
508.009	13253.6
508.212	13368.29
508.415	13573.08
508.617	13724.63
508.82	13831.13
509.022	13976.53
509.225	14322.64
509.428	14449.61
509.63	14582.73
509.833	14511.05
510.035	15045.57
510.238	15080.39
510.44	15129.54
510.643	15641.53
510.845	15537.09
511.048	15647.68
511.25	15885.24
511.453	16073.65
511.655	16677.8
511.858	16247.73
512.06	16638.89
512.262	17025.96
512.465	16812.97
512.667	17345.44
512.87	17396.64
513.072	17570.72
513.274	17669.02
513.477	18226.07
513.679	18240.4
513.881	18508.69
514.084	18774.92
514.286	18828.17
514.488	18647.95
514.69	19575.68
514.893	19420.03
515.095	19479.43
515.297	19966.84
515.499	19897.21
515.701	20325.24
515.904	20372.34
516.106	20720.49
516.308	20673.39
516.51	21287.78
516.712	21173.1
516.914	21642.08
517.116	21756.77
517.318	22023
517.52	22035.29
517.722	22125.4
517.925	22522.71
518.127	23137.1
518.329	22928.2
518.531	22766.42
518.733	23243.59
518.935	23728.96
519.136	23745.34
519.338	24109.88
519.54	24472.37
519.742	24228.66
519.944	24681.27
520.146	24847.15
520.348	25035.56
520.55	25473.83
520.752	25439.01
520.954	25803.55
521.155	25723.68
521.357	26092.32
521.559	26508.05
521.761	26450.71
521.963	26694.42
522.164	26610.45
522.366	27018
522.568	27267.85
522.77	27259.66
522.971	27876.1
523.173	27648.77
523.375	28039.93
523.576	28015.36
523.778	27810.56
523.98	28635.89
524.181	28560.12
524.383	28578.55
524.584	28938.99
524.786	29194.99
524.988	28912.37
525.189	29291.24
525.391	29514.47
525.592	29952.74
525.794	29981.41
525.995	29489.9
526.197	30317.28
526.398	29940.45
526.6	30368.48
526.801	30470.87
527.003	30573.27
527.204	30495.45
527.406	30479.07
527.607	30829.27
527.808	31005.39
528.01	30737.11
528.211	31259.34
528.412	31843.01
528.614	31603.4
528.815	31431.37
529.016	31750.85
529.218	31544.01
529.419	31804.1
529.62	31922.88
529.822	31832.77
530.023	31972.03
530.224	31763.14
530.425	32400.06
530.626	32049.86
530.828	32193.22
531.029	32953.01
531.23	32285.37
531.431	32146.11
531.632	32701.11
531.833	32887.48
532.035	32869.05
532.236	33217.2
532.437	32914.1
532.638	32479.93
532.839	32922.29
533.04	33041.07
533.241	32836.28
533.442	33329.84
533.643	33043.12
533.844	33043.12
534.045	33370.8
534.246	32940.72
534.447	33327.79
534.648	33184.43
534.849	33438.38
535.05	32963.25
535.251	33487.53
535.451	33319.6
535.652	33665.7
535.853	33295.02
536.054	33532.59
536.255	33602.22
536.456	33354.41
536.657	33831.59
536.857	33424.04
537.058	33180.34
537.259	33786.54
537.46	33819.3
537.66	33600.17
537.861	33778.34
538.062	34099.87
538.263	33989.28
538.463	33432.24
538.664	33919.65
538.865	33919.65
539.065	34136.74
539.266	33624.75
539.466	34065.06
539.667	33721
539.868	34476.7
540.068	33977
540.269	34071.2
540.469	34157.22
540.67	33819.3
540.87	33997.48
541.071	34284.19
541.271	33952.42
541.472	34075.3
541.672	34071.2
541.873	34335.39
542.073	33790.63
542.274	34380.45
542.474	34189.98
542.675	33872.55
542.875	34431.65
543.075	34087.59
543.276	33743.53
543.476	34624.15
543.676	34210.46
543.877	34278.05
544.077	34290.34
544.277	34384.54
544.478	34366.11
544.678	34525.85
544.878	34136.74
545.078	34271.9
545.279	34083.49
545.479	34366.11
545.679	34589.34
545.879	34480.8
546.079	34374.3
546.28	34093.73
546.48	33860.26
546.68	34456.22
546.88	34572.96
547.08	34316.96
547.28	34314.91
547.48	33985.19
547.68	34421.41
547.88	34661.02
548.081	34245.28
548.281	34472.6
548.481	34355.87
548.681	34632.35
548.881	34476.7
549.081	35087
549.28	34372.25
549.48	34327.2
549.68	34130.59
549.88	34642.59
550.08	34548.38
550.28	34468.51
550.48	34214.56
550.68	34597.53
550.88	34343.58
551.08	34339.49
551.279	34800.28
551.479	34036.39
551.679	34370.21
551.879	34540.19
552.079	34329.25
552.278	34511.52
552.478	34013.86
552.678	34460.32
552.878	34548.38
553.077	34101.92
553.277	34232.99
553.477	34699.93
553.676	34593.43
553.876	33966.76
554.076	34251.42
554.275	34081.44
554.475	33907.37
554.674	34261.66
554.874	34130.59
555.074	34052.77
555.273	34267.81
555.473	34589.34
555.672	34075.3
555.872	34390.69
556.071	34003.62
556.271	34529.95
556.47	34085.54
556.67	33823.4
556.869	34192.03
557.068	34204.32
557.268	34144.93
557.467	34163.36
557.667	34063.01
557.866	34001.57
558.065	34316.96
558.265	34161.31
558.464	33792.68
558.663	34237.09
558.863	33628.84
559.062	34181.79
559.261	33940.13
559.461	34167.46
559.66	33700.52
559.859	34013.86
560.058	33829.54
560.258	33831.59
560.457	33622.7
560.656	34054.82
560.855	34017.96
561.054	34026.15
561.253	33747.62
561.453	33829.54
561.652	33864.36
561.851	33886.89
562.05	33702.57
562.249	33424.04
562.448	33958.56
562.647	33696.42
562.846	33737.38
563.045	33770.15
563.244	33430.19
563.443	34359.97
563.642	33686.18
563.841	33497.77
564.04	33569.45
564.239	33602.22
564.438	33440.43
564.637	33389.23
564.836	33546.92
565.035	33307.31
565.234	33813.16
565.432	33555.11
565.631	33405.61
565.83	33610.41
566.029	33641.13
566.228	33714.86
566.427	33213.1
566.625	33286.83
566.824	33362.61
567.023	33278.64
567.222	33168.05
567.42	33553.07
567.619	33127.09
567.818	33120.95
568.016	33159.86
568.215	33725.1
568.414	33235.63
568.612	33536.68
568.811	33118.9
569.01	33102.51
569.208	32815.8
569.407	33471.15
569.605	32670.39
569.804	33286.83
570.002	32975.54
570.201	33034.93
570.4	32803.51
570.598	32651.96
570.797	32490.17
570.995	33077.94
571.193	32365.24
571.392	32889.52
571.59	32484.03
571.789	32584.38
571.987	32514.75
572.186	32864.95
572.384	32461.5
572.582	32563.9
572.781	32764.6
572.979	31939.27
573.177	32281.28
573.376	32268.99
573.574	31967.94
573.772	32201.41
573.971	32010.95
574.169	31935.17
574.367	31922.88
574.565	32199.36
574.763	32144.06
574.962	31800.01
575.16	31937.22
575.358	31902.4
575.556	31238.86
575.754	31875.78
575.952	31408.84
576.151	31531.72
576.349	31337.16
576.547	31357.64
576.745	31394.51
576.943	31619.78
577.141	31347.4
577.339	31560.39
577.537	30847.7
577.735	31488.71
577.933	30886.61
578.131	31523.53
578.329	30956.24
578.527	30851.8
578.725	30620.38
578.923	30923.47
579.121	30890.71
579.319	30698.2
579.516	30763.73
579.714	30659.29
579.912	30337.76
580.11	30538.46
580.308	30552.79
580.506	30225.12
580.704	29950.69
580.901	30427.87
581.099	30452.44
581.297	29934.31
581.495	29862.63
581.692	30024.42
581.89	29641.45
582.088	30100.19
582.285	29842.15
582.483	29926.11
582.681	29659.88
582.878	29442.79
583.076	29356.78
583.274	29657.83
583.471	29174.51
583.669	29518.57
583.866	28893.94
584.064	29602.53
584.262	28889.84
584.459	29315.82
584.657	28871.41
584.854	29741.8
585.052	28656.37
585.249	29055.73
585.447	29092.59
585.644	28637.94
585.841	28766.96
586.039	28922.61
586.236	28386.04
586.434	28252.92
586.631	28205.82
586.828	28416.76
587.026	28367.61
587.223	28302.07
587.42	28281.6
587.618	28144.38
587.815	27980.54
588.012	27724.55
588.21	28097.28
588.407	28179.2
588.604	27468.55
588.801	27435.78
588.999	27974.4
589.196	27435.78
589.393	27319.05
589.59	27529.99
589.787	27325.19
589.984	27046.67
590.182	26972.94
590.379	27423.5
590.576	26919.7
590.773	26819.35
590.97	26843.92
591.167	27061.01
591.364	26745.62
591.561	26669.84
591.758	26393.37
591.955	26450.71
592.152	26561.3
592.349	26229.53
592.546	26336.02
592.743	26372.89
592.94	26106.65
593.137	25951.01
593.334	26350.36
593.531	26012.45
593.727	26012.45
593.924	25869.09
594.121	25817.89
594.318	25967.39
594.515	25692.96
594.712	25617.19
594.908	25285.42
595.105	25871.14
595.302	25391.91
595.499	25264.94
595.696	25477.93
595.892	25232.17
596.089	25424.68
596.286	25232.17
596.482	25189.16
596.679	25041.71
596.876	25211.69
597.072	25060.14
597.269	24871.73
597.466	24619.83
597.662	24673.07
597.859	24761.14
598.055	24724.27
598.252	24494.9
598.448	24605.49
598.645	24236.86
598.841	24236.86
599.038	24165.18
599.234	24140.6
599.431	24132.41
599.627	23819.07
599.824	23839.55
600.02	23741.25
600.217	23800.64
600.413	23556.93
600.609	23753.54
600.806	23466.82
601.002	23653.19
601.198	23528.26
601.395	23087.95
601.591	23075.66
601.787	23147.34
601.984	23151.43
602.18	23235.4
602.376	23020.36
602.572	22776.66
602.769	22793.04
602.965	22821.71
603.161	22999.88
603.357	22793.04
603.553	22797.13
603.75	22608.72
603.946	22494.04
604.142	22526.8
604.338	22373.21
604.534	22395.73
604.73	22008.67
604.926	22199.13
605.122	22127.45
605.318	22160.22
605.514	21949.28
605.71	21932.89
605.906	21748.57
606.102	21896.03
606.298	21726.05
606.494	21805.92
606.69	21721.95
606.886	21633.89
607.082	21580.64
607.278	21613.41
607.474	21384.04
607.67	21343.08
607.866	21386.08
608.062	21353.32
608.257	21349.22
608.453	21394.28
608.649	21431.14
608.845	21105.51
609.041	20999.02
609.236	21209.96
609.432	20910.96
609.628	20839.28
609.824	21074.79
610.019	20898.67
610.215	20564.85
610.411	20659.06
610.606	20833.13
610.802	20859.76
610.998	20544.37
611.193	20495.22
611.389	20685.68
611.584	20515.7
611.78	20362.1
611.976	20611.95
612.171	20376.44
612.367	20460.4
612.562	19956.6
612.758	19827.58
612.953	20011.9
613.149	20237.17
613.344	19825.53
613.539	20185.97
613.735	20218.74
613.93	20294.52
614.126	19716.99
614.321	20091.77
614.517	20015.99
614.712	19999.61
614.907	19901.31
615.103	19948.41
615.298	19757.95
615.493	20095.86
615.688	19362.69
615.884	20044.66
616.079	19460.99
616.274	19776.38
616.47	19657.6
616.665	19661.69
616.86	19374.98
617.055	19430.27
617.25	19317.64
617.445	19493.76
617.641	19016.58
617.836	19379.07
618.031	19284.87
618.226	19211.14
618.421	18869.13
618.616	19266.44
618.811	18725.77
619.006	19338.12
619.201	18477.97
619.396	19016.58
619.591	18572.18
619.786	18623.37
619.981	18219.92
620.176	18817.93
620.371	18244.5
620.566	18342.8
620.761	18051.99
620.956	18240.4
621.151	17982.36
621.346	17943.45
621.541	17750.94
621.735	17865.63
621.93	17558.43
622.125	17599.39
622.32	17185.7
622.515	17632.16
622.709	17273.76
622.904	17185.7
623.099	17177.51
623.294	17193.89
623.488	16903.08
623.683	16978.86
623.878	16628.65
624.072	16896.94
624.267	16792.49
624.462	16583.6
624.656	16442.29
624.851	16630.7
625.046	15856.57
625.24	16186.29
625.435	16161.72
625.629	16249.78
625.824	15895.48
626.018	16006.07
626.213	15496.13
626.407	15567.81
626.602	15207.36
626.796	15590.33
626.991	15393.73
627.185	15578.04
627.38	15213.51
627.574	15346.62
627.768	14998.47
627.963	15023.05
628.157	14928.84
628.352	15107.01
628.546	14601.16
628.74	14955.46
628.935	14605.26
629.129	14541.77
629.323	14642.12
629.517	14287.82
629.712	14375.89
629.906	14453.71
630.1	14103.51
630.294	14115.8
630.489	14175.19
630.683	14054.36
630.877	13968.34
631.071	13949.91
631.265	13890.52
631.459	13673.43
631.653	13706.2
631.848	13437.92
632.042	13624.28
632.236	13444.06
632.43	13269.98
632.624	13450.21
632.818	13253.6
633.012	13061.09
633.206	13085.67
633.4	13347.81
633.594	12899.3
633.788	12911.59
633.982	13079.52
634.176	12878.82
634.369	12760.04
634.563	12833.77
634.757	12778.47
634.951	12682.22
635.145	12526.57
635.339	12471.28
635.533	12332.01
635.726	12284.91
635.92	12266.48
636.114	12252.14
636.308	12164.08
636.501	12104.69
636.695	12131.31
636.889	11971.57
637.083	11877.37
637.276	11834.36
637.47	11777.01
637.664	11908.08
637.857	11676.66
638.051	11729.91
638.244	11674.62
638.438	11379.71
638.632	11355.13
638.825	11275.26
639.019	11336.7
639.212	11166.72
639.406	11183.1
639.599	11283.45
639.793	11146.24
639.986	10966.02
640.18	10970.12
640.373	10826.76
640.567	10630.15
640.76	10941.44
640.954	10611.72
641.147	10609.67
641.34	10748.93
641.534	10544.14
641.727	10163.22
641.92	10505.23
642.114	10339.34
642.307	10316.81
642.5	10118.16
642.694	10005.52
642.887	9970.71
643.08	10048.53
643.273	9987.09
643.467	10054.67
643.66	9815.06
643.853	9706.52
644.046	9608.22
644.239	9632.79
644.432	9667.61
644.626	9712.66
644.819	9640.98
645.012	9618.46
645.205	9471
645.398	9436.19
645.591	9198.62
645.784	9202.72
645.977	9243.68
646.17	9264.16
646.363	9126.94
646.556	8930.34
646.749	8973.35
646.942	8985.63
647.135	8924.19
647.328	8975.39
647.521	8750.12
647.714	8764.45
647.907	8688.68
648.099	8610.86
648.292	8586.28
648.485	8584.23
648.678	8430.63
648.871	8459.31
649.064	8322.09
649.256	8387.63
649.449	8336.43
649.642	8176.69
649.835	8152.11
650.027	8375.34
650.22	8027.18
650.413	8291.37
650.605	8014.9
650.798	8076.34
650.991	7969.84
651.183	7795.76
651.376	7846.96
651.568	7900.21
651.761	7734.32
651.954	7853.11
652.146	7525.43
652.339	7695.41
652.531	7556.15
652.724	7412.79
652.916	7365.69
653.109	7504.95
653.301	7525.43
653.494	7226.43
653.686	7013.44
653.879	7496.76
654.071	7214.14
654.263	6997.06
654.456	7197.76
654.648	6982.72
654.84	6988.86
655.033	7076.93
655.225	6736.96
655.417	6771.78
655.61	7033.92
655.802	7130.17
655.994	6761.54
656.186	6710.34
656.379	6655.05
656.571	6571.08
656.763	6653
656.955	6587.46
657.148	6347.85
657.34	6407.24
657.532	6558.79
657.724	6419.53
657.916	6263.88
658.108	6245.45
658.3	6177.87
658.492	6188.11
658.684	6188.11
658.876	6370.38
659.068	6124.62
659.26	6120.53
659.452	6065.23
659.644	5966.93
659.836	5819.47
660.028	5952.59
660.22	5934.16
660.412	5706.84
660.604	5661.78
660.796	5676.12
660.988	5770.32
661.18	5743.7
661.372	5520.47
661.563	5551.19
661.755	5555.29
661.947	5719.12
662.139	5426.26
662.331	5424.22
662.522	5229.66
662.714	5313.63
662.906	5452.89
663.097	5311.58
663.289	5094.49
663.481	5299.29
663.673	5223.51
663.864	5213.28
664.056	5012.57
664.247	5031.01
664.439	4977.76
664.631	4955.23
664.822	4777.06
665.014	4994.14
665.205	4879.46
665.397	4836.45
665.588	4873.31
665.78	4875.36
665.971	4691.04
666.163	4729.95
666.354	4566.12
666.546	4609.12
666.737	4492.39
666.929	4435.05
667.12	4502.63
667.311	4711.52
667.503	4512.87
667.694	4504.68
667.885	4451.43
668.077	4418.66
668.268	4308.07
668.459	4342.89
668.651	4287.59
668.842	4310.12
669.033	4121.71
669.224	4217.96
669.416	4117.61
669.607	4224.11
669.798	4134
669.989	4007.02
670.18	4105.32
670.371	4017.26
670.563	4015.21
670.754	3976.3
670.945	3990.64
671.136	3914.86
671.327	3943.53
671.518	3978.35
671.709	3742.83
671.9	3882.1
672.091	3957.87
672.282	3705.97
672.473	3882.1
672.664	3701.87
672.855	3691.63
673.046	3697.78
673.237	3818.61
673.428	3654.77
673.619	3753.07
673.809	3564.66
674	3656.82
674.191	3472.5
674.382	3691.63
674.573	3566.71
674.764	3435.64
674.954	3478.65
675.145	3576.95
675.336	3443.83
675.527	3437.69
675.717	3599.48
675.908	3366.01
676.099	3441.78
676.289	3417.21
676.48	3355.77
676.671	3318.9
676.861	3325.05
677.052	3392.63
677.243	3347.58
677.433	3333.24
677.624	3232.89
677.814	3079.29
678.005	3245.18
678.195	3136.63
678.386	3267.7
678.576	3261.56
678.767	3136.63
678.957	3208.31
679.148	3173.5
679.338	3245.18
679.529	3056.76
679.719	3126.39
679.909	3228.79
680.1	3079.29
680.29	3054.72
680.481	3105.92
680.671	2991.23
680.861	2974.85
681.052	3056.76
681.242	3009.66
681.432	3075.2
681.622	2899.07
681.813	3034.24
682.003	3024
682.193	2929.79
682.383	2995.32
682.573	2966.65
682.764	2991.23
682.954	2909.31
683.144	2868.35
683.334	2987.13
683.524	2897.02
683.714	2894.97
683.904	2878.59
684.094	2872.45
684.284	2794.62
684.474	2806.91
684.664	3003.52
684.854	2935.93
685.044	2798.72
685.234	2866.3
685.424	2845.82
685.614	2794.62
685.804	2849.92
685.994	2868.35
686.184	2749.57
686.374	2802.82
686.564	2749.57
686.753	2794.62
686.943	2819.2
687.133	2704.51
687.323	2675.84
687.513	2765.95
687.702	2761.86
687.892	2802.82
688.082	2786.43
688.272	2878.59
688.461	2745.47
688.651	2741.38
688.841	2686.08
689.03	2641.03
689.22	2794.62
689.41	2749.57
689.599	2825.34
689.789	2667.65
689.979	2681.99
690.168	2772.1
690.358	2714.75
690.547	2800.77
690.737	2657.41
690.926	2729.09
691.116	2712.71
691.305	2792.58
691.495	2735.23
691.684	2692.23
691.874	2665.6
692.063	2757.76
692.252	2659.46
692.442	2661.51
692.631	2645.12
692.82	2712.71
693.01	2645.12
693.199	2614.4
693.388	2485.38
693.578	2575.49
693.767	2673.79
693.956	2604.16
694.146	2587.78
694.335	2727.04
694.524	2614.4
694.713	2655.36
694.902	2618.5
695.092	2712.71
695.281	2528.39
695.47	2587.78
695.659	2514.05
695.848	2419.85
696.037	2512
696.226	2575.49
696.415	2425.99
696.604	2462.85
696.793	2475.14
696.982	2518.15
697.171	2534.53
697.36	2555.01
697.549	2413.7
697.738	2469
697.927	2319.5
698.116	2561.16
698.305	2454.66
698.494	2483.33
698.683	2325.64
698.872	2399.37
699.061	2309.26
699.25	2397.32
699.438	2239.62
699.627	2282.63
699.816	2378.89
700.005	2368.65
700.193	2405.51
700.382	2307.21
700.571	2217.1
700.76	2360.45
700.948	2208.9
701.137	2313.35
701.326	2346.12
701.514	2161.8
701.703	2202.76
701.892	2049.16
702.08	2321.54
702.269	2194.57
702.457	2213
702.646	2126.99
702.834	2204.81
703.023	2243.72
703.212	2161.8
703.4	2184.33
703.589	2036.88
703.777	2198.67
703.965	2159.75
704.154	2098.31
704.342	2114.7
704.531	1997.96
704.719	2059.4
704.907	2008.2
705.096	2081.93
705.284	2002.06
705.472	2061.45
705.661	2063.5
705.849	2104.46
706.037	1993.87
706.226	1979.53
706.414	2055.31
706.602	1914
706.79	1938.57
706.979	1959.05
707.167	1944.72
707.355	1914
707.543	1914
707.731	1991.82
707.919	1903.76
708.107	1893.52
708.296	1934.48
708.484	1875.09
708.672	1891.47
708.86	1870.99
709.048	1889.42
709.236	1774.74
709.424	1860.75
709.612	1762.45
709.8	1680.53
709.988	1789.07
710.176	1870.99
710.364	1709.2
710.551	1827.98
710.739	1811.6
710.927	1676.43
711.115	1672.34
711.303	1594.51
711.491	1807.5
711.679	1614.99
711.866	1723.54
712.054	1604.75
712.242	1629.33
712.43	1684.62
712.617	1639.57
712.805	1633.43
712.993	1625.23
713.181	1633.43
713.368	1713.3
713.556	1744.02
713.744	1596.56
713.931	1621.14
714.119	1502.36
714.306	1610.9
714.494	1649.81
714.682	1614.99
714.869	1567.89
715.057	1533.08
715.244	1614.99
715.432	1608.85
715.619	1580.18
715.807	1506.45
715.994	1592.47
716.182	1508.5
716.369	1479.83
716.556	1580.18
716.744	1565.84
716.931	1377.43
717.119	1526.93
717.306	1502.36
717.493	1471.64
717.681	1428.63
717.868	1402.01
718.055	1463.44
718.242	1418.39
718.43	1416.34
718.617	1354.9
718.804	1332.37
718.991	1352.85
719.179	1328.28
719.366	1297.56
719.553	1272.98
719.74	1324.18
719.927	1315.99
720.114	1340.57
720.301	1340.57
720.488	1315.99
720.676	1295.51
720.863	1332.37
721.05	1338.52
721.237	1285.27
721.424	1404.05
721.611	1320.09
721.798	1301.65
721.985	1182.87
722.172	1213.59
722.358	1285.27
722.545	1272.98
722.732	1289.37
722.919	1225.88
723.106	1221.78
723.293	1189.02
723.48	1315.99
723.667	1172.63
723.853	1084.57
724.04	1244.31
724.227	1133.72
724.414	1178.78
724.6	1131.67
724.787	1131.67
724.974	1105.05
725.161	1238.17
725.347	1123.48
725.534	1086.62
725.72	1154.2
725.907	1088.67
726.094	1074.33
726.28	1051.8
726.467	1160.34
726.653	1158.3
726.84	1103
727.027	1029.27
727.213	1090.71
727.4	1043.61
727.586	1041.56
727.773	1025.18
727.959	1057.95
728.145	992.41
728.332	1002.65
728.518	943.26
728.705	994.46
728.891	1053.85
729.077	916.64
729.264	967.84
729.45	937.12
729.636	994.46
729.823	992.41
730.009	1008.8
730.195	976.03
730.382	939.16
730.568	1014.94
730.754	1006.75
730.94	963.74
731.126	937.12
731.313	924.83
731.499	945.31
731.685	904.35
731.871	849.05
732.057	928.92
732.243	996.51
732.429	961.69
732.615	998.56
732.801	877.73
732.987	830.62
733.173	904.35
733.359	861.34
733.545	771.23
733.731	869.53
733.917	904.35
734.103	797.85
734.289	902.3
734.475	855.2
734.661	875.68
734.847	849.05
735.033	869.53
735.219	818.33
735.404	824.48
735.59	814.24
735.776	707.74
735.962	781.47
736.148	906.4
736.333	830.62
736.519	799.9
736.705	769.18
736.89	826.53
737.076	779.42
737.262	779.42
737.447	746.66
737.633	804
737.819	771.23
738.004	773.28
738.19	763.04
738.375	775.33
738.561	789.66
738.747	705.7
738.932	738.46
739.118	763.04
739.303	642.21
739.489	722.08
739.674	689.31
739.859	748.7
740.045	734.37
740.23	681.12
740.416	693.41
740.601	738.46
740.786	685.22
740.972	728.22
741.157	699.55
741.342	717.98
741.528	613.54
741.713	631.97
741.898	685.22
742.084	619.68
742.269	681.12
742.454	707.74
742.639	570.53
742.824	650.4
743.01	754.85
743.195	758.94
743.38	683.17
743.565	609.44
743.75	701.6
743.935	658.59
744.12	631.97
744.305	705.7
744.49	570.53
744.675	640.16
744.86	601.25
745.045	679.07
745.23	629.92
745.415	599.2
745.6	644.26
745.785	603.3
745.97	586.91
746.155	601.25
746.34	636.06
746.525	582.82
746.71	515.23
746.895	541.86
747.079	588.96
747.264	591.01
747.449	603.3
747.634	574.63
747.819	543.91
748.003	558.24
748.188	566.43
748.373	588.96
748.557	533.67
748.742	554.15
748.927	541.86
749.111	541.86
749.296	494.76
749.481	517.28
749.665	496.8
749.85	496.8
750.034	525.47
750.219	595.11
750.404	558.24
750.588	482.47
750.773	591.01
750.957	533.67
751.141	511.14
751.326	509.09
751.51	504.99
751.695	519.33
751.879	511.14
752.064	593.06
752.248	543.91
752.432	513.19
752.617	435.36
752.801	513.19
752.985	439.46
753.17	507.04
753.354	484.52
753.538	498.85
753.722	509.09
753.907	548
754.091	461.99
754.275	447.65
754.459	498.85
754.643	486.56
754.828	461.99
755.012	414.88
755.196	453.8
755.38	447.65
755.564	443.56
755.748	439.46
755.932	429.22
756.116	478.37
756.3	435.36
756.484	474.28
756.668	369.83
756.852	384.16
757.036	371.88
757.22	443.56
757.404	357.54
757.588	400.55
757.772	371.88
757.956	367.78
758.14	349.35
758.323	355.49
758.507	382.12
758.691	332.97
758.875	355.49
759.059	378.02
759.242	382.12
759.426	349.35
759.61	382.12
759.794	435.36
759.977	337.06
760.161	425.12
760.345	425.12
760.528	369.83
760.712	359.59
760.895	318.63
761.079	439.46
761.263	443.56
761.446	396.45
761.63	378.02
761.813	392.36
761.997	402.6
762.18	283.81
762.364	355.49
762.547	382.12
762.731	335.01
762.914	322.73
763.098	330.92
763.281	388.26
763.464	375.97
763.648	341.16
763.831	388.26
764.015	306.34
764.198	390.31
764.381	324.77
764.564	423.08
764.748	287.91
764.931	320.68
765.114	345.25
765.297	357.54
765.481	281.77
765.664	341.16
765.847	378.02
766.03	349.35
766.213	343.21
766.397	289.96
766.58	343.21
766.763	425.12
766.946	351.4
767.129	306.34
767.312	337.06
767.495	357.54
767.678	287.91
767.861	371.88
768.044	425.12
768.227	269.48
768.41	320.68
768.593	328.87
768.776	322.73
768.959	355.49
769.142	269.48
769.324	314.53
769.507	304.29
769.69	279.72
769.873	332.97
770.056	406.69
770.239	300.2
770.421	337.06
770.604	298.15
770.787	279.72
770.97	320.68
771.152	294.05
771.335	318.63
771.518	240.81
771.7	296.1
771.883	304.29
772.066	261.29
772.248	255.14
772.431	394.4
772.613	304.29
772.796	271.53
772.978	320.68
773.161	332.97
773.343	330.92
773.526	259.24
773.708	214.18
773.891	220.33
774.073	271.53
774.256	269.48
774.438	269.48
774.621	224.42
774.803	271.53
774.985	158.89
775.168	287.91
775.35	275.62
775.532	308.39
775.715	226.47
775.897	263.33
776.079	335.01
776.261	287.91
776.444	322.73
776.626	271.53
776.808	244.9
776.99	257.19
777.173	285.86
777.355	208.04
777.537	214.18
777.719	308.39
777.901	115.88
778.083	285.86
778.265	165.03
778.447	267.43
778.629	230.57
778.811	214.18
778.993	195.75
779.175	261.29
779.357	251.05
779.539	283.81
779.721	173.22
779.903	234.66
780.085	261.29
780.267	300.2
780.449	253.09
780.631	187.56
780.812	210.09
780.994	222.38
781.176	199.85
781.358	261.29
781.54	187.56
781.721	212.14
781.903	197.8
782.085	173.22
782.267	232.62
782.448	193.7
782.63	236.71
782.812	234.66
782.993	236.71
783.175	175.27
783.357	275.62
783.538	224.42
783.72	234.66
783.901	189.61
784.083	187.56
784.264	214.18
784.446	203.94
784.627	228.52
784.809	300.2
784.99	171.18
785.172	158.89
785.353	222.38
785.535	167.08
785.716	240.81
785.897	224.42
786.079	203.94
786.26	154.79
786.441	177.32
786.623	175.27
786.804	142.5
786.985	187.56
787.167	273.57
787.348	185.51
787.529	150.7
787.71	224.42
787.891	150.7
788.073	203.94
788.254	150.7
788.435	181.42
788.616	165.03
788.797	101.55
788.978	259.24
789.159	124.07
789.34	230.57
789.522	205.99
789.703	191.66
789.884	212.14
790.065	173.22
790.246	203.94
790.427	150.7
790.607	210.09
790.788	201.9
790.969	171.18
791.15	167.08
791.331	132.26
791.512	199.85
791.693	136.36
791.874	175.27
792.054	99.5
792.235	205.99
792.416	156.84
792.597	105.64
792.778	199.85
792.958	148.65
793.139	185.51
793.32	113.83
793.5	177.32
793.681	187.56
793.862	158.89
794.042	54.44
794.223	87.21
794.404	134.31
794.584	91.31
794.765	95.4
794.945	175.27
795.126	136.36
795.306	122.02
795.487	126.12
795.667	122.02
795.848	167.08
796.028	140.46
796.209	193.7
796.389	210.09
796.57	81.07
796.75	220.33
796.93	169.13
797.111	68.78
797.291	134.31
797.471	128.17
797.652	103.59
797.832	95.4
798.012	99.5
798.192	36.01
798.373	85.16
798.553	95.4
798.733	132.26
798.913	-4.95
799.093	52.39
799.274	113.83
799.454	117.93
799.634	152.74
799.814	189.61
799.994	91.31
800.174	52.39
800.354	130.22
800.534	97.45
800.714	113.83
800.894	152.74
801.074	81.07
801.254	119.98
801.434	158.89
801.614	140.46
801.794	122.02
801.974	236.71
802.154	76.97
802.334	91.31
802.514	138.41
802.693	148.65
802.873	27.82
803.053	101.55
803.233	105.64
803.413	91.31
803.592	70.83
803.772	128.17
803.952	83.11
804.131	101.55
804.311	169.13
804.491	83.11
804.67	66.73
804.85	130.22
805.03	132.26
805.209	117.93
805.389	58.54
805.568	50.35
805.748	54.44
805.928	111.78
806.107	150.7
806.287	62.63
806.466	1.19
806.646	101.55
806.825	81.07
807.004	107.69
807.184	70.83
807.363	72.87
807.543	66.73
807.722	107.69
807.901	64.68
808.081	76.97
808.26	48.3
808.439	64.68
808.619	56.49
808.798	89.26
808.977	79.02
809.156	7.34
809.336	-0.85
809.515	72.87
809.694	60.59
809.873	42.15
810.052	70.83
810.231	52.39
810.411	93.35
810.59	25.77
810.769	-15.19
810.948	54.44
811.127	44.2
811.306	87.21
811.485	48.3
811.664	136.36
811.843	23.72
812.022	36.01
812.201	91.31
812.38	70.83
812.559	132.26
812.737	44.2
812.916	62.63
813.095	38.06
813.274	38.06
813.453	115.88
813.632	119.98
813.811	60.59
813.989	74.92
814.168	52.39
814.347	50.35
814.526	150.7
814.704	103.59
814.883	115.88
815.062	50.35
815.24	140.46
815.419	42.15
815.598	58.54
815.776	95.4
815.955	60.59
816.133	66.73
816.312	109.74
816.49	119.98
816.669	15.53
816.847	58.54
817.026	89.26
817.204	72.87
817.383	109.74
817.561	-56.15
817.74	70.83
817.918	119.98
818.097	19.63
818.275	46.25
818.453	40.11
818.632	103.59
818.81	81.07
818.988	46.25
819.167	25.77
819.345	54.44
819.523	9.39
819.701	91.31
819.879	132.26
820.058	27.82
820.236	115.88
820.414	72.87
820.592	50.35
820.77	64.68
820.948	66.73
821.127	99.5
821.305	89.26
821.483	36.01
821.661	76.97
821.839	7.34
822.017	-4.95
822.195	23.72
822.373	115.88
822.551	85.16
822.729	60.59
822.907	79.02
823.085	115.88
823.262	54.44
823.44	70.83
823.618	9.39
823.796	1.19
823.974	9.39
824.152	58.54
824.329	17.58
824.507	44.2
824.685	85.16
824.863	33.96
825.04	54.44
825.218	99.5
825.396	33.96
825.574	38.06
825.751	113.83
825.929	52.39
826.107	31.91
826.284	56.49
826.462	-27.48
826.639	27.82
826.817	-4.95
826.994	72.87
827.172	11.43
827.349	89.26
827.527	46.25
827.704	40.11
827.882	-33.62
828.059	52.39
828.237	99.5
828.414	115.88
828.591	83.11
828.769	-7
828.946	93.35
829.124	38.06
829.301	21.67
829.478	50.35
829.655	58.54
829.833	25.77
830.01	89.26
830.187	60.59
830.364	117.93
830.542	21.67
830.719	50.35
830.896	64.68
831.073	11.43
831.25	25.77
831.427	113.83
831.604	25.77
831.782	76.97
831.959	58.54
832.136	-41.81
832.313	7.34
832.49	-15.19
832.667	146.6
832.844	-23.38
833.021	99.5
833.198	21.67
833.374	42.15
833.551	128.17
833.728	81.07
833.905	3.24
834.082	27.82
834.259	33.96
834.436	27.82
834.612	58.54
834.789	72.87
834.966	40.11
835.143	29.87
835.319	15.53
835.496	42.15
835.673	-7
835.85	-13.14
836.026	58.54
836.203	11.43
836.38	-0.85
836.556	81.07
836.733	44.2
836.909	42.15
837.086	17.58
837.262	44.2
837.439	50.35
837.616	66.73
837.792	-27.48
837.968	11.43
838.145	33.96
838.321	29.87
838.498	33.96
838.674	48.3
838.851	21.67
839.027	15.53
839.203	81.07
839.38	27.82
839.556	-0.85
839.732	17.58
839.909	15.53
840.085	19.63
840.261	48.3
840.437	11.43
840.614	66.73
840.79	52.39
840.966	97.45
841.142	66.73
841.318	17.58
841.494	101.55
841.671	-19.29
841.847	3.24
842.023	15.53
842.199	85.16
842.375	76.97
842.551	21.67
842.727	42.15
842.903	3.24
843.079	68.78
843.255	87.21
843.431	9.39
843.607	33.96
843.783	31.91
843.959	9.39
844.134	19.63
844.31	17.58
844.486	62.63
844.662	33.96
844.838	33.96
845.013	-7
845.189	-27.48
845.365	56.49
845.541	56.49
845.716	99.5
845.892	27.82
846.068	66.73
846.244	50.35
846.419	13.48
846.595	89.26
846.77	36.01
846.946	-9.05
847.122	83.11
847.297	60.59
847.473	-15.19
847.648	17.58
847.824	62.63
847.999	7.34
848.175	46.25
848.35	3.24
848.526	1.19
848.701	25.77
848.876	-7
849.052	23.72
849.227	52.39
849.403	50.35
849.578	83.11
849.753	91.31
849.929	89.26
850.104	87.21
850.279	-13.14
850.454	40.11
850.63	-23.38
850.805	56.49
850.98	-45.91
851.155	3.24
851.33	60.59
851.505	36.01
851.681	89.26
851.856	29.87
852.031	33.96
852.206	-7
852.381	17.58
852.556	38.06
852.731	52.39
852.906	44.2
853.081	76.97
853.256	31.91
853.431	38.06
853.606	50.35
853.781	-23.38
853.956	13.48
854.131	58.54
854.305	-21.33
854.48	-52.05
854.655	33.96
854.83	40.11
855.005	-11.09
855.18	29.87
855.354	52.39
855.529	50.35
855.704	-15.19
855.879	11.43
856.053	-41.81
856.228	54.44
856.403	76.97
856.577	-23.38
856.752	33.96
856.926	11.43
857.101	-23.38
857.276	44.2
857.45	40.11
857.625	42.15
857.799	1.19
857.974	56.49
858.148	46.25
858.323	44.2
858.497	79.02
858.672	-7
858.846	83.11
859.02	27.82
859.195	25.77
859.369	19.63
859.543	60.59
859.718	40.11
859.892	72.87
860.066	-27.48
860.241	19.63
860.415	-27.48
860.589	-9.05
860.763	25.77
860.938	107.69
861.112	17.58
861.286	29.87
861.46	60.59
861.634	-2.9
861.808	25.77
861.982	-50
862.157	23.72
862.331	76.97
862.505	23.72
862.679	40.11
862.853	-41.81
863.027	23.72
863.201	72.87
863.375	21.67
863.549	56.49
863.722	40.11
863.896	50.35
864.07	-11.09
864.244	3.24
864.418	93.35
864.592	31.91
864.766	-43.86
864.939	40.11
865.113	9.39
865.287	46.25
865.461	-7
865.634	9.39
865.808	15.53
865.982	-11.09
866.156	-47.96
866.329	-37.72
866.503	5.29
866.676	74.92
866.85	-11.09
867.024	-7
867.197	52.39
867.371	11.43
867.544	42.15
867.718	83.11
867.891	40.11
868.065	-2.9
868.238	52.39
868.412	79.02
868.585	38.06
868.759	33.96
868.932	-21.33
869.105	17.58
869.279	-11.09
869.452	-4.95
869.625	33.96
869.799	29.87
869.972	-15.19
870.145	17.58
870.319	25.77
870.492	33.96
870.665	74.92
870.838	27.82
871.011	44.2
871.185	19.63
871.358	-19.29
871.531	58.54
871.704	-21.33
871.877	54.44
872.05	17.58
872.223	-21.33
872.396	-21.33
872.569	15.53
872.742	3.24
872.915	40.11
873.088	31.91
873.261	-25.43
873.434	1.19
873.607	-17.24
873.78	9.39
873.953	-0.85
874.126	42.15
874.299	23.72
874.471	-0.85
874.644	17.58
874.817	21.67
874.99	36.01
875.163	89.26
875.335	62.63
875.508	-2.9
875.681	62.63
875.853	7.34
876.026	74.92
876.199	-9.05
876.371	-4.95
876.544	7.34
876.717	-9.05
876.889	109.74
877.062	-7
877.234	48.3
877.407	40.11
877.579	-15.19
877.752	40.11
877.924	-13.14
878.097	68.78
878.269	-43.86
878.442	-4.95
878.614	-0.85
878.786	38.06
878.959	44.2
879.131	44.2
879.303	-23.38
879.476	33.96
879.648	54.44
879.82	38.06
879.993	48.3
880.165	76.97
880.337	9.39
880.509	48.3
880.681	19.63
880.854	-47.96
881.026	21.67
881.198	-31.57
881.37	36.01
881.542	89.26
881.714	-9.05
881.886	60.59
882.058	-11.09
882.23	44.2
882.402	42.15
882.574	81.07
882.746	17.58
882.918	19.63
883.09	64.68
883.262	13.48
883.434	-11.09
883.606	36.01
883.778	15.53
883.95	19.63
884.122	-47.96
884.293	-7
884.465	3.24
884.637	-43.86
884.809	-0.85
884.98	-37.72
885.152	74.92
885.324	-35.67
885.496	40.11
885.667	1.19
885.839	27.82
886.011	1.19
886.182	-19.29
886.354	27.82
886.525	64.68
886.697	93.35
886.869	17.58
887.04	21.67
887.212	9.39
887.383	70.83
887.555	17.58
887.726	-15.19
887.897	56.49
888.069	-23.38
888.24	-7
888.412	3.24
888.583	33.96
888.754	50.35
888.926	-2.9
889.097	-7
889.268	-7
889.44	50.35
889.611	-4.95
889.782	-9.05
889.953	25.77
890.125	15.53
890.296	-15.19
890.467	-15.19
890.638	44.2
890.809	31.91
890.98	-76.63
891.151	21.67
891.323	-19.29
891.494	56.49
891.665	42.15
891.836	-4.95
892.007	54.44
892.178	-43.86
892.349	46.25
892.52	11.43
892.691	76.97
892.862	-29.52
893.032	66.73
893.203	23.72
893.374	-9.05
893.545	58.54
893.716	1.19
893.887	-23.38
894.057	38.06
894.228	25.77
894.399	-17.24
894.57	-11.09
894.74	-33.62
894.911	50.35
895.082	-0.85
895.253	-37.72
895.423	68.78
895.594	13.48
895.764	74.92
895.935	50.35
896.106	48.3
896.276	21.67
896.447	-15.19
896.617	25.77
896.788	50.35
896.958	-60.24
897.129	64.68
897.299	19.63
897.47	5.29
897.64	66.73
897.81	25.77
897.981	-41.81
898.151	-60.24
898.322	50.35
898.492	21.67
898.662	29.87
898.832	31.91
899.003	-66.39
899.173	36.01
899.343	-41.81
899.513	3.24
