Data from USB4F104151__72__12-54-39-287.txt Node

Date: Fri Mar 14 12:54:39 EDT 2025
User: louis
Spectrometer: USB4F10415
Trigger mode: 4
Integration Time (sec): 1.000000E-2
Scans to average: 1
Electric dark correction enabled: true
Nonlinearity correction enabled: false
Boxcar width: 0
XAxis mode: Wavelengths
Number of Pixels in Spectrum: 3648
>>>>>Begin Spectral Data<<<<<
178.204	-59.56
178.424	-59.56
178.644	-59.56
178.864	-106.67
179.084	-8.36
179.304	46.93
179.524	22.36
179.744	-0.17
179.964	5.97
180.184	48.98
180.404	-26.79
180.624	-39.08
180.844	20.31
181.064	-61.61
181.283	32.6
181.503	-30.89
181.723	-18.6
181.943	8.02
182.163	36.69
182.383	-30.89
182.602	20.31
182.822	38.74
183.042	30.55
183.262	-20.65
183.482	-112.81
183.701	24.4
183.921	-4.27
184.141	-69.8
184.361	10.07
184.58	30.55
184.8	-37.03
185.02	-34.99
185.239	63.32
185.459	12.12
185.679	-12.46
185.898	24.4
186.118	-16.55
186.338	10.07
186.557	42.84
186.777	-39.08
186.997	36.69
187.216	-39.08
187.436	3.93
187.655	-6.31
187.875	-6.31
188.095	-12.46
188.314	55.12
188.534	20.31
188.753	20.31
188.973	24.4
189.192	5.97
189.412	-53.42
189.631	24.4
189.851	10.07
190.07	3.93
190.29	18.26
190.509	-20.65
190.729	-45.23
190.948	51.03
191.168	-20.65
191.387	-77.99
191.607	1.88
191.826	-20.65
192.045	18.26
192.265	34.64
192.484	3.93
192.704	-59.56
192.923	-2.22
193.142	-24.75
193.362	-41.13
193.581	40.79
193.8	28.5
194.02	-6.31
194.239	-28.84
194.458	32.6
194.678	63.32
194.897	-26.79
195.116	69.46
195.335	-0.17
195.555	61.27
195.774	-18.6
195.993	14.17
196.212	26.45
196.432	-37.03
196.651	51.03
196.87	-71.85
197.089	32.6
197.308	-20.65
197.528	24.4
197.747	-80.04
197.966	-4.27
198.185	38.74
198.404	65.36
198.623	-12.46
198.842	16.21
199.062	71.51
199.281	8.02
199.5	-49.32
199.719	20.31
199.938	32.6
200.157	57.17
200.376	51.03
200.595	-8.36
200.814	32.6
201.033	-16.55
201.252	3.93
201.471	114.52
201.69	42.84
201.909	20.31
202.128	-41.13
202.347	38.74
202.566	-6.31
202.785	48.98
203.004	10.07
203.223	-28.84
203.442	42.84
203.661	10.07
203.879	28.5
204.098	69.46
204.317	32.6
204.536	-26.79
204.755	-4.27
204.974	-32.94
205.193	-2.22
205.411	26.45
205.63	-34.99
205.849	28.5
206.068	-10.41
206.287	67.41
206.505	-16.55
206.724	51.03
206.943	10.07
207.162	44.88
207.381	57.17
207.599	22.36
207.818	46.93
208.037	16.21
208.255	-20.65
208.474	-86.19
208.693	-2.22
208.911	20.31
209.13	-16.55
209.349	57.17
209.567	-28.84
209.786	-59.56
210.005	5.97
210.223	3.93
210.442	14.17
210.661	-14.51
210.879	18.26
211.098	20.31
211.316	73.56
211.535	20.31
211.753	10.07
211.972	12.12
212.191	-4.27
212.409	42.84
212.628	-8.36
212.846	-0.17
213.065	-8.36
213.283	26.45
213.502	-26.79
213.72	28.5
213.938	16.21
214.157	-0.17
214.375	-4.27
214.594	36.69
214.812	-4.27
215.031	42.84
215.249	3.93
215.467	-20.65
215.686	-14.51
215.904	-24.75
216.122	24.4
216.341	34.64
216.559	53.08
216.778	48.98
216.996	-73.9
217.214	16.21
217.432	26.45
217.651	8.02
217.869	26.45
218.087	-14.51
218.306	32.6
218.524	16.21
218.742	1.88
218.96	8.02
219.179	12.12
219.397	22.36
219.615	71.51
219.833	18.26
220.051	-30.89
220.27	12.12
220.488	3.93
220.706	85.84
220.924	-32.94
221.142	-69.8
221.36	48.98
221.578	3.93
221.796	100.18
222.015	14.17
222.233	-41.13
222.451	-22.7
222.669	-22.7
222.887	10.07
223.105	46.93
223.323	34.64
223.541	24.4
223.759	89.94
223.977	-30.89
224.195	-6.31
224.413	-0.17
224.631	59.22
224.849	-0.17
225.067	-0.17
225.285	-69.8
225.503	-57.51
225.721	40.79
225.939	18.26
226.157	3.93
226.375	96.08
226.592	-6.31
226.81	120.66
227.028	36.69
227.246	65.36
227.464	59.22
227.682	8.02
227.9	40.79
228.117	-16.55
228.335	-65.71
228.553	48.98
228.771	16.21
228.989	55.12
229.206	26.45
229.424	-2.22
229.642	-2.22
229.86	-20.65
230.077	-2.22
230.295	10.07
230.513	46.93
230.731	-20.65
230.948	-8.36
231.166	34.64
231.384	-4.27
231.601	-43.18
231.819	110.42
232.037	-10.41
232.254	-2.22
232.472	32.6
232.689	-22.7
232.907	85.84
233.125	-32.94
233.342	-12.46
233.56	5.97
233.777	-55.47
233.995	-8.36
234.213	36.69
234.43	-22.7
234.648	-65.71
234.865	-2.22
235.083	10.07
235.3	-0.17
235.518	8.02
235.735	3.93
235.953	-32.94
236.17	-2.22
236.388	-22.7
236.605	-28.84
236.822	18.26
237.04	36.69
237.257	-59.56
237.475	-37.03
237.692	-61.61
237.909	22.36
238.127	36.69
238.344	-8.36
238.562	-22.7
238.779	-10.41
238.996	-0.17
239.214	-22.7
239.431	10.07
239.648	-28.84
239.865	32.6
240.083	-8.36
240.3	24.4
240.517	-30.89
240.735	-30.89
240.952	20.31
241.169	3.93
241.386	-20.65
241.603	14.17
241.821	24.4
242.038	1.88
242.255	-14.51
242.472	-4.27
242.689	71.51
242.907	-71.85
243.124	38.74
243.341	-12.46
243.558	-53.42
243.775	8.02
243.992	-43.18
244.209	-20.65
244.426	-14.51
244.643	-45.23
244.86	5.97
245.078	44.88
245.295	-45.23
245.512	-0.17
245.729	26.45
245.946	63.32
246.163	-22.7
246.38	83.8
246.597	-53.42
246.814	34.64
247.031	-2.22
247.248	28.5
247.464	26.45
247.681	1.88
247.898	-55.47
248.115	8.02
248.332	3.93
248.549	-34.99
248.766	14.17
248.983	3.93
249.2	69.46
249.417	67.41
249.633	20.31
249.85	61.27
250.067	20.31
250.284	38.74
250.501	-8.36
250.717	63.32
250.934	3.93
251.151	110.42
251.368	-39.08
251.585	-73.9
251.801	14.17
252.018	1.88
252.235	24.4
252.451	3.93
252.668	10.07
252.885	-37.03
253.102	34.64
253.318	30.55
253.535	18.26
253.752	85.84
253.968	-8.36
254.185	-14.51
254.401	22.36
254.618	57.17
254.835	46.93
255.051	73.56
255.268	-51.37
255.484	-39.08
255.701	42.84
255.917	-0.17
256.134	20.31
256.351	5.97
256.567	38.74
256.784	10.07
257	-67.75
257.217	46.93
257.433	20.31
257.65	48.98
257.866	-28.84
258.082	26.45
258.299	16.21
258.515	-16.55
258.732	-28.84
258.948	-43.18
259.165	5.97
259.381	28.5
259.597	-41.13
259.814	71.51
260.03	8.02
260.246	14.17
260.463	-88.23
260.679	-53.42
260.895	48.98
261.112	34.64
261.328	-57.51
261.544	16.21
261.761	-6.31
261.977	34.64
262.193	32.6
262.409	38.74
262.626	-20.65
262.842	91.99
263.058	-34.99
263.274	38.74
263.49	-6.31
263.707	-0.17
263.923	59.22
264.139	-37.03
264.355	-24.75
264.571	-0.17
264.787	24.4
265.004	8.02
265.22	-49.32
265.436	18.26
265.652	38.74
265.868	24.4
266.084	-39.08
266.3	110.42
266.516	-57.51
266.732	3.93
266.948	-20.65
267.164	3.93
267.38	-12.46
267.596	-22.7
267.812	-26.79
268.028	30.55
268.244	36.69
268.46	10.07
268.676	-0.17
268.892	112.47
269.108	-67.75
269.324	-0.17
269.54	-26.79
269.756	12.12
269.972	-4.27
270.188	22.36
270.403	32.6
270.619	-6.31
270.835	-24.75
271.051	-10.41
271.267	48.98
271.483	-14.51
271.698	48.98
271.914	22.36
272.13	36.69
272.346	12.12
272.562	-6.31
272.777	36.69
272.993	-14.51
273.209	28.5
273.425	-51.37
273.64	32.6
273.856	5.97
274.072	-16.55
274.287	18.26
274.503	22.36
274.719	55.12
274.934	-39.08
275.15	32.6
275.366	8.02
275.581	-55.47
275.797	-26.79
276.012	53.08
276.228	-45.23
276.444	71.51
276.659	75.6
276.875	1.88
277.09	28.5
277.306	24.4
277.521	8.02
277.737	32.6
277.952	69.46
278.168	-24.75
278.383	10.07
278.599	-4.27
278.814	32.6
279.03	-12.46
279.245	18.26
279.461	-26.79
279.676	59.22
279.892	22.36
280.107	-2.22
280.322	-16.55
280.538	-22.7
280.753	46.93
280.969	38.74
281.184	-28.84
281.399	16.21
281.615	-16.55
281.83	5.97
282.045	63.32
282.26	-32.94
282.476	-24.75
282.691	-4.27
282.906	-39.08
283.122	-22.7
283.337	42.84
283.552	16.21
283.767	32.6
283.983	53.08
284.198	46.93
284.413	57.17
284.628	-28.84
284.843	-12.46
285.058	48.98
285.274	40.79
285.489	-8.36
285.704	-28.84
285.919	22.36
286.134	26.45
286.349	-59.56
286.564	-6.31
286.779	3.93
286.995	38.74
287.21	18.26
287.425	-26.79
287.64	36.69
287.855	16.21
288.07	44.88
288.285	67.41
288.5	-18.6
288.715	63.32
288.93	-41.13
289.145	14.17
289.36	32.6
289.575	-20.65
289.79	14.17
290.004	-16.55
290.219	3.93
290.434	38.74
290.649	42.84
290.864	100.18
291.079	16.21
291.294	-14.51
291.509	5.97
291.724	20.31
291.938	75.6
292.153	-6.31
292.368	26.45
292.583	32.6
292.798	71.51
293.012	-12.46
293.227	-47.27
293.442	1.88
293.657	65.36
293.871	108.37
294.086	-2.22
294.301	3.93
294.516	-2.22
294.73	-49.32
294.945	16.21
295.16	57.17
295.374	-24.75
295.589	106.32
295.804	38.74
296.018	36.69
296.233	73.56
296.447	-37.03
296.662	-43.18
296.877	3.93
297.091	73.56
297.306	42.84
297.52	-47.27
297.735	65.36
297.949	26.45
298.164	10.07
298.378	98.13
298.593	-51.37
298.807	-2.22
299.022	-10.41
299.236	32.6
299.451	16.21
299.665	-26.79
299.88	32.6
300.094	51.03
300.309	-30.89
300.523	24.4
300.737	-18.6
300.952	40.79
301.166	48.98
301.381	-0.17
301.595	-0.17
301.809	16.21
302.024	-4.27
302.238	14.17
302.452	67.41
302.667	12.12
302.881	12.12
303.095	-8.36
303.309	5.97
303.524	-32.94
303.738	85.84
303.952	-61.61
304.166	-12.46
304.381	8.02
304.595	32.6
304.809	-0.17
305.023	34.64
305.237	-39.08
305.452	32.6
305.666	-16.55
305.88	34.64
306.094	-71.85
306.308	-6.31
306.522	1.88
306.736	-51.37
306.95	28.5
307.164	42.84
307.379	-16.55
307.593	10.07
307.807	81.75
308.021	16.21
308.235	-2.22
308.449	32.6
308.663	67.41
308.877	48.98
309.091	42.84
309.305	26.45
309.519	20.31
309.733	71.51
309.947	-41.13
310.161	3.93
310.374	-28.84
310.588	3.93
310.802	30.55
311.016	40.79
311.23	-6.31
311.444	-8.36
311.658	-16.55
311.872	30.55
312.085	-22.7
312.299	-37.03
312.513	30.55
312.727	-12.46
312.941	-34.99
313.154	24.4
313.368	85.84
313.582	20.31
313.796	-32.94
314.009	73.56
314.223	-47.27
314.437	3.93
314.651	-39.08
314.864	-61.61
315.078	14.17
315.292	34.64
315.505	-4.27
315.719	-2.22
315.933	14.17
316.146	-22.7
316.36	-8.36
316.573	59.22
316.787	10.07
317.001	1.88
317.214	1.88
317.428	36.69
317.641	5.97
317.855	51.03
318.068	12.12
318.282	-24.75
318.495	-0.17
318.709	3.93
318.922	-24.75
319.136	73.56
319.349	48.98
319.563	-73.9
319.776	44.88
319.99	-12.46
320.203	28.5
320.417	-26.79
320.63	-12.46
320.843	10.07
321.057	59.22
321.27	20.31
321.483	53.08
321.697	69.46
321.91	55.12
322.124	-14.51
322.337	-12.46
322.55	-16.55
322.763	-2.22
322.977	120.66
323.19	61.27
323.403	-69.8
323.617	32.6
323.83	20.31
324.043	16.21
324.256	-20.65
324.469	1.88
324.683	48.98
324.896	18.26
325.109	36.69
325.322	-47.27
325.535	-16.55
325.748	-32.94
325.962	16.21
326.175	8.02
326.388	1.88
326.601	-43.18
326.814	-39.08
327.027	-63.66
327.24	85.84
327.453	-55.47
327.666	-32.94
327.879	26.45
328.092	1.88
328.305	-59.56
328.518	59.22
328.731	10.07
328.944	24.4
329.157	-73.9
329.37	38.74
329.583	40.79
329.796	83.8
330.009	63.32
330.222	10.07
330.435	-59.56
330.648	1.88
330.861	-18.6
331.073	8.02
331.286	10.07
331.499	40.79
331.712	-37.03
331.925	48.98
332.138	-34.99
332.35	-6.31
332.563	24.4
332.776	48.98
332.989	-10.41
333.202	12.12
333.414	5.97
333.627	67.41
333.84	106.32
334.053	-30.89
334.265	30.55
334.478	26.45
334.691	40.79
334.903	24.4
335.116	-32.94
335.329	40.79
335.541	5.97
335.754	-0.17
335.966	-30.89
336.179	18.26
336.392	-34.99
336.604	59.22
336.817	24.4
337.029	-57.51
337.242	-90.28
337.454	40.79
337.667	3.93
337.88	73.56
338.092	22.36
338.305	14.17
338.517	75.6
338.729	28.5
338.942	28.5
339.154	5.97
339.367	10.07
339.579	61.27
339.792	14.17
340.004	48.98
340.217	22.36
340.429	32.6
340.641	-8.36
340.854	34.64
341.066	14.17
341.278	-12.46
341.491	114.52
341.703	-28.84
341.915	-14.51
342.128	-14.51
342.34	81.75
342.552	-41.13
342.764	-39.08
342.977	10.07
343.189	3.93
343.401	67.41
343.613	10.07
343.826	5.97
344.038	26.45
344.25	75.6
344.462	1.88
344.674	30.55
344.886	34.64
345.099	89.94
345.311	14.17
345.523	71.51
345.735	24.4
345.947	75.6
346.159	-24.75
346.371	1.88
346.583	65.36
346.795	53.08
347.007	65.36
347.219	36.69
347.431	-41.13
347.643	-2.22
347.855	-41.13
348.067	1.88
348.279	16.21
348.491	5.97
348.703	30.55
348.915	-34.99
349.127	79.7
349.339	-39.08
349.551	12.12
349.763	30.55
349.975	44.88
350.187	1.88
350.399	10.07
350.61	-37.03
350.822	14.17
351.034	77.65
351.246	24.4
351.458	-0.17
351.669	12.12
351.881	26.45
352.093	18.26
352.305	10.07
352.517	28.5
352.728	34.64
352.94	-22.7
353.152	-30.89
353.363	-63.66
353.575	-30.89
353.787	53.08
353.999	1.88
354.21	5.97
354.422	24.4
354.633	-18.6
354.845	-0.17
355.057	-16.55
355.268	16.21
355.48	28.5
355.692	40.79
355.903	-20.65
356.115	34.64
356.326	-24.75
356.538	87.89
356.749	-10.41
356.961	42.84
357.172	-18.6
357.384	-10.41
357.595	42.84
357.807	81.75
358.018	28.5
358.23	18.26
358.441	14.17
358.653	38.74
358.864	32.6
359.075	5.97
359.287	30.55
359.498	-30.89
359.709	30.55
359.921	12.12
360.132	53.08
360.344	5.97
360.555	46.93
360.766	51.03
360.977	3.93
361.189	18.26
361.4	22.36
361.611	67.41
361.823	-12.46
362.034	46.93
362.245	22.36
362.456	40.79
362.667	-39.08
362.879	-26.79
363.09	-20.65
363.301	34.64
363.512	22.36
363.723	5.97
363.935	-12.46
364.146	59.22
364.357	-14.51
364.568	-51.37
364.779	-24.75
364.99	18.26
365.201	8.02
365.412	57.17
365.623	40.79
365.834	5.97
366.045	89.94
366.256	8.02
366.467	20.31
366.678	24.4
366.889	28.5
367.1	1.88
367.311	14.17
367.522	8.02
367.733	40.79
367.944	-39.08
368.155	-39.08
368.366	46.93
368.577	14.17
368.788	-18.6
368.999	-63.66
369.209	42.84
369.42	16.21
369.631	94.04
369.842	10.07
370.053	1.88
370.264	32.6
370.474	44.88
370.685	32.6
370.896	1.88
371.107	69.46
371.317	-28.84
371.528	-53.42
371.739	1.88
371.95	-20.65
372.16	10.07
372.371	-8.36
372.582	63.32
372.792	-30.89
373.003	28.5
373.214	-22.7
373.424	12.12
373.635	18.26
373.846	87.89
374.056	75.6
374.267	-16.55
374.477	24.4
374.688	1.88
374.898	8.02
375.109	16.21
375.319	46.93
375.53	75.6
375.74	5.97
375.951	8.02
376.161	26.45
376.372	55.12
376.582	26.45
376.793	10.07
377.003	38.74
377.214	59.22
377.424	-28.84
377.635	57.17
377.845	48.98
378.055	5.97
378.266	-0.17
378.476	-41.13
378.686	63.32
378.897	10.07
379.107	61.27
379.317	40.79
379.528	32.6
379.738	42.84
379.948	-16.55
380.158	40.79
380.369	5.97
380.579	-28.84
380.789	48.98
380.999	40.79
381.21	-8.36
381.42	-10.41
381.63	-0.17
381.84	-43.18
382.05	36.69
382.261	18.26
382.471	69.46
382.681	-0.17
382.891	-47.27
383.101	8.02
383.311	5.97
383.521	-37.03
383.731	14.17
383.941	-32.94
384.151	-26.79
384.361	-18.6
384.571	18.26
384.781	36.69
384.991	40.79
385.201	38.74
385.411	-16.55
385.621	5.97
385.831	1.88
386.041	87.89
386.251	94.04
386.461	16.21
386.671	40.79
386.881	102.23
387.091	-0.17
387.301	-22.7
387.511	-10.41
387.72	59.22
387.93	65.36
388.14	-2.22
388.35	51.03
388.56	30.55
388.769	12.12
388.979	34.64
389.189	-10.41
389.399	28.5
389.609	16.21
389.818	-22.7
390.028	34.64
390.238	57.17
390.447	-12.46
390.657	34.64
390.867	24.4
391.076	55.12
391.286	8.02
391.496	34.64
391.705	-30.89
391.915	40.79
392.125	10.07
392.334	40.79
392.544	1.88
392.753	75.6
392.963	30.55
393.172	28.5
393.382	-20.65
393.591	71.51
393.801	34.64
394.01	46.93
394.22	65.36
394.429	53.08
394.639	61.27
394.848	81.75
395.058	53.08
395.267	16.21
395.477	22.36
395.686	42.84
395.895	-2.22
396.105	34.64
396.314	46.93
396.524	75.6
396.733	16.21
396.942	57.17
397.152	36.69
397.361	-6.31
397.57	26.45
397.78	63.32
397.989	53.08
398.198	5.97
398.407	12.12
398.617	40.79
398.826	34.64
399.035	42.84
399.244	-6.31
399.453	18.26
399.663	-24.75
399.872	48.98
400.081	-10.41
400.29	44.88
400.499	34.64
400.708	57.17
400.917	26.45
401.127	108.37
401.336	-53.42
401.545	40.79
401.754	46.93
401.963	20.31
402.172	53.08
402.381	-8.36
402.59	1.88
402.799	42.84
403.008	46.93
403.217	71.51
403.426	-16.55
403.635	81.75
403.844	98.13
404.053	51.03
404.262	137.04
404.471	53.08
404.68	53.08
404.888	-0.17
405.097	34.64
405.306	79.7
405.515	-37.03
405.724	73.56
405.933	36.69
406.142	73.56
406.35	3.93
406.559	91.99
406.768	77.65
406.977	91.99
407.185	22.36
407.394	124.76
407.603	116.56
407.812	79.7
408.02	120.66
408.229	81.75
408.438	69.46
408.646	63.32
408.855	145.24
409.064	122.71
409.272	87.89
409.481	137.04
409.69	126.8
409.898	108.37
410.107	128.85
410.315	165.71
410.524	114.52
410.733	81.75
410.941	163.67
411.15	112.47
411.358	173.91
411.567	200.53
411.775	196.43
411.984	143.19
412.192	282.45
412.401	153.43
412.609	196.43
412.818	241.49
413.026	229.2
413.234	249.68
413.443	169.81
413.651	243.54
413.86	218.96
414.068	272.21
414.276	261.97
414.485	184.15
414.693	325.46
414.901	268.11
415.11	343.89
415.318	270.16
415.526	284.5
415.734	382.8
415.943	341.84
416.151	413.52
416.359	319.31
416.567	352.08
416.776	409.42
416.984	491.34
417.192	444.24
417.4	397.14
417.608	501.58
417.817	505.68
418.025	325.46
418.233	522.06
418.441	466.77
418.649	581.45
418.857	550.73
419.065	517.97
419.273	530.25
419.481	683.85
419.689	646.99
419.897	657.23
420.105	698.19
420.313	724.81
420.521	712.52
420.729	784.2
420.937	784.2
421.145	827.21
421.353	821.06
421.561	970.57
421.769	909.13
421.977	868.17
422.185	888.65
422.393	993.09
422.601	1093.44
422.809	1052.49
423.017	1015.62
423.224	1099.59
423.432	1187.65
423.64	1189.7
423.848	1261.38
424.056	1122.12
424.263	1275.71
424.471	1283.91
424.679	1244.99
424.887	1306.43
425.094	1371.97
425.302	1500.99
425.51	1470.27
425.718	1527.61
425.925	1560.38
426.133	1724.22
426.341	1648.44
426.548	1720.12
426.756	1718.08
426.964	1828.67
427.171	1961.78
427.379	2008.89
427.586	2049.85
427.794	2162.48
428.001	2023.22
428.209	2268.98
428.417	2254.64
428.624	2305.84
428.832	2279.22
429.039	2305.84
429.247	2244.4
429.454	2473.78
429.662	2670.38
429.869	2553.65
430.076	2623.28
430.284	2737.96
430.491	2723.63
430.699	2975.53
430.906	3022.63
431.114	2858.79
431.321	3041.06
431.528	3170.08
431.736	3370.79
431.943	3464.99
432.15	3323.68
432.358	3374.88
432.565	3686.17
432.772	3561.25
432.979	3948.31
433.187	3972.89
433.394	3909.4
433.601	4089.62
433.808	4228.88
434.016	4001.56
434.223	4230.93
434.43	4499.22
434.637	4572.94
434.844	4665.1
435.052	4988.68
435.259	4759.31
435.466	4939.53
435.673	4843.28
435.88	5144.33
436.087	5408.51
436.294	5420.8
436.501	5478.15
436.708	5347.08
436.915	5576.45
437.122	5771.01
437.329	5658.37
437.537	6104.82
437.743	6170.36
437.95	5951.23
438.157	6409.97
438.364	6565.62
438.571	6612.72
438.778	6725.36
438.985	7229.16
439.192	7124.71
439.399	7036.65
439.606	6919.92
439.813	7438.05
440.02	7941.85
440.227	7823.07
440.433	7636.7
440.64	8150.74
440.847	7841.5
441.054	8132.31
441.261	8531.67
441.467	8625.87
441.674	8713.94
441.881	8937.16
442.088	9064.14
442.294	9090.76
442.501	9160.39
442.708	9504.45
442.914	9649.86
443.121	10106.56
443.328	9768.64
443.534	10510
443.741	10413.75
443.948	10370.74
444.154	10921.65
444.361	11032.24
444.568	10874.54
444.774	10970.8
444.981	11038.38
445.187	11468.45
445.394	11673.25
445.6	11724.45
445.807	12918.42
446.013	12433.05
446.22	12578.45
446.426	13168.27
446.633	13172.36
446.839	13645.45
447.046	13074.06
447.252	13993.6
447.459	13840
447.665	13813.38
447.871	14667.38
448.078	15144.56
448.284	14210.68
448.491	14810.74
448.697	15236.72
448.903	15578.73
449.11	16014.94
449.316	15394.41
449.522	15883.87
449.728	16277.08
449.935	16293.47
450.141	16287.32
450.347	16447.07
450.553	16006.75
450.76	16264.8
450.966	16645.72
451.172	16660.06
451.378	17120.85
451.584	16770.65
451.791	17196.62
451.997	17172.05
452.203	17276.49
452.409	17276.49
452.615	17270.35
452.821	16866.9
453.027	16762.45
453.233	17628.74
453.44	16766.55
453.646	16922.2
453.852	17174.1
454.058	17305.17
454.264	16631.38
454.47	17290.83
454.676	16475.74
454.882	17239.63
455.088	15984.23
455.294	16019.04
455.5	16109.15
455.705	16012.9
455.911	15722.09
456.117	15384.17
456.323	15650.41
456.529	14511.74
456.735	15001.2
456.941	14702.2
457.147	14294.65
457.352	13930.11
457.558	13649.54
457.764	13723.27
457.97	13555.33
458.176	13227.66
458.381	13067.92
458.587	12621.46
458.793	12682.9
458.999	11775.65
459.204	12840.59
459.41	12523.16
459.616	11525.8
459.821	11759.27
460.027	11722.4
460.233	11433.64
460.438	10938.03
460.644	11040.43
460.85	10604.21
461.055	10227.39
461.261	10387.13
461.466	9418.44
461.672	9156.3
461.878	9868.99
462.083	9217.74
462.289	9074.38
462.494	8963.79
462.7	8392.41
462.905	8357.59
463.111	8496.85
463.316	8572.63
463.522	8629.97
463.727	8505.04
463.932	8294.1
464.138	8492.76
464.343	8578.77
464.549	8189.66
464.754	8419.03
464.959	8314.58
465.165	8249.05
465.37	7798.49
465.575	7861.98
465.781	8103.64
465.986	8001.24
466.191	7888.6
466.397	7587.55
466.602	7309.03
466.807	7603.94
467.012	7612.13
467.218	7528.16
467.423	7528.16
467.628	7409.38
467.833	7913.18
468.038	7530.21
468.244	7431.91
468.449	7675.62
468.654	7139.05
468.859	7317.22
469.064	7388.9
469.269	7122.66
469.474	7014.12
469.679	7153.38
469.885	6870.76
470.09	7053.03
470.295	6983.4
470.5	6852.33
470.705	6633.2
470.91	6678.26
471.115	6498.03
471.32	6854.38
471.525	6676.21
471.73	6655.73
471.935	6477.55
472.139	6395.64
472.344	6428.4
472.549	6346.48
472.754	6180.6
472.959	6039.29
473.164	6033.15
473.369	6065.91
473.574	6022.91
473.778	6094.58
473.983	6086.39
474.188	6039.29
474.393	5811.96
474.598	5820.16
474.802	5846.78
475.007	5668.61
475.212	5631.74
475.417	5472
475.621	5318.4
475.826	5459.71
476.031	5320.45
476.235	5293.83
476.44	5336.84
476.645	5326.6
476.849	5263.11
477.054	5191.43
477.259	5234.44
477.463	5089.03
477.668	4945.67
477.872	5138.18
478.077	4980.49
478.282	5039.88
478.486	4773.64
478.691	4749.07
478.895	4890.38
479.1	4626.19
479.304	4779.79
479.509	4693.77
479.713	4785.93
479.918	4724.49
480.122	4443.92
480.326	4618
480.531	4673.29
480.735	4626.19
480.94	4574.99
481.144	4534.03
481.348	4513.55
481.553	4634.38
481.757	4478.74
481.961	4429.59
482.166	4392.72
482.37	4622.09
482.574	4390.67
482.778	4474.64
482.983	4605.71
483.187	4433.68
483.391	4495.12
483.595	4482.83
483.8	4417.3
484.004	4312.85
484.208	4415.25
484.412	4423.44
484.616	4685.58
484.821	4480.78
485.025	4394.77
485.229	4484.88
485.433	4247.32
485.637	4409.11
485.841	4407.06
486.045	4460.31
486.249	4435.73
486.453	4339.48
486.657	4421.39
486.861	4335.38
487.065	4370.19
487.269	4362
487.473	4499.22
487.677	4468.5
487.881	4450.07
488.085	4423.44
488.289	4445.97
488.493	4431.63
488.697	4417.3
488.901	4382.48
489.105	4386.58
489.309	4523.79
489.512	4413.2
489.716	4507.41
489.92	4501.26
490.124	4595.47
490.328	4624.14
490.531	4515.6
490.735	4609.81
490.939	4554.51
491.143	4493.07
491.346	4445.97
491.55	4675.34
491.754	4642.57
491.958	4613.9
492.161	4554.51
492.365	4773.64
492.569	4804.36
492.772	4744.97
492.976	4601.62
493.18	4753.16
493.383	4820.75
493.587	5017.35
493.79	4894.47
493.994	4857.61
494.197	5037.83
494.401	5031.69
494.605	4859.66
494.808	4996.87
495.012	4988.68
495.215	5089.03
495.419	5041.93
495.622	5142.28
495.825	5097.22
496.029	5148.42
496.232	5242.63
496.436	5093.13
496.639	5367.56
496.843	5400.32
497.046	5394.18
497.249	5560.06
497.453	5621.5
497.656	5613.31
497.859	5758.72
498.063	5644.03
498.266	5877.5
498.469	5940.99
498.673	5830.4
498.876	6020.86
499.079	6041.34
499.282	5977.85
499.485	6168.31
499.689	6139.64
499.892	6235.89
500.095	6293.24
500.298	6412.02
500.501	6536.95
500.705	6665.97
500.908	6803.18
501.111	6776.56
501.314	6866.67
501.517	6719.21
501.72	7050.99
501.923	6956.78
502.126	7124.71
502.329	7223.02
502.532	7339.75
502.735	7333.61
502.938	7481.06
503.141	7519.97
503.344	7780.06
503.547	7679.71
503.75	7651.04
503.953	7569.12
504.156	7859.93
504.359	7948
504.562	8077.02
504.765	8111.83
504.968	8353.49
505.17	8275.67
505.373	8304.34
505.576	8537.81
505.779	8654.55
505.982	8668.88
506.185	8947.4
506.387	8816.33
506.59	8802
506.793	9168.59
506.996	9127.63
507.198	9363.14
507.401	9555.65
507.604	9713.35
507.807	9703.11
508.009	9760.45
508.212	9825.98
508.415	9756.35
508.617	9846.46
508.82	10106.56
509.022	9977.53
509.225	10290.87
509.428	10360.5
509.63	10256.06
509.833	10356.41
510.035	10749.62
510.238	10647.22
510.44	10886.83
510.643	10993.33
510.845	11062.96
511.048	11189.93
511.25	11374.25
511.453	11396.78
511.655	11552.42
511.858	11468.45
512.06	11626.15
512.262	11884.19
512.465	11849.38
512.667	12168.86
512.87	12125.85
513.072	12215.96
513.274	12342.94
513.477	12609.17
513.679	12308.12
513.881	12869.26
514.084	12809.87
514.286	12848.79
514.488	13250.19
514.69	13274.76
514.893	13266.57
515.095	13295.24
515.297	13753.99
515.499	13579.91
515.701	13819.52
515.904	13860.48
516.106	13938.3
516.308	14196.35
516.51	14171.77
516.712	14302.84
516.914	14331.51
517.116	14634.61
517.318	14620.28
517.52	14835.31
517.722	14859.89
517.925	15238.76
518.127	15175.28
518.329	15287.92
518.531	15367.79
518.733	15599.21
518.935	15849.06
519.136	15500.9
519.338	15892.07
519.54	16014.94
519.742	16049.76
519.944	16289.37
520.146	16457.31
520.348	16535.13
520.55	16813.65
520.752	16477.79
520.954	17120.85
521.155	16840.28
521.357	17221.2
521.559	17354.32
521.761	17522.25
521.963	17276.49
522.164	17350.22
522.366	17714.76
522.568	17854.02
522.77	17698.38
522.971	18028.1
523.173	17946.18
523.375	18228.8
523.576	18091.59
523.778	18159.17
523.98	18325.05
524.181	18777.65
524.383	18562.62
524.584	18931.25
524.786	18843.19
524.988	18521.66
525.189	18904.63
525.391	19017.27
525.592	19148.34
525.794	19050.03
525.995	19533.36
526.197	19308.08
526.398	19275.31
526.6	19537.45
526.801	19648.04
527.003	19557.93
527.204	19527.21
527.406	19566.12
527.607	19856.93
527.808	19869.22
528.01	19785.26
528.211	19951.14
528.412	20274.72
528.614	20096.55
528.815	20489.76
529.016	20270.62
529.218	19881.51
529.419	20203.04
529.62	20168.23
529.822	20313.63
530.023	20555.29
530.224	20325.92
530.425	20162.08
530.626	20178.47
530.828	20287.01
531.029	20706.84
531.23	20684.31
531.431	20522.52
531.632	20475.42
531.833	20868.63
532.035	20454.94
532.236	20588.06
532.437	20676.12
532.638	20520.48
532.839	20872.73
533.04	20860.44
533.241	20463.13
533.442	20737.56
533.643	20579.87
533.844	20790.81
534.045	21079.57
534.246	20811.29
534.447	20782.62
534.648	20747.8
534.849	20860.44
535.05	20553.24
535.251	20614.68
535.451	20801.05
535.652	20698.65
535.853	20794.9
536.054	20749.85
536.255	21020.18
536.456	20782.62
536.657	21122.58
536.857	20733.46
537.058	20760.09
537.259	20799
537.46	20612.63
537.66	20954.65
537.861	20733.46
538.062	20704.79
538.263	20921.88
538.463	20676.12
538.664	20510.24
538.865	20842.01
539.065	20723.23
539.266	20624.92
539.466	20698.65
539.667	20663.83
539.868	21132.82
540.068	20676.12
540.269	20637.21
540.469	20882.97
540.67	20475.42
540.87	20610.59
541.071	20479.52
541.271	20592.16
541.472	20678.17
541.672	20295.2
541.873	20450.85
542.073	20391.45
542.274	20590.11
542.474	20569.63
542.675	20463.13
542.875	20504.09
543.075	20590.11
543.276	20448.8
543.476	20842.01
543.676	20581.92
543.877	20723.23
544.077	20866.58
544.277	20493.85
544.478	20612.63
544.678	20717.08
544.878	20680.22
545.078	20528.67
545.279	20246.05
545.479	20465.18
545.679	20676.12
545.879	20477.47
546.079	20383.26
546.28	20758.04
546.48	20340.25
546.68	20592.16
546.88	20700.7
547.08	20403.74
547.28	20604.44
547.48	20383.26
547.68	20524.57
547.88	20327.97
548.081	20653.59
548.281	20663.83
548.481	20753.94
548.681	20424.22
548.881	20137.51
549.081	20497.95
549.28	20311.58
549.48	20604.44
549.68	20213.28
549.88	20557.34
550.08	20188.71
550.28	20311.58
550.48	20276.77
550.68	20567.58
550.88	20506.14
551.08	20405.79
551.279	20295.2
551.479	20190.75
551.679	20643.35
551.879	20211.23
552.079	20450.85
552.278	20303.39
552.478	20289.06
552.678	20471.32
552.878	20237.86
553.077	20168.23
553.277	20106.79
553.477	20250.14
553.676	20069.92
553.876	20166.18
554.076	20297.25
554.275	20393.5
554.475	19953.19
554.674	19990.05
554.874	19961.38
555.074	20020.77
555.273	20188.71
555.473	19967.52
555.672	20125.22
555.872	19975.72
556.071	20012.58
556.271	19953.19
556.47	19858.98
556.67	19820.07
556.869	19768.87
557.068	19971.62
557.268	19717.67
557.467	20061.73
557.667	19998.24
557.866	20166.18
558.065	19975.72
558.265	19885.61
558.464	19609.13
558.663	19877.41
558.863	19605.03
559.062	19977.76
559.261	19674.67
559.461	19932.71
559.66	19547.69
559.859	19664.43
560.058	19496.49
560.258	19938.85
560.457	19420.72
560.656	19815.97
560.855	19693.1
561.054	19600.94
561.253	19508.78
561.453	19478.06
561.652	19676.71
561.851	19570.22
562.05	19394.09
562.249	19263.02
562.448	19584.55
562.647	19750.44
562.846	19492.4
563.045	19437.1
563.244	19287.6
563.443	19400.24
563.642	19281.46
563.841	19451.44
564.04	19064.37
564.239	19428.91
564.438	18921.01
564.637	19117.62
564.836	19166.77
565.035	18878.01
565.234	19195.44
565.432	18904.63
565.631	18853.43
565.83	19365.42
566.029	18845.24
566.228	18851.38
566.427	18810.42
566.625	18771.51
566.824	18814.52
567.023	18720.31
567.222	18449.98
567.42	18873.91
567.619	18816.57
567.818	18521.66
568.016	19019.32
568.215	18683.45
568.414	18550.33
568.612	18755.13
568.811	18624.06
569.01	18464.32
569.208	18286.14
569.407	18540.09
569.605	18374.2
569.804	18394.68
570.002	18515.51
570.201	18269.76
570.4	18107.97
570.598	18363.97
570.797	17784.39
570.995	18040.39
571.193	18118.21
571.392	18376.25
571.59	18091.59
571.789	18046.53
571.987	17645.13
572.186	18071.11
572.384	17944.13
572.582	18105.92
572.781	17706.57
572.979	17888.84
573.177	17980.99
573.376	17679.94
573.574	17608.26
573.772	17772.1
573.971	17628.74
574.169	17501.77
574.367	17456.71
574.565	17733.19
574.763	17612.36
574.962	17473.1
575.16	17323.6
575.358	17339.98
575.556	17339.98
575.754	17385.04
575.952	17303.12
576.151	17323.6
576.349	17243.73
576.547	16936.53
576.745	17147.47
576.943	16983.63
577.141	17215.05
577.339	17225.29
577.537	16819.8
577.735	17012.31
577.933	16801.36
578.131	16907.86
578.329	16776.79
578.527	16866.9
578.725	16916.05
578.923	16856.66
579.121	16885.33
579.319	16758.36
579.516	16793.17
579.714	16428.63
579.912	16512.6
580.11	16434.78
580.308	16330.33
580.506	16475.74
580.704	16057.95
580.901	16393.82
581.099	16367.2
581.297	16275.04
581.495	15920.74
581.692	16219.74
581.89	15988.32
582.088	16166.49
582.285	15857.25
582.483	16240.22
582.681	15918.69
582.878	16094.82
583.076	15756.9
583.274	16174.69
583.471	15629.93
583.669	16109.15
583.866	15646.31
584.064	15869.54
584.262	15756.9
584.459	15648.36
584.657	15584.87
584.854	16010.85
585.052	15566.44
585.249	15726.18
585.447	15394.41
585.644	15367.79
585.841	15459.95
586.039	15507.05
586.236	15326.83
586.434	15261.29
586.631	15167.09
586.828	15341.16
587.026	15130.22
587.223	15134.32
587.42	15079.02
587.618	15107.69
587.815	14935.67
588.012	14884.47
588.21	15058.54
588.407	15081.07
588.604	14919.28
588.801	14524.02
588.999	14900.85
589.196	14761.59
589.393	14765.68
589.59	14665.33
589.787	14560.89
589.984	14485.11
590.182	14573.17
590.379	14497.4
590.576	14321.27
590.773	14272.12
590.97	14247.55
591.167	14390.91
591.364	14139.01
591.561	14395
591.758	14126.72
591.955	14061.18
592.152	14182.01
592.349	14089.85
592.546	14198.4
592.743	14175.87
592.94	13930.11
593.137	14104.19
593.334	13901.44
593.531	13708.93
593.727	13731.46
593.924	13872.77
594.121	13565.57
594.318	13741.7
594.515	13469.32
594.712	13817.47
594.908	13567.62
595.105	13555.33
595.302	13514.38
595.499	13420.17
595.696	13495.94
595.892	13438.6
596.089	13584.01
596.286	13252.24
596.482	13432.46
596.679	13182.6
596.876	13371.02
597.072	13409.93
597.269	13252.24
597.466	12986
597.662	13219.47
597.859	13190.8
598.055	13047.44
598.252	13024.91
598.448	12891.79
598.645	12928.66
598.841	12730
599.038	12871.31
599.234	12723.86
599.431	12691.09
599.627	12813.97
599.824	12736.15
600.02	12689.04
600.217	12668.56
600.413	12408.47
600.609	12639.89
600.806	12326.55
601.002	12459.67
601.198	12101.28
601.395	12381.85
601.591	12420.76
601.787	12404.38
601.984	12287.64
602.18	12392.09
602.376	12218.01
602.572	12213.91
602.769	12164.76
602.965	12033.69
603.161	11968.16
603.357	11927.2
603.553	11812.51
603.75	11902.62
603.946	12101.28
604.142	11976.35
604.338	11894.43
604.534	11888.29
604.73	11853.47
604.926	11732.64
605.122	11624.1
605.318	11611.81
605.514	11681.44
605.71	11474.6
605.906	11611.81
606.102	11605.67
606.298	11658.92
606.494	11538.09
606.69	11687.59
606.886	11585.19
607.082	11605.67
607.278	11603.62
607.474	11173.55
607.67	11427.49
607.866	11187.88
608.062	11306.66
608.257	11226.79
608.453	11222.7
608.649	11296.42
608.845	11222.7
609.041	11101.87
609.236	11273.9
609.432	11151.02
609.628	11030.19
609.824	10960.56
610.019	10929.84
610.215	10991.28
610.411	11032.24
610.606	10987.18
610.802	11036.33
610.998	10970.8
611.193	10919.6
611.389	10815.15
611.584	10587.83
611.78	10749.62
611.976	11071.15
612.171	10823.34
612.367	10802.86
612.562	10735.28
612.758	10493.62
612.953	10663.6
613.149	10847.92
613.344	10593.97
613.539	10985.13
613.735	10770.1
613.93	10731.19
614.126	10514.1
614.321	10741.43
614.517	10643.12
614.712	10608.31
614.907	10340.02
615.103	10540.72
615.298	10475.19
615.493	10669.75
615.688	10360.5
615.884	10493.62
616.079	10178.23
616.274	10432.18
616.47	10417.85
616.665	10268.34
616.86	10354.36
617.055	10262.2
617.25	10229.43
617.445	10399.41
617.641	10129.08
617.836	10036.92
618.031	10047.16
618.226	10342.07
618.421	10104.51
618.616	10161.85
618.811	10176.19
619.006	10235.58
619.201	9868.99
619.396	9842.37
619.591	9893.57
619.786	10000.06
619.981	10159.8
620.176	9842.37
620.371	9649.86
620.566	9684.67
620.761	9832.13
620.956	9797.31
621.151	9455.3
621.346	9336.52
621.541	9322.18
621.735	9391.81
621.93	9326.28
622.125	9475.78
622.32	9139.91
622.515	9316.04
622.709	9176.78
622.904	9115.34
623.099	9096.91
623.294	9127.63
623.488	8994.51
623.683	8974.03
623.878	9047.76
624.072	8857.29
624.267	8971.98
624.462	8849.1
624.656	8947.4
624.851	8652.5
625.046	8607.44
625.24	8568.53
625.435	8548.05
625.629	8537.81
625.824	8482.52
626.018	8435.41
626.213	8167.13
626.407	8353.49
626.602	8242.9
626.796	8519.38
626.991	8261.34
627.185	8365.78
627.38	8142.55
627.574	8054.49
627.768	7974.62
627.963	7861.98
628.157	7976.67
628.352	8070.87
628.546	7792.35
628.74	7890.65
628.935	7749.34
629.129	7755.49
629.323	7644.9
629.517	7726.82
629.712	7634.66
629.906	7599.84
630.1	7395.04
630.294	7503.59
630.489	7415.52
630.683	7560.93
630.877	7364.32
631.071	7292.65
631.265	7352.04
631.459	7315.17
631.653	7282.41
631.848	7237.35
632.042	7196.39
632.236	7155.43
632.43	7329.51
632.624	6999.79
632.818	6940.4
633.012	6921.96
633.206	6979.31
633.4	6825.71
633.594	6860.52
633.788	6891.24
633.982	6864.62
634.176	6790.89
634.369	6737.65
634.563	6835.95
634.757	6637.3
634.951	6582
635.145	6729.45
635.339	6694.64
635.533	6637.3
635.726	6694.64
635.92	6428.4
636.114	6348.53
636.308	6391.54
636.501	6391.54
636.695	6328.05
636.889	6418.16
637.083	6479.6
637.276	6315.76
637.47	6317.81
637.664	6258.42
637.857	6274.81
638.051	6088.44
638.244	6012.67
638.438	5963.51
638.632	6080.25
638.825	5990.14
639.019	5914.36
639.212	5965.56
639.406	6004.47
639.599	5734.14
639.793	5955.32
639.986	5852.92
640.18	5824.25
640.373	5701.37
640.567	5781.25
640.76	5830.4
640.954	5795.58
641.147	5547.78
641.34	5619.46
641.534	5551.87
641.727	5666.56
641.92	5568.26
642.114	5504.77
642.307	5627.65
642.5	5482.24
642.694	5439.23
642.887	5383.94
643.08	5482.24
643.273	5433.09
643.467	5312.26
643.66	5248.77
643.853	5306.12
644.046	5142.28
644.239	5160.71
644.432	5105.42
644.626	5119.75
644.819	5140.23
645.012	5211.91
645.205	5015.3
645.398	5078.79
645.591	4980.49
645.784	4876.04
645.977	4806.41
646.17	5050.12
646.363	4867.85
646.556	4935.43
646.749	4906.76
646.942	4833.04
647.135	4810.51
647.328	4718.35
647.521	4720.4
647.714	4730.64
647.907	4658.96
648.099	4683.53
648.292	4687.63
648.485	4605.71
648.678	4572.94
648.871	4634.38
649.064	4568.85
649.256	4384.53
649.449	4480.78
649.642	4519.7
649.835	4486.93
650.027	4323.09
650.22	4325.14
650.413	4570.9
650.605	4339.48
650.798	4259.6
650.991	4165.4
651.183	4212.5
651.376	4138.77
651.568	4269.84
651.761	4278.04
651.954	4282.13
652.146	4206.36
652.339	4161.3
652.531	4050.71
652.724	4101.91
652.916	4026.14
653.109	3993.37
653.301	3946.27
653.494	4069.14
653.686	3979.03
653.879	3907.35
654.071	3923.74
654.263	3954.46
654.456	3964.7
654.648	3712.8
654.84	3680.03
655.033	3942.17
655.225	3798.81
655.417	3684.13
655.61	3761.95
655.802	3710.75
655.994	3731.23
656.186	3833.63
656.379	3850.01
656.571	3882.78
656.763	3577.63
656.955	3565.34
657.148	3634.97
657.34	3530.53
657.532	3622.69
657.724	3614.49
657.916	3604.25
658.108	3395.36
658.3	3489.57
658.492	3405.6
658.684	3356.45
658.876	3555.1
659.068	3372.83
659.26	3360.55
659.452	3475.23
659.644	3444.51
659.836	3354.4
660.028	3325.73
660.22	3409.7
660.412	3196.71
660.604	3317.54
660.796	3247.91
660.988	3278.63
661.18	3204.9
661.372	3184.42
661.563	3252
661.755	3211.04
661.947	3135.27
662.139	3174.18
662.331	3155.75
662.522	3135.27
662.714	3069.73
662.906	3061.54
663.097	2987.82
663.289	2959.14
663.481	3039.01
663.673	3096.36
663.864	2950.95
664.056	2940.71
664.247	2899.75
664.439	2977.58
664.631	2852.65
664.822	2938.66
665.014	2979.62
665.205	2840.36
665.397	2795.31
665.588	2838.31
665.78	2879.27
665.971	2754.35
666.163	2778.92
666.354	2735.92
666.546	2834.22
666.737	2752.3
666.929	2645.8
667.12	2760.49
667.311	2719.53
667.503	2746.16
667.694	2756.4
667.885	2703.15
668.077	2578.22
668.268	2529.07
668.459	2610.99
668.651	2557.74
668.842	2543.41
669.033	2586.41
669.224	2567.98
669.416	2629.42
669.607	2621.23
669.798	2535.21
669.989	2549.55
670.18	2572.08
670.371	2502.45
670.563	2522.93
670.754	2441.01
670.945	2477.87
671.136	2436.91
671.327	2426.67
671.518	2395.95
671.709	2510.64
671.9	2412.34
672.091	2371.38
672.282	2350.9
672.473	2318.13
672.664	2340.66
672.855	2307.89
673.046	2318.13
673.237	2400.05
673.428	2225.97
673.619	2285.36
673.809	2238.26
674	2316.08
674.191	2254.64
674.382	2318.13
674.573	2301.75
674.764	2217.78
674.954	2244.4
675.145	2293.55
675.336	2230.07
675.527	2348.85
675.717	2268.98
675.908	2066.23
676.099	2199.35
676.289	2228.02
676.48	2160.44
676.671	2135.86
676.861	2178.87
677.052	2115.38
677.243	2254.64
677.433	2246.45
677.624	2191.16
677.814	2105.14
678.005	2105.14
678.195	2029.37
678.386	2187.06
678.576	2045.75
678.767	2058.04
678.957	2062.13
679.148	2049.85
679.338	2066.23
679.529	2023.22
679.719	2080.57
679.909	2111.29
680.1	1941.3
680.29	2113.33
680.481	1984.31
680.671	2076.47
680.861	1967.93
681.052	2015.03
681.242	2017.08
681.432	2010.93
681.622	2025.27
681.813	1949.5
682.003	1937.21
682.193	1978.17
682.383	1996.6
682.573	1994.55
682.764	2000.69
682.954	1902.39
683.144	1974.07
683.334	2035.51
683.524	1869.62
683.714	1947.45
683.904	1896.25
684.094	1961.78
684.284	1890.1
684.474	1898.3
684.664	1906.49
684.854	1861.43
685.044	1896.25
685.234	1802.04
685.424	1886.01
685.614	1808.19
685.804	1908.54
685.994	1861.43
686.184	1888.06
686.374	1910.58
686.564	1799.99
686.753	1845.05
686.943	1785.66
687.133	1759.03
687.323	1863.48
687.513	1771.32
687.702	1795.9
687.892	1773.37
688.082	1875.77
688.272	1847.1
688.461	1724.22
688.651	1756.99
688.841	1756.99
689.03	1814.33
689.22	1736.51
689.41	1777.47
689.599	1730.36
689.789	1759.03
689.979	1587.01
690.168	1691.45
690.358	1636.16
690.547	1625.92
690.737	1697.6
690.926	1677.12
691.116	1683.26
691.305	1756.99
691.495	1740.6
691.684	1703.74
691.874	1660.73
692.063	1607.48
692.252	1681.21
692.442	1611.58
692.631	1576.77
692.82	1615.68
693.01	1605.44
693.199	1597.24
693.388	1529.66
693.578	1621.82
693.767	1625.92
693.956	1615.68
694.146	1515.33
694.335	1515.33
694.524	1554.24
694.713	1570.62
694.902	1564.48
695.092	1621.82
695.281	1460.03
695.47	1525.57
695.659	1482.56
695.848	1404.74
696.037	1576.77
696.226	1496.89
696.415	1548.09
696.604	1486.65
696.793	1445.7
696.982	1437.5
697.171	1486.65
697.36	1427.26
697.549	1503.04
697.738	1308.48
697.927	1347.39
698.116	1500.99
698.305	1480.51
698.494	1490.75
698.683	1410.88
698.872	1482.56
699.061	1539.9
699.25	1455.94
699.438	1417.02
699.627	1396.54
699.816	1421.12
700.005	1431.36
700.193	1394.5
700.382	1462.08
700.571	1382.21
700.76	1320.77
700.948	1392.45
701.137	1355.58
701.326	1392.45
701.514	1445.7
701.703	1343.3
701.892	1425.22
702.08	1304.39
702.269	1324.87
702.457	1380.16
702.646	1304.39
702.834	1359.68
703.023	1353.54
703.212	1402.69
703.4	1265.47
703.589	1238.85
703.777	1357.63
703.965	1328.96
704.154	1363.78
704.342	1369.92
704.531	1234.75
704.719	1251.14
704.907	1322.82
705.096	1294.15
705.284	1275.71
705.472	1238.85
705.661	1218.37
705.849	1369.92
706.037	1349.44
706.226	1331.01
706.414	1228.61
706.602	1269.57
706.79	1218.37
706.979	1259.33
707.167	1300.29
707.355	1224.51
707.543	1236.8
707.731	1224.51
707.919	1244.99
708.107	1292.1
708.296	1236.8
708.484	1171.27
708.672	1234.75
708.86	1249.09
709.048	1148.74
709.236	1234.75
709.424	1236.8
709.612	1169.22
709.8	1253.19
709.988	1224.51
710.176	1236.8
710.364	1236.8
710.551	1232.71
710.739	1175.36
710.927	1163.08
711.115	1232.71
711.303	1187.65
711.491	1193.8
711.679	1285.95
711.866	1206.08
712.054	1120.07
712.242	1152.84
712.43	1224.51
712.617	1253.19
712.805	1105.73
712.993	1224.51
713.181	1130.31
713.368	1189.7
713.556	1130.31
713.744	1165.12
713.931	1167.17
714.119	1195.84
714.306	1230.66
714.494	1158.98
714.682	1163.08
714.869	1165.12
715.057	1236.8
715.244	1163.08
715.432	1191.75
715.619	1017.67
715.807	1134.4
715.994	1136.45
716.182	1212.23
716.369	1173.32
716.556	1185.6
716.744	1101.64
716.931	1142.6
717.119	1124.16
717.306	1093.44
717.493	1191.75
717.681	1199.94
717.868	1134.4
718.055	1072.96
718.242	1132.36
718.43	1120.07
718.617	1138.5
718.804	1136.45
718.991	1158.98
719.179	1099.59
719.366	1111.88
719.553	1093.44
719.74	1091.4
719.927	1046.34
720.114	1085.25
720.301	1126.21
720.488	948.04
720.676	1095.49
720.863	1081.16
721.05	1038.15
721.237	1056.58
721.424	1042.25
721.611	1115.97
721.798	1044.29
721.985	958.28
722.172	1015.62
722.358	1189.7
722.545	1062.73
722.732	1066.82
722.919	1042.25
723.106	1011.53
723.293	1036.1
723.48	1032.01
723.667	1062.73
723.853	978.76
724.04	1075.01
724.227	1040.2
724.414	989
724.6	1007.43
724.787	1048.39
724.974	1003.33
725.161	1058.63
725.347	1034.05
725.534	1017.67
725.72	997.19
725.907	1048.39
726.094	978.76
726.28	1077.06
726.467	941.89
726.653	1009.48
726.84	956.23
727.027	1081.16
727.213	1036.1
727.4	1101.64
727.586	1001.29
727.773	1058.63
727.959	1081.16
728.145	982.85
728.332	1122.12
728.518	1064.77
728.705	1128.26
728.891	997.19
729.077	1019.72
729.264	1042.25
729.45	1032.01
729.636	1064.77
729.823	1027.91
730.009	993.09
730.195	1038.15
730.382	1005.38
730.568	960.33
730.754	1023.81
730.94	995.14
731.126	1034.05
731.313	1115.97
731.499	929.61
731.685	1050.44
731.871	939.85
732.057	1021.77
732.243	1050.44
732.429	960.33
732.615	1113.92
732.801	1023.81
732.987	915.27
733.173	933.7
733.359	970.57
733.545	1052.49
733.731	892.74
733.917	1017.67
734.103	976.71
734.289	943.94
734.475	933.7
734.661	1027.91
734.847	917.32
735.033	1017.67
735.219	1044.29
735.404	902.98
735.59	1023.81
735.776	972.61
735.962	1072.96
736.148	984.9
736.333	970.57
736.519	1036.1
736.705	1040.2
736.89	982.85
737.076	1007.43
737.262	993.09
737.447	927.56
737.633	962.37
737.819	943.94
738.004	974.66
738.19	1011.53
738.375	931.66
738.561	999.24
738.747	937.8
738.932	892.74
739.118	974.66
739.303	919.37
739.489	995.14
739.674	853.83
739.859	939.85
740.045	880.46
740.23	929.61
740.416	898.89
740.601	950.09
740.786	980.81
740.972	898.89
741.157	913.22
741.342	958.28
741.528	1032.01
741.713	872.26
741.898	892.74
742.084	1021.77
742.269	833.35
742.454	911.18
742.639	1052.49
742.824	925.51
743.01	900.94
743.195	870.22
743.38	943.94
743.565	911.18
743.75	935.75
743.935	849.74
744.12	954.18
744.305	862.02
744.49	855.88
744.675	882.5
744.86	878.41
745.045	958.28
745.23	819.02
745.415	933.7
745.6	792.39
745.785	855.88
745.97	962.37
746.155	759.63
746.34	825.16
746.525	962.37
746.71	894.79
746.895	847.69
747.079	747.34
747.264	853.83
747.449	827.21
747.634	810.82
747.819	780.11
748.003	868.17
748.188	839.5
748.373	812.87
748.557	870.22
748.742	712.52
748.927	763.72
749.111	857.93
749.296	964.42
749.481	728.91
749.665	778.06
749.85	730.95
750.034	704.33
750.219	759.63
750.404	786.25
750.588	757.58
750.773	726.86
750.957	730.95
751.141	745.29
751.326	794.44
751.51	694.09
751.695	675.66
751.879	722.76
752.064	761.67
752.248	796.49
752.432	759.63
752.617	728.91
752.801	751.43
752.985	646.99
753.17	720.71
753.354	733
753.538	681.8
753.722	636.75
753.907	757.58
754.091	749.39
754.275	755.53
754.459	608.08
754.643	714.57
754.828	673.61
755.012	640.84
755.196	677.71
755.38	700.23
755.564	724.81
755.748	626.51
755.932	556.88
756.116	669.52
756.3	632.65
756.484	663.37
756.668	620.36
756.852	624.46
757.036	577.36
757.22	573.26
757.404	702.28
757.588	599.88
757.772	599.88
757.956	558.92
758.14	542.54
758.323	606.03
758.507	534.35
758.691	505.68
758.875	649.04
759.059	567.12
759.242	558.92
759.426	587.6
759.61	569.16
759.794	554.83
759.977	618.32
760.161	550.73
760.345	532.3
760.528	491.34
760.712	477.01
760.895	577.36
761.079	616.27
761.263	567.12
761.446	587.6
761.63	520.01
761.813	581.45
761.997	538.45
762.18	466.77
762.364	558.92
762.547	434
762.731	515.92
762.914	528.21
763.098	472.91
763.281	399.18
763.464	454.48
763.648	538.45
763.831	546.64
764.015	495.44
764.198	520.01
764.381	517.97
764.564	481.1
764.748	499.53
764.931	501.58
765.114	534.35
765.297	487.25
765.481	499.53
765.664	567.12
765.847	452.43
766.03	481.1
766.213	458.57
766.397	503.63
766.58	468.81
766.763	477.01
766.946	440.14
767.129	524.11
767.312	436.05
767.495	493.39
767.678	388.94
767.861	454.48
768.044	429.9
768.227	507.73
768.41	425.81
768.593	472.91
768.776	384.85
768.959	413.52
769.142	468.81
769.324	446.29
769.507	481.1
769.69	479.05
769.873	395.09
770.056	360.27
770.239	356.18
770.421	513.87
770.604	399.18
770.787	401.23
770.97	315.22
771.152	376.66
771.335	450.38
771.518	499.53
771.7	382.8
771.883	513.87
772.066	466.77
772.248	454.48
772.431	395.09
772.613	376.66
772.796	413.52
772.978	335.7
773.161	403.28
773.343	401.23
773.526	427.85
773.708	436.05
773.891	356.18
774.073	409.42
774.256	440.14
774.438	419.66
774.621	347.98
774.803	419.66
774.985	401.23
775.168	343.89
775.35	343.89
775.532	321.36
775.715	360.27
775.897	280.4
776.079	364.37
776.261	311.12
776.444	358.22
776.626	347.98
776.808	325.46
776.99	284.5
777.173	376.66
777.355	352.08
777.537	384.85
777.719	337.74
777.901	276.31
778.083	339.79
778.265	302.93
778.447	276.31
778.629	266.07
778.811	350.03
778.993	386.9
779.175	333.65
779.357	345.94
779.539	313.17
779.721	259.92
779.903	317.26
780.085	350.03
780.267	364.37
780.449	227.15
780.631	360.27
780.812	317.26
780.994	276.31
781.176	214.87
781.358	296.78
781.54	290.64
781.721	221.01
781.903	290.64
782.085	216.91
782.267	288.59
782.448	239.44
782.63	286.54
782.812	335.7
782.993	315.22
783.175	231.25
783.357	153.43
783.538	255.83
783.72	233.3
783.901	237.39
784.083	212.82
784.264	225.11
784.446	237.39
784.627	218.96
784.809	272.21
784.99	214.87
785.172	249.68
785.353	171.86
785.535	196.43
785.716	204.63
785.897	184.15
786.079	243.54
786.26	286.54
786.441	243.54
786.623	186.19
786.804	294.74
786.985	253.78
787.167	268.11
787.348	200.53
787.529	161.62
787.71	186.19
787.891	202.58
788.073	188.24
788.254	139.09
788.435	218.96
788.616	184.15
788.797	137.04
788.978	229.2
789.159	223.06
789.34	200.53
789.522	202.58
789.703	243.54
789.884	214.87
790.065	106.32
790.246	221.01
790.427	247.63
790.607	221.01
790.788	253.78
790.969	202.58
791.15	245.59
791.331	188.24
791.512	165.71
791.693	149.33
791.874	229.2
792.054	161.62
792.235	196.43
792.416	89.94
792.597	255.83
792.778	163.67
792.958	200.53
793.139	223.06
793.32	151.38
793.5	178
793.681	167.76
793.862	198.48
794.042	198.48
794.223	98.13
794.404	180.05
794.584	116.56
794.765	161.62
794.945	73.56
795.126	184.15
795.306	169.81
795.487	163.67
795.667	98.13
795.848	192.34
796.028	128.85
796.209	114.52
796.389	87.89
796.57	182.1
796.75	153.43
796.93	196.43
797.111	135
797.291	110.42
797.471	67.41
797.652	147.28
797.832	63.32
798.012	180.05
798.192	180.05
798.373	61.27
798.553	34.64
798.733	178
798.913	153.43
799.093	139.09
799.274	141.14
799.454	141.14
799.634	106.32
799.814	147.28
799.994	157.52
800.174	167.76
800.354	57.17
800.534	77.65
800.714	67.41
800.894	87.89
801.074	130.9
801.254	165.71
801.434	108.37
801.614	147.28
801.794	89.94
801.974	399.18
802.154	65.36
802.334	171.86
802.514	81.75
802.693	106.32
802.873	98.13
803.053	155.47
803.233	132.95
803.413	65.36
803.592	145.24
803.772	96.08
803.952	63.32
804.131	202.58
804.311	83.8
804.491	98.13
804.67	61.27
804.85	141.14
805.03	112.47
805.209	83.8
805.389	75.6
805.568	137.04
805.748	42.84
805.928	89.94
806.107	91.99
806.287	157.52
806.466	104.28
806.646	112.47
806.825	67.41
807.004	137.04
807.184	100.18
807.363	26.45
807.543	59.22
807.722	83.8
807.901	118.61
808.081	130.9
808.26	55.12
808.439	89.94
808.619	75.6
808.798	147.28
808.977	104.28
809.156	87.89
809.336	42.84
809.515	89.94
809.694	22.36
809.873	59.22
810.052	96.08
810.231	55.12
810.411	130.9
810.59	124.76
810.769	40.79
810.948	81.75
811.127	16.21
811.306	167.76
811.485	42.84
811.664	98.13
811.843	104.28
812.022	108.37
812.201	73.56
812.38	98.13
812.559	38.74
812.737	46.93
812.916	132.95
813.095	55.12
813.274	71.51
813.453	61.27
813.632	124.76
813.811	59.22
813.989	91.99
814.168	102.23
814.347	32.6
814.526	26.45
814.704	96.08
814.883	122.71
815.062	53.08
815.24	77.65
815.419	44.88
815.598	40.79
815.776	22.36
815.955	63.32
816.133	32.6
816.312	89.94
816.49	34.64
816.669	51.03
816.847	61.27
817.026	48.98
817.204	10.07
817.383	12.12
817.561	46.93
817.74	67.41
817.918	73.56
818.097	36.69
818.275	10.07
818.453	46.93
818.632	81.75
818.81	32.6
818.988	28.5
819.167	69.46
819.345	61.27
819.523	85.84
819.701	108.37
819.879	8.02
820.058	77.65
820.236	120.66
820.414	81.75
820.592	75.6
820.77	51.03
820.948	24.4
821.127	28.5
821.305	91.99
821.483	12.12
821.661	34.64
821.839	51.03
822.017	32.6
822.195	94.04
822.373	26.45
822.551	91.99
822.729	59.22
822.907	57.17
823.085	83.8
823.262	42.84
823.44	81.75
823.618	65.36
823.796	51.03
823.974	106.32
824.152	42.84
824.329	-0.17
824.507	63.32
824.685	18.26
824.863	46.93
825.04	3.93
825.218	85.84
825.396	-28.84
825.574	75.6
825.751	-6.31
825.929	75.6
826.107	63.32
826.284	69.46
826.462	135
826.639	16.21
826.817	65.36
826.994	44.88
827.172	32.6
827.349	69.46
827.527	-16.55
827.704	46.93
827.882	53.08
828.059	-8.36
828.237	-2.22
828.414	-10.41
828.591	34.64
828.769	44.88
828.946	24.4
829.124	71.51
829.301	42.84
829.478	46.93
829.655	57.17
829.833	102.23
830.01	69.46
830.187	46.93
830.364	24.4
830.542	36.69
830.719	42.84
830.896	55.12
831.073	22.36
831.25	100.18
831.427	44.88
831.604	48.98
831.782	98.13
831.959	53.08
832.136	36.69
832.313	30.55
832.49	71.51
832.667	53.08
832.844	-30.89
833.021	40.79
833.198	48.98
833.374	18.26
833.551	98.13
833.728	59.22
833.905	51.03
834.082	34.64
834.259	75.6
834.436	116.56
834.612	89.94
834.789	16.21
834.966	38.74
835.143	1.88
835.319	98.13
835.496	8.02
835.673	10.07
835.85	73.56
836.026	18.26
836.203	40.79
836.38	-4.27
836.556	-0.17
836.733	-6.31
836.909	104.28
837.086	34.64
837.262	8.02
837.439	73.56
837.616	81.75
837.792	57.17
837.968	12.12
838.145	65.36
838.321	59.22
838.498	10.07
838.674	46.93
838.851	-45.23
839.027	26.45
839.203	77.65
839.38	40.79
839.556	40.79
839.732	-30.89
839.909	48.98
840.085	63.32
840.261	26.45
840.437	16.21
840.614	-18.6
840.79	75.6
840.966	26.45
841.142	30.55
841.318	14.17
841.494	3.93
841.671	16.21
841.847	8.02
842.023	5.97
842.199	8.02
842.375	38.74
842.551	53.08
842.727	-14.51
842.903	32.6
843.079	-12.46
843.255	77.65
843.431	10.07
843.607	38.74
843.783	3.93
843.959	36.69
844.134	38.74
844.31	38.74
844.486	98.13
844.662	-2.22
844.838	22.36
845.013	114.52
845.189	77.65
845.365	30.55
845.541	34.64
845.716	42.84
845.892	18.26
846.068	-4.27
846.244	-32.94
846.419	77.65
846.595	-8.36
846.77	-6.31
846.946	53.08
847.122	106.32
847.297	18.26
847.473	30.55
847.648	-61.61
847.824	22.36
847.999	-0.17
848.175	22.36
848.35	-18.6
848.526	32.6
848.701	24.4
848.876	81.75
849.052	1.88
849.227	44.88
849.403	20.31
849.578	75.6
849.753	36.69
849.929	-59.56
850.104	-8.36
850.279	34.64
850.454	51.03
850.63	57.17
850.805	-24.75
850.98	-20.65
851.155	1.88
851.33	83.8
851.505	-39.08
851.681	28.5
851.856	16.21
852.031	-22.7
852.206	-4.27
852.381	10.07
852.556	32.6
852.731	-14.51
852.906	-20.65
853.081	-14.51
853.256	-8.36
853.431	69.46
853.606	24.4
853.781	44.88
853.956	65.36
854.131	73.56
854.305	46.93
854.48	77.65
854.655	-12.46
854.83	30.55
855.005	5.97
855.18	32.6
855.354	36.69
855.529	61.27
855.704	55.12
855.879	-32.94
856.053	8.02
856.228	36.69
856.403	14.17
856.577	38.74
856.752	-49.32
856.926	3.93
857.101	12.12
857.276	38.74
857.45	-22.7
857.625	-8.36
857.799	12.12
857.974	65.36
858.148	-14.51
858.323	-43.18
858.497	59.22
858.672	40.79
858.846	-22.7
859.02	-6.31
859.195	-20.65
859.369	14.17
859.543	-20.65
859.718	53.08
859.892	-47.27
860.066	36.69
860.241	16.21
860.415	40.79
860.589	59.22
860.763	57.17
860.938	-20.65
861.112	48.98
861.286	-18.6
861.46	-18.6
861.634	-37.03
861.808	12.12
861.982	-2.22
862.157	16.21
862.331	-14.51
862.505	14.17
862.679	-61.61
862.853	-4.27
863.027	-39.08
863.201	18.26
863.375	-43.18
863.549	3.93
863.722	-10.41
863.896	-4.27
864.07	63.32
864.244	12.12
864.418	-32.94
864.592	42.84
864.766	-26.79
864.939	20.31
865.113	20.31
865.287	73.56
865.461	26.45
865.634	-77.99
865.808	53.08
865.982	67.41
866.156	14.17
866.329	51.03
866.503	48.98
866.676	61.27
866.85	14.17
867.024	51.03
867.197	-4.27
867.371	40.79
867.544	59.22
867.718	30.55
867.891	20.31
868.065	-24.75
868.238	-39.08
868.412	36.69
868.585	63.32
868.759	40.79
868.932	-8.36
869.105	-8.36
869.279	-8.36
869.452	-49.32
869.625	26.45
869.799	42.84
869.972	42.84
870.145	-0.17
870.319	18.26
870.492	-2.22
870.665	53.08
870.838	18.26
871.011	22.36
871.185	-14.51
871.358	-26.79
871.531	38.74
871.704	-32.94
871.877	-4.27
872.05	-32.94
872.223	51.03
872.396	-14.51
872.569	114.52
872.742	57.17
872.915	53.08
873.088	79.7
873.261	18.26
873.434	51.03
873.607	-20.65
873.78	-43.18
873.953	-2.22
874.126	28.5
874.299	-12.46
874.471	-57.51
874.644	-18.6
874.817	71.51
874.99	83.8
875.163	5.97
875.335	59.22
875.508	-6.31
875.681	-32.94
875.853	34.64
876.026	1.88
876.199	34.64
876.371	8.02
876.544	-39.08
876.717	57.17
876.889	46.93
877.062	16.21
877.234	14.17
877.407	-41.13
877.579	67.41
877.752	-18.6
877.924	40.79
878.097	16.21
878.269	-37.03
878.442	30.55
878.614	-39.08
878.786	24.4
878.959	-12.46
879.131	-30.89
879.303	-28.84
879.476	-0.17
879.648	3.93
879.82	-49.32
879.993	-57.51
880.165	-22.7
880.337	42.84
880.509	12.12
880.681	-8.36
880.854	-8.36
881.026	-49.32
881.198	130.9
881.37	-6.31
881.542	69.46
881.714	-63.66
881.886	-24.75
882.058	3.93
882.23	-12.46
882.402	14.17
882.574	16.21
882.746	-57.51
882.918	-0.17
883.09	24.4
883.262	-0.17
883.434	-4.27
883.606	-69.8
883.778	-34.99
883.95	-2.22
884.122	20.31
884.293	26.45
884.465	5.97
884.637	65.36
884.809	-86.19
884.98	-26.79
885.152	-14.51
885.324	42.84
885.496	40.79
885.667	-0.17
885.839	-26.79
886.011	42.84
886.182	-39.08
886.354	18.26
886.525	-30.89
886.697	20.31
886.869	36.69
887.04	-39.08
887.212	-0.17
887.383	51.03
887.555	-59.56
887.726	12.12
887.897	3.93
888.069	36.69
888.24	22.36
888.412	38.74
888.583	-28.84
888.754	-16.55
888.926	-24.75
889.097	-14.51
889.268	-82.09
889.44	26.45
889.611	-39.08
889.782	-30.89
889.953	-59.56
890.125	59.22
890.296	-32.94
890.467	26.45
890.638	-75.95
890.809	1.88
890.98	-34.99
891.151	12.12
891.323	16.21
891.494	71.51
891.665	10.07
891.836	-22.7
892.007	-41.13
892.178	12.12
892.349	5.97
892.52	-12.46
892.691	12.12
892.862	32.6
893.032	-16.55
893.203	-22.7
893.374	5.97
893.545	-20.65
893.716	-0.17
893.887	81.75
894.057	3.93
894.228	20.31
894.399	46.93
894.57	1.88
894.74	-41.13
894.911	-61.61
895.082	-12.46
895.253	32.6
895.423	-20.65
895.594	24.4
895.764	-37.03
895.935	-67.75
896.106	-10.41
896.276	10.07
896.447	-41.13
896.617	3.93
896.788	-32.94
896.958	-43.18
897.129	61.27
897.299	28.5
897.47	36.69
897.64	-22.7
897.81	32.6
897.981	-16.55
898.151	32.6
898.322	36.69
898.492	-49.32
898.662	-4.27
898.832	-32.94
899.003	-6.31
899.173	3.93
899.343	-37.03
899.513	-34.99
