Data from USB4F104151__26__12-53-35-906.txt Node

Date: Fri Mar 14 12:53:35 EDT 2025
User: louis
Spectrometer: USB4F10415
Trigger mode: 4
Integration Time (sec): 1.000000E-2
Scans to average: 1
Electric dark correction enabled: true
Nonlinearity correction enabled: false
Boxcar width: 0
XAxis mode: Wavelengths
Number of Pixels in Spectrum: 3648
>>>>>Begin Spectral Data<<<<<
178.204	-63.83
178.424	-63.83
178.644	-63.83
178.864	-4.44
179.084	-74.07
179.304	40.62
179.524	20.14
179.744	-20.82
179.964	-8.53
180.184	1.71
180.404	-41.3
180.624	18.09
180.844	32.43
181.064	-20.82
181.283	-33.11
181.503	18.09
181.723	-6.49
181.943	30.38
182.163	75.43
182.383	7.85
182.602	63.15
182.822	71.34
183.042	7.85
183.262	9.9
183.482	-8.53
183.701	104.11
183.921	108.2
184.141	18.09
184.361	-20.82
184.58	24.23
184.8	77.48
185.02	30.38
185.239	28.33
185.459	73.39
185.679	22.19
185.898	-10.58
186.118	44.71
186.338	122.54
186.557	67.24
186.777	-53.59
186.997	22.19
187.216	-8.53
187.436	13.99
187.655	26.28
187.875	-20.82
188.095	36.52
188.314	20.14
188.534	-24.92
188.753	42.67
188.973	61.1
189.192	63.15
189.412	5.8
189.631	3.75
189.851	-35.16
190.07	46.76
190.29	71.34
190.509	65.19
190.729	24.23
190.948	36.52
191.168	18.09
191.387	-16.73
191.607	38.57
191.826	40.62
192.045	20.14
192.265	11.95
192.484	50.86
192.704	28.33
192.923	-86.36
193.142	81.58
193.362	46.76
193.581	73.39
193.8	22.19
194.02	79.53
194.239	42.67
194.458	5.8
194.678	3.75
194.897	-35.16
195.116	-45.4
195.335	63.15
195.555	46.76
195.774	38.57
195.993	54.95
196.212	9.9
196.432	26.28
196.651	-35.16
196.87	-35.16
197.089	28.33
197.308	65.19
197.528	32.43
197.747	28.33
197.966	-16.73
198.185	-8.53
198.404	54.95
198.623	13.99
198.842	54.95
199.062	-16.73
199.281	13.99
199.5	65.19
199.719	-6.49
199.938	42.67
200.157	48.81
200.376	5.8
200.595	28.33
200.814	46.76
201.033	-2.39
201.252	32.43
201.471	24.23
201.69	36.52
201.909	65.19
202.128	46.76
202.347	52.91
202.566	11.95
202.785	42.67
203.004	26.28
203.223	59.05
203.442	38.57
203.661	11.95
203.879	18.09
204.098	40.62
204.317	26.28
204.536	63.15
204.755	83.63
204.974	71.34
205.193	61.1
205.411	91.82
205.63	11.95
205.849	73.39
206.068	32.43
206.287	-4.44
206.505	11.95
206.724	114.34
206.943	-35.16
207.162	75.43
207.381	65.19
207.599	85.67
207.818	-26.96
208.037	5.8
208.255	52.91
208.474	59.05
208.693	-8.53
208.911	24.23
209.13	20.14
209.349	79.53
209.567	83.63
209.786	100.01
210.005	50.86
210.223	-20.82
210.442	-37.2
210.661	28.33
210.879	57
211.098	36.52
211.316	57
211.535	81.58
211.753	38.57
211.972	71.34
212.191	-29.01
212.409	-8.53
212.628	71.34
212.846	46.76
213.065	46.76
213.283	42.67
213.502	5.8
213.72	30.38
213.938	-24.92
214.157	26.28
214.375	13.99
214.594	-18.77
214.812	32.43
215.031	28.33
215.249	-20.82
215.467	73.39
215.686	32.43
215.904	30.38
216.122	7.85
216.341	-39.25
216.559	40.62
216.778	7.85
216.996	18.09
217.214	38.57
217.432	1.71
217.651	102.06
217.869	30.38
218.087	73.39
218.306	28.33
218.524	81.58
218.742	32.43
218.96	40.62
219.179	-2.39
219.397	38.57
219.615	50.86
219.833	57
220.051	20.14
220.27	54.95
220.488	57
220.706	-39.25
220.924	11.95
221.142	9.9
221.36	97.96
221.578	-12.63
221.796	118.44
222.015	-12.63
222.233	28.33
222.451	24.23
222.669	-39.25
222.887	59.05
223.105	-29.01
223.323	28.33
223.541	38.57
223.759	65.19
223.977	-10.58
224.195	87.72
224.413	59.05
224.631	-41.3
224.849	65.19
225.067	28.33
225.285	-26.96
225.503	-2.39
225.721	61.1
225.939	69.29
226.157	36.52
226.375	-8.53
226.592	-33.11
226.81	100.01
227.028	40.62
227.246	79.53
227.464	57
227.682	-39.25
227.9	-33.11
228.117	87.72
228.335	-20.82
228.553	48.81
228.771	-24.92
228.989	65.19
229.206	73.39
229.424	9.9
229.642	-39.25
229.86	-31.06
230.077	52.91
230.295	22.19
230.513	46.76
230.731	1.71
230.948	-4.44
231.166	24.23
231.384	20.14
231.601	18.09
231.819	32.43
232.037	22.19
232.254	9.9
232.472	-10.58
232.689	120.49
232.907	89.77
233.125	34.47
233.342	63.15
233.56	50.86
233.777	24.23
233.995	67.24
234.213	50.86
234.43	-4.44
234.648	7.85
234.865	7.85
235.083	67.24
235.3	-6.49
235.518	30.38
235.735	54.95
235.953	24.23
236.17	75.43
236.388	7.85
236.605	30.38
236.822	7.85
237.04	3.75
237.257	7.85
237.475	18.09
237.692	16.04
237.909	71.34
238.127	100.01
238.344	34.47
238.562	-0.34
238.779	-24.92
238.996	38.57
239.214	26.28
239.431	36.52
239.648	-35.16
239.865	-14.68
240.083	46.76
240.3	79.53
240.517	5.8
240.735	63.15
240.952	32.43
241.169	11.95
241.386	61.1
241.603	-49.49
241.821	20.14
242.038	13.99
242.255	59.05
242.472	-10.58
242.689	24.23
242.907	20.14
243.124	36.52
243.341	13.99
243.558	36.52
243.775	20.14
243.992	-82.26
244.209	50.86
244.426	134.82
244.643	69.29
244.86	54.95
245.078	54.95
245.295	-0.34
245.512	24.23
245.729	11.95
245.946	110.25
246.163	-20.82
246.38	-49.49
246.597	54.95
246.814	79.53
247.031	24.23
247.248	91.82
247.464	13.99
247.681	63.15
247.898	67.24
248.115	95.91
248.332	36.52
248.549	26.28
248.766	102.06
248.983	1.71
249.2	67.24
249.417	87.72
249.633	3.75
249.85	63.15
250.067	18.09
250.284	48.81
250.501	42.67
250.717	36.52
250.934	38.57
251.151	22.19
251.368	5.8
251.585	75.43
251.801	-2.39
252.018	5.8
252.235	5.8
252.451	7.85
252.668	5.8
252.885	30.38
253.102	61.1
253.318	50.86
253.535	22.19
253.752	22.19
253.968	5.8
254.185	54.95
254.401	54.95
254.618	42.67
254.835	79.53
255.051	91.82
255.268	24.23
255.484	36.52
255.701	59.05
255.917	11.95
256.134	34.47
256.351	34.47
256.567	67.24
256.784	36.52
257	22.19
257.217	95.91
257.433	-14.68
257.65	32.43
257.866	77.48
258.082	18.09
258.299	34.47
258.515	50.86
258.732	-4.44
258.948	7.85
259.165	-12.63
259.381	22.19
259.597	7.85
259.814	-20.82
260.03	-61.78
260.246	44.71
260.463	-0.34
260.679	54.95
260.895	-24.92
261.112	52.91
261.328	46.76
261.544	52.91
261.761	3.75
261.977	24.23
262.193	65.19
262.409	65.19
262.626	-33.11
262.842	22.19
263.058	-31.06
263.274	3.75
263.49	-22.87
263.707	75.43
263.923	97.96
264.139	32.43
264.355	-0.34
264.571	30.38
264.787	65.19
265.004	97.96
265.22	46.76
265.436	7.85
265.652	11.95
265.868	3.75
266.084	1.71
266.3	-24.92
266.516	30.38
266.732	34.47
266.948	13.99
267.164	16.04
267.38	57
267.596	13.99
267.812	93.87
268.028	87.72
268.244	44.71
268.46	67.24
268.676	97.96
268.892	7.85
269.108	26.28
269.324	9.9
269.54	7.85
269.756	36.52
269.972	-33.11
270.188	22.19
270.403	36.52
270.619	-8.53
270.835	-8.53
271.051	46.76
271.267	-2.39
271.483	48.81
271.698	9.9
271.914	7.85
272.13	9.9
272.346	54.95
272.562	91.82
272.777	16.04
272.993	38.57
273.209	50.86
273.425	61.1
273.64	1.71
273.856	42.67
274.072	30.38
274.287	42.67
274.503	18.09
274.719	79.53
274.934	44.71
275.15	-2.39
275.366	63.15
275.581	79.53
275.797	36.52
276.012	34.47
276.228	75.43
276.444	3.75
276.659	7.85
276.875	-33.11
277.09	65.19
277.306	32.43
277.521	89.77
277.737	-29.01
277.952	24.23
278.168	18.09
278.383	91.82
278.599	42.67
278.814	59.05
279.03	40.62
279.245	69.29
279.461	52.91
279.676	52.91
279.892	13.99
280.107	5.8
280.322	59.05
280.538	52.91
280.753	-2.39
280.969	11.95
281.184	-22.87
281.399	120.49
281.615	40.62
281.83	11.95
282.045	-57.68
282.26	100.01
282.476	54.95
282.691	38.57
282.906	61.1
283.122	-12.63
283.337	20.14
283.552	18.09
283.767	65.19
283.983	77.48
284.198	77.48
284.413	42.67
284.628	54.95
284.843	46.76
285.058	30.38
285.274	11.95
285.489	3.75
285.704	46.76
285.919	44.71
286.134	67.24
286.349	42.67
286.564	36.52
286.779	54.95
286.995	102.06
287.21	20.14
287.425	89.77
287.64	5.8
287.855	-41.3
288.07	-35.16
288.285	83.63
288.5	120.49
288.715	79.53
288.93	100.01
289.145	163.5
289.36	63.15
289.575	30.38
289.79	95.91
290.004	38.57
290.219	61.1
290.434	3.75
290.649	-0.34
290.864	40.62
291.079	16.04
291.294	-2.39
291.509	13.99
291.724	26.28
291.938	40.62
292.153	16.04
292.368	13.99
292.583	38.57
292.798	67.24
293.012	81.58
293.227	83.63
293.442	-10.58
293.657	40.62
293.871	61.1
294.086	32.43
294.301	120.49
294.516	61.1
294.73	46.76
294.945	59.05
295.16	-8.53
295.374	38.57
295.589	108.2
295.804	97.96
296.018	-31.06
296.233	89.77
296.447	32.43
296.662	34.47
296.877	42.67
297.091	118.44
297.306	20.14
297.52	106.15
297.735	44.71
297.949	-4.44
298.164	54.95
298.378	42.67
298.593	7.85
298.807	100.01
299.022	40.62
299.236	44.71
299.451	79.53
299.665	75.43
299.88	75.43
300.094	42.67
300.309	32.43
300.523	46.76
300.737	-43.35
300.952	26.28
301.166	54.95
301.381	-39.25
301.595	93.87
301.809	42.67
302.024	9.9
302.238	-43.35
302.452	46.76
302.667	26.28
302.881	26.28
303.095	93.87
303.309	42.67
303.524	36.52
303.738	36.52
303.952	46.76
304.166	-29.01
304.381	42.67
304.595	65.19
304.809	79.53
305.023	34.47
305.237	77.48
305.452	30.38
305.666	-6.49
305.88	95.91
306.094	50.86
306.308	67.24
306.522	40.62
306.736	-0.34
306.95	38.57
307.164	77.48
307.379	-31.06
307.593	95.91
307.807	-22.87
308.021	87.72
308.235	-2.39
308.449	59.05
308.663	-51.54
308.877	108.2
309.091	1.71
309.305	61.1
309.519	61.1
309.733	38.57
309.947	54.95
310.161	22.19
310.374	7.85
310.588	-12.63
310.802	-12.63
311.016	75.43
311.23	24.23
311.444	5.8
311.658	46.76
311.872	59.05
312.085	85.67
312.299	-53.59
312.513	9.9
312.727	46.76
312.941	54.95
313.154	28.33
313.368	-22.87
313.582	46.76
313.796	-31.06
314.009	63.15
314.223	-8.53
314.437	11.95
314.651	18.09
314.864	16.04
315.078	-6.49
315.292	65.19
315.505	61.1
315.719	44.71
315.933	-4.44
316.146	71.34
316.36	-51.54
316.573	52.91
316.787	-18.77
317.001	44.71
317.214	89.77
317.428	93.87
317.641	3.75
317.855	77.48
318.068	-4.44
318.282	118.44
318.495	63.15
318.709	-4.44
318.922	22.19
319.136	57
319.349	28.33
319.563	42.67
319.776	42.67
319.99	65.19
320.203	67.24
320.417	-4.44
320.63	36.52
320.843	16.04
321.057	48.81
321.27	65.19
321.483	61.1
321.697	38.57
321.91	38.57
322.124	22.19
322.337	100.01
322.55	95.91
322.763	-31.06
322.977	110.25
323.19	1.71
323.403	-24.92
323.617	-12.63
323.83	81.58
324.043	-20.82
324.256	44.71
324.469	44.71
324.683	-26.96
324.896	40.62
325.109	75.43
325.322	42.67
325.535	85.67
325.748	5.8
325.962	7.85
326.175	63.15
326.388	38.57
326.601	-16.73
326.814	97.96
327.027	1.71
327.24	91.82
327.453	13.99
327.666	3.75
327.879	75.43
328.092	48.81
328.305	44.71
328.518	52.91
328.731	13.99
328.944	30.38
329.157	44.71
329.37	34.47
329.583	-10.58
329.796	36.52
330.009	-43.35
330.222	22.19
330.435	13.99
330.648	9.9
330.861	40.62
331.073	48.81
331.286	36.52
331.499	54.95
331.712	16.04
331.925	38.57
332.138	38.57
332.35	9.9
332.563	22.19
332.776	-0.34
332.989	24.23
333.202	42.67
333.414	9.9
333.627	-2.39
333.84	65.19
334.053	73.39
334.265	65.19
334.478	7.85
334.691	67.24
334.903	24.23
335.116	34.47
335.329	67.24
335.541	7.85
335.754	-0.34
335.966	75.43
336.179	54.95
336.392	40.62
336.604	16.04
336.817	-10.58
337.029	54.95
337.242	54.95
337.454	24.23
337.667	63.15
337.88	118.44
338.092	36.52
338.305	73.39
338.517	32.43
338.729	65.19
338.942	71.34
339.154	48.81
339.367	57
339.579	79.53
339.792	16.04
340.004	11.95
340.217	34.47
340.429	30.38
340.641	20.14
340.854	34.47
341.066	38.57
341.278	34.47
341.491	104.11
341.703	75.43
341.915	73.39
342.128	97.96
342.34	30.38
342.552	63.15
342.764	83.63
342.977	95.91
343.189	57
343.401	73.39
343.613	-12.63
343.826	24.23
344.038	61.1
344.25	44.71
344.462	63.15
344.674	42.67
344.886	38.57
345.099	91.82
345.311	26.28
345.523	-0.34
345.735	7.85
345.947	46.76
346.159	91.82
346.371	22.19
346.583	38.57
346.795	30.38
347.007	22.19
347.219	5.8
347.431	48.81
347.643	136.87
347.855	36.52
348.067	134.82
348.279	-29.01
348.491	-12.63
348.703	65.19
348.915	100.01
349.127	61.1
349.339	-8.53
349.551	20.14
349.763	42.67
349.975	63.15
350.187	40.62
350.399	54.95
350.61	34.47
350.822	67.24
351.034	-37.2
351.246	-16.73
351.458	7.85
351.669	5.8
351.881	100.01
352.093	102.06
352.305	120.49
352.517	18.09
352.728	77.48
352.94	22.19
353.152	57
353.363	106.15
353.575	83.63
353.787	13.99
353.999	-10.58
354.21	104.11
354.422	22.19
354.633	-6.49
354.845	36.52
355.057	50.86
355.268	28.33
355.48	-16.73
355.692	87.72
355.903	42.67
356.115	52.91
356.326	52.91
356.538	30.38
356.749	26.28
356.961	48.81
357.172	-2.39
357.384	22.19
357.595	54.95
357.807	69.29
358.018	26.28
358.23	1.71
358.441	40.62
358.653	22.19
358.864	32.43
359.075	30.38
359.287	93.87
359.498	79.53
359.709	40.62
359.921	38.57
360.132	22.19
360.344	48.81
360.555	75.43
360.766	57
360.977	38.57
361.189	50.86
361.4	5.8
361.611	93.87
361.823	3.75
362.034	46.76
362.245	83.63
362.456	73.39
362.667	34.47
362.879	32.43
363.09	63.15
363.301	22.19
363.512	42.67
363.723	-18.77
363.935	-31.06
364.146	30.38
364.357	50.86
364.568	13.99
364.779	16.04
364.99	67.24
365.201	59.05
365.412	42.67
365.623	63.15
365.834	69.29
366.045	75.43
366.256	44.71
366.467	79.53
366.678	83.63
366.889	36.52
367.1	59.05
367.311	-6.49
367.522	-24.92
367.733	54.95
367.944	26.28
368.155	22.19
368.366	83.63
368.577	32.43
368.788	87.72
368.999	52.91
369.209	50.86
369.42	-26.96
369.631	73.39
369.842	48.81
370.053	32.43
370.264	-6.49
370.474	91.82
370.685	50.86
370.896	42.67
371.107	1.71
371.317	18.09
371.528	38.57
371.739	18.09
371.95	50.86
372.16	-26.96
372.371	63.15
372.582	9.9
372.792	26.28
373.003	138.92
373.214	59.05
373.424	61.1
373.635	24.23
373.846	34.47
374.056	3.75
374.267	79.53
374.477	28.33
374.688	7.85
374.898	40.62
375.109	63.15
375.319	34.47
375.53	59.05
375.74	79.53
375.951	110.25
376.161	36.52
376.372	65.19
376.582	48.81
376.793	71.34
377.003	67.24
377.214	22.19
377.424	73.39
377.635	3.75
377.845	54.95
378.055	54.95
378.266	34.47
378.476	83.63
378.686	13.99
378.897	110.25
379.107	83.63
379.317	20.14
379.528	28.33
379.738	108.2
379.948	42.67
380.158	38.57
380.369	81.58
380.579	26.28
380.789	-6.49
380.999	73.39
381.21	48.81
381.42	46.76
381.63	93.87
381.84	106.15
382.05	11.95
382.261	132.78
382.471	63.15
382.681	67.24
382.891	77.48
383.101	48.81
383.311	44.71
383.521	54.95
383.731	-0.34
383.941	18.09
384.151	28.33
384.361	46.76
384.571	-10.58
384.781	28.33
384.991	5.8
385.201	85.67
385.411	87.72
385.621	73.39
385.831	75.43
386.041	40.62
386.251	32.43
386.461	52.91
386.671	77.48
386.881	50.86
387.091	83.63
387.301	42.67
387.511	77.48
387.72	42.67
387.93	-6.49
388.14	95.91
388.35	-26.96
388.56	63.15
388.769	116.39
388.979	95.91
389.189	75.43
389.399	112.3
389.609	61.1
389.818	100.01
390.028	102.06
390.238	67.24
390.447	32.43
390.657	100.01
390.867	69.29
391.076	46.76
391.286	106.15
391.496	122.54
391.705	59.05
391.915	30.38
392.125	65.19
392.334	48.81
392.544	-10.58
392.753	77.48
392.963	69.29
393.172	87.72
393.382	85.67
393.591	54.95
393.801	52.91
394.01	32.43
394.22	36.52
394.429	93.87
394.639	112.3
394.848	-4.44
395.058	65.19
395.267	65.19
395.477	38.57
395.686	120.49
395.895	77.48
396.105	79.53
396.314	77.48
396.524	38.57
396.733	91.82
396.942	120.49
397.152	54.95
397.361	63.15
397.57	57
397.78	87.72
397.989	65.19
398.198	102.06
398.407	118.44
398.617	102.06
398.826	42.67
399.035	140.97
399.244	97.96
399.453	48.81
399.663	110.25
399.872	77.48
400.081	97.96
400.29	108.2
400.499	65.19
400.708	128.68
400.917	13.99
401.127	50.86
401.336	20.14
401.545	75.43
401.754	59.05
401.963	95.91
402.172	54.95
402.381	71.34
402.59	75.43
402.799	59.05
403.008	110.25
403.217	122.54
403.426	118.44
403.635	73.39
403.844	89.77
404.053	110.25
404.262	77.48
404.471	140.97
404.68	87.72
404.888	118.44
405.097	165.54
405.306	112.3
405.515	79.53
405.724	108.2
405.933	50.86
406.142	-0.34
406.35	73.39
406.559	145.06
406.768	93.87
406.977	136.87
407.185	171.69
407.394	190.12
407.603	140.97
407.812	97.96
408.02	173.74
408.229	155.3
408.438	118.44
408.646	157.35
408.855	122.54
409.064	231.08
409.272	202.41
409.481	224.94
409.69	163.5
409.898	216.74
410.107	169.64
410.315	186.02
410.524	222.89
410.733	233.13
410.941	126.63
411.15	212.65
411.358	251.56
411.567	171.69
411.775	214.7
411.984	188.07
412.192	216.74
412.401	251.56
412.609	269.99
412.818	284.33
413.026	300.71
413.234	374.44
413.443	263.85
413.651	294.57
413.86	345.77
414.068	435.88
414.276	364.2
414.485	319.14
414.693	325.29
414.901	466.6
415.11	360.1
415.318	439.97
415.526	433.83
415.734	515.75
415.943	417.44
416.151	390.82
416.359	431.78
416.567	495.27
416.776	394.92
416.984	571.04
417.192	564.9
417.4	612
417.608	575.14
417.817	525.99
418.025	583.33
418.233	638.62
418.441	661.15
418.649	763.55
418.857	683.68
419.065	802.46
419.273	751.26
419.481	763.55
419.689	814.75
419.897	857.76
420.105	890.53
420.313	880.29
420.521	878.24
420.729	880.29
420.937	990.88
421.145	1046.17
421.353	1052.31
421.561	1199.77
421.769	1123.99
421.977	1238.68
422.185	1171.1
422.393	1142.43
422.601	1308.31
422.809	1220.25
423.017	1255.06
423.224	1441.43
423.432	1425.04
423.64	1445.52
423.848	1629.84
424.056	1527.44
424.263	1515.16
424.471	1625.75
424.679	1556.11
424.887	1754.77
425.094	1801.87
425.302	1834.64
425.51	1926.8
425.718	1828.49
425.925	1932.94
426.133	1930.89
426.341	1990.28
426.548	2188.94
426.756	2109.07
426.964	2215.56
427.171	2412.17
427.379	2328.2
427.586	2365.06
427.794	2676.35
428.001	2643.59
428.209	2834.05
428.417	2799.23
428.624	2948.73
428.832	2905.73
429.039	2909.82
429.247	2889.34
429.454	3147.39
429.662	3346.04
429.869	3223.16
430.076	3450.49
430.284	3272.31
430.491	3446.39
430.699	3577.46
430.906	3638.9
431.114	3761.78
431.321	3802.74
431.528	3970.67
431.736	4075.12
431.943	4310.63
432.15	4142.7
432.358	4308.58
432.565	4392.55
432.772	4527.72
432.979	4720.23
433.187	4820.58
433.394	4994.65
433.601	5191.26
433.808	5164.64
434.016	5060.19
434.223	5348.95
434.43	5791.31
434.637	5475.93
434.844	5908.05
435.052	6094.41
435.259	6049.36
435.466	6014.54
435.673	5895.76
435.88	6342.22
436.087	6880.83
436.294	6678.08
436.501	6542.92
436.708	6823.49
436.915	6792.77
437.122	7204.41
437.329	7165.5
437.537	7300.67
437.743	7738.93
437.95	7634.49
438.157	8013.36
438.364	8218.16
438.571	8199.73
438.778	8189.49
438.985	9082.4
439.192	8558.12
439.399	8910.37
439.606	8803.88
439.813	9405.98
440.02	9909.78
440.227	9834
440.433	9524.76
440.64	9895.44
440.847	10042.9
441.054	10124.82
441.261	10591.75
441.467	10702.34
441.674	11021.83
441.881	11058.69
442.088	11230.72
442.294	11027.97
442.501	11261.44
442.708	11539.96
442.914	12051.95
443.121	12688.87
443.328	12209.65
443.534	13237.73
443.741	12895.72
443.948	12641.77
444.154	13563.36
444.361	13475.29
444.568	13508.06
444.774	13534.68
444.981	13622.75
445.187	14112.21
445.394	14400.97
445.6	14441.93
445.807	15918.52
446.013	15384
446.22	15523.26
446.426	16281.01
446.633	16303.54
446.839	16786.86
447.046	16199.09
447.252	16901.54
447.459	17112.49
447.665	17001.9
447.871	17939.86
448.078	18621.84
448.284	17751.45
448.491	17683.87
448.697	18646.41
448.903	19029.38
449.11	19234.18
449.316	18840.97
449.522	19363.2
449.728	19838.33
449.935	20170.1
450.141	19965.31
450.347	20548.98
450.553	19776.89
450.76	20243.83
450.966	20743.53
451.172	20831.6
451.378	21181.8
451.584	20753.77
451.791	20942.19
451.997	21040.49
452.203	21583.2
452.409	21542.24
452.615	21419.36
452.821	20716.91
453.027	20217.21
453.233	21525.86
453.44	20622.7
453.646	20944.24
453.852	21060.97
454.058	21321.06
454.264	20598.13
454.47	21253.48
454.676	20661.62
454.882	21349.73
455.088	19453.31
455.294	19875.2
455.5	20211.06
455.705	20204.92
455.911	19617.15
456.117	19193.22
456.323	18955.66
456.529	17882.52
456.735	18552.21
456.941	18283.92
457.147	17929.63
457.352	17417.63
457.558	17116.58
457.764	17309.09
457.97	17026.47
458.176	16557.49
458.381	16625.07
458.587	15764.92
458.793	15836.6
458.999	14962.12
459.204	16119.22
459.41	15572.41
459.616	14595.53
459.821	14652.88
460.027	14341.58
460.233	14253.52
460.438	13571.55
460.644	13694.43
460.85	13129.19
461.055	12772.84
461.261	12967.4
461.466	11802.1
461.672	11406.84
461.878	12314.09
462.083	11408.89
462.289	11339.26
462.494	11167.23
462.7	10608.14
462.905	10477.07
463.111	10784.26
463.316	10962.44
463.522	10456.59
463.727	10708.49
463.932	10601.99
464.138	10567.18
464.343	10853.89
464.549	10288.65
464.754	10886.66
464.959	10505.74
465.165	10696.2
465.37	10057.23
465.575	9877.01
465.781	10391.05
465.986	10399.24
466.191	9926.16
466.397	9649.69
466.602	9436.7
466.807	9594.39
467.012	9680.41
467.218	9500.19
467.423	9641.5
467.628	9494.04
467.833	9940.5
468.038	9707.03
468.244	9121.31
468.449	9745.94
468.654	9401.88
468.859	9360.92
469.064	9201.18
469.269	9072.16
469.474	8869.41
469.679	9307.68
469.885	8943.14
470.09	9192.99
470.295	8881.7
470.5	8629.8
470.705	8730.15
470.91	8625.7
471.115	8398.38
471.32	8648.23
471.525	8582.7
471.73	8441.39
471.935	8445.48
472.139	8134.19
472.344	8302.12
472.549	8082.99
472.754	8169.01
472.959	7790.13
473.164	7607.86
473.369	7548.47
473.574	7865.91
473.778	7863.86
473.983	7650.87
474.188	7738.93
474.393	7423.55
474.598	7552.57
474.802	7388.73
475.007	7216.7
475.212	7364.15
475.417	6948.42
475.621	6958.66
475.826	6944.32
476.031	6942.27
476.235	6639.17
476.44	6803.01
476.645	6452.81
476.849	6651.46
477.054	6606.41
477.259	6569.54
477.463	6551.11
477.668	6467.14
477.872	6417.99
478.077	6301.26
478.282	6108.75
478.486	6022.73
478.691	6110.8
478.895	6067.79
479.1	5969.49
479.304	5928.53
479.509	5865.04
479.713	5908.05
479.918	5926.48
480.122	5758.55
480.326	5807.7
480.531	5807.7
480.735	5731.92
480.94	5676.63
481.144	5721.68
481.348	5592.66
481.553	5561.94
481.757	5455.45
481.961	5662.29
482.166	5727.83
482.37	5635.67
482.574	5492.31
482.778	5736.02
482.983	5672.53
483.187	5615.19
483.391	5482.07
483.595	5596.76
483.8	5684.82
484.004	5533.27
484.208	5744.21
484.412	5563.99
484.616	5635.67
484.821	5676.63
485.025	5529.17
485.229	5690.96
485.433	5686.87
485.637	5611.09
485.841	5645.91
486.045	5733.97
486.249	5455.45
486.453	5666.39
486.657	5729.88
486.861	5672.53
487.065	5533.27
487.269	5709.4
487.473	5514.84
487.677	5650
487.881	5707.35
488.085	5619.28
488.289	5752.4
488.493	5643.86
488.697	5711.44
488.901	5723.73
489.105	5740.12
489.309	5856.85
489.512	5666.39
489.716	5838.42
489.92	5733.97
490.124	5768.79
490.328	6014.54
490.531	5793.36
490.735	5973.58
490.939	6059.6
491.143	5908.05
491.346	5834.32
491.55	6084.17
491.754	5871.19
491.958	6114.89
492.161	6143.56
492.365	6057.55
492.569	6071.89
492.772	6139.47
492.976	6213.2
493.18	6280.78
493.383	6272.59
493.587	6444.62
493.79	6458.95
493.994	6327.88
494.197	6514.25
494.401	6528.58
494.605	6485.58
494.808	6657.61
495.012	6856.26
495.215	6508.1
495.419	6659.65
495.622	6737.48
495.825	6944.32
496.029	6753.86
496.232	7059.01
496.436	7073.34
496.639	7304.76
496.843	7151.17
497.046	7296.57
497.249	7562.81
497.453	7597.62
497.656	7583.29
497.859	7607.86
498.063	7654.97
498.266	8017.46
498.469	8080.94
498.673	7880.24
498.876	8150.57
499.079	8275.5
499.282	8085.04
499.485	8531.5
499.689	8617.51
499.892	8560.17
500.095	8707.62
500.298	9090.59
500.501	8881.7
500.705	9106.98
500.908	9301.53
501.111	9070.11
501.314	9403.93
501.517	9547.29
501.72	9731.61
501.923	9698.84
502.126	9940.5
502.329	10161.68
502.532	10319.37
502.735	10264.08
502.938	10458.64
503.141	10737.16
503.344	10810.89
503.547	10728.97
503.75	11019.78
503.953	11245.06
504.156	11216.38
504.359	11374.08
504.562	11587.07
504.765	11873.78
504.968	11963.89
505.17	12008.95
505.373	12332.53
505.576	12295.66
505.779	12537.32
505.982	12973.54
506.185	12901.86
506.387	12862.95
506.59	13260.26
506.793	13428.19
506.996	13336.03
507.198	13938.13
507.401	13721.05
507.604	14185.94
507.807	14218.71
508.009	14411.21
508.212	14392.78
508.415	14966.21
508.617	14757.32
508.82	14974.41
509.022	15216.07
509.225	15386.05
509.428	15617.47
509.63	15605.18
509.833	15746.49
510.035	16324.02
510.238	16158.13
510.44	16453.04
510.643	16733.61
510.845	16813.48
511.048	16672.17
511.25	17319.33
511.453	17171.88
511.655	17825.18
511.858	17790.36
512.06	18152.85
512.262	18048.41
512.465	18019.74
512.667	18867.59
512.87	18679.18
513.072	18898.31
513.274	19375.49
513.477	19377.54
513.679	19760.51
513.881	19770.75
514.084	20014.46
514.286	20135.29
514.488	20520.31
514.69	20903.28
514.893	21237.09
515.095	20993.39
515.297	21114.22
515.499	21384.55
515.701	21765.47
515.904	22025.56
516.106	22058.33
516.308	22369.62
516.51	22779.22
516.712	22953.29
516.914	23020.88
517.116	23299.4
517.318	23416.13
517.52	23758.14
517.722	24032.57
517.925	24411.45
518.127	24452.41
518.329	24808.75
518.531	24765.74
518.733	25388.33
518.935	25070.89
519.136	25287.98
519.338	25769.25
519.54	25853.22
519.742	25994.53
519.944	26172.7
520.146	26623.25
520.348	26670.36
520.55	27084.05
520.752	26950.93
520.954	27682.05
521.155	27399.43
521.357	27839.75
521.559	28136.7
521.761	28425.46
521.963	28439.8
522.164	29015.28
522.366	28691.7
522.568	28853.49
522.77	29183.21
522.971	29562.09
523.173	29451.5
523.375	29764.84
523.576	29775.08
523.778	29943.01
523.98	30299.36
524.181	30729.43
524.383	30457.05
524.584	31059.15
524.786	30995.67
524.988	30825.68
525.189	31452.36
525.391	31329.48
525.592	31763.65
525.794	32019.65
525.995	32144.58
526.197	31919.3
526.398	31945.92
526.6	32494.78
526.801	32797.88
527.003	32789.69
527.204	32527.55
527.406	32937.14
527.607	33086.64
527.808	33266.86
528.01	32629.94
528.211	33191.09
528.412	33506.48
528.614	33524.91
528.815	33565.87
529.016	34063.52
529.218	33696.94
529.419	34071.71
529.62	34141.35
529.822	34266.27
530.023	34190.5
530.224	34284.7
530.425	34313.38
530.626	34315.42
530.828	34079.91
531.029	34886.81
531.23	34907.29
531.431	34731.16
531.632	34829.46
531.833	34882.71
532.035	34921.62
532.236	35126.42
532.437	35300.5
532.638	35038.36
532.839	35257.49
533.04	35323.02
533.241	34878.61
533.442	35499.15
533.643	35501.2
533.844	35304.59
534.045	35591.31
534.246	35155.09
534.447	35701.9
534.648	35611.79
534.849	35619.98
535.05	35630.22
535.251	35331.22
535.451	35501.2
535.652	35759.24
535.853	35798.15
536.054	35419.28
536.255	36045.96
536.456	35751.05
536.657	36347.01
536.857	36228.23
537.058	35986.57
537.259	36357.25
537.46	36031.62
537.66	36000.9
537.861	36013.19
538.062	36496.51
538.263	36222.08
538.463	35957.89
538.664	36246.66
538.865	36119.68
539.065	36134.02
539.266	35644.55
539.466	36500.61
539.667	35849.35
539.868	36848.76
540.068	36244.61
540.269	36617.34
540.469	36672.64
540.67	36414.59
540.87	36209.79
541.071	36050.05
541.271	36656.25
541.472	36400.26
541.672	36199.55
541.873	36539.52
542.073	36017.29
542.274	37028.98
542.474	36537.47
542.675	36308.1
542.875	36623.48
543.075	36560
543.276	36324.48
543.476	36805.75
543.676	36400.26
543.877	37160.05
544.077	36412.54
544.277	36512.89
544.478	36799.61
544.678	36918.39
544.878	36603
545.078	36453.5
545.279	36443.26
545.479	36750.46
545.679	36660.35
545.879	36754.55
546.079	36820.09
546.28	36535.42
546.48	35996.81
546.68	36854.9
546.88	36856.95
547.08	36832.38
547.28	36637.82
547.48	36453.5
547.68	36471.93
547.88	36607.1
548.081	36516.99
548.281	36330.62
548.481	36719.74
548.681	36553.85
548.881	36906.1
549.081	36662.4
549.28	36424.83
549.48	37035.13
549.68	36416.64
549.88	37055.61
550.08	36193.41
550.28	36519.04
550.48	36955.25
550.68	36725.88
550.88	36795.51
551.08	36828.28
551.279	37008.5
551.479	36428.93
551.679	36834.42
551.879	36920.44
552.079	37158
552.278	36902.01
552.478	36615.29
552.678	36922.49
552.878	36912.25
553.077	36656.25
553.277	36316.29
553.477	36981.88
553.676	36519.04
553.876	36818.04
554.076	36566.14
554.275	36758.65
554.475	36371.58
554.674	36504.7
554.874	36506.75
555.074	36574.33
555.273	36635.77
555.473	36650.11
555.672	36377.73
555.872	36705.4
556.071	36635.77
556.271	36641.92
556.47	36312.19
556.67	36144.26
556.869	36498.56
557.068	36471.93
557.268	36154.5
557.467	36154.5
557.667	36289.66
557.866	36445.31
558.065	36289.66
558.265	36199.55
558.464	36043.91
558.663	36770.94
558.863	36013.19
559.062	36662.4
559.261	35873.93
559.461	36674.68
559.66	36172.93
559.859	36543.61
560.058	36027.52
560.258	36209.79
560.457	36252.8
560.656	36162.69
560.855	35910.79
561.054	36217.99
561.253	35710.09
561.453	36275.33
561.652	36066.44
561.851	36101.25
562.05	35722.38
562.249	35705.99
562.448	35992.71
562.647	35994.76
562.846	35652.75
563.045	36179.07
563.244	35294.35
563.443	36115.59
563.642	35427.47
563.841	35331.22
564.04	35708.04
564.239	36246.66
564.438	35343.5
564.637	35740.81
564.836	35648.65
565.035	35447.95
565.234	35576.97
565.432	35337.36
565.631	35656.84
565.83	35775.62
566.029	35476.62
566.228	35579.02
566.427	35054.74
566.625	35781.77
566.824	35148.95
567.023	35587.21
567.222	34753.69
567.42	35890.31
567.619	35071.12
567.818	35304.59
568.016	35069.08
568.215	35744.91
568.414	35071.12
568.612	35525.77
568.811	35273.87
569.01	35044.5
569.208	34514.08
569.407	34856.09
569.605	34657.43
569.804	35187.86
570.002	34751.64
570.201	34872.47
570.4	34868.37
570.598	34602.14
570.797	34647.19
570.995	34686.11
571.193	34151.59
571.392	34782.36
571.59	34499.74
571.789	34421.92
571.987	34290.85
572.186	34208.93
572.384	34081.95
572.582	34376.86
572.781	34532.51
572.979	33975.46
573.177	33946.79
573.376	34231.46
573.574	33948.84
573.772	34067.62
573.971	33762.47
574.169	33625.26
574.367	33557.67
574.565	33862.82
574.763	33643.69
574.962	33629.35
575.16	32910.52
575.358	33518.76
575.556	33182.9
575.754	33768.62
575.952	33129.65
576.151	33608.87
576.349	32892.08
576.547	33004.72
576.745	33127.6
576.943	33459.37
577.141	32953.52
577.339	33189.04
577.537	32726.2
577.735	32433.34
577.933	32482.49
578.131	32730.3
578.329	32570.55
578.527	32322.75
578.725	32482.49
578.923	32580.79
579.121	32048.32
579.319	32079.04
579.516	32091.33
579.714	31933.64
579.912	31792.33
580.11	31825.09
580.308	31706.31
580.506	31974.59
580.704	31626.44
580.901	31423.69
581.099	31675.59
581.297	31304.91
581.495	31556.81
581.692	31753.41
581.89	31360.2
582.088	31521.99
582.285	31458.51
582.483	31474.89
582.681	31501.51
582.878	31139.02
583.076	30928.08
583.274	31241.42
583.471	30553.3
583.669	30768.34
583.866	30594.26
584.064	30459.1
584.262	30287.07
584.459	30571.74
584.657	30647.51
584.854	30758.1
585.052	30248.16
585.249	30072.03
585.447	30098.66
585.644	30024.93
585.841	29990.11
586.039	30364.89
586.236	29701.35
586.434	29660.39
586.631	29750.5
586.828	29967.59
587.026	29713.64
587.223	29402.35
587.42	29359.34
587.618	29461.74
587.815	29099.25
588.012	28859.63
588.21	29187.31
588.407	29308.14
588.604	29052.14
588.801	28923.12
588.999	28763.38
589.196	28798.2
589.393	28820.72
589.59	28517.62
589.787	28249.34
589.984	28247.29
590.182	28206.33
590.379	28464.38
590.576	28144.89
590.773	28390.65
590.97	28239.1
591.167	28372.22
591.364	27774.21
591.561	27958.53
591.758	27614.47
591.955	27520.26
592.152	28138.75
592.349	27430.15
592.546	27534.6
592.743	27534.6
592.94	26834.19
593.137	27370.76
593.334	27544.84
593.531	27016.46
593.727	27530.5
593.924	27243.79
594.121	26844.43
594.318	26961.17
594.515	26805.52
594.712	27014.41
594.908	26393.88
595.105	26516.76
595.302	26242.33
595.499	26709.27
595.696	26326.3
595.892	26230.04
596.089	26293.53
596.286	26438.94
596.482	26137.88
596.679	26293.53
596.876	26127.64
597.072	25916.7
597.269	25675.04
597.466	25812.26
597.662	25957.66
597.859	25439.53
598.055	25730.34
598.252	25306.41
598.448	25396.52
598.645	25191.72
598.841	24837.42
599.038	25380.14
599.234	25244.97
599.431	24745.27
599.627	24907.05
599.824	24749.36
600.02	24982.83
600.217	24698.16
600.413	24419.64
600.609	24855.86
600.806	24315.19
601.002	24503.6
601.198	24304.95
601.395	24110.39
601.591	24227.13
601.787	24479.03
601.984	24130.87
602.18	24216.89
602.376	24016.19
602.572	23641.41
602.769	23995.71
602.965	23467.33
603.161	23706.94
603.357	23385.41
603.553	23715.14
603.75	23579.97
603.946	23313.73
604.142	23444.8
604.338	22967.63
604.534	23317.83
604.73	23139.66
604.926	23047.5
605.122	23045.45
605.318	23008.59
605.514	22752.59
605.71	22648.15
605.906	22760.78
606.102	22670.67
606.298	22834.51
606.494	22607.19
606.69	22728.02
606.886	22666.58
607.082	22105.43
607.278	22367.57
607.474	22111.58
607.67	22250.84
607.866	22099.29
608.062	22048.09
608.257	22134.1
608.453	22062.43
608.649	22232.41
608.845	21874.01
609.041	21855.58
609.236	21904.73
609.432	22179.16
609.628	21706.08
609.824	21910.88
610.019	21689.7
610.215	21589.35
610.411	21347.68
610.606	21482.85
610.802	21642.59
610.998	21521.76
611.193	21411.17
611.389	21155.18
611.584	21273.96
611.78	21038.44
611.976	21396.84
612.171	21054.83
612.367	21015.91
612.562	20901.23
612.758	20671.86
612.953	20731.25
613.149	21089.64
613.344	20548.98
613.539	21271.91
613.735	20710.77
613.93	20706.67
614.126	20395.38
614.321	20837.74
614.517	20634.99
614.712	20567.41
614.907	20438.39
615.103	20600.18
615.298	20460.91
615.493	20618.61
615.688	20073.85
615.884	20790.64
616.079	20229.49
616.274	20245.88
616.47	20268.41
616.665	20108.66
616.86	19799.42
617.055	20147.58
617.25	19944.83
617.445	20172.15
617.641	19967.35
617.836	19791.23
618.031	19625.34
618.226	19899.77
618.421	19496.32
618.616	19467.65
618.811	19316.1
619.006	19686.78
619.201	19176.84
619.396	19352.96
619.591	19053.96
619.786	19438.98
619.981	18879.88
620.176	19049.86
620.371	18724.24
620.566	18820.49
620.761	18818.44
620.956	18781.58
621.151	18388.37
621.346	18429.33
621.541	18050.46
621.735	18513.3
621.93	18269.59
622.125	18107.8
622.32	18093.46
622.515	18005.4
622.709	17735.07
622.904	17782.17
623.099	17757.6
623.294	17661.34
623.488	17579.42
623.683	17436.06
623.878	17038.76
624.072	16999.85
624.267	17362.34
624.462	17165.73
624.656	16881.07
624.851	17114.53
625.046	16786.86
625.24	16784.81
625.435	16737.71
625.629	16672.17
625.824	16522.67
626.018	16395.7
626.213	15869.37
626.407	16025.01
626.602	15961.53
626.796	15930.81
626.991	16039.35
627.185	16119.22
627.38	15828.41
627.574	15734.2
627.768	15539.65
627.963	15465.92
628.157	15252.93
628.352	15472.06
628.546	14986.69
628.74	15289.79
628.935	15121.86
629.129	15033.8
629.323	15183.3
629.517	14824.9
629.712	14775.75
629.906	14710.22
630.1	14362.06
630.294	14640.59
630.489	14425.55
630.683	14368.21
630.877	14333.39
631.071	14366.16
631.265	14253.52
631.459	14204.37
631.653	14196.18
631.848	13784.54
632.042	14044.63
632.236	13807.06
632.43	13622.75
632.624	13891.03
632.818	13737.43
633.012	13358.56
633.206	13270.5
633.4	13600.22
633.594	13139.43
633.788	13293.02
633.982	13290.98
634.176	13133.28
634.369	13077.99
634.563	13258.21
634.757	12944.87
634.951	12875.24
635.145	12869.09
635.339	12918.25
635.533	12582.38
635.726	12588.52
635.92	12625.39
636.114	12451.31
636.308	12541.42
636.501	12461.55
636.695	12529.13
636.889	12264.94
637.083	12170.74
637.276	12076.53
637.47	12068.34
637.664	12023.28
637.857	11875.83
638.051	11900.41
638.244	12121.59
638.438	11787.77
638.632	11566.59
638.825	11734.52
639.019	11460.09
639.212	11453.95
639.406	11404.8
639.599	11224.58
639.793	11365.89
639.986	11079.17
640.18	11126.27
640.373	11208.19
640.567	11001.35
640.76	11187.71
640.954	10984.96
641.147	10788.36
641.34	10726.92
641.534	10751.49
641.727	10620.42
641.92	10677.77
642.114	10778.12
642.307	10470.92
642.5	10374.67
642.694	10264.08
642.887	10100.24
643.08	10401.29
643.273	10374.67
643.467	10046.99
643.66	9977.36
643.853	10028.56
644.046	9788.95
644.239	9993.75
644.432	9907.73
644.626	9565.72
644.819	9889.3
645.012	9791
645.205	9537.05
645.398	9684.5
645.591	9469.47
645.784	9350.68
645.977	9418.27
646.17	9459.23
646.363	9127.46
646.556	9025.06
646.749	9293.34
646.942	9195.04
647.135	9002.53
647.328	8930.85
647.521	8967.71
647.714	8824.36
647.907	8887.84
648.099	8685.09
648.292	8666.66
648.485	8572.46
648.678	8631.85
648.871	8609.32
649.064	8453.67
649.256	8474.15
649.449	8511.02
649.642	8332.84
649.835	8183.34
650.027	8265.26
650.22	8250.92
650.413	8058.42
650.605	8039.98
650.798	8078.9
650.991	7794.23
651.183	8056.37
651.376	7802.42
651.568	8009.26
651.761	7835.19
651.954	7566.9
652.146	7880.24
652.339	7611.96
652.531	7575.1
652.724	7640.63
652.916	7491.13
653.109	7487.03
653.301	7282.24
653.494	7446.07
653.686	7349.82
653.879	7362.11
654.071	7118.4
654.263	7276.09
654.456	7118.4
654.648	7206.46
654.84	7052.86
655.033	7069.25
655.225	6966.85
655.417	6940.22
655.61	6993.47
655.802	6901.31
655.994	6858.31
656.186	6813.25
656.379	6809.15
656.571	6794.82
656.763	6719.04
656.955	6559.3
657.148	6671.94
657.34	6391.37
657.532	6323.79
657.724	6403.66
657.916	6340.17
658.108	6358.6
658.3	6389.32
658.492	6377.03
658.684	6194.76
658.876	6164.04
659.068	6272.59
659.26	6145.61
659.452	6002.26
659.644	6012.49
659.836	5873.23
660.028	5977.68
660.22	5805.65
660.412	5944.91
660.604	5832.27
660.796	5871.19
660.988	5828.18
661.18	5547.61
661.372	5613.14
661.563	5731.92
661.755	5715.54
661.947	5533.27
662.139	5611.09
662.331	5469.78
662.522	5269.08
662.714	5242.46
662.906	5463.64
663.097	5213.79
663.289	5148.25
663.481	5129.82
663.673	5152.35
663.864	5054.05
664.056	5015.13
664.247	4943.46
664.439	5019.23
664.631	5049.95
664.822	4789.86
665.014	4785.76
665.205	4841.06
665.397	4953.7
665.588	4961.89
665.78	4716.13
665.971	4662.88
666.163	4744.8
666.354	4707.94
666.546	4634.21
666.737	4634.21
666.929	4589.16
667.12	4447.85
667.311	4568.68
667.503	4388.46
667.694	4494.95
667.885	4470.37
668.077	4431.46
668.268	4435.56
668.459	4376.17
668.651	4255.34
668.842	4255.34
669.033	4263.53
669.224	4097.64
669.416	4216.43
669.607	4134.51
669.798	4114.03
669.989	4050.54
670.18	4087.4
670.371	4005.49
670.563	4058.73
670.754	4005.49
670.945	4021.87
671.136	3976.81
671.327	3970.67
671.518	3974.77
671.709	3993.2
671.9	3923.57
672.091	3860.08
672.282	3733.11
672.473	3794.54
672.664	3772.02
672.855	3759.73
673.046	3788.4
673.237	3790.45
673.428	3724.91
673.619	3540.6
673.809	3548.79
674	3675.76
674.191	3532.4
674.382	3618.42
674.573	3550.84
674.764	3466.87
674.954	3579.51
675.145	3425.91
675.336	3458.68
675.527	3458.68
675.717	3608.18
675.908	3397.24
676.099	3452.53
676.289	3362.42
676.48	3368.57
676.671	3333.75
676.861	3286.65
677.052	3262.07
677.243	3282.55
677.433	3387
677.624	3323.51
677.814	3305.08
678.005	3278.46
678.195	3325.56
678.386	3139.19
678.576	3163.77
678.767	3241.59
678.957	3122.81
679.148	3112.57
679.338	3120.76
679.529	3108.48
679.719	3081.85
679.909	3131
680.1	3014.27
680.29	3020.41
680.481	3018.36
680.671	3098.24
680.861	2995.84
681.052	2952.83
681.242	2905.73
681.432	3112.57
681.622	2973.31
681.813	3022.46
682.003	2893.44
682.193	2973.31
682.383	3049.08
682.573	2975.36
682.764	2995.84
682.954	2883.2
683.144	3028.6
683.334	2887.29
683.524	2918.01
683.714	2899.58
683.904	2780.8
684.094	2956.93
684.284	2885.25
684.474	2975.36
684.664	2963.07
684.854	2905.73
685.044	2897.53
685.234	2963.07
685.424	2862.72
685.614	2926.21
685.804	2942.59
685.994	2905.73
686.184	2940.54
686.374	2838.14
686.564	2840.19
686.753	2956.93
686.943	2883.2
687.133	2813.57
687.323	2748.03
687.513	2836.1
687.702	2772.61
687.892	2836.1
688.082	2682.5
688.272	2844.29
688.461	2967.17
688.651	2895.49
688.841	2850.43
689.03	2856.58
689.22	2848.38
689.41	2872.96
689.599	2655.87
689.789	2940.54
689.979	2895.49
690.168	2846.34
690.358	2743.94
690.547	2887.29
690.737	2801.28
690.926	2727.55
691.116	2694.79
691.305	2840.19
691.495	2809.47
691.684	2713.22
691.874	2829.95
692.063	2664.07
692.252	2883.2
692.442	2680.45
692.631	2725.51
692.82	2815.62
693.01	2825.86
693.199	2733.7
693.388	2678.4
693.578	2875.01
693.767	2817.66
693.956	2815.62
694.146	2655.87
694.335	2637.44
694.524	2743.94
694.713	2743.94
694.902	2733.7
695.092	2709.12
695.281	2692.74
695.47	2590.34
695.659	2559.62
695.848	2614.91
696.037	2686.59
696.226	2510.47
696.415	2559.62
696.604	2573.96
696.793	2709.12
696.982	2586.24
697.171	2537.09
697.36	2631.3
697.549	2571.91
697.738	2619.01
697.927	2551.43
698.116	2637.44
698.305	2578.05
698.494	2522.76
698.683	2698.88
698.872	2614.91
699.061	2569.86
699.25	2543.24
699.438	2369.16
699.627	2489.99
699.816	2381.45
700.005	2414.21
700.193	2430.6
700.382	2455.17
700.571	2533
700.76	2551.43
700.948	2481.8
701.137	2338.44
701.326	2424.45
701.514	2360.97
701.703	2313.86
701.892	2389.64
702.08	2377.35
702.269	2360.97
702.457	2346.63
702.646	2403.97
702.834	2193.03
703.023	2334.34
703.212	2281.1
703.4	2223.75
703.589	2322.06
703.777	2344.58
703.965	2326.15
704.154	2223.75
704.342	2250.38
704.531	2229.9
704.719	2123.4
704.907	2223.75
705.096	2125.45
705.284	2209.42
705.472	2186.89
705.661	2190.99
705.849	2211.46
706.037	2066.06
706.226	2274.95
706.414	2193.03
706.602	2137.74
706.79	2178.7
706.979	2113.16
707.167	2084.49
707.355	2082.44
707.543	2121.35
707.731	2059.92
707.919	1988.24
708.107	2029.2
708.296	1947.28
708.484	2000.52
708.672	1840.78
708.86	2061.96
709.048	1955.47
709.236	2002.57
709.424	1965.71
709.612	1963.66
709.8	1953.42
709.988	2012.81
710.176	1971.85
710.364	2000.52
710.551	1988.24
710.739	1781.39
710.927	1879.69
711.115	1859.21
711.303	1887.89
711.491	1869.45
711.679	1873.55
711.866	1922.7
712.054	1945.23
712.242	1844.88
712.43	1781.39
712.617	1846.93
712.805	1752.72
712.993	1808.02
713.181	1748.62
713.368	1803.92
713.556	1742.48
713.744	1742.48
713.931	1744.53
714.119	1642.13
714.306	1715.86
714.494	1635.99
714.682	1658.51
714.869	1597.07
715.057	1664.66
715.244	1549.97
715.432	1654.42
715.619	1650.32
715.807	1617.55
715.994	1574.55
716.182	1629.84
716.369	1609.36
716.556	1613.46
716.744	1549.97
716.931	1687.18
717.119	1511.06
717.306	1529.49
717.493	1560.21
717.681	1531.54
717.868	1570.45
718.055	1423
718.242	1459.86
718.43	1603.22
718.617	1533.59
718.804	1451.67
718.991	1478.29
719.179	1353.37
719.366	1455.76
719.553	1531.54
719.74	1443.48
719.927	1441.43
720.114	1502.87
720.301	1427.09
720.488	1472.15
720.676	1355.41
720.863	1511.06
721.05	1388.18
721.237	1384.09
721.424	1400.47
721.611	1447.57
721.798	1377.94
721.985	1324.69
722.172	1265.3
722.358	1404.57
722.545	1318.55
722.732	1275.54
722.919	1351.32
723.106	1353.37
723.293	1275.54
723.48	1310.36
723.667	1371.8
723.853	1167
724.04	1234.58
724.227	1259.16
724.414	1179.29
724.6	1261.21
724.787	1232.54
724.974	1277.59
725.161	1164.95
725.347	1285.78
725.534	1226.39
725.72	1283.74
725.907	1167
726.094	1222.3
726.28	1226.39
726.467	1136.28
726.653	1181.34
726.84	1150.62
727.027	1187.48
727.213	1085.08
727.4	1259.16
727.586	1203.86
727.773	1144.47
727.959	1169.05
728.145	1160.86
728.332	1085.08
728.518	1056.41
728.705	1199.77
728.891	1062.55
729.077	1087.13
729.264	1089.18
729.45	1050.27
729.636	1123.99
729.823	1130.14
730.009	1078.94
730.195	1062.55
730.382	1056.41
730.568	1091.23
730.754	1095.32
730.94	978.59
731.126	919.2
731.313	999.07
731.499	1044.12
731.685	1027.74
731.871	990.88
732.057	1062.55
732.243	1062.55
732.429	978.59
732.615	1025.69
732.801	1021.6
732.987	1052.31
733.173	1042.07
733.359	1056.41
733.545	898.72
733.731	951.96
733.917	962.2
734.103	982.68
734.289	935.58
734.475	878.24
734.661	984.73
734.847	927.39
735.033	1074.84
735.219	908.96
735.404	956.06
735.59	904.86
735.776	927.39
735.962	921.24
736.148	868
736.333	1019.55
736.519	841.37
736.705	878.24
736.89	853.66
737.076	911
737.262	853.66
737.447	911
737.633	835.23
737.819	878.24
738.004	892.57
738.19	906.91
738.375	870.05
738.561	806.56
738.747	827.04
738.932	835.23
739.118	892.57
739.303	847.52
739.489	859.81
739.674	781.98
739.859	802.46
740.045	835.23
740.23	833.18
740.416	788.13
740.601	800.41
740.786	767.65
740.972	767.65
741.157	759.46
741.342	765.6
741.528	706.21
741.713	804.51
741.898	765.6
742.084	685.73
742.269	786.08
742.454	671.39
742.639	808.61
742.824	726.69
743.01	714.4
743.195	771.74
743.38	693.92
743.565	714.4
743.75	648.86
743.935	753.31
744.12	761.5
744.305	702.11
744.49	693.92
744.675	632.48
744.86	689.82
745.045	663.2
745.23	652.96
745.415	724.64
745.6	599.71
745.785	677.54
745.97	675.49
746.155	677.54
746.34	659.1
746.525	624.29
746.71	679.58
746.895	665.25
747.079	607.91
747.264	655.01
747.449	638.62
747.634	695.97
747.819	620.19
748.003	667.3
748.188	485.03
748.373	558.75
748.557	538.27
748.742	630.43
748.927	605.86
749.111	618.15
749.296	642.72
749.481	595.62
749.665	589.47
749.85	579.23
750.034	599.71
750.219	597.67
750.404	564.9
750.588	521.89
750.773	566.95
750.957	538.27
751.141	528.03
751.326	632.48
751.51	528.03
751.695	532.13
751.879	620.19
752.064	528.03
752.248	487.08
752.432	530.08
752.617	562.85
752.801	480.93
752.985	478.88
753.17	560.8
753.354	581.28
753.538	501.41
753.722	542.37
753.907	530.08
754.091	460.45
754.275	431.78
754.459	495.27
754.643	499.36
754.828	472.74
755.012	513.7
755.196	472.74
755.38	542.37
755.564	407.2
755.748	495.27
755.932	435.88
756.116	423.59
756.3	411.3
756.484	409.25
756.668	487.08
756.852	415.4
757.036	448.16
757.22	505.51
757.404	554.66
757.588	489.12
757.772	425.64
757.956	466.6
758.14	423.59
758.323	466.6
758.507	421.54
758.691	458.4
758.875	411.3
759.059	482.98
759.242	456.36
759.426	478.88
759.61	464.55
759.794	452.26
759.977	419.49
760.161	421.54
760.345	362.15
760.528	431.78
760.712	394.92
760.895	366.25
761.079	374.44
761.263	433.83
761.446	444.07
761.63	358.05
761.813	472.74
761.997	421.54
762.18	349.86
762.364	429.73
762.547	356.01
762.731	396.96
762.914	304.81
763.098	376.48
763.281	382.63
763.464	319.14
763.648	401.06
763.831	335.53
764.015	382.63
764.198	366.25
764.381	401.06
764.564	454.31
764.748	351.91
764.931	411.3
765.114	351.91
765.297	374.44
765.481	331.43
765.664	353.96
765.847	298.66
766.03	407.2
766.213	331.43
766.397	439.97
766.58	360.1
766.763	378.53
766.946	388.77
767.129	313
767.312	315.05
767.495	382.63
767.678	282.28
767.861	399.01
768.044	284.33
768.227	409.25
768.41	315.05
768.593	360.1
768.776	401.06
768.959	329.38
769.142	368.29
769.324	282.28
769.507	374.44
769.69	339.62
769.873	388.77
770.056	339.62
770.239	396.96
770.421	353.96
770.604	376.48
770.787	356.01
770.97	302.76
771.152	353.96
771.335	335.53
771.518	343.72
771.7	360.1
771.883	327.33
772.066	335.53
772.248	300.71
772.431	327.33
772.613	331.43
772.796	343.72
772.978	347.81
773.161	290.47
773.343	372.39
773.526	308.9
773.708	310.95
773.891	284.33
774.073	362.15
774.256	368.29
774.438	292.52
774.621	249.51
774.803	269.99
774.985	329.38
775.168	337.57
775.35	310.95
775.532	333.48
775.715	321.19
775.897	249.51
776.079	345.77
776.261	337.57
776.444	333.48
776.626	339.62
776.808	286.37
776.99	294.57
777.173	292.52
777.355	241.32
777.537	308.9
777.719	284.33
777.901	292.52
778.083	345.77
778.265	278.18
778.447	321.19
778.629	294.57
778.811	341.67
778.993	294.57
779.175	235.18
779.357	290.47
779.539	267.94
779.721	282.28
779.903	331.43
780.085	259.75
780.267	278.18
780.449	208.55
780.631	253.61
780.812	265.89
780.994	192.17
781.176	206.5
781.358	255.65
781.54	206.5
781.721	257.7
781.903	188.07
782.085	298.66
782.267	190.12
782.448	286.37
782.63	204.46
782.812	212.65
782.993	229.03
783.175	241.32
783.357	229.03
783.538	245.41
783.72	210.6
783.901	261.8
784.083	263.85
784.264	243.37
784.446	288.42
784.627	163.5
784.809	249.51
784.99	233.13
785.172	210.6
785.353	183.98
785.535	198.31
785.716	167.59
785.897	171.69
786.079	210.6
786.26	212.65
786.441	226.98
786.623	202.41
786.804	206.5
786.985	224.94
787.167	175.78
787.348	140.97
787.529	106.15
787.71	196.26
787.891	269.99
788.073	130.73
788.254	130.73
788.435	155.3
788.616	167.59
788.797	151.21
788.978	149.16
789.159	175.78
789.34	132.78
789.522	190.12
789.703	190.12
789.884	106.15
790.065	179.88
790.246	239.27
790.427	106.15
790.607	134.82
790.788	171.69
790.969	208.55
791.15	229.03
791.331	169.64
791.512	226.98
791.693	161.45
791.874	126.63
792.054	188.07
792.235	138.92
792.416	104.11
792.597	165.54
792.778	175.78
792.958	91.82
793.139	167.59
793.32	155.3
793.5	183.98
793.681	108.2
793.862	97.96
794.042	214.7
794.223	89.77
794.404	175.78
794.584	155.3
794.765	134.82
794.945	118.44
795.126	206.5
795.306	128.68
795.487	97.96
795.667	118.44
795.848	140.97
796.028	151.21
796.209	157.35
796.389	114.34
796.57	157.35
796.75	95.91
796.93	128.68
797.111	95.91
797.291	155.3
797.471	128.68
797.652	177.83
797.832	181.93
798.012	147.11
798.192	120.49
798.373	114.34
798.553	116.39
798.733	245.41
798.913	130.73
799.093	89.77
799.274	149.16
799.454	143.02
799.634	132.78
799.814	161.45
799.994	128.68
800.174	28.33
800.354	120.49
800.534	52.91
800.714	126.63
800.894	140.97
801.074	91.82
801.254	138.92
801.434	120.49
801.614	110.25
801.794	110.25
801.974	237.22
802.154	87.72
802.334	110.25
802.514	77.48
802.693	79.53
802.873	206.5
803.053	159.4
803.233	112.3
803.413	83.63
803.592	147.11
803.772	71.34
803.952	110.25
804.131	100.01
804.311	198.31
804.491	38.57
804.67	61.1
804.85	75.43
805.03	104.11
805.209	118.44
805.389	87.72
805.568	93.87
805.748	61.1
805.928	120.49
806.107	52.91
806.287	36.52
806.466	102.06
806.646	116.39
806.825	128.68
807.004	163.5
807.184	149.16
807.363	136.87
807.543	87.72
807.722	89.77
807.901	122.54
808.081	128.68
808.26	38.57
808.439	155.3
808.619	136.87
808.798	73.39
808.977	104.11
809.156	48.81
809.336	46.76
809.515	59.05
809.694	57
809.873	79.53
810.052	79.53
810.231	116.39
810.411	63.15
810.59	130.73
810.769	40.62
810.948	46.76
811.127	71.34
811.306	138.92
811.485	120.49
811.664	140.97
811.843	73.39
812.022	100.01
812.201	122.54
812.38	151.21
812.559	100.01
812.737	61.1
812.916	50.86
813.095	83.63
813.274	87.72
813.453	61.1
813.632	40.62
813.811	102.06
813.989	83.63
814.168	26.28
814.347	83.63
814.526	63.15
814.704	67.24
814.883	71.34
815.062	81.58
815.24	128.68
815.419	126.63
815.598	71.34
815.776	40.62
815.955	77.48
816.133	59.05
816.312	153.26
816.49	71.34
816.669	128.68
816.847	106.15
817.026	65.19
817.204	69.29
817.383	132.78
817.561	36.52
817.74	134.82
817.918	126.63
818.097	83.63
818.275	93.87
818.453	71.34
818.632	100.01
818.81	136.87
818.988	71.34
819.167	85.67
819.345	77.48
819.523	22.19
819.701	85.67
819.879	143.02
820.058	85.67
820.236	38.57
820.414	-2.39
820.592	87.72
820.77	9.9
820.948	67.24
821.127	48.81
821.305	116.39
821.483	118.44
821.661	81.58
821.839	116.39
822.017	81.58
822.195	61.1
822.373	71.34
822.551	-76.12
822.729	1.71
822.907	26.28
823.085	30.38
823.262	63.15
823.44	153.26
823.618	108.2
823.796	57
823.974	104.11
824.152	16.04
824.329	11.95
824.507	110.25
824.685	-12.63
824.863	20.14
825.04	32.43
825.218	26.28
825.396	112.3
825.574	30.38
825.751	77.48
825.929	9.9
826.107	118.44
826.284	77.48
826.462	69.29
826.639	77.48
826.817	26.28
826.994	65.19
827.172	26.28
827.349	93.87
827.527	52.91
827.704	5.8
827.882	77.48
828.059	81.58
828.237	7.85
828.414	40.62
828.591	52.91
828.769	32.43
828.946	108.2
829.124	18.09
829.301	97.96
829.478	26.28
829.655	42.67
829.833	20.14
830.01	34.47
830.187	77.48
830.364	54.95
830.542	13.99
830.719	81.58
830.896	81.58
831.073	104.11
831.25	87.72
831.427	38.57
831.604	54.95
831.782	71.34
831.959	52.91
832.136	13.99
832.313	22.19
832.49	-8.53
832.667	20.14
832.844	63.15
833.021	61.1
833.198	48.81
833.374	83.63
833.551	16.04
833.728	97.96
833.905	50.86
834.082	65.19
834.259	-47.44
834.436	71.34
834.612	57
834.789	104.11
834.966	-0.34
835.143	7.85
835.319	-14.68
835.496	85.67
835.673	-8.53
835.85	87.72
836.026	38.57
836.203	48.81
836.38	5.8
836.556	75.43
836.733	-0.34
836.909	79.53
837.086	73.39
837.262	16.04
837.439	9.9
837.616	128.68
837.792	9.9
837.968	-0.34
838.145	26.28
838.321	44.71
838.498	22.19
838.674	26.28
838.851	151.21
839.027	110.25
839.203	-26.96
839.38	-22.87
839.556	-51.54
839.732	89.77
839.909	-8.53
840.085	69.29
840.261	22.19
840.437	13.99
840.614	89.77
840.79	38.57
840.966	26.28
841.142	32.43
841.318	24.23
841.494	59.05
841.671	-16.73
841.847	106.15
842.023	-57.68
842.199	97.96
842.375	63.15
842.551	71.34
842.727	79.53
842.903	85.67
843.079	-2.39
843.255	-6.49
843.431	54.95
843.607	22.19
843.783	-6.49
843.959	32.43
844.134	16.04
844.31	57
844.486	11.95
844.662	32.43
844.838	5.8
845.013	-22.87
845.189	44.71
845.365	59.05
845.541	11.95
845.716	67.24
845.892	59.05
846.068	5.8
846.244	16.04
846.419	42.67
846.595	-2.39
846.77	30.38
846.946	87.72
847.122	22.19
847.297	81.58
847.473	-35.16
847.648	50.86
847.824	-16.73
847.999	-39.25
848.175	18.09
848.35	44.71
848.526	79.53
848.701	20.14
848.876	36.52
849.052	26.28
849.227	5.8
849.403	50.86
849.578	22.19
849.753	59.05
849.929	40.62
850.104	24.23
850.279	36.52
850.454	26.28
850.63	16.04
850.805	26.28
850.98	52.91
851.155	52.91
851.33	59.05
851.505	22.19
851.681	108.2
851.856	-8.53
852.031	7.85
852.206	-6.49
852.381	26.28
852.556	-76.12
852.731	46.76
852.906	26.28
853.081	79.53
853.256	61.1
853.431	81.58
853.606	-35.16
853.781	36.52
853.956	48.81
854.131	61.1
854.305	52.91
854.48	69.29
854.655	-18.77
854.83	81.58
855.005	40.62
855.18	9.9
855.354	59.05
855.529	57
855.704	22.19
855.879	-6.49
856.053	-39.25
856.228	24.23
856.403	5.8
856.577	87.72
856.752	-47.44
856.926	61.1
857.101	83.63
857.276	13.99
857.45	-20.82
857.625	79.53
857.799	36.52
857.974	38.57
858.148	-29.01
858.323	-16.73
858.497	13.99
858.672	36.52
858.846	36.52
859.02	87.72
859.195	3.75
859.369	22.19
859.543	42.67
859.718	11.95
859.892	38.57
860.066	73.39
860.241	30.38
860.415	-10.58
860.589	46.76
860.763	57
860.938	11.95
861.112	34.47
861.286	24.23
861.46	-43.35
861.634	46.76
861.808	26.28
861.982	59.05
862.157	3.75
862.331	54.95
862.505	91.82
862.679	-41.3
862.853	-41.3
863.027	-4.44
863.201	11.95
863.375	3.75
863.549	38.57
863.722	108.2
863.896	24.23
864.07	22.19
864.244	5.8
864.418	-33.11
864.592	40.62
864.766	46.76
864.939	52.91
865.113	-4.44
865.287	40.62
865.461	46.76
865.634	44.71
865.808	44.71
865.982	-2.39
866.156	5.8
866.329	-8.53
866.503	73.39
866.676	-4.44
866.85	13.99
867.024	118.44
867.197	57
867.371	24.23
867.544	65.19
867.718	11.95
867.891	36.52
868.065	65.19
868.238	46.76
868.412	50.86
868.585	61.1
868.759	-10.58
868.932	-43.35
869.105	20.14
869.279	-10.58
869.452	18.09
869.625	61.1
869.799	97.96
869.972	7.85
870.145	-2.39
870.319	5.8
870.492	50.86
870.665	38.57
870.838	61.1
871.011	5.8
871.185	77.48
871.358	11.95
871.531	32.43
871.704	26.28
871.877	97.96
872.05	50.86
872.223	44.71
872.396	24.23
872.569	-10.58
872.742	-6.49
872.915	44.71
873.088	7.85
873.261	11.95
873.434	-2.39
873.607	-31.06
873.78	-2.39
873.953	-41.3
874.126	81.58
874.299	-0.34
874.471	13.99
874.644	-26.96
874.817	44.71
874.99	75.43
875.163	-96.6
875.335	48.81
875.508	28.33
875.681	-47.44
875.853	-26.96
876.026	22.19
876.199	54.95
876.371	3.75
876.544	50.86
876.717	22.19
876.889	-39.25
877.062	-39.25
877.234	42.67
877.407	91.82
877.579	-72.02
877.752	57
877.924	-26.96
878.097	24.23
878.269	22.19
878.442	71.34
878.614	9.9
878.786	59.05
878.959	-12.63
879.131	71.34
879.303	36.52
879.476	5.8
879.648	28.33
879.82	-26.96
879.993	38.57
880.165	61.1
880.337	79.53
880.509	126.63
880.681	20.14
880.854	46.76
881.026	-20.82
881.198	79.53
881.37	44.71
881.542	44.71
881.714	16.04
881.886	42.67
882.058	-16.73
882.23	7.85
882.402	34.47
882.574	20.14
882.746	5.8
882.918	5.8
883.09	-12.63
883.262	24.23
883.434	-47.44
883.606	-2.39
883.778	57
883.95	9.9
884.122	16.04
884.293	-16.73
884.465	44.71
884.637	48.81
884.809	40.62
884.98	1.71
885.152	36.52
885.324	63.15
885.496	-2.39
885.667	77.48
885.839	-110.93
886.011	48.81
886.182	16.04
886.354	48.81
886.525	-22.87
886.697	-4.44
886.869	34.47
887.04	26.28
887.212	5.8
887.383	30.38
887.555	13.99
887.726	22.19
887.897	-29.01
888.069	-14.68
888.24	77.48
888.412	-18.77
888.583	9.9
888.754	65.19
888.926	13.99
889.097	-6.49
889.268	-49.49
889.44	-53.59
889.611	-8.53
889.782	20.14
889.953	16.04
890.125	59.05
890.296	42.67
890.467	-33.11
890.638	5.8
890.809	22.19
890.98	59.05
891.151	-22.87
891.323	22.19
891.494	-20.82
891.665	67.24
891.836	89.77
892.007	7.85
892.178	54.95
892.349	36.52
892.52	30.38
892.691	28.33
892.862	7.85
893.032	28.33
893.203	16.04
893.374	5.8
893.545	54.95
893.716	52.91
893.887	-2.39
894.057	-6.49
894.228	22.19
894.399	32.43
894.57	91.82
894.74	24.23
894.911	59.05
895.082	24.23
895.253	34.47
895.423	24.23
895.594	38.57
895.764	-41.3
895.935	-16.73
896.106	108.2
896.276	9.9
896.447	30.38
896.617	48.81
896.788	-14.68
896.958	-16.73
897.129	57
897.299	38.57
897.47	18.09
897.64	97.96
897.81	32.43
897.981	7.85
898.151	3.75
898.322	-18.77
898.492	61.1
898.662	1.71
898.832	24.23
899.003	65.19
899.173	-4.44
899.343	54.95
899.513	-26.96
