Data from USB4F104151__73__12-54-39-659.txt Node

Date: Fri Mar 14 12:54:39 EDT 2025
User: louis
Spectrometer: USB4F10415
Trigger mode: 4
Integration Time (sec): 1.000000E-2
Scans to average: 1
Electric dark correction enabled: true
Nonlinearity correction enabled: false
Boxcar width: 0
XAxis mode: Wavelengths
Number of Pixels in Spectrum: 3648
>>>>>Begin Spectral Data<<<<<
178.204	-56.83
178.424	-56.83
178.644	-56.83
178.864	-30.21
179.084	-17.92
179.304	27.14
179.524	-11.78
179.744	-1.54
179.964	-40.45
180.184	2.56
180.404	10.75
180.624	-77.31
180.844	-13.82
181.064	25.09
181.283	43.52
181.503	6.66
181.723	29.18
181.943	-36.35
182.163	45.57
182.383	-40.45
182.602	23.04
182.822	53.76
183.042	8.7
183.262	45.57
183.482	-15.87
183.701	-3.58
183.921	0.51
184.141	-77.31
184.361	45.57
184.58	2.56
184.8	-11.78
185.02	23.04
185.239	23.04
185.459	-30.21
185.679	-65.02
185.898	-5.63
186.118	49.66
186.338	49.66
186.557	12.8
186.777	4.61
186.997	14.85
187.216	-17.92
187.436	39.42
187.655	76.29
187.875	57.86
188.095	37.38
188.314	18.94
188.534	45.57
188.753	6.66
188.973	-19.97
189.192	33.28
189.412	-3.58
189.631	18.94
189.851	41.47
190.07	53.76
190.29	-5.63
190.509	-28.16
190.729	-67.07
190.948	10.75
191.168	29.18
191.387	6.66
191.607	-54.78
191.826	-3.58
192.045	2.56
192.265	12.8
192.484	-42.5
192.704	14.85
192.923	-11.78
193.142	27.14
193.362	31.23
193.581	129.53
193.8	12.8
194.02	6.66
194.239	-7.68
194.458	10.75
194.678	53.76
194.897	37.38
195.116	-1.54
195.335	61.95
195.555	47.62
195.774	10.75
195.993	16.9
196.212	29.18
196.432	53.76
196.651	6.66
196.87	-22.02
197.089	33.28
197.308	-9.73
197.528	14.85
197.747	82.43
197.966	-5.63
198.185	25.09
198.404	41.47
198.623	-36.35
198.842	16.9
199.062	49.66
199.281	-11.78
199.5	-32.26
199.719	27.14
199.938	-62.98
200.157	66.05
200.376	-44.54
200.595	14.85
200.814	-26.11
201.033	12.8
201.252	94.72
201.471	-40.45
201.69	14.85
201.909	18.94
202.128	4.61
202.347	-52.74
202.566	-38.4
202.785	47.62
203.004	-28.16
203.223	66.05
203.442	41.47
203.661	-77.31
203.879	16.9
204.098	-1.54
204.317	-28.16
204.536	-5.63
204.755	-19.97
204.974	51.71
205.193	-7.68
205.411	64
205.63	-36.35
205.849	-19.97
206.068	10.75
206.287	84.48
206.505	12.8
206.724	2.56
206.943	51.71
207.162	18.94
207.381	25.09
207.599	49.66
207.818	-30.21
208.037	-19.97
208.255	-5.63
208.474	-1.54
208.693	-9.73
208.911	23.04
209.13	16.9
209.349	53.76
209.567	96.77
209.786	45.57
210.005	-1.54
210.223	-5.63
210.442	8.7
210.661	2.56
210.879	61.95
211.098	2.56
211.316	-17.92
211.535	80.38
211.753	8.7
211.972	55.81
212.191	-79.36
212.409	23.04
212.628	59.9
212.846	59.9
213.065	8.7
213.283	55.81
213.502	10.75
213.72	33.28
213.938	-9.73
214.157	-22.02
214.375	53.76
214.594	70.14
214.812	57.86
215.031	64
215.249	-30.21
215.467	76.29
215.686	82.43
215.904	20.99
216.122	33.28
216.341	74.24
216.559	-28.16
216.778	35.33
216.996	4.61
217.214	29.18
217.432	16.9
217.651	6.66
217.869	57.86
218.087	123.39
218.306	12.8
218.524	86.53
218.742	25.09
218.96	53.76
219.179	-1.54
219.397	0.51
219.615	-34.3
219.833	4.61
220.051	-3.58
220.27	29.18
220.488	45.57
220.706	-5.63
220.924	-44.54
221.142	0.51
221.36	-9.73
221.578	23.04
221.796	-46.59
222.015	41.47
222.233	-62.98
222.451	4.61
222.669	72.19
222.887	8.7
223.105	-99.84
223.323	76.29
223.541	-22.02
223.759	35.33
223.977	14.85
224.195	53.76
224.413	4.61
224.631	35.33
224.849	-7.68
225.067	49.66
225.285	-11.78
225.503	29.18
225.721	8.7
225.939	86.53
226.157	51.71
226.375	37.38
226.592	43.52
226.81	-22.02
227.028	55.81
227.246	-1.54
227.464	102.91
227.682	39.42
227.9	37.38
228.117	55.81
228.335	39.42
228.553	78.33
228.771	37.38
228.989	74.24
229.206	111.1
229.424	94.72
229.642	82.43
229.86	35.33
230.077	41.47
230.295	0.51
230.513	82.43
230.731	94.72
230.948	-19.97
231.166	78.33
231.384	0.51
231.601	14.85
231.819	86.53
232.037	59.9
232.254	31.23
232.472	35.33
232.689	66.05
232.907	25.09
233.125	12.8
233.342	31.23
233.56	20.99
233.777	41.47
233.995	33.28
234.213	-7.68
234.43	-1.54
234.648	-28.16
234.865	-103.93
235.083	82.43
235.3	6.66
235.518	18.94
235.735	-5.63
235.953	6.66
236.17	41.47
236.388	61.95
236.605	43.52
236.822	80.38
237.04	-1.54
237.257	43.52
237.475	-3.58
237.692	-22.02
237.909	-40.45
238.127	14.85
238.344	37.38
238.562	37.38
238.779	-24.06
238.996	84.48
239.214	-19.97
239.431	47.62
239.648	-44.54
239.865	35.33
240.083	35.33
240.3	-32.26
240.517	35.33
240.735	59.9
240.952	-42.5
241.169	45.57
241.386	-11.78
241.603	82.43
241.821	20.99
242.038	25.09
242.255	-56.83
242.472	18.94
242.689	10.75
242.907	59.9
243.124	47.62
243.341	-24.06
243.558	-32.26
243.775	20.99
243.992	-15.87
244.209	55.81
244.426	53.76
244.643	-36.35
244.86	82.43
245.078	16.9
245.295	-15.87
245.512	51.71
245.729	18.94
245.946	51.71
246.163	-69.12
246.38	20.99
246.597	57.86
246.814	8.7
247.031	6.66
247.248	39.42
247.464	-58.88
247.681	10.75
247.898	45.57
248.115	55.81
248.332	80.38
248.549	33.28
248.766	86.53
248.983	82.43
249.2	-22.02
249.417	14.85
249.633	-28.16
249.85	37.38
250.067	-9.73
250.284	-7.68
250.501	12.8
250.717	16.9
250.934	10.75
251.151	74.24
251.368	-9.73
251.585	16.9
251.801	14.85
252.018	-48.64
252.235	18.94
252.451	59.9
252.668	45.57
252.885	98.81
253.102	-5.63
253.318	49.66
253.535	35.33
253.752	20.99
253.968	90.62
254.185	4.61
254.401	23.04
254.618	6.66
254.835	16.9
255.051	109.05
255.268	25.09
255.484	4.61
255.701	-3.58
255.917	18.94
256.134	-3.58
256.351	-52.74
256.567	98.81
256.784	20.99
257	-85.5
257.217	57.86
257.433	-11.78
257.65	39.42
257.866	41.47
258.082	43.52
258.299	4.61
258.515	0.51
258.732	-22.02
258.948	98.81
259.165	23.04
259.381	14.85
259.597	0.51
259.814	37.38
260.03	59.9
260.246	0.51
260.463	-11.78
260.679	33.28
260.895	-3.58
261.112	-13.82
261.328	-1.54
261.544	33.28
261.761	66.05
261.977	64
262.193	8.7
262.409	29.18
262.626	2.56
262.842	55.81
263.058	61.95
263.274	18.94
263.49	-71.17
263.707	55.81
263.923	12.8
264.139	84.48
264.355	-9.73
264.571	86.53
264.787	41.47
265.004	78.33
265.22	-40.45
265.436	25.09
265.652	20.99
265.868	86.53
266.084	12.8
266.3	74.24
266.516	45.57
266.732	6.66
266.948	43.52
267.164	20.99
267.38	27.14
267.596	-7.68
267.812	27.14
268.028	47.62
268.244	29.18
268.46	16.9
268.676	25.09
268.892	78.33
269.108	43.52
269.324	39.42
269.54	-60.93
269.756	49.66
269.972	20.99
270.188	-22.02
270.403	39.42
270.619	20.99
270.835	6.66
271.051	72.19
271.267	6.66
271.483	104.96
271.698	16.9
271.914	88.57
272.13	-1.54
272.346	31.23
272.562	31.23
272.777	41.47
272.993	-7.68
273.209	98.81
273.425	4.61
273.64	49.66
273.856	-5.63
274.072	4.61
274.287	6.66
274.503	20.99
274.719	20.99
274.934	80.38
275.15	-5.63
275.366	-9.73
275.581	41.47
275.797	23.04
276.012	-24.06
276.228	12.8
276.444	55.81
276.659	39.42
276.875	-1.54
277.09	45.57
277.306	-15.87
277.521	64
277.737	37.38
277.952	33.28
278.168	23.04
278.383	94.72
278.599	37.38
278.814	68.09
279.03	-30.21
279.245	47.62
279.461	45.57
279.676	41.47
279.892	12.8
280.107	-5.63
280.322	-26.11
280.538	-36.35
280.753	-11.78
280.969	68.09
281.184	70.14
281.399	45.57
281.615	18.94
281.83	31.23
282.045	10.75
282.26	14.85
282.476	47.62
282.691	143.87
282.906	-26.11
283.122	45.57
283.337	102.91
283.552	57.86
283.767	39.42
283.983	23.04
284.198	-11.78
284.413	88.57
284.628	2.56
284.843	4.61
285.058	61.95
285.274	27.14
285.489	-44.54
285.704	59.9
285.919	-15.87
286.134	39.42
286.349	25.09
286.564	35.33
286.779	12.8
286.995	-17.92
287.21	0.51
287.425	-19.97
287.64	64
287.855	66.05
288.07	-22.02
288.285	4.61
288.5	-48.64
288.715	119.29
288.93	86.53
289.145	23.04
289.36	25.09
289.575	109.05
289.79	16.9
290.004	-28.16
290.219	35.33
290.434	33.28
290.649	29.18
290.864	-42.5
291.079	6.66
291.294	47.62
291.509	-13.82
291.724	12.8
291.938	-81.41
292.153	-36.35
292.368	57.86
292.583	6.66
292.798	27.14
293.012	25.09
293.227	20.99
293.442	-34.3
293.657	20.99
293.871	68.09
294.086	-22.02
294.301	-3.58
294.516	94.72
294.73	-7.68
294.945	4.61
295.16	-28.16
295.374	113.15
295.589	98.81
295.804	33.28
296.018	55.81
296.233	18.94
296.447	0.51
296.662	-50.69
296.877	8.7
297.091	57.86
297.306	6.66
297.52	41.47
297.735	82.43
297.949	25.09
298.164	68.09
298.378	61.95
298.593	27.14
298.807	51.71
299.022	111.1
299.236	37.38
299.451	-3.58
299.665	61.95
299.88	-28.16
300.094	-3.58
300.309	23.04
300.523	29.18
300.737	39.42
300.952	39.42
301.166	64
301.381	10.75
301.595	14.85
301.809	14.85
302.024	-24.06
302.238	-1.54
302.452	20.99
302.667	18.94
302.881	12.8
303.095	37.38
303.309	39.42
303.524	18.94
303.738	-15.87
303.952	98.81
304.166	-5.63
304.381	49.66
304.595	12.8
304.809	-5.63
305.023	-11.78
305.237	-13.82
305.452	72.19
305.666	-42.5
305.88	4.61
306.094	35.33
306.308	37.38
306.522	27.14
306.736	66.05
306.95	45.57
307.164	4.61
307.379	14.85
307.593	45.57
307.807	33.28
308.021	49.66
308.235	-73.21
308.449	2.56
308.663	41.47
308.877	113.15
309.091	-42.5
309.305	115.2
309.519	4.61
309.733	100.86
309.947	47.62
310.161	18.94
310.374	-7.68
310.588	-11.78
310.802	-9.73
311.016	47.62
311.23	31.23
311.444	18.94
311.658	-5.63
311.872	47.62
312.085	0.51
312.299	10.75
312.513	68.09
312.727	129.53
312.941	14.85
313.154	53.76
313.368	-11.78
313.582	61.95
313.796	0.51
314.009	49.66
314.223	10.75
314.437	37.38
314.651	-9.73
314.864	33.28
315.078	-22.02
315.292	-9.73
315.505	84.48
315.719	51.71
315.933	-3.58
316.146	8.7
316.36	-36.35
316.573	-3.58
316.787	8.7
317.001	53.76
317.214	61.95
317.428	27.14
317.641	25.09
317.855	47.62
318.068	18.94
318.282	72.19
318.495	-3.58
318.709	-19.97
318.922	51.71
319.136	59.9
319.349	37.38
319.563	39.42
319.776	33.28
319.99	78.33
320.203	57.86
320.417	72.19
320.63	49.66
320.843	55.81
321.057	-1.54
321.27	23.04
321.483	96.77
321.697	51.71
321.91	43.52
322.124	23.04
322.337	70.14
322.55	4.61
322.763	76.29
322.977	33.28
323.19	53.76
323.403	61.95
323.617	14.85
323.83	90.62
324.043	-24.06
324.256	4.61
324.469	20.99
324.683	61.95
324.896	78.33
325.109	84.48
325.322	20.99
325.535	43.52
325.748	10.75
325.962	35.33
326.175	53.76
326.388	37.38
326.601	35.33
326.814	39.42
327.027	88.57
327.24	49.66
327.453	-50.69
327.666	16.9
327.879	23.04
328.092	66.05
328.305	70.14
328.518	53.76
328.731	61.95
328.944	53.76
329.157	-19.97
329.37	20.99
329.583	-1.54
329.796	4.61
330.009	57.86
330.222	74.24
330.435	-79.36
330.648	33.28
330.861	102.91
331.073	53.76
331.286	2.56
331.499	39.42
331.712	29.18
331.925	78.33
332.138	-13.82
332.35	31.23
332.563	-22.02
332.776	29.18
332.989	27.14
333.202	47.62
333.414	-34.3
333.627	66.05
333.84	20.99
334.053	18.94
334.265	-9.73
334.478	90.62
334.691	23.04
334.903	74.24
335.116	41.47
335.329	23.04
335.541	51.71
335.754	14.85
335.966	18.94
336.179	66.05
336.392	20.99
336.604	78.33
336.817	45.57
337.029	-17.92
337.242	39.42
337.454	27.14
337.667	51.71
337.88	20.99
338.092	-52.74
338.305	16.9
338.517	8.7
338.729	84.48
338.942	39.42
339.154	49.66
339.367	4.61
339.579	0.51
339.792	39.42
340.004	14.85
340.217	18.94
340.429	0.51
340.641	12.8
340.854	16.9
341.066	72.19
341.278	39.42
341.491	29.18
341.703	49.66
341.915	-11.78
342.128	31.23
342.34	94.72
342.552	37.38
342.764	23.04
342.977	41.47
343.189	-15.87
343.401	29.18
343.613	4.61
343.826	70.14
344.038	-67.07
344.25	23.04
344.462	-22.02
344.674	16.9
344.886	33.28
345.099	49.66
345.311	12.8
345.523	29.18
345.735	-48.64
345.947	14.85
346.159	82.43
346.371	31.23
346.583	64
346.795	70.14
347.007	0.51
347.219	-36.35
347.431	64
347.643	2.56
347.855	66.05
348.067	39.42
348.279	14.85
348.491	14.85
348.703	-11.78
348.915	23.04
349.127	14.85
349.339	43.52
349.551	107.01
349.763	47.62
349.975	59.9
350.187	78.33
350.399	51.71
350.61	64
350.822	33.28
351.034	35.33
351.246	76.29
351.458	18.94
351.669	10.75
351.881	27.14
352.093	-13.82
352.305	27.14
352.517	88.57
352.728	41.47
352.94	37.38
353.152	-11.78
353.363	-26.11
353.575	90.62
353.787	43.52
353.999	-30.21
354.21	-17.92
354.422	12.8
354.633	16.9
354.845	53.76
355.057	-19.97
355.268	-9.73
355.48	-48.64
355.692	-22.02
355.903	88.57
356.115	68.09
356.326	45.57
356.538	49.66
356.749	41.47
356.961	-34.3
357.172	37.38
357.384	-62.98
357.595	59.9
357.807	-11.78
358.018	35.33
358.23	20.99
358.441	88.57
358.653	25.09
358.864	33.28
359.075	-9.73
359.287	6.66
359.498	14.85
359.709	-19.97
359.921	80.38
360.132	27.14
360.344	55.81
360.555	37.38
360.766	14.85
360.977	55.81
361.189	33.28
361.4	4.61
361.611	61.95
361.823	37.38
362.034	31.23
362.245	57.86
362.456	0.51
362.667	4.61
362.879	16.9
363.09	-7.68
363.301	25.09
363.512	6.66
363.723	23.04
363.935	-11.78
364.146	61.95
364.357	-77.31
364.568	23.04
364.779	10.75
364.99	16.9
365.201	-40.45
365.412	35.33
365.623	-22.02
365.834	29.18
366.045	18.94
366.256	61.95
366.467	41.47
366.678	14.85
366.889	29.18
367.1	12.8
367.311	31.23
367.522	33.28
367.733	29.18
367.944	88.57
368.155	107.01
368.366	-3.58
368.577	-32.26
368.788	47.62
368.999	-56.83
369.209	47.62
369.42	51.71
369.631	33.28
369.842	2.56
370.053	6.66
370.264	-44.54
370.474	33.28
370.685	14.85
370.896	-3.58
371.107	2.56
371.317	8.7
371.528	31.23
371.739	41.47
371.95	39.42
372.16	12.8
372.371	-3.58
372.582	14.85
372.792	-13.82
373.003	53.76
373.214	-36.35
373.424	64
373.635	6.66
373.846	45.57
374.056	82.43
374.267	-9.73
374.477	-22.02
374.688	-50.69
374.898	37.38
375.109	41.47
375.319	41.47
375.53	78.33
375.74	20.99
375.951	2.56
376.161	8.7
376.372	8.7
376.582	55.81
376.793	47.62
377.003	59.9
377.214	-48.64
377.424	14.85
377.635	51.71
377.845	14.85
378.055	31.23
378.266	70.14
378.476	29.18
378.686	86.53
378.897	-7.68
379.107	20.99
379.317	66.05
379.528	-15.87
379.738	74.24
379.948	25.09
380.158	47.62
380.369	27.14
380.579	49.66
380.789	23.04
380.999	27.14
381.21	-13.82
381.42	6.66
381.63	-7.68
381.84	-13.82
382.05	72.19
382.261	68.09
382.471	41.47
382.681	39.42
382.891	20.99
383.101	72.19
383.311	51.71
383.521	4.61
383.731	45.57
383.941	94.72
384.151	82.43
384.361	27.14
384.571	57.86
384.781	49.66
384.991	49.66
385.201	66.05
385.411	29.18
385.621	98.81
385.831	55.81
386.041	18.94
386.251	-24.06
386.461	55.81
386.671	-1.54
386.881	66.05
387.091	-36.35
387.301	72.19
387.511	-17.92
387.72	53.76
387.93	-30.21
388.14	-19.97
388.35	-19.97
388.56	96.77
388.769	66.05
388.979	12.8
389.189	43.52
389.399	10.75
389.609	12.8
389.818	53.76
390.028	-15.87
390.238	53.76
390.447	20.99
390.657	61.95
390.867	-7.68
391.076	41.47
391.286	-32.26
391.496	64
391.705	14.85
391.915	123.39
392.125	131.58
392.334	12.8
392.544	-15.87
392.753	80.38
392.963	102.91
393.172	92.67
393.382	31.23
393.591	72.19
393.801	-7.68
394.01	98.81
394.22	39.42
394.429	64
394.639	-32.26
394.848	6.66
395.058	33.28
395.267	84.48
395.477	47.62
395.686	53.76
395.895	-5.63
396.105	35.33
396.314	51.71
396.524	-26.11
396.733	74.24
396.942	78.33
397.152	72.19
397.361	29.18
397.57	31.23
397.78	27.14
397.989	-3.58
398.198	82.43
398.407	10.75
398.617	64
398.826	59.9
399.035	43.52
399.244	41.47
399.453	121.34
399.663	61.95
399.872	80.38
400.081	37.38
400.29	64
400.499	51.71
400.708	102.91
400.917	25.09
401.127	33.28
401.336	61.95
401.545	109.05
401.754	66.05
401.963	98.81
402.172	96.77
402.381	-19.97
402.59	125.44
402.799	57.86
403.008	70.14
403.217	35.33
403.426	29.18
403.635	29.18
403.844	49.66
404.053	61.95
404.262	96.77
404.471	12.8
404.68	123.39
404.888	39.42
405.097	16.9
405.306	98.81
405.515	115.2
405.724	41.47
405.933	80.38
406.142	49.66
406.35	107.01
406.559	127.49
406.768	129.53
406.977	78.33
407.185	33.28
407.394	37.38
407.603	98.81
407.812	70.14
408.02	88.57
408.229	104.96
408.438	76.29
408.646	92.67
408.855	123.39
409.064	166.4
409.272	166.4
409.481	174.59
409.69	96.77
409.898	113.15
410.107	96.77
410.315	100.86
410.524	176.64
410.733	131.58
410.941	147.97
411.15	172.54
411.358	123.39
411.567	203.26
411.775	264.7
411.984	164.35
412.192	242.17
412.401	260.6
412.609	170.49
412.818	197.12
413.026	246.27
413.234	211.45
413.443	283.13
413.651	285.18
413.86	233.98
414.068	293.37
414.276	289.28
414.485	225.79
414.693	350.71
414.901	340.47
415.11	231.93
415.318	315.9
415.526	289.28
415.734	340.47
415.943	311.8
416.151	406.01
416.359	375.29
416.567	440.83
416.776	358.91
416.984	442.87
417.192	395.77
417.4	453.11
417.608	467.45
417.817	444.92
418.025	526.84
418.233	561.66
418.441	543.22
418.649	559.61
418.857	514.55
419.065	655.86
419.273	514.55
419.481	545.27
419.689	676.34
419.897	676.34
420.105	684.53
420.313	657.91
420.521	735.73
420.729	676.34
420.937	782.84
421.145	733.68
421.353	762.36
421.561	881.14
421.769	895.47
421.977	836.08
422.185	924.15
422.393	1032.69
422.601	1059.31
422.809	1020.4
423.017	1028.59
423.224	1092.08
423.432	1145.33
423.64	1047.02
423.848	1208.81
424.056	1135.09
424.263	1243.63
424.471	1270.25
424.679	1348.08
424.887	1421.8
425.094	1374.7
425.302	1407.47
425.51	1473
425.718	1620.46
425.925	1589.74
426.133	1569.26
426.341	1638.89
426.548	1741.29
426.756	1698.28
426.964	1806.82
427.171	1888.74
427.379	2025.95
427.586	1927.65
427.794	1989.09
428.001	1987.04
428.209	2247.13
428.417	2095.58
428.624	2302.43
428.832	2331.1
429.039	2367.96
429.247	2298.33
429.454	2585.05
429.662	2519.51
429.869	2435.55
430.076	2701.78
430.284	2537.95
430.491	2714.07
430.699	2933.2
430.906	2877.91
431.114	2800.09
431.321	2951.63
431.528	3068.37
431.736	3305.93
431.943	3457.48
432.15	3305.93
432.358	3369.42
432.565	3686.86
432.772	3477.96
432.979	3750.34
433.187	3770.82
433.394	3918.28
433.601	4037.06
433.808	3924.42
434.016	4116.93
434.223	4231.62
434.43	4504
434.637	4370.88
434.844	4827.57
435.052	4805.05
435.259	4815.29
435.466	4770.23
435.673	4846.01
435.88	5147.06
436.087	5374.38
436.294	5409.2
436.501	5239.22
436.708	5249.46
436.915	5429.68
437.122	5790.12
437.329	5691.82
437.537	5990.82
437.743	5937.57
437.95	6064.55
438.157	6212
438.364	6328.74
438.571	6562.2
438.778	6513.05
438.985	7055.76
439.192	6738.33
439.399	7002.52
439.606	6951.32
439.813	7383.44
440.02	7532.94
440.227	7594.38
440.433	7545.23
440.64	7721.35
440.847	7987.59
441.054	7987.59
441.261	8558.97
441.467	8262.02
441.674	8497.53
441.881	8731
442.088	8761.72
442.294	8540.54
442.501	8958.33
442.708	9234.8
442.914	9554.29
443.121	9961.83
443.328	9609.58
443.534	10324.32
443.741	10154.34
443.948	9914.73
444.154	10731.87
444.361	10766.68
444.568	10643.81
444.774	10637.66
444.981	11000.15
445.187	11127.13
445.394	11528.53
445.6	11589.97
445.807	12441.92
446.013	11942.22
446.22	12198.21
446.426	12767.55
446.633	12910.91
446.839	13234.49
447.046	12710.21
447.252	13418.8
447.459	13488.43
447.665	13484.34
447.871	14082.35
448.078	14647.58
448.284	14018.86
448.491	14420.26
448.697	14905.63
448.903	15333.65
449.11	15425.81
449.316	14731.55
449.522	15245.59
449.728	15593.75
449.935	15745.3
450.141	15773.97
450.347	16156.94
450.553	15733.01
450.76	15761.68
450.966	16414.98
451.172	16152.84
451.378	16918.78
451.584	16341.25
451.791	16779.52
451.997	16752.9
452.203	17154.3
452.409	16961.79
452.615	16998.65
452.821	16187.66
453.027	16234.76
453.233	16879.87
453.44	16369.93
453.646	16255.24
453.852	16621.83
454.058	16787.71
454.264	16126.22
454.47	16611.59
454.676	16052.49
454.882	16720.13
455.088	15552.79
455.294	15663.38
455.5	15931.66
455.705	16064.78
455.911	15292.69
456.117	15055.13
456.323	14829.85
456.529	14035.24
456.735	14725.41
456.941	14387.49
457.147	13783.34
457.352	13666.61
457.558	13515.06
457.764	13588.78
457.97	13060.41
458.176	12890.43
458.381	13003.07
458.587	12312.9
458.793	12337.48
458.999	11641.17
459.204	12345.67
459.41	12130.63
459.616	11305.3
459.821	11344.21
460.027	11477.33
460.233	11118.93
460.438	10434.91
460.644	10811.74
460.85	10150.25
461.055	10127.72
461.261	10029.41
461.466	9326.96
461.672	9044.34
461.878	9652.59
462.083	8964.47
462.289	8855.93
462.494	8864.12
462.7	8341.89
462.905	8247.68
463.111	8313.22
463.316	8440.19
463.522	8212.87
463.727	8407.42
463.932	8270.21
464.138	8169.86
464.343	8313.22
464.549	7924.1
464.754	8276.35
464.959	8085.89
465.165	8036.74
465.37	7881.1
465.575	7698.83
465.781	7856.52
465.986	7901.58
466.191	7735.69
466.397	7393.68
466.602	7109.01
466.807	7299.47
467.012	7395.73
467.218	7479.69
467.423	7260.56
467.628	7338.38
467.833	7664.01
468.038	7287.18
468.244	7149.97
468.449	7422.35
468.654	7137.68
468.859	7123.35
469.064	6949.27
469.269	6631.83
469.474	6885.78
469.679	7172.5
469.885	6855.06
470.09	7014.8
470.295	6814.1
470.5	6773.14
470.705	6803.86
470.91	6842.78
471.115	6533.53
471.32	6488.48
471.525	6687.13
471.73	6408.61
471.935	6408.61
472.139	6187.43
472.344	6320.54
472.549	6103.46
472.754	6181.28
472.959	6234.53
473.164	5734.82
473.369	5761.45
473.574	5906.85
473.778	5812.65
473.983	5872.04
474.188	5888.42
474.393	5597.61
474.598	5783.98
474.802	5630.38
475.007	5464.49
475.212	5575.08
475.417	5319.09
475.621	5304.75
475.826	5343.66
476.031	5259.7
476.235	5138.87
476.44	5185.97
476.645	5265.84
476.849	5077.43
477.054	5024.18
477.259	4979.12
477.463	5034.42
477.668	4782.52
477.872	4917.68
478.077	4813.24
478.282	4784.57
478.486	4798.9
478.691	4610.49
478.895	4716.98
479.1	4653.5
479.304	4716.98
479.509	4659.64
479.713	4577.72
479.918	4659.64
480.122	4501.95
480.326	4518.33
480.531	4590.01
480.735	4409.79
480.94	4436.41
481.144	4579.77
481.348	4389.31
481.553	4362.69
481.757	4295.1
481.961	4399.55
482.166	4430.27
482.37	4458.94
482.574	4180.42
482.778	4323.77
482.983	4450.75
483.187	4381.12
483.391	4346.3
483.595	4147.65
483.8	4366.78
484.004	4276.67
484.208	4297.15
484.412	4225.47
484.616	4348.35
484.821	4407.74
485.025	4323.77
485.229	4370.88
485.433	4336.06
485.637	4411.84
485.841	4299.2
486.045	4317.63
486.249	4536.76
486.453	4282.81
486.657	4295.1
486.861	4424.12
487.065	4235.71
487.269	4358.59
487.473	4180.42
487.677	4454.84
487.881	4286.91
488.085	4366.78
488.289	4518.33
488.493	4348.35
488.697	4532.67
488.901	4417.98
489.105	4356.54
489.309	4444.6
489.512	4260.29
489.716	4252.1
489.92	4372.93
490.124	4356.54
490.328	4520.38
490.531	4428.22
490.735	4516.28
490.939	4555.19
491.143	4512.19
491.346	4553.15
491.55	4565.43
491.754	4614.59
491.958	4852.15
492.161	4581.82
492.365	4567.48
492.569	4600.25
492.772	4501.95
492.976	4753.85
493.18	4770.23
493.383	4542.91
493.587	4665.78
493.79	4915.64
493.994	4743.61
494.197	4911.54
494.401	4856.25
494.605	4921.78
494.808	5028.28
495.012	4827.57
495.215	4942.26
495.419	4950.45
495.622	4989.36
495.825	5007.8
496.029	5190.06
496.232	5179.82
496.436	5198.26
496.639	5323.18
496.843	5353.9
497.046	5386.67
497.249	5425.58
497.453	5450.16
497.656	5501.36
497.859	5460.4
498.063	5636.52
498.266	5865.89
498.469	5597.61
498.673	5820.84
498.876	5865.89
499.079	6052.26
499.282	5947.81
499.485	6107.55
499.689	5888.42
499.892	6144.42
500.095	6199.71
500.298	6377.89
500.501	6201.76
500.705	6457.76
500.908	6418.85
501.111	6607.26
501.314	6570.4
501.517	6658.46
501.72	6781.34
501.923	6715.8
502.126	6810.01
502.329	7094.68
502.532	6928.79
502.735	7174.55
502.938	7322
503.141	7395.73
503.344	7371.15
503.547	7448.97
503.75	7713.16
503.953	7578
504.156	7852.42
504.359	7868.81
504.562	7729.55
504.765	8112.52
504.968	8247.68
505.17	8233.35
505.373	8147.33
505.576	8450.43
505.779	8352.13
505.982	8495.49
506.185	8675.71
506.387	8610.17
506.59	8663.42
506.793	8925.56
506.996	8911.22
507.198	9204.08
507.401	9197.94
507.604	9271.67
507.807	9304.43
508.009	9392.5
508.212	9607.53
508.415	9494.9
508.617	9775.47
508.82	9687.4
509.022	9832.81
509.225	9943.4
509.428	10117.48
509.63	10256.74
509.833	9986.41
510.035	10537.31
510.238	10473.82
510.44	10522.98
510.643	10916.19
510.845	10981.72
511.048	10938.71
511.25	11086.17
511.453	11053.4
511.655	11544.91
511.858	11489.62
512.06	11395.41
512.262	11387.22
512.465	11508.05
512.667	11788.62
512.87	11786.57
513.072	11917.64
513.274	12048.71
513.477	12128.58
513.679	12118.34
513.881	12552.51
514.084	12478.79
514.286	12659.01
514.488	12699.97
514.69	13205.81
514.893	12603.71
515.095	13091.13
515.297	13132.09
515.499	13369.65
515.701	13549.87
515.904	13543.73
516.106	13693.23
516.308	13941.04
516.51	13961.51
516.712	14086.44
516.914	14328.1
517.116	14485.79
517.318	14489.89
517.52	14379.3
517.722	14588.19
517.925	14567.71
518.127	14901.53
518.329	15137.05
518.531	14891.29
518.733	15153.43
518.935	15354.13
519.136	15376.66
519.338	15497.49
519.54	15630.61
519.742	15917.33
519.944	15692.05
520.146	16134.41
520.348	16134.41
520.55	15972.62
520.752	16412.93
520.954	16650.5
521.155	16541.96
521.357	16656.64
521.559	16802.05
521.761	16959.74
521.963	16865.53
522.164	17004.8
522.366	17191.16
522.568	17408.25
522.77	17420.53
522.971	17578.23
523.173	17537.27
523.375	17639.67
523.576	17680.63
523.778	17725.68
523.98	18079.98
524.181	18079.98
524.383	18077.93
524.584	18372.84
524.786	18151.66
524.988	18104.56
525.189	18352.36
525.391	18546.92
525.592	18403.56
525.794	19136.73
525.995	18618.6
526.197	18829.54
526.398	18708.71
526.6	19237.08
526.801	19126.49
527.003	19052.77
527.204	19075.29
527.406	19392.73
527.607	19222.75
527.808	19575
528.01	19405.02
528.211	19505.37
528.412	19704.02
528.614	19589.33
528.815	19411.16
529.016	19855.57
529.218	19599.57
529.419	19523.8
529.62	19566.81
529.822	19718.36
530.023	19679.44
530.224	19953.87
530.425	19755.22
530.626	19828.95
530.828	19648.72
531.029	20207.82
531.23	20076.75
531.431	19960.02
531.632	19964.11
531.833	19751.12
532.035	20156.62
532.236	20191.44
532.437	20173
532.638	19824.85
532.839	20209.87
533.04	20183.24
533.241	20084.94
533.442	20582.6
533.643	20234.44
533.844	20246.73
534.045	20207.82
534.246	19988.69
534.447	20207.82
534.648	20254.92
534.849	20363.47
535.05	19937.49
535.251	20367.56
535.451	20226.25
535.652	20334.79
535.853	20322.51
536.054	20527.3
536.255	20342.99
536.456	20230.35
536.657	20383.94
536.857	19976.4
537.058	19988.69
537.259	19908.82
537.46	20371.66
537.66	20261.07
537.861	20451.53
538.062	20281.55
538.263	20195.53
538.463	20136.14
538.664	20111.57
538.865	20439.24
539.065	20123.85
539.266	20084.94
539.466	20279.5
539.667	19673.3
539.868	20367.56
540.068	20025.55
540.269	20156.62
540.469	20369.61
540.67	19904.72
540.87	20003.02
541.071	20299.98
541.271	20267.21
541.472	19962.06
541.672	19880.14
541.873	19955.92
542.073	19904.72
542.274	20463.82
542.474	20127.95
542.675	20283.59
542.875	20443.34
543.075	20029.65
543.276	20007.12
543.476	20039.89
543.676	20068.56
543.877	20213.96
544.077	19974.35
544.277	19935.44
544.478	19730.64
544.678	19962.06
544.878	20091.09
545.078	19980.5
545.279	19949.78
545.479	19931.34
545.679	19910.86
545.879	20179.15
546.079	20199.63
546.28	19953.87
546.48	19628.24
546.68	20107.47
546.88	19996.88
547.08	20009.17
547.28	20056.27
547.48	19953.87
547.68	20064.46
547.88	19556.57
548.081	19966.16
548.281	19955.92
548.481	19929.3
548.681	20121.8
548.881	19828.95
549.081	19988.69
549.28	19683.54
549.48	19763.41
549.68	19921.1
549.88	20076.75
550.08	19826.9
550.28	19806.42
550.48	19675.35
550.68	19914.96
550.88	19851.47
551.08	19824.85
551.279	19947.73
551.479	19562.71
551.679	20170.96
551.879	19757.27
552.079	20039.89
552.278	19652.82
552.478	19724.5
552.678	19587.29
552.878	20072.65
553.077	19804.37
553.277	19792.08
553.477	19714.26
553.676	19720.4
553.876	19488.98
554.076	19849.43
554.275	19458.26
554.475	19376.34
554.674	20007.12
554.874	19501.27
555.074	19761.36
555.273	19728.59
555.473	19798.23
555.672	19269.85
555.872	19677.4
556.071	19460.31
556.271	19718.36
556.47	19726.55
556.67	19280.09
556.869	19187.93
557.068	19734.74
557.268	19566.81
557.467	19343.58
557.667	19572.95
557.866	19239.13
558.065	19517.65
558.265	19431.64
558.464	19153.12
558.663	19427.54
558.863	19200.22
559.062	19464.41
559.261	19261.66
559.461	19214.55
559.66	19101.92
559.859	19232.99
560.058	19138.78
560.258	19362.01
560.457	18991.33
560.656	19609.81
560.855	19208.41
561.054	19124.44
561.253	19101.92
561.453	18970.85
561.652	18915.55
561.851	19013.85
562.05	19028.19
562.249	18880.74
562.448	19398.87
562.647	18802.91
562.846	18950.37
563.045	18792.67
563.244	18649.32
563.443	19050.72
563.642	18616.55
563.841	18870.5
564.04	18698.47
564.239	18847.97
564.438	18913.5
564.637	18551.01
564.836	18587.88
565.035	18538.73
565.234	18581.73
565.432	18436.33
565.631	18397.42
565.83	18479.33
566.029	18297.06
566.228	18514.15
566.427	18362.6
566.625	18563.3
566.824	18401.51
567.023	18327.78
567.222	18049.26
567.42	18241.77
567.619	18278.63
567.818	18153.71
568.016	18247.91
568.215	18209
568.414	18352.36
568.612	18319.59
568.811	18014.45
569.01	17729.78
569.208	17780.98
569.407	18159.85
569.605	17690.87
569.804	18125.04
570.002	17752.31
570.201	17858.8
570.4	17703.15
570.598	17731.83
570.797	17598.71
570.995	17819.89
571.193	17557.75
571.392	17889.52
571.59	17522.93
571.789	17299.7
571.987	17297.66
572.186	17492.21
572.384	17340.66
572.582	17672.43
572.781	17193.21
572.979	17320.18
573.177	17135.87
573.376	17449.21
573.574	17168.63
573.772	17391.86
573.971	17101.05
574.169	17092.86
574.367	17096.96
574.565	17387.77
574.763	17068.28
574.962	17158.39
575.16	16728.32
575.358	17152.25
575.556	16795.9
575.754	17142.01
575.952	16689.41
576.151	16951.55
576.349	16449.8
576.547	16658.69
576.745	16806.14
576.943	16711.94
577.141	16660.74
577.339	16623.87
577.537	16738.56
577.735	16509.19
577.933	16421.13
578.131	16621.83
578.329	16468.23
578.527	16337.16
578.725	16462.08
578.923	16681.22
579.121	16210.18
579.319	16265.48
579.516	16423.17
579.714	16355.59
579.912	16079.11
580.11	16070.92
580.308	16091.4
580.506	16040.2
580.704	15976.72
580.901	15921.42
581.099	16281.86
581.297	15765.78
581.495	15915.28
581.692	16056.59
581.89	15591.7
582.088	15782.16
582.285	15472.92
582.483	15743.25
582.681	15661.33
582.878	15620.37
583.076	15368.47
583.274	15499.54
583.471	15329.56
583.669	15554.83
583.866	15413.52
584.064	15442.2
584.262	15245.59
584.459	15135
584.657	15427.86
584.854	15339.8
585.052	15014.17
585.249	15249.69
585.447	15282.45
585.644	15085.85
585.841	14987.55
586.039	15120.67
586.236	14823.71
586.434	14842.14
586.631	14739.74
586.828	14860.57
587.026	14879
587.223	14833.95
587.42	14995.74
587.618	14563.62
587.815	14469.41
588.012	14711.07
588.21	14520.61
588.407	14596.39
588.604	14317.86
588.801	14461.22
588.999	14358.82
589.196	14262.57
589.393	14356.77
589.59	14526.75
589.787	14115.11
589.984	14207.27
590.182	14080.3
590.379	14205.22
590.576	13865.26
590.773	14233.89
590.97	13928.75
591.167	14022.95
591.364	13852.97
591.561	14119.21
591.758	13738.29
591.955	13842.73
592.152	13938.99
592.349	13752.62
592.546	13859.12
592.743	13881.64
592.94	13756.72
593.137	13543.73
593.334	13871.4
593.531	13377.84
593.727	13670.7
593.924	13543.73
594.121	13416.76
594.318	13500.72
594.515	13474.1
594.712	13539.63
594.908	13400.37
595.105	13238.58
595.302	12951.87
595.499	13240.63
595.696	13103.42
595.892	13035.83
596.089	13117.75
596.286	13080.89
596.482	12923.19
596.679	12992.83
596.876	12839.23
597.072	12785.98
597.269	12964.15
597.466	12839.23
597.662	12867.9
597.859	12820.8
598.055	12808.51
598.252	12534.08
598.448	12716.35
598.645	12652.86
598.841	12718.4
599.038	12747.07
599.234	12458.31
599.431	12452.16
599.627	12491.07
599.824	12327.24
600.02	12239.17
600.217	12355.91
600.413	12357.96
600.609	12185.93
600.806	12341.57
601.002	12386.63
601.198	11958.6
601.395	12198.21
601.591	12169.54
601.787	12249.41
601.984	12130.63
602.18	12298.56
602.376	11909.45
602.572	11833.68
602.769	12024.14
602.965	11620.69
603.161	11802.96
603.357	11696.46
603.553	11731.28
603.75	11764.04
603.946	11671.89
604.142	11659.6
604.338	11643.21
604.534	11536.72
604.73	11254.1
604.926	11471.18
605.122	11450.71
605.318	11479.38
605.514	11366.74
605.71	11422.03
605.906	11319.64
606.102	11512.14
606.298	11325.78
606.494	11061.59
606.69	11211.09
606.886	11293.01
607.082	11098.45
607.278	11241.81
607.474	10991.96
607.67	11090.26
607.866	10975.58
608.062	10996.06
608.257	11118.93
608.453	11209.04
608.649	10973.53
608.845	10760.54
609.041	10983.77
609.236	11055.45
609.432	10846.55
609.628	11059.54
609.824	10686.81
610.019	10809.69
610.215	10805.6
610.411	10697.05
610.606	10580.32
610.802	10817.88
610.998	10631.52
611.193	10787.16
611.389	10441.06
611.584	10441.06
611.78	10359.14
611.976	10766.68
612.171	10518.88
612.367	10492.26
612.562	10500.45
612.758	10355.04
612.953	10617.18
613.149	10565.98
613.344	10381.67
613.539	10686.81
613.735	10623.33
613.93	10541.41
614.126	10482.02
614.321	10391.91
614.517	10357.09
614.712	10467.68
614.907	10142.05
615.103	10496.35
615.298	10371.43
615.493	10328.42
615.688	10293.6
615.884	10420.58
616.079	10269.03
616.274	10279.27
616.47	10027.37
616.665	10187.11
616.86	9970.02
617.055	10041.7
617.25	9929.06
617.445	10121.57
617.641	9849.19
617.836	9927.02
618.031	9916.78
618.226	10154.34
618.421	9787.75
618.616	9773.42
618.811	9941.35
619.006	9933.16
619.201	9662.83
619.396	9810.28
619.591	9613.68
619.786	9558.38
619.981	9550.19
620.176	9740.65
620.371	9533.81
620.566	9466.22
620.761	9406.83
620.956	9589.1
621.151	9126.26
621.346	9451.89
621.541	9222.52
621.735	9216.37
621.93	8993.14
622.125	9161.08
622.32	8939.9
622.515	9095.54
622.709	8870.26
622.904	8909.18
623.099	8876.41
623.294	9019.77
623.488	8878.46
623.683	8817.02
623.878	8569.21
624.072	8817.02
624.267	8747.39
624.462	8530.3
624.656	8489.34
624.851	8753.53
625.046	8370.56
625.24	8440.19
625.435	8405.38
625.629	8364.42
625.824	8118.66
626.018	8321.41
626.213	8028.55
626.407	8133
626.602	7893.38
626.796	8018.31
626.991	8087.94
627.185	7922.06
627.38	8042.89
627.574	7870.86
627.768	7805.32
627.963	7629.2
628.157	7692.68
628.352	7901.58
628.546	7692.68
628.74	7747.98
628.935	7635.34
629.129	7471.5
629.323	7625.1
629.517	7543.18
629.712	7408.01
629.906	7446.93
630.1	7240.08
630.294	7356.82
630.489	7322
630.683	7379.34
630.877	7209.36
631.071	7068.05
631.265	7131.54
631.459	7219.6
631.653	7033.24
631.848	6912.41
632.042	7131.54
632.236	6883.73
632.43	7068.05
632.624	7012.76
632.818	6795.67
633.012	6879.64
633.206	6771.1
633.4	6803.86
633.594	6711.71
633.788	6683.03
633.982	6726.04
634.176	6549.92
634.369	6656.41
634.563	6527.39
634.757	6482.33
634.951	6511
635.145	6578.59
635.339	6400.41
635.533	6517.15
635.726	6420.89
635.92	6328.74
636.114	6412.7
636.308	6263.2
636.501	6232.48
636.695	6345.12
636.889	6166.95
637.083	6142.37
637.276	6148.51
637.47	6074.79
637.664	6025.64
637.857	6076.84
638.051	6035.88
638.244	5976.48
638.438	6064.55
638.632	5943.72
638.825	5900.71
639.019	5839.27
639.212	5896.61
639.406	5751.21
639.599	5794.22
639.793	5679.53
639.986	5585.32
640.18	5665.19
640.373	5673.39
640.567	5523.88
640.76	5466.54
640.954	5626.28
641.147	5568.94
641.34	5429.68
641.534	5505.45
641.727	5564.84
641.92	5454.25
642.114	5245.36
642.307	5419.44
642.5	5323.18
642.694	5286.32
642.887	5198.26
643.08	5241.26
643.273	5278.13
643.467	5292.46
643.66	5134.77
643.853	5128.63
644.046	5003.7
644.239	5202.35
644.432	5085.62
644.626	4866.49
644.819	5050.8
645.012	4788.66
645.205	4995.51
645.398	4960.69
645.591	4891.06
645.784	4929.97
645.977	4852.15
646.17	4874.68
646.363	4784.57
646.556	4768.18
646.749	4659.64
646.942	4676.02
647.135	4643.26
647.328	4540.86
647.521	4602.3
647.714	4571.58
647.907	4547
648.099	4600.25
648.292	4594.11
648.485	4563.39
648.678	4489.66
648.871	4383.17
649.064	4348.35
649.256	4587.96
649.449	4317.63
649.642	4479.42
649.835	4420.03
650.027	4366.78
650.22	4297.15
650.413	4288.96
650.605	4239.81
650.798	4354.49
650.991	4200.9
651.183	4168.13
651.376	4239.81
651.568	4198.85
651.761	4092.35
651.954	4157.89
652.146	4069.83
652.339	4131.26
652.531	4035.01
652.724	3975.62
652.916	3985.86
653.109	4139.46
653.301	3938.76
653.494	3969.48
653.686	3854.79
653.879	3959.24
654.071	3914.18
654.263	3781.06
654.456	3897.8
654.648	3889.6
654.84	3873.22
655.033	3748.29
655.225	3803.59
655.417	3707.34
655.61	3731.91
655.802	3760.58
655.994	3680.71
656.186	3680.71
656.379	3711.43
656.571	3629.51
656.763	3510.73
656.955	3568.07
657.148	3621.32
657.34	3510.73
657.532	3400.14
657.724	3500.49
657.916	3391.95
658.108	3520.97
658.3	3502.54
658.492	3348.94
658.684	3471.82
658.876	3383.76
659.068	3344.84
659.26	3430.86
659.452	3303.89
659.644	3420.62
659.836	3281.36
660.028	3316.17
660.22	3269.07
660.412	3191.25
660.604	3191.25
660.796	3086.8
660.988	3103.18
661.18	3135.95
661.372	3178.96
661.563	3094.99
661.755	2892.24
661.947	3074.51
662.139	3023.31
662.331	3078.61
662.522	3054.03
662.714	3051.99
662.906	2896.34
663.097	3013.07
663.289	3029.46
663.481	2875.86
663.673	2906.58
663.864	3035.6
664.056	2834.9
664.247	2888.15
664.439	2847.19
664.631	2961.87
664.822	2826.71
665.014	2861.52
665.205	2752.98
665.397	2834.9
665.588	2806.23
665.78	2734.55
665.971	2658.78
666.163	2652.63
666.354	2675.16
666.546	2712.02
666.737	2699.73
666.929	2664.92
667.12	2767.32
667.311	2677.21
667.503	2699.73
667.694	2556.38
667.885	2587.1
668.077	2556.38
668.268	2572.76
668.459	2613.72
668.651	2529.75
668.842	2587.1
669.033	2513.37
669.224	2501.08
669.416	2548.19
669.607	2576.86
669.798	2480.6
669.989	2421.21
670.18	2466.27
670.371	2486.75
670.563	2449.88
670.754	2488.79
670.945	2408.92
671.136	2447.83
671.327	2327
671.518	2456.03
671.709	2408.92
671.9	2453.98
672.091	2361.82
672.282	2318.81
672.473	2341.34
672.664	2220.51
672.855	2343.39
673.046	2388.44
673.237	2347.48
673.428	2284
673.619	2284
673.809	2224.61
674	2372.06
674.191	2343.39
674.382	2320.86
674.573	2142.69
674.764	2238.94
674.954	2195.93
675.145	2111.97
675.336	2247.13
675.527	2150.88
675.717	2296.28
675.908	2167.26
676.099	2038.24
676.289	2222.56
676.48	2195.93
676.671	2218.46
676.861	2144.74
677.052	2105.82
677.243	2032.1
677.433	2144.74
677.624	2154.98
677.814	2052.58
678.005	2068.96
678.195	2079.2
678.386	2030.05
678.576	2103.78
678.767	2048.48
678.957	2124.26
679.148	2130.4
679.338	2048.48
679.529	2003.43
679.719	1982.95
679.909	1999.33
680.1	1989.09
680.29	1907.17
680.481	2023.91
680.671	2052.58
680.861	1915.36
681.052	1921.51
681.242	1907.17
681.432	1974.75
681.622	1896.93
681.813	2015.71
682.003	2003.43
682.193	1978.85
682.383	1913.31
682.573	1976.8
682.764	1866.21
682.954	1937.89
683.144	1941.99
683.334	1978.85
683.524	1888.74
683.714	1907.17
683.904	1894.88
684.094	1853.92
684.284	1896.93
684.474	2019.81
684.664	1958.37
684.854	1853.92
685.044	1831.4
685.234	1868.26
685.424	1790.44
685.614	1790.44
685.804	1776.1
685.994	1868.26
686.184	1788.39
686.374	1757.67
686.564	1767.91
686.753	1833.44
686.943	1645.03
687.133	1751.53
687.323	1851.88
687.513	1786.34
687.702	1782.24
687.892	1798.63
688.082	1655.27
688.272	1843.68
688.461	1753.57
688.651	1808.87
688.841	1645.03
689.03	1679.85
689.22	1640.93
689.41	1675.75
689.599	1794.53
689.789	1624.55
689.979	1722.85
690.168	1685.99
690.358	1655.27
690.547	1642.98
690.737	1683.94
690.926	1704.42
691.116	1616.36
691.305	1683.94
691.495	1636.84
691.684	1604.07
691.874	1647.08
692.063	1610.22
692.252	1602.02
692.442	1612.26
692.631	1563.11
692.82	1626.6
693.01	1569.26
693.199	1569.26
693.388	1550.82
693.578	1696.23
693.767	1495.53
693.956	1589.74
694.146	1417.71
694.335	1554.92
694.524	1552.87
694.713	1499.63
694.902	1610.22
695.092	1513.96
695.281	1503.72
695.47	1450.47
695.659	1444.33
695.848	1464.81
696.037	1450.47
696.226	1503.72
696.415	1384.94
696.604	1509.86
696.793	1495.53
696.982	1554.92
697.171	1481.19
697.36	1462.76
697.549	1391.08
697.738	1458.67
697.927	1456.62
698.116	1341.93
698.305	1395.18
698.494	1448.43
698.683	1419.75
698.872	1423.85
699.061	1473
699.25	1389.03
699.438	1479.15
699.627	1454.57
699.816	1393.13
700.005	1405.42
700.193	1352.17
700.382	1462.76
700.571	1397.23
700.76	1479.15
700.948	1376.75
701.137	1343.98
701.326	1483.24
701.514	1249.77
701.703	1282.54
701.892	1389.03
702.08	1339.88
702.269	1290.73
702.457	1395.18
702.646	1288.68
702.834	1360.36
703.023	1329.64
703.212	1429.99
703.4	1374.7
703.589	1311.21
703.777	1335.79
703.965	1202.67
704.154	1278.44
704.342	1233.39
704.531	1227.25
704.719	1251.82
704.907	1237.49
705.096	1274.35
705.284	1288.68
705.472	1278.44
705.661	1176.05
705.849	1337.84
706.037	1208.81
706.226	1221.1
706.414	1249.77
706.602	1268.2
706.79	1300.97
706.979	1319.4
707.167	1210.86
707.355	1290.73
707.543	1364.46
707.731	1272.3
707.919	1268.2
708.107	1243.63
708.296	1194.48
708.484	1245.68
708.672	1284.59
708.86	1231.34
709.048	1194.48
709.236	1225.2
709.424	1186.29
709.612	1290.73
709.8	1110.51
709.988	1194.48
710.176	1231.34
710.364	1227.25
710.551	1159.66
710.739	1137.13
710.927	1182.19
711.115	1257.96
711.303	1270.25
711.491	1194.48
711.679	1196.53
711.866	1194.48
712.054	1139.18
712.242	1178.09
712.43	1235.44
712.617	1075.7
712.805	1194.48
712.993	1233.39
713.181	1135.09
713.368	1151.47
713.556	1188.33
713.744	1153.52
713.931	1145.33
714.119	1153.52
714.306	1083.89
714.494	1307.12
714.682	1122.8
714.869	1141.23
715.057	1096.18
715.244	1169.9
715.432	1044.98
715.619	1063.41
715.807	1151.47
715.994	1120.75
716.182	1034.74
716.369	1141.23
716.556	1118.7
716.744	1087.98
716.931	1178.09
717.119	1083.89
717.306	1116.65
717.493	1069.55
717.681	1024.5
717.868	1153.52
718.055	1104.37
718.242	1190.38
718.43	1061.36
718.617	1153.52
718.804	1063.41
718.991	1186.29
719.179	997.87
719.366	1065.46
719.553	1087.98
719.74	1128.94
719.927	1110.51
720.114	1096.18
720.301	1065.46
720.488	1059.31
720.676	1069.55
720.863	1092.08
721.05	1022.45
721.237	1110.51
721.424	1102.32
721.611	1098.22
721.798	1112.56
721.985	1085.94
722.172	1010.16
722.358	1040.88
722.545	1044.98
722.732	1087.98
722.919	1012.21
723.106	1092.08
723.293	1030.64
723.48	1057.26
723.667	1014.26
723.853	1057.26
724.04	1098.22
724.227	1018.35
724.414	985.58
724.6	1065.46
724.787	913.91
724.974	1085.94
725.161	969.2
725.347	1022.45
725.534	989.68
725.72	993.78
725.907	950.77
726.094	1067.5
726.28	1034.74
726.467	1071.6
726.653	950.77
726.84	1118.7
727.027	1024.5
727.213	971.25
727.4	1065.46
727.586	1079.79
727.773	995.82
727.959	999.92
728.145	1090.03
728.332	1006.06
728.518	1004.02
728.705	995.82
728.891	1188.33
729.077	1044.98
729.264	963.06
729.45	1028.59
729.636	973.3
729.823	999.92
730.009	979.44
730.195	969.2
730.382	934.39
730.568	987.63
730.754	1026.54
730.94	1006.06
731.126	979.44
731.313	1024.5
731.499	975.35
731.685	989.68
731.871	907.76
732.057	993.78
732.243	983.54
732.429	1065.46
732.615	1036.78
732.801	1057.26
732.987	952.82
733.173	975.35
733.359	1083.89
733.545	995.82
733.731	1010.16
733.917	940.53
734.103	918
734.289	930.29
734.475	1057.26
734.661	983.54
734.847	971.25
735.033	897.52
735.219	938.48
735.404	987.63
735.59	903.67
735.776	981.49
735.962	930.29
736.148	956.91
736.333	874.99
736.519	965.11
736.705	985.58
736.89	1022.45
737.076	967.15
737.262	946.67
737.447	905.71
737.633	1028.59
737.819	934.39
738.004	999.92
738.19	948.72
738.375	985.58
738.561	1020.4
738.747	928.24
738.932	891.38
739.118	999.92
739.303	907.76
739.489	930.29
739.674	944.63
739.859	924.15
740.045	948.72
740.23	911.86
740.416	913.91
740.601	1059.31
740.786	954.87
740.972	889.33
741.157	903.67
741.342	879.09
741.528	852.47
741.713	971.25
741.898	860.66
742.084	981.49
742.269	920.05
742.454	874.99
742.639	952.82
742.824	827.89
743.01	840.18
743.195	938.48
743.38	879.09
743.565	881.14
743.75	891.38
743.935	895.47
744.12	821.75
744.305	909.81
744.49	831.99
744.675	1006.06
744.86	866.8
745.045	819.7
745.23	852.47
745.415	922.1
745.6	793.08
745.785	764.4
745.97	850.42
746.155	848.37
746.34	889.33
746.525	903.67
746.71	795.12
746.895	782.84
747.079	782.84
747.264	750.07
747.449	874.99
747.634	872.95
747.819	842.23
748.003	768.5
748.188	811.51
748.373	807.41
748.557	760.31
748.742	807.41
748.927	809.46
749.111	819.7
749.296	791.03
749.481	774.64
749.665	786.93
749.85	866.8
750.034	766.45
750.219	733.68
750.404	776.69
750.588	764.4
750.773	717.3
750.957	795.12
751.141	725.49
751.326	756.21
751.51	825.84
751.695	686.58
751.879	762.36
752.064	741.88
752.248	776.69
752.432	692.73
752.617	676.34
752.801	729.59
752.985	715.25
753.17	655.86
753.354	776.69
753.538	670.2
753.722	680.44
753.907	659.96
754.091	776.69
754.275	633.33
754.459	641.53
754.643	674.29
754.828	653.81
755.012	629.24
755.196	596.47
755.38	700.92
755.564	596.47
755.748	629.24
755.932	680.44
756.116	627.19
756.3	582.14
756.484	633.33
756.668	655.86
756.852	588.28
757.036	596.47
757.22	639.48
757.404	561.66
757.588	598.52
757.772	561.66
757.956	606.71
758.14	596.47
758.323	512.5
758.507	625.14
758.691	592.37
758.875	563.7
759.059	602.61
759.242	614.9
759.426	567.8
759.61	559.61
759.794	549.37
759.977	526.84
760.161	549.37
760.345	506.36
760.528	545.27
760.712	461.3
760.895	561.66
761.079	573.94
761.263	494.07
761.446	520.7
761.63	512.5
761.813	610.81
761.997	537.08
762.18	547.32
762.364	569.85
762.547	442.87
762.731	508.41
762.914	528.89
763.098	559.61
763.281	504.31
763.464	485.88
763.648	541.18
763.831	543.22
764.015	541.18
764.198	479.74
764.381	561.66
764.564	524.79
764.748	508.41
764.931	520.7
765.114	504.31
765.297	467.45
765.481	438.78
765.664	479.74
765.847	467.45
766.03	455.16
766.213	508.41
766.397	475.64
766.58	469.5
766.763	412.15
766.946	510.46
767.129	541.18
767.312	465.4
767.495	518.65
767.678	444.92
767.861	428.54
768.044	428.54
768.227	528.89
768.41	340.47
768.593	401.91
768.776	471.54
768.959	442.87
769.142	506.36
769.324	457.21
769.507	455.16
769.69	426.49
769.873	444.92
770.056	393.72
770.239	473.59
770.421	465.4
770.604	401.91
770.787	410.11
770.97	371.19
771.152	381.43
771.335	432.63
771.518	373.24
771.7	459.26
771.883	410.11
772.066	391.67
772.248	432.63
772.431	342.52
772.613	422.39
772.796	395.77
772.978	373.24
773.161	416.25
773.343	363
773.526	360.95
773.708	363
773.891	387.58
774.073	299.52
774.256	342.52
774.438	430.59
774.621	305.66
774.803	487.93
774.985	377.34
775.168	383.48
775.35	403.96
775.532	428.54
775.715	328.19
775.897	371.19
776.079	391.67
776.261	340.47
776.444	371.19
776.626	336.38
776.808	317.95
776.99	281.08
777.173	307.71
777.355	399.87
777.537	344.57
777.719	295.42
777.901	389.63
778.083	403.96
778.265	412.15
778.447	305.66
778.629	279.04
778.811	309.76
778.993	356.86
779.175	301.56
779.357	367.1
779.539	285.18
779.721	254.46
779.903	303.61
780.085	420.35
780.267	264.7
780.449	285.18
780.631	309.76
780.812	268.8
780.994	317.95
781.176	291.32
781.358	274.94
781.54	305.66
781.721	281.08
781.903	166.4
782.085	285.18
782.267	307.71
782.448	262.65
782.63	299.52
782.812	299.52
782.993	223.74
783.175	305.66
783.357	309.76
783.538	317.95
783.72	231.93
783.901	272.89
784.083	180.73
784.264	311.8
784.446	268.8
784.627	172.54
784.809	250.36
784.99	276.99
785.172	266.75
785.353	215.55
785.535	262.65
785.716	268.8
785.897	279.04
786.079	190.97
786.26	264.7
786.441	287.23
786.623	231.93
786.804	272.89
786.985	248.32
787.167	246.27
787.348	231.93
787.529	350.71
787.71	248.32
787.891	287.23
788.073	209.4
788.254	186.88
788.435	254.46
788.616	174.59
788.797	201.21
788.978	291.32
789.159	238.08
789.34	246.27
789.522	227.84
789.703	184.83
789.884	186.88
790.065	121.34
790.246	199.16
790.427	231.93
790.607	141.82
790.788	248.32
790.969	166.4
791.15	141.82
791.331	154.11
791.512	137.73
791.693	219.64
791.874	168.45
792.054	135.68
792.235	125.44
792.416	147.97
792.597	209.4
792.778	174.59
792.958	178.69
793.139	217.6
793.32	236.03
793.5	170.49
793.681	170.49
793.862	188.93
794.042	195.07
794.223	125.44
794.404	152.06
794.584	117.25
794.765	168.45
794.945	180.73
795.126	125.44
795.306	172.54
795.487	166.4
795.667	145.92
795.848	86.53
796.028	180.73
796.209	156.16
796.389	129.53
796.57	168.45
796.75	123.39
796.93	223.74
797.111	199.16
797.291	150.01
797.471	129.53
797.652	178.69
797.832	201.21
798.012	160.25
798.192	129.53
798.373	127.49
798.553	96.77
798.733	111.1
798.913	139.77
799.093	141.82
799.274	88.57
799.454	162.3
799.634	225.79
799.814	137.73
799.994	90.62
800.174	143.87
800.354	156.16
800.534	131.58
800.714	84.48
800.894	121.34
801.074	113.15
801.254	190.97
801.434	190.97
801.614	125.44
801.794	168.45
801.974	387.58
802.154	72.19
802.334	113.15
802.514	90.62
802.693	184.83
802.873	166.4
803.053	147.97
803.233	72.19
803.413	203.26
803.592	123.39
803.772	119.29
803.952	117.25
804.131	90.62
804.311	72.19
804.491	104.96
804.67	92.67
804.85	162.3
805.03	104.96
805.209	61.95
805.389	84.48
805.568	182.78
805.748	33.28
805.928	154.11
806.107	119.29
806.287	94.72
806.466	125.44
806.646	113.15
806.825	139.77
807.004	135.68
807.184	59.9
807.363	123.39
807.543	41.47
807.722	139.77
807.901	61.95
808.081	14.85
808.26	121.34
808.439	53.76
808.619	162.3
808.798	68.09
808.977	96.77
809.156	84.48
809.336	127.49
809.515	109.05
809.694	55.81
809.873	131.58
810.052	14.85
810.231	147.97
810.411	20.99
810.59	172.54
810.769	47.62
810.948	117.25
811.127	94.72
811.306	53.76
811.485	47.62
811.664	37.38
811.843	94.72
812.022	111.1
812.201	72.19
812.38	84.48
812.559	0.51
812.737	82.43
812.916	117.25
813.095	92.67
813.274	33.28
813.453	72.19
813.632	53.76
813.811	16.9
813.989	125.44
814.168	154.11
814.347	94.72
814.526	74.24
814.704	39.42
814.883	160.25
815.062	86.53
815.24	80.38
815.419	20.99
815.598	102.91
815.776	88.57
815.955	20.99
816.133	86.53
816.312	86.53
816.49	39.42
816.669	78.33
816.847	66.05
817.026	98.81
817.204	104.96
817.383	125.44
817.561	82.43
817.74	70.14
817.918	49.66
818.097	152.06
818.275	55.81
818.453	51.71
818.632	125.44
818.81	55.81
818.988	10.75
819.167	147.97
819.345	49.66
819.523	59.9
819.701	35.33
819.879	29.18
820.058	64
820.236	123.39
820.414	6.66
820.592	111.1
820.77	111.1
820.948	92.67
821.127	20.99
821.305	66.05
821.483	86.53
821.661	47.62
821.839	-17.92
822.017	10.75
822.195	23.04
822.373	47.62
822.551	66.05
822.729	102.91
822.907	51.71
823.085	111.1
823.262	98.81
823.44	29.18
823.618	45.57
823.796	57.86
823.974	25.09
824.152	35.33
824.329	12.8
824.507	119.29
824.685	-32.26
824.863	47.62
825.04	84.48
825.218	102.91
825.396	80.38
825.574	78.33
825.751	64
825.929	53.76
826.107	92.67
826.284	88.57
826.462	8.7
826.639	113.15
826.817	88.57
826.994	18.94
827.172	29.18
827.349	39.42
827.527	102.91
827.704	109.05
827.882	80.38
828.059	92.67
828.237	74.24
828.414	-15.87
828.591	14.85
828.769	78.33
828.946	72.19
829.124	45.57
829.301	90.62
829.478	55.81
829.655	6.66
829.833	74.24
830.01	8.7
830.187	45.57
830.364	45.57
830.542	-26.11
830.719	14.85
830.896	117.25
831.073	100.86
831.25	47.62
831.427	57.86
831.604	20.99
831.782	39.42
831.959	82.43
832.136	23.04
832.313	31.23
832.49	25.09
832.667	53.76
832.844	41.47
833.021	96.77
833.198	35.33
833.374	76.29
833.551	31.23
833.728	45.57
833.905	33.28
834.082	23.04
834.259	41.47
834.436	115.2
834.612	31.23
834.789	35.33
834.966	4.61
835.143	53.76
835.319	39.42
835.496	111.1
835.673	-7.68
835.85	109.05
836.026	45.57
836.203	82.43
836.38	74.24
836.556	25.09
836.733	59.9
836.909	80.38
837.086	-19.97
837.262	57.86
837.439	82.43
837.616	59.9
837.792	92.67
837.968	29.18
838.145	12.8
838.321	66.05
838.498	-15.87
838.674	37.38
838.851	72.19
839.027	10.75
839.203	6.66
839.38	80.38
839.556	-17.92
839.732	61.95
839.909	35.33
840.085	39.42
840.261	49.66
840.437	-24.06
840.614	70.14
840.79	39.42
840.966	96.77
841.142	25.09
841.318	-5.63
841.494	-7.68
841.671	57.86
841.847	72.19
842.023	20.99
842.199	37.38
842.375	78.33
842.551	55.81
842.727	20.99
842.903	133.63
843.079	8.7
843.255	23.04
843.431	-19.97
843.607	10.75
843.783	-17.92
843.959	27.14
844.134	16.9
844.31	39.42
844.486	35.33
844.662	78.33
844.838	-7.68
845.013	84.48
845.189	25.09
845.365	102.91
845.541	72.19
845.716	68.09
845.892	18.94
846.068	10.75
846.244	-48.64
846.419	84.48
846.595	-15.87
846.77	68.09
846.946	96.77
847.122	35.33
847.297	66.05
847.473	55.81
847.648	59.9
847.824	6.66
847.999	76.29
848.175	25.09
848.35	29.18
848.526	25.09
848.701	84.48
848.876	-3.58
849.052	49.66
849.227	23.04
849.403	2.56
849.578	35.33
849.753	31.23
849.929	33.28
850.104	31.23
850.279	-26.11
850.454	27.14
850.63	137.73
850.805	29.18
850.98	35.33
851.155	47.62
851.33	70.14
851.505	-24.06
851.681	64
851.856	-11.78
852.031	-1.54
852.206	-15.87
852.381	33.28
852.556	-34.3
852.731	104.96
852.906	45.57
853.081	47.62
853.256	41.47
853.431	78.33
853.606	45.57
853.781	41.47
853.956	12.8
854.131	14.85
854.305	25.09
854.48	-13.82
854.655	-9.73
854.83	92.67
855.005	41.47
855.18	4.61
855.354	59.9
855.529	64
855.704	8.7
855.879	90.62
856.053	51.71
856.228	4.61
856.403	-24.06
856.577	41.47
856.752	12.8
856.926	4.61
857.101	-5.63
857.276	-3.58
857.45	-40.45
857.625	16.9
857.799	-48.64
857.974	31.23
858.148	-30.21
858.323	8.7
858.497	53.76
858.672	39.42
858.846	16.9
859.02	53.76
859.195	53.76
859.369	4.61
859.543	55.81
859.718	-77.31
859.892	64
860.066	12.8
860.241	-13.82
860.415	-9.73
860.589	-9.73
860.763	41.47
860.938	-1.54
861.112	35.33
861.286	2.56
861.46	41.47
861.634	8.7
861.808	-15.87
861.982	-13.82
862.157	80.38
862.331	27.14
862.505	-30.21
862.679	37.38
862.853	0.51
863.027	51.71
863.201	98.81
863.375	31.23
863.549	43.52
863.722	-5.63
863.896	4.61
864.07	-15.87
864.244	68.09
864.418	12.8
864.592	2.56
864.766	23.04
864.939	66.05
865.113	-7.68
865.287	33.28
865.461	35.33
865.634	33.28
865.808	59.9
865.982	150.01
866.156	16.9
866.329	2.56
866.503	25.09
866.676	-7.68
866.85	-19.97
867.024	37.38
867.197	80.38
867.371	29.18
867.544	61.95
867.718	35.33
867.891	74.24
868.065	2.56
868.238	53.76
868.412	96.77
868.585	-62.98
868.759	-7.68
868.932	41.47
869.105	-15.87
869.279	57.86
869.452	-42.5
869.625	43.52
869.799	-28.16
869.972	12.8
870.145	-9.73
870.319	70.14
870.492	47.62
870.665	55.81
870.838	-42.5
871.011	8.7
871.185	-26.11
871.358	12.8
871.531	10.75
871.704	70.14
871.877	4.61
872.05	29.18
872.223	37.38
872.396	-24.06
872.569	107.01
872.742	23.04
872.915	-13.82
873.088	-22.02
873.261	86.53
873.434	-11.78
873.607	31.23
873.78	33.28
873.953	31.23
874.126	43.52
874.299	-1.54
874.471	-34.3
874.644	72.19
874.817	20.99
874.99	35.33
875.163	41.47
875.335	-28.16
875.508	20.99
875.681	57.86
875.853	6.66
876.026	53.76
876.199	12.8
876.371	53.76
876.544	6.66
876.717	-44.54
876.889	29.18
877.062	45.57
877.234	37.38
877.407	-11.78
877.579	-62.98
877.752	61.95
877.924	127.49
878.097	-60.93
878.269	-50.69
878.442	14.85
878.614	16.9
878.786	-1.54
878.959	-7.68
879.131	53.76
879.303	12.8
879.476	-36.35
879.648	27.14
879.82	43.52
879.993	18.94
880.165	-3.58
880.337	-11.78
880.509	49.66
880.681	8.7
880.854	18.94
881.026	72.19
881.198	57.86
881.37	-67.07
881.542	61.95
881.714	-1.54
881.886	23.04
882.058	-7.68
882.23	47.62
882.402	35.33
882.574	16.9
882.746	4.61
882.918	8.7
883.09	53.76
883.262	39.42
883.434	29.18
883.606	57.86
883.778	6.66
883.95	51.71
884.122	64
884.293	8.7
884.465	14.85
884.637	31.23
884.809	12.8
884.98	8.7
885.152	2.56
885.324	-17.92
885.496	49.66
885.667	-3.58
885.839	-9.73
886.011	27.14
886.182	39.42
886.354	51.71
886.525	-19.97
886.697	45.57
886.869	29.18
887.04	12.8
887.212	25.09
887.383	66.05
887.555	0.51
887.726	6.66
887.897	-32.26
888.069	-48.64
888.24	-3.58
888.412	35.33
888.583	14.85
888.754	68.09
888.926	-5.63
889.097	2.56
889.268	-15.87
889.44	-7.68
889.611	76.29
889.782	27.14
889.953	25.09
890.125	94.72
890.296	45.57
890.467	8.7
890.638	27.14
890.809	45.57
890.98	-26.11
891.151	23.04
891.323	-32.26
891.494	23.04
891.665	-1.54
891.836	-54.78
892.007	74.24
892.178	8.7
892.349	37.38
892.52	-15.87
892.691	14.85
892.862	49.66
893.032	-40.45
893.203	-3.58
893.374	35.33
893.545	33.28
893.716	47.62
893.887	53.76
894.057	-44.54
894.228	10.75
894.399	18.94
894.57	-52.74
894.74	-9.73
894.911	8.7
895.082	-28.16
895.253	-22.02
895.423	41.47
895.594	6.66
895.764	27.14
895.935	-17.92
896.106	8.7
896.276	39.42
896.447	109.05
896.617	-34.3
896.788	-13.82
896.958	45.57
897.129	41.47
897.299	47.62
897.47	37.38
897.64	12.8
897.81	84.48
897.981	4.61
898.151	-15.87
898.322	4.61
898.492	51.71
898.662	-42.5
898.832	-5.63
899.003	-44.54
899.173	4.61
899.343	16.9
899.513	10.75
