Data from USB4F104151__53__12-54-00-393.txt Node

Date: Fri Mar 14 12:54:00 EDT 2025
User: louis
Spectrometer: USB4F10415
Trigger mode: 4
Integration Time (sec): 1.000000E-2
Scans to average: 1
Electric dark correction enabled: true
Nonlinearity correction enabled: false
Boxcar width: 0
XAxis mode: Wavelengths
Number of Pixels in Spectrum: 3648
>>>>>Begin Spectral Data<<<<<
178.204	-37.38
178.424	-37.38
178.644	-37.38
178.864	-25.09
179.084	-96.77
179.304	-12.8
179.524	-49.66
179.744	-33.28
179.964	30.21
180.184	3.58
180.404	7.68
180.624	-0.51
180.844	-10.75
181.064	-20.99
181.283	1.54
181.503	-27.14
181.723	112.13
181.943	-33.28
182.163	-10.75
182.383	-16.9
182.602	81.41
182.822	1.54
183.042	-14.85
183.262	28.16
183.482	50.69
183.701	-16.9
183.921	15.87
184.141	19.97
184.361	42.5
184.58	-59.9
184.8	-8.7
185.02	5.63
185.239	40.45
185.459	-18.94
185.679	24.06
185.898	-23.04
186.118	7.68
186.338	30.21
186.557	24.06
186.777	-37.38
186.997	118.27
187.216	26.11
187.436	22.02
187.655	32.26
187.875	75.26
188.095	1.54
188.314	89.6
188.534	-2.56
188.753	9.73
188.973	26.11
189.192	79.36
189.412	15.87
189.631	11.78
189.851	26.11
190.07	32.26
190.29	11.78
190.509	1.54
190.729	-88.57
190.948	52.74
191.168	46.59
191.387	-29.18
191.607	46.59
191.826	93.69
192.045	-0.51
192.265	83.45
192.484	-39.42
192.704	13.82
192.923	-66.05
193.142	-6.66
193.362	-76.29
193.581	24.06
193.8	22.02
194.02	75.26
194.239	19.97
194.458	28.16
194.678	-37.38
194.897	-31.23
195.116	85.5
195.335	1.54
195.555	-18.94
195.774	-0.51
195.993	50.69
196.212	38.4
196.432	-49.66
196.651	34.3
196.87	46.59
197.089	32.26
197.308	19.97
197.528	19.97
197.747	-70.14
197.966	32.26
198.185	-16.9
198.404	38.4
198.623	19.97
198.842	26.11
199.062	-20.99
199.281	46.59
199.5	-43.52
199.719	95.74
199.938	9.73
200.157	28.16
200.376	5.63
200.595	-6.66
200.814	56.83
201.033	-41.47
201.252	9.73
201.471	13.82
201.69	-35.33
201.909	-8.7
202.128	7.68
202.347	75.26
202.566	54.78
202.785	83.45
203.004	3.58
203.223	56.83
203.442	-2.56
203.661	79.36
203.879	32.26
204.098	-12.8
204.317	-14.85
204.536	52.74
204.755	24.06
204.974	-8.7
205.193	-33.28
205.411	48.64
205.63	-45.57
205.849	-31.23
206.068	-41.47
206.287	19.97
206.505	-12.8
206.724	69.12
206.943	-14.85
207.162	15.87
207.381	19.97
207.599	81.41
207.818	54.78
208.037	77.31
208.255	56.83
208.474	7.68
208.693	11.78
208.911	-6.66
209.13	32.26
209.349	32.26
209.567	-61.95
209.786	19.97
210.005	112.13
210.223	-41.47
210.442	36.35
210.661	-20.99
210.879	-18.94
211.098	19.97
211.316	7.68
211.535	34.3
211.753	-61.95
211.972	3.58
212.191	62.98
212.409	7.68
212.628	48.64
212.846	-4.61
213.065	28.16
213.283	-8.7
213.502	-31.23
213.72	-12.8
213.938	30.21
214.157	28.16
214.375	-47.62
214.594	22.02
214.812	22.02
215.031	-29.18
215.249	22.02
215.467	-31.23
215.686	-6.66
215.904	60.93
216.122	-59.9
216.341	9.73
216.559	-66.05
216.778	-23.04
216.996	11.78
217.214	42.5
217.432	-51.71
217.651	1.54
217.869	-49.66
218.087	40.45
218.306	28.16
218.524	36.35
218.742	-18.94
218.96	-10.75
219.179	38.4
219.397	-2.56
219.615	32.26
219.833	-8.7
220.051	5.63
220.27	36.35
220.488	22.02
220.706	42.5
220.924	-8.7
221.142	54.78
221.36	-6.66
221.578	34.3
221.796	58.88
222.015	9.73
222.233	-8.7
222.451	-57.86
222.669	-76.29
222.887	34.3
223.105	-6.66
223.323	-14.85
223.541	24.06
223.759	26.11
223.977	-8.7
224.195	101.89
224.413	50.69
224.631	13.82
224.849	9.73
225.067	7.68
225.285	3.58
225.503	69.12
225.721	24.06
225.939	5.63
226.157	15.87
226.375	91.65
226.592	-90.62
226.81	-0.51
227.028	5.63
227.246	5.63
227.464	15.87
227.682	48.64
227.9	65.02
228.117	60.93
228.335	-23.04
228.553	32.26
228.771	-0.51
228.989	105.98
229.206	52.74
229.424	40.45
229.642	19.97
229.86	-31.23
230.077	38.4
230.295	-31.23
230.513	34.3
230.731	108.03
230.948	-25.09
231.166	-2.56
231.384	22.02
231.601	-18.94
231.819	7.68
232.037	-4.61
232.254	26.11
232.472	28.16
232.689	3.58
232.907	89.6
233.125	1.54
233.342	19.97
233.56	28.16
233.777	15.87
233.995	-16.9
234.213	34.3
234.43	44.54
234.648	-2.56
234.865	-18.94
235.083	-12.8
235.3	5.63
235.518	-0.51
235.735	-23.04
235.953	56.83
236.17	13.82
236.388	5.63
236.605	-59.9
236.822	71.17
237.04	40.45
237.257	36.35
237.475	-23.04
237.692	36.35
237.909	7.68
238.127	44.54
238.344	-10.75
238.562	114.17
238.779	48.64
238.996	-14.85
239.214	-37.38
239.431	48.64
239.648	-8.7
239.865	7.68
240.083	-8.7
240.3	52.74
240.517	-25.09
240.735	34.3
240.952	-20.99
241.169	-0.51
241.386	-25.09
241.603	11.78
241.821	9.73
242.038	11.78
242.255	87.55
242.472	28.16
242.689	36.35
242.907	-18.94
243.124	56.83
243.341	60.93
243.558	-16.9
243.775	-18.94
243.992	15.87
244.209	73.21
244.426	32.26
244.643	73.21
244.86	67.07
245.078	22.02
245.295	-2.56
245.512	-8.7
245.729	9.73
245.946	1.54
246.163	26.11
246.38	-23.04
246.597	-25.09
246.814	11.78
247.031	-31.23
247.248	-64
247.464	-2.56
247.681	30.21
247.898	7.68
248.115	-16.9
248.332	15.87
248.549	30.21
248.766	-0.51
248.983	50.69
249.2	67.07
249.417	-39.42
249.633	30.21
249.85	9.73
250.067	-41.47
250.284	-47.62
250.501	-35.33
250.717	-2.56
250.934	1.54
251.151	34.3
251.368	-6.66
251.585	-27.14
251.801	81.41
252.018	-23.04
252.235	-10.75
252.451	24.06
252.668	-31.23
252.885	19.97
253.102	48.64
253.318	50.69
253.535	-25.09
253.752	73.21
253.968	38.4
254.185	48.64
254.401	-35.33
254.618	9.73
254.835	58.88
255.051	3.58
255.268	17.92
255.484	32.26
255.701	15.87
255.917	-10.75
256.134	-6.66
256.351	-18.94
256.567	-18.94
256.784	3.58
257	-8.7
257.217	-51.71
257.433	24.06
257.65	-12.8
257.866	83.45
258.082	-25.09
258.299	-37.38
258.515	13.82
258.732	-45.57
258.948	-88.57
259.165	-35.33
259.381	58.88
259.597	3.58
259.814	48.64
260.03	-39.42
260.246	75.26
260.463	32.26
260.679	19.97
260.895	38.4
261.112	17.92
261.328	36.35
261.544	-14.85
261.761	108.03
261.977	-20.99
262.193	11.78
262.409	-12.8
262.626	17.92
262.842	7.68
263.058	48.64
263.274	22.02
263.49	38.4
263.707	81.41
263.923	7.68
264.139	50.69
264.355	52.74
264.571	13.82
264.787	-16.9
265.004	77.31
265.22	54.78
265.436	26.11
265.652	46.59
265.868	-29.18
266.084	-0.51
266.3	17.92
266.516	-0.51
266.732	-14.85
266.948	50.69
267.164	17.92
267.38	17.92
267.596	110.08
267.812	83.45
268.028	-25.09
268.244	32.26
268.46	56.83
268.676	-59.9
268.892	77.31
269.108	28.16
269.324	56.83
269.54	44.54
269.756	52.74
269.972	48.64
270.188	-12.8
270.403	-18.94
270.619	93.69
270.835	93.69
271.051	9.73
271.267	15.87
271.483	-14.85
271.698	42.5
271.914	7.68
272.13	67.07
272.346	28.16
272.562	-2.56
272.777	26.11
272.993	52.74
273.209	-8.7
273.425	19.97
273.64	-37.38
273.856	-8.7
274.072	-39.42
274.287	24.06
274.503	15.87
274.719	3.58
274.934	1.54
275.15	-10.75
275.366	36.35
275.581	58.88
275.797	9.73
276.012	44.54
276.228	-27.14
276.444	15.87
276.659	7.68
276.875	-16.9
277.09	42.5
277.306	13.82
277.521	3.58
277.737	-20.99
277.952	9.73
278.168	46.59
278.383	40.45
278.599	-10.75
278.814	34.3
279.03	73.21
279.245	-8.7
279.461	11.78
279.676	32.26
279.892	3.58
280.107	19.97
280.322	36.35
280.538	36.35
280.753	26.11
280.969	-29.18
281.184	62.98
281.399	36.35
281.615	9.73
281.83	34.3
282.045	-20.99
282.26	-20.99
282.476	-66.05
282.691	19.97
282.906	32.26
283.122	15.87
283.337	40.45
283.552	81.41
283.767	26.11
283.983	30.21
284.198	19.97
284.413	62.98
284.628	11.78
284.843	-33.28
285.058	-23.04
285.274	13.82
285.489	58.88
285.704	40.45
285.919	62.98
286.134	15.87
286.349	30.21
286.564	58.88
286.779	89.6
286.995	-12.8
287.21	5.63
287.425	-10.75
287.64	9.73
287.855	40.45
288.07	-2.56
288.285	15.87
288.5	-16.9
288.715	42.5
288.93	54.78
289.145	15.87
289.36	1.54
289.575	9.73
289.79	30.21
290.004	26.11
290.219	48.64
290.434	-37.38
290.649	28.16
290.864	-23.04
291.079	15.87
291.294	58.88
291.509	11.78
291.724	105.98
291.938	50.69
292.153	-14.85
292.368	15.87
292.583	-4.61
292.798	56.83
293.012	-6.66
293.227	-29.18
293.442	34.3
293.657	3.58
293.871	-20.99
294.086	-18.94
294.301	83.45
294.516	30.21
294.73	-49.66
294.945	17.92
295.16	56.83
295.374	15.87
295.589	-25.09
295.804	62.98
296.018	-4.61
296.233	11.78
296.447	19.97
296.662	32.26
296.877	-25.09
297.091	-12.8
297.306	11.78
297.52	52.74
297.735	99.84
297.949	-6.66
298.164	5.63
298.378	-59.9
298.593	22.02
298.807	36.35
299.022	62.98
299.236	40.45
299.451	34.3
299.665	7.68
299.88	50.69
300.094	-14.85
300.309	97.79
300.523	24.06
300.737	36.35
300.952	-37.38
301.166	15.87
301.381	17.92
301.595	9.73
301.809	48.64
302.024	32.26
302.238	38.4
302.452	5.63
302.667	-4.61
302.881	11.78
303.095	-14.85
303.309	28.16
303.524	50.69
303.738	32.26
303.952	-47.62
304.166	30.21
304.381	-12.8
304.595	30.21
304.809	7.68
305.023	-8.7
305.237	46.59
305.452	19.97
305.666	15.87
305.88	48.64
306.094	-10.75
306.308	-39.42
306.522	-0.51
306.736	28.16
306.95	-14.85
307.164	114.17
307.379	-35.33
307.593	56.83
307.807	1.54
308.021	-0.51
308.235	67.07
308.449	44.54
308.663	46.59
308.877	38.4
309.091	46.59
309.305	85.5
309.519	-4.61
309.733	69.12
309.947	-92.67
310.161	52.74
310.374	17.92
310.588	26.11
310.802	-59.9
311.016	1.54
311.23	-12.8
311.444	46.59
311.658	36.35
311.872	-4.61
312.085	-37.38
312.299	67.07
312.513	114.17
312.727	19.97
312.941	15.87
313.154	48.64
313.368	28.16
313.582	-6.66
313.796	36.35
314.009	32.26
314.223	34.3
314.437	28.16
314.651	-25.09
314.864	-16.9
315.078	-68.09
315.292	-14.85
315.505	24.06
315.719	13.82
315.933	75.26
316.146	73.21
316.36	40.45
316.573	7.68
316.787	9.73
317.001	15.87
317.214	62.98
317.428	11.78
317.641	7.68
317.855	-39.42
318.068	-51.71
318.282	71.17
318.495	87.55
318.709	-12.8
318.922	28.16
319.136	-64
319.349	-10.75
319.563	67.07
319.776	34.3
319.99	-12.8
320.203	36.35
320.417	40.45
320.63	28.16
320.843	15.87
321.057	30.21
321.27	65.02
321.483	32.26
321.697	52.74
321.91	5.63
322.124	69.12
322.337	-6.66
322.55	11.78
322.763	13.82
322.977	9.73
323.19	5.63
323.403	22.02
323.617	30.21
323.83	-31.23
324.043	3.58
324.256	-35.33
324.469	-35.33
324.683	1.54
324.896	-53.76
325.109	77.31
325.322	-33.28
325.535	32.26
325.748	-12.8
325.962	-8.7
326.175	-23.04
326.388	38.4
326.601	7.68
326.814	-66.05
327.027	32.26
327.24	-18.94
327.453	-35.33
327.666	1.54
327.879	13.82
328.092	9.73
328.305	69.12
328.518	34.3
328.731	-20.99
328.944	67.07
329.157	44.54
329.37	36.35
329.583	83.45
329.796	11.78
330.009	67.07
330.222	-0.51
330.435	71.17
330.648	-18.94
330.861	-10.75
331.073	24.06
331.286	56.83
331.499	56.83
331.712	22.02
331.925	3.58
332.138	28.16
332.35	24.06
332.563	-47.62
332.776	-27.14
332.989	-25.09
333.202	87.55
333.414	9.73
333.627	3.58
333.84	32.26
334.053	-4.61
334.265	24.06
334.478	36.35
334.691	-4.61
334.903	24.06
335.116	-0.51
335.329	7.68
335.541	56.83
335.754	-14.85
335.966	17.92
336.179	30.21
336.392	13.82
336.604	15.87
336.817	1.54
337.029	-41.47
337.242	101.89
337.454	97.79
337.667	34.3
337.88	75.26
338.092	-25.09
338.305	-0.51
338.517	65.02
338.729	-0.51
338.942	44.54
339.154	-8.7
339.367	-23.04
339.579	3.58
339.792	-2.56
340.004	56.83
340.217	-14.85
340.429	19.97
340.641	-20.99
340.854	-27.14
341.066	32.26
341.278	19.97
341.491	-0.51
341.703	30.21
341.915	-18.94
342.128	108.03
342.34	50.69
342.552	-84.48
342.764	30.21
342.977	13.82
343.189	62.98
343.401	-16.9
343.613	-20.99
343.826	13.82
344.038	1.54
344.25	22.02
344.462	-4.61
344.674	-0.51
344.886	-29.18
345.099	26.11
345.311	81.41
345.523	15.87
345.735	56.83
345.947	38.4
346.159	36.35
346.371	52.74
346.583	56.83
346.795	67.07
347.007	-14.85
347.219	-33.28
347.431	24.06
347.643	7.68
347.855	-0.51
348.067	24.06
348.279	-18.94
348.491	34.3
348.703	-8.7
348.915	-2.56
349.127	28.16
349.339	-8.7
349.551	-18.94
349.763	-6.66
349.975	69.12
350.187	36.35
350.399	-16.9
350.61	-27.14
350.822	-20.99
351.034	79.36
351.246	58.88
351.458	73.21
351.669	24.06
351.881	32.26
352.093	73.21
352.305	-10.75
352.517	-4.61
352.728	46.59
352.94	24.06
353.152	40.45
353.363	-10.75
353.575	65.02
353.787	65.02
353.999	13.82
354.21	44.54
354.422	-10.75
354.633	65.02
354.845	48.64
355.057	48.64
355.268	-6.66
355.48	81.41
355.692	24.06
355.903	44.54
356.115	1.54
356.326	26.11
356.538	77.31
356.749	40.45
356.961	85.5
357.172	-64
357.384	26.11
357.595	50.69
357.807	-0.51
358.018	-8.7
358.23	-29.18
358.441	60.93
358.653	-8.7
358.864	15.87
359.075	42.5
359.287	-6.66
359.498	69.12
359.709	69.12
359.921	15.87
360.132	83.45
360.344	56.83
360.555	-25.09
360.766	56.83
360.977	3.58
361.189	56.83
361.4	-16.9
361.611	24.06
361.823	13.82
362.034	13.82
362.245	26.11
362.456	-49.66
362.667	44.54
362.879	26.11
363.09	-23.04
363.301	26.11
363.512	9.73
363.723	91.65
363.935	91.65
364.146	-0.51
364.357	38.4
364.568	40.45
364.779	60.93
364.99	-18.94
365.201	67.07
365.412	65.02
365.623	116.22
365.834	11.78
366.045	22.02
366.256	65.02
366.467	58.88
366.678	58.88
366.889	-61.95
367.1	-39.42
367.311	69.12
367.522	9.73
367.733	28.16
367.944	56.83
368.155	1.54
368.366	28.16
368.577	54.78
368.788	58.88
368.999	36.35
369.209	34.3
369.42	24.06
369.631	24.06
369.842	42.5
370.053	13.82
370.264	-4.61
370.474	-39.42
370.685	-10.75
370.896	-0.51
371.107	93.69
371.317	38.4
371.528	-10.75
371.739	30.21
371.95	32.26
372.16	69.12
372.371	-33.28
372.582	120.32
372.792	9.73
373.003	17.92
373.214	83.45
373.424	140.8
373.635	-25.09
373.846	7.68
374.056	7.68
374.267	38.4
374.477	-14.85
374.688	71.17
374.898	36.35
375.109	60.93
375.319	36.35
375.53	30.21
375.74	69.12
375.951	-16.9
376.161	-37.38
376.372	120.32
376.582	30.21
376.793	67.07
377.003	-27.14
377.214	30.21
377.424	48.64
377.635	69.12
377.845	95.74
378.055	17.92
378.266	19.97
378.476	26.11
378.686	34.3
378.897	22.02
379.107	50.69
379.317	-10.75
379.528	44.54
379.738	9.73
379.948	15.87
380.158	7.68
380.369	-16.9
380.579	50.69
380.789	48.64
380.999	-0.51
381.21	40.45
381.42	101.89
381.63	77.31
381.84	-14.85
382.05	13.82
382.261	-2.56
382.471	83.45
382.681	17.92
382.891	-8.7
383.101	75.26
383.311	3.58
383.521	19.97
383.731	97.79
383.941	81.41
384.151	19.97
384.361	99.84
384.571	3.58
384.781	19.97
384.991	38.4
385.201	15.87
385.411	93.69
385.621	58.88
385.831	15.87
386.041	58.88
386.251	42.5
386.461	15.87
386.671	1.54
386.881	75.26
387.091	5.63
387.301	32.26
387.511	24.06
387.72	58.88
387.93	19.97
388.14	30.21
388.35	28.16
388.56	81.41
388.769	75.26
388.979	40.45
389.189	75.26
389.399	-0.51
389.609	52.74
389.818	-6.66
390.028	26.11
390.238	13.82
390.447	19.97
390.657	46.59
390.867	56.83
391.076	75.26
391.286	52.74
391.496	99.84
391.705	-12.8
391.915	91.65
392.125	34.3
392.334	17.92
392.544	58.88
392.753	34.3
392.963	75.26
393.172	62.98
393.382	97.79
393.591	69.12
393.801	69.12
394.01	5.63
394.22	15.87
394.429	83.45
394.639	22.02
394.848	142.85
395.058	22.02
395.267	71.17
395.477	40.45
395.686	79.36
395.895	87.55
396.105	140.8
396.314	167.42
396.524	142.85
396.733	-23.04
396.942	73.21
397.152	36.35
397.361	91.65
397.57	65.02
397.78	130.56
397.989	40.45
398.198	128.51
398.407	134.65
398.617	122.37
398.826	11.78
399.035	40.45
399.244	87.55
399.453	99.84
399.663	67.07
399.872	146.94
400.081	58.88
400.29	52.74
400.499	65.02
400.708	75.26
400.917	69.12
401.127	87.55
401.336	153.09
401.545	151.04
401.754	71.17
401.963	132.61
402.172	3.58
402.381	54.78
402.59	116.22
402.799	81.41
403.008	50.69
403.217	157.18
403.426	1.54
403.635	89.6
403.844	97.79
404.053	65.02
404.262	118.27
404.471	71.17
404.68	40.45
404.888	93.69
405.097	42.5
405.306	136.7
405.515	81.41
405.724	97.79
405.933	97.79
406.142	161.28
406.35	163.33
406.559	216.57
406.768	155.13
406.977	130.56
407.185	108.03
407.394	183.81
407.603	101.89
407.812	161.28
408.02	196.09
408.229	171.52
408.438	126.46
408.646	105.98
408.855	169.47
409.064	173.57
409.272	230.91
409.481	198.14
409.69	271.87
409.898	128.51
410.107	181.76
410.315	206.33
410.524	222.72
410.733	259.58
410.941	245.24
411.15	280.06
411.358	300.54
411.567	296.44
411.775	294.4
411.984	265.72
412.192	329.21
412.401	325.12
412.609	349.69
412.818	396.79
413.026	304.64
413.234	386.55
413.443	335.35
413.651	378.36
413.86	435.71
414.068	427.51
414.276	486.9
414.485	470.52
414.693	421.37
414.901	447.99
415.11	515.58
415.318	579.06
415.526	583.16
415.734	572.92
415.943	540.15
416.151	660.98
416.359	583.16
416.567	693.75
416.776	577.02
416.984	689.65
417.192	736.76
417.4	689.65
417.608	728.56
417.817	703.99
418.025	824.82
418.233	835.06
418.441	808.44
418.649	804.34
418.857	847.35
419.065	1007.09
419.273	945.65
419.481	925.17
419.689	949.75
419.897	1142.25
420.105	1089.01
420.313	1134.06
420.521	1162.73
420.729	1213.93
420.937	1170.93
421.145	1293.8
421.353	1273.32
421.561	1353.2
421.769	1392.11
421.977	1523.18
422.185	1560.04
422.393	1514.98
422.601	1553.9
422.809	1621.48
423.017	1732.07
423.224	1697.25
423.432	1797.6
423.64	1873.38
423.848	1969.63
424.056	1977.83
424.263	2123.23
424.471	1973.73
424.679	2127.33
424.887	2250.21
425.094	2348.51
425.302	2379.23
425.51	2409.95
425.718	2407.9
425.925	2393.56
426.133	2586.07
426.341	2629.08
426.548	2817.49
426.756	2678.23
426.964	2876.88
427.171	3124.69
427.379	3083.73
427.586	3106.26
427.794	3309.01
428.001	3335.63
428.209	3603.91
428.417	3567.05
428.624	3859.91
428.832	3925.44
429.039	3689.93
429.247	3810.76
429.454	4087.23
429.662	4294.08
429.869	4113.86
430.076	4269.5
430.284	4214.21
430.491	4314.56
430.699	4670.9
430.906	4654.52
431.114	4801.97
431.321	5076.4
431.528	4971.96
431.736	5326.25
431.943	5799.34
432.15	5504.43
432.358	5664.17
432.565	5752.23
432.772	5907.88
432.979	6018.47
433.187	6159.78
433.394	6305.18
433.601	6798.74
433.808	6661.53
434.016	6792.6
434.223	6993.3
434.43	7386.51
434.637	7306.64
434.844	7871.88
435.052	7798.15
435.259	7732.62
435.466	7986.57
435.673	7806.34
435.88	8297.86
436.087	8992.12
436.294	8686.97
436.501	8629.63
436.708	8711.55
436.915	9037.17
437.122	9362.8
437.329	9383.28
437.537	9925.99
437.743	9973.1
437.95	9821.55
438.157	10235.24
438.364	10556.77
438.571	10655.07
438.778	10769.76
438.985	11654.48
439.192	11380.05
439.399	11666.77
439.606	11382.1
439.813	12143.94
440.02	13030.71
440.227	12559.68
440.433	12356.93
440.64	13143.35
440.847	12907.84
441.054	13182.26
441.261	14081.32
441.467	13794.61
441.674	13940.01
441.881	14605.6
442.088	14761.25
442.294	14478.63
442.501	14779.68
442.708	15054.11
442.914	15672.59
443.121	16231.69
443.328	15940.88
443.534	17126.65
443.741	16688.39
443.948	16342.28
444.154	17634.55
444.361	17515.76
444.568	17712.37
444.774	17585.4
444.981	17808.62
445.187	18398.44
445.394	19154.14
445.6	18689.25
445.807	20731.08
446.013	19647.7
446.22	20124.88
446.426	20997.31
446.633	20913.34
446.839	21990.58
447.046	21112
447.252	22172.85
447.459	22078.64
447.665	22115.5
447.871	23020.7
448.078	23985.3
448.284	23061.66
448.491	23653.53
448.697	24511.63
448.903	24736.9
449.11	24665.22
449.316	24620.17
449.522	25058.43
449.728	25646.2
449.935	26213.49
450.141	25885.81
450.347	26649.71
450.553	25730.17
450.76	25891.96
450.966	27059.3
451.172	26803.3
451.378	27335.77
451.584	26733.67
451.791	27282.53
451.997	27225.18
452.203	27868.25
452.409	27704.41
452.615	27542.62
452.821	26887.27
453.027	26387.57
453.233	27655.26
453.44	26477.68
453.646	27176.03
453.852	27139.17
454.058	27784.28
454.264	26670.19
454.47	27122.79
454.676	26737.77
454.882	27761.75
455.088	25306.24
455.294	25609.34
455.5	26139.76
455.705	26248.3
455.911	25095.3
456.117	24583.3
456.323	24726.66
456.529	23047.33
456.735	24099.98
456.941	23837.84
457.147	23047.33
457.352	22633.64
457.558	22439.08
457.764	22471.85
457.97	21996.72
458.176	21406.91
458.381	21380.28
458.587	20470.98
458.793	20499.66
458.999	19346.65
459.204	20686.02
459.41	20417.74
459.616	18902.24
459.821	19068.13
460.027	19002.59
460.233	18638.05
460.438	17501.43
460.644	17982.7
460.85	16973.05
461.055	16813.31
461.261	16954.62
461.466	15531.28
461.672	14984.48
461.878	16174.35
462.083	14986.52
462.289	14658.85
462.494	14683.42
462.7	14226.73
462.905	13536.56
463.111	13976.87
463.316	14261.54
463.522	13747.5
463.727	13767.98
463.932	13755.69
464.138	13661.49
464.343	13847.85
464.549	13493.55
464.754	13806.89
464.959	13559.09
465.165	13839.66
465.37	13034.81
465.575	12522.82
465.781	13307.19
465.986	13501.75
466.191	12844.35
466.397	12752.19
466.602	11859.28
466.807	12428.61
467.012	12459.33
467.218	12240.2
467.423	12365.12
467.628	12287.3
467.833	12928.31
468.038	12627.26
468.244	12057.93
468.449	12531.01
468.654	12152.13
468.859	12019.02
469.064	12109.13
469.269	11388.24
469.474	11574.61
469.679	11894.09
469.885	11558.22
470.09	11613.52
470.295	11560.27
470.5	11500.88
470.705	11502.93
470.91	11095.38
471.115	11271.51
471.32	11296.08
471.525	11005.27
471.73	10988.89
471.935	10777.95
472.139	10368.35
472.344	10775.9
472.549	10417.51
472.754	10421.6
472.959	10136.93
473.164	9710.96
473.369	9864.55
473.574	10157.41
473.778	10124.65
473.983	9956.71
474.188	9907.56
474.393	9479.54
474.598	9637.23
474.802	9395.57
475.007	9295.22
475.212	9354.61
475.417	9209.2
475.621	8924.54
475.826	9065.85
476.031	8869.24
476.235	8785.27
476.44	8938.87
476.645	8576.38
476.849	8625.53
477.054	8453.5
477.259	8330.62
477.463	8291.71
477.668	8273.28
477.872	8250.75
478.077	8095.11
478.282	7853.45
478.486	7871.88
478.691	7925.13
478.895	7886.22
479.1	7787.91
479.304	7736.71
479.509	7597.45
479.713	7726.47
479.918	7531.92
480.122	7382.42
480.326	7493.01
480.531	7300.5
480.735	7220.63
480.94	7310.74
481.144	7460.24
481.348	7087.51
481.553	7443.85
481.757	7191.95
481.961	7226.77
482.166	7439.76
482.37	7318.93
482.574	7011.73
482.778	7218.58
482.983	7243.15
483.187	7110.04
483.391	7290.26
483.595	7323.02
483.8	7060.88
484.004	7304.59
484.208	7220.63
484.412	7241.11
484.616	7290.26
484.821	7183.76
485.025	7128.47
485.229	7280.02
485.433	7349.65
485.637	7316.88
485.841	7230.87
486.045	7257.49
486.249	7161.23
486.453	7230.87
486.657	7310.74
486.861	7251.35
487.065	7042.45
487.269	7325.07
487.473	7107.99
487.677	7280.02
487.881	7323.02
488.085	7318.93
488.289	7312.78
488.493	7390.61
488.697	7540.11
488.901	7579.02
489.105	7560.59
489.309	7546.25
489.512	7529.87
489.716	7601.55
489.92	7363.98
490.124	7550.35
490.328	7775.63
490.531	7554.44
490.735	7554.44
490.939	7669.13
491.143	7679.37
491.346	7720.33
491.55	7775.63
491.754	7726.47
491.958	7873.93
492.161	7941.51
492.365	7966.09
492.569	8002.95
492.772	8019.33
492.976	8035.72
493.18	8172.93
493.383	8236.42
493.587	8248.71
493.79	8480.13
493.994	8344.96
494.197	8424.83
494.401	8510.85
494.605	8623.48
494.808	8785.27
495.012	8609.15
495.215	8828.28
495.419	8889.72
495.622	8797.56
495.825	8983.93
496.029	8965.5
496.232	9215.35
496.436	9201.01
496.639	9440.62
496.843	9459.06
497.046	9710.96
497.249	9696.62
497.453	10014.06
497.656	9848.17
497.859	9964.9
498.063	10038.63
498.266	10249.57
498.469	10157.41
498.673	10394.98
498.876	10552.67
499.079	10837.34
499.282	10806.62
499.485	10992.98
499.689	11175.25
499.892	11169.11
500.095	11349.33
500.298	11736.4
500.501	11509.07
500.705	11832.65
500.908	12170.57
501.111	12195.14
501.314	12389.7
501.517	12264.77
501.72	12633.41
501.923	12442.95
502.126	12889.4
502.329	12809.53
502.532	13172.02
502.735	12946.75
502.938	13778.22
503.141	13493.55
503.344	13901.1
503.547	13995.31
503.75	14245.16
503.953	14449.96
504.156	14462.24
504.359	14810.4
504.562	15041.82
504.765	15383.83
504.968	15355.16
505.17	15506.71
505.373	15416.6
505.576	16037.13
505.779	16026.89
505.982	16278.79
506.185	16477.44
506.387	16661.76
506.59	16661.76
506.793	17038.59
506.996	17200.38
507.198	17665.27
507.401	17663.22
507.604	17556.72
507.807	18271.47
508.009	18320.62
508.212	18396.39
508.415	18881.76
508.617	19135.71
508.82	19115.23
509.022	19203.29
509.225	19616.98
509.428	19872.98
509.63	19823.83
509.833	20257.99
510.035	20692.16
510.238	20710.6
510.44	20970.69
510.643	21351.61
510.845	21505.21
511.048	21370.04
511.25	21789.88
511.453	22031.54
511.655	22807.72
511.858	22564.01
512.06	22822.05
512.262	23219.36
512.465	22977.7
512.667	23483.55
512.87	23843.99
513.072	23831.7
513.274	24362.12
513.477	24425.61
513.679	24753.29
513.881	24700.04
514.084	25465.98
514.286	25582.71
514.488	25615.48
514.69	26510.44
514.893	26487.92
515.095	26451.05
515.297	26780.78
515.499	27106.4
515.701	27346.01
515.904	27716.7
516.106	27776.09
516.308	28222.55
516.51	28410.96
516.712	28437.58
516.914	28972.1
517.116	29348.93
517.318	29500.48
517.52	29338.69
517.722	30020.66
517.925	30116.92
518.127	30714.92
518.329	30907.43
518.531	30833.71
518.733	31292.45
518.935	31433.76
519.136	31573.02
519.338	32117.78
519.54	32381.97
519.742	33012.74
519.944	32521.23
520.146	33344.52
520.348	33592.32
520.55	33416.19
520.752	34083.83
520.954	34483.19
521.155	33897.47
521.357	34634.74
521.559	35159.02
521.761	35636.19
521.963	35474.4
522.164	35533.79
522.366	36037.59
522.568	36178.9
522.77	36273.11
522.971	36977.61
523.173	36811.73
523.375	36944.84
523.576	36955.08
523.778	37544.9
523.98	37610.43
524.181	37983.16
524.383	37839.81
524.584	38568.88
524.786	38581.17
524.988	38282.17
525.189	38982.57
525.391	39089.07
525.592	39586.72
525.794	39467.94
525.995	39734.18
526.197	39613.35
526.398	39705.51
526.6	40227.74
526.801	40016.8
527.003	40530.84
527.204	40164.25
527.406	41040.78
527.607	40846.22
527.808	40948.62
528.01	40549.27
528.211	40840.08
528.412	41859.97
528.614	41540.49
528.815	41667.46
529.016	42066.81
529.218	41323.4
529.419	41905.02
529.62	41974.66
529.822	41972.61
530.023	41753.47
530.224	42400.63
530.425	42361.72
530.626	41812.87
530.828	42068.86
531.029	42865.52
531.23	42675.06
531.431	42568.57
531.632	42240.89
531.833	42912.63
532.035	42597.24
532.236	42886
532.437	42877.81
532.638	42869.62
532.839	43324.27
533.04	43121.52
533.241	42838.9
533.442	43334.51
533.643	43228.01
533.844	43608.93
534.045	43121.52
534.246	43352.94
534.447	43477.86
534.648	43348.84
534.849	43877.22
535.05	43346.79
535.251	43670.37
535.451	43469.67
535.652	43973.47
535.853	43613.03
536.054	43559.78
536.255	43801.44
536.456	43537.26
536.657	44454.75
536.857	43754.34
537.058	43735.91
537.259	44483.42
537.46	43756.39
537.66	44073.82
537.861	43996
538.062	43916.13
538.263	44217.18
538.463	43690.85
538.664	43948.9
538.865	44559.19
539.065	44571.48
539.266	43688.81
539.466	44213.09
539.667	44145.5
539.868	44575.58
540.068	44518.23
540.269	44469.08
540.469	44358.49
540.67	43979.62
540.87	44385.11
541.071	44444.51
541.271	44399.45
541.472	44307.29
541.672	44196.7
541.873	44358.49
542.073	43916.13
542.274	44862.29
542.474	44198.75
542.675	44342.11
542.875	44438.36
543.075	44538.71
543.276	44041.06
543.476	44424.03
543.676	44063.58
543.877	44673.88
544.077	44417.88
544.277	44491.61
544.478	44743.51
544.678	44340.06
544.878	44542.81
545.078	44512.09
545.279	44452.7
545.479	44301.15
545.679	44620.63
545.879	44632.92
546.079	44383.07
546.28	44485.47
546.48	44172.13
546.68	45038.42
546.88	44591.96
547.08	44473.18
547.28	44358.49
547.48	43961.19
547.68	44467.03
547.88	44155.74
548.081	44690.26
548.281	44637.01
548.481	44432.22
548.681	44847.96
548.881	44528.47
549.081	44970.83
549.28	44551
549.48	44569.43
549.68	44784.47
549.88	44637.01
550.08	44399.45
550.28	44798.8
550.48	44335.96
550.68	44915.54
550.88	44260.19
551.08	44600.15
551.279	44331.87
551.479	44213.09
551.679	44231.52
551.879	44252
552.079	45120.34
552.278	44245.85
552.478	44671.83
552.678	44438.36
552.878	44589.91
553.077	44266.33
553.277	43928.42
553.477	44868.44
553.676	44432.22
553.876	44159.84
554.076	44366.68
554.275	44284.76
554.475	43735.91
554.674	44419.93
554.874	44305.24
555.074	43991.9
555.273	44159.84
555.473	44825.43
555.672	43981.66
555.872	43744.1
556.071	44127.07
556.271	44317.53
556.47	44323.68
556.67	43690.85
556.869	43950.95
557.068	44444.51
557.268	43678.57
557.467	43871.07
557.667	44295
557.866	44172.13
558.065	43916.13
558.265	43844.45
558.464	43641.7
558.663	44229.47
558.863	43750.24
559.062	44469.08
559.261	43799.4
559.461	44262.24
559.66	43236.2
559.859	43516.78
560.058	43428.71
560.258	44184.41
560.457	43301.74
560.656	43965.28
560.855	43801.44
561.054	44075.87
561.253	43416.43
561.453	43555.69
561.652	43404.14
561.851	43527.02
562.05	43639.65
562.249	43492.2
562.448	43561.83
562.647	43740
562.846	43051.89
563.045	43305.84
563.244	43168.62
563.443	43930.47
563.642	43109.23
563.841	43561.83
564.04	43369.32
564.239	43709.29
564.438	43131.76
564.637	43414.38
564.836	43473.77
565.035	42861.43
565.234	43209.58
565.432	43281.26
565.631	42728.31
565.83	43174.77
566.029	42525.56
566.228	43051.89
566.427	42529.66
566.625	42650.49
566.824	42859.38
567.023	42976.11
567.222	42451.83
567.42	43131.76
567.619	42951.54
567.818	43004.78
568.016	42705.78
568.215	43289.45
568.414	42394.49
568.612	43256.68
568.811	42441.59
569.01	42527.61
569.208	42283.9
569.407	42634.1
569.605	42075.01
569.804	42484.6
570.002	42216.32
570.201	42656.63
570.4	42191.74
570.598	42126.21
570.797	41845.63
570.995	42146.68
571.193	42140.54
571.392	42535.8
571.59	41870.21
571.789	41900.93
571.987	41757.57
572.186	41581.45
572.384	41200.52
572.582	41847.68
572.781	41714.56
572.979	41077.65
573.177	41575.3
573.376	41687.94
573.574	41466.76
573.772	41509.77
573.971	41106.32
574.169	41317.26
574.367	40770.45
574.565	41044.88
574.763	41057.17
574.962	40901.52
575.16	40414.1
575.358	41231.24
575.556	40375.19
575.754	41012.11
575.952	40618.9
576.151	40567.7
576.349	40242.07
576.547	40291.23
576.745	40205.21
576.943	40280.99
577.141	39953.31
577.339	40305.56
577.537	39623.59
577.735	39799.71
577.933	39556
578.131	40010.65
578.329	39525.28
578.527	39402.41
578.725	39480.23
578.923	39570.34
579.121	39578.53
579.319	39289.77
579.516	39717.79
579.714	38958
579.912	39291.82
580.11	39117.74
580.308	38894.51
580.506	38605.75
580.704	38284.22
580.901	38552.5
581.099	38769.58
581.297	38742.96
581.495	38273.98
581.692	38579.12
581.89	37800.9
582.088	38781.87
582.285	38341.56
582.483	38386.61
582.681	37858.24
582.878	38028.22
583.076	37542.85
583.274	37735.36
583.471	37395.4
583.669	37718.98
583.866	37610.43
584.064	37700.54
584.262	37229.51
584.459	37444.55
584.657	37080.01
584.854	37209.03
585.052	36701.14
585.249	37153.74
585.447	36959.18
585.644	36715.47
585.841	36770.77
586.039	36834.25
586.236	36473.81
586.434	36559.83
586.631	36469.72
586.828	36647.89
587.026	36330.45
587.223	36125.66
587.42	36152.28
587.618	35982.3
587.815	35644.38
588.012	35683.3
588.21	35597.28
588.407	35847.13
588.604	35908.57
588.801	35335.14
588.999	35496.93
589.196	35099.62
589.393	35533.79
589.59	34749.42
589.787	34855.92
589.984	35122.15
590.182	34561.01
590.379	34667.5
590.576	34677.74
590.773	34839.53
590.97	34288.63
591.167	34290.68
591.364	33971.19
591.561	34194.42
591.758	34112.5
591.955	33946.62
592.152	34116.6
592.349	33930.23
592.546	33723.39
592.743	34098.17
592.94	33446.91
593.137	33790.97
593.334	33707.01
593.531	33395.71
593.727	33049.61
593.924	33303.56
594.121	32996.36
594.318	33379.33
594.515	32590.86
594.712	33176.58
594.908	32678.93
595.105	33074.18
595.302	32232.47
595.499	32664.59
595.696	32347.15
595.892	32330.77
596.089	32431.12
596.286	31898.65
596.482	32429.07
596.679	32130.07
596.876	32271.38
597.072	31693.85
597.269	31878.17
597.466	31546.4
597.662	31482.91
597.859	31747.1
598.055	31595.55
598.252	31122.47
598.448	31368.23
598.645	31034.41
598.841	30843.95
599.038	31136.8
599.234	31104.04
599.431	30684.2
599.627	30776.36
599.824	30710.83
600.02	30465.07
600.217	30227.51
600.413	30307.38
600.609	30223.41
600.806	30364.72
601.002	30374.96
601.198	30073.91
601.395	29721.66
601.591	29574.2
601.787	29490.24
601.984	29658.17
602.18	29627.45
602.376	29436.99
602.572	29262.91
602.769	29111.36
602.965	29148.23
603.161	29027.4
603.357	29015.11
603.553	28951.62
603.75	29013.06
603.946	28845.13
604.142	28765.26
604.338	28408.91
604.534	28908.61
604.73	28519.5
604.926	28392.53
605.122	28290.13
605.318	28298.32
605.514	27874.39
605.71	27917.4
605.906	28003.41
606.102	27960.41
606.298	27915.35
606.494	27802.71
606.69	27700.31
606.886	28003.41
607.082	27331.68
607.278	27776.09
607.474	27225.18
607.67	27626.59
607.866	27098.21
608.062	27552.86
608.257	27024.48
608.453	27317.34
608.649	27288.67
608.845	26842.21
609.041	27061.35
609.236	26946.66
609.432	26823.78
609.628	27049.06
609.824	27047.01
610.019	26537.07
610.215	26586.22
610.411	26913.89
610.606	26821.73
610.802	26612.84
610.998	26680.42
611.193	26319.98
611.389	26281.07
611.584	26455.15
611.78	26188.91
611.976	26346.61
612.171	26158.19
612.367	25914.48
612.562	25795.7
612.758	25572.47
612.953	25922.68
613.149	26121.33
613.344	25574.52
613.539	26227.82
613.735	25783.41
613.93	26006.64
614.126	25508.99
614.321	25592.95
614.517	25558.14
614.712	25631.86
614.907	25107.58
615.103	25779.32
615.298	25715.83
615.493	25498.75
615.688	24896.64
615.884	25820.28
616.079	24829.06
616.274	24839.3
616.47	25111.68
616.665	25007.23
616.86	25179.26
617.055	24841.35
617.25	25115.78
617.445	25097.35
617.641	24591.5
617.836	24775.81
618.031	24218.77
618.226	24788.1
618.421	24231.05
618.616	24673.42
618.811	24061.07
619.006	24695.94
619.201	24175.76
619.396	23958.67
619.591	23712.92
619.786	23927.95
619.981	23420.06
620.176	23854.23
620.371	23272.6
620.566	23551.13
620.761	23463.07
620.956	23186.59
621.151	22854.82
621.346	23375
621.541	22774.95
621.735	22893.73
621.93	22623.4
622.125	22547.62
622.32	22191.28
622.515	22189.23
622.709	22056.11
622.904	22324.4
623.099	22226.09
623.294	21902.51
623.488	21867.7
623.683	21669.05
623.878	21585.08
624.072	21482.68
624.267	21441.72
624.462	21312.7
624.656	21028.03
624.851	21220.54
625.046	20939.97
625.24	20925.63
625.435	20659.4
625.629	20892.87
625.824	20526.28
626.018	20462.79
626.213	20176.08
626.407	20212.94
626.602	19651.8
626.796	20284.62
626.991	19653.84
627.185	19641.56
627.38	19719.38
627.574	19496.15
627.768	19281.11
627.963	19150.04
628.157	19283.16
628.352	19539.16
628.546	19094.75
628.74	19227.87
628.935	18885.86
629.129	19016.93
629.323	18463.97
629.517	18547.94
629.712	18468.07
629.906	18410.73
630.1	17829.1
630.294	18451.69
630.489	17978.61
630.683	17949.93
630.877	17573.11
631.071	17798.38
631.265	17784.05
631.459	17364.22
631.653	17489.14
631.848	17673.46
632.042	17153.27
632.236	17200.38
632.43	16989.44
632.624	17181.95
632.818	17120.51
633.012	16768.26
633.206	16932.09
633.4	16608.51
633.594	16502.02
633.788	16653.57
633.982	16352.52
634.176	16545.03
634.369	16375.05
634.563	16008.46
634.757	16008.46
634.951	16078.09
635.145	15951.12
635.339	15983.88
635.533	16039.18
635.726	15832.33
635.92	15715.6
636.114	15590.67
636.308	15611.15
636.501	15490.32
636.695	15414.55
636.889	15324.44
637.083	15375.64
637.276	15197.46
637.47	15113.5
637.664	15138.07
637.857	14935.32
638.051	14933.28
638.244	14636.32
638.438	14669.09
638.632	14673.18
638.825	14484.77
639.019	14363.94
639.212	14570.79
639.406	14419.24
639.599	14253.35
639.793	14374.18
639.986	13843.76
640.18	13970.73
640.373	14144.81
640.567	13718.83
640.76	14132.52
640.954	13823.28
641.147	13698.35
641.34	13573.42
641.534	13440.31
641.727	13600.05
641.92	13280.57
642.114	13194.55
642.307	13141.3
642.5	13184.31
642.694	12750.14
642.887	12928.31
643.08	12899.64
643.273	12811.58
643.467	12772.67
643.66	12543.3
643.853	12549.44
644.046	12313.92
644.239	12576.06
644.432	12279.11
644.626	12363.08
644.819	12258.63
645.012	12352.84
645.205	12313.92
645.398	11933
645.591	11920.71
645.784	11885.9
645.977	11871.56
646.17	11898.19
646.363	11763.02
646.556	11466.07
646.749	11634
646.942	11513.17
647.135	11337.04
647.328	11275.6
647.521	11330.9
647.714	10937.69
647.907	11042.14
648.099	11060.57
648.292	10972.5
648.485	11095.38
648.678	11050.33
648.871	10855.77
649.064	10833.24
649.256	10775.9
649.449	10573.15
649.642	10480.99
649.835	10364.26
650.027	10614.11
650.22	10503.52
650.413	10347.87
650.605	10347.87
650.798	10386.79
650.991	10229.09
651.183	10204.52
651.376	10114.41
651.568	10063.21
651.761	10102.12
651.954	10030.44
652.146	9776.49
652.339	9762.16
652.531	9925.99
652.724	9469.3
652.916	9551.21
653.109	9653.61
653.301	9536.88
653.494	9600.37
653.686	9395.57
653.879	9506.16
654.071	9368.95
654.263	9332.08
654.456	9174.39
654.648	9168.24
654.84	8838.52
655.033	9045.37
655.225	8775.03
655.417	8879.48
655.61	8897.91
655.802	8836.47
655.994	8713.6
656.186	8856.95
656.379	8740.22
656.571	8684.92
656.763	8490.37
656.955	8396.16
657.148	8492.41
657.34	8400.26
657.532	8295.81
657.724	8310.15
657.916	8125.83
658.108	8342.91
658.3	8183.17
658.492	8076.68
658.684	7894.41
658.876	7996.81
659.068	8009.09
659.26	7826.82
659.452	7822.73
659.644	7902.6
659.836	7544.2
660.028	7800.2
660.22	7318.93
660.412	7611.79
660.604	7355.79
660.796	7454.09
660.988	7376.27
661.18	7333.26
661.372	7249.3
661.563	7302.54
661.755	7204.24
661.947	7138.71
662.139	7320.98
662.331	7042.45
662.522	6847.9
662.714	7003.54
662.906	6774.17
663.097	6716.83
663.289	6839.7
663.481	6800.79
663.673	6636.95
663.864	6512.03
664.056	6581.66
664.247	6509.98
664.439	6512.03
664.631	6415.77
664.822	6469.02
665.014	6413.73
665.205	6260.13
665.397	6245.79
665.588	6321.57
665.78	6245.79
665.971	6020.52
666.163	6028.71
666.354	6028.71
666.546	5950.89
666.737	5905.83
666.929	6084
667.12	5819.82
667.311	5793.19
667.503	5864.87
667.694	5914.02
667.885	5526.96
668.077	5686.7
668.268	5604.78
668.459	5637.55
668.651	5545.39
668.842	5533.1
669.033	5438.89
669.224	5481.9
669.416	5430.7
669.607	5483.95
669.798	5434.8
669.989	5342.64
670.18	5361.07
670.371	5354.93
670.563	5295.54
670.754	5336.49
670.945	5211.57
671.136	5197.23
671.327	5203.38
671.518	5164.47
671.709	5055.92
671.9	5049.78
672.091	5113.27
672.282	4961.72
672.473	4931
672.664	4959.67
672.855	4783.54
673.046	4959.67
673.237	4767.16
673.428	4953.52
673.619	4613.56
673.809	4724.15
674	4699.58
674.191	4863.41
674.382	4801.97
674.573	4703.67
674.764	4644.28
674.954	4824.5
675.145	4529.59
675.336	4728.25
675.527	4496.83
675.717	4443.58
675.908	4457.92
676.099	4462.01
676.289	4466.11
676.48	4423.1
676.671	4464.06
676.861	4451.77
677.052	4345.28
677.243	4300.22
677.433	4318.65
677.624	4353.47
677.814	4249.02
678.005	4195.78
678.195	4255.17
678.386	4240.83
678.576	4156.86
678.767	4330.94
678.957	4253.12
679.148	4128.19
679.338	4126.15
679.529	4103.62
679.719	4038.08
679.909	3988.93
680.1	4019.65
680.29	4132.29
680.481	4115.91
680.671	3974.6
680.861	4122.05
681.052	4054.47
681.242	3833.29
681.432	4060.61
681.622	3937.73
681.813	3827.14
682.003	3933.64
682.193	3929.54
682.383	3859.91
682.573	3827.14
682.764	3902.92
682.954	3861.96
683.144	3759.56
683.334	3845.57
683.524	3894.72
683.714	3790.28
683.904	3734.98
684.094	3857.86
684.284	3902.92
684.474	3718.6
684.664	3937.73
684.854	3716.55
685.044	3767.75
685.234	3782.09
685.424	3843.53
685.614	3608.01
685.804	3696.07
685.994	3685.83
686.184	3712.46
686.374	3603.91
686.564	3601.87
686.753	3628.49
686.943	3653.06
687.133	3558.86
687.323	3712.46
687.513	3575.24
687.702	3544.52
687.892	3521.99
688.082	3614.15
688.272	3608.01
688.461	3438.03
688.651	3526.09
688.841	3597.77
689.03	3507.66
689.22	3567.05
689.41	3622.34
689.599	3466.7
689.789	3397.07
689.979	3556.81
690.168	3507.66
690.358	3493.32
690.547	3509.71
690.737	3642.82
690.926	3519.95
691.116	3528.14
691.305	3487.18
691.495	3347.92
691.684	3505.61
691.874	3390.92
692.063	3468.75
692.252	3571.15
692.442	3495.37
692.631	3452.36
692.82	3472.84
693.01	3507.66
693.199	3311.05
693.388	3196.37
693.578	3343.82
693.767	3272.14
693.956	3325.39
694.146	3300.81
694.335	3354.06
694.524	3225.04
694.713	3266
694.902	3210.7
695.092	3292.62
695.281	3186.13
695.47	3155.41
695.659	3159.5
695.848	3118.54
696.037	3243.47
696.226	3050.96
696.415	3237.33
696.604	3319.25
696.793	3143.12
696.982	3100.11
697.171	3100.11
697.36	3003.86
697.549	3048.91
697.738	3036.63
697.927	3055.06
698.116	3071.44
698.305	3022.29
698.494	3069.39
698.683	2993.62
698.872	2954.71
699.061	3046.87
699.25	2977.23
699.438	2975.19
699.627	2975.19
699.816	3065.3
700.005	2866.64
700.193	2971.09
700.382	3028.43
700.571	2964.95
700.76	2823.64
700.948	2823.64
701.137	2876.88
701.326	2823.64
701.514	2799.06
701.703	2792.92
701.892	2749.91
702.08	2780.63
702.269	2786.77
702.457	2825.68
702.646	2799.06
702.834	2704.85
703.023	2846.16
703.212	2655.7
703.4	2731.48
703.589	2719.19
703.777	2610.65
703.965	2766.29
704.154	2561.5
704.342	2602.46
704.531	2538.97
704.719	2547.16
704.907	2577.88
705.096	2573.78
705.284	2516.44
705.472	2545.11
705.661	2510.3
705.849	2573.78
706.037	2528.73
706.226	2633.18
706.414	2477.53
706.602	2516.44
706.79	2399.71
706.979	2444.76
707.167	2510.3
707.355	2366.94
707.543	2389.47
707.731	2338.27
707.919	2389.47
708.107	2342.36
708.296	2248.16
708.484	2368.99
708.672	2264.54
708.86	2287.07
709.048	2321.88
709.236	2123.23
709.424	2291.17
709.612	2205.15
709.8	2268.64
709.988	2229.73
710.176	2303.45
710.364	2262.49
710.551	2203.1
710.739	2237.92
710.927	2123.23
711.115	2153.95
711.303	2061.79
711.491	2098.66
711.679	2031.07
711.866	2104.8
712.054	2063.84
712.242	2082.27
712.43	2096.61
712.617	2106.85
712.805	2010.59
712.993	1940.96
713.181	1971.68
713.368	2106.85
713.556	2090.46
713.744	1981.92
713.931	2059.74
714.119	2029.03
714.306	2047.46
714.494	1983.97
714.682	1906.15
714.869	1936.87
715.057	1912.29
715.244	1842.66
715.432	1895.91
715.619	1979.87
715.807	1875.43
715.994	1877.48
716.182	1869.28
716.369	1842.66
716.556	1863.14
716.744	1785.32
716.931	1725.93
717.119	1791.46
717.306	1791.46
717.493	1760.74
717.681	1805.8
717.868	1773.03
718.055	1766.89
718.242	1795.56
718.43	1732.07
718.617	1809.89
718.804	1764.84
718.991	1697.25
719.179	1703.4
719.366	1719.78
719.553	1650.15
719.74	1613.29
719.927	1621.48
720.114	1613.29
720.301	1541.61
720.488	1596.9
720.676	1715.69
720.863	1644.01
721.05	1664.49
721.237	1598.95
721.424	1502.7
721.611	1596.9
721.798	1449.45
721.985	1572.33
722.172	1531.37
722.358	1611.24
722.545	1445.35
722.732	1484.27
722.919	1500.65
723.106	1519.08
723.293	1467.88
723.48	1504.75
723.667	1377.77
723.853	1474.03
724.04	1480.17
724.227	1453.55
724.414	1359.34
724.6	1433.07
724.787	1461.74
724.974	1363.44
725.161	1271.28
725.347	1295.85
725.534	1314.28
725.72	1381.87
725.907	1306.09
726.094	1328.62
726.28	1367.53
726.467	1236.46
726.653	1314.28
726.84	1328.62
727.027	1340.91
727.213	1297.9
727.4	1256.94
727.586	1252.84
727.773	1246.7
727.959	1277.42
728.145	1265.13
728.332	1197.55
728.518	1306.09
728.705	1244.65
728.891	1201.65
729.077	1211.89
729.264	1273.32
729.45	1287.66
729.636	1183.21
729.823	1228.27
730.009	1201.65
730.195	1222.13
730.382	1160.69
730.568	1232.37
730.754	1125.87
730.94	1121.77
731.126	1199.6
731.313	1172.97
731.499	1095.15
731.685	1162.73
731.871	1228.27
732.057	1056.24
732.243	1199.6
732.429	1175.02
732.615	1107.44
732.801	1111.54
732.987	1072.62
733.173	1099.25
733.359	1064.43
733.545	1097.2
733.731	1070.58
733.917	1058.29
734.103	1078.77
734.289	994.8
734.475	1046
734.661	1076.72
734.847	921.07
735.033	968.18
735.219	994.8
735.404	1070.58
735.59	1021.42
735.776	1089.01
735.962	984.56
736.148	898.55
736.333	1013.23
736.519	1060.34
736.705	1013.23
736.89	1015.28
737.076	906.74
737.262	949.75
737.447	947.7
737.633	939.51
737.819	949.75
738.004	1023.47
738.19	925.17
738.375	1027.57
738.561	994.8
738.747	845.3
738.932	972.27
739.118	884.21
739.303	904.69
739.489	959.99
739.674	908.79
739.859	908.79
740.045	867.83
740.23	912.88
740.416	828.92
740.601	972.27
740.786	890.35
740.972	804.34
741.157	884.21
741.342	796.15
741.528	910.83
741.713	867.83
741.898	824.82
742.084	890.35
742.269	800.24
742.454	880.11
742.639	818.68
742.824	894.45
743.01	792.05
743.195	869.87
743.38	855.54
743.565	747
743.75	734.71
743.935	738.8
744.12	790
744.305	753.14
744.49	865.78
744.675	744.95
744.86	787.96
745.045	646.65
745.23	726.52
745.415	749.04
745.6	714.23
745.785	683.51
745.97	650.74
746.155	714.23
746.34	724.47
746.525	697.85
746.71	814.58
746.895	779.76
747.079	634.36
747.264	675.32
747.449	755.19
747.634	630.26
747.819	699.89
748.003	695.8
748.188	667.13
748.373	736.76
748.557	613.88
748.742	779.76
748.927	687.61
749.111	648.69
749.296	665.08
749.481	663.03
749.665	624.12
749.85	675.32
750.034	642.55
750.219	685.56
750.404	622.07
750.588	615.93
750.773	628.21
750.957	603.64
751.141	599.54
751.326	638.45
751.51	628.21
751.695	540.15
751.879	564.73
752.064	574.97
752.248	538.1
752.432	579.06
752.617	626.17
752.801	566.78
752.985	634.36
753.17	628.21
753.354	542.2
753.538	572.92
753.722	556.54
753.907	568.82
754.091	617.97
754.275	581.11
754.459	493.05
754.643	466.42
754.828	564.73
755.012	564.73
755.196	531.96
755.38	536.06
755.564	540.15
755.748	472.57
755.932	505.34
756.116	587.26
756.3	437.75
756.484	534.01
756.668	468.47
756.852	507.38
757.036	488.95
757.22	501.24
757.404	445.95
757.588	476.66
757.772	482.81
757.956	462.33
758.14	495.1
758.323	497.14
758.507	425.47
758.691	474.62
758.875	417.27
759.059	460.28
759.242	474.62
759.426	495.1
759.61	499.19
759.794	443.9
759.977	472.57
760.161	462.33
760.345	386.55
760.528	368.12
760.712	419.32
760.895	423.42
761.079	402.94
761.263	491
761.446	423.42
761.63	491
761.813	384.51
761.997	443.9
762.18	392.7
762.364	417.27
762.547	447.99
762.731	431.61
762.914	384.51
763.098	382.46
763.281	423.42
763.464	382.46
763.648	402.94
763.831	388.6
764.015	341.5
764.198	425.47
764.381	390.65
764.564	423.42
764.748	413.18
764.931	400.89
765.114	415.23
765.297	421.37
765.481	392.7
765.664	376.31
765.847	466.42
766.03	466.42
766.213	409.08
766.397	314.88
766.58	323.07
766.763	407.03
766.946	345.59
767.129	394.75
767.312	353.79
767.495	437.75
767.678	413.18
767.861	429.56
768.044	431.61
768.227	339.45
768.41	382.46
768.593	265.72
768.776	378.36
768.959	312.83
769.142	421.37
769.324	404.99
769.507	351.74
769.69	370.17
769.873	359.93
770.056	417.27
770.239	323.07
770.421	443.9
770.604	378.36
770.787	310.78
770.97	409.08
771.152	374.27
771.335	337.4
771.518	302.59
771.7	433.66
771.883	353.79
772.066	366.07
772.248	368.12
772.431	382.46
772.613	286.2
772.796	300.54
772.978	370.17
773.161	292.35
773.343	347.64
773.526	318.97
773.708	318.97
773.891	366.07
774.073	370.17
774.256	314.88
774.438	331.26
774.621	327.16
774.803	327.16
774.985	318.97
775.168	331.26
775.35	273.92
775.532	351.74
775.715	304.64
775.897	271.87
776.079	345.59
776.261	341.5
776.444	341.5
776.626	318.97
776.808	329.21
776.99	302.59
777.173	261.63
777.355	263.68
777.537	286.2
777.719	284.16
777.901	269.82
778.083	314.88
778.265	245.24
778.447	308.73
778.629	249.34
778.811	278.01
778.993	327.16
779.175	339.45
779.357	366.07
779.539	269.82
779.721	265.72
779.903	273.92
780.085	292.35
780.267	263.68
780.449	245.24
780.631	269.82
780.812	261.63
780.994	308.73
781.176	241.15
781.358	228.86
781.54	267.77
781.721	212.48
781.903	323.07
782.085	333.31
782.267	232.96
782.448	200.19
782.63	181.76
782.812	298.49
782.993	273.92
783.175	335.35
783.357	226.81
783.538	235
783.72	318.97
783.901	265.72
784.083	216.57
784.264	278.01
784.446	261.63
784.627	237.05
784.809	192
784.99	214.52
785.172	212.48
785.353	280.06
785.535	267.77
785.716	183.81
785.897	232.96
786.079	189.95
786.26	173.57
786.441	263.68
786.623	196.09
786.804	159.23
786.985	157.18
787.167	241.15
787.348	208.38
787.529	151.04
787.71	216.57
787.891	235
788.073	169.47
788.254	146.94
788.435	206.33
788.616	167.42
788.797	159.23
788.978	194.05
789.159	157.18
789.34	206.33
789.522	144.89
789.703	167.42
789.884	218.62
790.065	136.7
790.246	241.15
790.427	79.36
790.607	206.33
790.788	263.68
790.969	222.72
791.15	165.37
791.331	179.71
791.512	140.8
791.693	196.09
791.874	165.37
792.054	196.09
792.235	173.57
792.416	120.32
792.597	169.47
792.778	189.95
792.958	165.37
793.139	261.63
793.32	202.24
793.5	171.52
793.681	126.46
793.862	185.85
794.042	132.61
794.223	116.22
794.404	142.85
794.584	126.46
794.765	85.5
794.945	202.24
795.126	204.28
795.306	206.33
795.487	163.33
795.667	169.47
795.848	138.75
796.028	146.94
796.209	105.98
796.389	163.33
796.57	169.47
796.75	128.51
796.93	114.17
797.111	108.03
797.291	110.08
797.471	167.42
797.652	54.78
797.832	181.76
798.012	120.32
798.192	138.75
798.373	108.03
798.553	118.27
798.733	101.89
798.913	114.17
799.093	1.54
799.274	124.41
799.454	138.75
799.634	58.88
799.814	148.99
799.994	114.17
800.174	157.18
800.354	165.37
800.534	112.13
800.714	87.55
800.894	128.51
801.074	144.89
801.254	155.13
801.434	136.7
801.614	48.64
801.794	101.89
801.974	337.4
802.154	138.75
802.334	118.27
802.514	138.75
802.693	116.22
802.873	105.98
803.053	138.75
803.233	28.16
803.413	67.07
803.592	81.41
803.772	60.93
803.952	132.61
804.131	134.65
804.311	128.51
804.491	148.99
804.67	34.3
804.85	56.83
805.03	177.66
805.209	71.17
805.389	19.97
805.568	116.22
805.748	50.69
805.928	81.41
806.107	71.17
806.287	140.8
806.466	142.85
806.646	159.23
806.825	138.75
807.004	124.41
807.184	99.84
807.363	179.71
807.543	110.08
807.722	161.28
807.901	-10.75
808.081	95.74
808.26	120.32
808.439	81.41
808.619	60.93
808.798	83.45
808.977	67.07
809.156	73.21
809.336	71.17
809.515	87.55
809.694	101.89
809.873	81.41
810.052	75.26
810.231	132.61
810.411	124.41
810.59	97.79
810.769	50.69
810.948	5.63
811.127	83.45
811.306	42.5
811.485	11.78
811.664	73.21
811.843	28.16
812.022	81.41
812.201	71.17
812.38	65.02
812.559	58.88
812.737	34.3
812.916	3.58
813.095	58.88
813.274	89.6
813.453	105.98
813.632	52.74
813.811	42.5
813.989	85.5
814.168	-4.61
814.347	5.63
814.526	77.31
814.704	85.5
814.883	42.5
815.062	108.03
815.24	108.03
815.419	75.26
815.598	99.84
815.776	120.32
815.955	32.26
816.133	89.6
816.312	148.99
816.49	60.93
816.669	97.79
816.847	-0.51
817.026	116.22
817.204	28.16
817.383	62.98
817.561	-0.51
817.74	24.06
817.918	60.93
818.097	3.58
818.275	42.5
818.453	34.3
818.632	103.93
818.81	124.41
818.988	28.16
819.167	7.68
819.345	24.06
819.523	62.98
819.701	-12.8
819.879	19.97
820.058	46.59
820.236	62.98
820.414	93.69
820.592	44.54
820.77	56.83
820.948	24.06
821.127	28.16
821.305	65.02
821.483	-53.76
821.661	93.69
821.839	93.69
822.017	-0.51
822.195	26.11
822.373	-25.09
822.551	34.3
822.729	40.45
822.907	26.11
823.085	65.02
823.262	34.3
823.44	40.45
823.618	9.73
823.796	83.45
823.974	73.21
824.152	-8.7
824.329	-10.75
824.507	95.74
824.685	50.69
824.863	44.54
825.04	50.69
825.218	112.13
825.396	26.11
825.574	56.83
825.751	48.64
825.929	58.88
826.107	-4.61
826.284	58.88
826.462	19.97
826.639	30.21
826.817	15.87
826.994	-45.57
827.172	62.98
827.349	157.18
827.527	30.21
827.704	44.54
827.882	114.17
828.059	26.11
828.237	19.97
828.414	32.26
828.591	50.69
828.769	73.21
828.946	1.54
829.124	24.06
829.301	79.36
829.478	67.07
829.655	46.59
829.833	-20.99
830.01	44.54
830.187	79.36
830.364	19.97
830.542	-39.42
830.719	83.45
830.896	52.74
831.073	19.97
831.25	1.54
831.427	112.13
831.604	44.54
831.782	-35.33
831.959	-6.66
832.136	36.35
832.313	5.63
832.49	79.36
832.667	56.83
832.844	46.59
833.021	81.41
833.198	9.73
833.374	28.16
833.551	9.73
833.728	60.93
833.905	-12.8
834.082	15.87
834.259	24.06
834.436	-53.76
834.612	42.5
834.789	87.55
834.966	17.92
835.143	46.59
835.319	-8.7
835.496	46.59
835.673	60.93
835.85	87.55
836.026	50.69
836.203	-39.42
836.38	-37.38
836.556	15.87
836.733	-2.56
836.909	30.21
837.086	7.68
837.262	48.64
837.439	32.26
837.616	50.69
837.792	105.98
837.968	34.3
838.145	-0.51
838.321	-10.75
838.498	-43.52
838.674	81.41
838.851	36.35
839.027	128.51
839.203	-8.7
839.38	44.54
839.556	89.6
839.732	91.65
839.909	-4.61
840.085	-41.47
840.261	48.64
840.437	36.35
840.614	52.74
840.79	62.98
840.966	54.78
841.142	62.98
841.318	26.11
841.494	105.98
841.671	-33.28
841.847	65.02
842.023	-25.09
842.199	32.26
842.375	-51.71
842.551	32.26
842.727	67.07
842.903	-33.28
843.079	32.26
843.255	54.78
843.431	73.21
843.607	75.26
843.783	7.68
843.959	40.45
844.134	1.54
844.31	-78.33
844.486	56.83
844.662	-0.51
844.838	-61.95
845.013	56.83
845.189	40.45
845.365	32.26
845.541	54.78
845.716	-35.33
845.892	62.98
846.068	-39.42
846.244	-16.9
846.419	19.97
846.595	-55.81
846.77	15.87
846.946	3.58
847.122	-53.76
847.297	46.59
847.473	54.78
847.648	28.16
847.824	7.68
847.999	26.11
848.175	-6.66
848.35	-43.52
848.526	67.07
848.701	22.02
848.876	89.6
849.052	60.93
849.227	7.68
849.403	65.02
849.578	19.97
849.753	13.82
849.929	-4.61
850.104	5.63
850.279	22.02
850.454	-12.8
850.63	54.78
850.805	1.54
850.98	85.5
851.155	-14.85
851.33	-33.28
851.505	-39.42
851.681	69.12
851.856	-61.95
852.031	30.21
852.206	13.82
852.381	28.16
852.556	1.54
852.731	7.68
852.906	3.58
853.081	19.97
853.256	56.83
853.431	-66.05
853.606	-0.51
853.781	-14.85
853.956	-29.18
854.131	-37.38
854.305	-20.99
854.48	46.59
854.655	9.73
854.83	-23.04
855.005	17.92
855.18	32.26
855.354	-47.62
855.529	-2.56
855.704	26.11
855.879	15.87
856.053	-12.8
856.228	85.5
856.403	-4.61
856.577	26.11
856.752	22.02
856.926	36.35
857.101	-23.04
857.276	-2.56
857.45	5.63
857.625	3.58
857.799	17.92
857.974	50.69
858.148	-41.47
858.323	-37.38
858.497	-0.51
858.672	-45.57
858.846	-10.75
859.02	-2.56
859.195	9.73
859.369	-8.7
859.543	67.07
859.718	24.06
859.892	13.82
860.066	60.93
860.241	32.26
860.415	54.78
860.589	19.97
860.763	-12.8
860.938	-47.62
861.112	48.64
861.286	22.02
861.46	1.54
861.634	-57.86
861.808	-45.57
861.982	11.78
862.157	-31.23
862.331	52.74
862.505	-25.09
862.679	-33.28
862.853	-25.09
863.027	30.21
863.201	32.26
863.375	-4.61
863.549	38.4
863.722	-18.94
863.896	75.26
864.07	73.21
864.244	3.58
864.418	17.92
864.592	50.69
864.766	79.36
864.939	32.26
865.113	-39.42
865.287	77.31
865.461	-45.57
865.634	67.07
865.808	32.26
865.982	-6.66
866.156	-76.29
866.329	91.65
866.503	65.02
866.676	54.78
866.85	36.35
867.024	-25.09
867.197	-33.28
867.371	17.92
867.544	-55.81
867.718	7.68
867.891	15.87
868.065	-39.42
868.238	75.26
868.412	15.87
868.585	-29.18
868.759	13.82
868.932	-29.18
869.105	9.73
869.279	67.07
869.452	-64
869.625	-20.99
869.799	3.58
869.972	11.78
870.145	-72.19
870.319	-16.9
870.492	-4.61
870.665	28.16
870.838	-37.38
871.011	-35.33
871.185	-18.94
871.358	30.21
871.531	19.97
871.704	-27.14
871.877	73.21
872.05	-14.85
872.223	-12.8
872.396	-4.61
872.569	28.16
872.742	-12.8
872.915	7.68
873.088	-41.47
873.261	-12.8
873.434	-27.14
873.607	5.63
873.78	-2.56
873.953	-4.61
874.126	26.11
874.299	58.88
874.471	3.58
874.644	19.97
874.817	13.82
874.99	42.5
875.163	-41.47
875.335	13.82
875.508	24.06
875.681	75.26
875.853	-6.66
876.026	-20.99
876.199	50.69
876.371	52.74
876.544	-45.57
876.717	3.58
876.889	-8.7
877.062	30.21
877.234	11.78
877.407	-70.14
877.579	9.73
877.752	85.5
877.924	40.45
878.097	19.97
878.269	-12.8
878.442	-0.51
878.614	-29.18
878.786	79.36
878.959	22.02
879.131	15.87
879.303	-43.52
879.476	40.45
879.648	-20.99
879.82	26.11
879.993	44.54
880.165	50.69
880.337	-23.04
880.509	-20.99
880.681	-8.7
880.854	75.26
881.026	7.68
881.198	-20.99
881.37	69.12
881.542	-41.47
881.714	-18.94
881.886	-6.66
882.058	-55.81
882.23	62.98
882.402	26.11
882.574	1.54
882.746	19.97
882.918	22.02
883.09	-76.29
883.262	42.5
883.434	-6.66
883.606	-55.81
883.778	3.58
883.95	-0.51
884.122	-25.09
884.293	15.87
884.465	50.69
884.637	40.45
884.809	-68.09
884.98	-25.09
885.152	44.54
885.324	7.68
885.496	11.78
885.667	87.55
885.839	-4.61
886.011	32.26
886.182	1.54
886.354	36.35
886.525	-8.7
886.697	7.68
886.869	5.63
887.04	71.17
887.212	-27.14
887.383	32.26
887.555	-53.76
887.726	-8.7
887.897	-12.8
888.069	-43.52
888.24	-14.85
888.412	9.73
888.583	-6.66
888.754	19.97
888.926	-25.09
889.097	-43.52
889.268	26.11
889.44	3.58
889.611	-2.56
889.782	15.87
889.953	-12.8
890.125	-33.28
890.296	-16.9
890.467	-53.76
890.638	-29.18
890.809	-23.04
890.98	44.54
891.151	9.73
891.323	-10.75
891.494	15.87
891.665	5.63
891.836	-0.51
892.007	52.74
892.178	-33.28
892.349	-78.33
892.52	-94.72
892.691	40.45
892.862	-14.85
893.032	-39.42
893.203	-57.86
893.374	-8.7
893.545	-35.33
893.716	-4.61
893.887	-31.23
894.057	-37.38
894.228	3.58
894.399	-14.85
894.57	-66.05
894.74	5.63
894.911	-39.42
895.082	26.11
895.253	-14.85
895.423	-31.23
895.594	19.97
895.764	1.54
895.935	9.73
896.106	11.78
896.276	-57.86
896.447	-23.04
896.617	-14.85
896.788	-39.42
896.958	65.02
897.129	44.54
897.299	-76.29
897.47	60.93
897.64	40.45
897.81	48.64
897.981	-4.61
898.151	-2.56
898.322	-39.42
898.492	-27.14
898.662	-88.57
898.832	-23.04
899.003	36.35
899.173	34.3
899.343	-37.38
899.513	22.02
