Data from USB4F104151__99__12-54-59-454.txt Node

Date: Fri Mar 14 12:54:59 EDT 2025
User: louis
Spectrometer: USB4F10415
Trigger mode: 4
Integration Time (sec): 1.000000E-2
Scans to average: 1
Electric dark correction enabled: true
Nonlinearity correction enabled: false
Boxcar width: 0
XAxis mode: Wavelengths
Number of Pixels in Spectrum: 3648
>>>>>Begin Spectral Data<<<<<
178.204	-28.67
178.424	-28.67
178.644	-28.67
178.864	-6.14
179.084	-51.2
179.304	-20.48
179.524	-4.1
179.744	-20.48
179.964	-26.62
180.184	-12.29
180.404	-26.62
180.624	-57.34
180.844	40.96
181.064	45.06
181.283	51.2
181.503	2.05
181.723	28.67
181.943	-16.38
182.163	22.53
182.383	47.1
182.602	-24.58
182.822	30.72
183.042	75.77
183.262	8.19
183.482	-47.1
183.701	24.58
183.921	-38.91
184.141	-6.14
184.361	-12.29
184.58	-51.2
184.8	-20.48
185.02	43.01
185.239	18.43
185.459	14.34
185.679	24.58
185.898	102.4
186.118	30.72
186.338	47.1
186.557	-2.05
186.777	-12.29
186.997	-22.53
187.216	-28.67
187.436	-98.3
187.655	61.44
187.875	-16.38
188.095	71.68
188.314	16.38
188.534	47.1
188.753	79.87
188.973	-26.62
189.192	-14.34
189.412	26.62
189.631	24.58
189.851	0
190.07	-22.53
190.29	71.68
190.509	51.2
190.729	24.58
190.948	4.1
191.168	12.29
191.387	59.39
191.607	34.82
191.826	6.14
192.045	-30.72
192.265	108.54
192.484	47.1
192.704	-12.29
192.923	16.38
193.142	55.3
193.362	26.62
193.581	30.72
193.8	47.1
194.02	63.49
194.239	-45.06
194.458	24.58
194.678	61.44
194.897	36.86
195.116	-30.72
195.335	45.06
195.555	-8.19
195.774	-40.96
195.993	4.1
196.212	22.53
196.432	-18.43
196.651	-28.67
196.87	2.05
197.089	-8.19
197.308	63.49
197.528	-63.49
197.747	-81.92
197.966	-14.34
198.185	94.21
198.404	0
198.623	10.24
198.842	10.24
199.062	-4.1
199.281	-10.24
199.5	6.14
199.719	22.53
199.938	43.01
200.157	18.43
200.376	-8.19
200.595	34.82
200.814	4.1
201.033	32.77
201.252	34.82
201.471	26.62
201.69	32.77
201.909	18.43
202.128	-69.63
202.347	-22.53
202.566	-36.86
202.785	47.1
203.004	26.62
203.223	45.06
203.442	22.53
203.661	14.34
203.879	18.43
204.098	30.72
204.317	-22.53
204.536	22.53
204.755	2.05
204.974	8.19
205.193	-34.82
205.411	53.25
205.63	75.77
205.849	-10.24
206.068	26.62
206.287	-77.82
206.505	71.68
206.724	69.63
206.943	55.3
207.162	86.01
207.381	67.58
207.599	59.39
207.818	-24.58
208.037	10.24
208.255	10.24
208.474	8.19
208.693	-22.53
208.911	-40.96
209.13	-4.1
209.349	57.34
209.567	43.01
209.786	47.1
210.005	-40.96
210.223	10.24
210.442	-22.53
210.661	22.53
210.879	49.15
211.098	10.24
211.316	26.62
211.535	-30.72
211.753	-12.29
211.972	51.2
212.191	-61.44
212.409	-2.05
212.628	69.63
212.846	88.06
213.065	-4.1
213.283	61.44
213.502	6.14
213.72	6.14
213.938	16.38
214.157	32.77
214.375	45.06
214.594	71.68
214.812	12.29
215.031	-12.29
215.249	61.44
215.467	-8.19
215.686	-16.38
215.904	18.43
216.122	36.86
216.341	47.1
216.559	-63.49
216.778	28.67
216.996	30.72
217.214	-6.14
217.432	-36.86
217.651	-18.43
217.869	59.39
218.087	8.19
218.306	-4.1
218.524	30.72
218.742	83.97
218.96	63.49
219.179	-18.43
219.397	45.06
219.615	22.53
219.833	8.19
220.051	32.77
220.27	-2.05
220.488	49.15
220.706	-45.06
220.924	-45.06
221.142	2.05
221.36	14.34
221.578	10.24
221.796	10.24
222.015	69.63
222.233	51.2
222.451	79.87
222.669	-18.43
222.887	36.86
223.105	-6.14
223.323	36.86
223.541	0
223.759	79.87
223.977	14.34
224.195	59.39
224.413	-63.49
224.631	-6.14
224.849	10.24
225.067	14.34
225.285	-67.58
225.503	10.24
225.721	40.96
225.939	79.87
226.157	18.43
226.375	47.1
226.592	0
226.81	59.39
227.028	43.01
227.246	57.34
227.464	-24.58
227.682	-22.53
227.9	-34.82
228.117	34.82
228.335	49.15
228.553	65.54
228.771	-16.38
228.989	28.67
229.206	-8.19
229.424	30.72
229.642	40.96
229.86	-4.1
230.077	38.91
230.295	2.05
230.513	14.34
230.731	-16.38
230.948	-10.24
231.166	2.05
231.384	-30.72
231.601	14.34
231.819	-16.38
232.037	30.72
232.254	-30.72
232.472	53.25
232.689	6.14
232.907	32.77
233.125	28.67
233.342	2.05
233.56	40.96
233.777	-12.29
233.995	47.1
234.213	59.39
234.43	53.25
234.648	96.25
234.865	4.1
235.083	83.97
235.3	18.43
235.518	-10.24
235.735	57.34
235.953	34.82
236.17	-6.14
236.388	6.14
236.605	32.77
236.822	71.68
237.04	8.19
237.257	75.77
237.475	36.86
237.692	69.63
237.909	-18.43
238.127	-2.05
238.344	26.62
238.562	88.06
238.779	-2.05
238.996	26.62
239.214	0
239.431	-20.48
239.648	-26.62
239.865	4.1
240.083	28.67
240.3	55.3
240.517	2.05
240.735	-40.96
240.952	43.01
241.169	120.83
241.386	-14.34
241.603	10.24
241.821	-47.1
242.038	71.68
242.255	26.62
242.472	-22.53
242.689	20.48
242.907	28.67
243.124	118.78
243.341	59.39
243.558	-73.73
243.775	2.05
243.992	-14.34
244.209	14.34
244.426	22.53
244.643	-14.34
244.86	-75.77
245.078	34.82
245.295	2.05
245.512	18.43
245.729	30.72
245.946	12.29
246.163	26.62
246.38	45.06
246.597	57.34
246.814	34.82
247.031	40.96
247.248	-45.06
247.464	22.53
247.681	30.72
247.898	-34.82
248.115	75.77
248.332	-6.14
248.549	36.86
248.766	4.1
248.983	53.25
249.2	12.29
249.417	2.05
249.633	38.91
249.85	124.93
250.067	-18.43
250.284	59.39
250.501	16.38
250.717	36.86
250.934	28.67
251.151	8.19
251.368	-40.96
251.585	53.25
251.801	34.82
252.018	-8.19
252.235	4.1
252.451	0
252.668	28.67
252.885	51.2
253.102	6.14
253.318	36.86
253.535	-6.14
253.752	77.82
253.968	36.86
254.185	20.48
254.401	22.53
254.618	43.01
254.835	-12.29
255.051	75.77
255.268	8.19
255.484	45.06
255.701	-4.1
255.917	53.25
256.134	-38.91
256.351	34.82
256.567	45.06
256.784	16.38
257	-77.82
257.217	12.29
257.433	-14.34
257.65	-32.77
257.866	-59.39
258.082	-43.01
258.299	-8.19
258.515	-63.49
258.732	26.62
258.948	-16.38
259.165	-10.24
259.381	18.43
259.597	65.54
259.814	2.05
260.03	0
260.246	30.72
260.463	-38.91
260.679	53.25
260.895	26.62
261.112	24.58
261.328	51.2
261.544	-24.58
261.761	-18.43
261.977	100.35
262.193	-57.34
262.409	45.06
262.626	38.91
262.842	-2.05
263.058	51.2
263.274	34.82
263.49	-10.24
263.707	98.3
263.923	34.82
264.139	-36.86
264.355	-36.86
264.571	112.64
264.787	40.96
265.004	8.19
265.22	12.29
265.436	32.77
265.652	2.05
265.868	63.49
266.084	-36.86
266.3	2.05
266.516	-32.77
266.732	90.11
266.948	22.53
267.164	-63.49
267.38	-12.29
267.596	77.82
267.812	-34.82
268.028	-6.14
268.244	108.54
268.46	10.24
268.676	-4.1
268.892	-8.19
269.108	67.58
269.324	36.86
269.54	10.24
269.756	45.06
269.972	-22.53
270.188	10.24
270.403	51.2
270.619	16.38
270.835	32.77
271.051	-20.48
271.267	32.77
271.483	73.73
271.698	10.24
271.914	61.44
272.13	20.48
272.346	-20.48
272.562	20.48
272.777	61.44
272.993	-24.58
273.209	36.86
273.425	-2.05
273.64	-4.1
273.856	2.05
274.072	4.1
274.287	-34.82
274.503	28.67
274.719	-10.24
274.934	14.34
275.15	-16.38
275.366	38.91
275.581	75.77
275.797	53.25
276.012	-10.24
276.228	-6.14
276.444	53.25
276.659	57.34
276.875	-10.24
277.09	2.05
277.306	-12.29
277.521	0
277.737	-53.25
277.952	-40.96
278.168	-32.77
278.383	94.21
278.599	-26.62
278.814	49.15
279.03	-51.2
279.245	98.3
279.461	18.43
279.676	47.1
279.892	-20.48
280.107	-32.77
280.322	10.24
280.538	-14.34
280.753	28.67
280.969	40.96
281.184	90.11
281.399	18.43
281.615	8.19
281.83	-30.72
282.045	26.62
282.26	43.01
282.476	30.72
282.691	69.63
282.906	-71.68
283.122	-4.1
283.337	-6.14
283.552	75.77
283.767	24.58
283.983	45.06
284.198	-43.01
284.413	51.2
284.628	16.38
284.843	96.25
285.058	-4.1
285.274	8.19
285.489	-4.1
285.704	-28.67
285.919	-4.1
286.134	26.62
286.349	-10.24
286.564	-6.14
286.779	59.39
286.995	2.05
287.21	-43.01
287.425	49.15
287.64	2.05
287.855	69.63
288.07	55.3
288.285	67.58
288.5	24.58
288.715	59.39
288.93	-12.29
289.145	20.48
289.36	10.24
289.575	18.43
289.79	2.05
290.004	-12.29
290.219	14.34
290.434	10.24
290.649	-2.05
290.864	-6.14
291.079	45.06
291.294	63.49
291.509	43.01
291.724	-2.05
291.938	16.38
292.153	51.2
292.368	6.14
292.583	90.11
292.798	53.25
293.012	-47.1
293.227	-20.48
293.442	45.06
293.657	81.92
293.871	10.24
294.086	-59.39
294.301	59.39
294.516	63.49
294.73	94.21
294.945	49.15
295.16	-26.62
295.374	18.43
295.589	55.3
295.804	-32.77
296.018	124.93
296.233	63.49
296.447	2.05
296.662	-18.43
296.877	34.82
297.091	34.82
297.306	24.58
297.52	22.53
297.735	-36.86
297.949	-63.49
298.164	-4.1
298.378	-53.25
298.593	4.1
298.807	20.48
299.022	59.39
299.236	94.21
299.451	51.2
299.665	-28.67
299.88	-12.29
300.094	-4.1
300.309	-6.14
300.523	12.29
300.737	100.35
300.952	-88.06
301.166	20.48
301.381	-47.1
301.595	0
301.809	6.14
302.024	-2.05
302.238	6.14
302.452	69.63
302.667	-36.86
302.881	14.34
303.095	61.44
303.309	22.53
303.524	6.14
303.738	-2.05
303.952	-59.39
304.166	-20.48
304.381	-10.24
304.595	12.29
304.809	0
305.023	32.77
305.237	-47.1
305.452	86.01
305.666	14.34
305.88	36.86
306.094	16.38
306.308	-12.29
306.522	63.49
306.736	26.62
306.95	-30.72
307.164	71.68
307.379	4.1
307.593	-16.38
307.807	-4.1
308.021	61.44
308.235	-51.2
308.449	6.14
308.663	36.86
308.877	98.3
309.091	30.72
309.305	43.01
309.519	-12.29
309.733	-22.53
309.947	-43.01
310.161	40.96
310.374	24.58
310.588	20.48
310.802	14.34
311.016	28.67
311.23	38.91
311.444	22.53
311.658	-53.25
311.872	-45.06
312.085	63.49
312.299	-51.2
312.513	22.53
312.727	30.72
312.941	-26.62
313.154	-10.24
313.368	8.19
313.582	-16.38
313.796	71.68
314.009	-4.1
314.223	73.73
314.437	51.2
314.651	-24.58
314.864	36.86
315.078	49.15
315.292	18.43
315.505	8.19
315.719	22.53
315.933	51.2
316.146	28.67
316.36	-16.38
316.573	10.24
316.787	4.1
317.001	0
317.214	45.06
317.428	24.58
317.641	34.82
317.855	36.86
318.068	6.14
318.282	-6.14
318.495	-30.72
318.709	51.2
318.922	24.58
319.136	34.82
319.349	63.49
319.563	10.24
319.776	47.1
319.99	8.19
320.203	2.05
320.417	57.34
320.63	-8.19
320.843	90.11
321.057	-32.77
321.27	-2.05
321.483	98.3
321.697	8.19
321.91	-6.14
322.124	61.44
322.337	-10.24
322.55	61.44
322.763	61.44
322.977	26.62
323.19	34.82
323.403	61.44
323.617	28.67
323.83	69.63
324.043	-12.29
324.256	2.05
324.469	49.15
324.683	-4.1
324.896	73.73
325.109	45.06
325.322	24.58
325.535	-6.14
325.748	18.43
325.962	-4.1
326.175	32.77
326.388	51.2
326.601	22.53
326.814	30.72
327.027	14.34
327.24	49.15
327.453	-67.58
327.666	92.16
327.879	40.96
328.092	20.48
328.305	16.38
328.518	-22.53
328.731	-14.34
328.944	36.86
329.157	81.92
329.37	30.72
329.583	53.25
329.796	51.2
330.009	-73.73
330.222	61.44
330.435	14.34
330.648	75.77
330.861	-24.58
331.073	26.62
331.286	-67.58
331.499	45.06
331.712	-34.82
331.925	45.06
332.138	-20.48
332.35	45.06
332.563	-2.05
332.776	65.54
332.989	-53.25
333.202	-71.68
333.414	100.35
333.627	6.14
333.84	-57.34
334.053	59.39
334.265	22.53
334.478	18.43
334.691	116.73
334.903	30.72
335.116	-28.67
335.329	-45.06
335.541	32.77
335.754	34.82
335.966	10.24
336.179	-34.82
336.392	-10.24
336.604	22.53
336.817	20.48
337.029	22.53
337.242	14.34
337.454	10.24
337.667	6.14
337.88	69.63
338.092	-32.77
338.305	59.39
338.517	-71.68
338.729	38.91
338.942	69.63
339.154	-55.3
339.367	-6.14
339.579	-10.24
339.792	16.38
340.004	81.92
340.217	-8.19
340.429	71.68
340.641	-18.43
340.854	10.24
341.066	73.73
341.278	36.86
341.491	69.63
341.703	18.43
341.915	38.91
342.128	14.34
342.34	4.1
342.552	14.34
342.764	28.67
342.977	63.49
343.189	24.58
343.401	-20.48
343.613	-43.01
343.826	22.53
344.038	28.67
344.25	-26.62
344.462	30.72
344.674	47.1
344.886	-2.05
345.099	22.53
345.311	-8.19
345.523	26.62
345.735	34.82
345.947	86.01
346.159	-14.34
346.371	-6.14
346.583	4.1
346.795	61.44
347.007	6.14
347.219	2.05
347.431	-26.62
347.643	-36.86
347.855	10.24
348.067	75.77
348.279	0
348.491	-47.1
348.703	-20.48
348.915	34.82
349.127	8.19
349.339	126.97
349.551	-26.62
349.763	63.49
349.975	-34.82
350.187	-34.82
350.399	34.82
350.61	51.2
350.822	28.67
351.034	34.82
351.246	57.34
351.458	-20.48
351.669	-12.29
351.881	30.72
352.093	-4.1
352.305	12.29
352.517	73.73
352.728	73.73
352.94	43.01
353.152	77.82
353.363	14.34
353.575	34.82
353.787	53.25
353.999	0
354.21	4.1
354.422	-28.67
354.633	-38.91
354.845	55.3
355.057	38.91
355.268	16.38
355.48	-32.77
355.692	-2.05
355.903	40.96
356.115	-47.1
356.326	18.43
356.538	34.82
356.749	-2.05
356.961	45.06
357.172	-4.1
357.384	16.38
357.595	47.1
357.807	96.25
358.018	34.82
358.23	-28.67
358.441	24.58
358.653	88.06
358.864	-47.1
359.075	2.05
359.287	26.62
359.498	22.53
359.709	-6.14
359.921	34.82
360.132	6.14
360.344	2.05
360.555	14.34
360.766	-26.62
360.977	-22.53
361.189	22.53
361.4	51.2
361.611	38.91
361.823	2.05
362.034	100.35
362.245	32.77
362.456	28.67
362.667	12.29
362.879	32.77
363.09	22.53
363.301	24.58
363.512	-10.24
363.723	0
363.935	26.62
364.146	51.2
364.357	10.24
364.568	-30.72
364.779	-18.43
364.99	90.11
365.201	14.34
365.412	73.73
365.623	16.38
365.834	38.91
366.045	14.34
366.256	55.3
366.467	-2.05
366.678	-10.24
366.889	45.06
367.1	-34.82
367.311	36.86
367.522	43.01
367.733	-12.29
367.944	51.2
368.155	-4.1
368.366	71.68
368.577	53.25
368.788	24.58
368.999	10.24
369.209	34.82
369.42	24.58
369.631	6.14
369.842	-8.19
370.053	-2.05
370.264	-20.48
370.474	47.1
370.685	53.25
370.896	92.16
371.107	34.82
371.317	18.43
371.528	18.43
371.739	51.2
371.95	-40.96
372.16	4.1
372.371	-24.58
372.582	14.34
372.792	30.72
373.003	30.72
373.214	69.63
373.424	38.91
373.635	67.58
373.846	73.73
374.056	53.25
374.267	26.62
374.477	30.72
374.688	43.01
374.898	0
375.109	22.53
375.319	36.86
375.53	-20.48
375.74	63.49
375.951	86.01
376.161	-2.05
376.372	-4.1
376.582	47.1
376.793	69.63
377.003	57.34
377.214	49.15
377.424	79.87
377.635	34.82
377.845	-16.38
378.055	-6.14
378.266	-32.77
378.476	26.62
378.686	-16.38
378.897	141.31
379.107	86.01
379.317	36.86
379.528	6.14
379.738	104.45
379.948	4.1
380.158	92.16
380.369	67.58
380.579	16.38
380.789	65.54
380.999	4.1
381.21	-16.38
381.42	34.82
381.63	34.82
381.84	141.31
382.05	12.29
382.261	47.1
382.471	10.24
382.681	51.2
382.891	-10.24
383.101	98.3
383.311	-8.19
383.521	40.96
383.731	38.91
383.941	34.82
384.151	34.82
384.361	22.53
384.571	22.53
384.781	51.2
384.991	2.05
385.201	28.67
385.411	-6.14
385.621	43.01
385.831	28.67
386.041	-8.19
386.251	-10.24
386.461	92.16
386.671	-12.29
386.881	16.38
387.091	53.25
387.301	28.67
387.511	47.1
387.72	79.87
387.93	14.34
388.14	43.01
388.35	16.38
388.56	2.05
388.769	12.29
388.979	28.67
389.189	18.43
389.399	28.67
389.609	-57.34
389.818	112.64
390.028	-12.29
390.238	18.43
390.447	24.58
390.657	26.62
390.867	32.77
391.076	47.1
391.286	8.19
391.496	-18.43
391.705	34.82
391.915	43.01
392.125	90.11
392.334	0
392.544	-16.38
392.753	0
392.963	55.3
393.172	-20.48
393.382	96.25
393.591	10.24
393.801	8.19
394.01	65.54
394.22	40.96
394.429	100.35
394.639	57.34
394.848	94.21
395.058	-26.62
395.267	86.01
395.477	34.82
395.686	83.97
395.895	108.54
396.105	22.53
396.314	8.19
396.524	2.05
396.733	-18.43
396.942	65.54
397.152	43.01
397.361	12.29
397.57	6.14
397.78	36.86
397.989	65.54
398.198	106.49
398.407	45.06
398.617	69.63
398.826	145.41
399.035	36.86
399.244	96.25
399.453	26.62
399.663	47.1
399.872	79.87
400.081	38.91
400.29	10.24
400.499	49.15
400.708	90.11
400.917	30.72
401.127	22.53
401.336	12.29
401.545	88.06
401.754	79.87
401.963	79.87
402.172	51.2
402.381	24.58
402.59	36.86
402.799	47.1
403.008	100.35
403.217	131.07
403.426	63.49
403.635	90.11
403.844	38.91
404.053	20.48
404.262	69.63
404.471	114.69
404.68	36.86
404.888	20.48
405.097	38.91
405.306	36.86
405.515	86.01
405.724	110.59
405.933	71.68
406.142	65.54
406.35	75.77
406.559	51.2
406.768	40.96
406.977	110.59
407.185	83.97
407.394	69.63
407.603	88.06
407.812	231.42
408.02	161.79
408.229	67.58
408.438	108.54
408.646	139.26
408.855	83.97
409.064	100.35
409.272	110.59
409.481	135.17
409.69	108.54
409.898	92.16
410.107	92.16
410.315	108.54
410.524	110.59
410.733	131.07
410.941	129.02
411.15	163.84
411.358	131.07
411.567	194.56
411.775	159.74
411.984	176.13
412.192	143.36
412.401	122.88
412.609	221.18
412.818	135.17
413.026	194.56
413.234	172.03
413.443	198.65
413.651	157.69
413.86	210.94
414.068	151.55
414.276	194.56
414.485	266.24
414.693	249.85
414.901	215.04
415.11	256
415.318	219.13
415.526	258.04
415.734	274.43
415.943	196.61
416.151	229.37
416.359	165.89
416.567	313.34
416.776	337.91
416.984	278.52
417.192	389.11
417.4	311.29
417.608	282.62
417.817	325.63
418.025	344.06
418.233	264.19
418.441	397.31
418.649	446.46
418.857	370.68
419.065	446.46
419.273	403.45
419.481	432.12
419.689	450.55
419.897	550.9
420.105	444.41
420.313	479.22
420.521	544.76
420.729	587.77
420.937	565.24
421.145	528.38
421.353	557.05
421.561	550.9
421.769	657.4
421.977	647.16
422.185	616.44
422.393	753.65
422.601	704.5
422.809	772.08
423.017	698.36
423.224	804.85
423.432	804.85
423.64	847.86
423.848	817.14
424.056	868.34
424.263	919.54
424.471	944.11
424.679	907.25
424.887	978.93
425.094	940.02
425.302	1019.89
425.51	1034.22
425.718	1034.22
425.925	1107.95
426.133	1046.51
426.341	1124.33
426.548	1191.92
426.756	1318.89
426.964	1263.6
427.171	1263.6
427.379	1275.88
427.586	1298.41
427.794	1429.48
428.001	1437.67
428.209	1486.83
428.417	1454.06
428.624	1624.04
428.832	1667.05
429.039	1703.91
429.247	1611.75
429.454	1753.06
429.662	1828.84
429.869	1763.3
430.076	1959.91
430.284	1869.8
430.491	1875.94
430.699	2115.55
430.906	2095.07
431.114	2068.45
431.321	2150.37
431.528	2217.95
431.736	2361.31
431.943	2428.89
432.15	2385.88
432.358	2287.58
432.565	2559.96
432.772	2551.77
432.979	2488.28
433.187	2639.83
433.394	2592.73
433.601	2838.48
433.808	2875.35
434.016	2781.14
434.223	2920.4
434.43	3076.05
434.637	2940.88
434.844	3270.61
435.052	3280.85
435.259	3299.28
435.466	3352.52
435.673	3280.85
435.88	3428.3
436.087	3653.58
436.294	3688.39
436.501	3672.01
436.708	3700.68
436.915	3733.45
437.122	4022.21
437.329	4022.21
437.537	4106.18
437.743	4216.77
437.95	4192.19
438.157	4306.88
438.364	4456.38
438.571	4536.25
438.778	4468.67
438.985	4968.37
439.192	4829.11
439.399	4816.82
439.606	4974.52
439.813	5183.41
440.02	5429.17
440.227	5244.85
440.433	5306.29
440.64	5463.98
440.847	5459.88
441.054	5435.31
441.261	5750.7
441.467	5697.45
441.674	5932.97
441.881	6252.45
442.088	6188.96
442.294	6250.4
442.501	6258.59
442.708	6182.82
442.914	6664.09
443.121	6915.99
443.328	6590.36
443.534	7079.83
443.741	6903.7
443.948	6911.89
444.154	7397.26
444.361	7475.09
444.568	7430.03
444.774	7417.74
444.981	7542.67
445.187	7591.82
445.394	8105.86
445.6	7939.97
445.807	8810.36
446.013	8447.87
446.22	8425.34
446.426	8796.03
446.633	8914.81
446.839	9144.18
447.046	8818.55
447.252	9359.22
447.459	9295.73
447.665	9387.89
447.871	9588.59
448.078	10205.03
448.284	9695.08
448.491	9940.84
448.697	10475.36
448.903	10364.77
449.11	10387.3
449.316	10368.87
449.522	10553.18
449.728	11013.98
449.935	11181.91
450.141	10940.25
450.347	11192.15
450.553	11001.69
450.76	11163.48
450.966	11413.33
451.172	11308.88
451.378	11646.8
451.584	11413.33
451.791	11550.54
451.997	11409.23
452.203	11708.24
452.409	11573.07
452.615	11804.49
452.821	11165.53
453.027	10956.63
453.233	11771.72
453.44	11304.79
453.646	11470.67
453.852	11431.76
454.058	11632.46
454.264	11130.71
454.47	11597.65
454.676	11196.25
454.882	11698
455.088	10329.95
455.294	10891.1
455.5	10805.08
455.705	11024.22
455.911	10579.81
456.117	10585.95
456.323	10424.16
456.529	9922.41
456.735	10198.88
456.941	9817.96
457.147	9807.72
457.352	9430.9
457.558	9334.64
457.764	9359.22
457.97	9265.01
458.176	9066.36
458.381	8957.82
458.587	8509.31
458.793	8568.7
458.999	8099.72
459.204	8591.23
459.41	8406.91
459.616	7763.85
459.821	7929.73
460.027	8062.85
460.233	7708.55
460.438	7346.06
460.644	7417.74
460.85	7069.59
461.055	7036.82
461.261	6973.33
461.466	6416.29
461.672	6102.95
461.878	6807.45
462.083	6156.19
462.289	5955.49
462.494	5996.45
462.7	5701.54
462.905	5726.12
463.111	5842.85
463.316	5820.33
463.522	5754.79
463.727	5791.66
463.932	5861.29
464.138	5642.15
464.343	5644.2
464.549	5328.81
464.754	5722.02
464.959	5644.2
465.165	5562.28
465.37	5314.48
465.575	5193.65
465.781	5341.1
465.986	5543.85
466.191	5285.81
466.397	5207.98
466.602	4917.17
466.807	5173.17
467.012	5199.79
467.218	4999.09
467.423	5052.34
467.628	5072.82
467.833	5199.79
468.038	5070.77
468.244	4937.65
468.449	5062.58
468.654	4880.31
468.859	4917.17
469.064	4937.65
469.269	4782.01
469.474	4751.29
469.679	4921.27
469.885	4704.18
470.09	4843.45
470.295	4816.82
470.5	4548.54
470.705	4511.68
470.91	4587.45
471.115	4485.05
471.32	4671.42
471.525	4665.27
471.73	4431.8
471.935	4480.96
472.139	4308.93
472.344	4431.8
472.549	4337.6
472.754	4251.58
472.959	4114.37
473.164	4136.9
473.369	4001.73
473.574	4108.23
473.778	4157.38
473.983	4095.94
474.188	4065.22
474.393	3870.66
474.598	3907.52
474.802	3925.96
475.007	3876.8
475.212	3936.2
475.417	3583.95
475.621	3782.6
475.826	3645.38
476.031	3710.92
476.235	3665.86
476.44	3663.82
476.645	3680.2
476.849	3631.05
477.054	3573.71
477.259	3475.4
477.463	3506.12
477.668	3266.51
477.872	3514.31
478.077	3387.34
478.282	3416.01
478.486	3307.47
478.691	3336.14
478.895	3264.46
479.1	3293.13
479.304	3229.65
479.509	3166.16
479.713	3235.79
479.918	3172.3
480.122	3063.76
480.326	3186.64
480.531	3254.22
480.735	3110.86
480.94	3092.43
481.144	3276.75
481.348	3002.32
481.553	3117.01
481.757	3028.95
481.961	3098.58
482.166	3157.97
482.37	3108.82
482.574	3045.33
482.778	2942.93
482.983	3026.9
483.187	2881.49
483.391	3125.2
483.595	2848.72
483.8	2934.74
484.004	2893.78
484.208	3057.62
484.412	3053.52
484.616	3114.96
484.821	2977.75
485.025	2973.65
485.229	3137.49
485.433	3057.62
485.637	3033.04
485.841	2916.31
486.045	3041.23
486.249	3037.14
486.453	3121.1
486.657	3067.86
486.861	3010.51
487.065	3024.85
487.269	3006.42
487.473	2930.64
487.677	3065.81
487.881	3160.02
488.085	3067.86
488.289	3160.02
488.493	2885.59
488.697	3123.15
488.901	3030.99
489.105	3035.09
489.309	2951.12
489.512	3080.14
489.716	2961.36
489.92	3192.78
490.124	3078.1
490.328	3108.82
490.531	3010.51
490.735	3110.86
490.939	3076.05
491.143	3141.58
491.346	3016.66
491.55	3143.63
491.754	3239.89
491.958	3184.59
492.161	3207.12
492.365	3153.87
492.569	3307.47
492.772	3166.16
492.976	3254.22
493.18	3215.31
493.383	3227.6
493.587	3401.68
493.79	3342.28
493.994	3399.63
494.197	3354.57
494.401	3356.62
494.605	3368.91
494.808	3393.48
495.012	3358.67
495.215	3278.8
495.419	3456.97
495.622	3571.66
495.825	3645.38
496.029	3475.4
496.232	3540.94
496.436	3561.42
496.639	3739.59
496.843	3672.01
497.046	3854.28
497.249	3776.45
497.453	3758.02
497.656	3813.32
497.859	3741.64
498.063	3878.85
498.266	3932.1
498.469	4014.02
498.673	3860.42
498.876	4073.41
499.079	4165.57
499.282	4147.14
499.485	4040.64
499.689	4106.18
499.892	4325.31
500.095	4212.67
500.298	4403.13
500.501	4384.7
500.705	4366.27
500.908	4601.79
501.111	4558.78
501.314	4695.99
501.517	4519.87
501.72	4868.02
501.923	4749.24
502.126	4757.43
502.329	5023.67
502.532	4992.95
502.735	5011.38
502.938	4915.12
503.141	4980.66
503.344	5207.98
503.547	5169.07
503.75	5334.96
503.953	5238.7
504.156	5420.97
504.359	5420.97
504.562	5595.05
504.765	5676.97
504.968	5646.25
505.17	5646.25
505.373	5685.16
505.576	5605.29
505.779	5947.3
505.982	5781.42
506.185	5865.38
506.387	5918.63
506.59	6051.75
506.793	6250.4
506.996	6209.44
507.198	6381.47
507.401	6389.66
507.604	6459.29
507.807	6494.11
508.009	6522.78
508.212	6614.94
508.415	6563.74
508.617	6717.34
508.82	6770.58
509.022	6768.54
509.225	7040.92
509.428	6901.65
509.63	6926.23
509.833	7079.83
510.035	7329.68
510.238	7219.09
510.44	7450.51
510.643	7460.75
510.845	7315.34
511.048	7522.19
511.25	7729.03
511.453	7716.75
511.655	8036.23
511.858	7858.06
512.06	7856.01
512.262	8212.35
512.465	8087.43
512.667	8109.96
512.87	8261.51
513.072	8206.21
513.274	8314.75
513.477	8617.85
513.679	8589.18
513.881	8650.62
514.084	8888.18
514.286	8642.43
514.488	8955.77
514.69	9011.06
514.893	9135.99
515.095	8970.1
515.297	9039.73
515.499	9385.84
515.701	9219.96
515.904	9715.56
516.106	9625.45
516.308	9645.93
516.51	9822.06
516.712	9822.06
516.914	9817.96
517.116	9942.89
517.318	10114.92
517.52	9963.37
517.722	10149.73
517.925	10227.56
518.127	10514.27
518.329	10602.33
518.531	10456.93
518.733	10674.01
518.935	10800.99
519.136	11046.74
519.338	10848.09
519.54	11030.36
519.742	11061.08
519.944	11202.39
520.146	11591.5
520.348	11536.21
520.55	11407.19
520.752	11382.61
520.954	11521.87
521.155	11599.69
521.357	11669.33
521.559	11792.2
521.761	11874.12
521.963	12255.05
522.164	12064.58
522.366	12191.56
522.568	12212.04
522.77	12222.28
522.971	12599.1
523.173	12570.43
523.375	12496.71
523.576	12533.57
523.778	12406.59
523.98	12785.47
524.181	12693.31
524.383	12795.71
524.584	12867.39
524.786	13088.57
524.988	12996.41
525.189	13055.8
525.391	13295.41
525.592	13070.14
525.794	13174.58
525.995	13608.75
526.197	13289.27
526.398	13115.19
526.6	13518.64
526.801	13578.03
527.003	13272.89
527.204	13408.05
527.406	13690.67
527.607	13518.64
527.808	13868.84
528.01	13387.57
528.211	13604.66
528.412	14049.07
528.614	13870.89
528.815	13936.43
529.016	14065.45
529.218	13932.33
529.419	14161.7
529.62	14182.18
529.822	13983.53
530.023	14112.55
530.224	14264.1
530.425	14012.2
530.626	14077.74
530.828	13938.48
531.029	14495.52
531.23	14122.79
531.431	13918
531.632	14159.66
531.833	14479.14
532.035	14243.62
532.236	14217
532.437	14176.04
532.638	14290.73
532.839	14440.23
533.04	14313.25
533.241	14178.09
533.442	14436.13
533.643	14202.66
533.844	14333.73
534.045	14479.14
534.246	14104.36
534.447	14503.71
534.648	14159.66
534.849	14651.17
535.05	14354.21
535.251	14364.45
535.451	14235.43
535.652	14452.52
535.853	14190.38
536.054	14350.12
536.255	14382.88
536.456	14206.76
536.657	14272.29
536.857	14298.92
537.058	14450.47
537.259	14796.57
537.46	14352.17
537.66	14370.6
537.861	14253.86
538.062	14237.48
538.263	14460.71
538.463	14337.83
538.664	14280.49
538.865	14419.75
539.065	14677.79
539.266	14255.91
539.466	14647.07
539.667	14229.29
539.868	14438.18
540.068	14255.91
540.269	14243.62
540.469	14485.28
540.67	14243.62
540.87	14305.06
541.071	14098.22
541.271	14249.77
541.472	14081.83
541.672	14083.88
541.873	14173.99
542.073	14016.3
542.274	14368.55
542.474	14090.02
542.675	14292.77
542.875	14352.17
543.075	14223.14
543.276	13915.95
543.476	14249.77
543.676	14135.08
543.877	14149.42
544.077	14102.31
544.277	14225.19
544.478	13983.53
544.678	14184.23
544.878	14010.15
545.078	14186.28
545.279	14042.92
545.479	13905.71
545.679	14425.89
545.879	14085.93
546.079	14079.79
546.28	14038.83
546.48	14196.52
546.68	14247.72
546.88	14004.01
547.08	14264.1
547.28	14038.83
547.48	13995.82
547.68	14047.02
547.88	14169.9
548.081	14182.18
548.281	14210.86
548.481	13985.58
548.681	14362.4
548.881	14102.31
549.081	14309.16
549.28	14001.96
549.48	14176.04
549.68	14118.7
549.88	14147.37
550.08	14143.27
550.28	13862.7
550.48	14040.87
550.68	14108.46
550.88	14014.25
551.08	14141.22
551.279	14243.62
551.479	14155.56
551.679	14169.9
551.879	13928.24
552.079	14036.78
552.278	13885.23
552.478	13987.63
552.678	14135.08
552.878	14001.96
553.077	14044.97
553.277	13856.56
553.477	14083.88
553.676	13967.15
553.876	14014.25
554.076	13874.99
554.275	14065.45
554.475	13788.97
554.674	14026.54
554.874	13999.91
555.074	13809.45
555.273	13735.73
555.473	14126.89
555.672	13735.73
555.872	13944.62
556.071	13977.39
556.271	14008.11
556.47	13733.68
556.67	13733.68
556.869	13727.53
557.068	13883.18
557.268	13778.73
557.467	13825.84
557.667	13602.61
557.866	14014.25
558.065	13680.43
558.265	13752.11
558.464	13571.89
558.663	13768.49
558.863	13541.17
559.062	13958.95
559.261	13653.81
559.461	13610.8
559.66	13504.31
559.859	13696.82
560.058	13516.59
560.258	13387.57
560.457	13233.97
560.656	13406
560.855	13348.66
561.054	13580.08
561.253	13209.4
561.453	13520.69
561.652	13410.1
561.851	13504.31
562.05	13242.17
562.249	13186.87
562.448	13510.45
562.647	13426.48
562.846	13459.25
563.045	13092.66
563.244	13238.07
563.443	13449.01
563.642	13250.36
563.841	13408.05
564.04	13252.41
564.239	13152.06
564.438	13102.9
564.637	13410.1
564.836	13170.49
565.035	13000.51
565.234	13285.17
565.432	13158.2
565.631	13037.37
565.83	13125.43
566.029	13004.6
566.228	12801.85
566.427	13043.51
566.625	12912.44
566.824	12736.32
567.023	13152.06
567.222	12775.23
567.42	12902.2
567.619	12865.34
567.818	12902.2
568.016	12865.34
568.215	12881.72
568.414	12754.75
568.612	12855.1
568.811	12621.63
569.01	12693.31
569.208	12611.39
569.407	12742.46
569.605	12580.67
569.804	12789.56
570.002	12316.48
570.201	12605.25
570.4	12482.37
570.598	12488.51
570.797	12355.4
570.995	12322.63
571.193	12496.71
571.392	12441.41
571.59	12154.69
571.789	12334.92
571.987	12257.09
572.186	12197.7
572.384	12318.53
572.582	12185.41
572.781	12470.08
572.979	12181.32
573.177	12078.92
573.376	12091.21
573.574	11990.86
573.772	12017.48
573.971	12136.26
574.169	11900.75
574.367	12007.24
574.565	12173.13
574.763	11923.27
574.962	12074.82
575.16	11667.28
575.358	11851.6
575.556	11577.17
575.754	11839.31
575.952	11741
576.151	12103.5
576.349	11804.49
576.547	11468.62
576.745	11824.97
576.943	11689.81
577.141	11720.53
577.339	11665.23
577.537	11466.58
577.735	11640.65
577.933	11599.69
578.131	11521.87
578.329	11634.51
578.527	11427.67
578.725	11495.25
578.923	11501.39
579.121	11378.51
579.319	11114.33
579.516	11290.45
579.714	11247.44
579.912	11237.2
580.11	11229.01
580.308	11259.73
580.506	10979.16
580.704	11161.43
580.901	11020.12
581.099	11147.09
581.297	11085.65
581.495	11061.08
581.692	11134.81
581.89	11016.02
582.088	10956.63
582.285	10737.5
582.483	11020.12
582.681	11136.85
582.878	10823.51
583.076	10899.29
583.274	11026.26
583.471	10739.55
583.669	10901.34
583.866	10637.15
584.064	10913.63
584.262	10659.68
584.459	10565.47
584.657	10415.97
584.854	10696.54
585.052	10473.31
585.249	10760.03
585.447	10391.39
585.644	10415.97
585.841	10360.67
586.039	10280.8
586.236	10418.02
586.434	10309.47
586.631	10418.02
586.828	10350.43
587.026	10250.08
587.223	10307.43
587.42	10184.55
587.618	10264.42
587.815	10135.4
588.012	9817.96
588.21	10307.43
588.407	10162.02
588.604	9865.07
588.801	9895.78
588.999	10106.73
589.196	10067.81
589.393	9969.51
589.59	10147.69
589.787	9746.28
589.984	9664.36
590.182	9811.82
590.379	9916.26
590.576	9719.66
590.773	9680.75
590.97	9664.36
591.167	9758.57
591.364	9580.4
591.561	9846.63
591.758	9690.99
591.955	9564.01
592.152	9457.52
592.349	9414.51
592.546	9820.01
592.743	9609.07
592.94	9305.97
593.137	9459.57
593.334	9367.41
593.531	9467.76
593.727	9320.31
593.924	9424.75
594.121	9260.91
594.318	9252.72
594.515	9254.77
594.712	9473.9
594.908	9162.61
595.105	9211.76
595.302	9148.28
595.499	9076.6
595.696	9080.69
595.892	9082.74
596.089	9099.13
596.286	9199.48
596.482	8972.15
596.679	9033.59
596.876	9019.25
597.072	8890.23
597.269	8949.62
597.466	8736.63
597.662	8826.75
597.859	8855.42
598.055	8896.38
598.252	8603.52
598.448	8986.49
598.645	8605.56
598.841	8628.09
599.038	8599.42
599.234	8615.8
599.431	8523.65
599.627	8574.85
599.824	8689.53
600.02	8486.78
600.217	8550.27
600.413	8451.97
600.609	8472.45
600.806	8331.14
601.002	8451.97
601.198	8363.9
601.395	8216.45
601.591	8195.97
601.787	8333.18
601.984	8218.5
602.18	8327.04
602.376	8134.53
602.572	8130.44
602.769	8013.7
602.965	8064.9
603.161	8288.13
603.357	8302.47
603.553	7997.32
603.75	8107.91
603.946	8193.92
604.142	8093.57
604.338	7831.43
604.534	8023.94
604.73	7860.1
604.926	7792.52
605.122	8038.28
605.318	8062.85
605.514	7888.78
605.71	7761.8
605.906	7808.9
606.102	7661.45
606.298	7712.65
606.494	7757.71
606.69	7702.41
606.886	7794.57
607.082	7692.17
607.278	7550.86
607.474	7509.9
607.67	7694.22
607.866	7702.41
608.062	7716.75
608.257	7552.91
608.453	7661.45
608.649	7497.61
608.845	7595.92
609.041	7608.2
609.236	7632.78
609.432	7493.52
609.628	7577.48
609.824	7524.24
610.019	7423.89
610.215	7479.18
610.411	7497.61
610.606	7407.5
610.802	7337.87
610.998	7325.58
611.193	7475.09
611.389	7278.48
611.584	7321.49
611.78	7350.16
611.976	7325.58
612.171	7339.92
612.367	7208.85
612.562	7380.88
612.758	7266.19
612.953	7141.27
613.149	7165.84
613.344	7055.25
613.539	7258
613.735	7157.65
613.93	7036.82
614.126	7108.5
614.321	7106.45
614.517	7110.55
614.712	7161.75
614.907	7169.94
615.103	7106.45
615.298	6905.75
615.493	7002.01
615.688	6961.05
615.884	7147.41
616.079	6868.89
616.274	6928.28
616.47	6789.02
616.665	6842.26
616.86	6776.73
617.055	7098.26
617.25	7006.1
617.445	6848.41
617.641	6799.26
617.836	6956.95
618.031	6625.18
618.226	6723.48
618.421	6758.3
618.616	6776.73
618.811	6760.34
619.006	6698.91
619.201	6659.99
619.396	6827.93
619.591	6461.34
619.786	6641.56
619.981	6522.78
620.176	6530.97
620.371	6512.54
620.566	6543.26
620.761	6475.68
620.956	6385.57
621.151	6309.79
621.346	6442.91
621.541	6399.9
621.735	6410.14
621.93	6281.12
622.125	6381.47
622.32	6205.35
622.515	6283.17
622.709	5990.31
622.904	6123.43
623.099	6125.47
623.294	6186.91
623.488	5924.77
623.683	5967.78
623.878	5846.95
624.072	5988.26
624.267	6051.75
624.462	6043.56
624.656	5928.87
624.851	6025.12
625.046	5789.61
625.24	5615.53
625.435	5746.6
625.629	5717.93
625.824	5676.97
626.018	5631.91
626.213	5666.73
626.407	5795.75
626.602	5580.71
626.796	5504.94
626.991	5531.56
627.185	5521.32
627.38	5478.32
627.574	5320.62
627.768	5517.23
627.963	5109.68
628.157	5330.86
628.352	5423.02
628.546	5279.66
628.74	5320.62
628.935	5169.07
629.129	5177.26
629.323	5228.46
629.517	5091.25
629.712	5007.28
629.906	5011.38
630.1	4962.23
630.294	4984.76
630.489	5083.06
630.683	5027.76
630.877	4956.08
631.071	4890.55
631.265	4898.74
631.459	4802.49
631.653	4974.52
631.848	4769.72
632.042	4763.58
632.236	4650.94
632.43	4663.22
632.624	4814.77
632.818	4743.1
633.012	4624.31
633.206	4620.22
633.4	4728.76
633.594	4532.15
633.788	4579.26
633.982	4544.44
634.176	4601.79
634.369	4376.51
634.563	4679.61
634.757	4474.81
634.951	4454.33
635.145	4528.06
635.339	4308.93
635.533	4317.12
635.726	4278.21
635.92	4278.21
636.114	4175.81
636.308	4243.39
636.501	4335.55
636.695	4186.05
636.889	4253.63
637.083	4077.51
637.276	4116.42
637.47	4233.15
637.664	4272.06
637.857	4140.99
638.051	4124.61
638.244	4143.04
638.438	4100.03
638.632	4097.99
638.825	3995.59
639.019	3930.05
639.212	4005.83
639.406	4032.45
639.599	3958.72
639.793	3966.92
639.986	3784.65
640.18	3925.96
640.373	3833.8
640.567	3739.59
640.76	3870.66
640.954	3880.9
641.147	3631.05
641.34	3745.73
641.534	3762.12
641.727	3700.68
641.92	3669.96
642.114	3753.93
642.307	3606.47
642.5	3528.65
642.694	3532.75
642.887	3583.95
643.08	3657.67
643.273	3616.71
643.467	3631.05
643.66	3477.45
643.853	3538.89
644.046	3565.51
644.239	3393.48
644.432	3459.02
644.626	3293.13
644.819	3385.29
645.012	3356.62
645.205	3289.04
645.398	3377.1
645.591	3278.8
645.784	3377.1
645.977	3252.17
646.17	3278.8
646.363	3334.09
646.556	3219.41
646.749	3200.98
646.942	3254.22
647.135	3133.39
647.328	3229.65
647.521	3065.81
647.714	3137.49
647.907	2914.26
648.099	3028.95
648.292	3114.96
648.485	2965.46
648.678	3147.73
648.871	3082.19
649.064	3035.09
649.256	2996.18
649.449	3069.91
649.642	2985.94
649.835	2975.7
650.027	2914.26
650.22	2858.96
650.413	2928.6
650.605	2934.74
650.798	2936.79
650.991	2879.44
651.183	2889.68
651.376	2801.62
651.568	2887.64
651.761	2717.65
651.954	2789.33
652.146	2842.58
652.339	2758.61
652.531	2889.68
652.724	2772.95
652.916	2600.92
653.109	2795.48
653.301	2641.88
653.494	2768.85
653.686	2607.06
653.879	2611.16
654.071	2578.39
654.263	2592.73
654.456	2527.19
654.648	2545.63
654.84	2551.77
655.033	2523.1
655.225	2445.27
655.417	2529.24
655.61	2389.98
655.802	2488.28
655.994	2359.26
656.186	2385.88
656.379	2428.89
656.571	2426.84
656.763	2377.69
656.955	2453.47
657.148	2396.12
657.34	2398.17
657.532	2385.88
657.724	2334.68
657.916	2420.7
658.108	2373.6
658.3	2336.73
658.492	2283.49
658.684	2201.57
658.876	2334.68
659.068	2328.54
659.26	2189.28
659.452	2389.98
659.644	2217.95
659.836	2217.95
660.028	2211.81
660.22	2150.37
660.412	2170.85
660.604	2213.85
660.796	2211.81
660.988	2222.05
661.18	2158.56
661.372	2119.65
661.563	2105.31
661.755	2095.07
661.947	2209.76
662.139	2138.08
662.331	2031.58
662.522	2029.54
662.714	2033.63
662.906	1982.43
663.097	1914.85
663.289	1976.29
663.481	2002.91
663.673	2035.68
663.864	1994.72
664.056	2082.78
664.247	1964
664.439	1937.38
664.631	2082.78
664.822	2002.91
665.014	1923.04
665.205	1904.61
665.397	1781.73
665.588	1898.47
665.78	1908.71
665.971	1957.86
666.163	1820.64
666.354	1867.75
666.546	1953.76
666.737	1724.39
666.929	1798.12
667.12	1763.3
667.311	1828.84
667.503	1820.64
667.694	1898.47
667.885	1722.34
668.077	1828.84
668.268	1796.07
668.459	1656.81
668.651	1701.86
668.842	1654.76
669.033	1810.4
669.224	1675.24
669.416	1669.09
669.607	1697.77
669.798	1691.62
669.989	1630.18
670.18	1665
670.371	1669.09
670.563	1681.38
670.754	1619.94
670.945	1685.48
671.136	1677.29
671.327	1634.28
671.518	1800.16
671.709	1619.94
671.9	1728.49
672.091	1560.55
672.282	1556.46
672.473	1642.47
672.664	1552.36
672.855	1626.09
673.046	1591.27
673.237	1578.98
673.428	1548.26
673.619	1509.35
673.809	1599.46
674	1511.4
674.191	1484.78
674.382	1585.13
674.573	1513.45
674.764	1507.31
674.954	1699.81
675.145	1497.07
675.336	1556.46
675.527	1464.3
675.717	1437.67
675.908	1495.02
676.099	1474.54
676.289	1566.7
676.48	1443.82
676.671	1538.02
676.861	1513.45
677.052	1540.07
677.243	1443.82
677.433	1406.95
677.624	1449.96
677.814	1363.95
678.005	1452.01
678.195	1474.54
678.386	1423.34
678.576	1423.34
678.767	1400.81
678.957	1400.81
679.148	1366
679.338	1449.96
679.529	1413.1
679.719	1452.01
679.909	1396.71
680.1	1406.95
680.29	1331.18
680.481	1361.9
680.671	1482.73
680.861	1376.23
681.052	1435.63
681.242	1386.47
681.432	1370.09
681.622	1435.63
681.813	1343.47
682.003	1337.32
682.193	1298.41
682.383	1357.8
682.573	1329.13
682.764	1322.99
682.954	1396.71
683.144	1431.53
683.334	1314.8
683.524	1290.22
683.714	1245.17
683.904	1378.28
684.094	1277.93
684.284	1378.28
684.474	1253.36
684.664	1374.19
684.854	1296.36
685.044	1320.94
685.234	1226.73
685.424	1349.61
685.614	1394.67
685.804	1388.52
685.994	1312.75
686.184	1292.27
686.374	1269.74
686.564	1372.14
686.753	1306.6
686.943	1298.41
687.133	1318.89
687.323	1361.9
687.513	1300.46
687.702	1341.42
687.892	1239.02
688.082	1181.68
688.272	1290.22
688.461	1241.07
688.651	1292.27
688.841	1251.31
689.03	1302.51
689.22	1259.5
689.41	1228.78
689.599	1282.03
689.789	1296.36
689.979	1214.45
690.168	1218.54
690.358	1251.31
690.547	1103.86
690.737	1239.02
690.926	1198.06
691.116	1179.63
691.305	1247.21
691.495	1159.15
691.684	1148.91
691.874	1093.62
692.063	1095.66
692.252	1193.97
692.442	1239.02
692.631	1163.25
692.82	1150.96
693.01	1177.58
693.199	1114.1
693.388	1179.63
693.578	1173.49
693.767	1132.53
693.956	1138.67
694.146	1093.62
694.335	1062.9
694.524	1150.96
694.713	1101.81
694.902	1081.33
695.092	1079.28
695.281	1064.94
695.47	1021.94
695.659	1103.86
695.848	1007.6
696.037	1107.95
696.226	1038.32
696.415	1034.22
696.604	1003.5
696.793	1089.52
696.982	1030.13
697.171	1034.22
697.36	966.64
697.549	1011.7
697.738	1062.9
697.927	1091.57
698.116	1028.08
698.305	1007.6
698.494	972.79
698.683	956.4
698.872	1001.46
699.061	1073.14
699.25	1007.6
699.438	1134.57
699.627	905.2
699.816	1005.55
700.005	954.35
700.193	1052.66
700.382	1062.9
700.571	1093.62
700.76	1011.7
700.948	1003.5
701.137	991.22
701.326	1056.75
701.514	929.78
701.703	962.55
701.892	968.69
702.08	997.36
702.269	960.5
702.457	952.31
702.646	897.01
702.834	946.16
703.023	942.07
703.212	1044.46
703.4	911.35
703.589	970.74
703.777	1001.46
703.965	892.91
704.154	944.11
704.342	925.68
704.531	964.59
704.719	987.12
704.907	925.68
705.096	905.2
705.284	1028.08
705.472	989.17
705.661	935.92
705.849	948.21
706.037	970.74
706.226	956.4
706.414	845.81
706.602	1001.46
706.79	831.48
706.979	993.26
707.167	956.4
707.355	905.2
707.543	993.26
707.731	913.39
707.919	978.93
708.107	882.67
708.296	909.3
708.484	888.82
708.672	892.91
708.86	976.88
709.048	854
709.236	884.72
709.424	935.92
709.612	915.44
709.8	831.48
709.988	917.49
710.176	952.31
710.364	950.26
710.551	931.83
710.739	811
710.927	915.44
711.115	886.77
711.303	913.39
711.491	858.1
711.679	894.96
711.866	960.5
712.054	845.81
712.242	878.58
712.43	860.15
712.617	921.59
712.805	923.63
712.993	921.59
713.181	860.15
713.368	888.82
713.556	866.29
713.744	901.11
713.931	862.19
714.119	788.47
714.306	772.08
714.494	880.63
714.682	778.23
714.869	806.9
715.057	862.19
715.244	854
715.432	862.19
715.619	872.43
715.807	829.43
715.994	851.96
716.182	894.96
716.369	868.34
716.556	884.72
716.744	894.96
716.931	901.11
717.119	802.8
717.306	878.58
717.493	837.62
717.681	819.19
717.868	884.72
718.055	878.58
718.242	757.75
718.43	866.29
718.617	903.15
718.804	823.28
718.991	880.63
719.179	823.28
719.366	741.36
719.553	874.48
719.74	841.72
719.927	821.24
720.114	854
720.301	864.24
720.488	817.14
720.676	858.1
720.863	890.87
721.05	806.9
721.237	886.77
721.424	823.28
721.611	864.24
721.798	854
721.985	956.4
722.172	849.91
722.358	817.14
722.545	907.25
722.732	839.67
722.919	815.09
723.106	823.28
723.293	817.14
723.48	831.48
723.667	851.96
723.853	796.66
724.04	765.94
724.227	813.04
724.414	788.47
724.6	839.67
724.787	786.42
724.974	767.99
725.161	845.81
725.347	860.15
725.534	854
725.72	911.35
725.907	798.71
726.094	747.51
726.28	802.8
726.467	796.66
726.653	763.89
726.84	901.11
727.027	909.3
727.213	833.52
727.4	886.77
727.586	868.34
727.773	772.08
727.959	786.42
728.145	825.33
728.332	712.69
728.518	829.43
728.705	825.33
728.891	823.28
729.077	765.94
729.264	860.15
729.45	804.85
729.636	788.47
729.823	927.73
730.009	860.15
730.195	831.48
730.382	827.38
730.568	933.87
730.754	864.24
730.94	856.05
731.126	817.14
731.313	815.09
731.499	808.95
731.685	796.66
731.871	802.8
732.057	899.06
732.243	825.33
732.429	839.67
732.615	804.85
732.801	970.74
732.987	882.67
733.173	774.13
733.359	907.25
733.545	798.71
733.731	800.76
733.917	847.86
734.103	823.28
734.289	833.52
734.475	800.76
734.661	903.15
734.847	819.19
735.033	849.91
735.219	847.86
735.404	925.68
735.59	854
735.776	767.99
735.962	831.48
736.148	813.04
736.333	829.43
736.519	835.57
736.705	813.04
736.89	811
737.076	839.67
737.262	755.7
737.447	808.95
737.633	856.05
737.819	897.01
738.004	815.09
738.19	837.62
738.375	841.72
738.561	794.61
738.747	737.27
738.932	841.72
739.118	823.28
739.303	835.57
739.489	808.95
739.674	774.13
739.859	831.48
740.045	796.66
740.23	913.39
740.416	829.43
740.601	813.04
740.786	778.23
740.972	708.6
741.157	800.76
741.342	878.58
741.528	806.9
741.713	755.7
741.898	841.72
742.084	847.86
742.269	772.08
742.454	765.94
742.639	749.56
742.824	847.86
743.01	847.86
743.195	724.98
743.38	821.24
743.565	817.14
743.75	763.89
743.935	831.48
744.12	739.32
744.305	780.28
744.49	776.18
744.675	890.87
744.86	761.84
745.045	765.94
745.23	677.88
745.415	761.84
745.6	780.28
745.785	751.6
745.97	778.23
746.155	720.88
746.34	757.75
746.525	757.75
746.71	727.03
746.895	698.36
747.079	708.6
747.264	731.12
747.449	663.54
747.634	784.37
747.819	688.12
748.003	696.31
748.188	724.98
748.373	731.12
748.557	606.2
748.742	663.54
748.927	704.5
749.111	655.35
749.296	624.63
749.481	684.02
749.665	686.07
749.85	661.49
750.034	667.64
750.219	657.4
750.404	573.43
750.588	606.2
750.773	638.97
750.957	641.01
751.141	671.73
751.326	675.83
751.51	614.39
751.695	620.53
751.879	585.72
752.064	575.48
752.248	657.4
752.432	741.36
752.617	659.45
752.801	673.78
752.985	593.91
753.17	530.42
753.354	608.25
753.538	675.83
753.722	616.44
753.907	600.05
754.091	618.49
754.275	608.25
754.459	495.61
754.643	559.1
754.828	563.19
755.012	557.05
755.196	593.91
755.38	649.21
755.564	624.63
755.748	638.97
755.932	542.71
756.116	561.14
756.3	544.76
756.484	624.63
756.668	565.24
756.852	475.13
757.036	536.57
757.22	587.77
757.404	520.18
757.588	561.14
757.772	518.14
757.956	544.76
758.14	542.71
758.323	526.33
758.507	507.9
758.691	559.1
758.875	481.27
759.059	557.05
759.242	501.75
759.426	559.1
759.61	479.22
759.794	487.42
759.977	511.99
760.161	587.77
760.345	528.38
760.528	428.03
760.712	489.46
760.895	503.8
761.079	489.46
761.263	491.51
761.446	534.52
761.63	550.9
761.813	430.07
761.997	446.46
762.18	548.86
762.364	477.18
762.547	475.13
762.731	452.6
762.914	471.03
763.098	477.18
763.281	460.79
763.464	425.98
763.648	440.31
763.831	460.79
764.015	387.07
764.198	438.27
764.381	346.11
764.564	407.55
764.748	483.32
764.931	468.98
765.114	395.26
765.297	452.6
765.481	397.31
765.664	477.18
765.847	475.13
766.03	430.07
766.213	391.16
766.397	370.68
766.58	368.63
766.763	405.5
766.946	346.11
767.129	405.5
767.312	460.79
767.495	487.42
767.678	413.69
767.861	378.87
768.044	419.83
768.227	430.07
768.41	380.92
768.593	456.7
768.776	378.87
768.959	360.44
769.142	413.69
769.324	389.11
769.507	403.45
769.69	454.65
769.873	378.87
770.056	436.22
770.239	415.74
770.421	438.27
770.604	362.49
770.787	350.2
770.97	425.98
771.152	356.35
771.335	436.22
771.518	419.83
771.7	303.1
771.883	428.03
772.066	362.49
772.248	335.87
772.431	458.75
772.613	354.3
772.796	372.73
772.978	313.34
773.161	378.87
773.343	376.83
773.526	407.55
773.708	301.05
773.891	319.48
774.073	366.59
774.256	368.63
774.438	378.87
774.621	360.44
774.803	342.01
774.985	329.72
775.168	370.68
775.35	321.53
775.532	331.77
775.715	354.3
775.897	331.77
776.079	270.33
776.261	305.15
776.444	325.63
776.626	321.53
776.808	303.1
776.99	321.53
777.173	268.28
777.355	331.77
777.537	251.9
777.719	321.53
777.901	311.29
778.083	268.28
778.265	272.38
778.447	278.52
778.629	268.28
778.811	296.96
778.993	247.8
779.175	282.62
779.357	243.71
779.539	348.15
779.721	299
779.903	301.05
780.085	219.13
780.267	247.8
780.449	247.8
780.631	344.06
780.812	307.2
780.994	210.94
781.176	178.17
781.358	253.95
781.54	237.56
781.721	299
781.903	282.62
782.085	266.24
782.267	180.22
782.448	258.04
782.63	239.61
782.812	229.37
782.993	309.24
783.175	260.09
783.357	210.94
783.538	190.46
783.72	210.94
783.901	202.75
784.083	180.22
784.264	239.61
784.446	196.61
784.627	186.37
784.809	176.13
784.99	286.72
785.172	204.8
785.353	239.61
785.535	241.66
785.716	227.32
785.897	104.45
786.079	190.46
786.26	71.68
786.441	241.66
786.623	184.32
786.804	190.46
786.985	258.04
787.167	268.28
787.348	161.79
787.529	186.37
787.71	188.41
787.891	215.04
788.073	172.03
788.254	149.5
788.435	180.22
788.616	229.37
788.797	188.41
788.978	215.04
789.159	169.98
789.34	178.17
789.522	126.97
789.703	135.17
789.884	227.32
790.065	157.69
790.246	190.46
790.427	126.97
790.607	92.16
790.788	167.93
790.969	141.31
791.15	126.97
791.331	149.5
791.512	182.27
791.693	225.28
791.874	184.32
792.054	249.85
792.235	172.03
792.416	172.03
792.597	92.16
792.778	192.51
792.958	75.77
793.139	114.69
793.32	120.83
793.5	90.11
793.681	174.08
793.862	204.8
794.042	139.26
794.223	114.69
794.404	133.12
794.584	147.45
794.765	190.46
794.945	190.46
795.126	155.65
795.306	155.65
795.487	169.98
795.667	147.45
795.848	206.84
796.028	135.17
796.209	192.51
796.389	81.92
796.57	161.79
796.75	110.59
796.93	184.32
797.111	172.03
797.291	149.5
797.471	73.73
797.652	155.65
797.832	108.54
798.012	169.98
798.192	102.4
798.373	131.07
798.553	122.88
798.733	180.22
798.913	112.64
799.093	131.07
799.274	61.44
799.454	141.31
799.634	102.4
799.814	151.55
799.994	14.34
800.174	124.93
800.354	75.77
800.534	59.39
800.714	100.35
800.894	196.61
801.074	45.06
801.254	135.17
801.434	43.01
801.614	96.25
801.794	75.77
801.974	317.44
802.154	43.01
802.334	59.39
802.514	63.49
802.693	174.08
802.873	122.88
803.053	120.83
803.233	92.16
803.413	114.69
803.592	96.25
803.772	120.83
803.952	120.83
804.131	75.77
804.311	108.54
804.491	163.84
804.67	94.21
804.85	53.25
805.03	98.3
805.209	110.59
805.389	49.15
805.568	122.88
805.748	65.54
805.928	100.35
806.107	104.45
806.287	116.73
806.466	126.97
806.646	83.97
806.825	110.59
807.004	79.87
807.184	143.36
807.363	159.74
807.543	67.58
807.722	98.3
807.901	96.25
808.081	96.25
808.26	32.77
808.439	102.4
808.619	47.1
808.798	139.26
808.977	114.69
809.156	116.73
809.336	88.06
809.515	110.59
809.694	88.06
809.873	90.11
810.052	100.35
810.231	120.83
810.411	100.35
810.59	100.35
810.769	57.34
810.948	36.86
811.127	94.21
811.306	110.59
811.485	73.73
811.664	135.17
811.843	114.69
812.022	116.73
812.201	38.91
812.38	126.97
812.559	22.53
812.737	61.44
812.916	0
813.095	145.41
813.274	63.49
813.453	86.01
813.632	49.15
813.811	67.58
813.989	106.49
814.168	79.87
814.347	51.2
814.526	98.3
814.704	81.92
814.883	169.98
815.062	12.29
815.24	67.58
815.419	57.34
815.598	129.02
815.776	53.25
815.955	94.21
816.133	-22.53
816.312	92.16
816.49	26.62
816.669	104.45
816.847	16.38
817.026	120.83
817.204	22.53
817.383	79.87
817.561	61.44
817.74	53.25
817.918	34.82
818.097	100.35
818.275	49.15
818.453	30.72
818.632	126.97
818.81	14.34
818.988	38.91
819.167	88.06
819.345	-8.19
819.523	-14.34
819.701	75.77
819.879	53.25
820.058	38.91
820.236	71.68
820.414	51.2
820.592	26.62
820.77	67.58
820.948	98.3
821.127	-4.1
821.305	34.82
821.483	49.15
821.661	65.54
821.839	67.58
822.017	45.06
822.195	108.54
822.373	36.86
822.551	63.49
822.729	32.77
822.907	14.34
823.085	51.2
823.262	161.79
823.44	75.77
823.618	22.53
823.796	43.01
823.974	71.68
824.152	71.68
824.329	-4.1
824.507	53.25
824.685	20.48
824.863	43.01
825.04	110.59
825.218	20.48
825.396	30.72
825.574	51.2
825.751	28.67
825.929	94.21
826.107	73.73
826.284	57.34
826.462	55.3
826.639	65.54
826.817	83.97
826.994	-4.1
827.172	-16.38
827.349	77.82
827.527	20.48
827.704	61.44
827.882	20.48
828.059	24.58
828.237	61.44
828.414	-4.1
828.591	59.39
828.769	69.63
828.946	-59.39
829.124	34.82
829.301	10.24
829.478	22.53
829.655	-10.24
829.833	38.91
830.01	-55.3
830.187	102.4
830.364	2.05
830.542	90.11
830.719	96.25
830.896	24.58
831.073	28.67
831.25	-28.67
831.427	90.11
831.604	106.49
831.782	71.68
831.959	28.67
832.136	30.72
832.313	69.63
832.49	36.86
832.667	100.35
832.844	32.77
833.021	65.54
833.198	73.73
833.374	81.92
833.551	61.44
833.728	-8.19
833.905	-43.01
834.082	104.45
834.259	38.91
834.436	92.16
834.612	47.1
834.789	86.01
834.966	4.1
835.143	45.06
835.319	-12.29
835.496	59.39
835.673	59.39
835.85	18.43
836.026	65.54
836.203	-53.25
836.38	30.72
836.556	18.43
836.733	-20.48
836.909	-14.34
837.086	83.97
837.262	59.39
837.439	10.24
837.616	10.24
837.792	59.39
837.968	96.25
838.145	2.05
838.321	12.29
838.498	-2.05
838.674	22.53
838.851	2.05
839.027	36.86
839.203	16.38
839.38	61.44
839.556	-14.34
839.732	49.15
839.909	10.24
840.085	34.82
840.261	-2.05
840.437	96.25
840.614	2.05
840.79	73.73
840.966	12.29
841.142	34.82
841.318	67.58
841.494	61.44
841.671	71.68
841.847	77.82
842.023	71.68
842.199	81.92
842.375	-22.53
842.551	32.77
842.727	-34.82
842.903	98.3
843.079	-4.1
843.255	77.82
843.431	43.01
843.607	75.77
843.783	-26.62
843.959	77.82
844.134	22.53
844.31	100.35
844.486	-16.38
844.662	16.38
844.838	-12.29
845.013	38.91
845.189	55.3
845.365	51.2
845.541	12.29
845.716	38.91
845.892	-18.43
846.068	28.67
846.244	32.77
846.419	22.53
846.595	18.43
846.77	96.25
846.946	106.49
847.122	-38.91
847.297	43.01
847.473	47.1
847.648	4.1
847.824	-32.77
847.999	-18.43
848.175	129.02
848.35	2.05
848.526	22.53
848.701	-4.1
848.876	45.06
849.052	47.1
849.227	10.24
849.403	38.91
849.578	65.54
849.753	20.48
849.929	79.87
850.104	10.24
850.279	53.25
850.454	36.86
850.63	30.72
850.805	-20.48
850.98	49.15
851.155	-8.19
851.33	34.82
851.505	6.14
851.681	96.25
851.856	6.14
852.031	43.01
852.206	40.96
852.381	94.21
852.556	43.01
852.731	24.58
852.906	-4.1
853.081	0
853.256	6.14
853.431	-57.34
853.606	-20.48
853.781	40.96
853.956	-51.2
854.131	81.92
854.305	-34.82
854.48	-71.68
854.655	-8.19
854.83	45.06
855.005	83.97
855.18	34.82
855.354	43.01
855.529	77.82
855.704	-2.05
855.879	12.29
856.053	-30.72
856.228	4.1
856.403	36.86
856.577	26.62
856.752	10.24
856.926	24.58
857.101	43.01
857.276	-14.34
857.45	10.24
857.625	63.49
857.799	34.82
857.974	57.34
858.148	16.38
858.323	0
858.497	-12.29
858.672	28.67
858.846	16.38
859.02	-6.14
859.195	-63.49
859.369	8.19
859.543	-4.1
859.718	65.54
859.892	47.1
860.066	-12.29
860.241	30.72
860.415	-4.1
860.589	-2.05
860.763	67.58
860.938	65.54
861.112	32.77
861.286	4.1
861.46	43.01
861.634	34.82
861.808	-22.53
861.982	10.24
862.157	61.44
862.331	-30.72
862.505	8.19
862.679	12.29
862.853	59.39
863.027	-49.15
863.201	77.82
863.375	-32.77
863.549	83.97
863.722	28.67
863.896	18.43
864.07	34.82
864.244	55.3
864.418	30.72
864.592	-12.29
864.766	-22.53
864.939	38.91
865.113	43.01
865.287	67.58
865.461	18.43
865.634	-32.77
865.808	61.44
865.982	6.14
866.156	-6.14
866.329	-22.53
866.503	0
866.676	36.86
866.85	-28.67
867.024	-59.39
867.197	-14.34
867.371	55.3
867.544	18.43
867.718	26.62
867.891	30.72
868.065	28.67
868.238	-10.24
868.412	-6.14
868.585	-38.91
868.759	-24.58
868.932	12.29
869.105	18.43
869.279	-10.24
869.452	32.77
869.625	-45.06
869.799	86.01
869.972	43.01
870.145	-32.77
870.319	8.19
870.492	36.86
870.665	18.43
870.838	-34.82
871.011	-30.72
871.185	69.63
871.358	-53.25
871.531	81.92
871.704	-45.06
871.877	77.82
872.05	-12.29
872.223	0
872.396	61.44
872.569	24.58
872.742	36.86
872.915	-28.67
873.088	12.29
873.261	-10.24
873.434	8.19
873.607	94.21
873.78	59.39
873.953	102.4
874.126	32.77
874.299	30.72
874.471	-26.62
874.644	20.48
874.817	51.2
874.99	40.96
875.163	-43.01
875.335	18.43
875.508	10.24
875.681	40.96
875.853	20.48
876.026	59.39
876.199	2.05
876.371	6.14
876.544	-20.48
876.717	30.72
876.889	40.96
877.062	-10.24
877.234	-53.25
877.407	30.72
877.579	32.77
877.752	86.01
877.924	73.73
878.097	0
878.269	24.58
878.442	67.58
878.614	12.29
878.786	38.91
878.959	-18.43
879.131	28.67
879.303	-4.1
879.476	26.62
879.648	-2.05
879.82	61.44
879.993	75.77
880.165	0
880.337	2.05
880.509	34.82
880.681	-51.2
880.854	30.72
881.026	34.82
881.198	18.43
881.37	-4.1
881.542	67.58
881.714	6.14
881.886	22.53
882.058	-43.01
882.23	16.38
882.402	28.67
882.574	-22.53
882.746	16.38
882.918	-38.91
883.09	63.49
883.262	4.1
883.434	-38.91
883.606	61.44
883.778	16.38
883.95	20.48
884.122	-2.05
884.293	-10.24
884.465	71.68
884.637	16.38
884.809	-8.19
884.98	22.53
885.152	14.34
885.324	6.14
885.496	51.2
885.667	34.82
885.839	2.05
886.011	75.77
886.182	-14.34
886.354	61.44
886.525	57.34
886.697	-26.62
886.869	24.58
887.04	45.06
887.212	-28.67
887.383	24.58
887.555	-24.58
887.726	32.77
887.897	-79.87
888.069	10.24
888.24	28.67
888.412	30.72
888.583	43.01
888.754	14.34
888.926	-34.82
889.097	45.06
889.268	-8.19
889.44	10.24
889.611	-45.06
889.782	-30.72
889.953	-28.67
890.125	-12.29
890.296	12.29
890.467	22.53
890.638	49.15
890.809	2.05
890.98	-6.14
891.151	100.35
891.323	18.43
891.494	34.82
891.665	-6.14
891.836	16.38
892.007	-18.43
892.178	10.24
892.349	-49.15
892.52	2.05
892.691	-43.01
892.862	-30.72
893.032	-6.14
893.203	2.05
893.374	8.19
893.545	26.62
893.716	26.62
893.887	110.59
894.057	-40.96
894.228	34.82
894.399	-20.48
894.57	30.72
894.74	65.54
894.911	73.73
895.082	-22.53
895.253	-28.67
895.423	-59.39
895.594	47.1
895.764	28.67
895.935	-47.1
896.106	18.43
896.276	30.72
896.447	-24.58
896.617	-61.44
896.788	0
896.958	8.19
897.129	79.87
897.299	-55.3
897.47	4.1
897.64	30.72
897.81	6.14
897.981	8.19
898.151	-24.58
898.322	30.72
898.492	-2.05
898.662	-49.15
898.832	18.43
899.003	16.38
899.173	-18.43
899.343	75.77
899.513	-8.19
