Data from USB4F104151__84__12-54-48-278.txt Node

Date: Fri Mar 14 12:54:48 EDT 2025
User: louis
Spectrometer: USB4F10415
Trigger mode: 4
Integration Time (sec): 1.000000E-2
Scans to average: 1
Electric dark correction enabled: true
Nonlinearity correction enabled: false
Boxcar width: 0
XAxis mode: Wavelengths
Number of Pixels in Spectrum: 3648
>>>>>Begin Spectral Data<<<<<
178.204	-75.77
178.424	-75.77
178.644	-75.77
178.864	-47.1
179.084	-26.62
179.304	40.96
179.524	-38.91
179.744	8.19
179.964	-92.16
180.184	-28.67
180.404	55.3
180.624	-28.67
180.844	-32.77
181.064	10.24
181.283	2.05
181.503	47.1
181.723	57.34
181.943	40.96
182.163	0
182.383	-53.25
182.602	-30.72
182.822	10.24
183.042	67.58
183.262	-4.1
183.482	20.48
183.701	-2.05
183.921	-18.43
184.141	-12.29
184.361	-6.14
184.58	-32.77
184.8	-12.29
185.02	4.1
185.239	-26.62
185.459	28.67
185.679	8.19
185.898	30.72
186.118	-16.38
186.338	-63.49
186.557	59.39
186.777	12.29
186.997	-16.38
187.216	-43.01
187.436	-53.25
187.655	53.25
187.875	10.24
188.095	-18.43
188.314	18.43
188.534	8.19
188.753	-28.67
188.973	-20.48
189.192	22.53
189.412	22.53
189.631	40.96
189.851	-69.63
190.07	63.49
190.29	-4.1
190.509	24.58
190.729	10.24
190.948	-30.72
191.168	-40.96
191.387	-16.38
191.607	-6.14
191.826	-77.82
192.045	63.49
192.265	34.82
192.484	-38.91
192.704	-24.58
192.923	32.77
193.142	75.77
193.362	28.67
193.581	-18.43
193.8	20.48
194.02	94.21
194.239	-57.34
194.458	-30.72
194.678	8.19
194.897	-40.96
195.116	-47.1
195.335	-16.38
195.555	-59.39
195.774	51.2
195.993	30.72
196.212	10.24
196.432	30.72
196.651	-67.58
196.87	-36.86
197.089	-14.34
197.308	8.19
197.528	34.82
197.747	-22.53
197.966	-14.34
198.185	49.15
198.404	-20.48
198.623	8.19
198.842	-4.1
199.062	36.86
199.281	10.24
199.5	43.01
199.719	-6.14
199.938	4.1
200.157	61.44
200.376	-16.38
200.595	24.58
200.814	12.29
201.033	-22.53
201.252	30.72
201.471	22.53
201.69	-4.1
201.909	6.14
202.128	24.58
202.347	-8.19
202.566	0
202.785	20.48
203.004	-10.24
203.223	45.06
203.442	65.54
203.661	10.24
203.879	-40.96
204.098	59.39
204.317	-24.58
204.536	79.87
204.755	40.96
204.974	22.53
205.193	26.62
205.411	4.1
205.63	32.77
205.849	8.19
206.068	-49.15
206.287	-12.29
206.505	-8.19
206.724	8.19
206.943	6.14
207.162	-14.34
207.381	-43.01
207.599	4.1
207.818	63.49
208.037	8.19
208.255	28.67
208.474	81.92
208.693	-22.53
208.911	-16.38
209.13	-10.24
209.349	83.97
209.567	32.77
209.786	55.3
210.005	45.06
210.223	12.29
210.442	-16.38
210.661	20.48
210.879	-10.24
211.098	22.53
211.316	-24.58
211.535	34.82
211.753	-63.49
211.972	-59.39
212.191	-51.2
212.409	4.1
212.628	26.62
212.846	51.2
213.065	-2.05
213.283	8.19
213.502	-2.05
213.72	-24.58
213.938	-6.14
214.157	34.82
214.375	10.24
214.594	6.14
214.812	-24.58
215.031	-22.53
215.249	-67.58
215.467	51.2
215.686	32.77
215.904	-12.29
216.122	28.67
216.341	-16.38
216.559	0
216.778	-4.1
216.996	-32.77
217.214	63.49
217.432	4.1
217.651	8.19
217.869	-88.06
218.087	45.06
218.306	-24.58
218.524	-92.16
218.742	-24.58
218.96	20.48
219.179	14.34
219.397	43.01
219.615	36.86
219.833	-61.44
220.051	6.14
220.27	26.62
220.488	-79.87
220.706	57.34
220.924	38.91
221.142	63.49
221.36	28.67
221.578	51.2
221.796	47.1
222.015	-28.67
222.233	30.72
222.451	30.72
222.669	28.67
222.887	18.43
223.105	-57.34
223.323	-36.86
223.541	-94.21
223.759	6.14
223.977	-63.49
224.195	-28.67
224.413	2.05
224.631	32.77
224.849	12.29
225.067	106.49
225.285	36.86
225.503	-2.05
225.721	-4.1
225.939	8.19
226.157	53.25
226.375	69.63
226.592	30.72
226.81	-28.67
227.028	-83.97
227.246	-4.1
227.464	36.86
227.682	81.92
227.9	32.77
228.117	28.67
228.335	30.72
228.553	-38.91
228.771	2.05
228.989	-10.24
229.206	4.1
229.424	-47.1
229.642	-14.34
229.86	-49.15
230.077	12.29
230.295	-16.38
230.513	24.58
230.731	-28.67
230.948	2.05
231.166	-4.1
231.384	-30.72
231.601	-24.58
231.819	-10.24
232.037	59.39
232.254	-61.44
232.472	-51.2
232.689	67.58
232.907	-2.05
233.125	-10.24
233.342	4.1
233.56	-8.19
233.777	22.53
233.995	47.1
234.213	30.72
234.43	79.87
234.648	0
234.865	-6.14
235.083	-16.38
235.3	57.34
235.518	63.49
235.735	12.29
235.953	-24.58
236.17	-2.05
236.388	10.24
236.605	73.73
236.822	-26.62
237.04	-26.62
237.257	-24.58
237.475	-57.34
237.692	-61.44
237.909	-59.39
238.127	36.86
238.344	79.87
238.562	-26.62
238.779	36.86
238.996	30.72
239.214	-6.14
239.431	0
239.648	22.53
239.865	-38.91
240.083	-6.14
240.3	77.82
240.517	-63.49
240.735	10.24
240.952	88.06
241.169	-32.77
241.386	-63.49
241.603	-59.39
241.821	-40.96
242.038	-69.63
242.255	36.86
242.472	-4.1
242.689	-18.43
242.907	32.77
243.124	24.58
243.341	-2.05
243.558	65.54
243.775	-55.3
243.992	-6.14
244.209	38.91
244.426	61.44
244.643	12.29
244.86	22.53
245.078	53.25
245.295	-36.86
245.512	16.38
245.729	-30.72
245.946	-10.24
246.163	-36.86
246.38	86.01
246.597	10.24
246.814	24.58
247.031	-49.15
247.248	-32.77
247.464	-40.96
247.681	73.73
247.898	45.06
248.115	67.58
248.332	-26.62
248.549	28.67
248.766	2.05
248.983	12.29
249.2	-10.24
249.417	32.77
249.633	-65.53
249.85	135.17
250.067	36.86
250.284	-24.58
250.501	10.24
250.717	-14.34
250.934	2.05
251.151	32.77
251.368	-47.1
251.585	-47.1
251.801	-12.29
252.018	-10.24
252.235	38.91
252.451	10.24
252.668	10.24
252.885	61.44
253.102	26.62
253.318	-4.1
253.535	-59.39
253.752	-43.01
253.968	-16.38
254.185	-34.82
254.401	67.58
254.618	67.58
254.835	-22.53
255.051	22.53
255.268	36.86
255.484	45.06
255.701	20.48
255.917	-24.58
256.134	10.24
256.351	57.34
256.567	-57.34
256.784	28.67
257	18.43
257.217	22.53
257.433	20.48
257.65	4.1
257.866	20.48
258.082	30.72
258.299	16.38
258.515	-34.82
258.732	40.96
258.948	32.77
259.165	36.86
259.381	-30.72
259.597	-22.53
259.814	61.44
260.03	-47.1
260.246	-4.1
260.463	12.29
260.679	43.01
260.895	-4.1
261.112	-8.19
261.328	36.86
261.544	8.19
261.761	-8.19
261.977	-8.19
262.193	-38.91
262.409	-8.19
262.626	2.05
262.842	-20.48
263.058	2.05
263.274	61.44
263.49	2.05
263.707	-6.14
263.923	8.19
264.139	-61.44
264.355	12.29
264.571	36.86
264.787	-10.24
265.004	-24.58
265.22	-28.67
265.436	-10.24
265.652	18.43
265.868	38.91
266.084	-47.1
266.3	40.96
266.516	100.35
266.732	-16.38
266.948	59.39
267.164	59.39
267.38	55.3
267.596	-43.01
267.812	6.14
268.028	45.06
268.244	-34.82
268.46	36.86
268.676	-86.01
268.892	-43.01
269.108	77.82
269.324	26.62
269.54	-12.29
269.756	-61.44
269.972	10.24
270.188	55.3
270.403	-40.96
270.619	22.53
270.835	0
271.051	-8.19
271.267	14.34
271.483	6.14
271.698	-8.19
271.914	26.62
272.13	-36.86
272.346	-49.15
272.562	71.68
272.777	92.16
272.993	-22.53
273.209	0
273.425	-6.14
273.64	4.1
273.856	65.54
274.072	2.05
274.287	77.82
274.503	106.49
274.719	59.39
274.934	-12.29
275.15	-14.34
275.366	-6.14
275.581	-8.19
275.797	36.86
276.012	45.06
276.228	16.38
276.444	30.72
276.659	71.68
276.875	-65.53
277.09	57.34
277.306	-6.14
277.521	18.43
277.737	47.1
277.952	4.1
278.168	71.68
278.383	55.3
278.599	-45.06
278.814	16.38
279.03	8.19
279.245	45.06
279.461	20.48
279.676	55.3
279.892	-18.43
280.107	51.2
280.322	-32.77
280.538	20.48
280.753	-26.62
280.969	69.63
281.184	51.2
281.399	24.58
281.615	-43.01
281.83	10.24
282.045	28.67
282.26	-2.05
282.476	-4.1
282.691	10.24
282.906	-8.19
283.122	-59.39
283.337	49.15
283.552	2.05
283.767	-20.48
283.983	-22.53
284.198	12.29
284.413	43.01
284.628	-30.72
284.843	86.01
285.058	12.29
285.274	0
285.489	-2.05
285.704	-38.91
285.919	0
286.134	-75.77
286.349	-8.19
286.564	-2.05
286.779	30.72
286.995	-20.48
287.21	0
287.425	36.86
287.64	55.3
287.855	75.77
288.07	-96.25
288.285	14.34
288.5	6.14
288.715	-26.62
288.93	14.34
289.145	12.29
289.36	71.68
289.575	28.67
289.79	24.58
290.004	-32.77
290.219	4.1
290.434	4.1
290.649	59.39
290.864	2.05
291.079	14.34
291.294	45.06
291.509	-30.72
291.724	24.58
291.938	-2.05
292.153	96.25
292.368	-40.96
292.583	-12.29
292.798	20.48
293.012	-24.58
293.227	-10.24
293.442	77.82
293.657	8.19
293.871	6.14
294.086	-14.34
294.301	-24.58
294.516	-16.38
294.73	65.54
294.945	38.91
295.16	-53.25
295.374	40.96
295.589	-2.05
295.804	20.48
296.018	-18.43
296.233	2.05
296.447	-8.19
296.662	-40.96
296.877	-47.1
297.091	-22.53
297.306	4.1
297.52	51.2
297.735	79.87
297.949	32.77
298.164	-18.43
298.378	-12.29
298.593	-4.1
298.807	57.34
299.022	81.92
299.236	20.48
299.451	61.44
299.665	12.29
299.88	69.63
300.094	34.82
300.309	26.62
300.523	10.24
300.737	30.72
300.952	53.25
301.166	-24.58
301.381	-2.05
301.595	18.43
301.809	20.48
302.024	-49.15
302.238	32.77
302.452	8.19
302.667	-79.87
302.881	14.34
303.095	24.58
303.309	-12.29
303.524	24.58
303.738	-6.14
303.952	-4.1
304.166	-24.58
304.381	-57.34
304.595	38.91
304.809	18.43
305.023	4.1
305.237	47.1
305.452	61.44
305.666	20.48
305.88	16.38
306.094	-2.05
306.308	51.2
306.522	-22.53
306.736	38.91
306.95	-2.05
307.164	63.49
307.379	47.1
307.593	26.62
307.807	-24.58
308.021	32.77
308.235	-40.96
308.449	38.91
308.663	6.14
308.877	0
309.091	-10.24
309.305	-12.29
309.519	-59.39
309.733	-59.39
309.947	-20.48
310.161	-10.24
310.374	-47.1
310.588	61.44
310.802	-49.15
311.016	-38.91
311.23	26.62
311.444	12.29
311.658	-4.1
311.872	28.67
312.085	6.14
312.299	36.86
312.513	4.1
312.727	73.73
312.941	32.77
313.154	-18.43
313.368	47.1
313.582	65.54
313.796	2.05
314.009	-36.86
314.223	-18.43
314.437	28.67
314.651	-53.25
314.864	53.25
315.078	-55.3
315.292	10.24
315.505	8.19
315.719	4.1
315.933	-10.24
316.146	-18.43
316.36	-10.24
316.573	-20.48
316.787	2.05
317.001	-18.43
317.214	32.77
317.428	0
317.641	-38.91
317.855	-45.06
318.068	34.82
318.282	-2.05
318.495	4.1
318.709	-36.86
318.922	-16.38
319.136	94.21
319.349	-12.29
319.563	20.48
319.776	-55.3
319.99	-40.96
320.203	67.58
320.417	22.53
320.63	63.49
320.843	131.07
321.057	10.24
321.27	34.82
321.483	20.48
321.697	12.29
321.91	6.14
322.124	12.29
322.337	36.86
322.55	-28.67
322.763	79.87
322.977	-30.72
323.19	40.96
323.403	-47.1
323.617	26.62
323.83	-53.25
324.043	-30.72
324.256	4.1
324.469	28.67
324.683	0
324.896	4.1
325.109	28.67
325.322	-18.43
325.535	-47.1
325.748	-16.38
325.962	32.77
326.175	-36.86
326.388	100.35
326.601	10.24
326.814	47.1
327.027	-24.58
327.24	22.53
327.453	-10.24
327.666	14.34
327.879	-10.24
328.092	-34.82
328.305	10.24
328.518	73.73
328.731	28.67
328.944	22.53
329.157	-4.1
329.37	8.19
329.583	-67.58
329.796	36.86
330.009	18.43
330.222	32.77
330.435	8.19
330.648	6.14
330.861	-2.05
331.073	32.77
331.286	86.01
331.499	34.82
331.712	4.1
331.925	10.24
332.138	40.96
332.35	10.24
332.563	57.34
332.776	28.67
332.989	30.72
333.202	55.3
333.414	28.67
333.627	36.86
333.84	28.67
334.053	55.3
334.265	24.58
334.478	-18.43
334.691	-51.2
334.903	-32.77
335.116	-38.91
335.329	53.25
335.541	14.34
335.754	30.72
335.966	79.87
336.179	24.58
336.392	-2.05
336.604	32.77
336.817	-6.14
337.029	77.82
337.242	-24.58
337.454	-4.1
337.667	-10.24
337.88	-16.38
338.092	-18.43
338.305	12.29
338.517	4.1
338.729	4.1
338.942	-16.38
339.154	36.86
339.367	-8.19
339.579	59.39
339.792	40.96
340.004	71.68
340.217	8.19
340.429	6.14
340.641	-22.53
340.854	20.48
341.066	14.34
341.278	36.86
341.491	112.64
341.703	61.44
341.915	12.29
342.128	10.24
342.34	-49.15
342.552	55.3
342.764	18.43
342.977	14.34
343.189	77.82
343.401	-12.29
343.613	-45.06
343.826	18.43
344.038	-20.48
344.25	32.77
344.462	-63.49
344.674	16.38
344.886	-30.72
345.099	-43.01
345.311	-2.05
345.523	14.34
345.735	-16.38
345.947	12.29
346.159	57.34
346.371	2.05
346.583	28.67
346.795	12.29
347.007	22.53
347.219	38.91
347.431	26.62
347.643	45.06
347.855	22.53
348.067	69.63
348.279	51.2
348.491	-30.72
348.703	-4.1
348.915	-45.06
349.127	28.67
349.339	55.3
349.551	-51.2
349.763	4.1
349.975	47.1
350.187	40.96
350.399	88.06
350.61	73.73
350.822	69.63
351.034	81.92
351.246	-30.72
351.458	-20.48
351.669	22.53
351.881	24.58
352.093	32.77
352.305	26.62
352.517	34.82
352.728	63.49
352.94	4.1
353.152	6.14
353.363	24.58
353.575	-6.14
353.787	-10.24
353.999	-2.05
354.21	-28.67
354.422	10.24
354.633	-53.25
354.845	73.73
355.057	-61.44
355.268	-10.24
355.48	94.21
355.692	-24.58
355.903	10.24
356.115	-45.06
356.326	12.29
356.538	-20.48
356.749	26.62
356.961	47.1
357.172	-38.91
357.384	36.86
357.595	16.38
357.807	40.96
358.018	73.73
358.23	-30.72
358.441	43.01
358.653	32.77
358.864	-14.34
359.075	-14.34
359.287	18.43
359.498	75.77
359.709	-22.53
359.921	71.68
360.132	6.14
360.344	4.1
360.555	2.05
360.766	61.44
360.977	-12.29
361.189	-2.05
361.4	-30.72
361.611	67.58
361.823	2.05
362.034	-24.58
362.245	6.14
362.456	12.29
362.667	10.24
362.879	10.24
363.09	28.67
363.301	81.92
363.512	18.43
363.723	77.82
363.935	51.2
364.146	24.58
364.357	34.82
364.568	26.62
364.779	-18.43
364.99	61.44
365.201	8.19
365.412	-36.86
365.623	10.24
365.834	-24.58
366.045	-12.29
366.256	45.06
366.467	0
366.678	-28.67
366.889	24.58
367.1	-24.58
367.311	0
367.522	4.1
367.733	-14.34
367.944	28.67
368.155	-51.2
368.366	49.15
368.577	2.05
368.788	26.62
368.999	28.67
369.209	-28.67
369.42	45.06
369.631	2.05
369.842	18.43
370.053	-92.16
370.264	57.34
370.474	-2.05
370.685	-20.48
370.896	32.77
371.107	8.19
371.317	10.24
371.528	0
371.739	32.77
371.95	12.29
372.16	2.05
372.371	28.67
372.582	-34.82
372.792	-38.91
373.003	65.54
373.214	28.67
373.424	28.67
373.635	-8.19
373.846	34.82
374.056	57.34
374.267	-16.38
374.477	16.38
374.688	28.67
374.898	12.29
375.109	86.01
375.319	-51.2
375.53	28.67
375.74	30.72
375.951	0
376.161	-34.82
376.372	47.1
376.582	49.15
376.793	-10.24
377.003	-22.53
377.214	-18.43
377.424	-24.58
377.635	45.06
377.845	-18.43
378.055	73.73
378.266	6.14
378.476	-49.15
378.686	-28.67
378.897	86.01
379.107	-6.14
379.317	10.24
379.528	24.58
379.738	24.58
379.948	-28.67
380.158	-14.34
380.369	98.3
380.579	69.63
380.789	22.53
380.999	79.87
381.21	88.06
381.42	63.49
381.63	-16.38
381.84	71.68
382.05	0
382.261	49.15
382.471	47.1
382.681	57.34
382.891	47.1
383.101	-43.01
383.311	51.2
383.521	16.38
383.731	65.54
383.941	-6.14
384.151	10.24
384.361	8.19
384.571	22.53
384.781	-20.48
384.991	40.96
385.201	47.1
385.411	12.29
385.621	36.86
385.831	4.1
386.041	-75.77
386.251	53.25
386.461	36.86
386.671	2.05
386.881	24.58
387.091	47.1
387.301	53.25
387.511	26.62
387.72	34.82
387.93	-45.06
388.14	0
388.35	-30.72
388.56	79.87
388.769	16.38
388.979	45.06
389.189	22.53
389.399	61.44
389.609	55.3
389.818	63.49
390.028	2.05
390.238	94.21
390.447	32.77
390.657	57.34
390.867	-6.14
391.076	106.49
391.286	-30.72
391.496	-28.67
391.705	34.82
391.915	149.5
392.125	14.34
392.334	38.91
392.544	49.15
392.753	49.15
392.963	20.48
393.172	14.34
393.382	2.05
393.591	0
393.801	-26.62
394.01	-12.29
394.22	-36.86
394.429	51.2
394.639	-47.1
394.848	73.73
395.058	-14.34
395.267	20.48
395.477	63.49
395.686	40.96
395.895	59.39
396.105	36.86
396.314	83.97
396.524	69.63
396.733	57.34
396.942	-36.86
397.152	-30.72
397.361	92.16
397.57	59.39
397.78	22.53
397.989	51.2
398.198	2.05
398.407	88.06
398.617	4.1
398.826	-28.67
399.035	24.58
399.244	12.29
399.453	45.06
399.663	30.72
399.872	83.97
400.081	30.72
400.29	65.54
400.499	47.1
400.708	-26.62
400.917	24.58
401.127	14.34
401.336	92.16
401.545	90.11
401.754	30.72
401.963	53.25
402.172	-10.24
402.381	57.34
402.59	10.24
402.799	47.1
403.008	79.87
403.217	38.91
403.426	53.25
403.635	51.2
403.844	198.65
404.053	-2.05
404.262	63.49
404.471	67.58
404.68	6.14
404.888	102.4
405.097	163.84
405.306	88.06
405.515	51.2
405.724	-18.43
405.933	40.96
406.142	18.43
406.35	-6.14
406.559	32.77
406.768	59.39
406.977	30.72
407.185	51.2
407.394	88.06
407.603	32.77
407.812	94.21
408.02	104.45
408.229	51.2
408.438	155.65
408.646	104.45
408.855	135.17
409.064	145.41
409.272	65.54
409.481	163.84
409.69	79.87
409.898	104.45
410.107	126.97
410.315	182.27
410.524	161.79
410.733	149.5
410.941	184.32
411.15	161.79
411.358	71.68
411.567	192.51
411.775	104.45
411.984	249.85
412.192	200.7
412.401	217.08
412.609	186.37
412.818	120.83
413.026	143.36
413.234	262.14
413.443	266.24
413.651	225.28
413.86	282.62
414.068	305.15
414.276	307.2
414.485	188.41
414.693	296.96
414.901	276.48
415.11	204.8
415.318	329.72
415.526	346.11
415.734	270.33
415.943	346.11
416.151	337.91
416.359	368.63
416.567	331.77
416.776	372.73
416.984	380.92
417.192	423.93
417.4	421.88
417.608	423.93
417.817	462.84
418.025	419.83
418.233	487.42
418.441	503.8
418.649	530.42
418.857	522.23
419.065	602.1
419.273	600.05
419.481	659.45
419.689	589.82
419.897	608.25
420.105	688.12
420.313	700.41
420.521	663.54
420.729	667.64
420.937	743.41
421.145	718.84
421.353	796.66
421.561	790.52
421.769	784.37
421.977	839.67
422.185	864.24
422.393	1021.94
422.601	915.44
422.809	1019.89
423.017	956.4
423.224	964.59
423.432	1153.01
423.64	1126.38
423.848	1247.21
424.056	1140.72
424.263	1216.49
424.471	1298.41
424.679	1239.02
424.887	1329.13
425.094	1388.52
425.302	1380.33
425.51	1540.07
425.718	1527.78
425.925	1556.46
426.133	1601.51
426.341	1605.61
426.548	1808.36
426.756	1662.95
426.964	1728.49
427.171	1859.56
427.379	1964
427.586	1816.55
427.794	1953.76
428.001	2027.49
428.209	2215.9
428.417	2002.91
428.624	2318.3
428.832	2258.91
429.039	2250.72
429.247	2326.49
429.454	2447.32
429.662	2621.4
429.869	2459.61
430.076	2619.35
430.284	2600.92
430.491	2723.8
430.699	2826.2
430.906	2734.04
431.114	2865.11
431.321	3071.95
431.528	3182.54
431.736	3346.38
431.943	3377.1
432.15	3391.44
432.358	3217.36
432.565	3567.56
432.772	3465.16
432.979	3766.21
433.187	3698.63
433.394	3729.35
433.601	3934.15
433.808	4110.27
434.016	4034.5
434.223	4214.72
434.43	4526.01
434.637	4444.09
434.844	4401.08
435.052	5054.39
435.259	4700.09
435.466	4732.86
435.673	4657.08
435.88	4941.75
436.087	5248.94
436.294	5210.03
436.501	5218.22
436.708	5259.18
436.915	5369.77
437.122	5529.52
437.329	5631.91
437.537	5832.61
437.743	5984.16
437.95	5932.97
438.157	6215.59
438.364	6614.94
438.571	6461.34
438.778	6526.88
438.985	6924.18
439.192	6793.11
439.399	6868.89
439.606	6799.26
439.813	7053.2
440.02	7604.11
440.227	7460.75
440.433	7268.24
440.64	7739.27
440.847	7559.05
441.054	7706.51
441.261	8318.85
441.467	8132.48
441.674	8351.62
441.881	8634.24
442.088	8624
442.294	8599.42
442.501	8830.84
442.708	8777.59
442.914	9232.24
443.121	9817.96
443.328	9494.38
443.534	10180.45
443.741	9967.46
443.948	9697.13
444.154	10409.83
444.361	10395.49
444.568	10590.05
444.774	10411.87
444.981	10737.5
445.187	10983.26
445.394	11331.41
445.6	11298.64
445.807	12273.48
446.013	11941.71
446.22	12021.58
446.426	12676.93
446.633	12711.74
446.839	12973.88
447.046	12623.68
447.252	13184.82
447.459	13150.01
447.665	13338.42
447.871	13901.61
448.078	14409.51
448.284	13795.12
448.491	14362.4
448.697	14935.84
448.903	14808.86
449.11	15138.58
449.316	14757.66
449.522	15138.58
449.728	15513.36
449.935	15593.23
450.141	15570.71
450.347	16004.88
450.553	15451.92
450.76	15609.62
450.966	16367.37
451.172	16187.15
451.378	16502.53
451.584	16041.74
451.791	16314.12
451.997	16494.34
452.203	16695.04
452.409	16545.54
452.615	16781.06
452.821	15834.89
453.027	15947.53
453.233	16742.14
453.44	16111.37
453.646	15949.58
453.852	16508.68
454.058	16488.2
454.264	16205.58
454.47	16297.74
454.676	15939.34
454.882	16459.52
455.088	15159.06
455.294	15257.37
455.5	15607.57
455.705	15750.93
455.911	15195.93
456.117	14628.64
456.323	14702.37
456.529	13811.5
456.735	14569.25
456.941	14032.68
457.147	13965.1
457.352	13203.25
457.558	13221.69
457.764	13381.43
457.97	13145.91
458.176	12545.86
458.381	12812.09
458.587	12062.54
458.793	12250.95
458.999	11491.15
459.204	12363.59
459.41	11976.52
459.616	11429.71
459.821	11085.65
460.027	11073.37
460.233	10864.47
460.438	10418.02
460.644	10684.25
460.85	10098.53
461.055	9908.07
461.261	9760.62
461.466	9066.36
461.672	9113.46
461.878	9582.45
462.083	8798.07
462.289	8554.37
462.494	8671.1
462.7	8032.13
462.905	8122.24
463.111	8312.71
463.316	8384.38
463.522	8087.43
463.727	8032.13
463.932	8320.9
464.138	7806.86
464.343	8062.85
464.549	7868.3
464.754	8025.99
464.959	7972.74
465.165	7991.17
465.37	7647.12
465.575	7458.7
465.781	7649.16
465.986	7804.81
466.191	7425.93
466.397	7405.45
466.602	7002.01
466.807	7167.89
467.012	7505.81
467.218	7210.9
467.423	7178.13
467.628	7184.27
467.833	7497.61
468.038	7253.91
468.244	7106.45
468.449	7315.34
468.654	7018.39
468.859	6911.89
469.064	6903.7
469.269	6670.23
469.474	6797.21
469.679	6899.61
469.885	6782.87
470.09	6729.63
470.295	6797.21
470.5	6512.54
470.705	6614.94
470.91	6526.88
471.115	6301.6
471.32	6684.57
471.525	6481.82
471.73	6346.66
471.935	6229.92
472.139	5984.16
472.344	6068.13
472.549	6162.34
472.754	6076.32
472.959	5971.88
473.164	5754.79
473.369	5756.84
473.574	5939.11
473.778	5840.81
473.983	5846.95
474.188	5795.75
474.393	5570.47
474.598	5650.35
474.802	5580.71
475.007	5420.97
475.212	5537.71
475.417	5203.89
475.621	5261.23
475.826	5257.14
476.031	5124.02
476.235	5181.36
476.44	5226.42
476.645	5183.41
476.849	5074.87
477.054	4984.76
477.259	4880.31
477.463	5007.28
477.668	4747.19
477.872	4802.49
478.077	4669.37
478.282	4728.76
478.486	4642.75
478.691	4749.24
478.895	4595.64
479.1	4495.29
479.304	4597.69
479.509	4513.72
479.713	4493.24
479.918	4335.55
480.122	4382.65
480.326	4493.24
480.531	4605.88
480.735	4249.54
480.94	4448.19
481.144	4581.31
481.348	4233.15
481.553	4347.84
481.757	4118.47
481.961	4417.47
482.166	4358.08
482.37	4308.93
482.574	4190.14
482.778	4114.37
482.983	4300.73
483.187	4353.98
483.391	4368.32
483.595	4247.49
483.8	4184
484.004	4147.14
484.208	4239.3
484.412	4272.06
484.616	4280.25
484.821	4190.14
485.025	4143.04
485.229	4380.61
485.433	4140.99
485.637	4202.43
485.841	4159.42
486.045	4151.23
486.249	4167.62
486.453	4198.34
486.657	4075.46
486.861	4171.71
487.065	4022.21
487.269	4347.84
487.473	4255.68
487.677	4306.88
487.881	4364.22
488.085	4247.49
488.289	4245.44
488.493	4331.45
488.697	4280.25
488.901	4202.43
489.105	4249.54
489.309	4288.45
489.512	4339.65
489.716	4237.25
489.92	4233.15
490.124	4298.69
490.328	4280.25
490.531	4253.63
490.735	4356.03
490.939	4315.07
491.143	4319.17
491.346	4296.64
491.55	4470.72
491.754	4521.91
491.958	4652.98
492.161	4507.58
492.365	4513.72
492.569	4710.33
492.772	4456.38
492.976	4614.07
493.18	4706.23
493.383	4667.32
493.587	4687.8
493.79	4773.82
493.994	4632.51
494.197	4755.38
494.401	4845.49
494.605	4857.78
494.808	4984.76
495.012	4861.88
495.215	4857.78
495.419	4933.56
495.622	4825.01
495.825	4853.69
496.029	4923.32
496.232	5099.44
496.436	5097.39
496.639	5257.14
496.843	5158.83
497.046	5357.49
497.249	5291.95
497.453	5420.97
497.656	5484.46
497.859	5506.99
498.063	5439.4
498.266	5658.54
498.469	5693.35
498.673	5621.67
498.876	5740.46
499.079	5793.7
499.282	5881.77
499.485	6072.23
499.689	5920.68
499.892	6154.15
500.095	6166.43
500.298	6297.5
500.501	6258.59
500.705	6367.13
500.908	6502.3
501.111	6473.63
501.314	6655.9
501.517	6578.08
501.72	6725.53
501.923	6674.33
502.126	6881.18
502.329	6961.05
502.532	7155.6
502.735	7135.12
502.938	7034.77
503.141	7229.33
503.344	7450.51
503.547	7407.5
503.75	7516.05
503.953	7470.99
504.156	7882.63
504.359	7790.47
504.562	7780.23
504.765	7970.69
504.968	8212.35
505.17	8249.22
505.373	8210.31
505.576	8269.7
505.779	8451.97
505.982	8560.51
506.185	8699.77
506.387	8613.76
506.59	8929.14
506.793	9027.45
506.996	8949.62
507.198	9291.63
507.401	8968.06
507.604	9135.99
507.807	9375.6
508.009	9439.09
508.212	9416.56
508.415	9940.84
508.617	9666.41
508.82	9914.22
509.022	9908.07
509.225	10442.59
509.428	10149.73
509.63	10415.97
509.833	10372.96
510.035	10604.38
510.238	10608.48
510.44	10819.42
510.643	11016.02
510.845	10727.26
511.048	10919.77
511.25	11106.13
511.453	11120.47
511.655	11765.58
511.858	11581.26
512.06	11495.25
512.262	11595.6
512.465	11818.83
512.667	11994.95
512.87	12031.82
513.072	11982.67
513.274	12386.11
513.477	12521.28
513.679	12693.31
513.881	12685.12
514.084	12693.31
514.286	12840.76
514.488	12820.28
514.69	13301.56
514.893	13399.86
515.095	13481.78
515.297	13334.32
515.499	13494.07
515.701	13793.07
515.904	13815.6
516.106	13750.06
516.308	14106.41
516.51	14376.74
516.712	14221.09
516.914	14595.87
517.116	14524.19
517.318	14784.29
517.52	15023.9
517.722	14888.73
517.925	15200.02
518.127	15324.95
518.329	15501.08
518.531	15214.36
518.733	15650.58
518.935	15806.22
519.136	15879.95
519.338	16105.23
519.54	16350.98
519.742	16123.66
519.944	16291.59
520.146	16563.97
520.348	16490.24
520.55	16631.55
520.752	16774.91
520.954	17192.7
521.155	17018.62
521.357	17334.01
521.559	17434.36
521.761	17559.28
521.963	17536.76
522.164	17800.94
522.366	17659.63
522.568	18069.23
522.77	18163.43
522.971	18317.03
523.173	18269.93
523.375	18403.05
523.576	18566.88
523.778	18374.38
523.98	18990.81
524.181	18820.83
524.383	19250.91
524.584	19220.19
524.786	18992.86
524.988	18857.7
525.189	19308.25
525.391	19465.94
525.592	19480.28
525.794	19676.88
525.995	19592.92
526.197	19551.96
526.398	19889.87
526.6	19961.55
526.801	20168.4
527.003	20008.65
527.204	20321.99
527.406	20375.24
527.607	20248.27
527.808	20571.85
528.01	19867.34
528.211	20317.9
528.412	20717.25
528.614	20481.74
528.815	20559.56
529.016	20565.7
529.218	20580.04
529.419	20537.03
529.62	20563.65
529.822	20776.64
530.023	20561.61
530.224	20713.16
530.425	20797.12
530.626	20332.23
530.828	20715.2
531.029	21092.03
531.23	20838.08
531.431	21026.5
531.632	20852.42
531.833	21069.5
532.035	21061.31
532.236	21128.89
532.437	21065.41
532.638	20963.01
532.839	21098.17
533.04	20876.99
533.241	21151.42
533.442	21356.22
533.643	20963.01
533.844	21239.48
534.045	21321.4
534.246	21130.94
534.447	21292.73
534.648	21137.09
534.849	21114.56
535.05	21057.21
535.251	21313.21
535.451	21077.69
535.652	21049.02
535.853	21108.41
536.054	21307.07
536.255	21124.8
536.456	20989.63
536.657	21231.29
536.857	21421.75
537.058	20952.77
537.259	21669.56
537.46	21165.76
537.66	21313.21
537.861	21323.45
538.062	21042.88
538.263	21288.64
538.463	20950.72
538.664	20928.19
538.865	21180.09
539.065	21460.66
539.266	21042.88
539.466	21530.3
539.667	21069.5
539.868	21513.91
540.068	21204.67
540.269	21184.19
540.469	20985.54
540.67	20895.43
540.87	21657.27
541.071	21038.78
541.271	21212.86
541.472	21139.13
541.672	20897.47
541.873	21190.33
542.073	20803.27
542.274	21198.52
542.474	21028.54
542.675	20819.65
542.875	21327.55
543.075	21083.84
543.276	20971.2
543.476	21212.86
543.676	20956.86
543.877	21046.97
544.077	21014.21
544.277	20915.9
544.478	20989.63
544.678	21085.89
544.878	21092.03
545.078	21100.22
545.279	20793.03
545.479	20928.19
545.679	21094.08
545.879	21114.56
546.079	21077.69
546.28	20901.57
546.48	20993.73
546.68	20731.59
546.88	20754.12
547.08	20922.05
547.28	20993.73
547.48	20850.37
547.68	21016.26
547.88	20848.32
548.081	21063.36
548.281	20768.45
548.481	21055.17
548.681	21030.59
548.881	20827.84
549.081	20567.75
549.28	21001.92
549.48	21012.16
549.68	20817.6
549.88	21049.02
550.08	20508.36
550.28	20971.2
550.48	20698.82
550.68	21059.26
550.88	21085.89
551.08	20930.24
551.279	20764.36
551.479	20471.5
551.679	21024.45
551.879	20688.58
552.079	20743.88
552.278	20895.43
552.478	20897.47
552.678	20713.16
552.878	20932.29
553.077	20664
553.277	20674.24
553.477	21001.92
553.676	20506.31
553.876	20532.93
554.076	20831.94
554.275	20623.05
554.475	20297.42
554.674	20518.6
554.874	20684.48
555.074	20397.77
555.273	20272.84
555.473	20428.49
555.672	20512.45
555.872	20555.46
556.071	20477.64
556.271	20852.42
556.47	20238.03
556.67	20332.23
556.869	20422.34
557.068	20534.98
557.268	20301.51
557.467	20532.93
557.667	20373.19
557.866	20266.7
558.065	20641.48
558.265	20043.47
558.464	20201.16
558.663	20297.42
558.863	19775.19
559.062	20393.67
559.261	20070.09
559.461	20477.64
559.66	19687.12
559.859	20002.51
560.058	20059.85
560.258	19881.68
560.457	19685.08
560.656	20074.19
560.855	19785.43
561.054	20156.11
561.253	19984.08
561.453	19967.7
561.652	19994.32
561.851	19922.64
562.05	19836.63
562.249	19812.05
562.448	19791.57
562.647	19490.52
562.846	19719.89
563.045	19781.33
563.244	19533.53
563.443	19754.71
563.642	19349.21
563.841	19601.11
564.04	19470.04
564.239	19732.18
564.438	19162.84
564.637	19625.68
564.836	19656.4
565.035	19265.24
565.234	19304.15
565.432	19183.32
565.631	19259.1
565.83	19375.83
566.029	19273.43
566.228	19087.07
566.427	19128.03
566.625	19013.34
566.824	18968.29
567.023	19150.56
567.222	18908.9
567.42	19242.71
567.619	18972.38
567.818	18593.51
568.016	18712.29
568.215	19062.49
568.414	18974.43
568.612	18956
568.811	18702.05
569.01	18667.24
569.208	18638.56
569.407	18732.77
569.605	18396.9
569.804	18673.38
570.002	18540.26
570.201	18597.6
570.4	18431.72
570.598	18558.69
570.797	18464.49
570.995	18378.47
571.193	18210.54
571.392	18468.58
571.59	18314.98
571.789	18190.06
571.987	17991.41
572.186	18171.63
572.384	18046.7
572.582	18044.65
572.781	18323.18
572.979	17891.06
573.177	18134.76
573.376	18007.79
573.574	17897.2
573.772	17747.7
573.971	17737.46
574.169	17567.48
574.367	17657.59
574.565	17770.22
574.763	17624.82
574.962	17434.36
575.16	17460.98
575.358	17530.61
575.556	17366.78
575.754	17645.3
575.952	17125.11
576.151	17448.69
576.349	17143.55
576.547	17317.62
576.745	17106.68
576.943	17198.84
577.141	17164.03
577.339	17305.34
577.537	16912.13
577.735	17135.35
577.933	16992
578.131	16887.55
578.329	17053.44
578.527	16629.51
578.725	16946.94
578.923	16867.07
579.121	16484.1
579.319	16568.07
579.516	16752.38
579.714	16652.03
579.912	16484.1
580.11	16250.63
580.308	16529.16
580.506	16699.14
580.704	16234.25
580.901	16553.73
581.099	16508.68
581.297	16246.54
581.495	16303.88
581.692	16277.26
581.89	16029.45
582.088	16117.51
582.285	15918.86
582.483	15941.39
582.681	16273.16
582.878	16002.83
583.076	15720.21
583.274	15904.53
583.471	15943.44
583.669	15576.85
583.866	15558.42
584.064	15742.74
584.262	15677.2
584.459	15701.78
584.657	15685.39
584.854	15587.09
585.052	15091.48
585.249	15646.48
585.447	15466.26
585.644	15324.95
585.841	15218.46
586.039	15335.19
586.236	15013.66
586.434	15324.95
586.631	14962.46
586.828	15138.58
587.026	15171.35
587.223	14681.89
587.42	14704.42
587.618	15044.38
587.815	14874.4
588.012	14839.58
588.21	14796.57
588.407	14915.36
588.604	14935.84
588.801	14597.92
588.999	14597.92
589.196	14634.78
589.393	14804.77
589.59	14473
589.787	14438.18
589.984	14325.54
590.182	14352.17
590.379	14479.14
590.576	14311.21
590.773	14286.63
590.97	14165.8
591.167	14346.02
591.364	13993.77
591.561	14339.88
591.758	14001.96
591.955	13961
592.152	14012.2
592.349	13862.7
592.546	13995.82
592.743	14030.63
592.94	13764.4
593.137	13692.72
593.334	13797.17
593.531	13649.71
593.727	13815.6
593.924	13653.81
594.121	13526.83
594.318	13881.13
594.515	13477.68
594.712	13662
594.908	13569.84
595.105	13492.02
595.302	13494.07
595.499	13408.05
595.696	13373.24
595.892	13090.62
596.089	13397.81
596.286	13252.41
596.482	13107
596.679	13152.06
596.876	13313.84
597.072	13152.06
597.269	12859.2
597.466	12977.98
597.662	13182.77
597.859	12894.01
598.055	13127.48
598.252	12732.22
598.448	12789.56
598.645	12801.85
598.841	12713.79
599.038	12705.6
599.234	12619.58
599.431	12437.31
599.627	12615.49
599.824	12517.18
600.02	12541.76
600.217	12441.41
600.413	12506.95
600.609	12595.01
600.806	12439.36
601.002	12296
601.198	12195.65
601.395	12095.3
601.591	12095.3
601.787	12158.79
601.984	12003.14
602.18	12117.83
602.376	12156.74
602.572	11843.4
602.769	12001.1
602.965	11857.74
603.161	12087.11
603.357	11851.6
603.553	11845.45
603.75	11884.36
603.946	11781.96
604.142	11833.16
604.338	11538.26
604.534	11659.09
604.73	11493.2
604.926	11485.01
605.122	11794.25
605.318	11577.17
605.514	11560.78
605.71	11372.37
605.906	11532.11
606.102	11341.65
606.298	11454.29
606.494	11392.85
606.69	11370.32
606.886	11329.36
607.082	11218.77
607.278	11339.6
607.474	11112.28
607.67	11106.13
607.866	11083.61
608.062	11099.99
608.257	11083.61
608.453	11034.46
608.649	11157.33
608.845	10964.82
609.041	10927.96
609.236	10884.95
609.432	11061.08
609.628	10835.8
609.824	10807.13
610.019	11163.48
610.215	10866.52
610.411	10932.06
610.606	10497.89
610.802	10743.64
610.998	10819.42
611.193	10858.33
611.389	10641.25
611.584	10618.72
611.78	10721.12
611.976	10528.61
612.171	10524.51
612.367	10674.01
612.562	10428.26
612.758	10497.89
612.953	10342.24
613.149	10579.81
613.344	10524.51
613.539	10377.06
613.735	10399.59
613.93	10368.87
614.126	10362.72
614.321	10487.65
614.517	10385.25
614.712	10155.88
614.907	10219.36
615.103	10360.67
615.298	10147.69
615.493	10336.1
615.688	10162.02
615.884	10268.52
616.079	10053.48
616.274	10178.4
616.47	10245.99
616.665	9842.54
616.86	10014.57
617.055	9992.04
617.25	10057.57
617.445	10028.9
617.641	10010.47
617.836	9852.78
618.031	9719.66
618.226	9893.74
618.421	9828.2
618.616	9932.65
618.811	9805.67
619.006	9881.45
619.201	9883.5
619.396	9555.82
619.591	9488.24
619.786	9514.86
619.981	9639.79
620.176	9488.24
620.371	9408.37
620.566	9363.31
620.761	9443.18
620.956	9222
621.151	9303.92
621.346	9334.64
621.541	8992.63
621.735	9105.27
621.93	8843.13
622.125	9150.32
622.32	8925.05
622.515	9303.92
622.709	8808.31
622.904	9021.3
623.099	8882.04
623.294	8888.18
623.488	8617.85
623.683	8587.13
623.878	8656.76
624.072	8509.31
624.267	8419.2
624.462	8466.3
624.656	8507.26
624.851	8628.09
625.046	8634.24
625.24	8316.8
625.435	8308.61
625.629	8327.04
625.824	8187.78
626.018	8198.02
626.213	7864.2
626.407	8042.37
626.602	8013.7
626.796	8003.46
626.991	8075.14
627.185	7929.73
627.38	7683.98
627.574	7788.43
627.768	7686.03
627.963	7843.72
628.157	7606.16
628.352	7579.53
628.546	7425.93
628.74	7675.79
628.935	7548.81
629.129	7333.78
629.323	7479.18
629.517	7370.64
629.712	7288.72
629.906	7223.19
630.1	7358.35
630.294	7235.47
630.489	7165.84
630.683	7301.01
630.877	7139.22
631.071	7049.11
631.265	7169.94
631.459	7047.06
631.653	6991.77
631.848	7208.85
632.042	6762.39
632.236	6959
632.43	6930.33
632.624	6883.22
632.818	6809.5
633.012	6649.75
633.206	6623.13
633.4	6713.24
633.594	6655.9
633.788	6596.51
633.982	6625.18
634.176	6530.97
634.369	6440.86
634.563	6614.94
634.757	6547.36
634.951	6528.92
635.145	6426.53
635.339	6356.89
635.533	6274.98
635.726	6313.89
635.92	6014.88
636.114	6068.13
636.308	6164.39
636.501	6039.46
636.695	6242.21
636.889	5951.4
637.083	6084.52
637.276	6049.7
637.47	6086.56
637.664	6025.12
637.857	6004.64
638.051	5859.24
638.244	5705.64
638.438	5793.7
638.632	5750.7
638.825	5713.83
639.019	5713.83
639.212	5791.66
639.406	5748.65
639.599	5625.77
639.793	5693.35
639.986	5568.43
640.18	5418.93
640.373	5627.82
640.567	5517.23
640.76	5412.78
640.954	5283.76
641.147	5445.55
641.34	5273.52
641.534	5345.2
641.727	5445.55
641.92	5330.86
642.114	5328.81
642.307	5273.52
642.5	5140.4
642.694	5083.06
642.887	5109.68
643.08	5308.34
643.273	5101.49
643.467	5083.06
643.66	5070.77
643.853	5017.52
644.046	5005.24
644.239	5001.14
644.432	4956.08
644.626	4892.6
644.819	4868.02
645.012	4788.15
645.205	4855.73
645.398	4855.73
645.591	4882.36
645.784	4798.39
645.977	4732.86
646.17	4519.87
646.363	4706.23
646.556	4575.16
646.749	4652.98
646.942	4624.31
647.135	4517.82
647.328	4556.73
647.521	4562.87
647.714	4478.91
647.907	4474.81
648.099	4431.8
648.292	4290.49
648.485	4378.56
648.678	4425.66
648.871	4347.84
649.064	4323.26
649.256	4319.17
649.449	4302.78
649.642	4394.94
649.835	4147.14
650.027	4227.01
650.22	4130.75
650.413	4114.37
650.605	4157.38
650.798	4157.38
650.991	3921.86
651.183	4007.87
651.376	4073.41
651.568	4026.31
651.761	4061.12
651.954	4030.4
652.146	3854.28
652.339	3899.33
652.531	3946.44
652.724	4018.11
652.916	3725.26
653.109	3698.63
653.301	3850.18
653.494	3794.89
653.686	3645.38
653.879	3786.69
654.071	3760.07
654.263	3766.21
654.456	3643.34
654.648	3655.62
654.84	3758.02
655.033	3551.18
655.225	3516.36
655.417	3377.1
655.61	3526.6
655.802	3626.95
655.994	3633.1
656.186	3575.75
656.379	3573.71
656.571	3508.17
656.763	3477.45
656.955	3506.12
657.148	3360.72
657.34	3379.15
657.532	3397.58
657.724	3336.14
657.916	3270.61
658.108	3303.37
658.3	3260.37
658.492	3207.12
658.684	3207.12
658.876	3246.03
659.068	3127.25
659.26	3229.65
659.452	3196.88
659.644	3114.96
659.836	3207.12
660.028	3117.01
660.22	3135.44
660.412	3069.91
660.604	3131.34
660.796	3006.42
660.988	2932.69
661.18	3026.9
661.372	2910.16
661.563	3016.66
661.755	2961.36
661.947	2963.41
662.139	2897.88
662.331	2951.12
662.522	2879.44
662.714	2895.83
662.906	2793.43
663.097	2811.86
663.289	2850.77
663.481	2854.87
663.673	2803.67
663.864	2772.95
664.056	2809.81
664.247	2674.65
664.439	2731.99
664.631	2736.09
664.822	2658.26
665.014	2691.03
665.205	2723.8
665.397	2674.65
665.588	2568.15
665.78	2764.76
665.971	2529.24
666.163	2531.29
666.354	2654.17
666.546	2478.04
666.737	2512.86
666.929	2551.77
667.12	2521.05
667.311	2492.38
667.503	2543.58
667.694	2480.09
667.885	2445.27
668.077	2418.65
668.268	2496.47
668.459	2420.7
668.651	2439.13
668.842	2338.78
669.033	2445.27
669.224	2447.32
669.416	2375.64
669.607	2412.51
669.798	2226.14
669.989	2484.19
670.18	2338.78
670.371	2267.1
670.563	2324.44
670.754	2265.05
670.945	2260.96
671.136	2232.29
671.327	2316.25
671.518	2303.96
671.709	2226.14
671.9	2263.01
672.091	2228.19
672.282	2277.34
672.473	2088.93
672.664	2150.37
672.855	2199.52
673.046	2090.98
673.237	2203.61
673.428	2150.37
673.619	2174.94
673.809	2179.04
674	2121.7
674.191	2213.85
674.382	2052.06
674.573	2136.03
674.764	2099.17
674.954	2088.93
675.145	1998.82
675.336	2041.82
675.527	2025.44
675.717	1998.82
675.908	2160.61
676.099	2029.54
676.289	2097.12
676.48	2031.59
676.671	2072.54
676.861	2127.84
677.052	2093.02
677.243	1947.62
677.433	1949.67
677.624	2041.82
677.814	1945.57
678.005	2035.68
678.195	2009.06
678.386	1947.62
678.576	1896.42
678.767	1841.12
678.957	2019.3
679.148	2011.11
679.338	1873.89
679.529	1923.04
679.719	1966.05
679.909	1875.94
680.1	2009.06
680.29	1896.42
680.481	1834.98
680.671	1812.45
680.861	1744.87
681.052	1890.28
681.242	1884.13
681.432	1875.94
681.622	1839.08
681.813	1916.9
682.003	1820.64
682.193	1880.04
682.383	1939.43
682.573	1884.13
682.764	1806.31
682.954	1820.64
683.144	1777.64
683.334	1896.42
683.524	1865.7
683.714	1867.75
683.904	1898.47
684.094	1830.88
684.284	1804.26
684.474	1765.35
684.664	1781.73
684.854	1847.27
685.044	1818.6
685.234	1785.83
685.424	1906.66
685.614	1730.53
685.804	1753.06
685.994	1732.58
686.184	1769.45
686.374	1755.11
686.564	1785.83
686.753	1738.73
686.943	1767.4
687.133	1757.16
687.323	1830.88
687.513	1755.11
687.702	1671.14
687.892	1771.49
688.082	1839.08
688.272	1644.52
688.461	1732.58
688.651	1736.68
688.841	1669.09
689.03	1746.92
689.22	1601.51
689.41	1583.08
689.599	1658.85
689.789	1691.62
689.979	1677.29
690.168	1787.88
690.358	1681.38
690.547	1636.33
690.737	1679.33
690.926	1673.19
691.116	1546.22
691.305	1601.51
691.495	1650.66
691.684	1632.23
691.874	1562.6
692.063	1544.17
692.252	1605.61
692.442	1638.38
692.631	1548.26
692.82	1597.42
693.01	1605.61
693.199	1593.32
693.388	1652.71
693.578	1488.87
693.767	1505.26
693.956	1505.26
694.146	1535.98
694.335	1581.03
694.524	1589.22
694.713	1624.04
694.902	1576.94
695.092	1585.13
695.281	1642.47
695.47	1564.65
695.659	1533.93
695.848	1443.82
696.037	1484.78
696.226	1454.06
696.415	1519.59
696.604	1413.1
696.793	1548.26
696.982	1466.35
697.171	1437.67
697.36	1484.78
697.549	1447.91
697.738	1542.12
697.927	1560.55
698.116	1372.14
698.305	1478.63
698.494	1378.28
698.683	1472.49
698.872	1370.09
699.061	1462.25
699.25	1454.06
699.438	1447.91
699.627	1359.85
699.816	1427.43
700.005	1413.1
700.193	1458.15
700.382	1406.95
700.571	1509.35
700.76	1347.56
700.948	1327.08
701.137	1382.38
701.326	1386.47
701.514	1478.63
701.703	1462.25
701.892	1372.14
702.08	1368.04
702.269	1384.43
702.457	1284.08
702.646	1288.17
702.834	1357.8
703.023	1337.32
703.212	1271.79
703.4	1349.61
703.589	1308.65
703.777	1296.36
703.965	1333.23
704.154	1386.47
704.342	1347.56
704.531	1271.79
704.719	1374.19
704.907	1341.42
705.096	1337.32
705.284	1298.41
705.472	1329.13
705.661	1370.09
705.849	1243.12
706.037	1284.08
706.226	1308.65
706.414	1322.99
706.602	1279.98
706.79	1279.98
706.979	1212.4
707.167	1286.12
707.355	1294.32
707.543	1261.55
707.731	1271.79
707.919	1286.12
708.107	1193.97
708.296	1128.43
708.484	1294.32
708.672	1282.03
708.86	1208.3
709.048	1257.45
709.236	1339.37
709.424	1222.64
709.612	1191.92
709.8	1196.01
709.988	1271.79
710.176	1208.3
710.364	1183.73
710.551	1142.77
710.739	1161.2
710.927	1167.34
711.115	1181.68
711.303	1216.49
711.491	1214.45
711.679	1216.49
711.866	1150.96
712.054	1232.88
712.242	1171.44
712.43	1224.69
712.617	1095.66
712.805	1200.11
712.993	1185.77
713.181	1232.88
713.368	1142.77
713.556	1214.45
713.744	1171.44
713.931	1146.86
714.119	1191.92
714.306	1161.2
714.494	1241.07
714.682	1128.43
714.869	1099.76
715.057	1097.71
715.244	1114.09
715.432	1136.62
715.619	1153.01
715.807	1191.92
715.994	1202.16
716.182	1101.81
716.369	1171.44
716.556	1130.48
716.744	1126.38
716.931	1085.42
717.119	1140.72
717.306	1077.23
717.493	1212.4
717.681	1171.44
717.868	1110
718.055	1081.33
718.242	1058.8
718.43	1085.42
718.617	1202.16
718.804	1075.18
718.991	1095.66
719.179	1040.37
719.366	1075.18
719.553	1110
719.74	1173.49
719.927	1101.81
720.114	1099.76
720.301	1124.33
720.488	1099.76
720.676	1122.29
720.863	1114.09
721.05	1017.84
721.237	1081.33
721.424	1034.22
721.611	1038.32
721.798	1017.84
721.985	1011.7
722.172	1011.7
722.358	1079.28
722.545	1126.38
722.732	1073.14
722.919	1077.23
723.106	1040.37
723.293	1042.42
723.48	1079.28
723.667	1087.47
723.853	1011.7
724.04	954.35
724.227	1044.46
724.414	1069.04
724.6	1044.46
724.787	1064.94
724.974	1089.52
725.161	1040.37
725.347	980.98
725.534	999.41
725.72	1130.48
725.907	1034.22
726.094	1036.27
726.28	1062.9
726.467	999.41
726.653	962.55
726.84	1105.9
727.027	1105.9
727.213	972.79
727.4	1126.38
727.586	970.74
727.773	978.93
727.959	995.31
728.145	1032.18
728.332	1087.47
728.518	958.45
728.705	1017.84
728.891	1019.89
729.077	1015.79
729.264	1038.32
729.45	1064.94
729.636	952.31
729.823	1087.47
730.009	1081.33
730.195	1052.66
730.382	948.21
730.568	1015.79
730.754	983.03
730.94	1075.18
731.126	956.4
731.313	978.93
731.499	976.88
731.685	983.03
731.871	1056.75
732.057	892.91
732.243	989.17
732.429	1060.85
732.615	999.41
732.801	989.17
732.987	946.16
733.173	978.93
733.359	962.55
733.545	1019.89
733.731	1021.94
733.917	878.58
734.103	937.97
734.289	962.55
734.475	978.93
734.661	985.07
734.847	931.83
735.033	952.31
735.219	1019.89
735.404	917.49
735.59	897.01
735.776	962.55
735.962	987.12
736.148	1038.32
736.333	937.97
736.519	950.26
736.705	935.92
736.89	948.21
737.076	993.26
737.262	958.45
737.447	888.82
737.633	1030.13
737.819	927.73
738.004	917.49
738.19	1064.94
738.375	999.41
738.561	1019.89
738.747	983.03
738.932	964.59
739.118	923.63
739.303	964.59
739.489	989.17
739.674	888.82
739.859	929.78
740.045	899.06
740.23	876.53
740.416	835.57
740.601	921.59
740.786	1028.08
740.972	993.26
741.157	876.53
741.342	884.72
741.528	950.26
741.713	1036.27
741.898	915.44
742.084	1023.98
742.269	862.19
742.454	989.17
742.639	905.2
742.824	985.07
743.01	935.92
743.195	927.73
743.38	864.24
743.565	864.24
743.75	925.68
743.935	868.34
744.12	819.19
744.305	892.91
744.49	839.67
744.675	870.39
744.86	856.05
745.045	974.83
745.23	792.56
745.415	743.41
745.6	806.9
745.785	811
745.97	858.1
746.155	856.05
746.34	903.15
746.525	794.61
746.71	860.15
746.895	907.25
747.079	811
747.264	888.82
747.449	864.24
747.634	776.18
747.819	786.42
748.003	817.14
748.188	817.14
748.373	770.04
748.557	907.25
748.742	835.57
748.927	774.13
749.111	829.43
749.296	727.03
749.481	780.28
749.665	825.33
749.85	782.32
750.034	720.89
750.219	804.85
750.404	718.84
750.588	761.84
750.773	772.08
750.957	755.7
751.141	690.17
751.326	806.9
751.51	739.32
751.695	763.89
751.879	686.07
752.064	686.07
752.248	665.59
752.432	679.93
752.617	755.7
752.801	665.59
752.985	720.89
753.17	741.36
753.354	712.69
753.538	663.54
753.722	575.48
753.907	745.46
754.091	587.77
754.275	765.94
754.459	767.99
754.643	618.49
754.828	630.77
755.012	638.97
755.196	620.53
755.38	722.93
755.564	671.73
755.748	641.01
755.932	643.06
756.116	583.67
756.3	688.12
756.484	606.2
756.668	641.01
756.852	645.11
757.036	620.53
757.22	659.45
757.404	624.63
757.588	579.58
757.772	557.05
757.956	579.58
758.14	600.05
758.323	559.1
758.507	602.1
758.691	608.25
758.875	593.91
759.059	575.48
759.242	585.72
759.426	514.04
759.61	550.9
759.794	471.03
759.977	532.47
760.161	579.58
760.345	641.01
760.528	507.9
760.712	520.18
760.895	532.47
761.079	569.34
761.263	550.9
761.446	505.85
761.63	555
761.813	602.1
761.997	487.42
762.18	530.42
762.364	520.18
762.547	430.07
762.731	548.86
762.914	501.75
763.098	503.8
763.281	448.51
763.464	518.14
763.648	481.27
763.831	522.23
764.015	518.14
764.198	561.14
764.381	536.57
764.564	544.76
764.748	522.23
764.931	518.14
765.114	509.94
765.297	473.08
765.481	464.89
765.664	403.45
765.847	489.46
766.03	464.89
766.213	421.88
766.397	499.7
766.58	397.31
766.763	518.14
766.946	456.7
767.129	456.7
767.312	434.17
767.495	511.99
767.678	370.68
767.861	450.55
768.044	436.22
768.227	442.36
768.41	460.79
768.593	438.27
768.776	434.17
768.959	413.69
769.142	385.02
769.324	380.92
769.507	524.28
769.69	346.11
769.873	452.6
770.056	403.45
770.239	395.26
770.421	454.65
770.604	368.63
770.787	477.18
770.97	428.03
771.152	421.88
771.335	442.36
771.518	401.4
771.7	425.98
771.883	385.02
772.066	454.65
772.248	473.08
772.431	374.78
772.613	376.83
772.796	374.78
772.978	428.03
773.161	333.82
773.343	356.35
773.526	389.11
773.708	446.46
773.891	399.35
774.073	409.59
774.256	376.83
774.438	372.73
774.621	372.73
774.803	421.88
774.985	380.92
775.168	407.55
775.35	374.78
775.532	282.62
775.715	354.3
775.897	354.3
776.079	323.58
776.261	358.39
776.444	313.34
776.626	352.25
776.808	405.5
776.99	346.11
777.173	251.9
777.355	315.39
777.537	253.95
777.719	321.53
777.901	305.15
778.083	391.16
778.265	329.72
778.447	301.05
778.629	315.39
778.811	251.9
778.993	339.96
779.175	299
779.357	325.63
779.539	278.52
779.721	278.52
779.903	256
780.085	309.24
780.267	290.81
780.449	380.92
780.631	323.58
780.812	247.8
780.994	299
781.176	239.61
781.358	266.24
781.54	270.33
781.721	309.24
781.903	178.17
782.085	260.09
782.267	305.15
782.448	227.32
782.63	282.62
782.812	229.37
782.993	315.39
783.175	227.32
783.357	208.89
783.538	282.62
783.72	151.55
783.901	266.24
784.083	313.34
784.264	184.32
784.446	243.71
784.627	258.04
784.809	253.95
784.99	251.9
785.172	217.08
785.353	196.61
785.535	301.05
785.716	251.9
785.897	225.28
786.079	262.14
786.26	241.66
786.441	208.89
786.623	182.27
786.804	208.89
786.985	243.71
787.167	299
787.348	196.61
787.529	210.94
787.71	253.95
787.891	249.85
788.073	143.36
788.254	163.84
788.435	194.56
788.616	198.65
788.797	186.37
788.978	223.23
789.159	153.6
789.34	180.22
789.522	188.41
789.703	184.32
789.884	151.55
790.065	167.93
790.246	165.89
790.427	147.45
790.607	264.19
790.788	167.93
790.969	145.41
791.15	135.17
791.331	155.65
791.512	194.56
791.693	176.13
791.874	167.93
792.054	186.37
792.235	143.36
792.416	124.93
792.597	96.25
792.778	172.03
792.958	169.98
793.139	200.7
793.32	161.79
793.5	104.45
793.681	96.25
793.862	176.13
794.042	196.61
794.223	174.08
794.404	229.37
794.584	86.01
794.765	73.73
794.945	126.97
795.126	86.01
795.306	120.83
795.487	155.65
795.667	145.41
795.848	131.07
796.028	131.07
796.209	102.4
796.389	153.6
796.57	217.08
796.75	124.93
796.93	137.21
797.111	118.78
797.291	139.26
797.471	155.65
797.652	159.74
797.832	90.11
798.012	149.5
798.192	137.21
798.373	90.11
798.553	112.64
798.733	98.3
798.913	112.64
799.093	129.02
799.274	96.25
799.454	141.31
799.634	88.06
799.814	133.12
799.994	139.26
800.174	45.06
800.354	104.45
800.534	126.97
800.714	94.21
800.894	129.02
801.074	133.12
801.254	202.75
801.434	83.97
801.614	77.82
801.794	47.1
801.974	299
802.154	83.97
802.334	77.82
802.514	100.35
802.693	184.32
802.873	131.07
803.053	79.87
803.233	151.55
803.413	63.49
803.592	96.25
803.772	104.45
803.952	133.12
804.131	92.16
804.311	83.97
804.491	151.55
804.67	100.35
804.85	161.79
805.03	96.25
805.209	69.63
805.389	79.87
805.568	98.3
805.748	38.91
805.928	71.68
806.107	129.02
806.287	122.88
806.466	38.91
806.646	88.06
806.825	71.68
807.004	36.86
807.184	79.87
807.363	32.77
807.543	129.02
807.722	79.87
807.901	100.35
808.081	75.77
808.26	65.54
808.439	122.88
808.619	-18.43
808.798	57.34
808.977	71.68
809.156	155.65
809.336	90.11
809.515	61.44
809.694	98.3
809.873	57.34
810.052	71.68
810.231	63.49
810.411	77.82
810.59	94.21
810.769	30.72
810.948	129.02
811.127	90.11
811.306	38.91
811.485	69.63
811.664	86.01
811.843	53.25
812.022	96.25
812.201	120.83
812.38	90.11
812.559	79.87
812.737	61.44
812.916	53.25
813.095	116.73
813.274	36.86
813.453	47.1
813.632	32.77
813.811	63.49
813.989	98.3
814.168	14.34
814.347	90.11
814.526	71.68
814.704	59.39
814.883	61.44
815.062	32.77
815.24	65.54
815.419	26.62
815.598	65.54
815.776	47.1
815.955	63.49
816.133	4.1
816.312	96.25
816.49	4.1
816.669	61.44
816.847	88.06
817.026	124.93
817.204	38.91
817.383	49.15
817.561	32.77
817.74	104.45
817.918	10.24
818.097	40.96
818.275	55.3
818.453	61.44
818.632	63.49
818.81	22.53
818.988	49.15
819.167	2.05
819.345	47.1
819.523	67.58
819.701	104.45
819.879	8.19
820.058	38.91
820.236	-53.25
820.414	-26.62
820.592	110.59
820.77	6.14
820.948	45.06
821.127	49.15
821.305	69.63
821.483	-20.48
821.661	79.87
821.839	51.2
822.017	81.92
822.195	8.19
822.373	-10.24
822.551	36.86
822.729	20.48
822.907	71.68
823.085	122.88
823.262	-69.63
823.44	55.3
823.618	49.15
823.796	6.14
823.974	55.3
824.152	57.34
824.329	43.01
824.507	49.15
824.685	61.44
824.863	94.21
825.04	2.05
825.218	45.06
825.396	32.77
825.574	81.92
825.751	51.2
825.929	36.86
826.107	71.68
826.284	106.49
826.462	26.62
826.639	20.48
826.817	-6.14
826.994	20.48
827.172	34.82
827.349	83.97
827.527	86.01
827.704	32.77
827.882	100.35
828.059	49.15
828.237	-53.25
828.414	20.48
828.591	47.1
828.769	65.54
828.946	-14.34
829.124	47.1
829.301	59.39
829.478	65.54
829.655	32.77
829.833	24.58
830.01	55.3
830.187	75.77
830.364	79.87
830.542	-24.58
830.719	57.34
830.896	22.53
831.073	81.92
831.25	67.58
831.427	59.39
831.604	4.1
831.782	73.73
831.959	110.59
832.136	14.34
832.313	73.73
832.49	-2.05
832.667	24.58
832.844	22.53
833.021	65.54
833.198	61.44
833.374	61.44
833.551	28.67
833.728	28.67
833.905	-8.19
834.082	-61.44
834.259	69.63
834.436	-16.38
834.612	22.53
834.789	4.1
834.966	36.86
835.143	-43.01
835.319	8.19
835.496	67.58
835.673	-4.1
835.85	0
836.026	16.38
836.203	32.77
836.38	71.68
836.556	47.1
836.733	53.25
836.909	51.2
837.086	34.82
837.262	22.53
837.439	112.64
837.616	-59.39
837.792	45.06
837.968	2.05
838.145	61.44
838.321	77.82
838.498	-43.01
838.674	0
838.851	16.38
839.027	110.59
839.203	-14.34
839.38	-2.05
839.556	12.29
839.732	4.1
839.909	-10.24
840.085	65.54
840.261	32.77
840.437	-12.29
840.614	-16.38
840.79	75.77
840.966	4.1
841.142	98.3
841.318	12.29
841.494	-55.3
841.671	49.15
841.847	-59.39
842.023	22.53
842.199	69.63
842.375	24.58
842.551	77.82
842.727	34.82
842.903	22.53
843.079	-24.58
843.255	0
843.431	2.05
843.607	-36.86
843.783	-8.19
843.959	-16.38
844.134	-6.14
844.31	40.96
844.486	-8.19
844.662	22.53
844.838	4.1
845.013	53.25
845.189	-18.43
845.365	-20.48
845.541	51.2
845.716	69.63
845.892	53.25
846.068	12.29
846.244	-2.05
846.419	59.39
846.595	26.62
846.77	38.91
846.946	20.48
847.122	-4.1
847.297	47.1
847.473	63.49
847.648	28.67
847.824	96.25
847.999	-59.39
848.175	-28.67
848.35	102.4
848.526	45.06
848.701	-14.34
848.876	2.05
849.052	8.19
849.227	47.1
849.403	71.68
849.578	-73.73
849.753	61.44
849.929	12.29
850.104	67.58
850.279	22.53
850.454	-4.1
850.63	36.86
850.805	14.34
850.98	-22.53
851.155	-4.1
851.33	38.91
851.505	45.06
851.681	59.39
851.856	24.58
852.031	30.72
852.206	-22.53
852.381	51.2
852.556	-18.43
852.731	-55.3
852.906	34.82
853.081	14.34
853.256	26.62
853.431	24.58
853.606	43.01
853.781	45.06
853.956	43.01
854.131	18.43
854.305	-36.86
854.48	2.05
854.655	14.34
854.83	12.29
855.005	-43.01
855.18	28.67
855.354	2.05
855.529	61.44
855.704	-34.82
855.879	26.62
856.053	22.53
856.228	32.77
856.403	-32.77
856.577	-8.19
856.752	-20.48
856.926	63.49
857.101	20.48
857.276	61.44
857.45	32.77
857.625	16.38
857.799	20.48
857.974	14.34
858.148	-10.24
858.323	22.53
858.497	20.48
858.672	-8.19
858.846	-24.58
859.02	16.38
859.195	-30.72
859.369	28.67
859.543	24.58
859.718	59.39
859.892	4.1
860.066	18.43
860.241	0
860.415	10.24
860.589	-18.43
860.763	16.38
860.938	-81.92
861.112	-32.77
861.286	26.62
861.46	24.58
861.634	-51.2
861.808	47.1
861.982	12.29
862.157	-22.53
862.331	-34.82
862.505	61.44
862.679	-53.25
862.853	2.05
863.027	-32.77
863.201	14.34
863.375	-2.05
863.549	-28.67
863.722	10.24
863.896	-55.3
864.07	-32.77
864.244	32.77
864.418	-16.38
864.592	22.53
864.766	-10.24
864.939	30.72
865.113	-10.24
865.287	28.67
865.461	-32.77
865.634	4.1
865.808	-6.14
865.982	-8.19
866.156	-24.58
866.329	69.63
866.503	-26.62
866.676	22.53
866.85	12.29
867.024	51.2
867.197	-43.01
867.371	53.25
867.544	24.58
867.718	-10.24
867.891	-53.25
868.065	43.01
868.238	38.91
868.412	-4.1
868.585	22.53
868.759	-34.82
868.932	20.48
869.105	8.19
869.279	18.43
869.452	-20.48
869.625	34.82
869.799	-22.53
869.972	-18.43
870.145	20.48
870.319	-40.96
870.492	-20.48
870.665	-43.01
870.838	-14.34
871.011	-71.68
871.185	65.54
871.358	28.67
871.531	-28.67
871.704	34.82
871.877	-2.05
872.05	16.38
872.223	-47.1
872.396	-69.63
872.569	8.19
872.742	-69.63
872.915	-18.43
873.088	24.58
873.261	51.2
873.434	14.34
873.607	-12.29
873.78	6.14
873.953	36.86
874.126	36.86
874.299	40.96
874.471	-26.62
874.644	-38.91
874.817	-26.62
874.99	-40.96
875.163	-53.25
875.335	8.19
875.508	47.1
875.681	6.14
875.853	59.39
876.026	38.91
876.199	-14.34
876.371	-102.4
876.544	-86.01
876.717	-18.43
876.889	20.48
877.062	67.58
877.234	-24.58
877.407	-12.29
877.579	24.58
877.752	0
877.924	2.05
878.097	49.15
878.269	-79.87
878.442	-14.34
878.614	-59.39
878.786	10.24
878.959	6.14
879.131	-49.15
879.303	2.05
879.476	59.39
879.648	10.24
879.82	-18.43
879.993	20.48
880.165	-14.34
880.337	-94.21
880.509	4.1
880.681	-67.58
880.854	-38.91
881.026	-38.91
881.198	28.67
881.37	-14.34
881.542	6.14
881.714	24.58
881.886	30.72
882.058	10.24
882.23	-10.24
882.402	22.53
882.574	100.35
882.746	-26.62
882.918	8.19
883.09	-16.38
883.262	-28.67
883.434	-12.29
883.606	28.67
883.778	-45.06
883.95	28.67
884.122	-53.25
884.293	-20.48
884.465	-43.01
884.637	79.87
884.809	6.14
884.98	-22.53
885.152	-20.48
885.324	98.3
885.496	0
885.667	-28.67
885.839	43.01
886.011	-20.48
886.182	-4.1
886.354	14.34
886.525	45.06
886.697	-30.72
886.869	10.24
887.04	24.58
887.212	-28.67
887.383	-6.14
887.555	-20.48
887.726	61.44
887.897	-28.67
888.069	14.34
888.24	-8.19
888.412	-24.58
888.583	-59.39
888.754	28.67
888.926	2.05
889.097	32.77
889.268	71.68
889.44	24.58
889.611	10.24
889.782	28.67
889.953	-2.05
890.125	0
890.296	-53.25
890.467	-4.1
890.638	34.82
890.809	-20.48
890.98	18.43
891.151	-28.67
891.323	65.54
891.494	-22.53
891.665	12.29
891.836	28.67
892.007	14.34
892.178	45.06
892.349	0
892.52	12.29
892.691	49.15
892.862	-40.96
893.032	-16.38
893.203	-75.77
893.374	-59.39
893.545	8.19
893.716	-49.15
893.887	18.43
894.057	-38.91
894.228	-40.96
894.399	-2.05
894.57	43.01
894.74	-38.91
894.911	-34.82
895.082	-12.29
895.253	-18.43
895.423	0
895.594	-51.2
895.764	-2.05
895.935	12.29
896.106	10.24
896.276	32.77
896.447	65.54
896.617	-34.82
896.788	-20.48
896.958	-16.38
897.129	-79.87
897.299	-43.01
897.47	-34.82
897.64	53.25
897.81	-14.34
897.981	24.58
898.151	8.19
898.322	20.48
898.492	-61.44
898.662	-32.77
898.832	2.05
899.003	12.29
899.173	18.43
899.343	-26.62
899.513	-12.29
