Data from USB4F104151__91__12-54-52-097.txt Node

Date: Fri Mar 14 12:54:52 EDT 2025
User: louis
Spectrometer: USB4F10415
Trigger mode: 4
Integration Time (sec): 1.000000E-2
Scans to average: 1
Electric dark correction enabled: true
Nonlinearity correction enabled: false
Boxcar width: 0
XAxis mode: Wavelengths
Number of Pixels in Spectrum: 3648
>>>>>Begin Spectral Data<<<<<
178.204	-8.02
178.424	-8.02
178.644	-8.02
178.864	20.65
179.084	-81.75
179.304	43.18
179.524	69.8
179.744	-65.36
179.964	22.7
180.184	-30.55
180.404	-12.12
180.624	34.99
180.844	-22.36
181.064	-12.12
181.283	-30.55
181.503	20.65
181.723	-18.26
181.943	6.31
182.163	10.41
182.383	18.6
182.602	20.65
182.822	69.8
183.042	10.41
183.262	110.76
183.482	39.08
183.701	61.61
183.921	26.79
184.141	22.7
184.361	53.42
184.58	16.55
184.8	30.89
185.02	49.32
185.239	75.95
185.459	-3.93
185.679	45.23
185.898	22.7
186.118	4.27
186.338	8.36
186.557	94.38
186.777	24.75
186.997	-20.31
187.216	24.75
187.436	84.14
187.655	57.51
187.875	-5.97
188.095	30.89
188.314	-1.88
188.534	73.9
188.753	-5.97
188.973	0.17
189.192	41.13
189.412	22.7
189.631	69.8
189.851	2.22
190.07	67.75
190.29	22.7
190.509	-5.97
190.729	6.31
190.948	80.04
191.168	75.95
191.387	24.75
191.607	49.32
191.826	57.51
192.045	24.75
192.265	43.18
192.484	28.84
192.704	12.46
192.923	39.08
193.142	-3.93
193.362	49.32
193.581	75.95
193.8	65.71
194.02	8.36
194.239	-5.97
194.458	-18.26
194.678	-112.47
194.897	67.75
195.116	39.08
195.335	51.37
195.555	12.46
195.774	45.23
195.993	-51.03
196.212	-26.45
196.432	-3.93
196.651	26.79
196.87	51.37
197.089	127.14
197.308	14.51
197.528	49.32
197.747	4.27
197.966	8.36
198.185	14.51
198.404	65.71
198.623	-57.17
198.842	98.47
199.062	26.79
199.281	37.03
199.5	0.17
199.719	55.47
199.938	49.32
200.157	41.13
200.376	-1.88
200.595	121
200.814	51.37
201.033	65.71
201.252	-30.55
201.471	-10.07
201.69	90.28
201.909	20.65
202.128	-8.02
202.347	-20.31
202.566	-8.02
202.785	-32.6
203.004	-12.12
203.223	30.89
203.442	39.08
203.661	45.23
203.879	-42.84
204.098	67.75
204.317	10.41
204.536	39.08
204.755	24.75
204.974	8.36
205.193	-1.88
205.411	51.37
205.63	-5.97
205.849	30.89
206.068	0.17
206.287	14.51
206.505	-48.98
206.724	37.03
206.943	8.36
207.162	2.22
207.381	24.75
207.599	26.79
207.818	61.61
208.037	37.03
208.255	45.23
208.474	65.71
208.693	22.7
208.911	39.08
209.13	39.08
209.349	77.99
209.567	8.36
209.786	12.46
210.005	2.22
210.223	67.75
210.442	20.65
210.661	16.55
210.879	20.65
211.098	86.19
211.316	32.94
211.535	61.61
211.753	-8.02
211.972	108.71
212.191	-32.6
212.409	55.47
212.628	20.65
212.846	41.13
213.065	14.51
213.283	32.94
213.502	-38.74
213.72	32.94
213.938	14.51
214.157	55.47
214.375	0.17
214.594	75.95
214.812	8.36
215.031	14.51
215.249	75.95
215.467	4.27
215.686	-3.93
215.904	82.09
216.122	-1.88
216.341	10.41
216.559	18.6
216.778	34.99
216.996	8.36
217.214	-12.12
217.432	26.79
217.651	26.79
217.869	32.94
218.087	2.22
218.306	18.6
218.524	-10.07
218.742	86.19
218.96	51.37
219.179	30.89
219.397	-20.31
219.615	57.51
219.833	51.37
220.051	-18.26
220.27	49.32
220.488	-100.18
220.706	-46.93
220.924	18.6
221.142	84.14
221.36	98.47
221.578	102.57
221.796	24.75
222.015	-34.64
222.233	-20.31
222.451	51.37
222.669	16.55
222.887	0.17
223.105	2.22
223.323	45.23
223.541	28.84
223.759	30.89
223.977	0.17
224.195	-8.02
224.413	75.95
224.631	59.56
224.849	-22.36
225.067	12.46
225.285	47.27
225.503	28.84
225.721	-53.08
225.939	28.84
226.157	-18.26
226.375	104.62
226.592	10.41
226.81	34.99
227.028	102.57
227.246	63.66
227.464	16.55
227.682	28.84
227.9	18.6
228.117	57.51
228.335	-22.36
228.553	77.99
228.771	2.22
228.989	-44.88
229.206	18.6
229.424	92.33
229.642	34.99
229.86	53.42
230.077	20.65
230.295	12.46
230.513	-5.97
230.731	18.6
230.948	20.65
231.166	51.37
231.384	32.94
231.601	12.46
231.819	53.42
232.037	34.99
232.254	18.6
232.472	26.79
232.689	2.22
232.907	69.8
233.125	-5.97
233.342	18.6
233.56	-1.88
233.777	6.31
233.995	39.08
234.213	8.36
234.43	-61.27
234.648	24.75
234.865	16.55
235.083	16.55
235.3	6.31
235.518	-10.07
235.735	2.22
235.953	22.7
236.17	30.89
236.388	59.56
236.605	-12.12
236.822	-5.97
237.04	51.37
237.257	123.05
237.475	41.13
237.692	32.94
237.909	16.55
238.127	24.75
238.344	4.27
238.562	63.66
238.779	-22.36
238.996	16.55
239.214	28.84
239.431	39.08
239.648	30.89
239.865	88.23
240.083	61.61
240.3	-5.97
240.517	34.99
240.735	65.71
240.952	84.14
241.169	41.13
241.386	-8.02
241.603	53.42
241.821	75.95
242.038	32.94
242.255	30.89
242.472	43.18
242.689	32.94
242.907	30.89
243.124	28.84
243.341	-38.74
243.558	26.79
243.775	41.13
243.992	14.51
244.209	47.27
244.426	55.47
244.643	71.85
244.86	24.75
245.078	55.47
245.295	82.09
245.512	14.51
245.729	63.66
245.946	80.04
246.163	-48.98
246.38	41.13
246.597	-14.17
246.814	80.04
247.031	-5.97
247.248	-5.97
247.464	0.17
247.681	26.79
247.898	-1.88
248.115	2.22
248.332	55.47
248.549	71.85
248.766	80.04
248.983	53.42
249.2	2.22
249.417	10.41
249.633	-10.07
249.85	55.47
250.067	20.65
250.284	118.95
250.501	-3.93
250.717	49.32
250.934	75.95
251.151	26.79
251.368	22.7
251.585	12.46
251.801	57.51
252.018	-30.55
252.235	41.13
252.451	26.79
252.668	65.71
252.885	-24.4
253.102	32.94
253.318	73.9
253.535	67.75
253.752	-14.17
253.968	8.36
254.185	34.99
254.401	63.66
254.618	-26.45
254.835	-42.84
255.051	39.08
255.268	45.23
255.484	30.89
255.701	-32.6
255.917	77.99
256.134	2.22
256.351	8.36
256.567	57.51
256.784	49.32
257	10.41
257.217	49.32
257.433	18.6
257.65	34.99
257.866	-16.21
258.082	90.28
258.299	-44.88
258.515	51.37
258.732	43.18
258.948	0.17
259.165	90.28
259.381	-22.36
259.597	-44.88
259.814	75.95
260.03	88.23
260.246	-26.45
260.463	94.38
260.679	80.04
260.895	4.27
261.112	-22.36
261.328	-44.88
261.544	8.36
261.761	45.23
261.977	39.08
262.193	22.7
262.409	-22.36
262.626	-36.69
262.842	8.36
263.058	90.28
263.274	8.36
263.49	86.19
263.707	57.51
263.923	73.9
264.139	51.37
264.355	53.42
264.571	69.8
264.787	16.55
265.004	16.55
265.22	-26.45
265.436	-12.12
265.652	20.65
265.868	61.61
266.084	28.84
266.3	47.27
266.516	24.75
266.732	-3.93
266.948	32.94
267.164	-28.5
267.38	20.65
267.596	18.6
267.812	32.94
268.028	90.28
268.244	26.79
268.46	108.71
268.676	26.79
268.892	-12.12
269.108	-28.5
269.324	53.42
269.54	65.71
269.756	47.27
269.972	18.6
270.188	34.99
270.403	32.94
270.619	6.31
270.835	-18.26
271.051	80.04
271.267	2.22
271.483	24.75
271.698	24.75
271.914	32.94
272.13	28.84
272.346	49.32
272.562	8.36
272.777	24.75
272.993	16.55
273.209	-40.79
273.425	75.95
273.64	4.27
273.856	77.99
274.072	49.32
274.287	28.84
274.503	-1.88
274.719	18.6
274.934	75.95
275.15	14.51
275.366	28.84
275.581	24.75
275.797	-28.5
276.012	22.7
276.228	45.23
276.444	-12.12
276.659	45.23
276.875	20.65
277.09	49.32
277.306	28.84
277.521	53.42
277.737	-22.36
277.952	32.94
278.168	-32.6
278.383	69.8
278.599	43.18
278.814	71.85
279.03	-10.07
279.245	22.7
279.461	14.51
279.676	55.47
279.892	16.55
280.107	14.51
280.322	57.51
280.538	43.18
280.753	41.13
280.969	26.79
281.184	-26.45
281.399	45.23
281.615	94.38
281.83	73.9
282.045	-51.03
282.26	10.41
282.476	73.9
282.691	80.04
282.906	-3.93
283.122	0.17
283.337	30.89
283.552	-28.5
283.767	30.89
283.983	77.99
284.198	-32.6
284.413	8.36
284.628	-10.07
284.843	41.13
285.058	61.61
285.274	20.65
285.489	37.03
285.704	51.37
285.919	41.13
286.134	24.75
286.349	14.51
286.564	67.75
286.779	57.51
286.995	-24.4
287.21	98.47
287.425	32.94
287.64	47.27
287.855	14.51
288.07	69.8
288.285	8.36
288.5	75.95
288.715	67.75
288.93	84.14
289.145	69.8
289.36	65.71
289.575	14.51
289.79	-24.4
290.004	32.94
290.219	73.9
290.434	96.43
290.649	4.27
290.864	10.41
291.079	34.99
291.294	14.51
291.509	-44.88
291.724	57.51
291.938	8.36
292.153	88.23
292.368	18.6
292.583	0.17
292.798	-12.12
293.012	16.55
293.227	-10.07
293.442	24.75
293.657	-8.02
293.871	100.52
294.086	102.57
294.301	55.47
294.516	-8.02
294.73	20.65
294.945	67.75
295.16	0.17
295.374	108.71
295.589	41.13
295.804	43.18
296.018	26.79
296.233	26.79
296.447	16.55
296.662	45.23
296.877	-24.4
297.091	20.65
297.306	51.37
297.52	39.08
297.735	12.46
297.949	26.79
298.164	-8.02
298.378	12.46
298.593	28.84
298.807	-59.22
299.022	47.27
299.236	121
299.451	55.47
299.665	-42.84
299.88	16.55
300.094	73.9
300.309	108.71
300.523	96.43
300.737	4.27
300.952	32.94
301.166	67.75
301.381	-55.12
301.595	59.56
301.809	26.79
302.024	41.13
302.238	55.47
302.452	55.47
302.667	-36.69
302.881	59.56
303.095	20.65
303.309	51.37
303.524	94.38
303.738	43.18
303.952	37.03
304.166	77.99
304.381	20.65
304.595	69.8
304.809	4.27
305.023	67.75
305.237	110.76
305.452	65.71
305.666	2.22
305.88	100.52
306.094	-1.88
306.308	55.47
306.522	32.94
306.736	96.43
306.95	37.03
307.164	8.36
307.379	49.32
307.593	26.79
307.807	82.09
308.021	49.32
308.235	14.51
308.449	100.52
308.663	53.42
308.877	92.33
309.091	2.22
309.305	114.86
309.519	20.65
309.733	-1.88
309.947	59.56
310.161	49.32
310.374	49.32
310.588	43.18
310.802	-26.45
311.016	20.65
311.23	80.04
311.444	32.94
311.658	28.84
311.872	88.23
312.085	90.28
312.299	63.66
312.513	-53.08
312.727	12.46
312.941	69.8
313.154	14.51
313.368	114.86
313.582	47.27
313.796	69.8
314.009	98.47
314.223	69.8
314.437	39.08
314.651	92.33
314.864	45.23
315.078	30.89
315.292	30.89
315.505	41.13
315.719	49.32
315.933	94.38
316.146	51.37
316.36	16.55
316.573	65.71
316.787	-38.74
317.001	30.89
317.214	12.46
317.428	-26.45
317.641	32.94
317.855	20.65
318.068	30.89
318.282	59.56
318.495	24.75
318.709	75.95
318.922	65.71
319.136	-3.93
319.349	10.41
319.563	0.17
319.776	41.13
319.99	14.51
320.203	-34.64
320.417	30.89
320.63	41.13
320.843	32.94
321.057	51.37
321.27	51.37
321.483	16.55
321.697	-8.02
321.91	-26.45
322.124	65.71
322.337	41.13
322.55	12.46
322.763	-71.51
322.977	-5.97
323.19	8.36
323.403	67.75
323.617	-8.02
323.83	77.99
324.043	28.84
324.256	61.61
324.469	37.03
324.683	-32.6
324.896	82.09
325.109	39.08
325.322	18.6
325.535	55.47
325.748	24.75
325.962	57.51
326.175	-5.97
326.388	73.9
326.601	92.33
326.814	30.89
327.027	18.6
327.24	20.65
327.453	-14.17
327.666	96.43
327.879	14.51
328.092	86.19
328.305	-8.02
328.518	47.27
328.731	123.05
328.944	32.94
329.157	-32.6
329.37	57.51
329.583	30.89
329.796	82.09
330.009	-34.64
330.222	30.89
330.435	55.47
330.648	84.14
330.861	-32.6
331.073	104.62
331.286	55.47
331.499	114.86
331.712	63.66
331.925	34.99
332.138	57.51
332.35	-8.02
332.563	88.23
332.776	28.84
332.989	41.13
333.202	10.41
333.414	6.31
333.627	51.37
333.84	12.46
334.053	39.08
334.265	8.36
334.478	16.55
334.691	28.84
334.903	28.84
335.116	14.51
335.329	10.41
335.541	-10.07
335.754	98.47
335.966	77.99
336.179	45.23
336.392	16.55
336.604	-16.21
336.817	28.84
337.029	55.47
337.242	16.55
337.454	57.51
337.667	49.32
337.88	65.71
338.092	59.56
338.305	57.51
338.517	-42.84
338.729	92.33
338.942	63.66
339.154	20.65
339.367	53.42
339.579	24.75
339.792	39.08
340.004	-14.17
340.217	-20.31
340.429	69.8
340.641	32.94
340.854	-28.5
341.066	34.99
341.278	84.14
341.491	51.37
341.703	102.57
341.915	2.22
342.128	34.99
342.34	67.75
342.552	110.76
342.764	51.37
342.977	55.47
343.189	51.37
343.401	-16.21
343.613	-16.21
343.826	20.65
344.038	49.32
344.25	49.32
344.462	-28.5
344.674	20.65
344.886	41.13
345.099	37.03
345.311	-20.31
345.523	86.19
345.735	-8.02
345.947	43.18
346.159	28.84
346.371	0.17
346.583	80.04
346.795	63.66
347.007	-32.6
347.219	51.37
347.431	65.71
347.643	0.17
347.855	57.51
348.067	14.51
348.279	4.27
348.491	49.32
348.703	16.55
348.915	24.75
349.127	55.47
349.339	26.79
349.551	51.37
349.763	61.61
349.975	51.37
350.187	18.6
350.399	82.09
350.61	-28.5
350.822	51.37
351.034	18.6
351.246	-5.97
351.458	8.36
351.669	-5.97
351.881	55.47
352.093	6.31
352.305	98.47
352.517	43.18
352.728	32.94
352.94	84.14
353.152	49.32
353.363	26.79
353.575	69.8
353.787	16.55
353.999	53.42
354.21	53.42
354.422	86.19
354.633	26.79
354.845	41.13
355.057	49.32
355.268	55.47
355.48	63.66
355.692	112.81
355.903	96.43
356.115	14.51
356.326	102.57
356.538	0.17
356.749	59.56
356.961	24.75
357.172	-30.55
357.384	94.38
357.595	16.55
357.807	57.51
358.018	37.03
358.23	2.22
358.441	10.41
358.653	8.36
358.864	32.94
359.075	-34.64
359.287	71.85
359.498	69.8
359.709	12.46
359.921	18.6
360.132	59.56
360.344	59.56
360.555	55.47
360.766	92.33
360.977	45.23
361.189	65.71
361.4	73.9
361.611	32.94
361.823	16.55
362.034	41.13
362.245	14.51
362.456	12.46
362.667	8.36
362.879	77.99
363.09	20.65
363.301	114.86
363.512	26.79
363.723	57.51
363.935	8.36
364.146	4.27
364.357	2.22
364.568	37.03
364.779	-1.88
364.99	59.56
365.201	10.41
365.412	-16.21
365.623	51.37
365.834	141.48
366.045	4.27
366.256	43.18
366.467	-5.97
366.678	59.56
366.889	2.22
367.1	61.61
367.311	82.09
367.522	59.56
367.733	43.18
367.944	59.56
368.155	75.95
368.366	90.28
368.577	45.23
368.788	34.99
368.999	53.42
369.209	86.19
369.42	0.17
369.631	80.04
369.842	16.55
370.053	12.46
370.264	-1.88
370.474	0.17
370.685	-5.97
370.896	20.65
371.107	4.27
371.317	65.71
371.528	43.18
371.739	45.23
371.95	53.42
372.16	8.36
372.371	61.61
372.582	14.51
372.792	84.14
373.003	32.94
373.214	57.51
373.424	51.37
373.635	-5.97
373.846	82.09
374.056	-16.21
374.267	45.23
374.477	24.75
374.688	-22.36
374.898	75.95
375.109	26.79
375.319	80.04
375.53	-3.93
375.74	71.85
375.951	104.62
376.161	22.7
376.372	18.6
376.582	2.22
376.793	32.94
377.003	53.42
377.214	-8.02
377.424	80.04
377.635	37.03
377.845	77.99
378.055	59.56
378.266	65.71
378.476	20.65
378.686	59.56
378.897	80.04
379.107	67.75
379.317	0.17
379.528	24.75
379.738	-1.88
379.948	39.08
380.158	14.51
380.369	55.47
380.579	51.37
380.789	-5.97
380.999	6.31
381.21	2.22
381.42	71.85
381.63	34.99
381.84	-8.02
382.05	0.17
382.261	98.47
382.471	32.94
382.681	59.56
382.891	63.66
383.101	-16.21
383.311	-24.4
383.521	34.99
383.731	55.47
383.941	67.75
384.151	10.41
384.361	16.55
384.571	55.47
384.781	41.13
384.991	43.18
385.201	118.95
385.411	69.8
385.621	32.94
385.831	24.75
386.041	10.41
386.251	20.65
386.461	37.03
386.671	-20.31
386.881	71.85
387.091	65.71
387.301	59.56
387.511	69.8
387.72	82.09
387.93	-1.88
388.14	30.89
388.35	41.13
388.56	32.94
388.769	22.7
388.979	34.99
389.189	26.79
389.399	16.55
389.609	59.56
389.818	47.27
390.028	-22.36
390.238	0.17
390.447	22.7
390.657	53.42
390.867	71.85
391.076	55.47
391.286	63.66
391.496	63.66
391.705	108.71
391.915	82.09
392.125	55.47
392.334	45.23
392.544	98.47
392.753	80.04
392.963	41.13
393.172	28.84
393.382	114.86
393.591	67.75
393.801	67.75
394.01	51.37
394.22	67.75
394.429	106.67
394.639	0.17
394.848	39.08
395.058	127.14
395.267	73.9
395.477	57.51
395.686	86.19
395.895	6.31
396.105	88.23
396.314	-16.21
396.524	137.38
396.733	67.75
396.942	118.95
397.152	77.99
397.361	121
397.57	26.79
397.78	-34.64
397.989	59.56
398.198	143.53
398.407	65.71
398.617	43.18
398.826	2.22
399.035	-5.97
399.244	53.42
399.453	59.56
399.663	10.41
399.872	112.81
400.081	65.71
400.29	59.56
400.499	102.57
400.708	114.86
400.917	26.79
401.127	123.05
401.336	112.81
401.545	-8.02
401.754	22.7
401.963	26.79
402.172	-55.12
402.381	106.67
402.59	80.04
402.799	112.81
403.008	59.56
403.217	47.27
403.426	108.71
403.635	26.79
403.844	-5.97
404.053	73.9
404.262	80.04
404.471	67.75
404.68	96.43
404.888	55.47
405.097	92.33
405.306	41.13
405.515	86.19
405.724	94.38
405.933	141.48
406.142	131.24
406.35	98.47
406.559	172.2
406.768	39.08
406.977	98.47
407.185	112.81
407.394	100.52
407.603	114.86
407.812	174.25
408.02	51.37
408.229	166.06
408.438	127.14
408.646	176.3
408.855	123.05
409.064	176.3
409.272	151.72
409.481	233.64
409.69	127.14
409.898	178.34
410.107	164.01
410.315	194.73
410.524	121
410.733	182.44
410.941	202.92
411.15	196.78
411.358	159.91
411.567	207.02
411.775	256.17
411.984	243.88
412.192	237.74
412.401	211.11
412.609	209.06
412.818	282.79
413.026	223.4
413.234	233.64
413.443	250.02
413.651	256.17
413.86	321.7
414.068	340.13
414.276	366.76
414.485	274.6
414.693	309.41
414.901	409.76
415.11	364.71
415.318	329.89
415.526	356.52
415.734	368.81
415.943	436.39
416.151	374.95
416.359	422.05
416.567	467.11
416.776	422.05
416.984	432.29
417.192	497.83
417.4	522.4
417.608	503.97
417.817	516.26
418.025	600.23
418.233	616.61
418.441	534.69
418.649	643.23
418.857	585.89
419.065	686.24
419.273	604.32
419.481	676
419.689	729.25
419.897	657.57
420.105	641.18
420.313	784.54
420.521	723.1
420.729	774.3
420.937	854.17
421.145	932
421.353	985.24
421.561	964.76
421.769	975
421.977	1028.25
422.185	1026.2
422.393	1061.02
422.601	1157.27
422.809	1161.37
423.017	1200.28
423.224	1239.19
423.432	1190.04
423.64	1241.24
423.848	1372.31
424.056	1300.63
424.263	1460.37
424.471	1474.71
424.679	1435.8
424.887	1573.01
425.094	1589.39
425.302	1634.45
425.51	1616.02
425.718	1767.57
425.925	1751.18
426.133	1763.47
426.341	1869.97
426.548	1994.89
426.756	1939.6
426.964	1974.41
427.171	2115.72
427.379	2152.59
427.586	2164.87
427.794	2259.08
428.001	2367.62
428.209	2408.58
428.417	2265.22
428.624	2611.33
428.832	2564.23
429.039	2568.32
429.247	2576.52
429.454	2801.79
429.662	2994.3
429.869	2670.72
430.076	3057.79
430.284	3000.44
430.491	3020.92
430.699	3195
430.906	3154.04
431.114	3340.41
431.321	3371.13
431.528	3526.77
431.736	3571.83
431.943	3760.24
432.15	3678.32
432.358	3879.02
432.565	4108.4
432.772	4016.24
432.979	4120.68
433.187	4233.32
433.394	4200.55
433.601	4558.95
433.808	4694.12
434.016	4573.28
434.223	4866.14
434.43	4986.97
434.637	4816.99
434.844	5298.27
435.052	5161.05
435.259	5390.42
435.466	5460.06
435.673	5339.23
435.88	5662.8
436.087	5953.62
436.294	5967.95
436.501	5826.64
436.708	5949.52
436.915	6150.22
437.122	6398.03
437.329	6332.49
437.537	6619.21
437.743	6781
437.95	6772.8
438.157	6914.11
438.364	7243.84
438.571	7305.28
438.778	7346.23
438.985	8124.46
439.192	7645.24
439.399	7907.38
439.606	7753.78
439.813	7987.25
440.02	8642.6
440.227	8505.38
440.433	8292.4
440.64	8712.23
440.847	8593.45
441.054	8798.24
441.261	9316.38
441.467	9424.92
441.674	9601.05
441.881	9889.81
442.088	9895.96
442.294	9709.59
442.501	9977.87
442.708	10424.33
442.914	10661.9
443.121	11040.77
443.328	10711.05
443.534	11583.48
443.741	11075.59
443.948	10932.23
444.154	11730.94
444.361	12066.8
444.568	11978.74
444.774	11943.92
444.981	12189.68
445.187	12230.64
445.394	12900.33
445.6	12851.17
445.807	14049.24
446.013	13633.5
446.22	13752.28
446.426	14211.03
446.633	14387.15
446.839	15052.74
447.046	14086.1
447.252	14964.68
447.459	15105.99
447.665	14995.4
447.871	15771.58
448.078	16662.44
448.284	15429.57
448.491	15943.61
448.697	16715.69
448.903	16846.76
449.11	17215.4
449.316	16863.15
449.522	16930.73
449.728	17514.4
449.935	17704.86
450.141	17559.45
450.347	18212.76
450.553	17579.93
450.76	17956.76
450.966	18313.11
451.172	18233.24
451.378	18567.06
451.584	18247.57
451.791	18804.62
451.997	18802.57
452.203	19109.77
452.409	19230.6
452.615	18812.81
452.821	18130.84
453.027	18001.82
453.233	19091.34
453.44	18286.48
453.646	18546.58
453.852	18507.66
454.058	18988.94
454.264	18030.49
454.47	18581.39
454.676	18038.68
454.882	18788.24
455.088	17590.17
455.294	17383.33
455.5	17735.58
455.705	17794.97
455.911	17221.54
456.117	16834.47
456.323	16678.83
456.529	15937.46
456.735	16641.96
456.941	16023.48
457.147	15943.61
457.352	15400.9
457.558	15212.48
457.764	15230.91
457.97	15030.21
458.176	14600.14
458.381	14532.56
458.587	13762.52
458.793	14075.86
458.999	13311.97
459.204	14041.04
459.41	13516.76
459.616	12687.34
459.821	12867.56
460.027	12759.02
460.233	12509.16
460.438	11882.49
460.644	11827.19
460.85	11630.59
461.055	11155.46
461.261	11364.35
461.466	10475.53
461.672	10088.46
461.878	11022.34
462.083	10237.97
462.289	9920.53
462.494	9721.88
462.7	9324.57
462.905	9201.69
463.111	9504.79
463.316	9682.97
463.522	9187.36
463.727	9441.31
463.932	9373.72
464.138	9191.45
464.343	9168.93
464.549	9150.5
464.754	9228.32
464.959	8900.64
465.165	9297.95
465.37	8802.34
465.575	8484.91
465.781	8910.88
465.986	8912.93
466.191	8679.46
466.397	8325.16
466.602	8026.16
466.807	8142.89
467.012	8351.79
467.218	8101.94
467.423	8349.74
467.628	8374.31
467.833	8630.31
468.038	8366.12
468.244	8167.47
468.449	8376.36
468.654	8163.37
468.859	8124.46
469.064	8194.09
469.269	7761.97
469.474	7792.69
469.679	7792.69
469.885	7821.36
470.09	7890.99
470.295	7903.28
470.5	7508.02
470.705	7729.2
470.91	7428.15
471.115	7270.46
471.32	7383.1
471.525	7489.59
471.73	7352.38
471.935	7153.73
472.139	6864.96
472.344	7153.73
472.549	6934.59
472.754	7043.14
472.959	6881.35
473.164	6774.85
473.369	6510.66
473.574	6889.54
473.778	6721.6
473.983	6735.94
474.188	6672.45
474.393	6228.04
474.598	6350.92
474.802	6463.56
475.007	6240.33
475.212	6236.24
475.417	6019.15
475.621	6062.16
475.826	5992.53
476.031	5922.9
476.235	5912.66
476.44	6021.2
476.645	5777.49
476.849	5785.68
477.054	5783.63
477.259	5722.2
477.463	5787.73
477.668	5601.37
477.872	5539.93
478.077	5552.21
478.282	5427.29
478.486	5386.33
478.691	5353.56
478.895	5226.59
479.1	5453.91
479.304	5361.75
479.509	5169.24
479.713	5107.8
479.918	5007.45
480.122	5077.09
480.326	5124.19
480.531	5042.27
480.735	5052.51
480.94	4991.07
481.144	5230.68
481.348	4919.39
481.553	4868.19
481.757	4907.1
481.961	4982.88
482.166	4767.84
482.37	5001.31
482.574	4927.58
482.778	4866.14
482.983	4960.35
483.187	4816.99
483.391	4964.45
483.595	4864.1
483.8	4808.8
484.004	4900.96
484.208	4921.44
484.412	4884.58
484.616	4931.68
484.821	4769.89
485.025	4743.27
485.229	4939.87
485.433	4866.14
485.637	5034.08
485.841	4827.23
486.045	4792.42
486.249	4978.78
486.453	4829.28
486.657	4890.72
486.861	4931.68
487.065	4776.03
487.269	4956.26
487.473	4855.9
487.677	4913.25
487.881	4991.07
488.085	4857.95
488.289	4876.38
488.493	4890.72
488.697	4954.21
488.901	4915.3
489.105	4890.72
489.309	4872.29
489.512	4919.39
489.716	4847.71
489.92	5001.31
490.124	5044.32
490.328	5077.09
490.531	5087.33
490.735	5042.27
490.939	5079.13
491.143	5040.22
491.346	5081.18
491.55	5052.51
491.754	5169.24
491.958	5285.98
492.161	5161.05
492.365	5288.03
492.569	5384.28
492.772	5292.12
492.976	5208.16
493.18	5183.58
493.383	5359.7
493.587	5269.59
493.79	5437.53
493.994	5394.52
494.197	5521.49
494.401	5476.44
494.605	5476.44
494.808	5613.65
495.012	5644.37
495.215	5742.68
495.419	5869.65
495.622	5746.77
495.825	5834.83
496.029	5896.27
496.232	5994.58
496.436	5828.69
496.639	6127.69
496.843	6062.16
497.046	6119.5
497.249	6107.21
497.453	6211.66
497.656	6338.63
497.859	6176.84
498.063	6363.21
498.266	6602.82
498.469	6561.86
498.673	6633.54
498.876	6781
499.079	6787.14
499.282	6875.2
499.485	6926.4
499.689	7008.32
499.892	7249.98
500.095	7137.34
500.298	7335.99
500.501	7204.92
500.705	7614.52
500.908	7432.25
501.111	7643.19
501.314	7616.57
501.517	7739.44
501.72	7897.14
501.923	7804.98
502.126	8142.89
502.329	8095.79
502.532	8261.68
502.735	8245.29
502.938	8425.51
503.141	8355.88
503.344	8683.56
503.547	8941.6
503.75	8663.08
503.953	9011.23
504.156	9193.5
504.359	9093.15
504.562	9340.96
504.765	9283.61
504.968	9467.93
505.17	9515.03
505.373	9646.1
505.576	9758.74
505.779	9805.85
505.982	9910.29
506.185	10268.69
506.387	10082.32
506.59	10385.42
506.793	10616.84
506.996	10463.24
507.198	10911.75
507.401	10831.88
507.604	10846.21
507.807	11130.88
508.009	11065.35
508.212	11243.52
508.415	11519.99
508.617	11503.61
508.82	11644.92
509.022	11591.67
509.225	12085.23
509.428	12136.43
509.63	12115.95
509.833	12232.69
510.035	12539.88
510.238	12517.36
510.44	12789.74
510.643	12849.13
510.845	13109.22
511.048	12955.62
511.25	13178.85
511.453	13373.41
511.655	13811.67
511.858	13424.61
512.06	13647.83
512.262	13979.61
512.465	14061.52
512.667	14256.08
512.87	14473.17
513.072	14405.58
513.274	14553.04
513.477	14727.11
513.679	14870.47
513.881	14931.91
514.084	15323.07
514.286	15120.32
514.488	15415.23
514.69	15636.41
514.893	15806.39
515.095	16086.97
515.297	16191.41
515.499	16111.54
515.701	16394.16
515.904	16498.61
516.106	16547.76
516.308	16406.45
516.51	17053.61
516.712	16875.43
516.914	17096.61
517.116	17594.27
517.318	17475.49
517.52	17792.92
517.722	17708.96
517.925	18050.97
518.127	18417.55
518.329	18415.51
518.531	18345.87
518.733	18898.83
518.935	18868.11
519.136	19023.75
519.338	19146.63
519.54	19222.41
519.742	19550.08
519.944	19793.79
520.146	20242.29
520.348	19648.38
520.55	20107.13
520.752	20156.28
520.954	20455.28
521.155	20340.6
521.357	21096.3
521.559	20641.65
521.761	21206.89
521.963	21243.75
522.164	21118.82
522.366	21421.92
522.568	21202.79
522.77	21538.66
522.971	22075.23
523.173	21989.21
523.375	21925.72
523.576	22167.38
523.778	22085.47
523.98	22556.5
524.181	22167.38
524.383	22441.81
524.584	22880.08
524.786	22863.69
524.988	22685.52
525.189	23025.48
525.391	23316.29
525.592	23457.6
525.794	23312.2
525.995	23656.26
526.197	23562.05
526.398	23639.87
526.6	23742.27
526.801	23990.08
527.003	23865.15
527.204	24194.87
527.406	23979.84
527.607	24344.38
527.808	24543.03
528.01	24033.08
528.211	24055.61
528.412	24674.1
528.614	24856.37
528.815	24508.21
529.016	24766.26
529.218	24821.55
529.419	24760.11
529.62	24741.68
529.822	24717.11
530.023	24895.28
530.224	24807.22
530.425	25083.69
530.626	24934.19
530.828	24825.65
531.029	25558.82
531.23	24766.26
531.431	25227.05
531.632	25315.11
531.833	25161.51
532.035	25231.15
532.236	25012.01
532.437	25466.66
532.638	25014.06
532.839	25440.04
533.04	25431.85
533.241	25136.94
533.442	25413.41
533.643	25714.47
533.844	25427.75
534.045	25607.97
534.246	25214.76
534.447	25548.58
534.648	25530.15
534.849	25569.06
535.05	25272.11
535.251	25558.82
535.451	25569.06
535.652	25771.81
535.853	25601.83
536.054	25700.13
536.255	25773.86
536.456	25501.48
536.657	26068.76
536.857	25382.7
537.058	25407.27
537.259	25679.65
537.46	25933.6
537.66	25587.49
537.861	25593.64
538.062	25513.77
538.263	25632.55
538.463	25603.88
538.664	25663.27
538.865	25786.15
539.065	25745.19
539.266	25425.7
539.466	25519.91
539.667	25419.56
539.868	25712.42
540.068	25593.64
540.269	25573.16
540.469	25935.65
540.67	25481
540.87	25530.15
541.071	25460.52
541.271	26076.96
541.472	25669.41
541.672	25472.81
541.873	25681.7
542.073	25315.11
542.274	25683.75
542.474	25464.61
542.675	25337.64
542.875	25698.08
543.075	25741.09
543.276	25102.12
543.476	25638.69
543.676	25421.61
543.877	25591.59
544.077	25470.76
544.277	25456.42
544.478	25505.57
544.678	25429.8
544.878	25294.63
545.078	25569.06
545.279	25339.69
545.479	25220.91
545.679	25306.92
545.879	25450.28
546.079	25433.89
546.28	25274.15
546.48	25130.8
546.68	25603.88
546.88	25509.67
547.08	25556.77
547.28	25343.78
547.48	25409.32
547.68	25268.01
547.88	25087.79
548.081	25429.8
548.281	25122.6
548.481	25364.26
548.681	25796.39
548.881	25464.61
549.081	25468.71
549.28	25036.59
549.48	25413.41
549.68	25358.12
549.88	25564.96
550.08	25157.42
550.28	25292.58
550.48	25202.47
550.68	25239.34
550.88	25298.73
551.08	25321.26
551.279	25339.69
551.479	24887.09
551.679	25155.37
551.879	25411.37
552.079	25394.98
552.278	24960.81
552.478	24962.86
552.678	25296.68
552.878	25483.05
553.077	25390.89
553.277	25067.31
553.477	25057.07
553.676	25032.49
553.876	24835.89
554.076	25044.78
554.275	25022.25
554.475	24653.62
554.674	25206.57
554.874	24889.13
555.074	24950.57
555.273	25192.23
555.473	25110.32
555.672	24934.19
555.872	24966.96
556.071	24835.89
556.271	24942.38
556.47	24622.9
556.67	24534.84
556.869	24581.94
557.068	24854.32
557.268	24493.88
557.467	24784.69
557.667	24780.59
557.866	24567.6
558.065	24624.95
558.265	24258.36
558.464	24534.84
558.663	24661.81
558.863	24244.02
559.062	24702.77
559.261	24342.33
559.461	24610.61
559.66	24323.9
559.859	24348.47
560.058	24524.6
560.258	24471.35
560.457	24104.76
560.656	24469.3
560.855	24080.19
561.054	24377.14
561.253	24272.7
561.453	24094.52
561.652	24246.07
561.851	24000.32
562.05	24139.58
562.249	23916.35
562.448	24110.91
562.647	23873.34
562.846	23906.11
563.045	23742.27
563.244	23609.15
563.443	23897.92
563.642	23605.06
563.841	23803.71
564.04	23748.42
564.239	23906.11
564.438	23301.96
564.637	23547.72
564.836	23404.36
565.035	23213.9
565.234	23365.45
565.432	23195.46
565.631	23191.37
565.83	23383.88
566.029	23379.78
566.228	23209.8
566.427	23203.66
566.625	23129.93
566.824	22939.47
567.023	23437.13
567.222	22951.76
567.42	23119.69
567.619	23267.14
567.818	22859.6
568.016	22832.97
568.215	23041.87
568.414	22869.84
568.612	22972.24
568.811	22742.86
569.01	22810.45
569.208	22613.84
569.407	22777.68
569.605	22400.85
569.804	23025.48
570.002	22540.11
570.201	22769.49
570.4	22040.41
570.598	22171.48
570.797	22241.11
570.995	22171.48
571.193	22165.34
571.392	22329.17
571.59	21847.9
571.789	22210.39
571.987	22097.75
572.186	21845.85
572.384	21847.9
572.582	22112.09
572.781	22142.81
572.979	21628.77
573.177	21755.74
573.376	21921.63
573.574	21688.16
573.772	21964.64
573.971	21444.45
574.169	21608.29
574.367	21161.83
574.565	21866.33
574.763	21258.09
574.962	21127.02
575.16	21008.23
575.358	21124.97
575.556	21073.77
575.754	21088.1
575.952	21120.87
576.151	21182.31
576.349	21153.64
576.547	20885.36
576.745	20975.47
576.943	20979.56
577.141	20688.75
577.339	20793.2
577.537	20635.5
577.735	20805.49
577.933	20361.08
578.131	20764.53
578.329	20711.28
578.527	20164.47
578.725	20146.04
578.923	20588.4
579.121	20217.72
579.319	20008.83
579.516	20344.69
579.714	19908.47
579.912	20027.26
580.11	19824.51
580.308	20162.42
580.506	19982.2
580.704	19726.21
580.901	19621.76
581.099	19728.25
581.297	19586.94
581.495	19490.69
581.692	19615.62
581.89	19419.01
582.088	19703.68
582.285	19294.08
582.483	19525.5
582.681	19277.7
582.878	19408.77
583.076	19165.06
583.274	19210.12
583.471	18954.12
583.669	19197.83
583.866	18712.46
584.064	19068.81
584.262	18728.84
584.459	18915.21
584.657	18702.22
584.854	19040.14
585.052	18485.14
585.249	18565.01
585.447	18642.83
585.644	18382.74
585.841	18712.46
586.039	18614.16
586.236	18216.85
586.434	18636.69
586.631	18243.48
586.828	18569.1
587.026	18374.55
587.223	18390.93
587.42	18010.01
587.618	18194.33
587.815	18122.65
588.012	17956.76
588.21	17899.42
588.407	18345.87
588.604	17846.17
588.801	17850.27
588.999	17692.57
589.196	17770.4
589.393	17426.34
589.59	17762.2
589.787	17514.4
589.984	17426.34
590.182	17375.14
590.379	17610.65
590.576	17383.33
590.773	17424.29
590.97	17260.45
591.167	17389.47
591.364	17246.12
591.561	17248.16
591.758	16928.68
591.955	16900.01
592.152	17113
592.349	16877.48
592.546	17024.93
592.743	16938.92
592.94	16590.77
593.137	16580.53
593.334	16986.02
593.531	16523.18
593.727	16742.32
593.924	16588.72
594.121	16574.38
594.318	16543.66
594.515	16172.98
594.712	16711.6
594.908	16136.12
595.105	16494.51
595.302	16037.81
595.499	16281.52
595.696	15968.18
595.892	16170.93
596.089	16093.11
596.286	16115.64
596.482	16000.95
596.679	16095.16
596.876	16132.02
597.072	15929.27
597.269	16066.49
597.466	15683.52
597.662	15366.08
597.859	15781.82
598.055	15652.8
598.252	15390.66
598.448	15605.69
598.645	15435.71
598.841	15433.66
599.038	15460.29
599.234	15263.68
599.431	15077.32
599.627	15271.87
599.824	15310.79
600.02	15351.74
600.217	15237.06
600.413	14952.39
600.609	14938.05
600.806	14700.49
601.002	15097.8
601.198	14798.79
601.395	14653.39
601.591	14774.22
601.787	14680.01
601.984	14632.91
602.18	14763.98
602.376	14557.13
602.572	14630.86
602.769	14464.97
602.965	14317.52
603.161	14383.06
603.357	14196.69
603.553	14514.13
603.75	14452.69
603.946	14155.73
604.142	14387.15
604.338	13789.14
604.534	14065.62
604.73	14008.28
604.926	13918.17
605.122	13938.65
605.318	13977.56
605.514	13928.41
605.71	14008.28
605.906	13674.46
606.102	13883.35
606.298	13783
606.494	13815.77
606.69	13594.59
606.886	13596.64
607.082	13547.48
607.278	13527
607.474	13600.73
607.67	13527
607.866	13330.4
608.062	13633.5
608.257	13533.15
608.453	13238.24
608.649	13283.3
608.845	13250.53
609.041	13344.74
609.236	13211.62
609.432	13035.49
609.628	13228
609.824	13320.16
610.019	12961.76
610.215	13246.43
610.411	13088.74
610.606	12853.22
610.802	13219.81
610.998	13135.84
611.193	12752.87
611.389	12673
611.584	12765.16
611.78	12910.57
611.976	12738.54
612.171	12603.37
612.367	12750.82
612.562	12783.59
612.758	12396.53
612.953	12543.98
613.149	12722.15
613.344	12384.24
613.539	12632.04
613.735	12394.48
613.93	12734.44
614.126	12347.37
614.321	12718.06
614.517	12519.4
614.712	12445.68
614.907	12224.5
615.103	12353.52
615.298	12195.82
615.493	12232.69
615.688	12023.8
615.884	12408.81
616.079	12189.68
616.274	12285.94
616.47	12105.71
616.665	12109.81
616.86	12099.57
617.055	12054.51
617.25	12036.08
617.445	12009.46
617.641	12034.04
617.836	11911.16
618.031	11917.3
618.226	11847.67
618.421	11816.95
618.616	11833.33
618.811	11739.13
619.006	11864.05
619.201	11339.77
619.396	11663.35
619.591	11558.91
619.786	11573.24
619.981	11347.97
620.176	11276.29
620.371	11339.77
620.566	11372.54
620.761	11100.16
620.956	11358.21
621.151	10958.85
621.346	11073.54
621.541	10756.1
621.735	11061.25
621.93	10655.75
622.125	11030.53
622.32	10772.49
622.515	11001.86
622.709	10809.35
622.904	10614.79
623.099	10489.87
623.294	10678.28
623.488	10596.36
623.683	10366.99
623.878	10352.65
624.072	10371.08
624.267	10512.39
624.462	10102.8
624.656	10199.06
624.851	10274.83
625.046	10016.79
625.24	10076.18
625.435	9986.07
625.629	9951.25
625.824	10035.22
626.018	9707.54
626.213	9453.59
626.407	9777.17
626.602	9650.2
626.796	9672.73
626.991	9646.1
627.185	9572.38
627.38	9461.79
627.574	9316.38
627.768	9340.96
627.963	9334.81
628.157	9191.45
628.352	9070.62
628.546	9031.71
628.74	9074.72
628.935	8826.92
629.129	9177.12
629.323	9101.34
629.517	8771.62
629.712	8814.63
629.906	8945.7
630.1	8478.76
630.294	8761.38
630.489	8601.64
630.683	8536.1
630.877	8435.75
631.071	8513.58
631.265	8509.48
631.459	8491.05
631.653	8402.99
631.848	8392.75
632.042	8341.55
632.236	8398.89
632.43	8110.13
632.624	8112.17
632.818	8106.03
633.012	8118.32
633.206	7987.25
633.4	8005.68
633.594	8026.16
633.788	7997.49
633.982	7847.99
634.176	7897.14
634.369	7794.74
634.563	7706.68
634.757	7809.08
634.951	7667.77
635.145	7725.11
635.339	7751.73
635.533	7458.87
635.726	7686.2
635.92	7350.33
636.114	7481.4
636.308	7325.75
636.501	7424.06
636.695	7411.77
636.889	7383.1
637.083	7276.6
637.276	7254.08
637.47	7211.07
637.664	7366.71
637.857	7110.72
638.051	7190.59
638.244	7182.4
638.438	7077.95
638.632	6824
638.825	6846.53
639.019	7067.71
639.212	6721.6
639.406	6809.67
639.599	6709.32
639.793	6950.98
639.986	6697.03
640.18	6617.16
640.373	6668.36
640.567	6613.06
640.76	6574.15
640.954	6398.03
641.147	6350.92
641.34	6586.44
641.534	6508.62
641.727	6334.54
641.92	6303.82
642.114	6275.15
642.307	6318.15
642.5	6201.42
642.694	6101.07
642.887	6135.89
643.08	6226
643.273	6211.66
643.467	5967.95
643.66	6045.77
643.853	6125.65
644.046	5941.33
644.239	5992.53
644.432	5922.9
644.626	5687.38
644.819	5808.21
645.012	5877.84
645.205	5902.42
645.398	5724.24
645.591	5781.59
645.784	5613.65
645.977	5613.65
646.17	5619.8
646.363	5601.37
646.556	5564.5
646.749	5513.3
646.942	5587.03
647.135	5464.15
647.328	5439.58
647.521	5519.45
647.714	5298.27
647.907	5388.38
648.099	5179.48
648.292	5130.33
648.485	5263.45
648.678	5050.46
648.871	5070.94
649.064	5202.01
649.256	5228.63
649.449	5042.27
649.642	5013.6
649.835	4966.49
650.027	5019.74
650.22	4816.99
650.413	4950.11
650.605	4964.45
650.798	4898.91
650.991	4812.9
651.183	4827.23
651.376	4804.71
651.568	4700.26
651.761	4841.57
651.954	4812.9
652.146	4730.98
652.339	4694.12
652.531	4696.16
652.724	4655.2
652.916	4382.82
653.109	4448.36
653.301	4417.64
653.494	4583.52
653.686	4474.98
653.879	4446.31
654.071	4370.54
654.263	4393.06
654.456	4409.45
654.648	4386.92
654.84	4270.19
655.033	4321.38
655.225	4235.37
655.417	4352.1
655.61	4350.06
655.802	4333.67
655.994	4130.92
656.186	4139.12
656.379	4278.38
656.571	4128.88
656.763	3917.93
656.955	4147.31
657.148	4067.44
657.34	3993.71
657.532	3825.78
657.724	3960.94
657.916	3985.52
658.108	3876.98
658.3	3850.35
658.492	3811.44
658.684	3752.05
658.876	3889.26
659.068	3801.2
659.26	3733.62
659.452	3793.01
659.644	3825.78
659.836	3680.37
660.028	3715.19
660.22	3586.16
660.412	3592.31
660.604	3467.38
660.796	3706.99
660.988	3614.84
661.18	3438.71
661.372	3586.16
661.563	3448.95
661.755	3551.35
661.947	3448.95
662.139	3448.95
662.331	3379.32
662.522	3410.04
662.714	3397.75
662.906	3299.45
663.097	3313.78
663.289	3346.55
663.481	3274.87
663.673	3303.54
663.864	3291.26
664.056	3246.2
664.247	3176.57
664.439	3205.24
664.631	3199.1
664.822	3139.71
665.014	3076.22
665.205	2984.06
665.397	3010.68
665.588	3057.79
665.78	3166.33
665.971	3080.32
666.163	3154.04
666.354	3018.88
666.546	2947.2
666.737	2967.68
666.929	2994.3
667.12	3029.12
667.311	2928.77
667.503	2855.04
667.694	2982.01
667.885	2879.61
668.077	2818.18
668.268	2773.12
668.459	2805.89
668.651	2879.61
668.842	2807.94
669.033	2773.12
669.224	2728.07
669.416	2816.13
669.607	2773.12
669.798	2824.32
669.989	2818.18
670.18	2683.01
670.371	2674.82
670.563	2754.69
670.754	2656.39
670.945	2691.2
671.136	2619.52
671.327	2592.9
671.518	2535.56
671.709	2613.38
671.9	2549.89
672.091	2615.43
672.282	2537.6
672.473	2672.77
672.664	2590.85
672.855	2437.25
673.046	2414.73
673.237	2564.23
673.428	2603.14
673.619	2414.73
673.809	2379.91
674	2474.12
674.191	2449.54
674.382	2412.68
674.573	2449.54
674.764	2402.44
674.954	2359.43
675.145	2474.12
675.336	2400.39
675.527	2447.49
675.717	2408.58
675.908	2353.29
676.099	2431.11
676.289	2302.09
676.48	2402.44
676.671	2345.09
676.861	2384.01
677.052	2263.18
677.243	2343.05
677.433	2259.08
677.624	2345.09
677.814	2254.98
678.005	2293.9
678.195	2287.75
678.386	2273.42
678.576	2228.36
678.767	2257.03
678.957	2330.76
679.148	2248.84
679.338	2138.25
679.529	2203.79
679.719	2220.17
679.909	2228.36
680.1	2216.07
680.29	2173.07
680.481	2252.94
680.671	2168.97
680.861	2195.59
681.052	2179.21
681.242	2087.05
681.432	2046.09
681.622	2054.28
681.813	2111.63
682.003	2201.74
682.193	2173.07
682.383	2136.2
682.573	2070.67
682.764	2138.25
682.954	2148.49
683.144	2142.35
683.334	2097.29
683.524	2109.58
683.714	2019.47
683.904	2050.19
684.094	2035.85
684.284	2074.76
684.474	2109.58
684.664	2054.28
684.854	1974.41
685.044	2042
685.234	1984.65
685.424	2009.23
685.614	1888.4
685.804	2048.14
685.994	1921.17
686.184	2099.34
686.374	1923.21
686.564	2005.13
686.753	2050.19
686.943	2033.8
687.133	2007.18
687.323	1935.5
687.513	2015.37
687.702	2023.56
687.892	1970.32
688.082	1947.79
688.272	1931.41
688.461	2009.23
688.651	1982.6
688.841	1882.25
689.03	1829.01
689.22	1917.07
689.41	1949.84
689.599	1915.02
689.789	1960.08
689.979	1927.31
690.168	1882.25
690.358	1925.26
690.547	1867.92
690.737	1925.26
690.926	2023.56
691.116	1904.78
691.305	1921.17
691.495	1939.6
691.684	1826.96
691.874	1869.97
692.063	1927.31
692.252	1816.72
692.442	1826.96
692.631	1761.42
692.82	1884.3
693.01	1906.83
693.199	1786
693.388	1831.05
693.578	1857.68
693.767	1829.01
693.956	1794.19
694.146	1706.13
694.335	1843.34
694.524	1865.87
694.713	1869.97
694.902	1810.58
695.092	1878.16
695.281	1765.52
695.47	1818.77
695.659	1722.51
695.848	1765.52
696.037	1728.66
696.226	1745.04
696.415	1747.09
696.604	1626.26
696.793	1792.14
696.982	1724.56
697.171	1671.31
697.36	1685.65
697.549	1671.31
697.738	1611.92
697.927	1671.31
698.116	1685.65
698.305	1659.03
698.494	1714.32
698.683	1720.46
698.872	1730.7
699.061	1532.05
699.25	1630.35
699.438	1689.74
699.627	1628.31
699.816	1745.04
700.005	1736.85
700.193	1730.7
700.382	1693.84
700.571	1644.69
700.76	1628.31
700.948	1652.88
701.137	1517.72
701.326	1742.99
701.514	1501.33
701.703	1626.26
701.892	1697.94
702.08	1716.37
702.269	1642.64
702.457	1570.96
702.646	1562.77
702.834	1558.67
703.023	1611.92
703.212	1605.78
703.4	1546.39
703.589	1618.07
703.777	1546.39
703.965	1622.16
704.154	1652.88
704.342	1671.31
704.531	1484.95
704.719	1573.01
704.907	1495.19
705.096	1552.53
705.284	1478.8
705.472	1536.15
705.661	1527.96
705.849	1630.35
706.037	1499.28
706.226	1474.71
706.414	1544.34
706.602	1515.67
706.79	1493.14
706.979	1429.65
707.167	1517.72
707.355	1523.86
707.543	1552.53
707.731	1468.56
707.919	1534.1
708.107	1484.95
708.296	1495.19
708.484	1458.32
708.672	1589.39
708.86	1573.01
709.048	1464.47
709.236	1411.22
709.424	1478.8
709.612	1472.66
709.8	1368.21
709.988	1329.3
710.176	1384.6
710.364	1419.41
710.551	1366.17
710.739	1382.55
710.927	1362.07
711.115	1335.45
711.303	1425.56
711.491	1339.54
711.679	1423.51
711.866	1396.89
712.054	1468.56
712.242	1437.84
712.43	1343.64
712.617	1353.88
712.805	1419.41
712.993	1355.93
713.181	1392.79
713.368	1400.98
713.556	1360.02
713.744	1345.69
713.931	1355.93
714.119	1362.07
714.306	1396.89
714.494	1296.53
714.682	1269.91
714.869	1251.48
715.057	1327.25
715.244	1362.07
715.432	1325.21
715.619	1317.01
715.807	1249.43
715.994	1190.04
716.182	1220.76
716.369	1263.77
716.556	1269.91
716.744	1271.96
716.931	1208.47
717.119	1298.58
717.306	1206.42
717.493	1261.72
717.681	1269.91
717.868	1296.53
718.055	1243.29
718.242	1274.01
718.43	1222.81
718.617	1165.46
718.804	1255.58
718.991	1380.5
719.179	1265.82
719.366	1142.94
719.553	1286.3
719.74	1325.21
719.927	1140.89
720.114	1202.33
720.301	1245.34
720.488	1138.84
720.676	1167.51
720.863	1165.46
721.05	1212.57
721.237	1128.6
721.424	1171.61
721.611	1237.14
721.798	1198.23
721.985	1194.14
722.172	1181.85
722.358	1116.31
722.545	1181.85
722.732	1171.61
722.919	1181.85
723.106	1048.73
723.293	1271.96
723.48	1097.88
723.667	1120.41
723.853	1196.18
724.04	1095.83
724.227	1132.7
724.414	1192.09
724.6	1167.51
724.787	1136.79
724.974	1061.02
725.161	1237.14
725.347	1165.46
725.534	1261.72
725.72	1110.17
725.907	1159.32
726.094	1093.79
726.28	1122.46
726.467	1231
726.653	1089.69
726.84	1175.7
727.027	1126.55
727.213	1124.51
727.4	1194.14
727.586	1249.43
727.773	1038.49
727.959	1085.59
728.145	1187.99
728.332	1140.89
728.518	1130.65
728.705	1130.65
728.891	1120.41
729.077	1122.46
729.264	997.53
729.45	1130.65
729.636	1099.93
729.823	1159.32
730.009	1048.73
730.195	1073.31
730.382	1015.96
730.568	1044.63
730.754	1073.31
730.94	1054.87
731.126	1122.46
731.313	1079.45
731.499	1042.59
731.685	1132.7
731.871	1087.64
732.057	1126.55
732.243	1075.35
732.429	1018.01
732.615	962.72
732.801	1054.87
732.987	991.39
733.173	1130.65
733.359	1034.39
733.545	1044.63
733.731	1091.74
733.917	1052.83
734.103	925.85
734.289	1024.16
734.475	993.44
734.661	1038.49
734.847	1034.39
735.033	1032.35
735.219	1018.01
735.404	1024.16
735.59	1007.77
735.776	985.24
735.962	962.72
736.148	1132.7
736.333	1138.84
736.519	989.34
736.705	1099.93
736.89	1046.68
737.076	938.14
737.262	921.76
737.447	1058.97
737.633	999.58
737.819	948.38
738.004	1101.98
738.19	956.57
738.375	946.33
738.561	960.67
738.747	1061.02
738.932	1032.35
739.118	946.33
739.303	1020.06
739.489	1028.25
739.674	1042.59
739.859	891.04
740.045	950.43
740.23	934.04
740.416	954.52
740.601	993.44
740.786	927.9
740.972	985.24
741.157	954.52
741.342	905.37
741.528	932
741.713	1007.77
741.898	966.81
742.084	938.14
742.269	917.66
742.454	954.52
742.639	878.75
742.824	899.23
743.01	979.1
743.195	911.52
743.38	1020.06
743.565	1009.82
743.75	868.51
743.935	845.98
744.12	921.76
744.305	958.62
744.49	848.03
744.675	919.71
744.86	934.04
745.045	975
745.23	870.56
745.415	925.85
745.6	852.13
745.785	843.93
745.97	858.27
746.155	831.65
746.34	901.28
746.525	731.3
746.71	895.13
746.895	706.72
747.079	829.6
747.264	858.27
747.449	903.32
747.634	811.17
747.819	815.26
748.003	823.45
748.188	807.07
748.373	811.17
748.557	845.98
748.742	698.53
748.927	809.12
749.111	690.34
749.296	852.13
749.481	884.89
749.665	843.93
749.85	770.21
750.034	778.4
750.219	802.97
750.404	815.26
750.588	727.2
750.773	716.96
750.957	768.16
751.141	698.53
751.326	835.74
751.51	790.69
751.695	684.19
751.879	778.4
752.064	665.76
752.248	751.78
752.432	710.82
752.617	727.2
752.801	673.95
752.985	688.29
753.17	665.76
753.354	661.66
753.538	747.68
753.722	651.42
753.907	639.14
754.091	694.43
754.275	655.52
754.459	657.57
754.643	676
754.828	700.58
755.012	686.24
755.196	610.47
755.38	731.3
755.564	708.77
755.748	700.58
755.932	614.56
756.116	635.04
756.3	630.95
756.484	600.23
756.668	598.18
756.852	600.23
757.036	581.79
757.22	571.55
757.404	606.37
757.588	608.42
757.772	637.09
757.956	639.14
758.14	606.37
758.323	510.11
758.507	616.61
758.691	592.03
758.875	589.99
759.059	501.92
759.242	530.59
759.426	585.89
759.61	573.6
759.794	561.31
759.977	557.22
760.161	542.88
760.345	583.84
760.528	528.55
760.712	530.59
760.895	565.41
761.079	600.23
761.263	503.97
761.446	532.64
761.63	577.7
761.813	551.07
761.997	499.88
762.18	409.76
762.364	528.55
762.547	489.64
762.731	557.22
762.914	563.36
763.098	454.82
763.281	516.26
763.464	444.58
763.648	495.78
763.831	436.39
764.015	444.58
764.198	467.11
764.381	483.49
764.564	493.73
764.748	544.93
764.931	501.92
765.114	477.35
765.297	428.2
765.481	430.24
765.664	528.55
765.847	467.11
766.03	516.26
766.213	510.11
766.397	469.16
766.58	467.11
766.763	516.26
766.946	469.16
767.129	489.64
767.312	366.76
767.495	528.55
767.678	393.38
767.861	481.44
768.044	467.11
768.227	428.2
768.41	430.24
768.593	538.79
768.776	460.96
768.959	454.82
769.142	417.96
769.324	493.73
769.507	448.68
769.69	514.21
769.873	444.58
770.056	444.58
770.239	403.62
770.421	413.86
770.604	458.92
770.787	465.06
770.97	426.15
771.152	387.24
771.335	506.02
771.518	403.62
771.7	422.05
771.883	450.72
772.066	426.15
772.248	487.59
772.431	381.09
772.613	471.2
772.796	315.56
772.978	434.34
773.161	409.76
773.343	440.48
773.526	428.2
773.708	438.44
773.891	338.09
774.073	370.85
774.256	383.14
774.438	409.76
774.621	417.96
774.803	319.65
774.985	317.61
775.168	403.62
775.35	319.65
775.532	356.52
775.715	254.12
775.897	354.47
776.079	383.14
776.261	440.48
776.444	360.61
776.626	381.09
776.808	354.47
776.99	379.04
777.173	336.04
777.355	385.19
777.537	362.66
777.719	301.22
777.901	338.09
778.083	338.09
778.265	370.85
778.447	387.24
778.629	295.08
778.811	313.51
778.993	321.7
779.175	366.76
779.357	336.04
779.539	268.45
779.721	303.27
779.903	276.65
780.085	463.01
780.267	333.99
780.449	399.52
780.631	303.27
780.812	370.85
780.994	342.18
781.176	268.45
781.358	247.97
781.54	293.03
781.721	321.7
781.903	342.18
782.085	362.66
782.267	217.26
782.448	217.26
782.63	286.89
782.812	227.5
782.993	217.26
783.175	256.17
783.357	276.65
783.538	305.32
783.72	286.89
783.901	303.27
784.083	245.93
784.264	276.65
784.446	311.46
784.627	174.25
784.809	282.79
784.99	223.4
785.172	182.44
785.353	239.78
785.535	303.27
785.716	188.58
785.897	172.2
786.079	239.78
786.26	172.2
786.441	227.5
786.623	198.82
786.804	207.02
786.985	223.4
787.167	229.54
787.348	274.6
787.529	225.45
787.71	217.26
787.891	231.59
788.073	178.34
788.254	149.67
788.435	258.21
788.616	209.06
788.797	229.54
788.978	247.97
789.159	184.49
789.34	221.35
789.522	237.74
789.703	209.06
789.884	174.25
790.065	139.43
790.246	262.31
790.427	127.14
790.607	229.54
790.788	198.82
790.969	121
791.15	196.78
791.331	168.1
791.512	184.49
791.693	155.82
791.874	151.72
792.054	211.11
792.235	239.78
792.416	207.02
792.597	161.96
792.778	194.73
792.958	209.06
793.139	98.47
793.32	241.83
793.5	151.72
793.681	204.97
793.862	233.64
794.042	98.47
794.223	196.78
794.404	127.14
794.584	168.1
794.765	245.93
794.945	145.58
795.126	190.63
795.306	127.14
795.487	153.77
795.667	139.43
795.848	176.3
796.028	172.2
796.209	121
796.389	168.1
796.57	237.74
796.75	202.92
796.93	133.29
797.111	145.58
797.291	114.86
797.471	147.62
797.652	170.15
797.832	159.91
798.012	174.25
798.192	127.14
798.373	141.48
798.553	125.1
798.733	168.1
798.913	155.82
799.093	80.04
799.274	86.19
799.454	172.2
799.634	135.34
799.814	141.48
799.994	131.24
800.174	174.25
800.354	82.09
800.534	51.37
800.714	26.79
800.894	135.34
801.074	159.91
801.254	147.62
801.434	100.52
801.614	102.57
801.794	80.04
801.974	385.19
802.154	71.85
802.334	129.19
802.514	100.52
802.693	104.62
802.873	123.05
803.053	63.66
803.233	102.57
803.413	151.72
803.592	86.19
803.772	90.28
803.952	98.47
804.131	49.32
804.311	139.43
804.491	121
804.67	84.14
804.85	86.19
805.03	116.9
805.209	149.67
805.389	143.53
805.568	143.53
805.748	84.14
805.928	180.39
806.107	143.53
806.287	137.38
806.466	104.62
806.646	123.05
806.825	86.19
807.004	55.47
807.184	106.67
807.363	110.76
807.543	57.51
807.722	159.91
807.901	151.72
808.081	116.9
808.26	108.71
808.439	174.25
808.619	84.14
808.798	125.1
808.977	39.08
809.156	186.54
809.336	55.47
809.515	90.28
809.694	94.38
809.873	108.71
810.052	116.9
810.231	92.33
810.411	92.33
810.59	135.34
810.769	94.38
810.948	123.05
811.127	129.19
811.306	100.52
811.485	92.33
811.664	157.86
811.843	108.71
812.022	59.56
812.201	86.19
812.38	123.05
812.559	137.38
812.737	84.14
812.916	116.9
813.095	98.47
813.274	123.05
813.453	80.04
813.632	137.38
813.811	123.05
813.989	65.71
814.168	137.38
814.347	59.56
814.526	88.23
814.704	106.67
814.883	110.76
815.062	155.82
815.24	141.48
815.419	69.8
815.598	69.8
815.776	135.34
815.955	73.9
816.133	53.42
816.312	151.72
816.49	98.47
816.669	133.29
816.847	84.14
817.026	86.19
817.204	133.29
817.383	100.52
817.561	112.81
817.74	69.8
817.918	75.95
818.097	51.37
818.275	51.37
818.453	133.29
818.632	65.71
818.81	34.99
818.988	8.36
819.167	86.19
819.345	86.19
819.523	123.05
819.701	61.61
819.879	69.8
820.058	51.37
820.236	77.99
820.414	96.43
820.592	67.75
820.77	57.51
820.948	149.67
821.127	65.71
821.305	114.86
821.483	90.28
821.661	57.51
821.839	49.32
822.017	32.94
822.195	34.99
822.373	92.33
822.551	22.7
822.729	143.53
822.907	118.95
823.085	34.99
823.262	90.28
823.44	37.03
823.618	71.85
823.796	71.85
823.974	84.14
824.152	131.24
824.329	80.04
824.507	16.55
824.685	8.36
824.863	14.51
825.04	39.08
825.218	49.32
825.396	112.81
825.574	90.28
825.751	45.23
825.929	28.84
826.107	47.27
826.284	32.94
826.462	-3.93
826.639	100.52
826.817	80.04
826.994	61.61
827.172	-10.07
827.349	59.56
827.527	108.71
827.704	14.51
827.882	106.67
828.059	69.8
828.237	110.76
828.414	53.42
828.591	53.42
828.769	80.04
828.946	69.8
829.124	61.61
829.301	90.28
829.478	73.9
829.655	84.14
829.833	-14.17
830.01	-1.88
830.187	43.18
830.364	-20.31
830.542	24.75
830.719	82.09
830.896	104.62
831.073	26.79
831.25	43.18
831.427	75.95
831.604	-20.31
831.782	32.94
831.959	106.67
832.136	73.9
832.313	82.09
832.49	20.65
832.667	14.51
832.844	102.57
833.021	45.23
833.198	61.61
833.374	98.47
833.551	59.56
833.728	53.42
833.905	88.23
834.082	59.56
834.259	61.61
834.436	71.85
834.612	94.38
834.789	57.51
834.966	34.99
835.143	131.24
835.319	123.05
835.496	39.08
835.673	108.71
835.85	55.47
836.026	47.27
836.203	57.51
836.38	37.03
836.556	65.71
836.733	-10.07
836.909	34.99
837.086	4.27
837.262	-3.93
837.439	41.13
837.616	6.31
837.792	-24.4
837.968	32.94
838.145	-8.02
838.321	2.22
838.498	55.47
838.674	65.71
838.851	30.89
839.027	2.22
839.203	139.43
839.38	39.08
839.556	47.27
839.732	-8.02
839.909	-1.88
840.085	82.09
840.261	4.27
840.437	61.61
840.614	-22.36
840.79	43.18
840.966	59.56
841.142	34.99
841.318	67.75
841.494	34.99
841.671	6.31
841.847	-12.12
842.023	75.95
842.199	24.75
842.375	106.67
842.551	69.8
842.727	-16.21
842.903	57.51
843.079	34.99
843.255	118.95
843.431	26.79
843.607	88.23
843.783	6.31
843.959	57.51
844.134	-8.02
844.31	-3.93
844.486	10.41
844.662	43.18
844.838	84.14
845.013	61.61
845.189	2.22
845.365	57.51
845.541	92.33
845.716	39.08
845.892	43.18
846.068	112.81
846.244	26.79
846.419	18.6
846.595	26.79
846.77	69.8
846.946	112.81
847.122	32.94
847.297	102.57
847.473	26.79
847.648	28.84
847.824	49.32
847.999	-20.31
848.175	51.37
848.35	45.23
848.526	26.79
848.701	37.03
848.876	0.17
849.052	32.94
849.227	114.86
849.403	61.61
849.578	0.17
849.753	20.65
849.929	49.32
850.104	41.13
850.279	39.08
850.454	-5.97
850.63	43.18
850.805	37.03
850.98	0.17
851.155	22.7
851.33	24.75
851.505	-36.69
851.681	16.55
851.856	-34.64
852.031	112.81
852.206	43.18
852.381	90.28
852.556	2.22
852.731	-8.02
852.906	114.86
853.081	96.43
853.256	-42.84
853.431	51.37
853.606	53.42
853.781	12.46
853.956	-44.88
854.131	63.66
854.305	2.22
854.48	110.76
854.655	20.65
854.83	32.94
855.005	39.08
855.18	51.37
855.354	24.75
855.529	49.32
855.704	65.71
855.879	16.55
856.053	98.47
856.228	34.99
856.403	59.56
856.577	45.23
856.752	20.65
856.926	4.27
857.101	16.55
857.276	77.99
857.45	-18.26
857.625	63.66
857.799	-1.88
857.974	-3.93
858.148	-57.17
858.323	43.18
858.497	-36.69
858.672	24.75
858.846	43.18
859.02	71.85
859.195	20.65
859.369	41.13
859.543	41.13
859.718	26.79
859.892	90.28
860.066	67.75
860.241	8.36
860.415	-14.17
860.589	26.79
860.763	43.18
860.938	34.99
861.112	65.71
861.286	6.31
861.46	18.6
861.634	30.89
861.808	100.52
861.982	-14.17
862.157	37.03
862.331	12.46
862.505	47.27
862.679	-8.02
862.853	24.75
863.027	22.7
863.201	75.95
863.375	26.79
863.549	28.84
863.722	47.27
863.896	24.75
864.07	-12.12
864.244	106.67
864.418	-5.97
864.592	110.76
864.766	65.71
864.939	26.79
865.113	14.51
865.287	75.95
865.461	-22.36
865.634	57.51
865.808	24.75
865.982	22.7
866.156	71.85
866.329	45.23
866.503	2.22
866.676	26.79
866.85	94.38
867.024	-61.27
867.197	43.18
867.371	102.57
867.544	65.71
867.718	43.18
867.891	-10.07
868.065	67.75
868.238	37.03
868.412	-18.26
868.585	32.94
868.759	-61.27
868.932	75.95
869.105	-10.07
869.279	-89.94
869.452	2.22
869.625	12.46
869.799	-12.12
869.972	51.37
870.145	-51.03
870.319	32.94
870.492	30.89
870.665	0.17
870.838	59.56
871.011	-5.97
871.185	-10.07
871.358	-1.88
871.531	16.55
871.704	12.46
871.877	20.65
872.05	0.17
872.223	16.55
872.396	108.71
872.569	28.84
872.742	43.18
872.915	86.19
873.088	57.51
873.261	49.32
873.434	28.84
873.607	26.79
873.78	47.27
873.953	12.46
874.126	10.41
874.299	10.41
874.471	-20.31
874.644	45.23
874.817	71.85
874.99	34.99
875.163	-46.93
875.335	88.23
875.508	-26.45
875.681	10.41
875.853	-16.21
876.026	32.94
876.199	67.75
876.371	53.42
876.544	16.55
876.717	-22.36
876.889	-79.7
877.062	10.41
877.234	22.7
877.407	32.94
877.579	20.65
877.752	10.41
877.924	-14.17
878.097	28.84
878.269	-32.6
878.442	26.79
878.614	16.55
878.786	45.23
878.959	-55.12
879.131	-42.84
879.303	34.99
879.476	-30.55
879.648	51.37
879.82	65.71
879.993	59.56
880.165	45.23
880.337	-8.02
880.509	-20.31
880.681	18.6
880.854	39.08
881.026	34.99
881.198	80.04
881.37	26.79
881.542	14.51
881.714	75.95
881.886	16.55
882.058	53.42
882.23	2.22
882.402	77.99
882.574	-5.97
882.746	73.9
882.918	63.66
883.09	22.7
883.262	106.67
883.434	-14.17
883.606	8.36
883.778	43.18
883.95	24.75
884.122	6.31
884.293	22.7
884.465	32.94
884.637	51.37
884.809	16.55
884.98	-16.21
885.152	47.27
885.324	18.6
885.496	-38.74
885.667	10.41
885.839	-3.93
886.011	0.17
886.182	24.75
886.354	-1.88
886.525	57.51
886.697	84.14
886.869	39.08
887.04	75.95
887.212	-5.97
887.383	69.8
887.555	37.03
887.726	37.03
887.897	22.7
888.069	102.57
888.24	-22.36
888.412	88.23
888.583	20.65
888.754	20.65
888.926	-20.31
889.097	92.33
889.268	73.9
889.44	-10.07
889.611	26.79
889.782	-38.74
889.953	104.62
890.125	16.55
890.296	-36.69
890.467	61.61
890.638	67.75
890.809	49.32
890.98	69.8
891.151	18.6
891.323	45.23
891.494	28.84
891.665	-16.21
891.836	59.56
892.007	2.22
892.178	49.32
892.349	55.47
892.52	-16.21
892.691	30.89
892.862	16.55
893.032	82.09
893.203	90.28
893.374	-38.74
893.545	90.28
893.716	8.36
893.887	80.04
894.057	-10.07
894.228	-8.02
894.399	-14.17
894.57	26.79
894.74	-44.88
894.911	43.18
895.082	43.18
895.253	-12.12
895.423	16.55
895.594	34.99
895.764	34.99
895.935	69.8
896.106	6.31
896.276	-24.4
896.447	0.17
896.617	2.22
896.788	-12.12
896.958	-10.07
897.129	-65.36
897.299	2.22
897.47	24.75
897.64	53.42
897.81	-5.97
897.981	16.55
898.151	-46.93
898.322	59.56
898.492	24.75
898.662	73.9
898.832	0.17
899.003	16.55
899.173	47.27
899.343	8.36
899.513	100.52
