Data from USB4F104151__98__12-54-59-147.txt Node

Date: Fri Mar 14 12:54:59 EDT 2025
User: louis
Spectrometer: USB4F10415
Trigger mode: 4
Integration Time (sec): 1.000000E-2
Scans to average: 1
Electric dark correction enabled: true
Nonlinearity correction enabled: false
Boxcar width: 0
XAxis mode: Wavelengths
Number of Pixels in Spectrum: 3648
>>>>>Begin Spectral Data<<<<<
178.204	-42.15
178.424	-42.15
178.644	-42.15
178.864	-146.6
179.084	-48.3
179.304	13.14
179.524	11.09
179.744	-1.19
179.964	23.38
180.184	17.24
180.404	21.33
180.624	-23.72
180.844	-27.82
181.064	-11.43
181.283	-29.87
181.503	-42.15
181.723	50
181.943	2.9
182.163	-23.72
182.383	-48.3
182.602	56.15
182.822	0.85
183.042	-50.35
183.262	25.43
183.482	-9.39
183.701	25.43
183.921	0.85
184.141	-7.34
184.361	25.43
184.58	7
184.8	9.05
185.02	62.29
185.239	-33.96
185.459	35.67
185.679	58.2
185.898	-40.11
186.118	-19.63
186.338	-52.39
186.557	41.81
186.777	-27.82
186.997	13.14
187.216	37.72
187.436	23.38
187.655	-19.63
187.875	25.43
188.095	-31.91
188.314	23.38
188.534	7
188.753	-7.34
188.973	56.15
189.192	-15.53
189.412	-15.53
189.631	-42.15
189.851	-44.2
190.07	-7.34
190.29	-29.87
190.509	17.24
190.729	-3.24
190.948	7
191.168	54.1
191.387	-11.43
191.607	-46.25
191.826	-74.92
192.045	27.48
192.265	41.81
192.484	-46.25
192.704	21.33
192.923	-31.91
193.142	31.57
193.362	-23.72
193.581	4.95
193.8	-5.29
194.02	-36.01
194.239	-3.24
194.458	-11.43
194.678	0.85
194.897	7
195.116	-85.16
195.335	-9.39
195.555	-27.82
195.774	-7.34
195.993	-3.24
196.212	-19.63
196.432	-40.11
196.651	-27.82
196.87	-25.77
197.089	39.76
197.308	19.29
197.528	37.72
197.747	-54.44
197.966	-25.77
198.185	-7.34
198.404	15.19
198.623	4.95
198.842	4.95
199.062	45.91
199.281	7
199.5	29.52
199.719	33.62
199.938	9.05
200.157	13.14
200.376	-21.67
200.595	-15.53
200.814	-38.06
201.033	-25.77
201.252	21.33
201.471	4.95
201.69	-81.07
201.909	68.44
202.128	-72.87
202.347	-3.24
202.566	-19.63
202.785	25.43
203.004	-17.58
203.223	82.77
203.442	35.67
203.661	43.86
203.879	60.24
204.098	-33.96
204.317	-66.73
204.536	33.62
204.755	23.38
204.974	-17.58
205.193	-25.77
205.411	-13.48
205.63	-50.35
205.849	27.48
206.068	33.62
206.287	-33.96
206.505	-11.43
206.724	7
206.943	9.05
207.162	-99.5
207.381	-64.68
207.599	54.1
207.818	4.95
208.037	2.9
208.255	64.34
208.474	-11.43
208.693	-11.43
208.911	-46.25
209.13	-23.72
209.349	47.96
209.567	-42.15
209.786	39.76
210.005	-50.35
210.223	-17.58
210.442	-5.29
210.661	9.05
210.879	-50.35
211.098	-11.43
211.316	4.95
211.535	-3.24
211.753	-42.15
211.972	-5.29
212.191	-5.29
212.409	15.19
212.628	-31.91
212.846	4.95
213.065	-48.3
213.283	13.14
213.502	35.67
213.72	66.39
213.938	-74.92
214.157	-56.49
214.375	15.19
214.594	21.33
214.812	66.39
215.031	-23.72
215.249	-13.48
215.467	90.96
215.686	-21.67
215.904	47.96
216.122	9.05
216.341	0.85
216.559	29.52
216.778	4.95
216.996	-42.15
217.214	-15.53
217.432	-66.73
217.651	-33.96
217.869	-52.39
218.087	7
218.306	-60.59
218.524	50
218.742	-40.11
218.96	-17.58
219.179	-48.3
219.397	-23.72
219.615	-50.35
219.833	50
220.051	19.29
220.27	52.05
220.488	76.63
220.706	-54.44
220.924	0.85
221.142	-1.19
221.36	17.24
221.578	47.96
221.796	11.09
222.015	58.2
222.233	-42.15
222.451	-15.53
222.669	9.05
222.887	-70.83
223.105	-83.11
223.323	31.57
223.541	4.95
223.759	-1.19
223.977	-11.43
224.195	-33.96
224.413	-19.63
224.631	58.2
224.849	-17.58
225.067	58.2
225.285	11.09
225.503	17.24
225.721	37.72
225.939	35.67
226.157	4.95
226.375	17.24
226.592	11.09
226.81	9.05
227.028	-54.44
227.246	-17.58
227.464	21.33
227.682	-3.24
227.9	-19.63
228.117	29.52
228.335	-15.53
228.553	9.05
228.771	-23.72
228.989	-40.11
229.206	45.91
229.424	39.76
229.642	-19.63
229.86	50
230.077	-19.63
230.295	11.09
230.513	64.34
230.731	23.38
230.948	-29.87
231.166	2.9
231.384	39.76
231.601	-25.77
231.819	23.38
232.037	-9.39
232.254	-5.29
232.472	-1.19
232.689	0.85
232.907	23.38
233.125	29.52
233.342	-38.06
233.56	-42.15
233.777	17.24
233.995	-11.43
234.213	-23.72
234.43	-19.63
234.648	41.81
234.865	-29.87
235.083	11.09
235.3	-27.82
235.518	-60.59
235.735	-7.34
235.953	-1.19
236.17	37.72
236.388	-44.2
236.605	-19.63
236.822	4.95
237.04	35.67
237.257	-1.19
237.475	-13.48
237.692	-19.63
237.909	-72.87
238.127	-42.15
238.344	-48.3
238.562	-52.39
238.779	-44.2
238.996	72.53
239.214	11.09
239.431	64.34
239.648	-27.82
239.865	9.05
240.083	-50.35
240.3	21.33
240.517	-27.82
240.735	72.53
240.952	-3.24
241.169	-3.24
241.386	-52.39
241.603	-1.19
241.821	-58.54
242.038	-9.39
242.255	56.15
242.472	-36.01
242.689	-23.72
242.907	-42.15
243.124	-5.29
243.341	11.09
243.558	-68.78
243.775	-52.39
243.992	39.76
244.209	-5.29
244.426	9.05
244.643	0.85
244.86	-85.16
245.078	35.67
245.295	13.14
245.512	-48.3
245.729	15.19
245.946	17.24
246.163	-52.39
246.38	-1.19
246.597	-93.35
246.814	15.19
247.031	-9.39
247.248	-7.34
247.464	-50.35
247.681	11.09
247.898	-40.11
248.115	-13.48
248.332	-70.83
248.549	2.9
248.766	62.29
248.983	-31.91
249.2	-9.39
249.417	13.14
249.633	-19.63
249.85	9.05
250.067	-1.19
250.284	62.29
250.501	-17.58
250.717	45.91
250.934	-9.39
251.151	23.38
251.368	-42.15
251.585	15.19
251.801	-38.06
252.018	39.76
252.235	4.95
252.451	19.29
252.668	17.24
252.885	4.95
253.102	39.76
253.318	-1.19
253.535	-40.11
253.752	-25.77
253.968	-62.63
254.185	-7.34
254.401	-56.49
254.618	0.85
254.835	-79.02
255.051	-33.96
255.268	-46.25
255.484	-7.34
255.701	7
255.917	-44.2
256.134	21.33
256.351	-33.96
256.567	-87.21
256.784	27.48
257	-62.63
257.217	-23.72
257.433	-38.06
257.65	15.19
257.866	-17.58
258.082	-11.43
258.299	-17.58
258.515	50
258.732	-5.29
258.948	-19.63
259.165	-40.11
259.381	-21.67
259.597	66.39
259.814	15.19
260.03	31.57
260.246	-7.34
260.463	-19.63
260.679	45.91
260.895	41.81
261.112	-52.39
261.328	-19.63
261.544	-21.67
261.761	33.62
261.977	-9.39
262.193	-23.72
262.409	-9.39
262.626	-40.11
262.842	35.67
263.058	-81.07
263.274	-42.15
263.49	-9.39
263.707	-25.77
263.923	11.09
264.139	23.38
264.355	-3.24
264.571	15.19
264.787	-46.25
265.004	33.62
265.22	2.9
265.436	-17.58
265.652	-19.63
265.868	-60.59
266.084	31.57
266.3	82.77
266.516	21.33
266.732	-44.2
266.948	39.76
267.164	23.38
267.38	-21.67
267.596	-11.43
267.812	-72.87
268.028	15.19
268.244	-3.24
268.46	27.48
268.676	-23.72
268.892	-33.96
269.108	-36.01
269.324	-27.82
269.54	-68.78
269.756	62.29
269.972	-33.96
270.188	-1.19
270.403	-76.97
270.619	39.76
270.835	19.29
271.051	15.19
271.267	-17.58
271.483	13.14
271.698	-50.35
271.914	-9.39
272.13	-68.78
272.346	37.72
272.562	9.05
272.777	17.24
272.993	-3.24
273.209	-17.58
273.425	21.33
273.64	-9.39
273.856	-36.01
274.072	50
274.287	-7.34
274.503	39.76
274.719	-3.24
274.934	60.24
275.15	-113.83
275.366	-56.49
275.581	-13.48
275.797	33.62
276.012	-3.24
276.228	-64.68
276.444	11.09
276.659	25.43
276.875	-11.43
277.09	4.95
277.306	-31.91
277.521	15.19
277.737	-38.06
277.952	-36.01
278.168	-21.67
278.383	-23.72
278.599	-27.82
278.814	-40.11
279.03	-31.91
279.245	-1.19
279.461	-13.48
279.676	64.34
279.892	-5.29
280.107	-11.43
280.322	-52.39
280.538	13.14
280.753	27.48
280.969	19.29
281.184	2.9
281.399	27.48
281.615	35.67
281.83	-99.5
282.045	37.72
282.26	-15.53
282.476	4.95
282.691	9.05
282.906	-42.15
283.122	-31.91
283.337	-79.02
283.552	-21.67
283.767	-40.11
283.983	-48.3
284.198	-38.06
284.413	19.29
284.628	29.52
284.843	50
285.058	15.19
285.274	-33.96
285.489	-33.96
285.704	-1.19
285.919	-40.11
286.134	21.33
286.349	-44.2
286.564	11.09
286.779	37.72
286.995	-31.91
287.21	31.57
287.425	78.68
287.64	25.43
287.855	19.29
288.07	-7.34
288.285	33.62
288.5	7
288.715	-9.39
288.93	-21.67
289.145	-58.54
289.36	-81.07
289.575	31.57
289.79	21.33
290.004	7
290.219	88.92
290.434	-5.29
290.649	-25.77
290.864	31.57
291.079	31.57
291.294	-23.72
291.509	45.91
291.724	-19.63
291.938	17.24
292.153	-9.39
292.368	-31.91
292.583	0.85
292.798	-21.67
293.012	35.67
293.227	-68.78
293.442	-13.48
293.657	-19.63
293.871	21.33
294.086	-17.58
294.301	-58.54
294.516	11.09
294.73	23.38
294.945	-44.2
295.16	15.19
295.374	-25.77
295.589	-70.83
295.804	-15.53
296.018	-38.06
296.233	-19.63
296.447	25.43
296.662	-40.11
296.877	17.24
297.091	-7.34
297.306	25.43
297.52	-60.59
297.735	13.14
297.949	35.67
298.164	68.44
298.378	-44.2
298.593	-50.35
298.807	7
299.022	4.95
299.236	-40.11
299.451	45.91
299.665	2.9
299.88	21.33
300.094	-7.34
300.309	-33.96
300.523	-13.48
300.737	25.43
300.952	9.05
301.166	15.19
301.381	-5.29
301.595	4.95
301.809	9.05
302.024	76.63
302.238	-48.3
302.452	-31.91
302.667	-15.53
302.881	68.44
303.095	37.72
303.309	-5.29
303.524	47.96
303.738	43.86
303.952	17.24
304.166	0.85
304.381	17.24
304.595	54.1
304.809	-17.58
305.023	-9.39
305.237	-109.74
305.452	-7.34
305.666	54.1
305.88	-50.35
306.094	31.57
306.308	-13.48
306.522	2.9
306.736	-60.59
306.95	0.85
307.164	-13.48
307.379	-1.19
307.593	21.33
307.807	-48.3
308.021	15.19
308.235	-19.63
308.449	-11.43
308.663	-1.19
308.877	-11.43
309.091	-19.63
309.305	-13.48
309.519	-3.24
309.733	21.33
309.947	-25.77
310.161	-17.58
310.374	62.29
310.588	-21.67
310.802	-58.54
311.016	31.57
311.23	-42.15
311.444	39.76
311.658	-42.15
311.872	-17.58
312.085	13.14
312.299	23.38
312.513	9.05
312.727	64.34
312.941	-19.63
313.154	-66.73
313.368	-50.35
313.582	4.95
313.796	23.38
314.009	54.1
314.223	-58.54
314.437	-29.87
314.651	-17.58
314.864	-19.63
315.078	62.29
315.292	58.2
315.505	-31.91
315.719	54.1
315.933	70.48
316.146	4.95
316.36	-62.63
316.573	-48.3
316.787	-62.63
317.001	54.1
317.214	-64.68
317.428	31.57
317.641	-85.16
317.855	-74.92
318.068	-31.91
318.282	78.68
318.495	23.38
318.709	-52.39
318.922	-11.43
319.136	0.85
319.349	23.38
319.563	-33.96
319.776	-70.83
319.99	-9.39
320.203	-7.34
320.417	-3.24
320.63	-3.24
320.843	70.48
321.057	35.67
321.27	35.67
321.483	27.48
321.697	-7.34
321.91	13.14
322.124	-15.53
322.337	-21.67
322.55	-50.35
322.763	27.48
322.977	-81.07
323.19	-31.91
323.403	-105.64
323.617	-44.2
323.83	-40.11
324.043	-33.96
324.256	-13.48
324.469	-50.35
324.683	33.62
324.896	17.24
325.109	37.72
325.322	31.57
325.535	62.29
325.748	4.95
325.962	-50.35
326.175	-1.19
326.388	-29.87
326.601	29.52
326.814	0.85
327.027	-7.34
327.24	25.43
327.453	41.81
327.666	21.33
327.879	-13.48
328.092	50
328.305	-23.72
328.518	-13.48
328.731	50
328.944	-1.19
329.157	-27.82
329.37	-56.49
329.583	21.33
329.796	50
330.009	-29.87
330.222	-3.24
330.435	2.9
330.648	4.95
330.861	17.24
331.073	-17.58
331.286	-31.91
331.499	-15.53
331.712	-60.59
331.925	-25.77
332.138	-1.19
332.35	15.19
332.563	-76.97
332.776	-21.67
332.989	-29.87
333.202	70.48
333.414	-33.96
333.627	19.29
333.84	25.43
334.053	41.81
334.265	0.85
334.478	-48.3
334.691	-23.72
334.903	-25.77
335.116	-23.72
335.329	-25.77
335.541	-15.53
335.754	-1.19
335.966	35.67
336.179	-1.19
336.392	-7.34
336.604	-48.3
336.817	-25.77
337.029	25.43
337.242	-44.2
337.454	56.15
337.667	-5.29
337.88	52.05
338.092	-27.82
338.305	-38.06
338.517	11.09
338.729	58.2
338.942	-17.58
339.154	2.9
339.367	-83.11
339.579	-9.39
339.792	-15.53
340.004	13.14
340.217	19.29
340.429	47.96
340.641	25.43
340.854	56.15
341.066	-25.77
341.278	-44.2
341.491	31.57
341.703	-7.34
341.915	-27.82
342.128	35.67
342.34	-29.87
342.552	9.05
342.764	19.29
342.977	-25.77
343.189	-58.54
343.401	4.95
343.613	-19.63
343.826	-42.15
344.038	-27.82
344.25	9.05
344.462	-27.82
344.674	23.38
344.886	-72.87
345.099	-48.3
345.311	9.05
345.523	0.85
345.735	-11.43
345.947	11.09
346.159	-7.34
346.371	-15.53
346.583	13.14
346.795	13.14
347.007	-3.24
347.219	29.52
347.431	21.33
347.643	29.52
347.855	15.19
348.067	19.29
348.279	27.48
348.491	7
348.703	-1.19
348.915	13.14
349.127	-48.3
349.339	-46.25
349.551	-48.3
349.763	45.91
349.975	-3.24
350.187	19.29
350.399	29.52
350.61	-17.58
350.822	4.95
351.034	-17.58
351.246	-17.58
351.458	-46.25
351.669	-46.25
351.881	-91.31
352.093	2.9
352.305	-42.15
352.517	-44.2
352.728	21.33
352.94	-27.82
353.152	0.85
353.363	-3.24
353.575	17.24
353.787	-9.39
353.999	33.62
354.21	62.29
354.422	-38.06
354.633	-23.72
354.845	45.91
355.057	-11.43
355.268	9.05
355.48	-62.63
355.692	-29.87
355.903	-33.96
356.115	-38.06
356.326	-33.96
356.538	39.76
356.749	58.2
356.961	62.29
357.172	-52.39
357.384	9.05
357.595	-1.19
357.807	-54.44
358.018	-62.63
358.23	60.24
358.441	35.67
358.653	80.72
358.864	-15.53
359.075	45.91
359.287	31.57
359.498	-27.82
359.709	13.14
359.921	-23.72
360.132	-56.49
360.344	-23.72
360.555	-111.78
360.766	-5.29
360.977	15.19
361.189	0.85
361.4	-68.78
361.611	21.33
361.823	50
362.034	31.57
362.245	-60.59
362.456	45.91
362.667	-9.39
362.879	64.34
363.09	-9.39
363.301	41.81
363.512	72.53
363.723	-27.82
363.935	-9.39
364.146	11.09
364.357	45.91
364.568	-23.72
364.779	37.72
364.99	-7.34
365.201	-29.87
365.412	-5.29
365.623	-48.3
365.834	52.05
366.045	9.05
366.256	39.76
366.467	-48.3
366.678	-15.53
366.889	-13.48
367.1	-66.73
367.311	-21.67
367.522	-11.43
367.733	54.1
367.944	-46.25
368.155	11.09
368.366	56.15
368.577	-44.2
368.788	-1.19
368.999	17.24
369.209	29.52
369.42	-7.34
369.631	54.1
369.842	-97.45
370.053	-36.01
370.264	-33.96
370.474	54.1
370.685	9.05
370.896	15.19
371.107	-31.91
371.317	56.15
371.528	33.62
371.739	-9.39
371.95	-44.2
372.16	47.96
372.371	-48.3
372.582	-60.59
372.792	9.05
373.003	13.14
373.214	-7.34
373.424	-13.48
373.635	-54.44
373.846	117.59
374.056	-17.58
374.267	-40.11
374.477	84.82
374.688	-44.2
374.898	-21.67
375.109	-33.96
375.319	11.09
375.53	-7.34
375.74	-27.82
375.951	-56.49
376.161	21.33
376.372	-11.43
376.582	25.43
376.793	-60.59
377.003	-21.67
377.214	31.57
377.424	-27.82
377.635	-36.01
377.845	29.52
378.055	95.06
378.266	29.52
378.476	72.53
378.686	-44.2
378.897	23.38
379.107	-85.16
379.317	-15.53
379.528	21.33
379.738	-52.39
379.948	-42.15
380.158	4.95
380.369	-29.87
380.579	54.1
380.789	-62.63
380.999	37.72
381.21	9.05
381.42	4.95
381.63	-15.53
381.84	-87.21
382.05	45.91
382.261	13.14
382.471	82.77
382.681	-85.16
382.891	-19.63
383.101	35.67
383.311	-31.91
383.521	-21.67
383.731	-27.82
383.941	-5.29
384.151	-23.72
384.361	-27.82
384.571	23.38
384.781	-31.91
384.991	23.38
385.201	25.43
385.411	4.95
385.621	-48.3
385.831	2.9
386.041	29.52
386.251	9.05
386.461	21.33
386.671	7
386.881	58.2
387.091	80.72
387.301	23.38
387.511	-5.29
387.72	-11.43
387.93	54.1
388.14	-23.72
388.35	-70.83
388.56	-17.58
388.769	-25.77
388.979	72.53
389.189	-5.29
389.399	86.87
389.609	27.48
389.818	64.34
390.028	-19.63
390.238	62.29
390.447	-17.58
390.657	39.76
390.867	-1.19
391.076	39.76
391.286	-50.35
391.496	-50.35
391.705	-25.77
391.915	21.33
392.125	-5.29
392.334	50
392.544	4.95
392.753	-50.35
392.963	27.48
393.172	-42.15
393.382	-19.63
393.591	45.91
393.801	23.38
394.01	2.9
394.22	35.67
394.429	19.29
394.639	-15.53
394.848	-40.11
395.058	-7.34
395.267	39.76
395.477	13.14
395.686	13.14
395.895	50
396.105	62.29
396.314	29.52
396.524	11.09
396.733	-89.26
396.942	7
397.152	4.95
397.361	-1.19
397.57	41.81
397.78	-68.78
397.989	50
398.198	41.81
398.407	31.57
398.617	39.76
398.826	-19.63
399.035	0.85
399.244	54.1
399.453	15.19
399.663	21.33
399.872	-5.29
400.081	60.24
400.29	33.62
400.499	7
400.708	17.24
400.917	-13.48
401.127	11.09
401.336	45.91
401.545	64.34
401.754	25.43
401.963	-79.02
402.172	-7.34
402.381	13.14
402.59	93.01
402.799	-1.19
403.008	-21.67
403.217	37.72
403.426	17.24
403.635	-11.43
403.844	31.57
404.053	29.52
404.262	37.72
404.471	27.48
404.68	-3.24
404.888	-11.43
405.097	-11.43
405.306	95.06
405.515	-36.01
405.724	60.24
405.933	-27.82
406.142	-7.34
406.35	29.52
406.559	-11.43
406.768	39.76
406.977	45.91
407.185	39.76
407.394	78.68
407.603	29.52
407.812	127.83
408.02	72.53
408.229	93.01
408.438	43.86
408.646	103.25
408.855	72.53
409.064	45.91
409.272	19.29
409.481	54.1
409.69	76.63
409.898	80.72
410.107	64.34
410.315	99.16
410.524	19.29
410.733	60.24
410.941	50
411.15	82.77
411.358	136.02
411.567	168.79
411.775	103.25
411.984	113.49
412.192	129.88
412.401	176.98
412.609	121.68
412.818	189.27
413.026	170.83
413.234	172.88
413.443	215.89
413.651	176.98
413.86	127.83
414.068	215.89
414.276	136.02
414.485	215.89
414.693	228.18
414.901	127.83
415.11	191.31
415.318	262.99
415.526	267.09
415.734	170.83
415.943	246.61
416.151	295.76
416.359	224.08
416.567	285.52
416.776	191.31
416.984	346.96
417.192	306
417.4	303.95
417.608	254.8
417.817	291.66
418.025	330.58
418.233	385.87
418.441	340.82
418.649	381.78
418.857	426.83
419.065	402.26
419.273	369.49
419.481	443.21
419.689	414.54
419.897	412.5
420.105	437.07
420.313	541.52
420.521	504.65
420.729	531.28
420.937	490.32
421.145	480.08
421.353	518.99
421.561	557.9
421.769	631.63
421.977	592.72
422.185	615.24
422.393	607.05
422.601	613.2
422.809	680.78
423.017	713.55
423.224	752.46
423.432	717.64
423.64	711.5
423.848	815.94
424.056	840.52
424.263	920.39
424.471	848.71
424.679	813.9
424.887	852.81
425.094	959.3
425.302	959.3
425.51	1028.93
425.718	1024.84
425.925	1016.65
426.133	1035.08
426.341	1162.05
426.548	1254.21
426.756	1276.74
426.964	1186.63
427.171	1241.92
427.379	1219.39
427.586	1319.75
427.794	1385.28
428.001	1581.89
428.209	1512.25
428.417	1581.89
428.624	1512.25
428.832	1514.3
429.039	1551.17
429.247	1561.41
429.454	1647.42
429.662	1835.83
429.869	1817.4
430.076	1899.32
430.284	1823.55
430.491	1821.5
430.699	2048.82
430.906	2054.97
431.114	1948.47
431.321	2112.31
431.528	2149.17
431.736	2245.43
431.943	2339.63
432.15	2421.55
432.358	2368.31
432.565	2429.74
432.772	2405.17
432.979	2624.3
433.187	2605.87
433.394	2589.49
433.601	2814.76
433.808	2814.76
434.016	2865.96
434.223	2978.6
434.43	3109.67
434.637	2999.08
434.844	3185.44
435.052	3248.93
435.259	3201.83
435.466	3382.05
435.673	3316.51
435.88	3568.41
436.087	3636
436.294	3617.57
436.501	3640.09
436.708	3668.77
436.915	3793.69
437.122	4014.87
437.329	3861.27
437.537	4150.04
437.743	4213.53
437.95	4152.09
438.157	4315.92
438.364	4596.5
438.571	4432.66
438.778	4512.53
438.985	4887.31
439.192	4754.19
439.399	4975.37
439.606	4840.2
439.813	5124.87
440.02	5370.63
440.227	5243.65
440.433	5337.86
440.64	5401.35
440.847	5352.2
441.054	5407.49
441.261	5804.8
441.467	5858.04
441.674	5950.2
441.881	5995.26
442.088	6003.45
442.294	6036.22
442.501	6255.35
442.708	6243.06
442.914	6546.16
443.121	6736.62
443.328	6542.07
443.534	7158.5
443.741	6937.32
443.948	6873.84
444.154	7293.67
444.361	7293.67
444.568	7219.94
444.774	7385.83
444.981	7363.3
445.187	7871.2
445.394	7875.29
445.6	8022.75
445.807	8708.82
446.013	8368.85
446.22	8358.61
446.426	8979.15
446.633	9046.73
446.839	9335.49
447.046	8704.72
447.252	9306.82
447.459	9380.55
447.665	9345.73
447.871	9761.47
448.078	10115.77
448.284	9726.66
448.491	9921.21
448.697	10519.22
448.903	10439.35
449.11	10412.73
449.316	10224.31
449.522	10627.76
449.728	10842.8
449.935	11111.08
450.141	10850.99
450.347	11233.96
450.553	10752.69
450.76	10963.63
450.966	11350.7
451.172	11315.88
451.378	11559.59
451.584	11451.05
451.791	11657.89
451.997	11596.45
452.203	11805.35
452.409	11698.85
452.615	11694.75
452.821	11307.69
453.027	11209.39
453.233	11791.01
453.44	11233.96
453.646	11414.18
453.852	11467.43
454.058	11684.52
454.264	11336.36
454.47	11692.71
454.676	11260.59
454.882	11739.81
455.088	10447.54
455.294	10625.72
455.5	10943.15
455.705	10986.16
455.911	10656.43
456.117	10394.29
456.323	10154.68
456.529	9784
456.735	10083
456.941	9939.65
457.147	9810.62
457.352	9372.36
457.558	9261.77
457.764	9317.06
457.97	9077.45
458.176	9099.98
458.381	8895.18
458.587	8346.33
458.793	8510.16
458.999	8155.86
459.204	8694.48
459.41	8352.47
459.616	7672.54
459.821	7881.44
460.027	7873.25
460.233	7645.92
460.438	7379.68
460.644	7346.92
460.85	7123.69
461.055	6951.66
461.261	6802.16
461.466	6267.64
461.672	6042.36
461.878	6339.32
462.083	6130.42
462.289	6284.02
462.494	5978.87
462.7	5602.05
462.905	5626.62
463.111	5714.69
463.316	5876.48
463.522	5618.43
463.727	5591.81
463.932	5792.51
464.138	5600
464.343	5552.9
464.549	5393.16
464.754	5686.01
464.959	5683.97
465.165	5554.94
465.37	5374.72
465.575	5190.41
465.781	5536.51
465.986	5505.79
466.191	5339.91
466.397	5169.93
466.602	4895.5
466.807	5065.48
467.012	5126.92
467.218	5071.62
467.423	5004.04
467.628	5030.66
467.833	5221.13
468.038	5083.91
468.244	4940.55
468.449	5198.6
468.654	4938.51
468.859	4911.88
469.064	4832.01
469.269	4832.01
469.474	4750.09
469.679	4711.18
469.885	4602.64
470.09	4678.41
470.295	4756.24
470.5	4680.46
470.705	4651.79
470.91	4535.06
471.115	4629.26
471.32	4571.92
471.525	4674.32
471.73	4420.37
471.935	4330.26
472.139	4270.87
472.344	4322.07
472.549	4354.83
472.754	4174.61
472.959	4104.98
473.164	4037.4
473.369	4064.02
473.574	4025.11
473.778	4021.02
473.983	4049.69
474.188	4070.17
474.393	3912.47
474.598	3969.82
474.802	3980.06
475.007	3945.24
475.212	3967.77
475.417	3592.99
475.621	3814.17
475.826	3738.4
476.031	3640.09
476.235	3498.78
476.44	3724.06
476.645	3502.88
476.849	3562.27
477.054	3588.89
477.259	3449.63
477.463	3423.01
477.668	3564.32
477.872	3486.5
478.077	3308.32
478.282	3306.27
478.486	3312.42
478.691	3257.12
478.895	3195.68
479.1	3248.93
479.304	3132.2
479.509	3140.39
479.713	3250.98
479.918	3097.38
480.122	3207.97
480.326	3117.86
480.531	3150.63
480.735	3072.81
480.94	3171.11
481.144	3185.44
481.348	3007.27
481.553	3037.99
481.757	2931.5
481.961	2945.83
482.166	3017.51
482.37	2888.49
482.574	2939.69
482.778	3019.56
482.983	3119.91
483.187	2886.44
483.391	3072.81
483.595	2863.91
483.8	3011.37
484.004	3017.51
484.208	2994.98
484.412	3019.56
484.616	2997.03
484.821	2962.22
485.025	3027.75
485.229	3021.61
485.433	2941.74
485.637	3031.85
485.841	2923.3
486.045	3044.13
486.249	3005.22
486.453	2939.69
486.657	2958.12
486.861	2951.98
487.065	2986.79
487.269	2988.84
487.473	3011.37
487.677	3101.48
487.881	2921.26
488.085	2906.92
488.289	2978.6
488.493	2929.45
488.697	3046.18
488.901	3015.46
489.105	3040.04
489.309	3138.34
489.512	2972.46
489.716	2964.26
489.92	3042.09
490.124	2919.21
490.328	3085.09
490.531	3007.27
490.735	3175.2
490.939	2978.6
491.143	3003.18
491.346	2962.22
491.55	3257.12
491.754	3134.25
491.958	3015.46
492.161	3142.44
492.365	3185.44
492.569	3138.34
492.772	3250.98
492.976	3156.77
493.18	3232.55
493.383	3296.04
493.587	3126.05
493.79	3298.08
493.994	3255.08
494.197	3312.42
494.401	3291.94
494.605	3293.99
494.808	3523.36
495.012	3420.96
495.215	3500.83
495.419	3564.32
495.622	3472.16
495.825	3533.6
496.029	3533.6
496.232	3666.72
496.436	3472.16
496.639	3705.63
496.843	3672.86
497.046	3674.91
497.249	3730.2
497.453	3713.82
497.656	3822.36
497.859	3611.42
498.063	3904.28
498.266	3816.22
498.469	3902.23
498.673	3980.06
498.876	3928.86
499.079	4096.79
499.282	4074.26
499.485	4147.99
499.689	4172.57
499.892	4104.98
500.095	4326.16
500.298	4387.6
500.501	4356.88
500.705	4438.8
500.908	4588.3
501.111	4539.15
501.314	4508.43
501.517	4580.11
501.72	4629.26
501.923	4651.79
502.126	4778.76
502.329	5010.18
502.532	4887.31
502.735	4979.47
502.938	4954.89
503.141	4940.55
503.344	5100.3
503.547	5165.83
503.75	5104.39
503.953	5456.64
504.156	5483.27
504.359	5341.96
504.562	5366.53
504.765	5563.14
504.968	5569.28
505.17	5739.26
505.373	5856
505.576	5872.38
505.779	5763.84
505.982	5847.8
506.185	5993.21
506.387	5997.31
506.59	6017.79
506.793	6163.19
506.996	6204.15
507.198	6195.96
507.401	6357.75
507.604	6294.26
507.807	6650.61
508.009	6445.81
508.212	6681.33
508.415	6824.69
508.617	6800.11
508.82	6896.36
509.022	6632.18
509.225	7140.07
509.428	7142.12
509.63	7129.83
509.833	7219.94
510.035	7463.65
510.238	7195.37
510.44	7420.64
510.643	7398.12
510.845	7439.08
511.048	7514.85
511.25	7678.69
511.453	7908.06
511.655	8032.99
511.858	7832.29
512.06	8000.22
512.262	8065.75
512.465	8172.25
512.667	8080.09
512.87	8288.98
513.072	8256.22
513.274	8442.58
513.477	8491.73
513.679	8542.93
513.881	8729.3
514.084	8639.19
514.286	8788.69
514.488	8884.94
514.69	9134.79
514.893	9140.94
515.095	9071.31
515.297	9310.92
515.499	9122.51
515.701	9335.49
515.904	9444.04
516.106	9583.3
516.308	9497.28
516.51	9786.05
516.712	9673.41
516.914	9777.86
517.116	9978.56
517.318	9888.45
517.52	9953.98
517.722	10281.66
517.925	10250.94
518.127	10451.64
518.329	10472.12
518.531	10484.41
518.733	10533.56
518.935	10762.93
519.136	10648.24
519.338	11002.54
519.54	10887.86
519.742	11006.64
519.944	11078.32
520.146	11340.46
520.348	11528.87
520.55	11236.01
520.752	11428.52
520.954	11449
521.155	11602.6
521.357	11647.65
521.559	11633.32
521.761	12073.63
521.963	11960.99
522.164	11825.82
522.366	11973.28
522.568	12047.01
522.77	12317.34
522.971	12483.22
523.173	12432.02
523.375	12683.92
523.576	12360.34
523.778	12466.84
523.98	12716.69
524.181	12663.44
524.383	12933.78
524.584	13005.45
524.786	13109.9
524.988	12931.73
525.189	12968.59
525.391	13224.59
525.592	13312.65
525.794	13128.33
525.995	13281.93
526.197	13318.79
526.398	13318.79
526.6	13230.73
526.801	13533.83
527.003	13611.65
527.204	13406.86
527.406	13439.62
527.607	13648.52
527.808	13834.88
528.01	13666.95
528.211	13558.41
528.412	13718.15
528.614	13859.46
528.815	13955.71
529.016	14013.06
529.218	13881.99
529.419	13843.07
529.62	14062.21
529.822	13853.31
530.023	13916.8
530.224	13961.86
530.425	14086.78
530.626	13988.48
530.828	14006.91
531.029	14183.04
531.23	14258.81
531.431	14062.21
531.632	14111.36
531.833	14060.16
532.035	14140.03
532.236	14250.62
532.437	14334.59
532.638	14156.41
532.839	14436.99
533.04	14221.95
533.241	14158.46
533.442	14359.16
533.643	14316.15
533.844	14312.06
534.045	14332.54
534.246	14148.22
534.447	14133.89
534.648	14242.43
534.849	14426.75
535.05	14307.96
535.251	14539.38
535.451	14064.25
535.652	14361.21
535.853	14287.48
536.054	14385.79
536.255	14291.58
536.456	14357.11
536.657	14463.61
536.857	14436.99
537.058	14203.52
537.259	14479.99
537.46	14467.7
537.66	14195.32
537.861	14518.9
538.062	14125.69
538.263	14326.39
538.463	14391.93
538.664	14248.57
538.865	14391.93
539.065	14561.91
539.266	14203.52
539.466	14520.95
539.667	14238.33
539.868	14258.81
540.068	14328.44
540.269	14389.88
540.469	14174.85
540.67	14260.86
540.87	14353.02
541.071	14428.79
541.271	14207.61
541.472	14537.34
541.672	14275.2
541.873	14242.43
542.073	14189.18
542.274	14371.45
542.474	14295.68
542.675	14420.6
542.875	14559.86
543.075	14068.35
543.276	14178.94
543.476	14369.4
543.676	14242.43
543.877	14117.5
544.077	14011.01
544.277	14129.79
544.478	14129.79
544.678	14242.43
544.878	14119.55
545.078	14164.61
545.279	14031.49
545.479	14004.86
545.679	14213.76
545.879	14146.17
546.079	14197.37
546.28	13933.18
546.48	14054.01
546.68	14402.17
546.88	14185.08
547.08	14209.66
547.28	14174.85
547.48	13851.27
547.68	14121.6
547.88	14137.98
548.081	14197.37
548.281	13861.51
548.481	13894.27
548.681	14148.22
548.881	14154.37
549.081	13951.62
549.28	13890.18
549.48	13955.71
549.68	14058.11
549.88	14205.56
550.08	13697.67
550.28	14021.25
550.48	13953.66
550.68	14408.31
550.88	13769.35
551.08	14049.92
551.279	14033.54
551.479	13998.72
551.679	14097.02
551.879	13900.42
552.079	13894.27
552.278	13738.63
552.478	14039.68
552.678	13968
552.878	14154.37
553.077	13904.51
553.277	13830.79
553.477	14146.17
553.676	13970.05
553.876	13775.49
554.076	13761.16
554.275	13779.59
554.475	13933.18
554.674	13865.6
554.874	14119.55
555.074	13746.82
555.273	14090.88
555.473	13888.13
555.672	13908.61
555.872	13904.51
556.071	13777.54
556.271	13757.06
556.47	13798.02
556.67	13675.14
556.869	13492.87
557.068	13683.33
557.268	13652.61
557.467	13636.23
557.667	13974.14
557.866	13712
558.065	13628.04
558.265	13521.54
558.464	13421.19
558.663	13656.71
558.863	13625.99
559.062	13843.07
559.261	13363.85
559.461	13597.32
559.66	13550.21
559.859	13447.82
560.058	13390.47
560.258	13787.78
560.457	13363.85
560.656	13476.49
560.855	13294.22
561.054	13396.62
561.253	13318.79
561.453	13380.23
561.652	13421.19
561.851	13720.2
562.05	13261.45
562.249	13185.68
562.448	13482.63
562.647	13279.88
562.846	13105.81
563.045	13320.84
563.244	13230.73
563.443	13394.57
563.642	12997.26
563.841	13091.47
564.04	13195.92
564.239	13314.7
564.438	13249.16
564.637	13118.09
564.836	13216.4
565.035	12962.45
565.234	12831.38
565.432	13005.45
565.631	12915.34
565.83	13134.48
566.029	12984.98
566.228	12958.35
566.427	12862.1
566.625	13087.37
566.824	12829.33
567.023	12882.58
567.222	12671.64
567.42	12878.48
567.619	12771.99
567.818	12921.49
568.016	12774.03
568.215	12755.6
568.414	12747.41
568.612	12761.75
568.811	12417.69
569.01	12704.4
569.208	12329.63
569.407	12753.55
569.605	12655.25
569.804	12647.06
570.002	12520.09
570.201	12739.22
570.4	12702.36
570.598	12411.54
570.797	12376.73
570.995	12429.98
571.193	12245.66
571.392	12528.28
571.59	12339.87
571.789	12202.65
571.987	12432.02
572.186	12024.48
572.384	12087.96
572.582	12321.43
572.781	12268.19
572.979	12004
573.177	12145.31
573.376	12016.29
573.574	12120.73
573.772	12133.02
573.971	11981.47
574.169	11991.71
574.367	11872.93
574.565	12108.44
574.763	11903.65
574.962	11958.94
575.16	11741.86
575.358	11842.21
575.556	11748
575.754	11811.49
575.952	11633.32
576.151	11768.48
576.349	11752.1
576.547	11661.99
576.745	11641.51
576.943	11598.5
577.141	11750.05
577.339	11330.22
577.537	11543.21
577.735	11479.72
577.933	11473.57
578.131	11389.61
578.329	11449
578.527	11481.77
578.725	11229.87
578.923	11479.72
579.121	11203.24
579.319	11645.6
579.516	11213.48
579.714	11440.81
579.912	11088.56
580.11	11264.68
580.308	11246.25
580.506	11055.79
580.704	10924.72
580.901	11029.17
581.099	11088.56
581.297	11035.31
581.495	11074.22
581.692	11111.08
581.89	10773.17
582.088	11072.17
582.285	10777.26
582.483	11088.56
582.681	10861.23
582.878	10629.81
583.076	10691.25
583.274	10900.14
583.471	10576.56
583.669	10547.89
583.866	10623.67
584.064	10730.16
584.262	10662.58
584.459	10728.11
584.657	10619.57
584.854	10693.3
585.052	10558.13
585.249	10580.66
585.447	10295.99
585.644	10250.94
585.841	10740.4
586.039	10427.06
586.236	10355.38
586.434	10496.69
586.631	10242.75
586.828	10412.73
587.026	10271.42
587.223	10025.66
587.42	10007.23
587.618	10150.59
587.815	10013.37
588.012	9892.54
588.21	10140.35
588.407	10295.99
588.604	9974.46
588.801	10023.61
588.999	9874.11
589.196	10035.9
589.393	9921.21
589.59	10029.76
589.787	9906.88
589.984	9880.25
590.182	9792.19
590.379	9738.94
590.576	9781.95
590.773	9677.51
590.97	9661.12
591.167	9632.45
591.364	9708.23
591.561	9738.94
591.758	9525.96
591.955	9511.62
592.152	9548.48
592.349	9501.38
592.546	9517.76
592.743	9296.58
592.94	9458.37
593.137	9419.46
593.334	9505.48
593.531	9339.59
593.727	9493.19
593.924	9278.15
594.121	9237.19
594.318	9169.61
594.515	9222.86
594.712	9108.17
594.908	9337.54
595.105	9073.35
595.302	8934.09
595.499	9200.33
595.696	9056.97
595.892	8997.58
596.089	9085.64
596.286	9202.38
596.482	8993.48
596.679	8919.76
596.876	8968.91
597.072	8907.47
597.269	8770.26
597.466	8809.17
597.662	8837.84
597.859	8774.35
598.055	8737.49
598.252	8706.77
598.448	8839.89
598.645	8757.97
598.841	8635.09
599.038	8719.06
599.234	8618.71
599.431	8495.83
599.627	8499.92
599.824	8493.78
600.02	8383.19
600.217	8622.8
600.413	8395.48
600.609	8284.89
600.806	8528.6
601.002	8393.43
601.198	8278.74
601.395	8266.46
601.591	8188.63
601.787	8258.26
601.984	8172.25
602.18	8119
602.376	8440.53
602.572	8032.99
602.769	8375
602.965	8123.1
603.161	8100.57
603.357	8073.95
603.553	8106.71
603.75	8002.27
603.946	8020.7
604.142	8147.67
604.338	7893.72
604.534	8092.38
604.73	7836.38
604.926	7863.01
605.122	7871.2
605.318	7834.33
605.514	7844.57
605.71	7783.13
605.906	7680.74
606.102	7733.98
606.298	7879.39
606.494	7783.13
606.69	7836.38
606.886	7678.69
607.082	7770.85
607.278	7574.24
607.474	7617.25
607.67	7721.7
607.866	7504.61
608.062	7670.5
608.257	7668.45
608.453	7580.39
608.649	7494.37
608.845	7561.95
609.041	7690.98
609.236	7545.57
609.432	7484.13
609.628	7494.37
609.824	7408.36
610.019	7449.32
610.215	7394.02
610.411	7551.71
610.606	7279.33
610.802	7271.14
610.998	7394.02
611.193	7326.44
611.389	7379.68
611.584	7267.05
611.78	7232.23
611.976	7181.03
612.171	7142.12
612.367	7346.92
612.562	7281.38
612.758	6992.62
612.953	7125.74
613.149	7201.51
613.344	7316.2
613.539	7273.19
613.735	7240.42
613.93	7168.74
614.126	7080.68
614.321	7287.53
614.517	7205.61
614.712	7168.74
614.907	7009
615.103	7070.44
615.298	6978.28
615.493	7181.03
615.688	7011.05
615.884	7168.74
616.079	6851.31
616.274	7011.05
616.47	6877.93
616.665	6966
616.86	6826.73
617.055	6814.45
617.25	6931.18
617.445	6789.87
617.641	6945.52
617.836	6869.74
618.031	6689.52
618.226	6830.83
618.421	6738.67
618.616	6740.72
618.811	6603.5
619.006	6818.54
619.201	6568.69
619.396	6703.86
619.591	6580.98
619.786	6589.17
619.981	6464.24
620.176	6576.88
620.371	6478.58
620.566	6480.63
620.761	6443.76
620.956	6529.78
621.151	6316.79
621.346	6284.02
621.541	6222.58
621.735	6220.53
621.93	6245.11
622.125	6253.3
622.32	6093.56
622.515	6206.2
622.709	6212.34
622.904	6050.55
623.099	6155
623.294	6042.36
623.488	6052.6
623.683	5856
623.878	5905.15
624.072	6038.27
624.267	5917.44
624.462	5901.05
624.656	5815.04
624.851	5622.53
625.046	5747.45
625.24	5800.7
625.435	5632.77
625.629	5704.45
625.824	5569.28
626.018	5731.07
626.213	5651.2
626.407	5405.44
626.602	5526.27
626.796	5487.36
626.991	5350.15
627.185	5421.83
627.38	5446.4
627.574	5354.24
627.768	5247.75
627.963	5292.8
628.157	5262.09
628.352	5274.37
628.546	5106.44
628.74	5272.32
628.935	5079.82
629.129	5036.81
629.323	5010.18
629.517	5161.73
629.712	5042.95
629.906	5114.63
630.1	4999.95
630.294	5063.43
630.489	4997.9
630.683	4920.07
630.877	4952.84
631.071	4836.11
631.265	4922.12
631.459	4838.16
631.653	4805.39
631.848	4717.33
632.042	4748.04
632.236	4809.48
632.43	4834.06
632.624	4764.43
632.818	4643.6
633.012	4565.78
633.206	4592.4
633.4	4586.26
633.594	4635.41
633.788	4520.72
633.982	4610.83
634.176	4518.67
634.369	4481.81
634.563	4330.26
634.757	4461.33
634.951	4473.62
635.145	4502.29
635.339	4356.88
635.533	4256.53
635.726	4291.35
635.92	4356.88
636.114	4238.1
636.308	4248.34
636.501	4342.55
636.695	4168.47
636.889	4186.9
637.083	4100.89
637.276	4160.28
637.47	4164.37
637.664	4213.53
637.857	4197.14
638.051	4080.41
638.244	3926.81
638.438	4057.88
638.632	4074.26
638.825	3912.47
639.019	3975.96
639.212	3863.32
639.406	3994.39
639.599	3984.15
639.793	3982.1
639.986	3760.92
640.18	3810.08
640.373	3748.64
640.567	3875.61
640.76	3871.51
640.954	3832.6
641.147	3701.53
641.34	3752.73
641.534	3638.05
641.727	3679.01
641.92	3674.91
642.114	3719.96
642.307	3666.72
642.5	3562.27
642.694	3498.78
642.887	3488.54
643.08	3728.16
643.273	3441.44
643.467	3453.73
643.66	3574.56
643.853	3418.91
644.046	3373.86
644.239	3595.04
644.432	3607.33
644.626	3351.33
644.819	3408.67
645.012	3470.11
645.205	3396.39
645.398	3298.08
645.591	3404.58
645.784	3416.87
645.977	3283.75
646.17	3263.27
646.363	3201.83
646.556	3195.68
646.749	3281.7
646.942	3226.4
647.135	3044.13
647.328	3144.49
647.521	3160.87
647.714	3152.68
647.907	3136.29
648.099	2980.65
648.292	3058.47
648.485	3035.94
648.678	3076.9
648.871	2982.7
649.064	3042.09
649.256	2933.54
649.449	2978.6
649.642	2976.55
649.835	2960.17
650.027	2779.95
650.22	2949.93
650.413	2857.77
650.605	2861.87
650.798	2851.63
650.991	2857.77
651.183	2827.05
651.376	2755.37
651.568	2722.6
651.761	2741.04
651.954	2794.28
652.146	2663.21
652.339	2777.9
652.531	2757.42
652.724	2673.45
652.916	2693.93
653.109	2599.73
653.301	2577.2
653.494	2632.49
653.686	2630.45
653.879	2612.01
654.071	2597.68
654.263	2517.81
654.456	2575.15
654.648	2517.81
654.84	2538.29
655.033	2546.48
655.225	2542.38
655.417	2566.96
655.61	2505.52
655.802	2532.14
655.994	2476.85
656.186	2468.66
656.379	2374.45
656.571	2439.98
656.763	2251.57
656.955	2437.94
657.148	2409.26
657.34	2255.67
657.532	2313.01
657.724	2364.21
657.916	2370.35
658.108	2452.27
658.3	2300.72
658.492	2257.71
658.684	2368.31
658.876	2278.19
659.068	2177.84
659.26	2284.34
659.452	2272.05
659.644	2204.47
659.836	2265.91
660.028	2196.28
660.22	2050.87
660.412	2161.46
660.604	2337.59
660.796	2126.64
660.988	2126.64
661.18	2134.84
661.372	2143.03
661.563	2120.5
661.755	2044.73
661.947	2061.11
662.139	2032.44
662.331	2009.91
662.522	2069.3
662.714	1968.95
662.906	2044.73
663.097	1973.05
663.289	1987.38
663.481	2048.82
663.673	2003.77
663.864	1999.67
664.056	1915.7
664.247	1925.94
664.439	1848.12
664.631	1975.1
664.822	1923.9
665.014	1997.62
665.205	1901.37
665.397	1854.27
665.588	1952.57
665.78	1850.17
665.971	1903.42
666.163	1870.65
666.354	1815.35
666.546	1725.24
666.737	1774.39
666.929	1741.63
667.12	1805.11
667.311	1821.5
667.503	1784.63
667.694	1727.29
667.885	1764.15
668.077	1758.01
668.268	1676.09
668.459	1637.18
668.651	1772.35
668.842	1715
669.033	1698.62
669.224	1678.14
669.416	1598.27
669.607	1667.9
669.798	1690.43
669.989	1692.48
670.18	1585.98
670.371	1669.95
670.563	1694.52
670.754	1579.84
670.945	1663.8
671.136	1686.33
671.327	1592.13
671.518	1649.47
671.709	1573.69
671.9	1712.96
672.091	1579.84
672.282	1510.21
672.473	1569.6
672.664	1667.9
672.855	1473.34
673.046	1487.68
673.237	1561.41
673.428	1475.39
673.619	1561.41
673.809	1459.01
674	1487.68
674.191	1514.3
674.382	1491.77
674.573	1524.54
674.764	1497.92
674.954	1407.81
675.145	1475.39
675.336	1522.49
675.527	1497.92
675.717	1399.62
675.908	1436.48
676.099	1391.42
676.289	1459.01
676.48	1342.27
676.671	1391.42
676.861	1401.66
677.052	1438.53
677.243	1411.9
677.433	1452.86
677.624	1491.77
677.814	1350.46
678.005	1477.44
678.195	1364.8
678.386	1465.15
678.576	1360.7
678.767	1358.66
678.957	1483.58
679.148	1327.94
679.338	1334.08
679.529	1475.39
679.719	1444.67
679.909	1360.7
680.1	1370.94
680.29	1444.67
680.481	1407.81
680.671	1332.03
680.861	1381.18
681.052	1360.7
681.242	1321.79
681.432	1397.57
681.622	1317.7
681.813	1377.09
682.003	1303.36
682.193	1293.12
682.383	1401.66
682.573	1299.27
682.764	1354.56
682.954	1332.03
683.144	1321.79
683.334	1221.44
683.524	1305.41
683.714	1321.79
683.904	1215.3
684.094	1303.36
684.284	1291.07
684.474	1332.03
684.664	1274.69
684.854	1241.92
685.044	1235.78
685.234	1241.92
685.424	1239.87
685.614	1319.75
685.804	1248.07
685.994	1321.79
686.184	1309.51
686.374	1223.49
686.564	1319.75
686.753	1305.41
686.943	1272.64
687.133	1297.22
687.323	1293.12
687.513	1258.31
687.702	1221.44
687.892	1289.03
688.082	1321.79
688.272	1157.96
688.461	1280.83
688.651	1243.97
688.841	1286.98
689.03	1252.16
689.22	1237.83
689.41	1200.96
689.599	1235.78
689.789	1213.25
689.979	1166.15
690.168	1160
690.358	1129.28
690.547	1112.9
690.737	1182.53
690.926	1166.15
691.116	1186.63
691.305	1102.66
691.495	1133.38
691.684	1149.76
691.874	1088.32
692.063	1176.39
692.252	1125.19
692.442	1110.85
692.631	1110.85
692.82	1166.15
693.01	1086.28
693.199	1086.28
693.388	1119.04
693.578	1098.56
693.767	1135.43
693.956	996.17
694.146	1125.19
694.335	1061.7
694.524	1084.23
694.713	1119.04
694.902	1014.6
695.092	1129.28
695.281	1102.66
695.47	1073.99
695.659	1092.42
695.848	998.21
696.037	1028.93
696.226	1016.65
696.415	996.17
696.604	1055.56
696.793	1078.08
696.982	985.93
697.171	1082.18
697.36	1026.89
697.549	1002.31
697.738	1100.61
697.927	1010.5
698.116	979.78
698.305	1092.42
698.494	981.83
698.683	992.07
698.872	1035.08
699.061	1061.7
699.25	1026.89
699.438	961.35
699.627	1047.37
699.816	1096.52
700.005	1143.62
700.193	1096.52
700.382	1004.36
700.571	1028.93
700.76	955.21
700.948	977.73
701.137	881.48
701.326	1012.55
701.514	940.87
701.703	1037.13
701.892	1020.74
702.08	961.35
702.269	971.59
702.457	981.83
702.646	1035.08
702.834	961.35
703.023	940.87
703.212	932.68
703.4	1028.93
703.589	944.97
703.777	910.15
703.965	908.1
704.154	877.38
704.342	928.58
704.531	957.25
704.719	940.87
704.907	981.83
705.096	877.38
705.284	889.67
705.472	867.14
705.661	967.49
705.849	881.48
706.037	887.62
706.226	893.77
706.414	916.3
706.602	883.53
706.79	936.78
706.979	949.06
707.167	987.97
707.355	971.59
707.543	863.05
707.731	928.58
707.919	875.34
708.107	910.15
708.296	873.29
708.484	910.15
708.672	920.39
708.86	881.48
709.048	920.39
709.236	858.95
709.424	850.76
709.612	846.66
709.8	791.37
709.988	797.51
710.176	930.63
710.364	904.01
710.551	920.39
710.739	830.28
710.927	834.38
711.115	861
711.303	817.99
711.491	858.95
711.679	838.47
711.866	844.62
712.054	904.01
712.242	889.67
712.43	850.76
712.617	824.14
712.805	854.86
712.993	861
713.181	854.86
713.368	891.72
713.556	836.42
713.744	828.23
713.931	883.53
714.119	824.14
714.306	838.47
714.494	889.67
714.682	795.47
714.869	713.55
715.057	811.85
715.244	834.38
715.432	879.43
715.619	781.13
715.807	787.27
715.994	809.8
716.182	881.48
716.369	811.85
716.556	781.13
716.744	895.82
716.931	789.32
717.119	840.52
717.306	850.76
717.493	875.34
717.681	777.03
717.868	891.72
718.055	834.38
718.242	789.32
718.43	809.8
718.617	795.47
718.804	858.95
718.991	877.38
719.179	779.08
719.366	895.82
719.553	738.12
719.74	881.48
719.927	777.03
720.114	811.85
720.301	787.27
720.488	742.22
720.676	836.42
720.863	910.15
721.05	750.41
721.237	899.91
721.424	787.27
721.611	793.42
721.798	797.51
721.985	803.66
722.172	848.71
722.358	822.09
722.545	748.36
722.732	844.62
722.919	836.42
723.106	891.72
723.293	848.71
723.48	801.61
723.667	793.42
723.853	719.69
724.04	768.84
724.227	848.71
724.414	869.19
724.6	877.38
724.787	791.37
724.974	809.8
725.161	828.23
725.347	805.71
725.534	797.51
725.72	832.33
725.907	858.95
726.094	858.95
726.28	832.33
726.467	861
726.653	762.7
726.84	787.27
727.027	815.94
727.213	760.65
727.4	779.08
727.586	830.28
727.773	783.18
727.959	746.31
728.145	719.69
728.332	777.03
728.518	805.71
728.705	813.9
728.891	791.37
729.077	824.14
729.264	742.22
729.45	746.31
729.636	838.47
729.823	740.17
730.009	748.36
730.195	766.79
730.382	779.08
730.568	807.75
730.754	766.79
730.94	820.04
731.126	783.18
731.313	797.51
731.499	750.41
731.685	797.51
731.871	754.51
732.057	811.85
732.243	750.41
732.429	817.99
732.615	822.09
732.801	744.27
732.987	734.03
733.173	748.36
733.359	883.53
733.545	715.59
733.731	725.83
733.917	754.51
734.103	795.47
734.289	820.04
734.475	666.44
734.661	865.1
734.847	805.71
735.033	807.75
735.219	762.7
735.404	746.31
735.59	799.56
735.776	844.62
735.962	783.18
736.148	848.71
736.333	770.89
736.519	772.94
736.705	768.84
736.89	873.29
737.076	764.75
737.262	719.69
737.447	779.08
737.633	842.57
737.819	826.18
738.004	795.47
738.19	842.57
738.375	707.4
738.561	826.18
738.747	830.28
738.932	811.85
739.118	789.32
739.303	783.18
739.489	889.67
739.674	742.22
739.859	813.9
740.045	688.97
740.23	719.69
740.416	801.61
740.601	762.7
740.786	711.5
740.972	717.64
741.157	760.65
741.342	699.21
741.528	856.9
741.713	727.88
741.898	783.18
742.084	820.04
742.269	854.86
742.454	727.88
742.639	766.79
742.824	822.09
743.01	768.84
743.195	707.4
743.38	717.64
743.565	750.41
743.75	688.97
743.935	734.03
744.12	828.23
744.305	727.88
744.49	787.27
744.675	686.92
744.86	660.3
745.045	734.03
745.23	686.92
745.415	652.11
745.6	731.98
745.785	674.64
745.97	662.35
746.155	631.63
746.34	738.12
746.525	817.99
746.71	699.21
746.895	762.7
747.079	717.64
747.264	645.96
747.449	625.48
747.634	703.31
747.819	680.78
748.003	633.68
748.188	602.96
748.373	664.4
748.557	648.01
748.742	709.45
748.927	701.26
749.111	686.92
749.296	658.25
749.481	699.21
749.665	662.35
749.85	680.78
750.034	668.49
750.219	660.3
750.404	588.62
750.588	695.11
750.773	658.25
750.957	674.64
751.141	596.81
751.326	670.54
751.51	598.86
751.695	654.16
751.879	617.29
752.064	564.04
752.248	641.87
752.432	668.49
752.617	613.2
752.801	594.76
752.985	699.21
753.17	676.68
753.354	592.72
753.538	637.77
753.722	572.24
753.907	631.63
754.091	568.14
754.275	611.15
754.459	523.09
754.643	611.15
754.828	621.39
755.012	562
755.196	557.9
755.38	594.76
755.564	654.16
755.748	521.04
755.932	510.8
756.116	588.62
756.3	510.8
756.484	592.72
756.668	459.6
756.852	525.13
757.036	510.8
757.22	461.65
757.404	549.71
757.588	486.22
757.772	588.62
757.956	484.17
758.14	492.37
758.323	465.74
758.507	545.61
758.691	445.26
758.875	506.7
759.059	549.71
759.242	527.18
759.426	420.69
759.61	475.98
759.794	508.75
759.977	521.04
760.161	506.7
760.345	502.61
760.528	496.46
760.712	475.98
760.895	482.13
761.079	490.32
761.263	416.59
761.446	398.16
761.63	490.32
761.813	406.35
761.997	482.13
762.18	451.41
762.364	537.42
762.547	371.54
762.731	396.11
762.914	369.49
763.098	400.21
763.281	467.79
763.464	430.93
763.648	459.6
763.831	432.97
764.015	445.26
764.198	488.27
764.381	449.36
764.564	394.06
764.748	463.69
764.931	455.5
765.114	422.73
765.297	449.36
765.481	361.3
765.664	385.87
765.847	340.82
766.03	430.93
766.213	443.21
766.397	349.01
766.58	318.29
766.763	336.72
766.946	381.78
767.129	428.88
767.312	330.58
767.495	357.2
767.678	303.95
767.861	435.02
768.044	412.5
768.227	392.02
768.41	418.64
768.593	318.29
768.776	316.24
768.959	398.16
769.142	408.4
769.324	371.54
769.507	402.26
769.69	369.49
769.873	369.49
770.056	418.64
770.239	308.05
770.421	303.95
770.604	385.87
770.787	383.82
770.97	303.95
771.152	277.33
771.335	267.09
771.518	346.96
771.7	310.1
771.883	365.39
772.066	334.67
772.248	396.11
772.431	334.67
772.613	336.72
772.796	291.66
772.978	326.48
773.161	342.86
773.343	340.82
773.526	289.62
773.708	238.42
773.891	267.09
774.073	279.38
774.256	336.72
774.438	342.86
774.621	295.76
774.803	330.58
774.985	211.79
775.168	283.47
775.35	338.77
775.532	281.43
775.715	299.86
775.897	281.43
776.079	295.76
776.261	349.01
776.444	246.61
776.626	342.86
776.808	207.7
776.99	281.43
777.173	293.71
777.355	271.19
777.537	295.76
777.719	326.48
777.901	267.09
778.083	267.09
778.265	240.47
778.447	281.43
778.629	303.95
778.811	224.08
778.993	297.81
779.175	203.6
779.357	203.6
779.539	181.07
779.721	219.99
779.903	260.95
780.085	297.81
780.267	258.9
780.449	262.99
780.631	193.36
780.812	203.6
780.994	238.42
781.176	185.17
781.358	254.8
781.54	205.65
781.721	248.66
781.903	207.7
782.085	199.51
782.267	226.13
782.448	250.71
782.63	240.47
782.812	254.8
782.993	287.57
783.175	224.08
783.357	193.36
783.538	238.42
783.72	230.23
783.901	129.88
784.083	176.98
784.264	197.46
784.446	183.12
784.627	170.83
784.809	193.36
784.99	105.3
785.172	209.75
785.353	156.5
785.535	187.22
785.716	160.59
785.897	197.46
786.079	226.13
786.26	226.13
786.441	99.16
786.623	179.03
786.804	176.98
786.985	156.5
787.167	144.21
787.348	232.27
787.529	205.65
787.71	213.84
787.891	201.55
788.073	129.88
788.254	162.64
788.435	275.28
788.616	185.17
788.797	127.83
788.978	158.55
789.159	101.2
789.34	136.02
789.522	125.78
789.703	152.4
789.884	158.55
790.065	211.79
790.246	72.53
790.427	95.06
790.607	131.92
790.788	154.45
790.969	138.07
791.15	105.3
791.331	113.49
791.512	170.83
791.693	156.5
791.874	187.22
792.054	185.17
792.235	97.11
792.416	101.2
792.597	140.12
792.778	117.59
792.958	136.02
793.139	103.25
793.32	121.68
793.5	166.74
793.681	123.73
793.862	80.72
794.042	115.54
794.223	166.74
794.404	95.06
794.584	58.2
794.765	60.24
794.945	99.16
795.126	54.1
795.306	211.79
795.487	86.87
795.667	109.4
795.848	131.92
796.028	152.4
796.209	76.63
796.389	166.74
796.57	258.9
796.75	90.96
796.93	107.35
797.111	84.82
797.291	105.3
797.471	129.88
797.652	70.48
797.832	93.01
798.012	99.16
798.192	35.67
798.373	123.73
798.553	121.68
798.733	97.11
798.913	97.11
799.093	78.68
799.274	88.92
799.454	95.06
799.634	203.6
799.814	82.77
799.994	125.78
800.174	93.01
800.354	70.48
800.534	86.87
800.714	99.16
800.894	88.92
801.074	66.39
801.254	121.68
801.434	97.11
801.614	62.29
801.794	117.59
801.974	297.81
802.154	99.16
802.334	113.49
802.514	142.16
802.693	50
802.873	84.82
803.053	107.35
803.233	58.2
803.413	105.3
803.592	54.1
803.772	52.05
803.952	43.86
804.131	27.48
804.311	68.44
804.491	23.38
804.67	58.2
804.85	56.15
805.03	37.72
805.209	152.4
805.389	74.58
805.568	33.62
805.748	82.77
805.928	11.09
806.107	160.59
806.287	117.59
806.466	19.29
806.646	111.44
806.825	86.87
807.004	93.01
807.184	2.9
807.363	90.96
807.543	7
807.722	43.86
807.901	119.64
808.081	43.86
808.26	17.24
808.439	72.53
808.619	93.01
808.798	54.1
808.977	45.91
809.156	133.97
809.336	78.68
809.515	88.92
809.694	113.49
809.873	111.44
810.052	-13.48
810.231	37.72
810.411	25.43
810.59	88.92
810.769	60.24
810.948	29.52
811.127	50
811.306	68.44
811.485	2.9
811.664	45.91
811.843	47.96
812.022	107.35
812.201	47.96
812.38	52.05
812.559	25.43
812.737	80.72
812.916	70.48
813.095	35.67
813.274	-5.29
813.453	37.72
813.632	52.05
813.811	31.57
813.989	76.63
814.168	111.44
814.347	-25.77
814.526	-3.24
814.704	-11.43
814.883	80.72
815.062	68.44
815.24	31.57
815.419	68.44
815.598	133.97
815.776	39.76
815.955	88.92
816.133	17.24
816.312	86.87
816.49	64.34
816.669	78.68
816.847	-11.43
817.026	47.96
817.204	90.96
817.383	121.68
817.561	97.11
817.74	70.48
817.918	131.92
818.097	41.81
818.275	31.57
818.453	2.9
818.632	27.48
818.81	31.57
818.988	33.62
819.167	72.53
819.345	107.35
819.523	90.96
819.701	23.38
819.879	45.91
820.058	15.19
820.236	103.25
820.414	50
820.592	-27.82
820.77	2.9
820.948	66.39
821.127	146.26
821.305	41.81
821.483	54.1
821.661	90.96
821.839	21.33
822.017	-3.24
822.195	41.81
822.373	72.53
822.551	29.52
822.729	29.52
822.907	-40.11
823.085	2.9
823.262	62.29
823.44	66.39
823.618	62.29
823.796	-42.15
823.974	7
824.152	33.62
824.329	21.33
824.507	45.91
824.685	47.96
824.863	60.24
825.04	125.78
825.218	9.05
825.396	17.24
825.574	-5.29
825.751	52.05
825.929	29.52
826.107	-62.63
826.284	27.48
826.462	88.92
826.639	76.63
826.817	62.29
826.994	25.43
827.172	-25.77
827.349	60.24
827.527	43.86
827.704	113.49
827.882	23.38
828.059	60.24
828.237	27.48
828.414	109.4
828.591	-36.01
828.769	72.53
828.946	64.34
829.124	93.01
829.301	-1.19
829.478	103.25
829.655	-25.77
829.833	9.05
830.01	47.96
830.187	31.57
830.364	-31.91
830.542	45.91
830.719	27.48
830.896	4.95
831.073	76.63
831.25	-5.29
831.427	31.57
831.604	2.9
831.782	7
831.959	54.1
832.136	35.67
832.313	-3.24
832.49	29.52
832.667	21.33
832.844	-48.3
833.021	56.15
833.198	43.86
833.374	-19.63
833.551	-25.77
833.728	35.67
833.905	-13.48
834.082	45.91
834.259	17.24
834.436	131.92
834.612	-27.82
834.789	4.95
834.966	-25.77
835.143	11.09
835.319	-29.87
835.496	-3.24
835.673	21.33
835.85	29.52
836.026	31.57
836.203	-31.91
836.38	-17.58
836.556	41.81
836.733	31.57
836.909	21.33
837.086	-21.67
837.262	27.48
837.439	-5.29
837.616	45.91
837.792	7
837.968	-1.19
838.145	-19.63
838.321	109.4
838.498	-40.11
838.674	68.44
838.851	11.09
839.027	39.76
839.203	80.72
839.38	78.68
839.556	39.76
839.732	37.72
839.909	-23.72
840.085	-33.96
840.261	35.67
840.437	-74.92
840.614	-44.2
840.79	31.57
840.966	21.33
841.142	-36.01
841.318	-11.43
841.494	-15.53
841.671	-44.2
841.847	-3.24
842.023	-25.77
842.199	37.72
842.375	-11.43
842.551	-23.72
842.727	-42.15
842.903	23.38
843.079	-1.19
843.255	9.05
843.431	35.67
843.607	2.9
843.783	-60.59
843.959	-33.96
844.134	-21.67
844.31	68.44
844.486	-9.39
844.662	25.43
844.838	4.95
845.013	45.91
845.189	7
845.365	29.52
845.541	0.85
845.716	4.95
845.892	2.9
846.068	4.95
846.244	27.48
846.419	-25.77
846.595	-33.96
846.77	-44.2
846.946	21.33
847.122	29.52
847.297	58.2
847.473	95.06
847.648	-17.58
847.824	4.95
847.999	-11.43
848.175	-25.77
848.35	15.19
848.526	-25.77
848.701	27.48
848.876	-13.48
849.052	21.33
849.227	17.24
849.403	21.33
849.578	17.24
849.753	-23.72
849.929	-19.63
850.104	-9.39
850.279	-13.48
850.454	2.9
850.63	7
850.805	45.91
850.98	13.14
851.155	33.62
851.33	-52.39
851.505	41.81
851.681	41.81
851.856	-5.29
852.031	41.81
852.206	-36.01
852.381	-85.16
852.556	9.05
852.731	-23.72
852.906	4.95
853.081	64.34
853.256	0.85
853.431	9.05
853.606	-15.53
853.781	13.14
853.956	-1.19
854.131	25.43
854.305	-33.96
854.48	2.9
854.655	-19.63
854.83	-9.39
855.005	-7.34
855.18	23.38
855.354	41.81
855.529	-19.63
855.704	-17.58
855.879	86.87
856.053	-56.49
856.228	0.85
856.403	4.95
856.577	-17.58
856.752	74.58
856.926	-11.43
857.101	17.24
857.276	-19.63
857.45	33.62
857.625	9.05
857.799	-54.44
857.974	56.15
858.148	-21.67
858.323	31.57
858.497	-36.01
858.672	-5.29
858.846	-70.83
859.02	4.95
859.195	13.14
859.369	-54.44
859.543	-46.25
859.718	45.91
859.892	13.14
860.066	29.52
860.241	-72.87
860.415	13.14
860.589	4.95
860.763	29.52
860.938	0.85
861.112	39.76
861.286	9.05
861.46	-15.53
861.634	-17.58
861.808	11.09
861.982	-27.82
862.157	7
862.331	9.05
862.505	-40.11
862.679	-36.01
862.853	-29.87
863.027	-5.29
863.201	-33.96
863.375	11.09
863.549	4.95
863.722	0.85
863.896	17.24
864.07	-15.53
864.244	15.19
864.418	-54.44
864.592	27.48
864.766	-60.59
864.939	25.43
865.113	-7.34
865.287	-21.67
865.461	13.14
865.634	-5.29
865.808	-72.87
865.982	-11.43
866.156	-7.34
866.329	-36.01
866.503	-36.01
866.676	-40.11
866.85	-27.82
867.024	13.14
867.197	0.85
867.371	7
867.544	-19.63
867.718	-27.82
867.891	25.43
868.065	41.81
868.238	35.67
868.412	4.95
868.585	2.9
868.759	-33.96
868.932	-29.87
869.105	43.86
869.279	41.81
869.452	-33.96
869.625	21.33
869.799	-5.29
869.972	-7.34
870.145	39.76
870.319	-48.3
870.492	11.09
870.665	-15.53
870.838	45.91
871.011	-58.54
871.185	-5.29
871.358	-76.97
871.531	-9.39
871.704	7
871.877	31.57
872.05	43.86
872.223	-36.01
872.396	23.38
872.569	39.76
872.742	-3.24
872.915	-38.06
873.088	-21.67
873.261	-5.29
873.434	13.14
873.607	31.57
873.78	-7.34
873.953	23.38
874.126	-52.39
874.299	-42.15
874.471	-42.15
874.644	113.49
874.817	-7.34
874.99	-36.01
875.163	-5.29
875.335	47.96
875.508	58.2
875.681	-13.48
875.853	-76.97
876.026	-42.15
876.199	-29.87
876.371	11.09
876.544	13.14
876.717	35.67
876.889	52.05
877.062	-17.58
877.234	-42.15
877.407	-56.49
877.579	25.43
877.752	-1.19
877.924	-3.24
878.097	43.86
878.269	-1.19
878.442	-52.39
878.614	-9.39
878.786	-48.3
878.959	15.19
879.131	56.15
879.303	2.9
879.476	15.19
879.648	-33.96
879.82	-23.72
879.993	-7.34
880.165	41.81
880.337	-1.19
880.509	-27.82
880.681	-7.34
880.854	-81.07
881.026	-17.58
881.198	21.33
881.37	-66.73
881.542	23.38
881.714	4.95
881.886	37.72
882.058	-58.54
882.23	-36.01
882.402	-54.44
882.574	-23.72
882.746	0.85
882.918	23.38
883.09	35.67
883.262	21.33
883.434	-60.59
883.606	-1.19
883.778	-19.63
883.95	-11.43
884.122	9.05
884.293	-42.15
884.465	-19.63
884.637	47.96
884.809	-40.11
884.98	78.68
885.152	21.33
885.324	-7.34
885.496	-25.77
885.667	-40.11
885.839	-81.07
886.011	-9.39
886.182	-25.77
886.354	-40.11
886.525	-60.59
886.697	-5.29
886.869	80.72
887.04	-83.11
887.212	23.38
887.383	9.05
887.555	33.62
887.726	0.85
887.897	43.86
888.069	4.95
888.24	-44.2
888.412	-1.19
888.583	-7.34
888.754	-9.39
888.926	11.09
889.097	11.09
889.268	33.62
889.44	-21.67
889.611	-58.54
889.782	-19.63
889.953	-50.35
890.125	-27.82
890.296	-27.82
890.467	-11.43
890.638	-44.2
890.809	-79.02
890.98	7
891.151	27.48
891.323	7
891.494	37.72
891.665	-11.43
891.836	54.1
892.007	-62.63
892.178	-9.39
892.349	-21.67
892.52	-21.67
892.691	7
892.862	-70.83
893.032	-66.73
893.203	-36.01
893.374	-81.07
893.545	-25.77
893.716	-15.53
893.887	-25.77
894.057	-13.48
894.228	-27.82
894.399	0.85
894.57	2.9
894.74	-31.91
894.911	-87.21
895.082	-3.24
895.253	-15.53
895.423	-11.43
895.594	19.29
895.764	-36.01
895.935	39.76
896.106	-33.96
896.276	-66.73
896.447	-33.96
896.617	-1.19
896.788	0.85
896.958	-1.19
897.129	-1.19
897.299	0.85
897.47	-17.58
897.64	-25.77
897.81	9.05
897.981	-3.24
898.151	0.85
898.322	13.14
898.492	-7.34
898.662	58.2
898.832	2.9
899.003	9.05
899.173	-23.72
899.343	-27.82
899.513	-13.48
