Data from USB4F104151__95__12-54-55-607.txt Node

Date: Fri Mar 14 12:54:55 EDT 2025
User: louis
Spectrometer: USB4F10415
Trigger mode: 4
Integration Time (sec): 1.000000E-2
Scans to average: 1
Electric dark correction enabled: true
Nonlinearity correction enabled: false
Boxcar width: 0
XAxis mode: Wavelengths
Number of Pixels in Spectrum: 3648
>>>>>Begin Spectral Data<<<<<
178.204	-64.68
178.424	-64.68
178.644	-64.68
178.864	-72.87
179.084	-62.63
179.304	-19.63
179.524	70.48
179.744	-1.19
179.964	-5.29
180.184	17.24
180.404	23.38
180.624	25.43
180.844	17.24
181.064	-31.91
181.283	-38.06
181.503	-62.63
181.723	4.95
181.943	2.9
182.163	0.85
182.383	-64.68
182.602	43.86
182.822	-42.15
183.042	68.44
183.262	-9.39
183.482	27.48
183.701	0.85
183.921	-3.24
184.141	7
184.361	-31.91
184.58	4.95
184.8	-70.83
185.02	-23.72
185.239	4.95
185.459	-19.63
185.679	60.24
185.898	-5.29
186.118	13.14
186.338	0.85
186.557	7
186.777	-3.24
186.997	-19.63
187.216	-99.5
187.436	29.52
187.655	47.96
187.875	-124.07
188.095	52.05
188.314	25.43
188.534	-50.35
188.753	-13.48
188.973	-64.68
189.192	0.85
189.412	-44.2
189.631	0.85
189.851	13.14
190.07	-74.92
190.29	9.05
190.509	52.05
190.729	-7.34
190.948	-66.73
191.168	25.43
191.387	-19.63
191.607	-38.06
191.826	-38.06
192.045	-15.53
192.265	-27.82
192.484	117.59
192.704	68.44
192.923	41.81
193.142	9.05
193.362	-56.49
193.581	17.24
193.8	60.24
194.02	23.38
194.239	-27.82
194.458	-58.54
194.678	-23.72
194.897	11.09
195.116	11.09
195.335	-9.39
195.555	29.52
195.774	-27.82
195.993	27.48
196.212	-31.91
196.432	52.05
196.651	-36.01
196.87	-17.58
197.089	-5.29
197.308	-27.82
197.528	50
197.747	-44.2
197.966	29.52
198.185	-7.34
198.404	-60.59
198.623	21.33
198.842	-29.87
199.062	15.19
199.281	29.52
199.5	-27.82
199.719	19.29
199.938	0.85
200.157	2.9
200.376	-5.29
200.595	-29.87
200.814	-70.83
201.033	19.29
201.252	-25.77
201.471	-13.48
201.69	-11.43
201.909	2.9
202.128	25.43
202.347	29.52
202.566	-9.39
202.785	-38.06
203.004	-9.39
203.223	-76.97
203.442	-38.06
203.661	-7.34
203.879	99.16
204.098	11.09
204.317	43.86
204.536	45.91
204.755	-29.87
204.974	-9.39
205.193	-19.63
205.411	90.96
205.63	-93.35
205.849	4.95
206.068	-74.92
206.287	17.24
206.505	2.9
206.724	11.09
206.943	29.52
207.162	11.09
207.381	-9.39
207.599	-15.53
207.818	-11.43
208.037	-23.72
208.255	-36.01
208.474	2.9
208.693	-60.59
208.911	13.14
209.13	64.34
209.349	64.34
209.567	41.81
209.786	-31.91
210.005	-1.19
210.223	7
210.442	-15.53
210.661	0.85
210.879	-17.58
211.098	9.05
211.316	-15.53
211.535	4.95
211.753	27.48
211.972	2.9
212.191	-19.63
212.409	-36.01
212.628	60.24
212.846	-46.25
213.065	68.44
213.283	31.57
213.502	74.58
213.72	-46.25
213.938	-15.53
214.157	7
214.375	37.72
214.594	7
214.812	-13.48
215.031	-33.96
215.249	-13.48
215.467	-1.19
215.686	-25.77
215.904	29.52
216.122	11.09
216.341	21.33
216.559	43.86
216.778	7
216.996	-11.43
217.214	25.43
217.432	-52.39
217.651	33.62
217.869	-52.39
218.087	39.76
218.306	-5.29
218.524	-44.2
218.742	15.19
218.96	-19.63
219.179	2.9
219.397	-36.01
219.615	33.62
219.833	9.05
220.051	4.95
220.27	45.91
220.488	15.19
220.706	0.85
220.924	-46.25
221.142	45.91
221.36	-5.29
221.578	43.86
221.796	7
222.015	27.48
222.233	-70.83
222.451	27.48
222.669	-25.77
222.887	-70.83
223.105	-52.39
223.323	-56.49
223.541	-21.67
223.759	11.09
223.977	13.14
224.195	-50.35
224.413	41.81
224.631	33.62
224.849	-3.24
225.067	-11.43
225.285	-5.29
225.503	-31.91
225.721	-17.58
225.939	21.33
226.157	0.85
226.375	58.2
226.592	-9.39
226.81	-15.53
227.028	-38.06
227.246	39.76
227.464	7
227.682	15.19
227.9	-36.01
228.117	-7.34
228.335	19.29
228.553	13.14
228.771	11.09
228.989	62.29
229.206	-29.87
229.424	-40.11
229.642	-11.43
229.86	-33.96
230.077	25.43
230.295	-36.01
230.513	21.33
230.731	-1.19
230.948	-23.72
231.166	78.68
231.384	-76.97
231.601	2.9
231.819	21.33
232.037	-3.24
232.254	-79.02
232.472	43.86
232.689	-38.06
232.907	4.95
233.125	31.57
233.342	-25.77
233.56	-38.06
233.777	-5.29
233.995	9.05
234.213	27.48
234.43	-56.49
234.648	27.48
234.865	-107.69
235.083	11.09
235.3	-42.15
235.518	-21.67
235.735	-40.11
235.953	-23.72
236.17	31.57
236.388	56.15
236.605	7
236.822	15.19
237.04	21.33
237.257	19.29
237.475	-40.11
237.692	-44.2
237.909	-1.19
238.127	7
238.344	62.29
238.562	-3.24
238.779	29.52
238.996	39.76
239.214	-29.87
239.431	-1.19
239.648	19.29
239.865	-13.48
240.083	-87.21
240.3	33.62
240.517	-76.97
240.735	-7.34
240.952	-13.48
241.169	11.09
241.386	-81.07
241.603	43.86
241.821	27.48
242.038	107.35
242.255	54.1
242.472	-40.11
242.689	15.19
242.907	-60.59
243.124	19.29
243.341	41.81
243.558	13.14
243.775	-42.15
243.992	-50.35
244.209	45.91
244.426	-36.01
244.643	39.76
244.86	-46.25
245.078	-3.24
245.295	-11.43
245.512	-36.01
245.729	-25.77
245.946	-17.58
246.163	-62.63
246.38	4.95
246.597	11.09
246.814	62.29
247.031	54.1
247.248	-27.82
247.464	39.76
247.681	-70.83
247.898	-1.19
248.115	-11.43
248.332	-93.35
248.549	-5.29
248.766	-36.01
248.983	-15.53
249.2	-7.34
249.417	-1.19
249.633	-62.63
249.85	4.95
250.067	-5.29
250.284	13.14
250.501	-52.39
250.717	-74.92
250.934	-17.58
251.151	27.48
251.368	-17.58
251.585	78.68
251.801	2.9
252.018	-31.91
252.235	13.14
252.451	-29.87
252.668	-48.3
252.885	0.85
253.102	-74.92
253.318	-11.43
253.535	-1.19
253.752	21.33
253.968	21.33
254.185	0.85
254.401	37.72
254.618	23.38
254.835	-11.43
255.051	-5.29
255.268	-27.82
255.484	27.48
255.701	101.2
255.917	11.09
256.134	4.95
256.351	-15.53
256.567	15.19
256.784	-46.25
257	-52.39
257.217	37.72
257.433	-56.49
257.65	80.72
257.866	41.81
258.082	-11.43
258.299	-1.19
258.515	-7.34
258.732	-9.39
258.948	2.9
259.165	7
259.381	-33.96
259.597	-17.58
259.814	-5.29
260.03	43.86
260.246	-29.87
260.463	-7.34
260.679	4.95
260.895	-44.2
261.112	78.68
261.328	-15.53
261.544	29.52
261.761	11.09
261.977	47.96
262.193	-91.31
262.409	21.33
262.626	27.48
262.842	13.14
263.058	2.9
263.274	52.05
263.49	39.76
263.707	45.91
263.923	19.29
264.139	-58.54
264.355	-54.44
264.571	47.96
264.787	2.9
265.004	-40.11
265.22	-54.44
265.436	-64.68
265.652	-19.63
265.868	0.85
266.084	-7.34
266.3	19.29
266.516	-33.96
266.732	-64.68
266.948	-29.87
267.164	31.57
267.38	11.09
267.596	-3.24
267.812	7
268.028	-62.63
268.244	19.29
268.46	19.29
268.676	-3.24
268.892	7
269.108	35.67
269.324	15.19
269.54	-11.43
269.756	-11.43
269.972	-15.53
270.188	-1.19
270.403	-54.44
270.619	-7.34
270.835	-1.19
271.051	-56.49
271.267	45.91
271.483	11.09
271.698	0.85
271.914	50
272.13	11.09
272.346	-33.96
272.562	2.9
272.777	2.9
272.993	52.05
273.209	58.2
273.425	-21.67
273.64	-46.25
273.856	-40.11
274.072	-27.82
274.287	-23.72
274.503	-19.63
274.719	11.09
274.934	-36.01
275.15	-44.2
275.366	-38.06
275.581	45.91
275.797	-27.82
276.012	-1.19
276.228	41.81
276.444	35.67
276.659	7
276.875	29.52
277.09	-19.63
277.306	35.67
277.521	-38.06
277.737	-46.25
277.952	23.38
278.168	-3.24
278.383	-19.63
278.599	-25.77
278.814	-52.39
279.03	-60.59
279.245	-40.11
279.461	-1.19
279.676	-21.67
279.892	-62.63
280.107	-23.72
280.322	56.15
280.538	-60.59
280.753	-54.44
280.969	31.57
281.184	-79.02
281.399	97.11
281.615	-3.24
281.83	13.14
282.045	-3.24
282.26	-3.24
282.476	37.72
282.691	0.85
282.906	4.95
283.122	50
283.337	13.14
283.552	43.86
283.767	13.14
283.983	0.85
284.198	-9.39
284.413	35.67
284.628	-11.43
284.843	13.14
285.058	-11.43
285.274	-21.67
285.489	-19.63
285.704	45.91
285.919	-56.49
286.134	56.15
286.349	-5.29
286.564	-27.82
286.779	-31.91
286.995	-76.97
287.21	0.85
287.425	-19.63
287.64	-13.48
287.855	-38.06
288.07	13.14
288.285	21.33
288.5	-66.73
288.715	39.76
288.93	-23.72
289.145	-29.87
289.36	9.05
289.575	11.09
289.79	56.15
290.004	25.43
290.219	27.48
290.434	-40.11
290.649	9.05
290.864	58.2
291.079	-11.43
291.294	-17.58
291.509	-13.48
291.724	23.38
291.938	-44.2
292.153	7
292.368	47.96
292.583	25.43
292.798	-5.29
293.012	23.38
293.227	-42.15
293.442	-1.19
293.657	-36.01
293.871	50
294.086	29.52
294.301	15.19
294.516	-33.96
294.73	-38.06
294.945	-48.3
295.16	13.14
295.374	-9.39
295.589	29.52
295.804	-17.58
296.018	-11.43
296.233	-38.06
296.447	-9.39
296.662	7
296.877	-13.48
297.091	99.16
297.306	-25.77
297.52	15.19
297.735	-9.39
297.949	0.85
298.164	-5.29
298.378	-17.58
298.593	0.85
298.807	-15.53
299.022	-3.24
299.236	-1.19
299.451	-15.53
299.665	-13.48
299.88	41.81
300.094	-21.67
300.309	-11.43
300.523	-25.77
300.737	80.72
300.952	13.14
301.166	-38.06
301.381	-54.44
301.595	0.85
301.809	23.38
302.024	37.72
302.238	41.81
302.452	39.76
302.667	-95.4
302.881	29.52
303.095	0.85
303.309	0.85
303.524	9.05
303.738	-38.06
303.952	52.05
304.166	39.76
304.381	-5.29
304.595	-13.48
304.809	-21.67
305.023	-17.58
305.237	37.72
305.452	-25.77
305.666	-3.24
305.88	-25.77
306.094	-17.58
306.308	-1.19
306.522	33.62
306.736	-21.67
306.95	9.05
307.164	15.19
307.379	-13.48
307.593	15.19
307.807	-15.53
308.021	41.81
308.235	50
308.449	-29.87
308.663	-7.34
308.877	-23.72
309.091	-11.43
309.305	-38.06
309.519	-13.48
309.733	-21.67
309.947	-21.67
310.161	70.48
310.374	-44.2
310.588	21.33
310.802	-50.35
311.016	-3.24
311.23	0.85
311.444	88.92
311.658	43.86
311.872	-17.58
312.085	43.86
312.299	84.82
312.513	-17.58
312.727	2.9
312.941	21.33
313.154	-3.24
313.368	-54.44
313.582	15.19
313.796	2.9
314.009	-48.3
314.223	23.38
314.437	47.96
314.651	21.33
314.864	-19.63
315.078	-54.44
315.292	37.72
315.505	-46.25
315.719	35.67
315.933	-23.72
316.146	11.09
316.36	-9.39
316.573	17.24
316.787	31.57
317.001	7
317.214	-25.77
317.428	-44.2
317.641	-79.02
317.855	-21.67
318.068	-7.34
318.282	2.9
318.495	-64.68
318.709	19.29
318.922	11.09
319.136	35.67
319.349	-15.53
319.563	-5.29
319.776	-19.63
319.99	-3.24
320.203	-38.06
320.417	4.95
320.63	84.82
320.843	45.91
321.057	33.62
321.27	-11.43
321.483	-15.53
321.697	29.52
321.91	35.67
322.124	19.29
322.337	29.52
322.55	-46.25
322.763	-9.39
322.977	52.05
323.19	-15.53
323.403	-7.34
323.617	41.81
323.83	62.29
324.043	37.72
324.256	52.05
324.469	60.24
324.683	19.29
324.896	21.33
325.109	-17.58
325.322	-36.01
325.535	-13.48
325.748	84.82
325.962	-70.83
326.175	25.43
326.388	-9.39
326.601	50
326.814	21.33
327.027	15.19
327.24	64.34
327.453	-31.91
327.666	29.52
327.879	-3.24
328.092	21.33
328.305	23.38
328.518	15.19
328.731	7
328.944	19.29
329.157	23.38
329.37	27.48
329.583	93.01
329.796	60.24
330.009	-23.72
330.222	62.29
330.435	27.48
330.648	35.67
330.861	4.95
331.073	-46.25
331.286	-17.58
331.499	-17.58
331.712	-15.53
331.925	2.9
332.138	13.14
332.35	29.52
332.563	17.24
332.776	-50.35
332.989	-13.48
333.202	-15.53
333.414	-50.35
333.627	31.57
333.84	0.85
334.053	11.09
334.265	-29.87
334.478	-38.06
334.691	19.29
334.903	23.38
335.116	29.52
335.329	-15.53
335.541	-76.97
335.754	43.86
335.966	-42.15
336.179	-36.01
336.392	-13.48
336.604	-25.77
336.817	-1.19
337.029	15.19
337.242	25.43
337.454	9.05
337.667	-25.77
337.88	7
338.092	33.62
338.305	-3.24
338.517	56.15
338.729	-15.53
338.942	-11.43
339.154	-13.48
339.367	9.05
339.579	-62.63
339.792	21.33
340.004	25.43
340.217	-1.19
340.429	-38.06
340.641	-3.24
340.854	0.85
341.066	-111.78
341.278	9.05
341.491	-11.43
341.703	-38.06
341.915	9.05
342.128	-27.82
342.34	-27.82
342.552	9.05
342.764	52.05
342.977	-21.67
343.189	11.09
343.401	7
343.613	-68.78
343.826	4.95
344.038	-62.63
344.25	19.29
344.462	-29.87
344.674	27.48
344.886	-1.19
345.099	-17.58
345.311	33.62
345.523	47.96
345.735	-87.21
345.947	54.1
346.159	7
346.371	-1.19
346.583	-33.96
346.795	27.48
347.007	-76.97
347.219	-9.39
347.431	-13.48
347.643	-15.53
347.855	-15.53
348.067	-29.87
348.279	-17.58
348.491	0.85
348.703	-42.15
348.915	-33.96
349.127	21.33
349.339	72.53
349.551	0.85
349.763	11.09
349.975	-17.58
350.187	39.76
350.399	29.52
350.61	25.43
350.822	-11.43
351.034	54.1
351.246	-19.63
351.458	-25.77
351.669	66.39
351.881	35.67
352.093	27.48
352.305	37.72
352.517	-19.63
352.728	-25.77
352.94	31.57
353.152	23.38
353.363	29.52
353.575	-13.48
353.787	31.57
353.999	-27.82
354.21	25.43
354.422	33.62
354.633	-1.19
354.845	-36.01
355.057	-11.43
355.268	37.72
355.48	41.81
355.692	37.72
355.903	-3.24
356.115	-9.39
356.326	-29.87
356.538	-29.87
356.749	-7.34
356.961	78.68
357.172	-27.82
357.384	2.9
357.595	64.34
357.807	64.34
358.018	23.38
358.23	37.72
358.441	17.24
358.653	19.29
358.864	-27.82
359.075	-11.43
359.287	-15.53
359.498	35.67
359.709	-13.48
359.921	19.29
360.132	-1.19
360.344	-13.48
360.555	35.67
360.766	-13.48
360.977	7
361.189	105.3
361.4	-17.58
361.611	21.33
361.823	-19.63
362.034	-31.91
362.245	-64.68
362.456	-48.3
362.667	37.72
362.879	15.19
363.09	-52.39
363.301	-13.48
363.512	-50.35
363.723	19.29
363.935	43.86
364.146	13.14
364.357	-11.43
364.568	47.96
364.779	-27.82
364.99	-7.34
365.201	-50.35
365.412	43.86
365.623	-3.24
365.834	-3.24
366.045	-23.72
366.256	-54.44
366.467	-31.91
366.678	54.1
366.889	-13.48
367.1	41.81
367.311	58.2
367.522	64.34
367.733	21.33
367.944	23.38
368.155	39.76
368.366	-11.43
368.577	-25.77
368.788	-19.63
368.999	21.33
369.209	-13.48
369.42	-25.77
369.631	58.2
369.842	29.52
370.053	-21.67
370.264	-11.43
370.474	-42.15
370.685	-13.48
370.896	11.09
371.107	-17.58
371.317	-5.29
371.528	39.76
371.739	29.52
371.95	-38.06
372.16	43.86
372.371	15.19
372.582	47.96
372.792	56.15
373.003	-3.24
373.214	-3.24
373.424	66.39
373.635	72.53
373.846	-15.53
374.056	11.09
374.267	4.95
374.477	50
374.688	-1.19
374.898	76.63
375.109	-5.29
375.319	-11.43
375.53	-46.25
375.74	-17.58
375.951	-36.01
376.161	31.57
376.372	37.72
376.582	-13.48
376.793	9.05
377.003	-36.01
377.214	-11.43
377.424	35.67
377.635	23.38
377.845	11.09
378.055	11.09
378.266	-36.01
378.476	-44.2
378.686	29.52
378.897	-9.39
379.107	17.24
379.317	60.24
379.528	33.62
379.738	9.05
379.948	13.14
380.158	17.24
380.369	-21.67
380.579	33.62
380.789	13.14
380.999	19.29
381.21	-36.01
381.42	-5.29
381.63	-33.96
381.84	15.19
382.05	33.62
382.261	15.19
382.471	68.44
382.681	21.33
382.891	15.19
383.101	15.19
383.311	-9.39
383.521	-5.29
383.731	-87.21
383.941	111.44
384.151	11.09
384.361	43.86
384.571	-13.48
384.781	7
384.991	50
385.201	-11.43
385.411	15.19
385.621	-29.87
385.831	-27.82
386.041	9.05
386.251	17.24
386.461	64.34
386.671	86.87
386.881	37.72
387.091	-40.11
387.301	21.33
387.511	54.1
387.72	31.57
387.93	15.19
388.14	-19.63
388.35	-42.15
388.56	-33.96
388.769	-9.39
388.979	19.29
389.189	97.11
389.399	-25.77
389.609	25.43
389.818	-11.43
390.028	-36.01
390.238	-38.06
390.447	33.62
390.657	-60.59
390.867	17.24
391.076	-3.24
391.286	29.52
391.496	41.81
391.705	84.82
391.915	-5.29
392.125	50
392.334	-29.87
392.544	-46.25
392.753	13.14
392.963	58.2
393.172	-27.82
393.382	17.24
393.591	2.9
393.801	-3.24
394.01	-1.19
394.22	17.24
394.429	31.57
394.639	-54.44
394.848	-5.29
395.058	-23.72
395.267	27.48
395.477	2.9
395.686	58.2
395.895	11.09
396.105	27.48
396.314	-42.15
396.524	-11.43
396.733	25.43
396.942	86.87
397.152	148.31
397.361	33.62
397.57	-36.01
397.78	37.72
397.989	84.82
398.198	-38.06
398.407	64.34
398.617	56.15
398.826	-3.24
399.035	80.72
399.244	45.91
399.453	-42.15
399.663	17.24
399.872	35.67
400.081	2.9
400.29	4.95
400.499	-5.29
400.708	45.91
400.917	66.39
401.127	-5.29
401.336	17.24
401.545	95.06
401.754	47.96
401.963	43.86
402.172	-29.87
402.381	47.96
402.59	47.96
402.799	45.91
403.008	-19.63
403.217	50
403.426	43.86
403.635	62.29
403.844	19.29
404.053	84.82
404.262	2.9
404.471	113.49
404.68	15.19
404.888	52.05
405.097	-9.39
405.306	45.91
405.515	-21.67
405.724	4.95
405.933	45.91
406.142	58.2
406.35	9.05
406.559	-31.91
406.768	88.92
406.977	101.2
407.185	74.58
407.394	41.81
407.603	43.86
407.812	84.82
408.02	93.01
408.229	115.54
408.438	25.43
408.646	25.43
408.855	76.63
409.064	76.63
409.272	-40.11
409.481	168.79
409.69	60.24
409.898	43.86
410.107	35.67
410.315	133.97
410.524	56.15
410.733	60.24
410.941	107.35
411.15	95.06
411.358	136.02
411.567	176.98
411.775	129.88
411.984	88.92
412.192	154.45
412.401	164.69
412.609	138.07
412.818	131.92
413.026	156.5
413.234	99.16
413.443	88.92
413.651	101.2
413.86	138.07
414.068	99.16
414.276	150.36
414.485	234.32
414.693	117.59
414.901	238.42
415.11	226.13
415.318	179.03
415.526	301.9
415.734	150.36
415.943	236.37
416.151	176.98
416.359	226.13
416.567	179.03
416.776	316.24
416.984	287.57
417.192	230.23
417.4	297.81
417.608	271.19
417.817	342.86
418.025	287.57
418.233	367.44
418.441	402.26
418.649	428.88
418.857	392.02
419.065	432.97
419.273	381.78
419.481	473.93
419.689	381.78
419.897	453.45
420.105	461.65
420.313	518.99
420.521	461.65
420.729	535.37
420.937	576.33
421.145	541.52
421.353	502.61
421.561	570.19
421.769	586.57
421.977	613.2
422.185	518.99
422.393	617.29
422.601	588.62
422.809	629.58
423.017	715.59
423.224	721.74
423.432	752.46
423.64	838.47
423.848	840.52
424.056	693.07
424.263	904.01
424.471	871.24
424.679	828.23
424.887	936.78
425.094	947.01
425.302	1000.26
425.51	920.39
425.718	1061.7
425.925	936.78
426.133	1076.04
426.341	1102.66
426.548	1258.31
426.756	1147.72
426.964	1229.63
427.171	1266.5
427.379	1305.41
427.586	1299.27
427.794	1311.55
428.001	1407.81
428.209	1491.77
428.417	1475.39
428.624	1542.97
428.832	1569.6
429.039	1622.84
429.247	1514.3
429.454	1747.77
429.662	1833.79
429.869	1784.63
430.076	1932.09
430.284	1882.94
430.491	1825.59
430.699	1942.33
430.906	2054.97
431.114	1913.66
431.321	2028.34
431.528	2014.01
431.736	2241.33
431.943	2327.35
432.15	2224.95
432.358	2302.77
432.565	2462.51
432.772	2386.74
432.979	2564.91
433.187	2566.96
433.394	2612.01
433.601	2618.16
433.808	2757.42
434.016	2714.41
434.223	2923.3
434.43	3091.24
434.637	2964.26
434.844	3115.81
435.052	3283.75
435.259	3058.47
435.466	3197.73
435.673	3205.92
435.88	3506.98
436.087	3642.14
436.294	3672.86
436.501	3535.65
436.708	3560.22
436.915	3623.71
437.122	3842.84
437.329	3973.91
437.537	3998.49
437.743	4035.35
437.95	4064.02
438.157	4180.76
438.364	4277.01
438.571	4363.03
438.778	4317.97
438.985	4680.46
439.192	4625.17
439.399	4791.05
439.606	4621.07
439.813	4848.4
440.02	5331.72
440.227	5192.45
440.433	5085.96
440.64	5247.75
440.847	5165.83
441.054	5307.14
441.261	5581.57
441.467	5612.29
441.674	5593.86
441.881	5794.56
442.088	5974.78
442.294	5962.49
442.501	6077.18
442.708	6257.4
442.914	6501.11
443.121	6687.47
443.328	6355.7
443.534	7156.46
443.741	6537.97
443.948	6712.05
444.154	7224.04
444.361	7181.03
444.568	7135.98
444.774	7305.96
444.981	7170.79
445.187	7482.08
445.394	7850.72
445.6	7815.9
445.807	8567.51
446.013	8026.84
446.22	8284.89
446.426	8751.82
446.633	8665.81
446.839	8876.75
447.046	8467.16
447.252	9145.03
447.459	9030.35
447.665	9095.88
447.871	9495.24
448.078	10042.04
448.284	9478.85
448.491	9685.7
448.697	9941.69
448.903	10040
449.11	10199.74
449.316	10007.23
449.522	10197.69
449.728	10681.01
449.935	10668.72
450.141	10607.28
450.347	11066.03
450.553	10451.64
450.76	10638
450.966	11004.59
451.172	11080.36
451.378	11129.52
451.584	10947.25
451.791	11393.7
451.997	11125.42
452.203	11416.23
452.409	11385.51
452.615	11266.73
452.821	11070.12
453.027	10963.63
453.233	11299.5
453.44	10836.66
453.646	10885.81
453.852	11168.43
454.058	11336.36
454.264	10885.81
454.47	11279.02
454.676	10830.51
454.882	11172.52
455.088	10187.45
455.294	10689.2
455.5	10736.31
455.705	10771.12
455.911	10312.38
456.117	10195.64
456.323	9970.37
456.529	9644.74
456.735	9818.82
456.941	9671.36
457.147	9464.52
457.352	9149.13
457.558	9183.95
457.764	9048.78
457.97	8794.83
458.176	8815.31
458.381	8731.34
458.587	8270.55
458.793	8243.93
458.999	7850.72
459.204	8301.27
459.41	8078.04
459.616	7584.48
459.821	7488.23
460.027	7494.37
460.233	7363.3
460.438	7068.39
460.644	7150.31
460.85	6675.18
461.055	6748.91
461.261	6607.6
461.466	6177.53
461.672	6107.9
461.878	6396.66
462.083	5958.39
462.289	5868.28
462.494	5872.38
462.7	5626.62
462.905	5475.07
463.111	5522.18
463.316	5673.73
463.522	5356.29
463.727	5552.9
463.932	5503.75
464.138	5280.52
464.343	5423.87
464.549	5165.83
464.754	5432.07
464.959	5456.64
465.165	5477.12
465.37	5145.35
465.575	4930.31
465.781	5333.76
465.986	5288.71
466.191	4969.23
466.397	4981.51
466.602	4772.62
466.807	4961.03
467.012	4991.75
467.218	4963.08
467.423	4901.64
467.628	4979.47
467.833	5071.62
468.038	4797.2
468.244	4725.52
468.449	4975.37
468.654	4840.2
468.859	4825.87
469.064	4670.22
469.269	4598.54
469.474	4588.3
469.679	4694.8
469.885	4514.58
470.09	4545.3
470.295	4487.95
470.5	4528.91
470.705	4387.6
470.91	4238.1
471.115	4279.06
471.32	4533.01
471.525	4467.47
471.73	4418.32
471.935	4229.91
472.139	4199.19
472.344	4127.51
472.549	4137.75
472.754	4174.61
472.959	3975.96
473.164	3867.42
473.369	3830.55
473.574	4021.02
473.778	3836.7
473.983	3953.43
474.188	3904.28
474.393	3777.31
474.598	3679.01
474.802	3726.11
475.007	3822.36
475.212	3724.06
475.417	3599.13
475.621	3642.14
475.826	3506.98
476.031	3578.65
476.235	3519.26
476.44	3697.44
476.645	3468.06
476.849	3478.3
477.054	3416.87
477.259	3347.23
477.463	3267.36
477.668	3277.6
477.872	3318.56
478.077	3320.61
478.282	3214.12
478.486	3236.64
478.691	3175.2
478.895	3234.6
479.1	3119.91
479.304	3107.62
479.509	3058.47
479.713	3093.29
479.918	2943.78
480.122	2829.1
480.326	3025.7
480.531	3068.71
480.735	3085.09
480.94	2865.96
481.144	3173.16
481.348	2886.44
481.553	2822.95
481.757	2949.93
481.961	2882.35
482.166	2935.59
482.37	2976.55
482.574	2796.33
482.778	2861.87
482.983	2927.4
483.187	2796.33
483.391	2929.45
483.595	2904.87
483.8	2708.27
484.004	2904.87
484.208	3015.46
484.412	2802.47
484.616	2911.02
484.821	2741.04
485.025	2861.87
485.229	2872.11
485.433	2902.83
485.637	2863.91
485.841	2915.11
486.045	2886.44
486.249	2706.22
486.453	2906.92
486.657	2882.35
486.861	2986.79
487.065	2777.9
487.269	2927.4
487.473	2777.9
487.677	2876.2
487.881	2876.2
488.085	2923.3
488.289	2919.21
488.493	2775.85
488.697	3007.27
488.901	2902.83
489.105	2974.5
489.309	2886.44
489.512	2917.16
489.716	2911.02
489.92	2892.59
490.124	2976.55
490.328	3081
490.531	2956.07
490.735	2941.74
490.939	2935.59
491.143	2978.6
491.346	2892.59
491.55	2997.03
491.754	2972.46
491.958	3023.66
492.161	3066.66
492.365	3033.9
492.569	3099.43
492.772	3128.1
492.976	3099.43
493.18	3019.56
493.383	3164.97
493.587	3132.2
493.79	3212.07
493.994	3128.1
494.197	3132.2
494.401	3222.31
494.605	3089.19
494.808	3332.9
495.012	3293.99
495.215	3152.68
495.419	3355.43
495.622	3349.28
495.825	3271.46
496.029	3336.99
496.232	3533.6
496.436	3410.72
496.639	3363.62
496.843	3529.5
497.046	3574.56
497.249	3568.41
497.453	3570.46
497.656	3595.04
497.859	3728.16
498.063	3638.05
498.266	3691.29
498.469	3869.47
498.673	3619.61
498.876	3758.88
499.079	3971.86
499.282	3971.86
499.485	3967.77
499.689	4049.69
499.892	3885.85
500.095	3887.9
500.298	4215.57
500.501	4049.69
500.705	4225.81
500.908	4340.5
501.111	4231.96
501.314	4215.57
501.517	4352.79
501.72	4371.22
501.923	4346.64
502.126	4557.58
502.329	4682.51
502.532	4567.82
502.735	4594.45
502.938	4856.59
503.141	4719.37
503.344	4856.59
503.547	4940.55
503.75	4942.6
503.953	5081.86
504.156	5032.71
504.359	5169.93
504.562	5108.49
504.765	5092.1
504.968	5319.43
505.17	5282.56
505.373	5274.37
505.576	5319.43
505.779	5374.72
505.982	5546.75
506.185	5790.46
506.387	5661.44
506.59	5739.26
506.793	5761.79
506.996	5800.7
507.198	5999.35
507.401	5962.49
507.604	6095.61
507.807	6093.56
508.009	6101.75
508.212	6191.86
508.415	6386.42
508.617	6437.62
508.82	6460.15
509.022	6341.36
509.225	6605.55
509.428	6540.02
509.63	6566.64
509.833	6732.53
510.035	6798.06
510.238	6720.24
510.44	6859.5
510.643	6931.18
510.845	7009
511.048	7197.42
511.25	7277.29
511.453	7244.52
511.655	7418.6
511.858	7221.99
512.06	7199.46
512.262	7516.9
512.465	7416.55
512.667	7508.71
512.87	7740.13
513.072	7520.99
513.274	7668.45
513.477	8065.75
513.679	7942.88
513.881	8147.67
514.084	8200.92
514.286	8137.43
514.488	8268.5
514.69	8436.44
514.893	8413.91
515.095	8467.16
515.297	8499.92
515.499	8723.15
515.701	8831.69
515.904	8878.8
516.106	9177.8
516.308	8940.24
516.51	9134.79
516.712	9112.27
516.914	9059.02
517.116	9288.39
517.318	9220.81
517.52	9163.47
517.722	9378.5
517.925	9425.61
518.127	9583.3
518.329	9738.94
518.531	9648.83
518.733	9990.84
518.935	10029.76
519.136	10115.77
519.338	10070.72
519.54	10324.66
519.742	10228.41
519.944	10095.29
520.146	10539.7
520.348	10416.82
520.55	10498.74
520.752	10531.51
520.954	10857.14
521.155	10609.33
521.357	10613.43
521.559	10910.38
521.761	11100.84
521.963	11041.45
522.164	11010.73
522.366	11047.6
522.568	11201.19
522.77	11350.7
522.971	11485.86
523.173	11522.73
523.375	11496.1
523.576	11664.04
523.778	11438.76
523.98	11580.07
524.181	11621.03
524.383	11545.25
524.584	11958.94
524.786	11612.84
524.988	11803.3
525.189	11842.21
525.391	12042.91
525.592	12120.73
525.794	12036.77
525.995	12233.37
526.197	12274.33
526.398	12239.51
526.6	12239.51
526.801	12477.08
527.003	12255.9
527.204	12421.78
527.406	12515.99
527.607	12346.01
527.808	12452.5
528.01	12505.75
528.211	12782.23
528.412	12995.22
528.614	12595.86
528.815	12593.81
529.016	12944.02
529.218	12884.62
529.419	12784.27
529.62	12831.38
529.822	12839.57
530.023	12696.21
530.224	12917.39
530.425	12868.24
530.626	12739.22
530.828	12716.69
531.029	13073.04
531.23	12974.74
531.431	12952.21
531.632	12989.07
531.833	13116.05
532.035	12966.54
532.236	13068.94
532.437	13009.55
532.638	13222.54
532.839	13105.81
533.04	13154.96
533.241	13089.42
533.442	13245.07
533.643	12903.06
533.844	12997.26
534.045	13281.93
534.246	13021.84
534.447	13292.17
534.648	13109.9
534.849	13130.38
535.05	13068.94
535.251	13109.9
535.451	13183.63
535.652	13249.16
535.853	13181.58
536.054	13306.51
536.255	13109.9
536.456	13015.69
536.657	13230.73
536.857	13294.22
537.058	13052.56
537.259	13212.3
537.46	13195.92
537.66	13083.28
537.861	13142.67
538.062	13218.44
538.263	13331.08
538.463	13079.18
538.664	12923.54
538.865	13154.96
539.065	13400.71
539.266	13109.9
539.466	13183.63
539.667	13052.56
539.868	13316.75
540.068	13122.19
540.269	13087.37
540.469	13109.9
540.67	12921.49
540.87	13120.14
541.071	13124.24
541.271	13146.76
541.472	13103.76
541.672	13265.55
541.873	13116.05
542.073	12896.91
542.274	13208.2
542.474	13183.63
542.675	13048.46
542.875	13224.59
543.075	13097.61
543.276	12868.24
543.476	13179.53
543.676	12962.45
543.877	13013.65
544.077	12810.9
544.277	13030.03
544.478	12919.44
544.678	12851.86
544.878	13152.91
545.078	13085.33
545.279	12931.73
545.479	12778.13
545.679	13114
545.879	13036.17
546.079	13050.51
546.28	13093.52
546.48	13058.7
546.68	13126.29
546.88	13150.86
547.08	12778.13
547.28	12905.1
547.48	12825.23
547.68	13023.89
547.88	13085.33
548.081	12706.45
548.281	12798.61
548.481	13114
548.681	12907.15
548.881	12843.67
549.081	12966.54
549.28	12987.02
549.48	13068.94
549.68	12851.86
549.88	13154.96
550.08	13073.04
550.28	12968.59
550.48	12993.17
550.68	12995.22
550.88	13021.84
551.08	12786.32
551.279	12909.2
551.479	12786.32
551.679	12855.95
551.879	12882.58
552.079	12997.26
552.278	12778.13
552.478	12585.62
552.678	13075.09
552.878	12892.82
553.077	12991.12
553.277	12675.73
553.477	13015.69
553.676	12825.23
553.876	12888.72
554.076	12661.4
554.275	12737.17
554.475	12683.92
554.674	12618.39
554.874	12778.13
555.074	12735.12
555.273	12743.31
555.473	12595.86
555.672	12622.48
555.872	12677.78
556.071	12898.96
556.271	12808.85
556.47	12483.22
556.67	12442.26
556.869	12786.32
557.068	12694.16
557.268	12628.63
557.467	12677.78
557.667	12860.05
557.866	12610.2
558.065	12507.8
558.265	12536.47
558.464	12606.1
558.663	12724.88
558.863	12579.48
559.062	12718.74
559.261	12421.78
559.461	12585.62
559.66	12331.67
559.859	12559
560.058	12497.56
560.258	12417.69
560.457	12356.25
560.656	12528.28
560.855	12251.8
561.054	12360.34
561.253	12122.78
561.453	12561.05
561.652	12161.69
561.851	12333.72
562.05	12130.97
562.249	12229.27
562.448	12294.81
562.647	12440.22
562.846	12196.51
563.045	12180.12
563.244	12083.87
563.443	12237.47
563.642	11963.04
563.841	12278.43
564.04	11940.51
564.239	12315.29
564.438	12081.82
564.637	12024.48
564.836	12214.94
565.035	12071.58
565.234	12040.86
565.432	11950.75
565.631	11899.55
565.83	11784.87
566.029	11952.8
566.228	11776.67
566.427	11940.51
566.625	11446.95
566.824	11680.42
567.023	11883.17
567.222	11563.68
567.42	11729.57
567.619	11750.05
567.818	11772.58
568.016	11827.87
568.215	11655.84
568.414	11559.59
568.612	11770.53
568.811	11578.02
569.01	11733.67
569.208	11487.91
569.407	11504.29
569.605	11465.38
569.804	11686.56
570.002	11428.52
570.201	11707.04
570.4	11461.29
570.598	11369.13
570.797	11485.86
570.995	11096.75
571.193	11256.49
571.392	11420.33
571.59	11131.56
571.789	11543.21
571.987	11121.32
572.186	11326.12
572.384	11352.74
572.582	11344.55
572.781	11150
572.979	10980.01
573.177	11135.66
573.376	11178.67
573.574	11031.21
573.772	11027.12
573.971	11172.52
574.169	10982.06
574.367	10918.57
574.565	11102.89
574.763	10988.21
574.962	10963.63
575.16	10791.6
575.358	10787.5
575.556	10859.18
575.754	10842.8
575.952	10672.82
576.151	10988.21
576.349	10748.59
576.547	10826.42
576.745	10810.03
576.943	10750.64
577.141	10369.72
577.339	10687.15
577.537	10480.31
577.735	10537.65
577.933	10607.28
578.131	10627.76
578.329	10617.52
578.527	10545.84
578.725	10461.88
578.923	10441.4
579.121	10431.16
579.319	10306.23
579.516	10445.49
579.714	10359.48
579.912	10203.83
580.11	10144.44
580.308	10203.83
580.506	10117.82
580.704	10138.3
580.901	10195.64
581.099	10244.79
581.297	10113.72
581.495	9898.69
581.692	9874.11
581.89	10031.8
582.088	10078.91
582.285	9870.01
582.483	10066.62
582.681	9925.31
582.878	9841.34
583.076	9863.87
583.274	9921.21
583.471	9876.16
583.669	9814.72
583.866	9738.94
584.064	9949.89
584.262	9716.42
584.459	9890.49
584.657	9657.03
584.854	9800.38
585.052	9530.05
585.249	9485
585.447	9525.96
585.644	9652.93
585.841	9401.03
586.039	9904.83
586.236	9491.14
586.434	9489.09
586.631	9284.3
586.828	9421.51
587.026	9333.45
587.223	9265.86
587.42	9243.34
587.618	9353.93
587.815	9276.1
588.012	9298.63
588.21	9161.42
588.407	9417.41
588.604	9177.8
588.801	9112.27
588.999	9226.95
589.196	9124.55
589.393	9079.5
589.59	9003.72
589.787	9081.55
589.984	9050.83
590.182	9046.73
590.379	9042.64
590.576	8868.56
590.773	8977.1
590.97	8805.07
591.167	8962.76
591.364	8866.51
591.561	8932.05
591.758	8667.86
591.955	8757.97
592.152	8899.28
592.349	8698.58
592.546	8813.26
592.743	8735.44
592.94	8456.92
593.137	8637.14
593.334	8682.19
593.531	8456.92
593.727	8661.71
593.924	8581.84
594.121	8583.89
594.318	8674
594.515	8426.2
594.712	8565.46
594.908	8442.58
595.105	8446.68
595.302	8368.85
595.499	8286.93
595.696	8176.34
595.892	8108.76
596.089	8360.66
596.286	8307.41
596.482	8149.72
596.679	8225.5
596.876	8116.95
597.072	8059.61
597.269	8080.09
597.466	8215.26
597.662	8073.95
597.859	7994.08
598.055	8207.06
598.252	8170.2
598.448	8008.41
598.645	8002.27
598.841	7742.18
599.038	8035.03
599.234	7858.91
599.431	7738.08
599.627	7992.03
599.824	7934.68
600.02	7758.56
600.217	7740.13
600.413	7776.99
600.609	7639.78
600.806	7617.25
601.002	7658.21
601.198	7639.78
601.395	7809.76
601.591	7686.88
601.787	7746.27
601.984	7717.6
602.18	7637.73
602.376	7535.33
602.572	7353.06
602.769	7469.8
602.965	7469.8
603.161	7660.26
603.357	7418.6
603.553	7371.49
603.75	7414.5
603.946	7230.18
604.142	7312.1
604.338	7256.81
604.534	7215.85
604.73	7191.27
604.926	7273.19
605.122	7326.44
605.318	7224.04
605.514	7185.13
605.71	7088.87
605.906	7140.07
606.102	7418.6
606.298	7148.26
606.494	6976.23
606.69	7176.94
606.886	7113.45
607.082	7002.86
607.278	7064.3
607.474	7056.11
607.67	7056.11
607.866	6963.95
608.062	7064.3
608.257	7013.1
608.453	7039.72
608.649	6976.23
608.845	6947.56
609.041	6904.56
609.236	6900.46
609.432	6834.93
609.628	6763.25
609.824	6904.56
610.019	6849.26
610.215	6879.98
610.411	6771.44
610.606	6914.8
610.802	6662.9
610.998	6730.48
611.193	6836.97
611.389	6603.5
611.584	6597.36
611.78	6589.17
611.976	6580.98
612.171	6675.18
612.367	6642.42
612.562	6599.41
612.758	6562.55
612.953	6542.07
613.149	6548.21
613.344	6589.17
613.539	6638.32
613.735	6503.15
613.93	6406.9
614.126	6646.51
614.321	6548.21
614.517	6421.24
614.712	6474.48
614.907	6552.31
615.103	6464.24
615.298	6433.52
615.493	6671.09
615.688	6372.08
615.884	6613.74
616.079	6337.27
616.274	6568.69
616.47	6574.83
616.665	6312.69
616.86	6273.78
617.055	6202.1
617.25	6279.93
617.445	6451.95
617.641	6183.67
617.836	6339.32
618.031	6177.53
618.226	6281.97
618.421	6255.35
618.616	6150.9
618.811	6050.55
619.006	6265.59
619.201	6261.49
619.396	6236.92
619.591	6046.46
619.786	6114.04
619.981	6044.41
620.176	6236.92
620.371	5944.06
620.566	6023.93
620.761	6064.89
620.956	6286.07
621.151	6003.45
621.346	6030.07
621.541	5716.73
621.735	5710.59
621.93	5620.48
622.125	5792.51
622.32	5745.41
622.515	5794.56
622.709	5692.16
622.904	5671.68
623.099	5610.24
623.294	5632.77
623.488	5442.31
623.683	5554.94
623.878	5563.14
624.072	5612.29
624.267	5589.76
624.462	5440.26
624.656	5481.22
624.851	5372.68
625.046	5399.3
625.24	5327.62
625.435	5311.24
625.629	5210.89
625.824	5219.08
626.018	5335.81
626.213	5036.81
626.407	5184.26
626.602	5128.97
626.796	5133.06
626.991	5112.58
627.185	5018.38
627.38	5051.14
627.574	4985.61
627.768	4948.75
627.963	4817.68
628.157	4836.11
628.352	4971.27
628.546	4750.09
628.74	4893.45
628.935	4754.19
629.129	4915.98
629.323	4707.09
629.517	4815.63
629.712	4668.17
629.906	4717.33
630.1	4565.78
630.294	4719.37
630.489	4537.1
630.683	4653.84
630.877	4522.77
631.071	4567.82
631.265	4522.77
631.459	4449.04
631.653	4467.47
631.848	4582.16
632.042	4469.52
632.236	4338.45
632.43	4313.88
632.624	4121.37
632.818	4320.02
633.012	4299.54
633.206	4328.21
633.4	4541.2
633.594	4266.77
633.788	4424.47
633.982	4211.48
634.176	4193.05
634.369	4170.52
634.563	4072.22
634.757	4154.13
634.951	4174.61
635.145	4127.51
635.339	4238.1
635.533	4086.55
635.726	4172.57
635.92	4129.56
636.114	3973.91
636.308	4031.26
636.501	4021.02
636.695	3926.81
636.889	3771.16
637.083	3820.32
637.276	3820.32
637.47	3801.88
637.664	3855.13
637.857	3730.2
638.051	3762.97
638.244	3744.54
638.438	3709.72
638.632	3752.73
638.825	3658.53
639.019	3670.81
639.212	3689.25
639.406	3730.2
639.599	3570.46
639.793	3703.58
639.986	3574.56
640.18	3560.22
640.373	3623.71
640.567	3504.93
640.76	3674.91
640.954	3554.08
641.147	3326.75
641.34	3527.46
641.534	3429.15
641.727	3474.21
641.92	3470.11
642.114	3466.02
642.307	3461.92
642.5	3371.81
642.694	3347.23
642.887	3402.53
643.08	3314.47
643.273	3296.04
643.467	3203.88
643.66	3326.75
643.853	3259.17
644.046	3222.31
644.239	3269.41
644.432	3201.83
644.626	3296.04
644.819	3029.8
645.012	3083.05
645.205	3181.35
645.398	3015.46
645.591	3029.8
645.784	3126.05
645.977	3060.52
646.17	2947.88
646.363	3042.09
646.556	3054.37
646.749	3019.56
646.942	2878.25
647.135	2943.78
647.328	2868.01
647.521	2992.94
647.714	2904.87
647.907	2966.31
648.099	2990.89
648.292	3078.95
648.485	2839.34
648.678	2800.43
648.871	2876.2
649.064	2781.99
649.256	2999.08
649.449	2798.38
649.642	2786.09
649.835	2640.69
650.027	2794.28
650.22	2743.08
650.413	2589.49
650.605	2638.64
650.798	2669.36
650.991	2827.05
651.183	2683.69
651.376	2632.49
651.568	2710.32
651.761	2575.15
651.954	2485.04
652.146	2620.21
652.339	2624.3
652.531	2550.57
652.724	2546.48
652.916	2448.18
653.109	2534.19
653.301	2556.72
653.494	2509.62
653.686	2554.67
653.879	2526
654.071	2517.81
654.263	2513.71
654.456	2495.28
654.648	2468.66
654.84	2341.68
655.033	2407.22
655.225	2308.91
655.417	2337.59
655.61	2321.2
655.802	2343.73
655.994	2263.86
656.186	2251.57
656.379	2306.87
656.571	2294.58
656.763	2235.19
656.955	2237.24
657.148	2239.28
657.34	2329.39
657.532	2263.86
657.724	2128.69
657.916	2202.42
658.108	2212.66
658.3	2227
658.492	2067.25
658.684	2194.23
658.876	2102.07
659.068	2159.41
659.26	2145.08
659.452	2132.79
659.644	2183.99
659.836	2140.98
660.028	2190.13
660.22	1993.53
660.412	2120.5
660.604	1985.34
660.796	2104.12
660.988	1952.57
661.18	1932.09
661.372	1979.19
661.563	1993.53
661.755	1960.76
661.947	1911.61
662.139	1999.67
662.331	1874.74
662.522	2014.01
662.714	2016.05
662.906	1962.81
663.097	1817.4
663.289	2040.63
663.481	1854.27
663.673	2022.2
663.864	1825.59
664.056	1903.42
664.247	1784.63
664.439	1909.56
664.631	1768.25
664.822	1870.65
665.014	1784.63
665.205	1686.33
665.397	1725.24
665.588	1717.05
665.78	1817.4
665.971	1764.15
666.163	1778.49
666.354	1684.28
666.546	1712.96
666.737	1692.48
666.929	1764.15
667.12	1780.54
667.311	1657.66
667.503	1657.66
667.694	1753.91
667.885	1706.81
668.077	1653.56
668.268	1641.28
668.459	1633.08
668.651	1731.39
668.842	1659.71
669.033	1665.85
669.224	1665.85
669.416	1696.57
669.607	1618.75
669.798	1569.6
669.989	1616.7
670.18	1588.03
670.371	1622.84
670.563	1540.93
670.754	1518.4
670.945	1567.55
671.136	1598.27
671.327	1536.83
671.518	1493.82
671.709	1483.58
671.9	1610.56
672.091	1561.41
672.282	1532.73
672.473	1553.21
672.664	1532.73
672.855	1493.82
673.046	1514.3
673.237	1497.92
673.428	1565.5
673.619	1499.97
673.809	1448.77
674	1581.89
674.191	1456.96
674.382	1461.06
674.573	1534.78
674.764	1463.1
674.954	1497.92
675.145	1395.52
675.336	1575.74
675.527	1403.71
675.717	1385.28
675.908	1381.18
676.099	1467.2
676.289	1463.1
676.48	1485.63
676.671	1465.15
676.861	1352.51
677.052	1442.62
677.243	1487.68
677.433	1399.62
677.624	1428.29
677.814	1487.68
678.005	1444.67
678.195	1399.62
678.386	1342.27
678.576	1403.71
678.767	1366.85
678.957	1332.03
679.148	1364.8
679.338	1381.18
679.529	1303.36
679.719	1291.07
679.909	1403.71
680.1	1305.41
680.29	1260.35
680.481	1381.18
680.671	1311.55
680.861	1254.21
681.052	1303.36
681.242	1354.56
681.432	1297.22
681.622	1401.66
681.813	1405.76
682.003	1428.29
682.193	1213.25
682.383	1307.46
682.573	1272.64
682.764	1407.81
682.954	1172.29
683.144	1422.14
683.334	1325.89
683.524	1211.2
683.714	1291.07
683.904	1360.7
684.094	1246.02
684.284	1297.22
684.474	1358.66
684.664	1286.98
684.854	1338.18
685.044	1291.07
685.234	1286.98
685.424	1370.94
685.614	1241.92
685.804	1241.92
685.994	1211.2
686.184	1284.93
686.374	1252.16
686.564	1217.35
686.753	1184.58
686.943	1182.53
687.133	1239.87
687.323	1211.2
687.513	1174.34
687.702	1164.1
687.892	1219.39
688.082	1229.63
688.272	1117
688.461	1250.11
688.651	1170.24
688.841	1133.38
689.03	1117
689.22	1108.8
689.41	1080.13
689.599	1239.87
689.789	1145.67
689.979	1164.1
690.168	1176.39
690.358	1153.86
690.547	1164.1
690.737	1205.06
690.926	1160
691.116	1059.65
691.305	1043.27
691.495	1157.96
691.684	1114.95
691.874	1069.89
692.063	1076.04
692.252	1059.65
692.442	1131.33
692.631	1026.89
692.82	1016.65
693.01	1160
693.199	1045.32
693.388	1059.65
693.578	1127.24
693.767	998.21
693.956	1018.69
694.146	1067.85
694.335	1033.03
694.524	1063.75
694.713	1086.28
694.902	1117
695.092	1004.36
695.281	953.16
695.47	967.49
695.659	1043.27
695.848	967.49
696.037	1018.69
696.226	992.07
696.415	1014.6
696.604	922.44
696.793	1026.89
696.982	1002.31
697.171	1067.85
697.36	965.45
697.549	1012.55
697.738	998.21
697.927	947.01
698.116	1045.32
698.305	1004.36
698.494	957.25
698.683	979.78
698.872	985.93
699.061	961.35
699.25	951.11
699.438	1030.98
699.627	869.19
699.816	928.58
700.005	965.45
700.193	949.06
700.382	895.82
700.571	928.58
700.76	981.83
700.948	1002.31
701.137	895.82
701.326	942.92
701.514	959.3
701.703	934.73
701.892	940.87
702.08	1028.93
702.269	1002.31
702.457	920.39
702.646	897.86
702.834	942.92
703.023	942.92
703.212	850.76
703.4	998.21
703.589	1006.41
703.777	922.44
703.965	957.25
704.154	869.19
704.342	940.87
704.531	861
704.719	899.91
704.907	897.86
705.096	895.82
705.284	865.1
705.472	957.25
705.661	848.71
705.849	842.57
706.037	932.68
706.226	910.15
706.414	918.34
706.602	899.91
706.79	973.64
706.979	883.53
707.167	938.82
707.355	1010.5
707.543	924.49
707.731	979.78
707.919	940.87
708.107	848.71
708.296	906.06
708.484	897.86
708.672	924.49
708.86	912.2
709.048	875.34
709.236	912.2
709.424	838.47
709.612	840.52
709.8	887.62
709.988	897.86
710.176	854.86
710.364	912.2
710.551	863.05
710.739	883.53
710.927	932.68
711.115	906.06
711.303	922.44
711.491	856.9
711.679	922.44
711.866	912.2
712.054	889.67
712.242	883.53
712.43	953.16
712.617	977.73
712.805	844.62
712.993	873.29
713.181	863.05
713.368	871.24
713.556	838.47
713.744	873.29
713.931	856.9
714.119	932.68
714.306	828.23
714.494	873.29
714.682	863.05
714.869	822.09
715.057	836.42
715.244	848.71
715.432	922.44
715.619	920.39
715.807	781.13
715.994	891.72
716.182	920.39
716.369	928.58
716.556	893.77
716.744	858.95
716.931	871.24
717.119	871.24
717.306	906.06
717.493	842.57
717.681	861
717.868	889.67
718.055	947.01
718.242	977.73
718.43	822.09
718.617	871.24
718.804	822.09
718.991	797.51
719.179	850.76
719.366	906.06
719.553	867.14
719.74	957.25
719.927	887.62
720.114	887.62
720.301	850.76
720.488	883.53
720.676	887.62
720.863	844.62
721.05	920.39
721.237	813.9
721.424	963.4
721.611	953.16
721.798	842.57
721.985	908.1
722.172	801.61
722.358	852.81
722.545	881.48
722.732	904.01
722.919	879.43
723.106	883.53
723.293	904.01
723.48	879.43
723.667	938.82
723.853	871.24
724.04	940.87
724.227	889.67
724.414	824.14
724.6	910.15
724.787	852.81
724.974	906.06
725.161	879.43
725.347	863.05
725.534	938.82
725.72	969.54
725.907	803.66
726.094	914.25
726.28	858.95
726.467	904.01
726.653	889.67
726.84	918.34
727.027	922.44
727.213	856.9
727.4	856.9
727.586	897.86
727.773	920.39
727.959	850.76
728.145	910.15
728.332	830.28
728.518	912.2
728.705	846.66
728.891	840.52
729.077	996.17
729.264	852.81
729.45	879.43
729.636	858.95
729.823	871.24
730.009	949.06
730.195	895.82
730.382	912.2
730.568	883.53
730.754	895.82
730.94	1006.41
731.126	938.82
731.313	928.58
731.499	887.62
731.685	828.23
731.871	918.34
732.057	887.62
732.243	897.86
732.429	820.04
732.615	875.34
732.801	975.69
732.987	891.72
733.173	863.05
733.359	914.25
733.545	916.3
733.731	908.1
733.917	908.1
734.103	881.48
734.289	955.21
734.475	844.62
734.661	955.21
734.847	852.81
735.033	957.25
735.219	953.16
735.404	906.06
735.59	916.3
735.776	938.82
735.962	830.28
736.148	838.47
736.333	922.44
736.519	865.1
736.705	789.32
736.89	844.62
737.076	977.73
737.262	930.63
737.447	871.24
737.633	861
737.819	838.47
738.004	955.21
738.19	854.86
738.375	873.29
738.561	774.99
738.747	1000.26
738.932	924.49
739.118	959.3
739.303	871.24
739.489	998.21
739.674	836.42
739.859	897.86
740.045	912.2
740.23	947.01
740.416	957.25
740.601	922.44
740.786	893.77
740.972	854.86
741.157	817.99
741.342	944.97
741.528	944.97
741.713	928.58
741.898	947.01
742.084	904.01
742.269	830.28
742.454	871.24
742.639	785.23
742.824	822.09
743.01	834.38
743.195	1014.6
743.38	893.77
743.565	858.95
743.75	803.66
743.935	895.82
744.12	807.75
744.305	828.23
744.49	904.01
744.675	836.42
744.86	856.9
745.045	803.66
745.23	822.09
745.415	871.24
745.6	752.46
745.785	838.47
745.97	799.56
746.155	768.84
746.34	912.2
746.525	801.61
746.71	846.66
746.895	822.09
747.079	904.01
747.264	813.9
747.449	858.95
747.634	873.29
747.819	834.38
748.003	817.99
748.188	768.84
748.373	820.04
748.557	787.27
748.742	801.61
748.927	762.7
749.111	822.09
749.296	752.46
749.481	748.36
749.665	756.55
749.85	805.71
750.034	709.45
750.219	772.94
750.404	781.13
750.588	756.55
750.773	799.56
750.957	742.22
751.141	764.75
751.326	842.57
751.51	736.07
751.695	795.47
751.879	664.4
752.064	676.68
752.248	805.71
752.432	666.44
752.617	740.17
752.801	703.31
752.985	707.4
753.17	758.6
753.354	592.72
753.538	686.92
753.722	648.01
753.907	760.65
754.091	586.57
754.275	650.06
754.459	637.77
754.643	654.16
754.828	777.03
755.012	564.04
755.196	660.3
755.38	609.1
755.564	711.5
755.748	648.01
755.932	615.24
756.116	543.57
756.3	592.72
756.484	654.16
756.668	572.24
756.852	535.37
757.036	654.16
757.22	627.53
757.404	643.92
757.588	607.05
757.772	564.04
757.956	598.86
758.14	568.14
758.323	570.19
758.507	605
758.691	521.04
758.875	650.06
759.059	596.81
759.242	596.81
759.426	596.81
759.61	525.13
759.794	457.55
759.977	480.08
760.161	553.8
760.345	543.57
760.528	506.7
760.712	492.37
760.895	486.22
761.079	535.37
761.263	551.76
761.446	488.27
761.63	562
761.813	625.48
761.997	568.14
762.18	529.23
762.364	484.17
762.547	473.93
762.731	510.8
762.914	494.41
763.098	527.18
763.281	529.23
763.464	437.07
763.648	424.78
763.831	523.09
764.015	437.07
764.198	547.66
764.381	502.61
764.564	480.08
764.748	496.46
764.931	516.94
765.114	447.31
765.297	564.04
765.481	465.74
765.664	492.37
765.847	461.65
766.03	418.64
766.213	508.75
766.397	482.13
766.58	482.13
766.763	437.07
766.946	428.88
767.129	445.26
767.312	492.37
767.495	461.65
767.678	404.3
767.861	480.08
768.044	467.79
768.227	363.34
768.41	445.26
768.593	363.34
768.776	396.11
768.959	455.5
769.142	451.41
769.324	445.26
769.507	424.78
769.69	383.82
769.873	387.92
770.056	463.69
770.239	406.35
770.421	375.63
770.604	406.35
770.787	437.07
770.97	367.44
771.152	422.73
771.335	453.45
771.518	375.63
771.7	475.98
771.883	338.77
772.066	406.35
772.248	447.31
772.431	389.97
772.613	414.54
772.796	398.16
772.978	387.92
773.161	402.26
773.343	400.21
773.526	402.26
773.708	379.73
773.891	373.58
774.073	392.02
774.256	365.39
774.438	377.68
774.621	336.72
774.803	392.02
774.985	342.86
775.168	420.69
775.35	334.67
775.532	326.48
775.715	275.28
775.897	340.82
776.079	416.59
776.261	293.71
776.444	406.35
776.626	349.01
776.808	381.78
776.99	318.29
777.173	260.95
777.355	283.47
777.537	404.3
777.719	273.23
777.901	291.66
778.083	414.54
778.265	301.9
778.447	267.09
778.629	256.85
778.811	359.25
778.993	279.38
779.175	310.1
779.357	230.23
779.539	299.86
779.721	306
779.903	355.15
780.085	258.9
780.267	248.66
780.449	246.61
780.631	351.06
780.812	318.29
780.994	224.08
781.176	258.9
781.358	236.37
781.54	291.66
781.721	308.05
781.903	189.27
782.085	262.99
782.267	236.37
782.448	213.84
782.63	224.08
782.812	289.62
782.993	219.99
783.175	283.47
783.357	277.33
783.538	265.04
783.72	246.61
783.901	228.18
784.083	222.03
784.264	293.71
784.446	125.78
784.627	256.85
784.809	203.6
784.99	133.97
785.172	142.16
785.353	314.19
785.535	293.71
785.716	176.98
785.897	183.12
786.079	150.36
786.26	191.31
786.441	232.27
786.623	185.17
786.804	258.9
786.985	156.5
787.167	168.79
787.348	162.64
787.529	258.9
787.71	181.07
787.891	181.07
788.073	174.93
788.254	174.93
788.435	136.02
788.616	224.08
788.797	148.31
788.978	219.99
789.159	156.5
789.34	88.92
789.522	105.3
789.703	148.31
789.884	31.57
790.065	199.51
790.246	174.93
790.427	148.31
790.607	193.36
790.788	193.36
790.969	107.35
791.15	154.45
791.331	176.98
791.512	144.21
791.693	113.49
791.874	119.64
792.054	129.88
792.235	127.83
792.416	101.2
792.597	154.45
792.778	166.74
792.958	207.7
793.139	158.55
793.32	103.25
793.5	185.17
793.681	191.31
793.862	101.2
794.042	140.12
794.223	185.17
794.404	113.49
794.584	158.55
794.765	84.82
794.945	127.83
795.126	125.78
795.306	154.45
795.487	90.96
795.667	80.72
795.848	158.55
796.028	125.78
796.209	97.11
796.389	152.4
796.57	109.4
796.75	64.34
796.93	115.54
797.111	146.26
797.291	230.23
797.471	97.11
797.652	160.59
797.832	17.24
798.012	197.46
798.192	113.49
798.373	54.1
798.553	95.06
798.733	115.54
798.913	99.16
799.093	156.5
799.274	33.62
799.454	113.49
799.634	105.3
799.814	185.17
799.994	133.97
800.174	117.59
800.354	162.64
800.534	121.68
800.714	129.88
800.894	93.01
801.074	103.25
801.254	39.76
801.434	101.2
801.614	127.83
801.794	70.48
801.974	365.39
802.154	158.55
802.334	150.36
802.514	146.26
802.693	62.29
802.873	29.52
803.053	140.12
803.233	111.44
803.413	64.34
803.592	142.16
803.772	131.92
803.952	121.68
804.131	58.2
804.311	47.96
804.491	56.15
804.67	60.24
804.85	9.05
805.03	103.25
805.209	23.38
805.389	95.06
805.568	60.24
805.748	78.68
805.928	117.59
806.107	64.34
806.287	68.44
806.466	68.44
806.646	76.63
806.825	50
807.004	47.96
807.184	189.27
807.363	33.62
807.543	123.73
807.722	68.44
807.901	56.15
808.081	133.97
808.26	47.96
808.439	86.87
808.619	105.3
808.798	86.87
808.977	117.59
809.156	107.35
809.336	70.48
809.515	78.68
809.694	50
809.873	21.33
810.052	131.92
810.231	115.54
810.411	17.24
810.59	138.07
810.769	27.48
810.948	125.78
811.127	-29.87
811.306	115.54
811.485	27.48
811.664	43.86
811.843	66.39
812.022	160.59
812.201	70.48
812.38	62.29
812.559	-3.24
812.737	45.91
812.916	58.2
813.095	105.3
813.274	101.2
813.453	80.72
813.632	41.81
813.811	72.53
813.989	72.53
814.168	84.82
814.347	47.96
814.526	21.33
814.704	127.83
814.883	58.2
815.062	15.19
815.24	52.05
815.419	64.34
815.598	125.78
815.776	70.48
815.955	54.1
816.133	-9.39
816.312	78.68
816.49	78.68
816.669	23.38
816.847	62.29
817.026	84.82
817.204	27.48
817.383	4.95
817.561	99.16
817.74	35.67
817.918	160.59
818.097	23.38
818.275	33.62
818.453	45.91
818.632	97.11
818.81	101.2
818.988	-40.11
819.167	29.52
819.345	23.38
819.523	60.24
819.701	82.77
819.879	-1.19
820.058	93.01
820.236	43.86
820.414	74.58
820.592	41.81
820.77	68.44
820.948	33.62
821.127	23.38
821.305	64.34
821.483	21.33
821.661	84.82
821.839	54.1
822.017	45.91
822.195	64.34
822.373	95.06
822.551	17.24
822.729	84.82
822.907	-21.67
823.085	54.1
823.262	37.72
823.44	4.95
823.618	23.38
823.796	60.24
823.974	58.2
824.152	15.19
824.329	-42.15
824.507	17.24
824.685	2.9
824.863	47.96
825.04	31.57
825.218	62.29
825.396	-33.96
825.574	7
825.751	-44.2
825.929	7
826.107	17.24
826.284	70.48
826.462	-27.82
826.639	62.29
826.817	76.63
826.994	60.24
827.172	99.16
827.349	27.48
827.527	15.19
827.704	45.91
827.882	58.2
828.059	-3.24
828.237	72.53
828.414	117.59
828.591	70.48
828.769	15.19
828.946	45.91
829.124	80.72
829.301	39.76
829.478	-44.2
829.655	41.81
829.833	-27.82
830.01	58.2
830.187	50
830.364	9.05
830.542	33.62
830.719	-7.34
830.896	29.52
831.073	17.24
831.25	29.52
831.427	78.68
831.604	45.91
831.782	43.86
831.959	101.2
832.136	9.05
832.313	39.76
832.49	9.05
832.667	78.68
832.844	-19.63
833.021	123.73
833.198	80.72
833.374	-9.39
833.551	76.63
833.728	23.38
833.905	54.1
834.082	52.05
834.259	15.19
834.436	11.09
834.612	80.72
834.789	52.05
834.966	27.48
835.143	2.9
835.319	11.09
835.496	84.82
835.673	27.48
835.85	68.44
836.026	78.68
836.203	-15.53
836.38	-27.82
836.556	29.52
836.733	17.24
836.909	29.52
837.086	86.87
837.262	0.85
837.439	64.34
837.616	54.1
837.792	21.33
837.968	7
838.145	17.24
838.321	-11.43
838.498	39.76
838.674	66.39
838.851	-5.29
839.027	35.67
839.203	82.77
839.38	88.92
839.556	-66.73
839.732	68.44
839.909	21.33
840.085	-52.39
840.261	11.09
840.437	56.15
840.614	-9.39
840.79	99.16
840.966	4.95
841.142	29.52
841.318	54.1
841.494	66.39
841.671	-25.77
841.847	33.62
842.023	0.85
842.199	-91.31
842.375	-19.63
842.551	-15.53
842.727	-36.01
842.903	-36.01
843.079	43.86
843.255	-9.39
843.431	78.68
843.607	60.24
843.783	-7.34
843.959	33.62
844.134	2.9
844.31	60.24
844.486	17.24
844.662	82.77
844.838	-40.11
845.013	-13.48
845.189	-21.67
845.365	25.43
845.541	-38.06
845.716	15.19
845.892	27.48
846.068	-17.58
846.244	-1.19
846.419	35.67
846.595	23.38
846.77	41.81
846.946	17.24
847.122	21.33
847.297	-42.15
847.473	43.86
847.648	-42.15
847.824	11.09
847.999	39.76
848.175	-23.72
848.35	-5.29
848.526	39.76
848.701	19.29
848.876	11.09
849.052	62.29
849.227	9.05
849.403	11.09
849.578	52.05
849.753	-5.29
849.929	-11.43
850.104	47.96
850.279	-50.35
850.454	56.15
850.63	31.57
850.805	19.29
850.98	60.24
851.155	-23.72
851.33	31.57
851.505	11.09
851.681	62.29
851.856	-1.19
852.031	70.48
852.206	-40.11
852.381	2.9
852.556	17.24
852.731	19.29
852.906	-15.53
853.081	15.19
853.256	-52.39
853.431	9.05
853.606	-5.29
853.781	41.81
853.956	31.57
854.131	-3.24
854.305	-17.58
854.48	-1.19
854.655	21.33
854.83	-21.67
855.005	0.85
855.18	60.24
855.354	-31.91
855.529	-50.35
855.704	9.05
855.879	39.76
856.053	-33.96
856.228	58.2
856.403	-23.72
856.577	35.67
856.752	-13.48
856.926	17.24
857.101	-23.72
857.276	-40.11
857.45	-5.29
857.625	11.09
857.799	11.09
857.974	31.57
858.148	31.57
858.323	27.48
858.497	25.43
858.672	-48.3
858.846	31.57
859.02	-9.39
859.195	13.14
859.369	58.2
859.543	-25.77
859.718	-13.48
859.892	-11.43
860.066	13.14
860.241	41.81
860.415	47.96
860.589	7
860.763	-56.49
860.938	-60.59
861.112	54.1
861.286	74.58
861.46	27.48
861.634	72.53
861.808	-31.91
861.982	66.39
862.157	-15.53
862.331	45.91
862.505	-19.63
862.679	9.05
862.853	70.48
863.027	-44.2
863.201	29.52
863.375	2.9
863.549	60.24
863.722	-3.24
863.896	37.72
864.07	4.95
864.244	35.67
864.418	0.85
864.592	43.86
864.766	-21.67
864.939	-1.19
865.113	-46.25
865.287	-21.67
865.461	-85.16
865.634	-7.34
865.808	-3.24
865.982	11.09
866.156	45.91
866.329	-29.87
866.503	-5.29
866.676	-46.25
866.85	45.91
867.024	-44.2
867.197	9.05
867.371	7
867.544	37.72
867.718	-38.06
867.891	0.85
868.065	15.19
868.238	-3.24
868.412	62.29
868.585	27.48
868.759	60.24
868.932	-60.59
869.105	-11.43
869.279	-54.44
869.452	-87.21
869.625	-46.25
869.799	41.81
869.972	31.57
870.145	37.72
870.319	27.48
870.492	-5.29
870.665	-11.43
870.838	-7.34
871.011	-62.63
871.185	-11.43
871.358	7
871.531	-33.96
871.704	-76.97
871.877	54.1
872.05	-36.01
872.223	-5.29
872.396	19.29
872.569	-66.73
872.742	29.52
872.915	-66.73
873.088	9.05
873.261	-142.5
873.434	-27.82
873.607	7
873.78	-50.35
873.953	54.1
874.126	27.48
874.299	-33.96
874.471	21.33
874.644	-44.2
874.817	29.52
874.99	47.96
875.163	-13.48
875.335	11.09
875.508	-9.39
875.681	-11.43
875.853	54.1
876.026	-7.34
876.199	2.9
876.371	56.15
876.544	-44.2
876.717	90.96
876.889	-46.25
877.062	-19.63
877.234	-27.82
877.407	-50.35
877.579	-29.87
877.752	47.96
877.924	21.33
878.097	39.76
878.269	-13.48
878.442	4.95
878.614	-46.25
878.786	-21.67
878.959	27.48
879.131	45.91
879.303	66.39
879.476	-58.54
879.648	-23.72
879.82	-17.58
879.993	-31.91
880.165	35.67
880.337	-44.2
880.509	-21.67
880.681	-36.01
880.854	-58.54
881.026	-46.25
881.198	62.29
881.37	15.19
881.542	11.09
881.714	2.9
881.886	-36.01
882.058	-54.44
882.23	-36.01
882.402	-52.39
882.574	25.43
882.746	-21.67
882.918	43.86
883.09	25.43
883.262	15.19
883.434	17.24
883.606	-48.3
883.778	-42.15
883.95	41.81
884.122	13.14
884.293	-23.72
884.465	37.72
884.637	50
884.809	37.72
884.98	-7.34
885.152	43.86
885.324	29.52
885.496	-33.96
885.667	-23.72
885.839	-13.48
886.011	-25.77
886.182	-33.96
886.354	11.09
886.525	31.57
886.697	-56.49
886.869	31.57
887.04	-5.29
887.212	31.57
887.383	7
887.555	-56.49
887.726	-23.72
887.897	9.05
888.069	-9.39
888.24	-36.01
888.412	-27.82
888.583	-19.63
888.754	2.9
888.926	-9.39
889.097	27.48
889.268	-1.19
889.44	-33.96
889.611	21.33
889.782	-9.39
889.953	-21.67
890.125	21.33
890.296	-31.91
890.467	-9.39
890.638	-5.29
890.809	21.33
890.98	4.95
891.151	-48.3
891.323	-52.39
891.494	60.24
891.665	-46.25
891.836	-21.67
892.007	-85.16
892.178	-29.87
892.349	-38.06
892.52	13.14
892.691	37.72
892.862	19.29
893.032	54.1
893.203	17.24
893.374	-17.58
893.545	27.48
893.716	-17.58
893.887	4.95
894.057	84.82
894.228	27.48
894.399	7
894.57	-44.2
894.74	4.95
894.911	27.48
895.082	-9.39
895.253	-11.43
895.423	-38.06
895.594	-56.49
895.764	88.92
895.935	45.91
896.106	31.57
896.276	-9.39
896.447	-60.59
896.617	-27.82
896.788	-19.63
896.958	11.09
897.129	-64.68
897.299	19.29
897.47	-95.4
897.64	-31.91
897.81	-40.11
897.981	-48.3
898.151	-40.11
898.322	-68.78
898.492	-68.78
898.662	31.57
898.832	7
899.003	-72.87
899.173	13.14
899.343	-40.11
899.513	-23.72
