Data from USB4F104151__0__12-53-01-172.txt Node

Date: Fri Mar 14 12:53:01 EDT 2025
User: louis
Spectrometer: USB4F10415
Trigger mode: 4
Integration Time (sec): 1.000000E-2
Scans to average: 1
Electric dark correction enabled: true
Nonlinearity correction enabled: false
Boxcar width: 0
XAxis mode: Wavelengths
Number of Pixels in Spectrum: 3648
>>>>>Begin Spectral Data<<<<<
178.204	-48.64
178.424	-48.64
178.644	-48.64
178.864	-52.74
179.084	25.09
179.304	61.95
179.524	-24.06
179.744	-24.06
179.964	-11.78
180.184	10.75
180.404	0.51
180.624	6.66
180.844	-3.58
181.064	-7.68
181.283	-7.68
181.503	-3.58
181.723	2.56
181.943	-17.92
182.163	84.48
182.383	8.7
182.602	88.57
182.822	-1.54
183.042	33.28
183.262	25.09
183.482	-44.54
183.701	-38.4
183.921	-42.5
184.141	4.61
184.361	66.05
184.58	35.33
184.8	-19.97
185.02	-34.3
185.239	70.14
185.459	-13.82
185.679	127.49
185.898	53.76
186.118	68.09
186.338	59.9
186.557	51.71
186.777	-28.16
186.997	4.61
187.216	76.29
187.436	45.57
187.655	-17.92
187.875	117.25
188.095	-17.92
188.314	51.71
188.534	35.33
188.753	-19.97
188.973	-40.45
189.192	66.05
189.412	70.14
189.631	-22.02
189.851	12.8
190.07	72.19
190.29	47.62
190.509	33.28
190.729	59.9
190.948	49.66
191.168	59.9
191.387	59.9
191.607	-11.78
191.826	27.14
192.045	2.56
192.265	61.95
192.484	12.8
192.704	6.66
192.923	-26.11
193.142	-5.63
193.362	2.56
193.581	23.04
193.8	33.28
194.02	70.14
194.239	45.57
194.458	-28.16
194.678	-34.3
194.897	76.29
195.116	-56.83
195.335	51.71
195.555	57.86
195.774	66.05
195.993	72.19
196.212	4.61
196.432	18.94
196.651	-13.82
196.87	-40.45
197.089	41.47
197.308	23.04
197.528	-5.63
197.747	-42.5
197.966	31.23
198.185	53.76
198.404	27.14
198.623	10.75
198.842	-73.21
199.062	14.85
199.281	43.52
199.5	41.47
199.719	41.47
199.938	-15.87
200.157	4.61
200.376	10.75
200.595	8.7
200.814	-38.4
201.033	76.29
201.252	64
201.471	16.9
201.69	51.71
201.909	70.14
202.128	-5.63
202.347	-5.63
202.566	55.81
202.785	84.48
203.004	-9.73
203.223	-15.87
203.442	49.66
203.661	18.94
203.879	10.75
204.098	35.33
204.317	25.09
204.536	37.38
204.755	41.47
204.974	51.71
205.193	66.05
205.411	29.18
205.63	0.51
205.849	37.38
206.068	25.09
206.287	18.94
206.505	43.52
206.724	16.9
206.943	29.18
207.162	16.9
207.381	84.48
207.599	-48.64
207.818	43.52
208.037	-36.35
208.255	43.52
208.474	43.52
208.693	90.62
208.911	-28.16
209.13	4.61
209.349	64
209.567	57.86
209.786	-11.78
210.005	-71.17
210.223	45.57
210.442	-13.82
210.661	107.01
210.879	-5.63
211.098	76.29
211.316	33.28
211.535	74.24
211.753	-15.87
211.972	45.57
212.191	35.33
212.409	-34.3
212.628	57.86
212.846	6.66
213.065	-54.78
213.283	10.75
213.502	66.05
213.72	10.75
213.938	-9.73
214.157	35.33
214.375	-3.58
214.594	-46.59
214.812	55.81
215.031	43.52
215.249	8.7
215.467	41.47
215.686	6.66
215.904	76.29
216.122	57.86
216.341	51.71
216.559	74.24
216.778	27.14
216.996	6.66
217.214	43.52
217.432	14.85
217.651	8.7
217.869	37.38
218.087	-32.26
218.306	6.66
218.524	84.48
218.742	0.51
218.96	33.28
219.179	45.57
219.397	43.52
219.615	27.14
219.833	76.29
220.051	8.7
220.27	57.86
220.488	66.05
220.706	80.38
220.924	10.75
221.142	35.33
221.36	8.7
221.578	61.95
221.796	-5.63
222.015	-22.02
222.233	31.23
222.451	78.33
222.669	29.18
222.887	98.81
223.105	33.28
223.323	57.86
223.541	-34.3
223.759	35.33
223.977	49.66
224.195	-11.78
224.413	8.7
224.631	-5.63
224.849	37.38
225.067	33.28
225.285	4.61
225.503	33.28
225.721	23.04
225.939	47.62
226.157	-42.5
226.375	8.7
226.592	20.99
226.81	0.51
227.028	45.57
227.246	-38.4
227.464	4.61
227.682	45.57
227.9	-11.78
228.117	20.99
228.335	23.04
228.553	-34.3
228.771	20.99
228.989	96.77
229.206	33.28
229.424	-13.82
229.642	55.81
229.86	41.47
230.077	-7.68
230.295	104.96
230.513	23.04
230.731	88.57
230.948	45.57
231.166	-3.58
231.384	29.18
231.601	66.05
231.819	2.56
232.037	8.7
232.254	49.66
232.472	20.99
232.689	29.18
232.907	16.9
233.125	82.43
233.342	16.9
233.56	37.38
233.777	47.62
233.995	74.24
234.213	49.66
234.43	-58.88
234.648	14.85
234.865	43.52
235.083	66.05
235.3	29.18
235.518	43.52
235.735	49.66
235.953	10.75
236.17	47.62
236.388	57.86
236.605	25.09
236.822	64
237.04	4.61
237.257	10.75
237.475	43.52
237.692	37.38
237.909	20.99
238.127	-26.11
238.344	88.57
238.562	-32.26
238.779	47.62
238.996	25.09
239.214	-24.06
239.431	33.28
239.648	16.9
239.865	127.49
240.083	64
240.3	27.14
240.517	43.52
240.735	-13.82
240.952	-62.98
241.169	18.94
241.386	14.85
241.603	49.66
241.821	12.8
242.038	43.52
242.255	51.71
242.472	76.29
242.689	-1.54
242.907	0.51
243.124	16.9
243.341	-11.78
243.558	-34.3
243.775	-5.63
243.992	70.14
244.209	86.53
244.426	35.33
244.643	-3.58
244.86	111.1
245.078	113.15
245.295	39.42
245.512	68.09
245.729	8.7
245.946	107.01
246.163	100.86
246.38	45.57
246.597	-7.68
246.814	-15.87
247.031	-26.11
247.248	8.7
247.464	16.9
247.681	-17.92
247.898	59.9
248.115	59.9
248.332	-91.65
248.549	84.48
248.766	2.56
248.983	49.66
249.2	80.38
249.417	20.99
249.633	80.38
249.85	64
250.067	-3.58
250.284	47.62
250.501	53.76
250.717	-1.54
250.934	-19.97
251.151	57.86
251.368	31.23
251.585	39.42
251.801	29.18
252.018	0.51
252.235	74.24
252.451	49.66
252.668	25.09
252.885	53.76
253.102	64
253.318	27.14
253.535	16.9
253.752	18.94
253.968	37.38
254.185	10.75
254.401	25.09
254.618	82.43
254.835	8.7
255.051	61.95
255.268	23.04
255.484	53.76
255.701	23.04
255.917	57.86
256.134	94.72
256.351	-17.92
256.567	-44.54
256.784	109.05
257	-26.11
257.217	23.04
257.433	-42.5
257.65	96.77
257.866	64
258.082	33.28
258.299	59.9
258.515	14.85
258.732	98.81
258.948	6.66
259.165	23.04
259.381	-48.64
259.597	51.71
259.814	-32.26
260.03	78.33
260.246	51.71
260.463	27.14
260.679	-7.68
260.895	84.48
261.112	86.53
261.328	-9.73
261.544	39.42
261.761	80.38
261.977	66.05
262.193	41.47
262.409	18.94
262.626	53.76
262.842	-5.63
263.058	39.42
263.274	-9.73
263.49	111.1
263.707	70.14
263.923	72.19
264.139	8.7
264.355	0.51
264.571	57.86
264.787	49.66
265.004	10.75
265.22	43.52
265.436	57.86
265.652	39.42
265.868	-13.82
266.084	18.94
266.3	49.66
266.516	33.28
266.732	45.57
266.948	37.38
267.164	51.71
267.38	18.94
267.596	41.47
267.812	35.33
268.028	18.94
268.244	-5.63
268.46	14.85
268.676	8.7
268.892	-32.26
269.108	-5.63
269.324	49.66
269.54	-30.21
269.756	55.81
269.972	-5.63
270.188	31.23
270.403	49.66
270.619	68.09
270.835	39.42
271.051	14.85
271.267	27.14
271.483	45.57
271.698	16.9
271.914	59.9
272.13	55.81
272.346	-42.5
272.562	16.9
272.777	-7.68
272.993	39.42
273.209	-15.87
273.425	-30.21
273.64	70.14
273.856	20.99
274.072	-5.63
274.287	20.99
274.503	64
274.719	66.05
274.934	57.86
275.15	6.66
275.366	61.95
275.581	6.66
275.797	-19.97
276.012	27.14
276.228	25.09
276.444	25.09
276.659	70.14
276.875	-11.78
277.09	27.14
277.306	-15.87
277.521	53.76
277.737	-13.82
277.952	23.04
278.168	16.9
278.383	47.62
278.599	37.38
278.814	-13.82
279.03	25.09
279.245	72.19
279.461	37.38
279.676	96.77
279.892	6.66
280.107	-26.11
280.322	-5.63
280.538	70.14
280.753	-40.45
280.969	20.99
281.184	55.81
281.399	57.86
281.615	23.04
281.83	-77.31
282.045	29.18
282.26	51.71
282.476	53.76
282.691	61.95
282.906	41.47
283.122	57.86
283.337	-1.54
283.552	-11.78
283.767	18.94
283.983	45.57
284.198	43.52
284.413	76.29
284.628	74.24
284.843	20.99
285.058	76.29
285.274	16.9
285.489	39.42
285.704	33.28
285.919	33.28
286.134	16.9
286.349	8.7
286.564	2.56
286.779	102.91
286.995	41.47
287.21	80.38
287.425	57.86
287.64	51.71
287.855	-7.68
288.07	-24.06
288.285	53.76
288.5	37.38
288.715	18.94
288.93	59.9
289.145	-11.78
289.36	35.33
289.575	31.23
289.79	16.9
290.004	0.51
290.219	-1.54
290.434	72.19
290.649	33.28
290.864	29.18
291.079	61.95
291.294	39.42
291.509	0.51
291.724	49.66
291.938	8.7
292.153	70.14
292.368	23.04
292.583	20.99
292.798	6.66
293.012	25.09
293.227	6.66
293.442	31.23
293.657	51.71
293.871	20.99
294.086	68.09
294.301	2.56
294.516	53.76
294.73	29.18
294.945	-9.73
295.16	59.9
295.374	100.86
295.589	49.66
295.804	82.43
296.018	10.75
296.233	41.47
296.447	31.23
296.662	49.66
296.877	23.04
297.091	-32.26
297.306	82.43
297.52	43.52
297.735	49.66
297.949	25.09
298.164	74.24
298.378	-5.63
298.593	-19.97
298.807	43.52
299.022	12.8
299.236	29.18
299.451	25.09
299.665	80.38
299.88	8.7
300.094	6.66
300.309	37.38
300.523	2.56
300.737	35.33
300.952	70.14
301.166	-5.63
301.381	57.86
301.595	4.61
301.809	49.66
302.024	49.66
302.238	16.9
302.452	45.57
302.667	72.19
302.881	-65.02
303.095	57.86
303.309	49.66
303.524	-34.3
303.738	43.52
303.952	29.18
304.166	57.86
304.381	43.52
304.595	61.95
304.809	-17.92
305.023	80.38
305.237	78.33
305.452	39.42
305.666	66.05
305.88	61.95
306.094	59.9
306.308	35.33
306.522	-5.63
306.736	51.71
306.95	-22.02
307.164	18.94
307.379	37.38
307.593	64
307.807	16.9
308.021	-13.82
308.235	74.24
308.449	16.9
308.663	-3.58
308.877	57.86
309.091	-5.63
309.305	-15.87
309.519	-1.54
309.733	20.99
309.947	-52.74
310.161	70.14
310.374	45.57
310.588	59.9
310.802	47.62
311.016	-81.41
311.23	45.57
311.444	86.53
311.658	-5.63
311.872	72.19
312.085	8.7
312.299	43.52
312.513	55.81
312.727	8.7
312.941	25.09
313.154	66.05
313.368	66.05
313.582	61.95
313.796	-11.78
314.009	47.62
314.223	113.15
314.437	-22.02
314.651	33.28
314.864	35.33
315.078	-3.58
315.292	137.73
315.505	59.9
315.719	6.66
315.933	41.47
316.146	18.94
316.36	59.9
316.573	25.09
316.787	78.33
317.001	61.95
317.214	66.05
317.428	12.8
317.641	96.77
317.855	61.95
318.068	43.52
318.282	-7.68
318.495	119.29
318.709	0.51
318.922	41.47
319.136	29.18
319.349	33.28
319.563	82.43
319.776	57.86
319.99	-22.02
320.203	109.05
320.417	61.95
320.63	-7.68
320.843	-40.45
321.057	39.42
321.27	25.09
321.483	121.34
321.697	29.18
321.91	33.28
322.124	57.86
322.337	2.56
322.55	51.71
322.763	25.09
322.977	23.04
323.19	8.7
323.403	20.99
323.617	23.04
323.83	57.86
324.043	64
324.256	82.43
324.469	41.47
324.683	35.33
324.896	12.8
325.109	57.86
325.322	51.71
325.535	-5.63
325.748	29.18
325.962	-9.73
326.175	10.75
326.388	107.01
326.601	94.72
326.814	29.18
327.027	84.48
327.24	59.9
327.453	25.09
327.666	64
327.879	-15.87
328.092	35.33
328.305	57.86
328.518	70.14
328.731	6.66
328.944	-9.73
329.157	39.42
329.37	16.9
329.583	27.14
329.796	33.28
330.009	10.75
330.222	45.57
330.435	111.1
330.648	31.23
330.861	74.24
331.073	100.86
331.286	31.23
331.499	66.05
331.712	35.33
331.925	45.57
332.138	100.86
332.35	35.33
332.563	-9.73
332.776	94.72
332.989	61.95
333.202	43.52
333.414	55.81
333.627	29.18
333.84	88.57
334.053	68.09
334.265	29.18
334.478	82.43
334.691	23.04
334.903	-7.68
335.116	-52.74
335.329	51.71
335.541	12.8
335.754	29.18
335.966	-15.87
336.179	20.99
336.392	80.38
336.604	84.48
336.817	33.28
337.029	-15.87
337.242	78.33
337.454	100.86
337.667	49.66
337.88	72.19
338.092	0.51
338.305	37.38
338.517	96.77
338.729	102.91
338.942	104.96
339.154	70.14
339.367	-13.82
339.579	0.51
339.792	49.66
340.004	12.8
340.217	82.43
340.429	27.14
340.641	68.09
340.854	74.24
341.066	57.86
341.278	20.99
341.491	55.81
341.703	57.86
341.915	143.87
342.128	-11.78
342.34	-40.45
342.552	37.38
342.764	20.99
342.977	51.71
343.189	96.77
343.401	45.57
343.613	-89.6
343.826	-24.06
344.038	8.7
344.25	51.71
344.462	66.05
344.674	107.01
344.886	18.94
345.099	20.99
345.311	86.53
345.523	55.81
345.735	-42.5
345.947	25.09
346.159	6.66
346.371	31.23
346.583	74.24
346.795	55.81
347.007	20.99
347.219	78.33
347.431	84.48
347.643	68.09
347.855	72.19
348.067	66.05
348.279	10.75
348.491	-40.45
348.703	51.71
348.915	4.61
349.127	-5.63
349.339	-13.82
349.551	82.43
349.763	92.67
349.975	107.01
350.187	74.24
350.399	14.85
350.61	49.66
350.822	25.09
351.034	-9.73
351.246	-22.02
351.458	-1.54
351.669	-24.06
351.881	64
352.093	109.05
352.305	94.72
352.517	0.51
352.728	41.47
352.94	57.86
353.152	39.42
353.363	43.52
353.575	66.05
353.787	78.33
353.999	88.57
354.21	45.57
354.422	6.66
354.633	78.33
354.845	51.71
355.057	59.9
355.268	-1.54
355.48	86.53
355.692	39.42
355.903	-7.68
356.115	76.29
356.326	49.66
356.538	76.29
356.749	59.9
356.961	23.04
357.172	0.51
357.384	90.62
357.595	45.57
357.807	31.23
358.018	12.8
358.23	18.94
358.441	90.62
358.653	20.99
358.864	20.99
359.075	-30.21
359.287	115.2
359.498	111.1
359.709	51.71
359.921	-13.82
360.132	43.52
360.344	16.9
360.555	16.9
360.766	18.94
360.977	98.81
361.189	14.85
361.4	41.47
361.611	-60.93
361.823	96.77
362.034	59.9
362.245	49.66
362.456	33.28
362.667	-19.97
362.879	76.29
363.09	27.14
363.301	55.81
363.512	18.94
363.723	12.8
363.935	41.47
364.146	41.47
364.357	47.62
364.568	84.48
364.779	-1.54
364.99	16.9
365.201	0.51
365.412	147.97
365.623	2.56
365.834	82.43
366.045	2.56
366.256	90.62
366.467	-24.06
366.678	121.34
366.889	41.47
367.1	49.66
367.311	31.23
367.522	47.62
367.733	59.9
367.944	-22.02
368.155	59.9
368.366	12.8
368.577	10.75
368.788	-22.02
368.999	39.42
369.209	-5.63
369.42	86.53
369.631	31.23
369.842	68.09
370.053	86.53
370.264	35.33
370.474	35.33
370.685	12.8
370.896	90.62
371.107	29.18
371.317	74.24
371.528	76.29
371.739	8.7
371.95	25.09
372.16	66.05
372.371	25.09
372.582	4.61
372.792	104.96
373.003	133.63
373.214	-36.35
373.424	-19.97
373.635	6.66
373.846	61.95
374.056	35.33
374.267	74.24
374.477	82.43
374.688	31.23
374.898	94.72
375.109	0.51
375.319	59.9
375.53	133.63
375.74	61.95
375.951	31.23
376.161	96.77
376.372	72.19
376.582	37.38
376.793	-7.68
377.003	23.04
377.214	64
377.424	66.05
377.635	102.91
377.845	80.38
378.055	10.75
378.266	86.53
378.476	8.7
378.686	74.24
378.897	18.94
379.107	94.72
379.317	18.94
379.528	57.86
379.738	-7.68
379.948	39.42
380.158	96.77
380.369	37.38
380.579	39.42
380.789	57.86
380.999	90.62
381.21	35.33
381.42	35.33
381.63	61.95
381.84	80.38
382.05	100.86
382.261	53.76
382.471	-17.92
382.681	47.62
382.891	156.16
383.101	-15.87
383.311	51.71
383.521	53.76
383.731	45.57
383.941	59.9
384.151	-3.58
384.361	-15.87
384.571	61.95
384.781	27.14
384.991	137.73
385.201	64
385.411	16.9
385.621	76.29
385.831	88.57
386.041	82.43
386.251	53.76
386.461	139.77
386.671	92.67
386.881	29.18
387.091	47.62
387.301	76.29
387.511	47.62
387.72	-38.4
387.93	57.86
388.14	2.56
388.35	41.47
388.56	37.38
388.769	29.18
388.979	70.14
389.189	49.66
389.399	64
389.609	43.52
389.818	55.81
390.028	35.33
390.238	68.09
390.447	59.9
390.657	-15.87
390.867	78.33
391.076	109.05
391.286	6.66
391.496	45.57
391.705	119.29
391.915	25.09
392.125	109.05
392.334	64
392.544	64
392.753	57.86
392.963	29.18
393.172	78.33
393.382	107.01
393.591	98.81
393.801	72.19
394.01	111.1
394.22	27.14
394.429	29.18
394.639	45.57
394.848	0.51
395.058	74.24
395.267	102.91
395.477	20.99
395.686	98.81
395.895	74.24
396.105	129.53
396.314	84.48
396.524	41.47
396.733	107.01
396.942	135.68
397.152	43.52
397.361	119.29
397.57	98.81
397.78	20.99
397.989	76.29
398.198	102.91
398.407	113.15
398.617	115.2
398.826	23.04
399.035	45.57
399.244	102.91
399.453	53.76
399.663	88.57
399.872	117.25
400.081	88.57
400.29	76.29
400.499	59.9
400.708	123.39
400.917	100.86
401.127	68.09
401.336	70.14
401.545	125.44
401.754	61.95
401.963	92.67
402.172	47.62
402.381	25.09
402.59	70.14
402.799	111.1
403.008	139.77
403.217	88.57
403.426	164.35
403.635	78.33
403.844	92.67
404.053	100.86
404.262	168.45
404.471	172.54
404.68	170.49
404.888	107.01
405.097	147.97
405.306	109.05
405.515	96.77
405.724	121.34
405.933	141.82
406.142	98.81
406.35	96.77
406.559	102.91
406.768	152.06
406.977	174.59
407.185	100.86
407.394	197.12
407.603	121.34
407.812	166.4
408.02	154.11
408.229	227.84
408.438	174.59
408.646	233.98
408.855	152.06
409.064	199.16
409.272	150.01
409.481	274.94
409.69	313.85
409.898	178.69
410.107	213.5
410.315	256.51
410.524	281.08
410.733	246.27
410.941	190.97
411.15	299.52
411.358	291.32
411.567	336.38
411.775	326.14
411.984	311.8
412.192	363
412.401	305.66
412.609	332.28
412.818	315.9
413.026	334.33
413.234	360.95
413.443	354.81
413.651	403.96
413.86	356.86
414.068	459.26
414.276	444.92
414.485	432.63
414.693	395.77
414.901	479.74
415.11	518.65
415.318	492.02
415.526	565.75
415.734	514.55
415.943	553.46
416.151	514.55
416.359	616.95
416.567	668.15
416.776	582.14
416.984	684.53
417.192	565.75
417.4	616.95
417.608	645.62
417.817	690.68
418.025	745.97
418.233	801.27
418.441	737.78
418.649	815.6
418.857	862.71
419.065	946.67
419.273	928.24
419.481	913.91
419.689	922.1
419.897	1014.26
420.105	1065.46
420.313	1075.7
420.521	993.78
420.729	1106.42
420.937	1079.79
421.145	1161.71
421.353	1251.82
421.561	1284.59
421.769	1321.45
421.977	1376.75
422.185	1386.99
422.393	1456.62
422.601	1597.93
422.809	1591.78
423.017	1436.14
423.224	1692.13
423.432	1751.53
423.64	1747.43
423.848	1794.53
424.056	1749.48
424.263	1886.69
424.471	1894.88
424.679	2023.91
424.887	2116.06
425.094	2083.3
425.302	2210.27
425.51	2202.08
425.718	2353.63
425.925	2447.83
426.133	2474.46
426.341	2599.38
426.548	2703.83
426.756	2525.66
426.964	2736.6
427.171	2841.04
427.379	2892.24
427.586	2976.21
427.794	3049.94
428.001	3172.82
428.209	3387.85
428.417	3254.73
428.624	3559.88
428.832	3541.45
429.039	3568.07
429.247	3473.87
429.454	3699.14
429.662	4182.46
429.869	3774.92
430.076	4161.98
430.284	4057.54
430.491	4174.27
430.699	4426.17
430.906	4372.93
431.114	4493.76
431.321	4653.5
431.528	4815.29
431.736	5089.71
431.943	5265.84
432.15	5130.67
432.358	5200.3
432.565	5489.07
432.772	5589.42
432.979	5847.46
433.187	5913
433.394	5826.98
433.601	6326.69
433.808	6320.54
434.016	6173.09
434.223	6554.01
434.43	7002.52
434.637	6863.26
434.844	7393.68
435.052	7410.06
435.259	7182.74
435.466	7561.61
435.673	7326.1
435.88	7928.2
436.087	8094.08
436.294	8292.74
436.501	8018.31
436.708	8272.26
436.915	8591.74
437.122	8978.81
437.329	8950.14
437.537	9195.89
437.743	9460.08
437.95	8991.09
438.157	9929.06
438.364	10119.53
438.571	9990.5
438.778	10086.76
438.985	10967.38
439.192	10520.93
439.399	11037.02
439.606	10594.65
439.813	11477.33
440.02	11929.93
440.227	11915.59
440.433	11721.04
440.64	11960.65
440.847	11938.12
441.054	12570.94
441.261	13279.54
441.467	12974.39
441.674	12947.77
441.881	13685.04
442.088	13951.28
442.294	13623.6
442.501	13947.18
442.708	14199.08
442.914	14690.59
443.121	15552.79
443.328	15184.15
443.534	15847.69
443.741	15726.86
443.948	15528.21
444.154	16744.7
444.361	16300.3
444.568	16584.96
444.774	16701.7
444.981	16824.58
445.187	17291.51
445.394	18088.17
445.6	17785.07
445.807	19589.33
446.013	18768.1
446.22	19306.71
446.426	19796.18
446.633	20086.99
446.839	20469.96
447.046	19712.21
447.252	20779.2
447.459	21033.15
447.665	20736.2
447.871	21954.74
448.078	22861.99
448.284	21885.11
448.491	22315.18
448.697	23072.93
448.903	23584.92
449.11	23550.1
449.316	23083.17
449.522	23505.05
449.728	24234.13
449.935	24395.92
450.141	24750.21
450.347	25135.23
450.553	24289.42
450.76	24520.84
450.966	25372.8
451.172	24995.97
451.378	25749.62
451.584	25411.71
451.791	25716.86
451.997	25702.52
452.203	26488.94
452.409	25929.84
452.615	26048.63
452.821	24897.67
453.027	25055.36
453.233	26327.15
453.44	25239.68
453.646	25313.41
453.852	25438.33
454.058	26032.24
454.264	25084.03
454.47	25671.8
454.676	25104.51
454.882	25917.56
455.088	23941.27
455.294	24135.82
455.5	24748.17
455.705	24840.32
455.911	23756.95
456.117	23578.78
456.323	22771.88
456.529	21864.63
456.735	22904.99
456.941	22171.82
457.147	21981.36
457.352	21164.22
457.558	21139.65
457.764	20916.42
457.97	20545.73
458.176	20076.75
458.381	20142.28
458.587	19063.01
458.793	19175.64
458.999	18385.13
459.204	19603.67
459.41	19136.73
459.616	17676.53
459.821	17721.59
460.027	17529.08
460.233	17580.28
460.438	16423.17
460.644	16642.31
460.85	16040.2
461.055	15829.26
461.261	15968.52
461.466	14747.93
461.672	13949.23
461.878	15327.51
462.083	14350.63
462.289	14018.86
462.494	13857.07
462.7	13052.22
462.905	12689.73
463.111	13261.11
463.316	13631.79
463.522	13121.85
463.727	13189.43
463.932	13291.83
464.138	12978.49
464.343	12853.56
464.549	12624.19
464.754	12931.39
464.959	13146.42
465.165	12896.57
465.37	12200.26
465.575	11950.41
465.781	12560.7
465.986	12620.1
466.191	12331.33
466.397	11624.78
466.602	11198.81
466.807	11790.67
467.012	11856.2
467.218	11880.78
467.423	11618.64
467.628	11637.07
467.833	12175.69
468.038	11653.45
468.244	11362.64
468.449	11831.63
468.654	11387.22
468.859	11481.42
469.064	11424.08
469.269	10942.81
469.474	10948.95
469.679	11270.48
469.885	10821.98
470.09	11014.49
470.295	10854.75
470.5	10733.92
470.705	10942.81
470.91	10512.74
471.115	10471.78
471.32	10918.23
471.525	10783.07
471.73	10332.51
471.935	10279.27
472.139	9924.97
472.344	10000.74
472.549	9955.69
472.754	9836.91
472.959	9498.99
473.164	9339.25
473.369	9316.72
473.574	9445.74
473.778	9488.75
473.983	9390.45
474.188	9343.35
474.393	8870.26
474.598	9032.05
474.802	8958.33
475.007	8806.78
475.212	9048.44
475.417	8601.98
475.621	8434.05
475.826	8374.66
476.031	8337.79
476.235	8350.08
476.44	8147.33
476.645	8112.52
476.849	8118.66
477.054	7917.96
477.259	7920.01
477.463	7917.96
477.668	7809.42
477.872	7836.04
478.077	7756.17
478.282	7405.97
478.486	7332.24
478.691	7596.43
478.895	7215.51
479.1	7258.51
479.304	7416.21
479.509	7209.36
479.713	7301.52
479.918	7152.02
480.122	7020.95
480.326	7117.2
480.531	7213.46
480.735	6990.23
480.94	7037.33
481.144	7195.03
481.348	6830.49
481.553	6939.03
481.757	6543.77
481.961	6914.45
482.166	6797.72
482.37	6904.21
482.574	6779.29
482.778	6812.06
482.983	6900.12
483.187	6758.81
483.391	7025.04
483.595	6912.41
483.8	6738.33
484.004	6773.14
484.208	6902.17
484.412	6719.9
484.616	6820.25
484.821	6867.35
485.025	6572.44
485.229	6846.87
485.433	6941.08
485.637	6963.61
485.841	6801.82
486.045	6855.06
486.249	7004.57
486.453	6898.07
486.657	7027.09
486.861	6926.74
487.065	6893.97
487.269	6828.44
487.473	6848.92
487.677	7035.28
487.881	6953.37
488.085	6982.04
488.289	7072.15
488.493	6814.1
488.697	7223.7
488.901	7137.68
489.105	6939.03
489.309	7145.87
489.512	7176.59
489.716	7119.25
489.92	7209.36
490.124	7250.32
490.328	7416.21
490.531	7207.31
490.735	7233.94
490.939	7264.66
491.143	7211.41
491.346	7184.79
491.55	7426.45
491.754	7367.06
491.958	7557.52
492.161	7469.45
492.365	7723.4
492.569	7637.39
492.772	7602.57
492.976	7625.1
493.18	7602.57
493.383	7780.75
493.587	7979.4
493.79	8075.65
493.994	7833.99
494.197	8186.24
494.401	8188.29
494.605	8028.55
494.808	8302.98
495.012	8270.21
495.215	8403.33
495.419	8266.11
495.622	8438.14
495.825	8466.81
496.029	8628.6
496.232	8733.05
496.436	8640.89
496.639	9191.8
496.843	8882.55
497.046	9163.12
497.249	9357.68
497.453	9265.52
497.656	9292.15
497.859	9494.9
498.063	9396.59
498.266	9841
498.469	9824.62
498.673	9884.01
498.876	10150.25
499.079	10191.2
499.282	10156.39
499.485	10357.09
499.689	10396
499.892	10512.74
500.095	10717.53
500.298	10916.19
500.501	10940.76
500.705	11092.31
500.908	11481.42
501.111	11528.53
501.314	11471.18
501.517	11727.18
501.72	11964.75
501.923	11923.79
502.126	12314.95
502.329	12446.02
502.532	12417.35
502.735	12675.39
502.938	12906.81
503.141	13109.56
503.344	13113.66
503.547	13201.72
503.75	13416.76
503.953	13578.54
504.156	13969.71
504.359	13857.07
504.562	14072.11
504.765	14510.37
504.968	14727.46
505.17	14602.53
505.373	14606.63
505.576	15239.45
505.779	15098.14
505.982	15470.87
506.185	15843.6
506.387	15798.54
506.59	15915.28
506.793	16302.34
506.996	16281.86
507.198	16861.44
507.401	16605.44
507.604	16922.88
507.807	17240.31
508.009	17285.37
508.212	17748.21
508.415	17891.57
508.617	17936.62
508.82	18243.82
509.022	18276.59
509.225	18634.98
509.428	18821.34
509.63	18796.77
509.833	19222.75
510.035	19656.92
510.238	19599.57
510.44	19751.12
510.643	20144.33
510.845	20222.16
511.048	20345.03
511.25	20863.17
511.453	20865.22
511.655	21532.86
511.858	21414.07
512.06	21553.34
512.262	21741.75
512.465	22001.84
512.667	22325.42
512.87	22651.05
513.072	22474.92
513.274	23001.25
513.477	23378.08
513.679	23857.3
513.881	23922.83
514.084	23935.12
514.286	24101.01
514.488	24332.43
514.69	24944.77
514.893	24916.1
515.095	25276.54
515.297	25477.24
515.499	25817.21
515.701	25954.42
515.904	26169.46
516.106	26447.98
516.308	26919.01
516.51	27185.25
516.712	27222.11
516.914	27342.94
517.116	27613.27
517.318	27850.84
517.52	27811.93
517.722	28563.53
517.925	28821.58
518.127	28977.22
518.329	28831.82
518.531	29067.33
518.733	29804.6
518.935	29804.6
519.136	29872.18
519.338	30703.66
519.54	30474.29
519.742	30943.27
519.944	31399.97
520.146	31993.88
520.348	31723.55
520.55	31846.43
520.752	32092.18
520.954	32272.4
521.155	32688.14
521.357	32974.86
521.559	33040.39
521.761	33619.97
521.963	33425.41
522.164	33953.79
522.366	33871.87
522.568	34320.37
522.77	34344.95
522.971	34938.86
523.173	34881.52
523.375	35049.45
523.576	35493.86
523.778	35237.86
523.98	35684.32
524.181	35756
524.383	35891.16
524.584	36360.15
524.786	36390.87
524.988	36362.2
525.189	36528.08
525.391	36868.05
525.592	37433.28
525.794	37115.85
525.995	37400.52
526.197	37402.57
526.398	37158.86
526.6	37953.47
526.801	38283.19
527.003	37920.7
527.204	38213.56
527.406	38188.99
527.607	38229.94
527.808	39114.67
528.01	38279.1
528.211	38668.21
528.412	39655.33
528.614	39286.7
528.815	39280.55
529.016	39567.27
529.218	38916.01
529.419	39305.13
529.62	39579.56
529.822	39493.54
530.023	39780.26
530.224	39858.08
530.425	39782.3
530.626	39509.93
530.828	39823.26
531.029	40699.79
531.23	40140.7
531.431	40241.05
531.632	40066.97
531.833	40206.23
532.035	40228.76
532.236	40363.93
532.437	40750.99
532.638	40368.02
532.839	40519.57
533.04	41219.98
533.241	40380.31
533.442	41027.47
533.643	41187.21
533.844	40656.79
534.045	41478.02
534.246	40724.37
534.447	40628.12
534.648	40927.12
534.849	41324.43
535.05	40843.15
535.251	41385.86
535.451	40888.21
535.652	41557.89
535.853	41054.09
536.054	41037.71
536.255	41351.05
536.456	40761.23
536.657	41955.2
536.857	41236.36
537.058	41031.57
537.259	41422.73
537.46	41314.19
537.66	41318.28
537.861	41426.82
538.062	41418.63
538.263	41498.5
538.463	41230.22
538.664	41379.72
538.865	41758.59
539.065	41619.33
539.266	41234.31
539.466	42162.04
539.667	41095.05
539.868	41840.51
540.068	41559.94
540.269	41410.44
540.469	41926.53
540.67	41529.22
540.87	41465.74
541.071	41543.56
541.271	41633.67
541.472	41764.74
541.672	41525.13
541.873	41361.29
542.073	41488.26
542.274	41961.34
542.474	41719.68
542.675	41803.65
542.875	42207.1
543.075	41883.52
543.276	41463.69
543.476	41815.94
543.676	41854.85
543.877	41901.95
544.077	41815.94
544.277	41148.3
544.478	41564.04
544.678	41744.26
544.878	42047.36
545.078	41678.72
545.279	41901.95
545.479	41650.05
545.679	41906.05
545.879	42104.7
546.079	41832.32
546.28	41844.61
546.48	41303.95
546.68	41865.09
546.88	41885.57
547.08	42000.26
547.28	42121.09
547.48	41424.78
547.68	41858.95
547.88	41449.35
548.081	41881.47
548.281	41770.88
548.481	41463.69
548.681	42069.89
548.881	41369.48
549.081	41807.75
549.28	41643.91
549.48	41918.34
549.68	41734.02
549.88	42129.28
550.08	41701.25
550.28	41561.99
550.48	41697.16
550.68	42041.21
550.88	41553.8
551.08	41615.24
551.279	41588.61
551.479	41205.64
551.679	41346.95
551.879	41611.14
552.079	41922.43
552.278	41435.02
552.478	41537.41
552.678	41744.26
552.878	41918.34
553.077	41404.3
553.277	41131.92
553.477	42125.18
553.676	41566.09
553.876	41893.76
554.076	41222.03
554.275	41543.56
554.475	40959.89
554.674	41783.17
554.874	41795.46
555.074	41467.78
555.273	41676.68
555.473	41514.89
555.672	41230.22
555.872	41258.89
556.071	41408.39
556.271	41461.64
556.47	41396.1
556.67	41152.4
556.869	40976.27
557.068	41074.57
557.268	41058.19
557.467	41486.21
557.667	41168.78
557.866	41250.7
558.065	41291.66
558.265	40578.96
558.464	40902.54
558.663	41410.44
558.863	40789.91
559.062	41627.52
559.261	40558.49
559.461	41207.69
559.66	40462.23
559.859	40800.15
560.058	40712.08
560.258	40867.73
560.457	40406.94
560.656	41025.42
560.855	40566.68
561.054	40959.89
561.253	40613.78
561.453	40681.36
561.652	40867.73
561.851	41006.99
562.05	40345.5
562.249	41320.33
562.448	41064.33
562.647	40996.75
562.846	40460.18
563.045	40957.84
563.244	40318.87
563.443	40734.61
563.642	40066.97
563.841	40775.57
564.04	40470.42
564.239	40843.15
564.438	40282.01
564.637	40628.12
564.836	40331.16
565.035	40243.1
565.234	40662.93
565.432	39976.86
565.631	40214.43
565.83	40726.42
566.029	40333.21
566.228	40152.99
566.427	40208.28
566.625	40499.09
566.824	39743.39
567.023	40486.81
567.222	39880.61
567.42	40226.71
567.619	40144.8
567.818	39581.6
568.016	39821.22
568.215	40193.95
568.414	39614.37
568.612	40206.23
568.811	39538.6
569.01	39800.74
569.208	39579.56
569.407	39788.45
569.605	39405.48
569.804	39821.22
570.002	39546.79
570.201	40148.89
570.4	39348.14
570.598	39165.87
570.797	39452.58
570.995	39387.05
571.193	39116.72
571.392	39585.7
571.59	38741.94
571.789	38887.34
571.987	39217.07
572.186	38834.1
572.384	38985.65
572.582	39243.69
572.781	39092.14
572.979	38617.01
573.177	38875.05
573.376	39073.71
573.574	38758.32
573.772	38926.25
573.971	38418.36
574.169	38346.68
574.367	38397.88
574.565	38612.91
574.763	38059.96
574.962	38279.1
575.16	38174.65
575.358	38307.77
575.556	38250.42
575.754	38125.5
575.952	37920.7
576.151	38268.86
576.349	37900.22
576.547	37707.71
576.745	37826.49
576.943	37674.95
577.141	37535.68
577.339	37922.75
577.537	37521.35
577.735	37556.16
577.933	37300.17
578.131	37230.54
578.329	37236.68
578.527	37363.65
578.725	36833.23
578.923	37267.4
579.121	37240.78
579.319	36984.78
579.516	37380.04
579.714	36773.84
579.912	36890.57
580.11	36603.86
580.308	36747.22
580.506	36628.43
580.704	35979.23
580.901	36374.48
581.099	36779.98
581.297	36224.98
581.495	36036.57
581.692	36464.6
581.89	35745.76
582.088	36016.09
582.285	35745.76
582.483	35936.22
582.681	36083.67
582.878	35639.26
583.076	35366.88
583.274	35764.19
583.471	35080.17
583.669	35213.29
583.866	35051.5
584.064	35358.69
584.262	34770.93
584.459	35160.04
584.657	34908.14
584.854	35352.55
585.052	34566.13
585.249	34748.4
585.447	34736.11
585.644	34291.7
585.841	34525.17
586.039	34756.59
586.236	34293.75
586.434	34070.52
586.631	34127.86
586.828	34244.6
587.026	34326.52
587.223	33806.33
587.42	33988.6
587.618	33611.78
587.815	33429.51
588.012	33595.39
588.21	33480.71
588.407	33699.84
588.604	33247.24
588.801	33026.06
588.999	33175.56
589.196	33173.51
589.393	33079.3
589.59	32948.23
589.787	32870.41
589.984	32587.79
590.182	32630.8
590.379	32931.85
590.576	32735.24
590.773	32856.07
590.97	32249.88
591.167	32442.38
591.364	32145.43
591.561	32276.5
591.758	31825.95
591.955	31922.2
592.152	32612.37
592.349	31932.44
592.546	32331.79
592.743	31918.1
592.94	31359.01
593.137	31639.58
593.334	31508.51
593.531	30896.17
593.727	31600.67
593.924	31182.88
594.121	30973.99
594.318	31438.88
594.515	30787.63
594.712	31211.56
594.908	30857.26
595.105	30887.98
595.302	30234.67
595.499	30801.96
595.696	30734.38
595.892	30396.46
596.089	30392.37
596.286	30435.38
596.482	30343.22
596.679	30310.45
596.876	30173.24
597.072	30117.94
597.269	30122.04
597.466	29927.48
597.662	29804.6
597.859	29792.31
598.055	29700.15
598.252	29298.75
598.448	29265.99
598.645	29079.62
598.841	29163.59
599.038	29059.14
599.234	29294.66
599.431	28794.95
599.627	28829.77
599.824	28682.31
600.02	28551.24
600.217	28848.2
600.413	28559.44
600.609	28657.74
600.806	28272.72
601.002	28848.2
601.198	28301.39
601.395	28155.99
601.591	28035.16
601.787	28080.21
601.984	28149.84
602.18	28143.7
602.376	27736.15
602.572	27615.32
602.769	27617.37
602.965	27521.12
603.161	27449.44
603.357	27523.16
603.553	27318.37
603.75	27711.58
603.946	27091.04
604.142	27076.71
604.338	26663.02
604.534	27138.15
604.73	26652.78
604.926	26450.03
605.122	26992.74
605.318	26826.85
605.514	26691.69
605.71	26288.24
605.906	26558.57
606.102	26384.49
606.298	26323.05
606.494	26148.98
606.69	26321.01
606.886	26175.6
607.082	25657.46
607.278	25979
607.474	25753.72
607.67	26005.62
607.866	25417.85
608.062	25974.9
608.257	25665.66
608.453	25845.88
608.649	25665.66
608.845	25325.69
609.041	25561.21
609.236	25731.19
609.432	25352.32
609.628	25241.73
609.824	25380.99
610.019	25120.9
610.215	25266.3
610.411	25467
610.606	24699.02
610.802	25147.52
610.998	24715.4
611.193	25079.94
611.389	24565.9
611.584	24871.04
611.78	24627.34
611.976	24774.79
612.171	24508.55
612.367	24578.18
612.562	24549.51
612.758	24133.78
612.953	24391.82
613.149	24633.48
613.344	24113.3
613.539	24686.73
613.735	24133.78
613.93	24377.48
614.126	24182.93
614.321	24336.52
614.517	24340.62
614.712	24240.27
614.907	23883.92
615.103	24182.93
615.298	23711.89
615.493	24367.24
615.688	23687.32
615.884	24043.67
616.079	23621.78
616.274	23822.48
616.47	23699.61
616.665	23654.55
616.86	23632.02
617.055	23249.05
617.25	23265.44
617.445	23672.98
617.641	23019.68
617.836	23271.58
618.031	22999.2
618.226	23298.2
618.421	22954.15
618.616	23089.31
618.811	23040.16
619.006	23206.05
619.201	22388.91
619.396	22782.12
619.591	22472.87
619.786	22810.79
619.981	22458.54
620.176	22343.85
620.371	22016.18
620.566	22018.22
620.761	22032.56
620.956	22433.96
621.151	21977.26
621.346	21866.67
621.541	21575.86
621.735	21655.73
621.93	21498.04
622.125	21680.31
622.32	21129.41
622.515	21332.15
622.709	21278.91
622.904	20975.81
623.099	20891.84
623.294	20873.41
623.488	20394.18
623.683	20453.58
623.878	20388.04
624.072	20443.34
624.267	20478.15
624.462	19970.26
624.656	19804.37
624.851	19921.1
625.046	19947.73
625.24	19900.62
625.435	19501.27
625.629	19501.27
625.824	19511.51
626.018	19493.08
626.213	18872.54
626.407	19398.87
626.602	19097.82
626.796	19230.94
626.991	19026.14
627.185	18796.77
627.38	18612.45
627.574	18637.03
627.768	18413.8
627.963	18354.41
628.157	18063.6
628.352	18335.98
628.546	17928.43
628.74	18075.88
628.935	17828.08
629.129	17787.12
629.323	17674.48
629.517	17883.38
629.712	17613.04
629.906	17408.25
630.1	17131.77
630.294	17223.93
630.489	17144.06
630.683	17291.51
630.877	17025.28
631.071	16699.65
631.265	16890.11
631.459	16537.86
631.653	16705.79
631.848	16548.1
632.042	16490.76
632.236	16359.69
632.43	16492.8
632.624	16085.26
632.818	16128.27
633.012	15923.47
633.206	16107.79
633.4	16068.87
633.594	15771.92
633.788	15898.89
633.982	15810.83
634.176	15499.54
634.369	15505.68
634.563	15485.2
634.757	15448.34
634.951	15329.56
635.145	15341.85
635.339	15231.26
635.533	15018.27
635.726	15321.37
635.92	14659.87
636.114	14737.7
636.308	14686.5
636.501	14811.42
636.695	14686.5
636.889	14438.69
637.083	14467.36
637.276	14477.6
637.47	14504.23
637.664	14324.01
637.857	14108.97
638.051	14301.48
638.244	14164.26
638.438	13840.68
638.632	13771.05
638.825	13771.05
639.019	13961.51
639.212	13490.48
639.406	13660.46
639.599	13465.91
639.793	13576.5
639.986	13330.74
640.18	13533.49
640.373	13240.63
640.567	13160.76
640.76	13214.01
640.954	13103.42
641.147	12851.52
641.34	12861.76
641.534	12880.19
641.727	12650.81
641.92	12650.81
642.114	12605.76
642.307	12593.47
642.5	12446.02
642.694	12136.77
642.887	12220.74
643.08	12394.82
643.273	12247.37
643.467	12282.18
643.66	12007.75
643.853	11942.22
644.046	11780.43
644.239	11655.5
644.432	11884.87
644.626	11680.08
644.819	11757.9
645.012	11606.35
645.205	11657.55
645.398	11585.87
645.591	11620.69
645.784	11342.16
645.977	11393.36
646.17	11491.66
646.363	11465.04
646.556	11145.56
646.749	11163.99
646.942	11276.63
647.135	11053.4
647.328	10975.58
647.521	10871.13
647.714	10832.22
647.907	10754.4
648.099	10590.56
648.292	10563.93
648.485	10654.05
648.678	10246.5
648.871	10350.95
649.064	10471.78
649.256	10441.06
649.449	10297.7
649.642	10174.82
649.835	9980.26
650.027	9900.39
650.22	10082.66
650.413	10045.8
650.605	9955.69
650.798	9920.87
650.991	9724.27
651.183	9628.01
651.376	9800.04
651.568	9572.72
651.761	9398.64
651.954	9361.78
652.146	9369.97
652.339	9337.2
652.531	9197.94
652.724	9255.28
652.916	9089.4
653.109	9144.69
653.301	9382.26
653.494	9138.55
653.686	8987
653.879	8903.03
654.071	8964.47
654.263	8855.93
654.456	8802.68
654.648	8688
654.84	8753.53
655.033	8544.64
655.225	8202.63
655.417	8388.99
655.61	8688
655.802	8561.02
655.994	8325.5
656.186	8364.42
656.379	8415.62
656.571	8147.33
656.763	8145.28
656.955	8128.9
657.148	8243.59
657.34	8061.32
657.532	7788.94
657.724	7803.27
657.916	7930.25
658.108	7858.57
658.3	7833.99
658.492	7760.27
658.684	7637.39
658.876	7711.11
659.068	7780.75
659.26	7586.19
659.452	7604.62
659.644	7463.31
659.836	7414.16
660.028	7354.77
660.22	7096.72
660.412	7166.35
660.604	7141.78
660.796	7215.51
660.988	7152.02
661.18	7100.82
661.372	7014.8
661.563	7051.67
661.755	6715.8
661.947	6912.41
662.139	6738.33
662.331	6840.73
662.522	6744.47
662.714	6678.94
662.906	6629.79
663.097	6511
663.289	6617.5
663.481	6349.22
663.673	6453.66
663.864	6490.52
664.056	6336.93
664.247	6308.26
664.439	6300.06
664.631	6255.01
664.822	6330.78
665.014	6187.43
665.205	6093.22
665.397	6087.08
665.588	6050.21
665.78	5917.09
665.971	6060.45
666.163	5992.87
666.354	5847.46
666.546	6005.16
666.737	5738.92
666.929	5558.7
667.12	5999.01
667.311	5724.58
667.503	5548.46
667.694	5507.5
667.885	5515.69
668.077	5595.56
668.268	5624.23
668.459	5548.46
668.651	5415.34
668.842	5464.49
669.033	5333.42
669.224	5306.8
669.416	5476.78
669.607	5441.96
669.798	5220.78
669.989	5415.34
670.18	5190.06
670.371	5296.56
670.563	5136.82
670.754	5239.22
670.945	5183.92
671.136	5030.32
671.327	4989.36
671.518	5050.8
671.709	4983.22
671.9	5011.89
672.091	4880.82
672.282	4817.33
672.473	4882.87
672.664	4829.62
672.855	4690.36
673.046	4792.76
673.237	4747.7
673.428	4729.27
673.619	4645.31
673.809	4792.76
674	4729.27
674.191	4604.35
674.382	4536.76
674.573	4655.54
674.764	4637.11
674.954	4637.11
675.145	4577.72
675.336	4512.19
675.527	4393.4
675.717	4495.8
675.908	4469.18
676.099	4364.73
676.289	4336.06
676.48	4395.45
676.671	4385.21
676.861	4344.25
677.052	4370.88
677.243	4200.9
677.433	4172.22
677.624	4090.31
677.814	4096.45
678.005	4305.34
678.195	4100.55
678.386	4166.08
678.576	4133.31
678.767	4080.07
678.957	4067.78
679.148	4192.7
679.338	4010.43
679.529	4190.66
679.719	4110.79
679.909	4053.44
680.1	4006.34
680.29	3949
680.481	3912.13
680.671	3916.23
680.861	3959.24
681.052	3936.71
681.242	3805.64
681.432	4231.62
681.622	3805.64
681.813	3834.31
682.003	3817.93
682.193	3715.53
682.383	3776.97
682.573	3752.39
682.764	3869.12
682.954	3750.34
683.144	3770.82
683.334	3729.86
683.524	3807.69
683.714	3938.76
683.904	3852.74
684.094	3676.62
684.284	3742.15
684.474	3750.34
684.664	3738.05
684.854	3729.86
685.044	3703.24
685.234	3592.65
685.424	3506.63
685.614	3641.8
685.804	3662.28
685.994	3604.94
686.184	3539.4
686.374	3516.87
686.564	3516.87
686.753	3672.52
686.943	3496.39
687.133	3531.21
687.323	3652.04
687.513	3613.13
687.702	3590.6
687.892	3590.6
688.082	3629.51
688.272	3582.41
688.461	3400.14
688.651	3467.72
688.841	3383.76
689.03	3445.2
689.22	3350.99
689.41	3447.24
689.599	3463.63
689.789	3494.35
689.979	3305.93
690.168	3441.1
690.358	3250.64
690.547	3289.55
690.737	3506.63
690.926	3369.42
691.116	3258.83
691.305	3252.69
691.495	3342.8
691.684	3373.52
691.874	3260.88
692.063	3322.32
692.252	3287.5
692.442	3238.35
692.631	3238.35
692.82	3256.78
693.01	3166.67
693.199	3246.54
693.388	3209.68
693.578	3084.75
693.767	3181.01
693.956	3228.11
694.146	3140.05
694.335	3207.63
694.524	3105.23
694.713	3199.44
694.902	3107.28
695.092	3086.8
695.281	3117.52
695.47	2974.16
695.659	3045.84
695.848	2990.55
696.037	3105.23
696.226	3060.18
696.415	3021.27
696.604	3008.98
696.793	2970.07
696.982	3004.88
697.171	3070.42
697.36	2908.63
697.549	2845.14
697.738	2939.35
697.927	2910.68
698.116	2943.44
698.305	2834.9
698.494	2849.24
698.683	2777.56
698.872	2853.33
699.061	2800.09
699.25	2664.92
699.438	2740.69
699.627	2853.33
699.816	2791.89
700.005	2695.64
700.193	2752.98
700.382	2808.28
700.571	2707.93
700.76	2597.34
700.948	2626.01
701.137	2693.59
701.326	2619.86
701.514	2783.7
701.703	2654.68
701.892	2548.19
702.08	2746.84
702.269	2666.97
702.457	2626.01
702.646	2595.29
702.834	2566.62
703.023	2623.96
703.212	2410.97
703.4	2470.36
703.589	2503.13
703.777	2499.03
703.965	2380.25
704.154	2501.08
704.342	2425.31
704.531	2402.78
704.719	2386.4
704.907	2433.5
705.096	2470.36
705.284	2406.88
705.472	2316.76
705.661	2343.39
705.849	2347.48
706.037	2388.44
706.226	2372.06
706.414	2380.25
706.602	2347.48
706.79	2390.49
706.979	2267.61
707.167	2255.33
707.355	2222.56
707.543	2296.28
707.731	2277.85
707.919	2288.09
708.107	2189.79
708.296	2124.26
708.484	2017.76
708.672	2277.85
708.86	2114.02
709.048	2132.45
709.236	2163.17
709.424	2040.29
709.612	2167.26
709.8	2128.35
709.988	2118.11
710.176	2150.88
710.364	2075.1
710.551	2083.3
710.739	2114.02
710.927	2079.2
711.115	2005.47
711.303	1964.51
711.491	2093.54
711.679	1935.84
711.866	2073.06
712.054	1909.22
712.242	1997.28
712.43	2005.47
712.617	1890.79
712.805	1888.74
712.993	1929.7
713.181	1984.99
713.368	1839.59
713.556	1839.59
713.744	1958.37
713.931	1870.31
714.119	1815.01
714.306	1931.75
714.494	1798.63
714.682	1917.41
714.869	1712.61
715.057	1751.53
715.244	1833.44
715.432	1792.48
715.619	1839.59
715.807	1708.52
715.994	1714.66
716.182	1729
716.369	1663.46
716.556	1739.24
716.744	1624.55
716.931	1774.05
717.119	1622.5
717.306	1679.85
717.493	1667.56
717.681	1608.17
717.868	1665.51
718.055	1690.09
718.242	1655.27
718.43	1602.02
718.617	1614.31
718.804	1573.35
718.991	1614.31
719.179	1554.92
719.366	1616.36
719.553	1493.48
719.74	1532.39
719.927	1538.54
720.114	1530.34
720.301	1542.63
720.488	1518.06
720.676	1569.26
720.863	1516.01
721.05	1499.63
721.237	1522.15
721.424	1501.67
721.611	1483.24
721.798	1429.99
721.985	1452.52
722.172	1446.38
722.358	1413.61
722.545	1380.84
722.732	1458.67
722.919	1432.04
723.106	1303.02
723.293	1397.23
723.48	1487.34
723.667	1432.04
723.853	1368.56
724.04	1337.84
724.227	1454.57
724.414	1300.97
724.6	1350.12
724.787	1278.44
724.974	1294.83
725.161	1249.77
725.347	1305.07
725.534	1290.73
725.72	1327.6
725.907	1348.08
726.094	1294.83
726.28	1411.56
726.467	1253.87
726.653	1296.88
726.84	1305.07
727.027	1356.27
727.213	1331.69
727.4	1237.49
727.586	1202.67
727.773	1239.53
727.959	1255.92
728.145	1262.06
728.332	1280.49
728.518	1243.63
728.705	1176.05
728.891	1085.94
729.077	1124.85
729.264	1249.77
729.45	1167.85
729.636	1126.89
729.823	1079.79
730.009	1094.13
730.195	1221.1
730.382	1065.46
730.568	1120.75
730.754	1114.61
730.94	1165.81
731.126	1040.88
731.313	1077.74
731.499	1083.89
731.685	1141.23
731.871	1085.94
732.057	1040.88
732.243	1073.65
732.429	973.3
732.615	1120.75
732.801	979.44
732.987	1024.5
733.173	1055.22
733.359	1024.5
733.545	1006.06
733.731	989.68
733.917	1075.7
734.103	1020.4
734.289	1087.98
734.475	958.96
734.661	1022.45
734.847	977.39
735.033	967.15
735.219	1001.97
735.404	1018.35
735.59	920.05
735.776	997.87
735.962	934.39
736.148	1065.46
736.333	979.44
736.519	942.58
736.705	907.76
736.89	958.96
737.076	991.73
737.262	893.43
737.447	924.15
737.633	936.43
737.819	909.81
738.004	926.19
738.19	897.52
738.375	915.95
738.561	963.06
738.747	883.19
738.932	811.51
739.118	862.71
739.303	825.84
739.489	895.47
739.674	825.84
739.859	838.13
740.045	848.37
740.23	795.12
740.416	922.1
740.601	809.46
740.786	786.93
740.972	877.04
741.157	807.41
741.342	846.32
741.528	768.5
741.713	911.86
741.898	827.89
742.084	918
742.269	819.7
742.454	809.46
742.639	774.64
742.824	797.17
743.01	713.21
743.195	774.64
743.38	756.21
743.565	823.8
743.75	700.92
743.935	766.45
744.12	733.68
744.305	778.74
744.49	735.73
744.675	729.59
744.86	711.16
745.045	803.32
745.23	707.06
745.415	758.26
745.6	655.86
745.785	664.05
745.97	774.64
746.155	674.29
746.34	647.67
746.525	745.97
746.71	637.43
746.895	721.4
747.079	725.49
747.264	707.06
747.449	750.07
747.634	721.4
747.819	727.54
748.003	680.44
748.188	639.48
748.373	702.97
748.557	631.29
748.742	612.85
748.927	537.08
749.111	604.66
749.296	666.1
749.481	621.05
749.665	614.9
749.85	606.71
750.034	623.09
750.219	598.52
750.404	553.46
750.588	573.94
750.773	526.84
750.957	586.23
751.141	573.94
751.326	573.94
751.51	569.85
751.695	504.31
751.879	557.56
752.064	530.94
752.248	551.42
752.432	606.71
752.617	498.17
752.801	608.76
752.985	563.7
753.17	547.32
753.354	619
753.538	578.04
753.722	539.13
753.907	530.94
754.091	512.5
754.275	561.66
754.459	434.68
754.643	530.94
754.828	549.37
755.012	518.65
755.196	434.68
755.38	582.14
755.564	545.27
755.748	530.94
755.932	547.32
756.116	492.02
756.3	438.78
756.484	459.26
756.668	475.64
756.852	520.7
757.036	516.6
757.22	406.01
757.404	477.69
757.588	539.13
757.772	481.78
757.956	520.7
758.14	459.26
758.323	475.64
758.507	502.26
758.691	414.2
758.875	465.4
759.059	422.39
759.242	383.48
759.426	502.26
759.61	508.41
759.794	416.25
759.977	375.29
760.161	401.91
760.345	426.49
760.528	444.92
760.712	455.16
760.895	406.01
761.079	434.68
761.263	373.24
761.446	459.26
761.63	389.63
761.813	526.84
761.997	451.07
762.18	363
762.364	332.28
762.547	385.53
762.731	457.21
762.914	436.73
763.098	426.49
763.281	459.26
763.464	475.64
763.648	451.07
763.831	467.45
764.015	350.71
764.198	442.87
764.381	463.35
764.564	348.67
764.748	426.49
764.931	375.29
765.114	420.35
765.297	473.59
765.481	436.73
765.664	377.34
765.847	342.52
766.03	410.11
766.213	381.43
766.397	397.82
766.58	395.77
766.763	426.49
766.946	414.2
767.129	401.91
767.312	363
767.495	322.04
767.678	393.72
767.861	449.02
768.044	373.24
768.227	502.26
768.41	365.05
768.593	434.68
768.776	336.38
768.959	283.13
769.142	354.81
769.324	317.95
769.507	416.25
769.69	350.71
769.873	303.61
770.056	340.47
770.239	360.95
770.421	408.06
770.604	320
770.787	342.52
770.97	416.25
771.152	438.78
771.335	248.32
771.518	274.94
771.7	363
771.883	287.23
772.066	377.34
772.248	293.37
772.431	373.24
772.613	348.67
772.796	369.15
772.978	334.33
773.161	360.95
773.343	377.34
773.526	367.1
773.708	291.32
773.891	322.04
774.073	311.8
774.256	352.76
774.438	389.63
774.621	313.85
774.803	338.43
774.985	303.61
775.168	305.66
775.35	354.81
775.532	293.37
775.715	188.93
775.897	317.95
776.079	350.71
776.261	410.11
776.444	320
776.626	289.28
776.808	250.36
776.99	303.61
777.173	340.47
777.355	250.36
777.537	215.55
777.719	248.32
777.901	264.7
778.083	248.32
778.265	258.56
778.447	250.36
778.629	295.42
778.811	246.27
778.993	264.7
779.175	291.32
779.357	328.19
779.539	248.32
779.721	315.9
779.903	289.28
780.085	168.45
780.267	227.84
780.449	330.23
780.631	270.84
780.812	242.17
780.994	274.94
781.176	246.27
781.358	203.26
781.54	268.8
781.721	242.17
781.903	291.32
782.085	184.83
782.267	281.08
782.448	221.69
782.63	256.51
782.812	317.95
782.993	268.8
783.175	285.18
783.357	246.27
783.538	360.95
783.72	236.03
783.901	274.94
784.083	227.84
784.264	240.12
784.446	256.51
784.627	229.88
784.809	188.93
784.99	227.84
785.172	236.03
785.353	217.6
785.535	119.29
785.716	264.7
785.897	207.36
786.079	168.45
786.26	221.69
786.441	225.79
786.623	252.41
786.804	133.63
786.985	229.88
787.167	233.98
787.348	195.07
787.529	178.69
787.71	170.49
787.891	154.11
788.073	168.45
788.254	117.25
788.435	158.21
788.616	162.3
788.797	186.88
788.978	250.36
789.159	180.73
789.34	188.93
789.522	135.68
789.703	262.65
789.884	242.17
790.065	178.69
790.246	213.5
790.427	201.21
790.607	145.92
790.788	186.88
790.969	123.39
791.15	221.69
791.331	182.78
791.512	215.55
791.693	107.01
791.874	166.4
792.054	182.78
792.235	240.12
792.416	147.97
792.597	213.5
792.778	137.73
792.958	203.26
793.139	98.81
793.32	174.59
793.5	145.92
793.681	195.07
793.862	160.25
794.042	119.29
794.223	176.64
794.404	158.21
794.584	141.82
794.765	109.05
794.945	147.97
795.126	86.53
795.306	119.29
795.487	240.12
795.667	82.43
795.848	207.36
796.028	113.15
796.209	94.72
796.389	125.44
796.57	133.63
796.75	129.53
796.93	68.09
797.111	121.34
797.291	78.33
797.471	113.15
797.652	139.77
797.832	107.01
798.012	174.59
798.192	168.45
798.373	107.01
798.553	111.1
798.733	162.3
798.913	166.4
799.093	70.14
799.274	92.67
799.454	115.2
799.634	193.02
799.814	223.74
799.994	143.87
800.174	168.45
800.354	139.77
800.534	145.92
800.714	143.87
800.894	139.77
801.074	125.44
801.254	154.11
801.434	133.63
801.614	141.82
801.794	123.39
801.974	287.23
802.154	51.71
802.334	109.05
802.514	115.2
802.693	88.57
802.873	205.31
803.053	158.21
803.233	113.15
803.413	135.68
803.592	111.1
803.772	107.01
803.952	160.25
804.131	102.91
804.311	125.44
804.491	70.14
804.67	150.01
804.85	90.62
805.03	111.1
805.209	68.09
805.389	57.86
805.568	102.91
805.748	117.25
805.928	129.53
806.107	82.43
806.287	94.72
806.466	31.23
806.646	84.48
806.825	123.39
807.004	76.29
807.184	217.6
807.363	84.48
807.543	111.1
807.722	104.96
807.901	129.53
808.081	156.16
808.26	-13.82
808.439	82.43
808.619	74.24
808.798	115.2
808.977	90.62
809.156	74.24
809.336	129.53
809.515	115.2
809.694	74.24
809.873	92.67
810.052	141.82
810.231	131.58
810.411	94.72
810.59	100.86
810.769	16.9
810.948	72.19
811.127	90.62
811.306	92.67
811.485	131.58
811.664	109.05
811.843	139.77
812.022	51.71
812.201	82.43
812.38	92.67
812.559	113.15
812.737	66.05
812.916	94.72
813.095	123.39
813.274	61.95
813.453	90.62
813.632	45.57
813.811	33.28
813.989	86.53
814.168	70.14
814.347	154.11
814.526	41.47
814.704	61.95
814.883	82.43
815.062	70.14
815.24	41.47
815.419	92.67
815.598	33.28
815.776	8.7
815.955	29.18
816.133	49.66
816.312	35.33
816.49	43.52
816.669	117.25
816.847	57.86
817.026	55.81
817.204	125.44
817.383	113.15
817.561	45.57
817.74	94.72
817.918	74.24
818.097	16.9
818.275	45.57
818.453	107.01
818.632	47.62
818.81	98.81
818.988	82.43
819.167	80.38
819.345	72.19
819.523	90.62
819.701	59.9
819.879	68.09
820.058	68.09
820.236	107.01
820.414	39.42
820.592	139.77
820.77	143.87
820.948	66.05
821.127	74.24
821.305	94.72
821.483	59.9
821.661	18.94
821.839	53.76
822.017	10.75
822.195	0.51
822.373	86.53
822.551	72.19
822.729	31.23
822.907	92.67
823.085	74.24
823.262	35.33
823.44	47.62
823.618	53.76
823.796	53.76
823.974	53.76
824.152	94.72
824.329	66.05
824.507	78.33
824.685	49.66
824.863	80.38
825.04	94.72
825.218	27.14
825.396	45.57
825.574	51.71
825.751	47.62
825.929	51.71
826.107	16.9
826.284	92.67
826.462	55.81
826.639	102.91
826.817	6.66
826.994	74.24
827.172	47.62
827.349	141.82
827.527	-11.78
827.704	115.2
827.882	41.47
828.059	64
828.237	61.95
828.414	70.14
828.591	-52.74
828.769	37.38
828.946	100.86
829.124	33.28
829.301	-15.87
829.478	0.51
829.655	35.33
829.833	80.38
830.01	-67.07
830.187	-7.68
830.364	115.2
830.542	51.71
830.719	119.29
830.896	51.71
831.073	61.95
831.25	150.01
831.427	-13.82
831.604	61.95
831.782	0.51
831.959	57.86
832.136	96.77
832.313	51.71
832.49	33.28
832.667	41.47
832.844	109.05
833.021	57.86
833.198	8.7
833.374	57.86
833.551	49.66
833.728	23.04
833.905	47.62
834.082	16.9
834.259	70.14
834.436	-5.63
834.612	49.66
834.789	61.95
834.966	27.14
835.143	98.81
835.319	70.14
835.496	37.38
835.673	-3.58
835.85	45.57
836.026	27.14
836.203	82.43
836.38	70.14
836.556	33.28
836.733	14.85
836.909	70.14
837.086	53.76
837.262	-22.02
837.439	12.8
837.616	39.42
837.792	59.9
837.968	64
838.145	-11.78
838.321	104.96
838.498	-5.63
838.674	57.86
838.851	147.97
839.027	29.18
839.203	-17.92
839.38	49.66
839.556	68.09
839.732	74.24
839.909	82.43
840.085	31.23
840.261	-15.87
840.437	86.53
840.614	61.95
840.79	-17.92
840.966	8.7
841.142	-15.87
841.318	-5.63
841.494	59.9
841.671	-9.73
841.847	94.72
842.023	84.48
842.199	-40.45
842.375	53.76
842.551	80.38
842.727	33.28
842.903	37.38
843.079	23.04
843.255	-22.02
843.431	27.14
843.607	33.28
843.783	-13.82
843.959	59.9
844.134	70.14
844.31	55.81
844.486	100.86
844.662	-7.68
844.838	4.61
845.013	117.25
845.189	72.19
845.365	82.43
845.541	-5.63
845.716	20.99
845.892	115.2
846.068	33.28
846.244	20.99
846.419	39.42
846.595	23.04
846.77	-83.45
846.946	68.09
847.122	49.66
847.297	41.47
847.473	49.66
847.648	14.85
847.824	45.57
847.999	33.28
848.175	43.52
848.35	31.23
848.526	33.28
848.701	43.52
848.876	14.85
849.052	68.09
849.227	41.47
849.403	33.28
849.578	49.66
849.753	31.23
849.929	33.28
850.104	18.94
850.279	82.43
850.454	68.09
850.63	16.9
850.805	113.15
850.98	4.61
851.155	-62.98
851.33	6.66
851.505	-1.54
851.681	-44.54
851.856	31.23
852.031	6.66
852.206	27.14
852.381	-32.26
852.556	78.33
852.731	64
852.906	37.38
853.081	23.04
853.256	14.85
853.431	-13.82
853.606	6.66
853.781	4.61
853.956	-19.97
854.131	47.62
854.305	18.94
854.48	18.94
854.655	88.57
854.83	16.9
855.005	27.14
855.18	51.71
855.354	59.9
855.529	74.24
855.704	39.42
855.879	45.57
856.053	20.99
856.228	82.43
856.403	37.38
856.577	66.05
856.752	35.33
856.926	2.56
857.101	-58.88
857.276	-48.64
857.45	-19.97
857.625	29.18
857.799	-7.68
857.974	23.04
858.148	76.29
858.323	31.23
858.497	-17.92
858.672	154.11
858.846	-17.92
859.02	25.09
859.195	8.7
859.369	-3.58
859.543	35.33
859.718	29.18
859.892	61.95
860.066	86.53
860.241	-1.54
860.415	39.42
860.589	-3.58
860.763	29.18
860.938	80.38
861.112	23.04
861.286	-67.07
861.46	80.38
861.634	-17.92
861.808	33.28
861.982	70.14
862.157	-73.21
862.331	66.05
862.505	-19.97
862.679	-32.26
862.853	18.94
863.027	14.85
863.201	51.71
863.375	70.14
863.549	16.9
863.722	31.23
863.896	51.71
864.07	-5.63
864.244	-13.82
864.418	-44.54
864.592	53.76
864.766	-54.78
864.939	-30.21
865.113	-26.11
865.287	33.28
865.461	-30.21
865.634	88.57
865.808	-19.97
865.982	-3.58
866.156	37.38
866.329	-52.74
866.503	37.38
866.676	8.7
866.85	20.99
867.024	61.95
867.197	41.47
867.371	25.09
867.544	25.09
867.718	16.9
867.891	47.62
868.065	16.9
868.238	41.47
868.412	49.66
868.585	27.14
868.759	-1.54
868.932	-7.68
869.105	74.24
869.279	57.86
869.452	23.04
869.625	20.99
869.799	88.57
869.972	-19.97
870.145	12.8
870.319	29.18
870.492	-13.82
870.665	23.04
870.838	72.19
871.011	29.18
871.185	-62.98
871.358	-1.54
871.531	70.14
871.704	55.81
871.877	-13.82
872.05	100.86
872.223	12.8
872.396	49.66
872.569	6.66
872.742	-36.35
872.915	12.8
873.088	-3.58
873.261	12.8
873.434	6.66
873.607	20.99
873.78	33.28
873.953	29.18
874.126	-1.54
874.299	39.42
874.471	-19.97
874.644	4.61
874.817	-15.87
874.99	47.62
875.163	10.75
875.335	29.18
875.508	43.52
875.681	49.66
875.853	-13.82
876.026	4.61
876.199	2.56
876.371	8.7
876.544	27.14
876.717	-19.97
876.889	45.57
877.062	-1.54
877.234	23.04
877.407	-7.68
877.579	-7.68
877.752	6.66
877.924	-116.22
878.097	23.04
878.269	-40.45
878.442	33.28
878.614	78.33
878.786	51.71
878.959	8.7
879.131	-44.54
879.303	-22.02
879.476	0.51
879.648	10.75
879.82	39.42
879.993	39.42
880.165	-79.36
880.337	-69.12
880.509	51.71
880.681	66.05
880.854	37.38
881.026	14.85
881.198	64
881.37	16.9
881.542	45.57
881.714	-48.64
881.886	68.09
882.058	-13.82
882.23	12.8
882.402	25.09
882.574	96.77
882.746	18.94
882.918	-5.63
883.09	33.28
883.262	-42.5
883.434	25.09
883.606	6.66
883.778	-30.21
883.95	80.38
884.122	35.33
884.293	4.61
884.465	53.76
884.637	70.14
884.809	-40.45
884.98	49.66
885.152	25.09
885.324	18.94
885.496	16.9
885.667	-46.59
885.839	37.38
886.011	-15.87
886.182	25.09
886.354	64
886.525	51.71
886.697	41.47
886.869	-5.63
887.04	64
887.212	2.56
887.383	88.57
887.555	-3.58
887.726	-11.78
887.897	41.47
888.069	16.9
888.24	8.7
888.412	90.62
888.583	-32.26
888.754	61.95
888.926	31.23
889.097	74.24
889.268	37.38
889.44	20.99
889.611	-32.26
889.782	-67.07
889.953	-28.16
890.125	6.66
890.296	12.8
890.467	25.09
890.638	31.23
890.809	-30.21
890.98	-15.87
891.151	37.38
891.323	14.85
891.494	-13.82
891.665	45.57
891.836	37.38
892.007	-5.63
892.178	-71.17
892.349	-17.92
892.52	-11.78
892.691	-15.87
892.862	-7.68
893.032	4.61
893.203	-22.02
893.374	-44.54
893.545	84.48
893.716	2.56
893.887	-3.58
894.057	-7.68
894.228	35.33
894.399	43.52
894.57	12.8
894.74	23.04
894.911	-36.35
895.082	-50.69
895.253	57.86
895.423	27.14
895.594	41.47
895.764	23.04
895.935	35.33
896.106	35.33
896.276	25.09
896.447	59.9
896.617	-11.78
896.788	27.14
896.958	18.94
897.129	-19.97
897.299	43.52
897.47	33.28
897.64	35.33
897.81	18.94
897.981	23.04
898.151	-3.58
898.322	6.66
898.492	-13.82
898.662	8.7
898.832	-62.98
899.003	10.75
899.173	59.9
899.343	94.72
899.513	-30.21
