Data from USB4F104151__102__12-55-00-326.txt Node

Date: Fri Mar 14 12:55:00 EDT 2025
User: louis
Spectrometer: USB4F10415
Trigger mode: 4
Integration Time (sec): 1.000000E-2
Scans to average: 1
Electric dark correction enabled: true
Nonlinearity correction enabled: false
Boxcar width: 0
XAxis mode: Wavelengths
Number of Pixels in Spectrum: 3648
>>>>>Begin Spectral Data<<<<<
178.204	-40.96
178.424	-40.96
178.644	-40.96
178.864	-90.11
179.084	-110.59
179.304	-49.15
179.524	-16.38
179.744	10.24
179.964	-2.05
180.184	-4.1
180.404	-8.19
180.624	71.68
180.844	12.29
181.064	16.38
181.283	40.96
181.503	-32.77
181.723	-38.91
181.943	2.05
182.163	-14.34
182.383	-43.01
182.602	-6.14
182.822	51.2
183.042	-16.38
183.262	-16.38
183.482	-6.14
183.701	-55.3
183.921	53.25
184.141	26.62
184.361	-2.05
184.58	51.2
184.8	-38.91
185.02	-77.82
185.239	-2.05
185.459	40.96
185.679	2.05
185.898	14.34
186.118	-32.77
186.338	12.29
186.557	-47.1
186.777	2.05
186.997	32.77
187.216	-4.1
187.436	57.34
187.655	73.73
187.875	4.1
188.095	-14.34
188.314	-49.15
188.534	-0
188.753	-8.19
188.973	20.48
189.192	59.39
189.412	2.05
189.631	10.24
189.851	24.58
190.07	8.19
190.29	-0
190.509	16.38
190.729	-12.29
190.948	4.1
191.168	-2.05
191.387	-12.29
191.607	-88.06
191.826	-57.34
192.045	-2.05
192.265	-24.58
192.484	65.53
192.704	-32.77
192.923	-14.34
193.142	22.53
193.362	-28.67
193.581	43.01
193.8	22.53
194.02	-28.67
194.239	-53.25
194.458	-16.38
194.678	53.25
194.897	-61.44
195.116	18.43
195.335	47.1
195.555	-14.34
195.774	6.14
195.993	22.53
196.212	12.29
196.432	26.62
196.651	-36.86
196.87	-57.34
197.089	-55.3
197.308	-24.58
197.528	32.77
197.747	-96.25
197.966	-16.38
198.185	-38.91
198.404	63.49
198.623	40.96
198.842	-73.73
199.062	-24.58
199.281	-24.58
199.5	4.1
199.719	-8.19
199.938	24.58
200.157	34.82
200.376	59.39
200.595	30.72
200.814	-6.14
201.033	-8.19
201.252	49.15
201.471	-77.82
201.69	18.43
201.909	-16.38
202.128	-16.38
202.347	-32.77
202.566	-16.38
202.785	-8.19
203.004	79.87
203.223	45.06
203.442	-0
203.661	20.48
203.879	-55.3
204.098	-0
204.317	-30.72
204.536	-10.24
204.755	-57.34
204.974	45.06
205.193	-0
205.411	-12.29
205.63	28.67
205.849	38.91
206.068	-32.77
206.287	-38.91
206.505	16.38
206.724	-49.15
206.943	90.11
207.162	4.1
207.381	18.43
207.599	30.72
207.818	6.14
208.037	28.67
208.255	8.19
208.474	30.72
208.693	-36.86
208.911	-28.67
209.13	2.05
209.349	-6.14
209.567	22.53
209.786	-14.34
210.005	57.34
210.223	57.34
210.442	-12.29
210.661	-32.77
210.879	4.1
211.098	67.58
211.316	32.77
211.535	57.34
211.753	14.34
211.972	57.34
212.191	-47.1
212.409	-61.44
212.628	-28.67
212.846	14.34
213.065	22.53
213.283	-47.1
213.502	2.05
213.72	-57.34
213.938	-81.92
214.157	4.1
214.375	16.38
214.594	-0
214.812	-8.19
215.031	2.05
215.249	-49.15
215.467	67.58
215.686	-63.49
215.904	-18.43
216.122	-40.96
216.341	20.48
216.559	-16.38
216.778	-0
216.996	43.01
217.214	-18.43
217.432	14.34
217.651	2.05
217.869	-8.19
218.087	16.38
218.306	32.77
218.524	81.92
218.742	-45.06
218.96	51.2
219.179	6.14
219.397	10.24
219.615	32.77
219.833	10.24
220.051	36.86
220.27	32.77
220.488	71.68
220.706	-0
220.924	-88.06
221.142	-18.43
221.36	-6.14
221.578	45.06
221.796	47.1
222.015	-45.06
222.233	-8.19
222.451	-12.29
222.669	-4.1
222.887	-10.24
223.105	-32.77
223.323	-22.53
223.541	-30.72
223.759	8.19
223.977	28.67
224.195	49.15
224.413	12.29
224.631	-4.1
224.849	-45.06
225.067	-2.05
225.285	-28.67
225.503	-45.06
225.721	14.34
225.939	-22.53
226.157	-16.38
226.375	16.38
226.592	59.39
226.81	40.96
227.028	-0
227.246	-4.1
227.464	-81.92
227.682	8.19
227.9	-2.05
228.117	67.58
228.335	-28.67
228.553	-47.1
228.771	-22.53
228.989	12.29
229.206	45.06
229.424	-10.24
229.642	-32.77
229.86	-10.24
230.077	-32.77
230.295	12.29
230.513	38.91
230.731	12.29
230.948	30.72
231.166	10.24
231.384	-24.58
231.601	10.24
231.819	-67.58
232.037	-30.72
232.254	49.15
232.472	-45.06
232.689	-8.19
232.907	-6.14
233.125	-53.25
233.342	-69.63
233.56	-12.29
233.777	-14.34
233.995	16.38
234.213	-2.05
234.43	-57.34
234.648	73.73
234.865	28.67
235.083	-30.72
235.3	-12.29
235.518	24.58
235.735	-22.53
235.953	-43.01
236.17	40.96
236.388	65.53
236.605	4.1
236.822	81.92
237.04	-8.19
237.257	36.86
237.475	-49.15
237.692	-43.01
237.909	2.05
238.127	-4.1
238.344	20.48
238.562	10.24
238.779	-47.1
238.996	24.58
239.214	-18.43
239.431	-47.1
239.648	57.34
239.865	71.68
240.083	-2.05
240.3	12.29
240.517	-32.77
240.735	12.29
240.952	-59.39
241.169	-4.1
241.386	-34.82
241.603	-0
241.821	57.34
242.038	45.06
242.255	-47.1
242.472	-10.24
242.689	-40.96
242.907	12.29
243.124	30.72
243.341	8.19
243.558	45.06
243.775	12.29
243.992	-24.58
244.209	-6.14
244.426	-18.43
244.643	61.44
244.86	-14.34
245.078	49.15
245.295	-8.19
245.512	-55.3
245.729	-22.53
245.946	6.14
246.163	43.01
246.38	-22.53
246.597	-14.34
246.814	-49.15
247.031	-32.77
247.248	10.24
247.464	16.38
247.681	16.38
247.898	-8.19
248.115	10.24
248.332	-40.96
248.549	77.82
248.766	73.73
248.983	-24.58
249.2	-2.05
249.417	59.39
249.633	16.38
249.85	10.24
250.067	-6.14
250.284	-30.72
250.501	-6.14
250.717	-12.29
250.934	-69.63
251.151	22.53
251.368	-20.48
251.585	69.63
251.801	45.06
252.018	-51.2
252.235	83.97
252.451	-20.48
252.668	-16.38
252.885	-73.73
253.102	-8.19
253.318	92.16
253.535	10.24
253.752	-32.77
253.968	-30.72
254.185	-53.25
254.401	6.14
254.618	-57.34
254.835	-8.19
255.051	-14.34
255.268	67.58
255.484	26.62
255.701	-4.1
255.917	-32.77
256.134	-40.96
256.351	-8.19
256.567	-81.92
256.784	-12.29
257	2.05
257.217	-30.72
257.433	24.58
257.65	-28.67
257.866	2.05
258.082	-14.34
258.299	-6.14
258.515	8.19
258.732	2.05
258.948	8.19
259.165	24.58
259.381	32.77
259.597	-24.58
259.814	53.25
260.03	-2.05
260.246	24.58
260.463	-14.34
260.679	28.67
260.895	55.3
261.112	-10.24
261.328	-0
261.544	-79.87
261.761	-20.48
261.977	61.44
262.193	-6.14
262.409	-0
262.626	8.19
262.842	-57.34
263.058	40.96
263.274	-8.19
263.49	65.53
263.707	38.91
263.923	36.86
264.139	-20.48
264.355	-61.44
264.571	-2.05
264.787	-32.77
265.004	-2.05
265.22	-18.43
265.436	-20.48
265.652	12.29
265.868	-34.82
266.084	-24.58
266.3	4.1
266.516	-30.72
266.732	8.19
266.948	-69.63
267.164	32.77
267.38	-40.96
267.596	-86.01
267.812	30.72
268.028	-65.54
268.244	-2.05
268.46	-6.14
268.676	20.48
268.892	-14.34
269.108	8.19
269.324	-16.38
269.54	-36.86
269.756	-18.43
269.972	-10.24
270.188	26.62
270.403	-0
270.619	2.05
270.835	-10.24
271.051	14.34
271.267	-2.05
271.483	8.19
271.698	-18.43
271.914	8.19
272.13	12.29
272.346	2.05
272.562	18.43
272.777	-24.58
272.993	-77.82
273.209	-6.14
273.425	24.58
273.64	-26.62
273.856	34.82
274.072	-26.62
274.287	-0
274.503	57.34
274.719	-55.3
274.934	-32.77
275.15	-24.58
275.366	-51.2
275.581	-4.1
275.797	-4.1
276.012	14.34
276.228	-6.14
276.444	61.44
276.659	20.48
276.875	18.43
277.09	4.1
277.306	30.72
277.521	59.39
277.737	4.1
277.952	2.05
278.168	45.06
278.383	-57.34
278.599	32.77
278.814	32.77
279.03	2.05
279.245	-36.86
279.461	-6.14
279.676	-16.38
279.892	14.34
280.107	4.1
280.322	32.77
280.538	-38.91
280.753	-22.53
280.969	18.43
281.184	26.62
281.399	47.1
281.615	-38.91
281.83	32.77
282.045	-45.06
282.26	45.06
282.476	40.96
282.691	40.96
282.906	-90.11
283.122	2.05
283.337	-16.38
283.552	10.24
283.767	20.48
283.983	22.53
284.198	-26.62
284.413	45.06
284.628	-38.91
284.843	-20.48
285.058	-22.53
285.274	-65.54
285.489	-32.77
285.704	-22.53
285.919	2.05
286.134	22.53
286.349	-2.05
286.564	24.58
286.779	-34.82
286.995	49.15
287.21	-0
287.425	-34.82
287.64	32.77
287.855	57.34
288.07	-30.72
288.285	12.29
288.5	26.62
288.715	-0
288.93	-14.34
289.145	-26.62
289.36	-0
289.575	40.96
289.79	4.1
290.004	26.62
290.219	4.1
290.434	2.05
290.649	-4.1
290.864	-45.06
291.079	-79.87
291.294	10.24
291.509	20.48
291.724	26.62
291.938	-40.96
292.153	-0
292.368	-22.53
292.583	73.73
292.798	10.24
293.012	45.06
293.227	-2.05
293.442	-28.67
293.657	-4.1
293.871	-4.1
294.086	4.1
294.301	-18.43
294.516	-20.48
294.73	63.49
294.945	-86.01
295.16	28.67
295.374	14.34
295.589	-8.19
295.804	-4.1
296.018	30.72
296.233	14.34
296.447	28.67
296.662	-14.34
296.877	16.38
297.091	-16.38
297.306	10.24
297.52	28.67
297.735	-38.91
297.949	28.67
298.164	-16.38
298.378	-61.44
298.593	-16.38
298.807	-18.43
299.022	24.58
299.236	8.19
299.451	-8.19
299.665	-26.62
299.88	-22.53
300.094	-28.67
300.309	18.43
300.523	-30.72
300.737	49.15
300.952	-2.05
301.166	-24.58
301.381	-32.77
301.595	18.43
301.809	-57.34
302.024	-63.49
302.238	-63.49
302.452	-40.96
302.667	2.05
302.881	-30.72
303.095	69.63
303.309	18.43
303.524	-30.72
303.738	-8.19
303.952	-12.29
304.166	67.58
304.381	-36.86
304.595	32.77
304.809	10.24
305.023	-20.48
305.237	-32.77
305.452	28.67
305.666	96.25
305.88	-49.15
306.094	-0
306.308	-22.53
306.522	14.34
306.736	28.67
306.95	40.96
307.164	47.1
307.379	16.38
307.593	-61.44
307.807	-2.05
308.021	67.58
308.235	-24.58
308.449	-59.39
308.663	38.91
308.877	73.73
309.091	-26.62
309.305	51.2
309.519	-38.91
309.733	32.77
309.947	2.05
310.161	18.43
310.374	-2.05
310.588	-32.77
310.802	-22.53
311.016	8.19
311.23	65.53
311.444	6.14
311.658	-47.1
311.872	4.1
312.085	30.72
312.299	20.48
312.513	4.1
312.727	-45.06
312.941	-116.73
313.154	-10.24
313.368	-22.53
313.582	12.29
313.796	-10.24
314.009	-63.49
314.223	-53.25
314.437	36.86
314.651	-43.01
314.864	6.14
315.078	-20.48
315.292	-30.72
315.505	36.86
315.719	12.29
315.933	32.77
316.146	53.25
316.36	-34.82
316.573	24.58
316.787	59.39
317.001	18.43
317.214	-8.19
317.428	-38.91
317.641	47.1
317.855	14.34
318.068	-18.43
318.282	57.34
318.495	2.05
318.709	28.67
318.922	24.58
319.136	-65.54
319.349	43.01
319.563	43.01
319.776	16.38
319.99	53.25
320.203	-4.1
320.417	30.72
320.63	10.24
320.843	2.05
321.057	-34.82
321.27	2.05
321.483	-10.24
321.697	32.77
321.91	-12.29
322.124	18.43
322.337	-4.1
322.55	10.24
322.763	-51.2
322.977	4.1
323.19	16.38
323.403	12.29
323.617	-12.29
323.83	32.77
324.043	-18.43
324.256	-10.24
324.469	36.86
324.683	30.72
324.896	8.19
325.109	-71.68
325.322	-26.62
325.535	-8.19
325.748	20.48
325.962	16.38
326.175	-43.01
326.388	90.11
326.601	-26.62
326.814	-10.24
327.027	-4.1
327.24	-32.77
327.453	24.58
327.666	28.67
327.879	-22.53
328.092	32.77
328.305	-36.86
328.518	-0
328.731	-28.67
328.944	26.62
329.157	40.96
329.37	-53.25
329.583	24.58
329.796	61.44
330.009	-86.01
330.222	-16.38
330.435	18.43
330.648	-69.63
330.861	-59.39
331.073	28.67
331.286	55.3
331.499	-2.05
331.712	-28.67
331.925	-36.86
332.138	-8.19
332.35	16.38
332.563	32.77
332.776	26.62
332.989	-86.01
333.202	-0
333.414	-36.86
333.627	-6.14
333.84	-45.06
334.053	28.67
334.265	-30.72
334.478	-10.24
334.691	45.06
334.903	20.48
335.116	-94.21
335.329	57.34
335.541	-14.34
335.754	-18.43
335.966	8.19
336.179	40.96
336.392	-34.82
336.604	51.2
336.817	-0
337.029	-8.19
337.242	-14.34
337.454	18.43
337.667	57.34
337.88	51.2
338.092	4.1
338.305	16.38
338.517	-2.05
338.729	2.05
338.942	81.92
339.154	-4.1
339.367	-32.77
339.579	-6.14
339.792	-14.34
340.004	-26.62
340.217	71.68
340.429	-61.44
340.641	-24.58
340.854	-12.29
341.066	-2.05
341.278	16.38
341.491	22.53
341.703	-18.43
341.915	-28.67
342.128	-6.14
342.34	8.19
342.552	47.1
342.764	-0
342.977	34.82
343.189	-45.06
343.401	-24.58
343.613	71.68
343.826	-61.44
344.038	28.67
344.25	57.34
344.462	-28.67
344.674	57.34
344.886	-63.49
345.099	-14.34
345.311	-53.25
345.523	24.58
345.735	49.15
345.947	92.16
346.159	-26.62
346.371	-2.05
346.583	-6.14
346.795	20.48
347.007	45.06
347.219	2.05
347.431	12.29
347.643	40.96
347.855	47.1
348.067	-6.14
348.279	22.53
348.491	49.15
348.703	36.86
348.915	-16.38
349.127	-65.54
349.339	-38.91
349.551	32.77
349.763	-2.05
349.975	12.29
350.187	18.43
350.399	67.58
350.61	18.43
350.822	-34.82
351.034	16.38
351.246	8.19
351.458	10.24
351.669	-2.05
351.881	8.19
352.093	-24.58
352.305	-2.05
352.517	100.35
352.728	59.39
352.94	55.3
353.152	57.34
353.363	-10.24
353.575	-2.05
353.787	79.87
353.999	-6.14
354.21	-10.24
354.422	-24.58
354.633	-32.77
354.845	-43.01
355.057	8.19
355.268	-16.38
355.48	-55.3
355.692	8.19
355.903	8.19
356.115	10.24
356.326	-20.48
356.538	-10.24
356.749	-32.77
356.961	2.05
357.172	-53.25
357.384	28.67
357.595	-10.24
357.807	34.82
358.018	69.63
358.23	90.11
358.441	-16.38
358.653	-38.91
358.864	-28.67
359.075	-0
359.287	-67.58
359.498	40.96
359.709	20.48
359.921	22.53
360.132	4.1
360.344	-6.14
360.555	20.48
360.766	43.01
360.977	16.38
361.189	77.82
361.4	-8.19
361.611	36.86
361.823	51.2
362.034	34.82
362.245	14.34
362.456	-61.44
362.667	47.1
362.879	-32.77
363.09	-38.91
363.301	18.43
363.512	-14.34
363.723	-73.73
363.935	40.96
364.146	16.38
364.357	-24.58
364.568	55.3
364.779	-2.05
364.99	18.43
365.201	26.62
365.412	75.77
365.623	43.01
365.834	-6.14
366.045	-34.82
366.256	-2.05
366.467	-12.29
366.678	4.1
366.889	34.82
367.1	40.96
367.311	-57.34
367.522	-10.24
367.733	34.82
367.944	-36.86
368.155	8.19
368.366	2.05
368.577	-2.05
368.788	12.29
368.999	-10.24
369.209	47.1
369.42	47.1
369.631	24.58
369.842	10.24
370.053	-8.19
370.264	14.34
370.474	79.87
370.685	12.29
370.896	18.43
371.107	98.3
371.317	32.77
371.528	38.91
371.739	55.3
371.95	-28.67
372.16	8.19
372.371	22.53
372.582	16.38
372.792	22.53
373.003	10.24
373.214	-38.91
373.424	-32.77
373.635	30.72
373.846	18.43
374.056	34.82
374.267	-16.38
374.477	-71.68
374.688	-0
374.898	12.29
375.109	26.62
375.319	16.38
375.53	34.82
375.74	63.49
375.951	69.63
376.161	2.05
376.372	-0
376.582	-4.1
376.793	36.86
377.003	30.72
377.214	24.58
377.424	65.53
377.635	-8.19
377.845	38.91
378.055	-16.38
378.266	63.49
378.476	18.43
378.686	-14.34
378.897	12.29
379.107	4.1
379.317	10.24
379.528	-22.53
379.738	-28.67
379.948	32.77
380.158	67.58
380.369	36.86
380.579	38.91
380.789	-28.67
380.999	-16.38
381.21	67.58
381.42	67.58
381.63	2.05
381.84	40.96
382.05	22.53
382.261	-6.14
382.471	-6.14
382.681	24.58
382.891	-55.3
383.101	67.58
383.311	16.38
383.521	-81.92
383.731	45.06
383.941	43.01
384.151	-40.96
384.361	12.29
384.571	4.1
384.781	59.39
384.991	32.77
385.201	-8.19
385.411	16.38
385.621	-8.19
385.831	22.53
386.041	-22.53
386.251	-18.43
386.461	12.29
386.671	-40.96
386.881	-71.68
387.091	-6.14
387.301	-0
387.511	-36.86
387.72	-71.68
387.93	-30.72
388.14	-49.15
388.35	-2.05
388.56	-30.72
388.769	26.62
388.979	18.43
389.189	-32.77
389.399	10.24
389.609	-36.86
389.818	26.62
390.028	51.2
390.238	98.3
390.447	51.2
390.657	26.62
390.867	51.2
391.076	12.29
391.286	-28.67
391.496	92.16
391.705	-67.58
391.915	71.68
392.125	20.48
392.334	20.48
392.544	34.82
392.753	49.15
392.963	4.1
393.172	51.2
393.382	14.34
393.591	-16.38
393.801	10.24
394.01	26.62
394.22	-69.63
394.429	71.68
394.639	-0
394.848	116.73
395.058	14.34
395.267	47.1
395.477	6.14
395.686	-6.14
395.895	30.72
396.105	51.2
396.314	26.62
396.524	45.06
396.733	-22.53
396.942	-14.34
397.152	-18.43
397.361	26.62
397.57	43.01
397.78	-2.05
397.989	118.78
398.198	38.91
398.407	12.29
398.617	43.01
398.826	4.1
399.035	-14.34
399.244	43.01
399.453	45.06
399.663	-55.3
399.872	12.29
400.081	28.67
400.29	36.86
400.499	-16.38
400.708	40.96
400.917	59.39
401.127	-10.24
401.336	-6.14
401.545	24.58
401.754	61.44
401.963	26.62
402.172	32.77
402.381	-30.72
402.59	12.29
402.799	45.06
403.008	-6.14
403.217	45.06
403.426	-6.14
403.635	12.29
403.844	-51.2
404.053	24.58
404.262	-12.29
404.471	47.1
404.68	-34.82
404.888	108.54
405.097	112.64
405.306	43.01
405.515	83.97
405.724	43.01
405.933	86.01
406.142	79.87
406.35	65.53
406.559	26.62
406.768	8.19
406.977	96.25
407.185	65.53
407.394	34.82
407.603	2.05
407.812	81.92
408.02	51.2
408.229	73.73
408.438	75.77
408.646	-24.58
408.855	49.15
409.064	53.25
409.272	122.88
409.481	114.69
409.69	75.77
409.898	161.79
410.107	90.11
410.315	98.3
410.524	49.15
410.733	141.31
410.941	145.41
411.15	34.82
411.358	126.97
411.567	151.55
411.775	77.82
411.984	139.26
412.192	145.41
412.401	77.82
412.609	100.35
412.818	120.83
413.026	55.3
413.234	108.54
413.443	126.97
413.651	149.5
413.86	194.56
414.068	133.12
414.276	223.23
414.485	239.61
414.693	169.98
414.901	157.69
415.11	219.13
415.318	215.04
415.526	239.61
415.734	274.43
415.943	161.79
416.151	247.8
416.359	245.76
416.567	294.91
416.776	247.8
416.984	385.02
417.192	301.05
417.4	290.81
417.608	247.8
417.817	245.76
418.025	292.86
418.233	346.11
418.441	382.97
418.649	337.91
418.857	421.88
419.065	407.55
419.273	428.03
419.481	348.15
419.689	411.64
419.897	434.17
420.105	460.79
420.313	448.51
420.521	509.94
420.729	491.51
420.937	532.47
421.145	524.28
421.353	610.29
421.561	546.81
421.769	585.72
421.977	641.01
422.185	587.77
422.393	696.31
422.601	690.17
422.809	778.23
423.017	665.59
423.224	790.52
423.432	802.8
423.64	784.37
423.848	858.1
424.056	784.37
424.263	823.28
424.471	925.68
424.679	909.3
424.887	942.07
425.094	927.73
425.302	944.11
425.51	985.07
425.718	1103.86
425.925	1058.8
426.133	1103.86
426.341	1118.19
426.548	1234.93
426.756	1167.34
426.964	1282.03
427.171	1204.21
427.379	1226.73
427.586	1386.47
427.794	1427.43
428.001	1345.52
428.209	1460.2
428.417	1515.5
428.624	1558.5
428.832	1626.09
429.039	1607.66
429.247	1621.99
429.454	1800.16
429.662	1871.84
429.869	1689.57
430.076	1968.1
430.284	1855.46
430.491	1837.03
430.699	1873.89
430.906	1992.67
431.114	2088.93
431.321	2150.37
431.528	2240.48
431.736	2250.72
431.943	2426.84
432.15	2346.97
432.358	2471.9
432.565	2533.34
432.772	2543.58
432.979	2570.2
433.187	2666.46
433.394	2643.93
433.601	3055.57
433.808	2883.54
434.016	2865.11
434.223	3051.47
434.43	3225.55
434.637	3094.48
434.844	3330
435.052	3280.85
435.259	3262.41
435.466	3317.71
435.673	3301.33
435.88	3614.66
436.087	3817.41
436.294	3784.65
436.501	3698.63
436.708	3690.44
436.915	3893.19
437.122	3989.44
437.329	3977.16
437.537	4136.9
437.743	4233.15
437.95	4214.72
438.157	4364.22
438.364	4501.44
438.571	4464.57
438.778	4589.5
438.985	5044.15
439.192	4681.66
439.399	4894.65
439.606	4845.49
439.813	4976.56
440.02	5365.68
440.227	5476.27
440.433	5386.16
440.64	5611.43
440.847	5318.57
441.054	5560.24
441.261	6080.42
441.467	5832.61
441.674	5922.73
441.881	6191.01
442.088	6307.74
442.294	5984.16
442.501	6113.19
442.708	6393.76
442.914	6657.95
443.121	7077.78
443.328	6848.41
443.534	7270.29
443.741	7112.6
443.948	6809.5
444.154	7511.95
444.361	7368.59
444.568	7456.65
444.774	7456.65
444.981	7649.16
445.187	7937.93
445.394	8132.48
445.6	8216.45
445.807	8654.72
446.013	8259.46
446.22	8626.04
446.426	9017.21
446.633	9029.49
446.839	9254.77
447.046	8841.08
447.252	9334.64
447.459	9504.62
447.665	9199.48
447.871	9645.93
448.078	10297.19
448.284	9754.48
448.491	10086.25
448.697	10428.26
448.903	10610.53
449.11	10538.85
449.316	10383.2
449.522	10674.01
449.728	10868.57
449.935	11388.75
450.141	11286.36
450.347	11231.06
450.553	10895.19
450.76	11206.49
450.966	11532.11
451.172	11523.92
451.378	11689.81
451.584	11419.47
451.791	11775.82
451.997	11628.37
452.203	11982.67
452.409	11833.16
452.615	11722.57
452.821	11335.51
453.027	11274.07
453.233	11822.92
453.44	11548.5
453.646	11573.07
453.852	11519.82
454.058	12021.58
454.264	11419.47
454.47	11673.42
454.676	11480.91
454.882	11626.32
455.088	10815.32
455.294	10917.72
455.5	10895.19
455.705	11124.57
455.911	10786.65
456.117	10461.02
456.323	10575.71
456.529	9877.35
456.735	10157.92
456.941	9977.7
457.147	9809.77
457.352	9346.93
457.558	9484.14
457.764	9531.25
457.97	9336.69
458.176	8959.86
458.381	9234.29
458.587	8529.79
458.793	8621.95
458.999	8171.4
459.204	8734.59
459.41	8320.9
459.616	7849.86
459.821	7993.22
460.027	7866.25
460.233	7647.12
460.438	7538.57
460.644	7423.89
460.85	7212.95
461.055	7098.26
461.261	7024.53
461.466	6621.08
461.672	6344.61
461.878	6756.25
462.083	6324.13
462.289	6221.73
462.494	5939.11
462.7	5791.66
462.905	5693.35
463.111	5828.52
463.316	5861.29
463.522	5740.46
463.727	5676.97
463.932	5810.09
464.138	5728.17
464.343	5685.16
464.549	5523.37
464.754	5779.37
464.959	5726.12
465.165	5687.21
465.37	5437.36
465.575	5367.73
465.781	5547.95
465.986	5451.69
466.191	5316.53
466.397	5087.15
466.602	4958.13
466.807	5236.66
467.012	5076.91
467.218	5017.52
467.423	5146.55
467.628	5232.56
467.833	5474.22
468.038	5156.79
468.244	5121.97
468.449	5089.2
468.654	5011.38
468.859	4951.99
469.064	4892.6
469.269	4818.87
469.474	4782.01
469.679	4921.27
469.885	4851.64
470.09	4810.68
470.295	4827.06
470.5	4523.96
470.705	4743.1
470.91	4669.37
471.115	4523.96
471.32	4519.87
471.525	4657.08
471.73	4548.54
471.935	4509.63
472.139	4382.65
472.344	4396.99
472.549	4349.89
472.754	4286.4
472.959	4270.01
473.164	3997.63
473.369	4063.17
473.574	4370.37
473.778	4251.58
473.983	4130.75
474.188	4280.25
474.393	3971.01
474.598	3850.18
474.802	3987.4
475.007	3852.23
475.212	4028.35
475.417	3710.92
475.621	3669.96
475.826	3907.52
476.031	3710.92
476.235	3698.63
476.44	3577.8
476.645	3471.31
476.849	3604.42
477.054	3561.42
477.259	3698.63
477.463	3489.74
477.668	3432.4
477.872	3477.45
478.077	3413.96
478.282	3530.7
478.486	3291.09
478.691	3407.82
478.895	3299.28
479.1	3266.51
479.304	3336.14
479.509	3184.59
479.713	3135.44
479.918	3203.02
480.122	3176.4
480.326	3164.11
480.531	3170.26
480.735	3071.95
480.94	3129.3
481.144	3211.21
481.348	3114.96
481.553	2998.23
481.757	2908.12
481.961	3035.09
482.166	3033.04
482.37	3129.3
482.574	2901.97
482.778	2914.26
482.983	3071.95
483.187	3012.56
483.391	3155.92
483.595	3088.34
483.8	3108.82
484.004	3037.14
484.208	3049.43
484.412	2953.17
484.616	3055.57
484.821	3022.8
485.025	2942.93
485.229	3166.16
485.433	3059.67
485.637	3041.23
485.841	3102.67
486.045	2987.99
486.249	3039.19
486.453	3002.32
486.657	2998.23
486.861	3080.14
487.065	2967.51
487.269	3063.76
487.473	2998.23
487.677	3102.67
487.881	3020.75
488.085	3074
488.289	3067.86
488.493	3000.27
488.697	3008.47
488.901	3178.45
489.105	3055.57
489.309	3041.23
489.512	3063.76
489.716	3094.48
489.92	3033.04
490.124	3065.81
490.328	3078.1
490.531	3020.75
490.735	3143.63
490.939	3162.06
491.143	3096.53
491.346	3098.58
491.55	3184.59
491.754	3155.92
491.958	3090.38
492.161	3219.41
492.365	3223.5
492.569	3117.01
492.772	3162.06
492.976	3246.03
493.18	3262.41
493.383	3278.8
493.587	3465.16
493.79	3336.14
493.994	3403.72
494.197	3278.8
494.401	3395.53
494.605	3313.61
494.808	3432.4
495.012	3397.58
495.215	3637.19
495.419	3581.9
495.622	3469.26
495.825	3665.86
496.029	3547.08
496.232	3645.38
496.436	3555.27
496.639	3747.78
496.843	3661.77
497.046	3815.37
497.249	3727.3
497.453	3745.73
497.656	3934.15
497.859	3837.89
498.063	3901.38
498.266	4130.75
498.469	3846.09
498.673	4005.83
498.876	4050.88
499.079	4044.74
499.282	4231.1
499.485	4323.26
499.689	4327.36
499.892	4290.49
500.095	4464.57
500.298	4403.13
500.501	4308.93
500.705	4571.07
500.908	4579.26
501.111	4677.56
501.314	4620.22
501.517	4786.1
501.72	4669.37
501.923	4704.18
502.126	5021.62
502.329	4900.79
502.532	4982.71
502.735	4777.91
502.938	5015.48
503.141	4997.04
503.344	5146.55
503.547	5226.42
503.75	5265.33
503.953	5506.99
504.156	5312.43
504.359	5543.85
504.562	5554.09
504.765	5492.65
504.968	5697.45
505.17	5566.38
505.373	5732.26
505.576	5986.21
505.779	5916.58
505.982	5912.49
506.185	6076.32
506.387	6090.66
506.59	6023.08
506.793	6330.27
506.996	6117.28
507.198	6563.74
507.401	6375.33
507.604	6414.24
507.807	6637.47
508.009	6731.67
508.212	6537.12
508.415	6856.6
508.617	6602.65
508.82	6969.24
509.022	6875.03
509.225	7118.74
509.428	7094.16
509.63	7012.24
509.833	7184.27
510.035	7401.36
510.238	7561.1
510.44	7528.33
510.643	7446.41
510.845	7618.44
511.048	7853.96
511.25	7714.7
511.453	7743.37
511.655	8056.71
511.858	7974.79
512.06	8093.57
512.262	8155.01
512.465	8236.93
512.667	8329.09
512.87	8388.48
513.072	8413.06
513.274	8484.73
513.477	8724.35
513.679	8718.2
513.881	8841.08
514.084	9002.87
514.286	8918.9
514.488	8994.68
514.69	9258.87
514.893	9244.53
515.095	9209.72
515.297	9330.55
515.499	9283.44
515.701	9543.53
515.904	9580.4
516.106	9674.6
516.308	9660.27
516.51	9717.61
516.712	9924.46
516.914	10084.2
517.116	10116.97
517.318	10010.47
517.52	10321.76
517.722	10370.91
517.925	10549.09
518.127	10479.46
518.329	10661.73
518.531	10581.85
518.733	10776.41
518.935	10921.82
519.136	10962.78
519.338	11093.85
519.54	11079.51
519.742	11038.55
519.944	11224.92
520.146	11458.39
520.348	11282.26
520.55	11528.02
520.752	11599.69
520.954	11835.21
521.155	11698
521.357	11865.93
521.559	12005.19
521.761	12105.54
521.963	12023.62
522.164	12275.52
522.366	12105.54
522.568	12298.05
522.77	12296
522.971	12435.27
523.173	12627.78
523.375	12672.83
523.576	12719.93
523.778	12574.53
523.98	12781.37
524.181	12945.21
524.383	13205.3
524.584	13113.14
524.786	13160.25
524.988	13055.8
525.189	13215.54
525.391	13381.43
525.592	13406
525.794	13338.42
525.995	13449.01
526.197	13424.44
526.398	13580.08
526.6	13604.66
526.801	13625.14
527.003	13555.51
527.204	13717.29
527.406	13934.38
527.607	13741.87
527.808	13782.83
528.01	13768.49
528.211	13788.97
528.412	14071.59
528.614	14149.42
528.815	14141.22
529.016	14094.12
529.218	14051.11
529.419	13999.91
529.62	14169.9
529.822	14231.33
530.023	14116.65
530.224	14087.98
530.425	14196.52
530.626	14208.81
530.828	14194.47
531.029	14372.64
531.23	14171.94
531.431	14370.6
531.632	14499.62
531.833	14470.95
532.035	14434.08
532.236	14360.36
532.437	14481.19
532.638	14270.25
532.839	14434.08
533.04	14632.74
533.241	14280.49
533.442	14427.94
533.643	14743.33
533.844	14604.07
534.045	14595.87
534.246	14518.05
534.447	14597.92
534.648	14399.27
534.849	14491.43
535.05	14391.08
535.251	14530.34
535.451	14442.28
535.652	14526.24
535.853	14477.09
536.054	14298.92
536.255	14726.94
536.456	14434.08
536.657	14581.54
536.857	14538.53
537.058	14563.11
537.259	14526.24
537.46	14458.66
537.66	14688.03
537.861	14624.54
538.062	14473
538.263	14522.15
538.463	14311.21
538.664	14509.86
538.865	14640.93
539.065	14561.06
539.266	14133.03
539.466	14483.24
539.667	14411.56
539.868	14610.21
540.068	14266.15
540.269	14591.78
540.469	14366.5
540.67	14167.85
540.87	14368.55
541.071	14552.87
541.271	14513.95
541.472	14505.76
541.672	14460.71
541.873	14530.34
542.073	14272.29
542.274	14489.38
542.474	14268.2
542.675	14169.9
542.875	14311.21
543.075	14110.5
543.276	14239.53
543.476	14468.9
543.676	14282.53
543.877	14665.5
544.077	14337.83
544.277	14493.47
544.478	14339.88
544.678	14415.65
544.878	14395.17
545.078	14319.4
545.279	14257.96
545.479	14337.83
545.679	14501.67
545.879	14389.03
546.079	14374.69
546.28	14270.25
546.48	14198.57
546.68	14362.4
546.88	14300.97
547.08	14180.14
547.28	14149.42
547.48	14092.07
547.68	14313.25
547.88	14167.85
548.081	14307.11
548.281	14204.71
548.481	14157.61
548.681	14362.4
548.881	14393.12
549.081	14079.79
549.28	14059.31
549.48	14268.2
549.68	13893.42
549.88	14341.93
550.08	14290.73
550.28	14198.57
550.48	14178.09
550.68	14196.52
550.88	13944.62
551.08	14221.09
551.279	14026.54
551.479	14249.77
551.679	14090.02
551.879	14135.08
552.079	14307.11
552.278	14085.93
552.478	14135.08
552.678	13848.36
552.878	14423.84
553.077	14030.63
553.277	13997.87
553.477	14124.84
553.676	14173.99
553.876	14114.6
554.076	14051.11
554.275	14016.3
554.475	13950.76
554.674	14018.35
554.874	13977.39
555.074	13940.52
555.273	13995.82
555.473	14012.2
555.672	13870.89
555.872	14296.87
556.071	13922.09
556.271	13952.81
556.47	13969.19
556.67	13907.76
556.869	14143.27
557.068	13920.04
557.268	13909.8
557.467	13807.41
557.667	13897.52
557.866	13766.45
558.065	13854.51
558.265	13817.65
558.464	13877.04
558.663	13979.43
558.863	13686.58
559.062	13690.67
559.261	13811.5
559.461	13952.81
559.66	13868.84
559.859	13717.29
560.058	13539.12
560.258	13637.42
560.457	13606.7
560.656	13553.46
560.855	13786.93
561.054	13850.41
561.253	13705.01
561.453	13496.11
561.652	13618.99
561.851	13885.23
562.05	13512.5
562.249	13496.11
562.448	13795.12
562.647	13489.97
562.846	13616.94
563.045	13322.04
563.244	13303.6
563.443	13500.21
563.642	13297.46
563.841	13248.31
564.04	13270.84
564.239	13395.76
564.438	13233.97
564.637	13254.45
564.836	13180.73
565.035	13147.96
565.234	13129.53
565.432	13186.87
565.631	13131.58
565.83	13203.25
566.029	13031.23
566.228	12900.16
566.427	13229.88
566.625	13188.92
566.824	12992.31
567.023	13113.14
567.222	12928.83
567.42	13055.8
567.619	12982.07
567.818	12773.18
568.016	12597.06
568.215	12881.72
568.414	12902.2
568.612	12898.11
568.811	12885.82
569.01	12859.2
569.208	12697.41
569.407	12674.88
569.605	12922.68
569.804	12619.58
570.002	12590.91
570.201	12656.45
570.4	12689.21
570.598	12646.21
570.797	12711.74
570.995	12728.13
571.193	12617.54
571.392	12601.15
571.59	12369.73
571.789	12621.63
571.987	12287.81
572.186	12355.4
572.384	12582.72
572.582	12531.52
572.781	12379.97
572.979	12031.82
573.177	12353.35
573.376	12306.24
573.574	12255.04
573.772	12220.23
573.971	12029.77
574.169	12003.14
574.367	12058.44
574.565	11872.07
574.763	12066.63
574.962	12207.94
575.16	11984.71
575.358	11982.67
575.556	11708.24
575.754	12013.38
575.952	11876.17
576.151	11915.08
576.349	11652.94
576.547	11949.9
576.745	12040.01
576.943	11919.18
577.141	11685.71
577.339	11665.23
577.537	11640.65
577.735	11646.8
577.933	11544.4
578.131	11577.17
578.329	11614.03
578.527	11274.07
578.725	11466.58
578.923	11628.37
579.121	11493.2
579.319	11534.16
579.516	11429.71
579.714	11601.74
579.912	11415.38
580.11	11335.51
580.308	11341.65
580.506	11081.56
580.704	11091.8
580.901	11362.13
581.099	11267.92
581.297	11132.76
581.495	11106.13
581.692	11163.48
581.89	10792.8
582.088	10884.95
582.285	10989.4
582.483	11073.37
582.681	11069.27
582.878	10950.49
583.076	10880.86
583.274	10862.43
583.471	10547.04
583.669	10887
583.866	10712.92
584.064	10995.54
584.262	10829.66
584.459	10651.49
584.657	10798.94
584.854	10991.45
585.052	10510.18
585.249	10649.44
585.447	10848.09
585.644	10583.9
585.841	10473.31
586.039	10370.91
586.236	10602.33
586.434	10450.78
586.631	10297.19
586.828	10274.66
587.026	10514.27
587.223	10192.74
587.42	10235.75
587.618	10155.88
587.815	10196.84
588.012	10082.15
588.21	10102.63
588.407	10329.95
588.604	10012.52
588.801	10022.76
588.999	10190.69
589.196	10016.62
589.393	10178.4
589.59	10008.42
589.787	9983.85
589.984	9856.87
590.182	9977.7
590.379	10139.49
590.576	9918.31
590.773	9865.07
590.97	9852.78
591.167	9783.15
591.364	9654.12
591.561	9740.14
591.758	9521.01
591.955	9527.15
592.152	9783.15
592.349	9697.13
592.546	9787.24
592.743	9621.36
592.94	9416.56
593.137	9437.04
593.334	9527.15
593.531	9408.37
593.727	9551.73
593.924	9336.69
594.121	9314.16
594.318	9621.36
594.515	9305.97
594.712	9232.24
594.908	9146.23
595.105	9363.31
595.302	9152.37
595.499	9271.15
595.696	9144.18
595.892	9082.74
596.089	9166.71
596.286	9002.87
596.482	9013.11
596.679	9080.69
596.876	8974.2
597.072	8970.1
597.269	9144.18
597.466	8892.28
597.662	9004.92
597.859	9015.16
598.055	8750.97
598.252	8855.42
598.448	8806.27
598.645	8746.87
598.841	8662.91
599.038	8742.78
599.234	8574.85
599.431	8722.3
599.627	8798.07
599.824	8451.97
600.02	8613.76
600.217	8744.83
600.413	8470.4
600.609	8509.31
600.806	8318.85
601.002	8617.85
601.198	8333.18
601.395	8187.78
601.591	8404.86
601.787	8331.14
601.984	8302.47
602.18	8470.4
602.376	8324.99
602.572	8255.36
602.769	8216.45
602.965	8146.82
603.161	8421.25
603.357	8296.32
603.553	8214.4
603.75	8169.35
603.946	8163.2
604.142	8259.46
604.338	8064.9
604.534	8095.62
604.73	8128.39
604.926	7978.89
605.122	8064.9
605.318	7892.87
605.514	7923.59
605.71	7839.62
605.906	7948.17
606.102	7798.66
606.298	7868.3
606.494	7864.2
606.69	7591.82
606.886	7929.73
607.082	7802.76
607.278	7759.75
607.474	7557
607.67	7735.18
607.866	7700.36
608.062	7810.95
608.257	7640.97
608.453	7628.68
608.649	7694.22
608.845	7470.99
609.041	7483.28
609.236	7645.07
609.432	7536.52
609.628	7559.05
609.824	7597.96
610.019	7274.38
610.215	7589.77
610.411	7423.89
610.606	7425.93
610.802	7503.76
610.998	7399.31
611.193	7341.97
611.389	7391.12
611.584	7174.03
611.78	7344.02
611.976	7303.06
612.171	7419.79
612.367	7186.32
612.562	7352.21
612.758	7202.71
612.953	6946.71
613.149	7110.55
613.344	7110.55
613.539	7409.55
613.735	7114.64
613.93	7147.41
614.126	7032.72
614.321	7102.36
614.517	7284.62
614.712	7120.79
614.907	7018.39
615.103	7278.48
615.298	7225.23
615.493	7038.87
615.688	6928.28
615.884	7182.23
616.079	7083.92
616.274	7002.01
616.47	7020.44
616.665	6862.74
616.86	6936.47
617.055	6981.53
617.25	7030.68
617.445	6942.61
617.641	6838.17
617.836	6840.22
618.031	6748.06
618.226	6844.31
618.421	6789.02
618.616	6891.41
618.811	6852.5
619.006	6664.09
619.201	6555.55
619.396	6944.66
619.591	6608.8
619.786	6832.02
619.981	6594.46
620.176	6535.07
620.371	6598.56
620.566	6520.73
620.761	6463.39
620.956	6543.26
621.151	6451.1
621.346	6436.77
621.541	6344.61
621.735	6514.59
621.93	6211.49
622.125	6401.95
622.32	6184.87
622.515	6344.61
622.709	6309.79
622.904	6305.7
623.099	6064.04
623.294	6078.37
623.488	6004.64
623.683	6135.71
623.878	5799.85
624.072	6076.32
624.267	6051.75
624.462	5978.02
624.656	5834.66
624.851	5961.64
625.046	5867.43
625.24	5742.5
625.435	5830.57
625.629	5756.84
625.824	5728.17
626.018	5736.36
626.213	5619.63
626.407	5642.15
626.602	5564.33
626.796	5576.62
626.991	5588.91
627.185	5527.47
627.38	5644.2
627.574	5447.6
627.768	5451.69
627.963	5554.09
628.157	5259.18
628.352	5279.66
628.546	5334.96
628.74	5474.22
628.935	5152.69
629.129	5193.65
629.323	5296.05
629.517	4999.09
629.712	5177.26
629.906	5081.01
630.1	5199.79
630.294	5117.87
630.489	4988.85
630.683	5033.91
630.877	5038
631.071	4859.83
631.265	4943.8
631.459	4892.6
631.653	4798.39
631.848	4939.7
632.042	4929.46
632.236	4872.12
632.43	4833.21
632.624	4812.73
632.818	4769.72
633.012	4663.22
633.206	4702.14
633.4	4614.07
633.594	4634.55
633.788	4700.09
633.982	4689.85
634.176	4593.59
634.369	4440
634.563	4515.77
634.757	4448.19
634.951	4659.13
635.145	4517.82
635.339	4353.98
635.533	4298.69
635.726	4589.5
635.92	4382.65
636.114	4374.46
636.308	4288.45
636.501	4210.62
636.695	4358.08
636.889	4136.9
637.083	4059.07
637.276	4079.55
637.47	3985.35
637.664	4132.8
637.857	4114.37
638.051	4298.69
638.244	4143.04
638.438	3983.3
638.632	4054.98
638.825	3962.82
639.019	3872.71
639.212	4024.26
639.406	3987.4
639.599	3878.85
639.793	4079.55
639.986	3788.74
640.18	3864.52
640.373	3913.67
640.567	3803.08
640.76	3764.17
640.954	3684.3
641.147	3690.44
641.34	3798.98
641.534	3790.79
641.727	3665.86
641.92	3598.28
642.114	3674.06
642.307	3768.26
642.5	3710.92
642.694	3635.14
642.887	3590.09
643.08	3553.23
643.273	3694.54
643.467	3579.85
643.66	3534.79
643.853	3510.22
644.046	3444.68
644.239	3520.46
644.432	3348.43
644.626	3467.21
644.819	3459.02
645.012	3469.26
645.205	3444.68
645.398	3356.62
645.591	3342.28
645.784	3334.09
645.977	3325.9
646.17	3346.38
646.363	3237.84
646.556	3344.33
646.749	3186.64
646.942	3192.78
647.135	3260.37
647.328	3272.65
647.521	3051.47
647.714	3162.06
647.907	3180.5
648.099	3131.34
648.292	2975.7
648.485	3092.43
648.678	3012.56
648.871	3080.14
649.064	2899.92
649.256	2996.18
649.449	3071.95
649.642	2990.03
649.835	2893.78
650.027	2852.82
650.22	2965.46
650.413	2959.31
650.605	2863.06
650.798	2834.39
650.991	2832.34
651.183	2863.06
651.376	2850.77
651.568	2740.18
651.761	2910.16
651.954	2799.57
652.146	2858.96
652.339	2756.57
652.531	2834.39
652.724	2680.79
652.916	2582.49
653.109	2699.22
653.301	2666.46
653.494	2676.7
653.686	2688.98
653.879	2721.75
654.071	2645.98
654.263	2695.13
654.456	2607.06
654.648	2598.87
654.84	2746.33
655.033	2529.24
655.225	2631.64
655.417	2652.12
655.61	2498.52
655.802	2451.42
655.994	2525.15
656.186	2494.43
656.379	2496.47
656.571	2299.87
656.763	2519
656.955	2496.47
657.148	2342.88
657.34	2498.52
657.532	2359.26
657.724	2422.75
657.916	2252.77
658.108	2480.09
658.3	2242.53
658.492	2410.46
658.684	2250.72
658.876	2338.78
659.068	2324.44
659.26	2277.34
659.452	2265.05
659.644	2209.76
659.836	2310.11
660.028	2281.44
660.22	2174.94
660.412	2287.58
660.604	2160.61
660.796	2256.86
660.988	2222.05
661.18	2217.95
661.372	2062.3
661.563	2207.71
661.755	2107.36
661.947	2050.02
662.139	2119.65
662.331	2074.59
662.522	2097.12
662.714	2127.84
662.906	2039.78
663.097	2004.96
663.289	2054.11
663.481	1929.19
663.673	1941.47
663.864	1961.95
664.056	2138.08
664.247	1951.71
664.439	1972.19
664.631	2004.96
664.822	1988.58
665.014	1920.99
665.205	1923.04
665.397	1877.99
665.588	1785.83
665.78	1996.77
665.971	1953.76
666.163	1826.79
666.354	1820.64
666.546	1794.02
666.737	1877.99
666.929	1896.42
667.12	1857.51
667.311	1783.78
667.503	1771.49
667.694	1849.32
667.885	1712.1
668.077	1785.83
668.268	1730.53
668.459	1853.41
668.651	1753.06
668.842	1695.72
669.033	1837.03
669.224	1667.05
669.416	1683.43
669.607	1640.42
669.798	1701.86
669.989	1689.57
670.18	1660.9
670.371	1595.37
670.563	1712.1
670.754	1607.66
670.945	1753.06
671.136	1740.77
671.327	1650.66
671.518	1671.14
671.709	1646.57
671.9	1714.15
672.091	1472.49
672.282	1595.37
672.473	1570.79
672.664	1581.03
672.855	1525.74
673.046	1572.84
673.237	1605.61
673.428	1533.93
673.619	1542.12
673.809	1617.9
674	1513.45
674.191	1558.5
674.382	1556.46
674.573	1464.3
674.764	1396.71
674.954	1517.54
675.145	1529.83
675.336	1499.11
675.527	1462.25
675.717	1542.12
675.908	1439.72
676.099	1433.58
676.289	1478.63
676.48	1519.59
676.671	1361.9
676.861	1447.91
677.052	1409
677.243	1439.72
677.433	1472.49
677.624	1507.3
677.814	1368.04
678.005	1505.26
678.195	1376.23
678.386	1511.4
678.576	1490.92
678.767	1277.93
678.957	1310.7
679.148	1415.15
679.338	1458.15
679.529	1298.41
679.719	1353.71
679.909	1327.08
680.1	1404.91
680.29	1427.43
680.481	1394.67
680.671	1376.23
680.861	1300.46
681.052	1419.24
681.242	1355.76
681.432	1310.7
681.622	1413.1
681.813	1294.32
682.003	1388.52
682.193	1302.51
682.383	1331.18
682.573	1388.52
682.764	1310.7
682.954	1312.75
683.144	1322.99
683.334	1310.7
683.524	1253.36
683.714	1318.89
683.904	1300.46
684.094	1386.47
684.284	1331.18
684.474	1421.29
684.664	1359.85
684.854	1310.7
685.044	1341.42
685.234	1224.69
685.424	1357.8
685.614	1363.95
685.804	1288.17
685.994	1368.04
686.184	1243.12
686.374	1261.55
686.564	1255.4
686.753	1296.36
686.943	1279.98
687.133	1302.51
687.323	1161.2
687.513	1298.41
687.702	1318.89
687.892	1224.69
688.082	1261.55
688.272	1230.83
688.461	1282.03
688.651	1112.05
688.841	1171.44
689.03	1222.64
689.22	1204.21
689.41	1208.3
689.599	1060.85
689.789	1200.11
689.979	1259.5
690.168	1179.63
690.358	1196.01
690.547	1257.45
690.737	1273.84
690.926	1167.34
691.116	1183.73
691.305	1138.67
691.495	1148.91
691.684	1095.66
691.874	1095.66
692.063	1130.48
692.252	1130.48
692.442	1122.29
692.631	1122.29
692.82	1091.57
693.01	1138.67
693.199	1187.82
693.388	1066.99
693.578	1169.39
693.767	1132.53
693.956	1056.75
694.146	1112.05
694.335	1110
694.524	1060.85
694.713	1099.76
694.902	1150.96
695.092	1079.28
695.281	1146.86
695.47	1054.7
695.659	1107.95
695.848	1126.38
696.037	1003.5
696.226	1075.18
696.415	1099.76
696.604	1017.84
696.793	1081.33
696.982	1036.27
697.171	1021.94
697.36	1069.04
697.549	1054.7
697.738	1064.94
697.927	1030.13
698.116	1007.6
698.305	1048.56
698.494	1017.84
698.683	978.93
698.872	991.22
699.061	958.45
699.25	1013.74
699.438	1040.37
699.627	958.45
699.816	1015.79
700.005	909.3
700.193	999.41
700.382	1077.23
700.571	985.07
700.76	1026.03
700.948	1060.85
701.137	993.26
701.326	962.55
701.514	915.44
701.703	978.93
701.892	980.98
702.08	1030.13
702.269	944.11
702.457	1038.32
702.646	950.26
702.834	950.26
703.023	911.35
703.212	925.68
703.4	903.15
703.589	919.54
703.777	954.35
703.965	931.83
704.154	999.41
704.342	884.72
704.531	966.64
704.719	1032.18
704.907	1073.14
705.096	927.73
705.284	886.77
705.472	937.97
705.661	935.92
705.849	847.86
706.037	923.63
706.226	970.74
706.414	923.63
706.602	835.57
706.79	870.39
706.979	948.21
707.167	890.87
707.355	804.85
707.543	935.92
707.731	929.78
707.919	978.93
708.107	913.39
708.296	890.87
708.484	929.78
708.672	940.02
708.86	839.67
709.048	864.24
709.236	921.59
709.424	858.1
709.612	929.78
709.8	870.39
709.988	884.72
710.176	901.11
710.364	919.54
710.551	841.72
710.739	886.77
710.927	817.14
711.115	888.82
711.303	874.48
711.491	942.07
711.679	792.56
711.866	892.91
712.054	903.15
712.242	925.68
712.43	882.67
712.617	851.95
712.805	917.49
712.993	911.35
713.181	966.64
713.368	839.67
713.556	849.91
713.744	933.87
713.931	876.53
714.119	915.44
714.306	804.85
714.494	901.11
714.682	917.49
714.869	872.43
715.057	870.39
715.244	786.42
715.432	931.83
715.619	780.28
715.807	905.2
715.994	823.28
716.182	849.91
716.369	872.43
716.556	753.65
716.744	854
716.931	835.57
717.119	876.53
717.306	884.72
717.493	747.51
717.681	856.05
717.868	874.48
718.055	837.62
718.242	811
718.43	858.1
718.617	866.29
718.804	888.82
718.991	827.38
719.179	811
719.366	851.95
719.553	841.72
719.74	897.01
719.927	788.47
720.114	854
720.301	851.95
720.488	839.67
720.676	811
720.863	868.34
721.05	784.37
721.237	739.32
721.424	819.19
721.611	796.66
721.798	933.87
721.985	782.32
722.172	694.26
722.358	833.52
722.545	815.09
722.732	870.39
722.919	856.05
723.106	851.95
723.293	806.9
723.48	811
723.667	821.24
723.853	763.89
724.04	763.89
724.227	831.48
724.414	937.97
724.6	811
724.787	745.46
724.974	833.52
725.161	849.91
725.347	722.93
725.534	845.81
725.72	827.38
725.907	790.52
726.094	815.09
726.28	729.08
726.467	837.62
726.653	811
726.84	808.95
727.027	829.43
727.213	761.84
727.4	827.38
727.586	856.05
727.773	782.32
727.959	870.39
728.145	835.57
728.332	802.8
728.518	788.47
728.705	843.76
728.891	817.14
729.077	782.32
729.264	856.05
729.45	837.62
729.636	845.81
729.823	796.66
730.009	817.14
730.195	837.62
730.382	821.24
730.568	813.04
730.754	778.23
730.94	794.61
731.126	782.32
731.313	716.79
731.499	808.95
731.685	808.95
731.871	757.75
732.057	808.95
732.243	831.48
732.429	860.15
732.615	798.71
732.801	882.67
732.987	870.39
733.173	825.33
733.359	815.09
733.545	856.05
733.731	755.7
733.917	761.84
734.103	776.18
734.289	772.08
734.475	776.18
734.661	761.84
734.847	667.64
735.033	841.72
735.219	798.71
735.404	811
735.59	770.04
735.776	804.85
735.962	835.57
736.148	901.11
736.333	753.65
736.519	862.19
736.705	796.66
736.89	780.28
737.076	811
737.262	747.51
737.447	798.71
737.633	737.27
737.819	757.75
738.004	837.62
738.19	765.94
738.375	733.17
738.561	727.03
738.747	827.38
738.932	837.62
739.118	821.24
739.303	858.1
739.489	765.94
739.674	829.43
739.859	727.03
740.045	704.5
740.23	733.17
740.416	733.17
740.601	679.93
740.786	804.85
740.972	688.12
741.157	839.67
741.342	759.8
741.528	788.47
741.713	856.05
741.898	739.32
742.084	677.88
742.269	862.19
742.454	786.42
742.639	739.32
742.824	780.28
743.01	776.18
743.195	843.76
743.38	851.95
743.565	770.04
743.75	804.85
743.935	786.42
744.12	729.08
744.305	733.17
744.49	780.28
744.675	665.59
744.86	819.19
745.045	753.65
745.23	763.89
745.415	712.69
745.6	749.56
745.785	653.3
745.97	720.88
746.155	731.12
746.34	782.32
746.525	688.12
746.71	790.52
746.895	733.17
747.079	733.17
747.264	694.26
747.449	727.03
747.634	661.49
747.819	651.25
748.003	679.93
748.188	641.01
748.373	679.93
748.557	671.73
748.742	618.49
748.927	729.08
749.111	772.08
749.296	651.25
749.481	657.4
749.665	589.81
749.85	647.16
750.034	610.29
750.219	638.97
750.404	610.29
750.588	722.93
750.773	614.39
750.957	647.16
751.141	593.91
751.326	679.93
751.51	673.78
751.695	679.93
751.879	571.38
752.064	724.98
752.248	610.29
752.432	622.58
752.617	520.18
752.801	581.62
752.985	591.86
753.17	606.2
753.354	579.58
753.538	552.95
753.722	561.14
753.907	598.01
754.091	573.43
754.275	645.11
754.459	567.29
754.643	530.42
754.828	589.81
755.012	598.01
755.196	544.76
755.38	555
755.564	497.66
755.748	598.01
755.932	552.95
756.116	528.38
756.3	516.09
756.484	522.23
756.668	581.62
756.852	542.71
757.036	475.13
757.22	530.42
757.404	514.04
757.588	432.12
757.772	505.85
757.956	579.58
758.14	477.18
758.323	462.84
758.507	444.41
758.691	514.04
758.875	561.14
759.059	471.03
759.242	466.94
759.426	485.37
759.61	471.03
759.794	466.94
759.977	571.38
760.161	526.33
760.345	448.51
760.528	477.18
760.712	552.95
760.895	544.76
761.079	434.17
761.263	501.75
761.446	473.08
761.63	378.87
761.813	544.76
761.997	444.41
762.18	466.94
762.364	395.26
762.547	403.45
762.731	462.84
762.914	403.45
763.098	436.22
763.281	366.59
763.464	389.11
763.648	356.35
763.831	354.3
764.015	356.35
764.198	430.07
764.381	368.63
764.564	448.51
764.748	415.74
764.931	444.41
765.114	458.74
765.297	391.16
765.481	399.35
765.664	468.98
765.847	442.36
766.03	378.87
766.213	399.35
766.397	372.73
766.58	452.6
766.763	415.74
766.946	432.12
767.129	405.5
767.312	397.31
767.495	329.72
767.678	425.98
767.861	350.2
768.044	403.45
768.227	278.52
768.41	436.22
768.593	444.41
768.776	344.06
768.959	256
769.142	348.15
769.324	411.64
769.507	370.68
769.69	413.69
769.873	270.33
770.056	354.3
770.239	342.01
770.421	348.15
770.604	331.77
770.787	303.1
770.97	303.1
771.152	378.87
771.335	380.92
771.518	395.26
771.7	303.1
771.883	350.2
772.066	325.63
772.248	348.15
772.431	421.88
772.613	323.58
772.796	335.87
772.978	432.12
773.161	376.83
773.343	342.01
773.526	313.34
773.708	266.24
773.891	296.96
774.073	315.39
774.256	360.44
774.438	311.29
774.621	282.62
774.803	309.24
774.985	335.87
775.168	354.3
775.35	274.43
775.532	346.11
775.715	317.44
775.897	352.25
776.079	358.39
776.261	401.4
776.444	280.57
776.626	313.34
776.808	262.14
776.99	245.76
777.173	286.72
777.355	280.57
777.537	290.81
777.719	305.15
777.901	331.77
778.083	294.91
778.265	313.34
778.447	237.56
778.629	282.62
778.811	303.1
778.993	219.13
779.175	315.39
779.357	299
779.539	172.03
779.721	274.43
779.903	276.48
780.085	190.46
780.267	256
780.449	303.1
780.631	251.9
780.812	274.43
780.994	272.38
781.176	241.66
781.358	237.56
781.54	247.8
781.721	229.37
781.903	237.56
782.085	200.7
782.267	270.33
782.448	274.43
782.63	229.37
782.812	223.23
782.993	174.08
783.175	165.89
783.357	208.89
783.538	247.8
783.72	217.08
783.901	167.93
784.083	159.74
784.264	266.24
784.446	157.69
784.627	192.51
784.809	299
784.99	225.28
785.172	139.26
785.353	147.45
785.535	229.37
785.716	198.65
785.897	194.56
786.079	157.69
786.26	120.83
786.441	143.36
786.623	174.08
786.804	182.27
786.985	194.56
787.167	126.97
787.348	131.07
787.529	151.55
787.71	176.13
787.891	223.23
788.073	172.03
788.254	157.69
788.435	114.69
788.616	122.88
788.797	174.08
788.978	198.65
789.159	126.97
789.34	190.46
789.522	149.5
789.703	116.73
789.884	188.41
790.065	196.6
790.246	102.4
790.427	161.79
790.607	204.8
790.788	180.22
790.969	77.82
791.15	262.14
791.331	188.41
791.512	165.89
791.693	133.12
791.874	114.69
792.054	77.82
792.235	163.84
792.416	182.27
792.597	73.73
792.778	131.07
792.958	200.7
793.139	86.01
793.32	194.56
793.5	157.69
793.681	106.49
793.862	137.21
794.042	45.06
794.223	34.82
794.404	141.31
794.584	106.49
794.765	92.16
794.945	94.21
795.126	112.64
795.306	110.59
795.487	120.83
795.667	65.53
795.848	118.78
796.028	133.12
796.209	114.69
796.389	96.25
796.57	147.45
796.75	122.88
796.93	90.11
797.111	106.49
797.291	96.25
797.471	153.6
797.652	104.45
797.832	16.38
798.012	108.54
798.192	83.97
798.373	126.97
798.553	88.06
798.733	114.69
798.913	169.98
799.093	106.49
799.274	26.62
799.454	131.07
799.634	90.11
799.814	124.93
799.994	20.48
800.174	94.21
800.354	75.77
800.534	88.06
800.714	55.3
800.894	38.91
801.074	126.97
801.254	20.48
801.434	24.58
801.614	149.5
801.794	53.25
801.974	282.62
802.154	4.1
802.334	57.34
802.514	20.48
802.693	124.93
802.873	114.69
803.053	122.88
803.233	55.3
803.413	71.68
803.592	98.3
803.772	65.53
803.952	81.92
804.131	69.63
804.311	55.3
804.491	40.96
804.67	69.63
804.85	98.3
805.03	28.67
805.209	90.11
805.389	43.01
805.568	12.29
805.748	63.49
805.928	16.38
806.107	40.96
806.287	110.59
806.466	98.3
806.646	92.16
806.825	112.64
807.004	94.21
807.184	-38.91
807.363	90.11
807.543	36.86
807.722	126.97
807.901	24.58
808.081	90.11
808.26	73.73
808.439	104.45
808.619	116.73
808.798	65.53
808.977	63.49
809.156	51.2
809.336	79.87
809.515	57.34
809.694	104.45
809.873	59.39
810.052	30.72
810.231	133.12
810.411	22.53
810.59	106.49
810.769	100.35
810.948	61.44
811.127	116.73
811.306	53.25
811.485	86.01
811.664	77.82
811.843	-2.05
812.022	49.15
812.201	40.96
812.38	40.96
812.559	133.12
812.737	88.06
812.916	2.05
813.095	-2.05
813.274	45.06
813.453	32.77
813.632	16.38
813.811	51.2
813.989	53.25
814.168	81.92
814.347	-26.62
814.526	61.44
814.704	110.59
814.883	26.62
815.062	36.86
815.24	-0
815.419	-6.14
815.598	114.69
815.776	45.06
815.955	-38.91
816.133	100.35
816.312	2.05
816.49	-10.24
816.669	55.3
816.847	90.11
817.026	-2.05
817.204	28.67
817.383	94.21
817.561	24.58
817.74	40.96
817.918	36.86
818.097	14.34
818.275	20.48
818.453	118.78
818.632	40.96
818.81	88.06
818.988	40.96
819.167	34.82
819.345	129.02
819.523	92.16
819.701	24.58
819.879	2.05
820.058	16.38
820.236	63.49
820.414	-36.86
820.592	83.97
820.77	63.49
820.948	49.15
821.127	40.96
821.305	73.73
821.483	63.49
821.661	67.58
821.839	18.43
822.017	77.82
822.195	57.34
822.373	92.16
822.551	-32.77
822.729	32.77
822.907	-16.38
823.085	83.97
823.262	-38.91
823.44	36.86
823.618	43.01
823.796	-49.15
823.974	47.1
824.152	-22.53
824.329	75.77
824.507	26.62
824.685	24.58
824.863	43.01
825.04	59.39
825.218	36.86
825.396	34.82
825.574	47.1
825.751	79.87
825.929	40.96
826.107	-28.67
826.284	30.72
826.462	57.34
826.639	75.77
826.817	-30.72
826.994	-32.77
827.172	51.2
827.349	51.2
827.527	-16.38
827.704	-0
827.882	30.72
828.059	90.11
828.237	-2.05
828.414	38.91
828.591	8.19
828.769	8.19
828.946	-51.2
829.124	24.58
829.301	22.53
829.478	-34.82
829.655	12.29
829.833	47.1
830.01	-14.34
830.187	14.34
830.364	-18.43
830.542	10.24
830.719	65.53
830.896	8.19
831.073	28.67
831.25	24.58
831.427	51.2
831.604	-12.29
831.782	-12.29
831.959	38.91
832.136	61.44
832.313	57.34
832.49	12.29
832.667	10.24
832.844	-47.1
833.021	38.91
833.198	49.15
833.374	71.68
833.551	28.67
833.728	110.59
833.905	-36.86
834.082	-61.44
834.259	-20.48
834.436	20.48
834.612	-12.29
834.789	55.3
834.966	8.19
835.143	86.01
835.319	-24.58
835.496	34.82
835.673	-4.1
835.85	90.11
836.026	73.73
836.203	28.67
836.38	-75.77
836.556	24.58
836.733	-18.43
836.909	40.96
837.086	-32.77
837.262	-20.48
837.439	22.53
837.616	32.77
837.792	18.43
837.968	57.34
838.145	-26.62
838.321	-14.34
838.498	61.44
838.674	69.63
838.851	-4.1
839.027	-18.43
839.203	71.68
839.38	49.15
839.556	8.19
839.732	59.39
839.909	-0
840.085	59.39
840.261	45.06
840.437	4.1
840.614	-12.29
840.79	77.82
840.966	-10.24
841.142	8.19
841.318	61.44
841.494	81.92
841.671	20.48
841.847	-67.58
842.023	-32.77
842.199	51.2
842.375	20.48
842.551	-51.2
842.727	6.14
842.903	26.62
843.079	-14.34
843.255	-22.53
843.431	28.67
843.607	-10.24
843.783	4.1
843.959	-6.14
844.134	-6.14
844.31	-14.34
844.486	-40.96
844.662	-47.1
844.838	2.05
845.013	43.01
845.189	14.34
845.365	10.24
845.541	18.43
845.716	69.63
845.892	4.1
846.068	-47.1
846.244	-16.38
846.419	-6.14
846.595	59.39
846.77	-14.34
846.946	8.19
847.122	49.15
847.297	-14.34
847.473	10.24
847.648	43.01
847.824	36.86
847.999	12.29
848.175	12.29
848.35	65.53
848.526	16.38
848.701	34.82
848.876	59.39
849.052	51.2
849.227	24.58
849.403	-49.15
849.578	18.43
849.753	-40.96
849.929	32.77
850.104	-30.72
850.279	59.39
850.454	30.72
850.63	24.58
850.805	-67.58
850.98	38.91
851.155	-24.58
851.33	4.1
851.505	-30.72
851.681	45.06
851.856	-14.34
852.031	36.86
852.206	-8.19
852.381	-36.86
852.556	16.38
852.731	26.62
852.906	-57.34
853.081	49.15
853.256	-22.53
853.431	2.05
853.606	51.2
853.781	18.43
853.956	-12.29
854.131	14.34
854.305	-28.67
854.48	36.86
854.655	-8.19
854.83	4.1
855.005	-57.34
855.18	51.2
855.354	-24.58
855.529	-77.82
855.704	20.48
855.879	14.34
856.053	2.05
856.228	-51.2
856.403	-57.34
856.577	-30.72
856.752	26.62
856.926	-28.67
857.101	14.34
857.276	-0
857.45	-18.43
857.625	-8.19
857.799	-10.24
857.974	-40.96
858.148	-28.67
858.323	32.77
858.497	-49.15
858.672	-55.3
858.846	-65.54
859.02	28.67
859.195	-8.19
859.369	43.01
859.543	16.38
859.718	-57.34
859.892	-24.58
860.066	55.3
860.241	-2.05
860.415	-55.3
860.589	-38.91
860.763	8.19
860.938	22.53
861.112	16.38
861.286	-96.25
861.46	26.62
861.634	28.67
861.808	16.38
861.982	-34.82
862.157	106.49
862.331	-4.1
862.505	-40.96
862.679	36.86
862.853	-14.34
863.027	-57.34
863.201	2.05
863.375	-22.53
863.549	-24.58
863.722	16.38
863.896	-43.01
864.07	-4.1
864.244	57.34
864.418	24.58
864.592	16.38
864.766	49.15
864.939	-30.72
865.113	8.19
865.287	22.53
865.461	-92.16
865.634	18.43
865.808	-114.69
865.982	67.58
866.156	-59.39
866.329	-28.67
866.503	24.58
866.676	-0
866.85	22.53
867.024	-20.48
867.197	-8.19
867.371	-0
867.544	14.34
867.718	-16.38
867.891	38.91
868.065	45.06
868.238	16.38
868.412	45.06
868.585	-12.29
868.759	6.14
868.932	-32.77
869.105	-65.54
869.279	-8.19
869.452	14.34
869.625	16.38
869.799	40.96
869.972	-38.91
870.145	55.3
870.319	-2.05
870.492	-18.43
870.665	-47.1
870.838	-32.77
871.011	-34.82
871.185	-12.29
871.358	-18.43
871.531	22.53
871.704	28.67
871.877	36.86
872.05	16.38
872.223	-65.54
872.396	71.68
872.569	-10.24
872.742	-26.62
872.915	-24.58
873.088	40.96
873.261	28.67
873.434	-45.06
873.607	-14.34
873.78	-0
873.953	-45.06
874.126	-14.34
874.299	32.77
874.471	-26.62
874.644	10.24
874.817	59.39
874.99	32.77
875.163	20.48
875.335	51.2
875.508	-92.16
875.681	94.21
875.853	-30.72
876.026	-69.63
876.199	10.24
876.371	-14.34
876.544	4.1
876.717	83.97
876.889	-10.24
877.062	-10.24
877.234	-26.62
877.407	-0
877.579	24.58
877.752	-22.53
877.924	28.67
878.097	-28.67
878.269	32.77
878.442	24.58
878.614	-26.62
878.786	-14.34
878.959	63.49
879.131	22.53
879.303	-38.91
879.476	-24.58
879.648	-24.58
879.82	-6.14
879.993	-88.06
880.165	-8.19
880.337	-30.72
880.509	61.44
880.681	-77.82
880.854	-4.1
881.026	-86.01
881.198	16.38
881.37	-0
881.542	24.58
881.714	-34.82
881.886	36.86
882.058	22.53
882.23	28.67
882.402	-40.96
882.574	-32.77
882.746	63.49
882.918	-8.19
883.09	12.29
883.262	-51.2
883.434	10.24
883.606	-24.58
883.778	-18.43
883.95	12.29
884.122	-28.67
884.293	71.68
884.465	-32.77
884.637	-6.14
884.809	-30.72
884.98	-88.06
885.152	-0
885.324	-63.49
885.496	51.2
885.667	-14.34
885.839	-47.1
886.011	61.44
886.182	-32.77
886.354	53.25
886.525	-32.77
886.697	2.05
886.869	-55.3
887.04	2.05
887.212	10.24
887.383	-49.15
887.555	-73.73
887.726	-69.63
887.897	-47.1
888.069	20.48
888.24	-20.48
888.412	20.48
888.583	-47.1
888.754	-45.06
888.926	-8.19
889.097	71.68
889.268	-20.48
889.44	-18.43
889.611	2.05
889.782	-14.34
889.953	-53.25
890.125	-16.38
890.296	-6.14
890.467	40.96
890.638	8.19
890.809	-2.05
890.98	-77.82
891.151	-20.48
891.323	26.62
891.494	-49.15
891.665	-47.1
891.836	51.2
892.007	16.38
892.178	-2.05
892.349	-20.48
892.52	-59.39
892.691	-20.48
892.862	-6.14
893.032	6.14
893.203	-36.86
893.374	-34.82
893.545	14.34
893.716	-6.14
893.887	-61.44
894.057	-14.34
894.228	-24.58
894.399	-110.59
894.57	112.64
894.74	75.77
894.911	8.19
895.082	14.34
895.253	-61.44
895.423	-96.25
895.594	-0
895.764	-10.24
895.935	-32.77
896.106	-0
896.276	47.1
896.447	30.72
896.617	8.19
896.788	-16.38
896.958	63.49
897.129	20.48
897.299	-32.77
897.47	-36.86
897.64	-14.34
897.81	-18.43
897.981	-24.58
898.151	-10.24
898.322	-6.14
898.492	-36.86
898.662	10.24
898.832	-8.19
899.003	26.62
899.173	-4.1
899.343	22.53
899.513	-73.73
