Data from USB4F104151__62__12-54-09-483.txt Node

Date: Fri Mar 14 12:54:09 EDT 2025
User: louis
Spectrometer: USB4F10415
Trigger mode: 4
Integration Time (sec): 1.000000E-2
Scans to average: 1
Electric dark correction enabled: true
Nonlinearity correction enabled: false
Boxcar width: 0
XAxis mode: Wavelengths
Number of Pixels in Spectrum: 3648
>>>>>Begin Spectral Data<<<<<
178.204	-29.52
178.424	-29.52
178.644	-29.52
178.864	-52.05
179.084	-27.48
179.304	-17.24
179.524	7.34
179.744	15.53
179.964	-39.76
180.184	13.48
180.404	-2.9
180.624	19.63
180.844	-21.33
181.064	21.67
181.283	-9.05
181.503	19.63
181.723	-7
181.943	-23.38
182.163	17.58
182.383	-41.81
182.602	-47.96
182.822	93.35
183.042	-21.33
183.262	60.59
183.482	3.24
183.701	-37.72
183.921	-62.29
184.141	-31.57
184.361	9.39
184.58	5.29
184.8	-52.05
185.02	-0.85
185.239	85.16
185.459	5.29
185.679	23.72
185.898	3.24
186.118	42.15
186.338	21.67
186.557	-11.09
186.777	-2.9
186.997	-2.9
187.216	-15.19
187.436	7.34
187.655	27.82
187.875	76.97
188.095	-13.14
188.314	74.92
188.534	17.58
188.753	-23.38
188.973	-13.14
189.192	42.15
189.412	-11.09
189.631	42.15
189.851	-11.09
190.07	50.35
190.29	-31.57
190.509	42.15
190.729	-0.85
190.948	11.43
191.168	68.78
191.387	5.29
191.607	29.87
191.826	62.63
192.045	-11.09
192.265	38.06
192.484	-11.09
192.704	58.54
192.923	-35.67
193.142	46.25
193.362	17.58
193.581	46.25
193.8	70.83
194.02	5.29
194.239	36.01
194.458	-2.9
194.678	17.58
194.897	42.15
195.116	19.63
195.335	38.06
195.555	29.87
195.774	-23.38
195.993	11.43
196.212	-27.48
196.432	17.58
196.651	23.72
196.87	19.63
197.089	23.72
197.308	-7
197.528	3.24
197.747	11.43
197.966	-29.52
198.185	44.2
198.404	23.72
198.623	7.34
198.842	-25.43
199.062	52.39
199.281	85.16
199.5	19.63
199.719	19.63
199.938	50.35
200.157	3.24
200.376	1.19
200.595	17.58
200.814	-13.14
201.033	-35.67
201.252	-13.14
201.471	21.67
201.69	81.07
201.909	5.29
202.128	54.44
202.347	74.92
202.566	33.96
202.785	68.78
203.004	25.77
203.223	19.63
203.442	-15.19
203.661	52.39
203.879	33.96
204.098	68.78
204.317	-0.85
204.536	1.19
204.755	79.02
204.974	-13.14
205.193	25.77
205.411	56.49
205.63	29.87
205.849	48.3
206.068	15.53
206.287	62.63
206.505	23.72
206.724	9.39
206.943	58.54
207.162	27.82
207.381	-21.33
207.599	29.87
207.818	29.87
208.037	62.63
208.255	3.24
208.474	38.06
208.693	17.58
208.911	-9.05
209.13	-7
209.349	36.01
209.567	52.39
209.786	17.58
210.005	66.73
210.223	62.63
210.442	36.01
210.661	3.24
210.879	-19.29
211.098	17.58
211.316	36.01
211.535	25.77
211.753	11.43
211.972	9.39
212.191	25.77
212.409	74.92
212.628	-23.38
212.846	54.44
213.065	11.43
213.283	19.63
213.502	-52.05
213.72	38.06
213.938	52.39
214.157	25.77
214.375	97.45
214.594	-13.14
214.812	25.77
215.031	50.35
215.249	52.39
215.467	36.01
215.686	-54.1
215.904	-4.95
216.122	-13.14
216.341	-4.95
216.559	91.31
216.778	-52.05
216.996	-17.24
217.214	-17.24
217.432	3.24
217.651	93.35
217.869	50.35
218.087	95.4
218.306	7.34
218.524	11.43
218.742	50.35
218.96	50.35
219.179	23.72
219.397	79.02
219.615	54.44
219.833	-4.95
220.051	66.73
220.27	-35.67
220.488	3.24
220.706	29.87
220.924	42.15
221.142	42.15
221.36	15.53
221.578	25.77
221.796	3.24
222.015	5.29
222.233	7.34
222.451	64.68
222.669	-2.9
222.887	60.59
223.105	66.73
223.323	54.44
223.541	44.2
223.759	-27.48
223.977	-23.38
224.195	13.48
224.413	33.96
224.631	-68.44
224.849	3.24
225.067	52.39
225.285	87.21
225.503	58.54
225.721	-13.14
225.939	19.63
226.157	38.06
226.375	79.02
226.592	19.63
226.81	5.29
227.028	44.2
227.246	9.39
227.464	54.44
227.682	19.63
227.9	-15.19
228.117	46.25
228.335	13.48
228.553	-13.14
228.771	79.02
228.989	5.29
229.206	-4.95
229.424	-7
229.642	25.77
229.86	-7
230.077	72.87
230.295	15.53
230.513	33.96
230.731	27.82
230.948	-4.95
231.166	-39.76
231.384	60.59
231.601	29.87
231.819	48.3
232.037	38.06
232.254	-52.05
232.472	33.96
232.689	-2.9
232.907	52.39
233.125	-29.52
233.342	38.06
233.56	-11.09
233.777	-19.29
233.995	-9.05
234.213	-47.96
234.43	62.63
234.648	-37.72
234.865	23.72
235.083	103.59
235.3	-41.81
235.518	79.02
235.735	-11.09
235.953	5.29
236.17	3.24
236.388	36.01
236.605	33.96
236.822	97.45
237.04	-29.52
237.257	-2.9
237.475	-47.96
237.692	-21.33
237.909	44.2
238.127	21.67
238.344	21.67
238.562	38.06
238.779	64.68
238.996	11.43
239.214	25.77
239.431	81.07
239.648	-21.33
239.865	15.53
240.083	33.96
240.3	66.73
240.517	46.25
240.735	33.96
240.952	13.48
241.169	29.87
241.386	19.63
241.603	3.24
241.821	5.29
242.038	-23.38
242.255	74.92
242.472	5.29
242.689	21.67
242.907	42.15
243.124	-35.67
243.341	11.43
243.558	58.54
243.775	-33.62
243.992	13.48
244.209	1.19
244.426	31.91
244.643	56.49
244.86	29.87
245.078	29.87
245.295	9.39
245.512	-21.33
245.729	74.92
245.946	-0.85
246.163	60.59
246.38	70.83
246.597	-21.33
246.814	50.35
247.031	76.97
247.248	36.01
247.464	-15.19
247.681	66.73
247.898	-15.19
248.115	33.96
248.332	66.73
248.549	7.34
248.766	101.55
248.983	1.19
249.2	54.44
249.417	-29.52
249.633	-54.1
249.85	85.16
250.067	-2.9
250.284	17.58
250.501	31.91
250.717	25.77
250.934	91.31
251.151	52.39
251.368	38.06
251.585	17.58
251.801	13.48
252.018	-72.53
252.235	70.83
252.451	42.15
252.668	42.15
252.885	13.48
253.102	-23.38
253.318	74.92
253.535	66.73
253.752	-19.29
253.968	-2.9
254.185	-72.53
254.401	99.5
254.618	1.19
254.835	-50
255.051	29.87
255.268	-27.48
255.484	7.34
255.701	50.35
255.917	52.39
256.134	-62.29
256.351	54.44
256.567	21.67
256.784	76.97
257	29.87
257.217	11.43
257.433	31.91
257.65	44.2
257.866	13.48
258.082	46.25
258.299	64.68
258.515	72.87
258.732	52.39
258.948	15.53
259.165	76.97
259.381	11.43
259.597	23.72
259.814	25.77
260.03	-4.95
260.246	-31.57
260.463	72.87
260.679	99.5
260.895	-25.43
261.112	-62.29
261.328	-35.67
261.544	38.06
261.761	68.78
261.977	68.78
262.193	93.35
262.409	79.02
262.626	52.39
262.842	44.2
263.058	44.2
263.274	-9.05
263.49	3.24
263.707	1.19
263.923	17.58
264.139	-39.76
264.355	11.43
264.571	85.16
264.787	31.91
265.004	9.39
265.22	72.87
265.436	38.06
265.652	109.74
265.868	74.92
266.084	-35.67
266.3	64.68
266.516	89.26
266.732	56.49
266.948	-25.43
267.164	62.63
267.38	52.39
267.596	60.59
267.812	1.19
268.028	-33.62
268.244	81.07
268.46	-23.38
268.676	17.58
268.892	58.54
269.108	50.35
269.324	50.35
269.54	-11.09
269.756	54.44
269.972	117.93
270.188	38.06
270.403	-0.85
270.619	-25.43
270.835	1.19
271.051	72.87
271.267	68.78
271.483	-2.9
271.698	-19.29
271.914	-50
272.13	46.25
272.346	33.96
272.562	72.87
272.777	-21.33
272.993	50.35
273.209	60.59
273.425	29.87
273.64	40.11
273.856	-31.57
274.072	31.91
274.287	15.53
274.503	122.02
274.719	52.39
274.934	48.3
275.15	-11.09
275.366	42.15
275.581	11.43
275.797	11.43
276.012	-21.33
276.228	11.43
276.444	68.78
276.659	21.67
276.875	27.82
277.09	13.48
277.306	27.82
277.521	-17.24
277.737	-13.14
277.952	134.31
278.168	29.87
278.383	93.35
278.599	36.01
278.814	122.02
279.03	-2.9
279.245	42.15
279.461	58.54
279.676	1.19
279.892	25.77
280.107	66.73
280.322	15.53
280.538	13.48
280.753	1.19
280.969	79.02
281.184	42.15
281.399	29.87
281.615	44.2
281.83	76.97
282.045	23.72
282.26	54.44
282.476	-4.95
282.691	17.58
282.906	76.97
283.122	97.45
283.337	38.06
283.552	27.82
283.767	60.59
283.983	48.3
284.198	9.39
284.413	48.3
284.628	-17.24
284.843	64.68
285.058	1.19
285.274	44.2
285.489	85.16
285.704	19.63
285.919	3.24
286.134	1.19
286.349	70.83
286.564	1.19
286.779	48.3
286.995	50.35
287.21	97.45
287.425	-17.24
287.64	-27.48
287.855	70.83
288.07	1.19
288.285	1.19
288.5	27.82
288.715	25.77
288.93	-43.86
289.145	-11.09
289.36	58.54
289.575	-15.19
289.79	38.06
290.004	66.73
290.219	40.11
290.434	87.21
290.649	42.15
290.864	72.87
291.079	29.87
291.294	-13.14
291.509	-0.85
291.724	29.87
291.938	-2.9
292.153	60.59
292.368	9.39
292.583	13.48
292.798	46.25
293.012	25.77
293.227	17.58
293.442	-21.33
293.657	11.43
293.871	44.2
294.086	-43.86
294.301	74.92
294.516	99.5
294.73	52.39
294.945	-17.24
295.16	7.34
295.374	-17.24
295.589	-15.19
295.804	-2.9
296.018	7.34
296.233	58.54
296.447	-7
296.662	76.97
296.877	33.96
297.091	36.01
297.306	9.39
297.52	58.54
297.735	38.06
297.949	54.44
298.164	46.25
298.378	23.72
298.593	33.96
298.807	3.24
299.022	3.24
299.236	85.16
299.451	-19.29
299.665	79.02
299.88	54.44
300.094	66.73
300.309	89.26
300.523	76.97
300.737	7.34
300.952	38.06
301.166	103.59
301.381	23.72
301.595	-37.72
301.809	25.77
302.024	58.54
302.238	11.43
302.452	36.01
302.667	38.06
302.881	23.72
303.095	15.53
303.309	21.67
303.524	148.65
303.738	38.06
303.952	19.63
304.166	66.73
304.381	-64.34
304.595	48.3
304.809	-7
305.023	38.06
305.237	29.87
305.452	60.59
305.666	-9.05
305.88	134.31
306.094	46.25
306.308	-52.05
306.522	-0.85
306.736	19.63
306.95	21.67
307.164	19.63
307.379	54.44
307.593	-2.9
307.807	79.02
308.021	50.35
308.235	3.24
308.449	38.06
308.663	21.67
308.877	29.87
309.091	11.43
309.305	-23.38
309.519	40.11
309.733	5.29
309.947	36.01
310.161	58.54
310.374	52.39
310.588	27.82
310.802	-54.1
311.016	79.02
311.23	-2.9
311.444	40.11
311.658	5.29
311.872	-19.29
312.085	38.06
312.299	58.54
312.513	-13.14
312.727	-0.85
312.941	-31.57
313.154	9.39
313.368	42.15
313.582	23.72
313.796	-37.72
314.009	21.67
314.223	79.02
314.437	-15.19
314.651	81.07
314.864	5.29
315.078	9.39
315.292	46.25
315.505	33.96
315.719	50.35
315.933	3.24
316.146	58.54
316.36	-15.19
316.573	64.68
316.787	74.92
317.001	76.97
317.214	-2.9
317.428	9.39
317.641	66.73
317.855	11.43
318.068	21.67
318.282	40.11
318.495	74.92
318.709	-2.9
318.922	29.87
319.136	-25.43
319.349	99.5
319.563	9.39
319.776	48.3
319.99	46.25
320.203	91.31
320.417	48.3
320.63	66.73
320.843	1.19
321.057	70.83
321.27	85.16
321.483	-31.57
321.697	17.58
321.91	79.02
322.124	36.01
322.337	-0.85
322.55	-37.72
322.763	72.87
322.977	42.15
323.19	29.87
323.403	130.22
323.617	27.82
323.83	58.54
324.043	54.44
324.256	-19.29
324.469	-7
324.683	13.48
324.896	-2.9
325.109	-68.44
325.322	87.21
325.535	-25.43
325.748	107.69
325.962	72.87
326.175	36.01
326.388	-4.95
326.601	25.77
326.814	107.69
327.027	-27.48
327.24	36.01
327.453	-33.62
327.666	9.39
327.879	62.63
328.092	27.82
328.305	3.24
328.518	9.39
328.731	-52.05
328.944	42.15
329.157	-7
329.37	128.17
329.583	111.78
329.796	113.83
330.009	17.58
330.222	46.25
330.435	-11.09
330.648	-0.85
330.861	-13.14
331.073	17.58
331.286	31.91
331.499	44.2
331.712	58.54
331.925	38.06
332.138	119.98
332.35	95.4
332.563	23.72
332.776	52.39
332.989	136.36
333.202	33.96
333.414	-0.85
333.627	64.68
333.84	7.34
334.053	17.58
334.265	7.34
334.478	13.48
334.691	29.87
334.903	-58.2
335.116	52.39
335.329	-11.09
335.541	13.48
335.754	91.31
335.966	60.59
336.179	17.58
336.392	11.43
336.604	54.44
336.817	46.25
337.029	54.44
337.242	29.87
337.454	60.59
337.667	23.72
337.88	38.06
338.092	29.87
338.305	36.01
338.517	15.53
338.729	52.39
338.942	50.35
339.154	76.97
339.367	-13.14
339.579	42.15
339.792	-7
340.004	3.24
340.217	48.3
340.429	-54.1
340.641	15.53
340.854	46.25
341.066	-15.19
341.278	68.78
341.491	44.2
341.703	-45.91
341.915	-27.48
342.128	79.02
342.34	-35.67
342.552	25.77
342.764	52.39
342.977	38.06
343.189	21.67
343.401	117.93
343.613	122.02
343.826	95.4
344.038	1.19
344.25	7.34
344.462	11.43
344.674	60.59
344.886	9.39
345.099	42.15
345.311	-13.14
345.523	52.39
345.735	-31.57
345.947	85.16
346.159	68.78
346.371	44.2
346.583	3.24
346.795	13.48
347.007	21.67
347.219	1.19
347.431	15.53
347.643	87.21
347.855	54.44
348.067	85.16
348.279	99.5
348.491	21.67
348.703	-4.95
348.915	52.39
349.127	70.83
349.339	40.11
349.551	-50
349.763	1.19
349.975	66.73
350.187	115.88
350.399	-47.96
350.61	52.39
350.822	38.06
351.034	38.06
351.246	87.21
351.458	48.3
351.669	-15.19
351.881	44.2
352.093	19.63
352.305	66.73
352.517	68.78
352.728	31.91
352.94	81.07
353.152	109.74
353.363	31.91
353.575	33.96
353.787	-0.85
353.999	36.01
354.21	52.39
354.422	44.2
354.633	48.3
354.845	58.54
355.057	36.01
355.268	19.63
355.48	74.92
355.692	54.44
355.903	122.02
356.115	105.64
356.326	-43.86
356.538	-15.19
356.749	76.97
356.961	85.16
357.172	54.44
357.384	-9.05
357.595	-7
357.807	9.39
358.018	13.48
358.23	99.5
358.441	107.69
358.653	36.01
358.864	17.58
359.075	19.63
359.287	15.53
359.498	9.39
359.709	68.78
359.921	25.77
360.132	70.83
360.344	36.01
360.555	58.54
360.766	70.83
360.977	83.11
361.189	19.63
361.4	40.11
361.611	66.73
361.823	19.63
362.034	17.58
362.245	-54.1
362.456	52.39
362.667	-15.19
362.879	-11.09
363.09	40.11
363.301	-2.9
363.512	-15.19
363.723	87.21
363.935	87.21
364.146	36.01
364.357	-4.95
364.568	27.82
364.779	15.53
364.99	38.06
365.201	-17.24
365.412	83.11
365.623	15.53
365.834	85.16
366.045	46.25
366.256	9.39
366.467	17.58
366.678	46.25
366.889	76.97
367.1	50.35
367.311	-4.95
367.522	76.97
367.733	58.54
367.944	19.63
368.155	50.35
368.366	25.77
368.577	72.87
368.788	3.24
368.999	21.67
369.209	40.11
369.42	54.44
369.631	115.88
369.842	62.63
370.053	25.77
370.264	-21.33
370.474	52.39
370.685	85.16
370.896	54.44
371.107	7.34
371.317	54.44
371.528	21.67
371.739	9.39
371.95	25.77
372.16	83.11
372.371	36.01
372.582	68.78
372.792	13.48
373.003	68.78
373.214	27.82
373.424	-50
373.635	48.3
373.846	-13.14
374.056	44.2
374.267	19.63
374.477	42.15
374.688	70.83
374.898	-19.29
375.109	128.17
375.319	70.83
375.53	58.54
375.74	76.97
375.951	50.35
376.161	42.15
376.372	48.3
376.582	74.92
376.793	42.15
377.003	-7
377.214	62.63
377.424	-27.48
377.635	62.63
377.845	21.67
378.055	83.11
378.266	31.91
378.476	76.97
378.686	23.72
378.897	13.48
379.107	40.11
379.317	68.78
379.528	48.3
379.738	58.54
379.948	25.77
380.158	17.58
380.369	70.83
380.579	91.31
380.789	-4.95
380.999	62.63
381.21	-2.9
381.42	44.2
381.63	-9.05
381.84	5.29
382.05	13.48
382.261	33.96
382.471	48.3
382.681	36.01
382.891	62.63
383.101	46.25
383.311	-25.43
383.521	-15.19
383.731	58.54
383.941	70.83
384.151	9.39
384.361	27.82
384.571	68.78
384.781	56.49
384.991	119.98
385.201	29.87
385.411	23.72
385.621	-11.09
385.831	19.63
386.041	58.54
386.251	-64.34
386.461	3.24
386.671	52.39
386.881	29.87
387.091	36.01
387.301	7.34
387.511	17.58
387.72	95.4
387.93	58.54
388.14	5.29
388.35	38.06
388.56	38.06
388.769	21.67
388.979	62.63
389.189	52.39
389.399	23.72
389.609	-2.9
389.818	40.11
390.028	74.92
390.238	46.25
390.447	38.06
390.657	105.64
390.867	105.64
391.076	52.39
391.286	95.4
391.496	91.31
391.705	58.54
391.915	83.11
392.125	60.59
392.334	62.63
392.544	62.63
392.753	85.16
392.963	33.96
393.172	119.98
393.382	74.92
393.591	95.4
393.801	29.87
394.01	91.31
394.22	25.77
394.429	38.06
394.639	66.73
394.848	128.17
395.058	29.87
395.267	70.83
395.477	122.02
395.686	113.83
395.895	29.87
396.105	93.35
396.314	52.39
396.524	101.55
396.733	66.73
396.942	23.72
397.152	85.16
397.361	103.59
397.57	23.72
397.78	126.12
397.989	19.63
398.198	124.07
398.407	-29.52
398.617	-15.19
398.826	25.77
399.035	60.59
399.244	150.7
399.453	150.7
399.663	107.69
399.872	95.4
400.081	97.45
400.29	50.35
400.499	97.45
400.708	156.84
400.917	40.11
401.127	136.36
401.336	85.16
401.545	89.26
401.754	144.55
401.963	87.21
402.172	52.39
402.381	97.45
402.59	42.15
402.799	107.69
403.008	46.25
403.217	128.17
403.426	93.35
403.635	136.36
403.844	111.78
404.053	46.25
404.262	81.07
404.471	95.4
404.68	117.93
404.888	87.21
405.097	136.36
405.306	66.73
405.515	128.17
405.724	42.15
405.933	175.27
406.142	64.68
406.35	136.36
406.559	124.07
406.768	46.25
406.977	201.9
407.185	95.4
407.394	54.44
407.603	87.21
407.812	148.65
408.02	171.18
408.229	136.36
408.438	130.22
408.646	134.31
408.855	130.22
409.064	148.65
409.272	138.41
409.481	208.04
409.69	154.79
409.898	165.03
410.107	244.9
410.315	140.46
410.524	212.14
410.733	158.89
410.941	242.85
411.15	287.91
411.358	183.46
411.567	271.53
411.775	298.15
411.984	261.29
412.192	287.91
412.401	218.28
412.609	312.49
412.818	347.3
413.026	283.81
413.234	375.97
413.443	324.77
413.651	361.64
413.86	423.08
414.068	318.63
414.276	406.69
414.485	371.88
414.693	423.08
414.901	425.12
415.11	447.65
415.318	369.83
415.526	554.15
415.734	439.46
415.943	431.27
416.151	502.95
416.359	464.04
416.567	535.71
416.776	525.47
416.984	634.02
417.192	601.25
417.4	574.63
417.608	588.96
417.817	572.58
418.025	670.88
418.233	730.27
418.441	681.12
418.649	744.61
418.857	732.32
419.065	707.74
419.273	791.71
419.481	826.53
419.689	937.12
419.897	918.68
420.105	890.01
420.313	939.16
420.521	943.26
420.729	1033.37
420.937	982.17
421.145	1107.1
421.353	1078.43
421.561	1215.64
421.769	1270.94
421.977	1318.04
422.185	1279.13
422.393	1297.56
422.601	1371.29
422.809	1399.96
423.017	1307.8
423.224	1438.87
423.432	1516.69
423.64	1600.66
423.848	1692.82
424.056	1617.04
424.263	1782.93
424.471	1784.98
424.679	1748.11
424.887	1959.05
425.094	1957
425.302	1952.91
425.51	1934.48
425.718	2018.44
425.925	2065.55
426.133	2202.76
426.341	2145.42
426.548	2442.37
426.756	2385.03
426.964	2348.17
427.171	2548.87
427.379	2630.79
427.586	2768
427.794	2684.03
428.001	2899.07
428.209	3032.19
428.417	2950.27
428.624	3185.79
428.832	3128.44
429.039	3134.59
429.247	3050.62
429.454	3392.63
429.662	3720.31
429.869	3359.86
430.076	3679.35
430.284	3538.04
430.491	3722.35
430.699	4043.88
430.906	3933.29
431.114	4070.51
431.321	4242.54
431.528	4226.15
431.736	4578.4
431.943	4666.47
432.15	4592.74
432.358	4678.76
432.565	4899.94
432.772	4916.32
432.979	5168.22
433.187	5303.39
433.394	5305.43
433.601	5702.74
433.808	5481.56
434.016	5678.16
434.223	5682.26
434.43	6196.3
434.637	5891.15
434.844	6571.08
435.052	6538.31
435.259	6663.24
435.466	6675.52
435.673	6519.88
435.88	7064.64
436.087	7347.26
436.294	7476.28
436.501	7156.8
436.708	7388.22
436.915	7629.88
437.122	7953.46
437.329	7955.51
437.537	8096.82
437.743	8145.97
437.95	8246.32
438.157	8686.63
438.364	8913.95
438.571	9059.36
438.778	9018.4
438.985	9903.12
439.192	9335.84
439.399	9767.96
439.606	9571.35
439.813	10003.47
440.02	10726.41
440.227	10423.31
440.433	10472.46
440.64	10630.15
440.847	10734.6
441.054	11109.38
441.261	11770.87
441.467	11234.3
441.674	11725.82
441.881	12164.08
442.088	12168.18
442.294	11981.81
442.501	12448.75
442.708	12714.98
442.914	13130.72
443.121	13589.47
443.328	13079.52
443.534	14220.24
443.741	13835.22
443.948	13867.99
444.154	14730.19
444.361	14709.71
444.568	14738.38
444.774	14635.98
444.981	14765
445.187	15377.34
445.394	15911.86
445.6	15868.86
445.807	17136.55
446.013	16495.53
446.22	16958.38
446.426	17537.95
446.633	17712.03
446.839	18258.84
447.046	17458.08
447.252	18559.89
447.459	18559.89
447.665	18482.06
447.871	19139.46
448.078	20368.24
448.284	19352.45
448.491	19766.14
448.697	20464.5
448.903	20732.78
449.11	21050.22
449.316	20351.86
449.522	21158.76
449.728	21291.88
449.935	21531.49
450.141	21592.93
450.347	21988.19
450.553	21472.1
450.76	21848.93
450.966	22465.36
451.172	22178.65
451.378	22713.17
451.584	22453.08
451.791	22922.06
451.997	22850.38
452.203	23153.48
452.409	23325.51
452.615	23358.28
452.821	22410.07
453.027	22190.94
453.233	23096.14
453.44	22231.9
453.646	22836.05
453.852	22520.66
454.058	23216.97
454.264	22315.86
454.47	23069.51
454.676	22387.54
454.882	23204.68
455.088	21295.97
455.294	21390.18
455.5	21924.7
455.705	21990.24
455.911	21345.12
456.117	20628.34
456.323	20499.31
456.529	19508.1
456.735	20188.02
456.941	19839.87
457.147	19504
457.352	19057.54
457.558	18596.75
457.764	18727.82
457.97	18350.99
458.176	18062.23
458.381	18088.85
458.587	17040.29
458.793	16960.42
458.999	15954.87
459.204	17490.85
459.41	16815.02
459.616	15793.08
459.821	15930.3
460.027	15889.34
460.233	15582.14
460.438	14705.61
460.644	14894.02
460.85	14353.36
461.055	13792.22
461.261	13882.33
461.466	12997.6
461.672	12469.23
461.878	13595.61
462.083	12495.85
462.289	12428.27
462.494	12186.61
462.7	11815.93
462.905	11457.53
463.111	11875.32
463.316	11957.24
463.522	11682.81
463.727	11928.56
463.932	11647.99
464.138	11678.71
464.343	11564.03
464.549	11254.78
464.754	11588.6
464.959	11500.54
465.165	11561.98
465.37	10882.05
465.575	10943.49
465.781	11258.88
465.986	11275.26
466.191	11068.42
466.397	10644.49
466.602	10226.7
466.807	10634.25
467.012	10644.49
467.218	10531.85
467.423	10318.86
467.628	10540.04
467.833	10923.01
468.038	10454.03
468.244	10105.87
468.449	10404.88
468.654	10449.93
468.859	10109.97
469.064	10167.31
469.269	9761.81
469.474	9845.78
469.679	10054.67
469.885	9862.16
470.09	10152.98
470.295	9755.67
470.5	9356.32
470.705	9579.54
470.91	9413.66
471.115	9286.68
471.32	9540.63
471.525	9196.57
471.73	9313.31
471.935	9143.33
472.139	8803.36
472.344	9045.02
472.549	8836.13
472.754	8696.87
472.959	8600.62
473.164	8369.19
473.369	8258.6
473.574	8772.64
473.778	8447.02
473.983	8287.28
474.188	8031.28
474.393	8111.15
474.598	7859.25
474.802	7715.89
475.007	7744.56
475.212	7791.67
475.417	7590.97
475.621	7509.05
475.826	7578.68
476.031	7439.42
476.235	7238.72
476.44	7390.27
476.645	7277.63
476.849	7214.14
477.054	7232.57
477.259	7113.79
477.463	6931.52
477.668	6822.98
477.872	6954.05
478.077	6831.17
478.282	6638.66
478.486	6714.44
478.691	6607.94
478.895	6745.16
479.1	6575.17
479.304	6521.93
479.509	6347.85
479.713	6669.38
479.918	6233.16
480.122	6288.46
480.326	6222.92
480.531	6425.67
480.735	6235.21
480.94	6104.14
481.144	6440.01
481.348	6038.61
481.553	6167.63
481.757	6089.81
481.961	6284.36
482.166	6159.44
482.37	6065.23
482.574	5973.07
482.778	6122.57
482.983	6046.8
483.187	6132.81
483.391	6134.86
483.595	6151.24
483.8	5946.45
484.004	6141
484.208	6157.39
484.412	5993.55
484.616	6347.85
484.821	6098
485.025	5868.63
485.229	6210.64
485.433	6036.56
485.637	6149.2
485.841	6093.9
486.045	5999.7
486.249	6042.7
486.453	6337.61
486.657	6233.16
486.861	6409.29
487.065	5983.31
487.269	6329.42
487.473	6057.04
487.677	6141
487.881	6261.84
488.085	6229.07
488.289	6255.69
488.493	6120.53
488.697	6353.99
488.901	6214.73
489.105	6372.43
489.309	6329.42
489.512	6415.43
489.716	6356.04
489.92	6386.76
490.124	6399.05
490.328	6489.16
490.531	6597.7
490.735	6562.89
490.939	6417.48
491.143	6638.66
491.346	6517.83
491.55	6653
491.754	6599.75
491.958	6630.47
492.161	6820.93
492.365	6696
492.569	6886.47
492.772	6648.9
492.976	6990.91
493.18	6820.93
493.383	6941.76
493.587	6978.62
493.79	7156.8
493.994	7029.82
494.197	7142.46
494.401	7130.17
494.605	7320.63
494.808	7480.38
495.012	7357.5
495.215	7533.62
495.419	7568.44
495.622	7562.3
495.825	7619.64
496.029	7724.08
496.232	8018.99
496.436	7851.06
496.639	8072.24
496.843	8197.17
497.046	8256.56
497.249	8205.36
497.453	8379.43
497.656	8506.41
497.859	8475.69
498.063	8633.38
498.266	8897.57
498.469	8797.22
498.673	9053.22
498.876	9034.78
499.079	9104.42
499.282	9151.52
499.485	9559.06
499.689	9548.82
499.892	9710.61
500.095	9745.43
500.298	9982.99
500.501	9911.32
500.705	10177.55
500.908	10269.71
501.111	10337.29
501.314	10585.1
501.517	10748.93
501.72	10814.47
501.923	10884.1
502.126	11113.47
502.329	11529.21
502.532	11447.29
502.735	11514.87
502.938	11815.93
503.141	11615.23
503.344	12100.59
503.547	11928.56
503.75	12162.03
503.953	12422.13
504.156	12534.76
504.359	12684.27
504.562	12827.62
504.765	13120.48
504.968	13210.59
505.17	13358.05
505.373	13319.14
505.576	13753.3
505.779	13751.26
505.982	14119.89
506.185	14443.47
506.387	14447.57
506.59	14633.93
506.793	15016.9
506.996	14824.39
507.198	15397.82
507.401	15311.81
507.604	15387.58
507.807	15788.99
508.009	15975.35
508.212	15905.72
508.415	16151.48
508.617	16516.01
508.82	16737.2
509.022	16526.25
509.225	17288.1
509.428	17357.73
509.63	17331.11
509.833	17558.43
510.035	18099.09
510.238	18060.18
510.44	18320.28
510.643	18400.15
510.845	18713.49
511.048	18832.27
511.25	19080.07
511.453	19135.37
511.655	19876.73
511.858	19608.45
512.06	20013.95
512.262	20364.15
512.465	20505.46
512.667	20773.74
512.87	21056.36
513.072	20892.52
513.274	21449.57
513.477	21617.5
513.679	21693.28
513.881	22004.57
514.084	22522.71
514.286	22238.04
514.488	22395.73
514.69	23104.33
514.893	23122.76
515.095	23434.05
515.297	23479.11
515.499	23718.72
515.701	24374.07
515.904	24150.84
516.106	24681.27
516.308	25027.37
516.51	25013.04
516.712	25191.21
516.914	25273.13
517.116	25535.27
517.318	25926.43
517.52	26235.67
517.722	26370.84
517.925	26620.69
518.127	26827.54
518.329	27167.5
518.531	27349.77
518.733	27736.84
518.935	27917.06
519.136	28261.12
519.338	28480.25
519.54	28553.97
519.742	28986.1
519.944	28836.59
520.146	29819.62
520.348	29809.38
520.55	29686.5
520.752	30010.08
520.954	30497.5
521.155	30286.56
521.357	30837.46
521.559	31034.07
521.761	31292.11
521.963	31206.09
522.164	31718.09
522.366	31793.86
522.568	31998.66
522.77	32199.36
522.971	33174.19
523.173	32473.79
523.375	33116.85
523.576	32983.73
523.778	32789.17
523.98	33563.31
524.181	33901.22
524.383	33649.32
524.584	34058.91
524.786	33911.46
524.988	34206.37
525.189	34601.63
525.391	34884.25
525.592	35166.87
525.794	35127.95
525.995	35261.07
526.197	35353.23
526.398	35445.39
526.6	35938.95
526.801	35717.77
527.003	36084.36
527.204	36319.87
527.406	36348.54
527.607	36330.11
527.808	36350.59
528.01	36133.51
528.211	36778.62
528.412	36946.55
528.614	37171.83
528.815	36870.78
529.016	37286.51
529.218	37169.78
529.419	37524.08
529.62	37618.28
529.822	37270.13
530.023	37278.32
530.224	37730.92
530.425	37497.45
530.626	37411.44
530.828	37618.28
531.029	38296.16
531.23	38031.97
531.431	38054.5
531.632	38308.45
531.833	38298.21
532.035	38425.18
532.236	38425.18
532.437	38543.97
532.638	38124.13
532.839	38695.52
533.04	38859.35
533.241	38373.99
533.442	39314
533.643	38603.36
533.844	38953.56
534.045	39203.41
534.246	38918.74
534.447	38984.28
534.648	38896.22
534.849	39301.71
535.05	38709.85
535.251	39119.45
535.451	39234.13
535.652	38908.5
535.853	39418.45
536.054	39264.85
536.255	39144.02
536.456	38662.75
536.657	39752.27
536.857	39268.95
537.058	39176.79
537.259	39801.42
537.46	39330.39
537.66	38943.32
537.861	39707.21
538.062	39490.13
538.263	39592.53
538.463	39250.52
538.664	39498.32
538.865	39604.81
539.065	39807.56
539.266	39158.36
539.466	39567.95
539.667	39291.48
539.868	39989.83
540.068	39354.96
540.269	39721.55
540.469	39881.29
540.67	39379.54
540.87	40024.65
541.071	39518.8
541.271	39739.98
541.472	39907.91
541.672	39660.11
541.873	39907.91
542.073	39395.92
542.274	40290.88
542.474	40104.52
542.675	39688.78
542.875	40100.42
543.075	40051.27
543.276	39320.15
543.476	40272.45
543.676	39889.48
543.877	40143.43
544.077	39889.48
544.277	39869
544.478	40116.81
544.678	40049.22
544.878	40032.84
545.078	40282.69
545.279	39955.02
545.479	39998.02
545.679	40096.33
545.879	40391.23
546.079	40079.94
546.28	40024.65
546.48	39977.54
546.68	40180.29
546.88	40337.99
547.08	40305.22
547.28	40329.8
547.48	40180.29
547.68	39844.43
547.88	39823.95
548.081	40378.95
548.281	40170.05
548.481	39963.21
548.681	40411.71
548.881	39987.78
549.081	40272.45
549.28	39922.25
549.48	40041.03
549.68	40202.82
549.88	40550.98
550.08	40122.95
550.28	39950.92
550.48	39961.16
550.68	40288.84
550.88	39850.57
551.08	39873.1
551.279	40196.68
551.479	39692.88
551.679	40069.7
551.879	39860.81
552.079	40245.83
552.278	39854.67
552.478	40372.8
552.678	39991.88
552.878	40288.84
553.077	39793.23
553.277	39580.24
553.477	40438.34
553.676	39756.36
553.876	40106.57
554.076	40133.19
554.275	39692.88
554.475	39625.29
554.674	39981.64
554.874	39739.98
555.074	39916.11
555.273	39852.62
555.473	40491.58
555.672	39553.62
555.872	39975.5
556.071	40047.18
556.271	40407.62
556.47	39662.16
556.67	39404.11
556.869	39592.53
557.068	39873.1
557.268	39606.86
557.467	39789.13
557.667	39350.87
557.866	39682.64
558.065	39563.85
558.265	39549.52
558.464	39311.95
558.663	39676.49
558.863	39271
559.062	40190.53
559.261	39262.8
559.461	39664.21
559.66	38959.7
559.859	39764.56
560.058	39223.89
560.258	39576.14
560.457	39199.32
560.656	39717.45
560.855	39387.73
561.054	39457.36
561.253	39078.49
561.453	39524.94
561.652	39606.86
561.851	39354.96
562.05	39162.45
562.249	39146.07
562.448	39688.78
562.647	39344.72
562.846	39035.48
563.045	39373.39
563.244	39076.44
563.443	39596.62
563.642	38867.55
563.841	38953.56
564.04	38738.52
564.239	39490.13
564.438	38687.32
564.637	39127.64
564.836	39221.84
565.035	38503.01
565.234	39129.69
565.432	38842.97
565.631	38994.52
565.83	39088.73
566.029	38849.11
566.228	38840.92
566.427	38658.65
566.625	38756.96
566.824	38058.6
567.023	39252.56
567.222	38666.84
567.42	39033.43
567.619	38408.8
567.818	38664.8
568.016	38541.92
568.215	38742.62
568.414	38644.32
568.612	38861.4
568.811	38562.4
569.01	38519.39
569.208	38308.45
569.407	38423.14
569.605	38085.22
569.804	38548.06
570.002	38371.94
570.201	38353.51
570.4	38167.14
570.598	38539.87
570.797	37966.44
570.995	37767.79
571.193	37825.13
571.392	38050.41
571.59	37857.9
571.789	38060.65
571.987	37665.39
572.186	37892.71
572.384	37737.07
572.582	37814.89
572.781	38105.7
572.979	37218.93
573.177	37884.52
573.376	37687.92
573.574	37261.94
573.772	37491.31
573.971	37421.68
574.169	37106.29
574.367	37165.68
574.565	37149.3
574.763	36774.52
574.962	37032.57
575.16	36932.22
575.358	37048.95
575.556	36633.21
575.754	37159.54
575.952	36827.77
576.151	37020.28
576.349	36473.47
576.547	36725.37
576.745	36475.52
576.943	36356.74
577.141	36250.24
577.339	36491.9
577.537	36303.49
577.735	36684.41
577.933	35967.62
578.131	36151.94
578.329	35789.45
578.527	35844.74
578.725	35562.12
578.923	36022.92
579.121	35883.66
579.319	35734.15
579.516	35996.29
579.714	35902.09
579.912	35906.18
580.11	35367.57
580.308	35685
580.506	34998.93
580.704	34773.66
580.901	35119.76
581.099	35136.15
581.297	35000.98
581.495	34945.69
581.692	35238.54
581.89	34814.62
582.088	35105.43
582.285	34634.39
582.483	34945.69
582.681	34642.59
582.878	34605.72
583.076	34169.51
583.274	34937.49
583.471	34110.11
583.669	34515.61
583.866	33776.3
584.064	34544.28
584.262	34114.21
584.459	33985.19
584.657	33845.93
584.854	33923.75
585.052	33290.93
585.249	33798.82
585.447	33485.48
585.644	33596.07
585.841	33702.57
586.039	33237.68
586.236	32731.83
586.434	33180.34
586.631	33198.77
586.828	33262.26
587.026	33395.37
587.223	32697.02
587.42	32750.26
587.618	32770.74
587.815	32400.06
588.012	32572.09
588.21	32498.36
588.407	33059.51
588.604	32410.3
588.801	32275.13
588.999	32076.48
589.196	32146.11
589.393	32082.63
589.59	32162.5
589.787	31849.16
589.984	31972.03
590.182	31245.01
590.379	31683.27
590.576	31378.12
590.773	31591.11
590.97	31503.05
591.167	31505.1
591.364	31111.89
591.561	31308.49
591.758	31099.6
591.955	30950.1
592.152	31482.57
592.349	30806.74
592.546	30986.96
592.743	30749.4
592.94	30675.67
593.137	30661.33
593.334	30628.57
593.531	30124.77
593.727	30225.12
593.924	30495.45
594.121	30225.12
594.318	30427.87
594.515	29844.2
594.712	30141.15
594.908	29805.28
595.105	29850.34
595.302	29805.28
595.499	29901.54
595.696	29700.84
595.892	29084.4
596.089	29479.66
596.286	29426.41
596.482	29272.81
596.679	29473.51
596.876	29242.09
597.072	28902.13
597.269	28588.79
597.466	28680.95
597.662	28568.31
597.859	28785.4
598.055	28625.65
598.252	28670.71
598.448	28691.19
598.645	28320.51
598.841	27888.39
599.038	28236.54
599.234	28209.92
599.431	27951.87
599.627	27712.26
599.824	28119.81
600.02	27781.89
600.217	27984.64
600.413	27890.43
600.609	27529.99
600.806	27290.38
601.002	27456.26
601.198	27247.37
601.395	27114.25
601.591	27417.35
601.787	27058.96
601.984	26995.47
602.18	27482.89
602.376	26538.77
602.572	26598.16
602.769	26614.55
602.965	26256.15
603.161	26632.98
603.357	26520.34
603.553	26229.53
603.75	26471.19
603.946	26219.29
604.142	26237.72
604.338	25832.22
604.534	26133.28
604.73	25916.19
604.926	25668.39
605.122	25772.83
605.318	25815.84
605.514	25551.65
605.71	25516.84
605.906	25748.26
606.102	25252.65
606.298	25434.92
606.494	25445.16
606.69	25549.6
606.886	25250.6
607.082	25326.38
607.278	25148.2
607.474	24820.53
607.67	25162.54
607.866	24634.16
608.062	25228.07
608.257	24871.73
608.453	24914.73
608.649	24750.9
608.845	24380.21
609.041	24597.3
609.236	24615.73
609.432	24488.76
609.628	24740.66
609.824	24668.98
610.019	24177.47
610.215	24220.47
610.411	24693.55
610.606	24107.83
610.802	24163.13
610.998	23874.37
611.193	24066.88
611.389	23866.17
611.584	23905.09
611.78	23790.4
611.976	23864.13
612.171	23989.05
612.367	23872.32
612.562	23614.27
612.758	23487.3
612.953	23421.77
613.149	23847.74
613.344	23233.35
613.539	23475.01
613.735	23608.13
613.93	23372.61
614.126	23561.03
614.321	23487.3
614.517	23354.18
614.712	23288.65
614.907	23661.38
615.103	23360.33
615.298	23169.87
615.493	23442.24
615.688	22612.82
615.884	23710.53
616.079	22793.04
616.274	22889.29
616.47	22747.98
616.665	22829.9
616.86	22834
617.055	22696.78
617.25	22610.77
617.445	23026.51
617.641	22301.53
617.836	22526.8
618.031	22377.3
618.226	22461.27
618.421	21953.37
618.616	22248.28
618.811	22102.87
619.006	22455.12
619.201	21777.25
619.396	21977.95
619.591	21451.62
619.786	22109.02
619.981	21568.35
620.176	21742.43
620.371	21144.42
620.566	21328.74
620.761	21136.23
620.956	21400.42
621.151	21125.99
621.346	21078.89
621.541	20933.48
621.735	21072.75
621.93	20407.16
622.125	20900.72
622.32	20419.44
622.515	20519.79
622.709	20185.97
622.904	20325.24
623.099	20085.62
623.294	20095.86
623.488	19764.09
623.683	19805.05
623.878	19430.27
624.072	19739.52
624.267	19587.97
624.462	19606.4
624.656	18992.01
624.851	19172.23
625.046	19100.55
625.24	19262.34
625.435	18850.7
625.629	18992.01
625.824	18826.12
626.018	18643.85
626.213	18310.04
626.407	18334.61
626.602	18183.06
626.796	18201.49
626.991	18418.58
627.185	18215.83
627.38	17808.28
627.574	17841.05
627.768	17781.66
627.963	17548.19
628.157	17433.5
628.352	17458.08
628.546	17111.97
628.74	17308.58
628.935	17028.01
629.129	17267.62
629.323	16898.98
629.517	16757.67
629.712	16929.7
629.906	16890.79
630.1	16546.73
630.294	16475.06
630.489	16565.17
630.683	16888.74
630.877	16163.76
631.071	16118.71
631.265	16350.13
631.459	16071.61
631.653	15989.69
631.848	15989.69
632.042	15817.66
632.236	15989.69
632.43	15526.85
632.624	15795.13
632.818	15614.91
633.012	15360.96
633.206	15510.46
633.4	15121.35
633.594	15037.38
633.788	15102.92
633.982	15229.89
634.176	15076.29
634.369	15006.66
634.563	14685.13
634.757	14703.56
634.951	14746.57
635.145	14797.77
635.339	14615.5
635.533	14592.97
635.726	14353.36
635.92	14484.43
636.114	14408.65
636.308	13992.92
636.501	14068.69
636.695	14015.44
636.889	13960.15
637.083	14025.68
637.276	13655
637.47	13761.5
637.664	13667.29
637.857	13784.02
638.051	13470.69
638.244	13564.89
638.438	13505.5
638.632	13399.01
638.825	13310.94
639.019	13167.59
639.212	12981.22
639.406	13048.8
639.599	13157.35
639.793	12981.22
639.986	12735.46
640.18	12956.64
640.373	12717.03
640.567	12540.91
640.76	12692.46
640.954	12540.91
641.147	12585.96
641.34	12418.03
641.534	12471.28
641.727	12149.75
641.92	12096.5
642.114	12248.05
642.307	12112.88
642.5	12102.64
642.694	11877.37
642.887	11729.91
643.08	12012.53
643.273	11621.37
643.467	11539.45
643.66	11545.59
643.853	11691
644.046	11537.4
644.239	11316.22
644.432	11273.21
644.626	11287.55
644.819	11133.95
645.012	11269.12
645.205	11295.74
645.398	10949.64
645.591	10898.44
645.784	11078.66
645.977	10748.93
646.17	10873.86
646.363	10898.44
646.556	10597.38
646.749	10802.18
646.942	10572.81
647.135	10456.08
647.328	10468.36
647.521	10372.11
647.714	10273.81
647.907	10226.7
648.099	10298.38
648.292	10116.11
648.485	10071.06
648.678	10210.32
648.871	9939.99
649.064	9921.56
649.256	9825.3
649.449	9798.68
649.642	9630.74
649.835	9481.24
650.027	9554.97
650.22	9606.17
650.413	9454.62
650.605	9483.29
650.798	9546.78
650.991	9215.01
651.183	9419.8
651.376	9157.66
651.568	9290.78
651.761	9131.04
651.954	9114.66
652.146	9024.54
652.339	9032.74
652.531	9053.22
652.724	8754.21
652.916	8764.45
653.109	8746.02
653.301	8520.74
653.494	8670.25
653.686	8612.9
653.879	8533.03
654.071	8494.12
654.263	8633.38
654.456	8432.68
654.648	8336.43
654.84	8225.84
655.033	8336.43
655.225	8242.22
655.417	8168.49
655.61	8068.14
655.802	8195.12
655.994	7791.67
656.186	8014.9
656.379	7808.05
656.571	7838.77
656.763	7717.94
656.955	7926.83
657.148	7812.15
657.34	7779.38
657.532	7470.14
657.724	7797.81
657.916	7519.29
658.108	7541.82
658.3	7459.9
658.492	7281.72
658.684	7320.63
658.876	7343.16
659.068	7232.57
659.26	7154.75
659.452	7134.27
659.644	7287.87
659.836	7257.15
660.028	6839.36
660.22	6995.01
660.412	6896.71
660.604	6800.45
660.796	6872.13
660.988	6704.2
661.18	6526.02
661.372	6521.93
661.563	6577.22
661.755	6693.96
661.947	6640.71
662.139	6456.39
662.331	6329.42
662.522	6448.2
662.714	6317.13
662.906	6210.64
663.097	6290.51
663.289	6059.09
663.481	6120.53
663.673	6093.9
663.864	5985.36
664.056	5954.64
664.247	6036.56
664.439	5760.08
664.631	5901.39
664.822	5803.09
665.014	5723.22
665.205	5850.19
665.397	5807.19
665.588	5862.48
665.78	5760.08
665.971	5669.97
666.163	5540.95
666.354	5481.56
666.546	5524.57
666.737	5405.78
666.929	5418.07
667.12	5569.62
667.311	5428.31
667.503	5260.38
667.694	5463.13
667.885	5162.08
668.077	5252.19
668.268	5264.47
668.459	5143.64
668.651	4981.85
668.842	5063.77
669.033	5088.35
669.224	4940.9
669.416	4965.47
669.607	4969.57
669.798	5026.91
669.989	4885.6
670.18	4809.83
670.371	4879.46
670.563	4846.69
670.754	4787.3
670.945	4725.86
671.136	4764.77
671.327	4682.85
671.518	4564.07
671.709	4645.99
671.9	4727.91
672.091	4553.83
672.282	4568.16
672.473	4580.45
672.664	4564.07
672.855	4371.56
673.046	4467.81
673.237	4412.52
673.428	4410.47
673.619	4377.7
673.809	4324.46
674	4441.19
674.191	4328.55
674.382	4371.56
674.573	4353.13
674.764	4320.36
674.954	4283.5
675.145	4119.66
675.336	4179.05
675.527	4148.33
675.717	4154.48
675.908	3982.45
676.099	4119.66
676.289	4105.32
676.48	4039.79
676.671	4121.71
676.861	3984.49
677.052	3912.81
677.243	4062.32
677.433	3810.42
677.624	3964.01
677.814	3834.99
678.005	3900.53
678.195	3875.95
678.386	3916.91
678.576	3818.61
678.767	3771.51
678.957	3716.21
679.148	3751.03
679.338	3896.43
679.529	3710.07
679.719	3634.29
679.909	3779.7
680.1	3650.67
680.29	3775.6
680.481	3714.16
680.671	3712.11
680.861	3720.31
681.052	3693.68
681.242	3599.48
681.432	3677.3
681.622	3585.14
681.813	3605.62
682.003	3579
682.193	3527.8
682.383	3624.05
682.573	3499.13
682.764	3499.13
682.954	3503.22
683.144	3617.91
683.334	3437.69
683.524	3538.04
683.714	3447.93
683.904	3400.82
684.094	3298.42
684.284	3329.14
684.474	3437.69
684.664	3441.78
684.854	3415.16
685.044	3390.58
685.234	3445.88
685.424	3370.1
685.614	3521.65
685.804	3329.14
685.994	3409.01
686.184	3368.06
686.374	3282.04
686.564	3353.72
686.753	3382.39
686.943	3398.77
687.133	3343.48
687.323	3210.36
687.513	3345.53
687.702	3335.29
687.892	3306.62
688.082	3234.94
688.272	3294.33
688.461	3236.99
688.651	3212.41
688.841	3140.73
689.03	3265.66
689.22	3251.32
689.41	3187.83
689.599	3271.8
689.789	3073.15
689.979	3189.88
690.168	3267.7
690.358	3087.48
690.547	3191.93
690.737	3146.87
690.926	3241.08
691.116	3067
691.305	3155.07
691.495	3193.98
691.684	3103.87
691.874	3173.5
692.063	3116.16
692.252	3085.44
692.442	3071.1
692.631	3189.88
692.82	3122.3
693.01	3079.29
693.199	3073.15
693.388	3132.54
693.578	3101.82
693.767	3155.07
693.956	3021.95
694.146	2931.84
694.335	3015.8
694.524	3013.76
694.713	3040.38
694.902	3130.49
695.092	3007.61
695.281	2940.03
695.47	2888.83
695.659	2884.73
695.848	2997.37
696.037	2972.8
696.226	2892.93
696.415	2876.54
696.604	2835.58
696.793	2925.69
696.982	2829.44
697.171	2864.25
697.36	2929.79
697.549	2972.8
697.738	2831.49
697.927	2835.58
698.116	2856.06
698.305	2714.75
698.494	2817.15
698.683	2917.5
698.872	2868.35
699.061	2710.66
699.25	2702.47
699.438	2634.88
699.627	2724.99
699.816	2659.46
700.005	2675.84
700.193	2608.26
700.382	2659.46
700.571	2507.91
700.76	2585.73
700.948	2595.97
701.137	2542.72
701.326	2428.04
701.514	2606.21
701.703	2550.92
701.892	2522.24
702.08	2507.91
702.269	2503.81
702.457	2546.82
702.646	2395.27
702.834	2509.96
703.023	2464.9
703.212	2354.31
703.4	2509.96
703.589	2497.67
703.777	2331.78
703.965	2401.41
704.154	2356.36
704.342	2360.45
704.531	2339.97
704.719	2352.26
704.907	2335.88
705.096	2305.16
705.284	2405.51
705.472	2305.16
705.661	2321.54
705.849	2245.77
706.037	2210.95
706.226	2264.2
706.414	2354.31
706.602	2196.62
706.79	2237.58
706.979	2182.28
707.167	2184.33
707.355	2294.92
707.543	2227.34
707.731	2139.27
707.919	2057.36
708.107	2108.55
708.296	2165.9
708.484	2157.71
708.672	2225.29
708.86	2204.81
709.048	2086.03
709.236	2018.44
709.424	1942.67
709.612	2163.85
709.8	1922.19
709.988	2083.98
710.176	1914
710.364	2051.21
710.551	1971.34
710.739	2000.01
710.927	1995.92
711.115	2047.12
711.303	1973.39
711.491	1895.57
711.679	1979.53
711.866	1875.09
712.054	1866.89
712.242	1885.33
712.43	1903.76
712.617	1868.94
712.805	1825.93
712.993	1868.94
713.181	1844.37
713.368	1922.19
713.556	1977.48
713.744	1827.98
713.931	1838.22
714.119	1789.07
714.306	1776.78
714.494	1754.26
714.682	1739.92
714.869	1703.06
715.057	1737.87
715.244	1721.49
715.432	1778.83
715.619	1707.15
715.807	1705.1
715.994	1639.57
716.182	1754.26
716.369	1692.82
716.556	1692.82
716.744	1666.19
716.931	1672.34
717.119	1682.58
717.306	1606.8
717.493	1684.62
717.681	1645.71
717.868	1567.89
718.055	1600.66
718.242	1641.62
718.43	1543.32
718.617	1539.22
718.804	1584.27
718.991	1561.75
719.179	1606.8
719.366	1477.78
719.553	1578.13
719.74	1508.5
719.927	1516.69
720.114	1490.07
720.301	1496.21
720.488	1533.08
720.676	1459.35
720.863	1492.12
721.05	1365.14
721.237	1440.92
721.424	1461.4
721.611	1416.34
721.798	1391.77
721.985	1481.88
722.172	1369.24
722.358	1356.95
722.545	1373.33
722.732	1395.86
722.919	1336.47
723.106	1363.09
723.293	1328.28
723.48	1277.08
723.667	1350.81
723.853	1324.18
724.04	1295.51
724.227	1252.5
724.414	1356.95
724.6	1268.89
724.787	1402.01
724.974	1303.7
725.161	1270.94
725.347	1297.56
725.534	1281.18
725.72	1162.39
725.907	1221.78
726.094	1264.79
726.28	1193.11
726.467	1178.78
726.653	1199.26
726.84	1184.92
727.027	1254.55
727.213	1189.02
727.4	1168.54
727.586	1281.18
727.773	1182.87
727.959	1107.1
728.145	1141.91
728.332	1197.21
728.518	1152.15
728.705	1152.15
728.891	1211.54
729.077	1152.15
729.264	1168.54
729.45	1143.96
729.636	1057.95
729.823	1105.05
730.009	1129.63
730.195	1084.57
730.382	1158.3
730.568	1133.72
730.754	1100.95
730.94	994.46
731.126	1086.62
731.313	1131.67
731.499	1105.05
731.685	1086.62
731.871	1000.6
732.057	1025.18
732.243	1062.04
732.429	1016.99
732.615	978.08
732.801	1031.32
732.987	1004.7
733.173	1004.7
733.359	959.64
733.545	986.27
733.731	922.78
733.917	1002.65
734.103	996.51
734.289	902.3
734.475	924.83
734.661	902.3
734.847	1031.32
735.033	937.12
735.219	937.12
735.404	894.11
735.59	855.2
735.776	978.08
735.962	910.49
736.148	933.02
736.333	955.55
736.519	926.88
736.705	857.25
736.89	920.73
737.076	818.33
737.262	871.58
737.447	834.72
737.633	910.49
737.819	887.97
738.004	830.62
738.19	900.25
738.375	885.92
738.561	840.86
738.747	918.68
738.932	793.76
739.118	900.25
739.303	808.09
739.489	877.73
739.674	808.09
739.859	887.97
740.045	857.25
740.23	810.14
740.416	722.08
740.601	834.72
740.786	738.46
740.972	885.92
741.157	810.14
741.342	722.08
741.528	750.75
741.713	783.52
741.898	699.55
742.084	795.81
742.269	826.53
742.454	777.37
742.639	760.99
742.824	722.08
743.01	736.42
743.195	738.46
743.38	756.9
743.565	705.7
743.75	640.16
743.935	713.89
744.12	650.4
744.305	683.17
744.49	730.27
744.675	713.89
744.86	705.7
745.045	715.94
745.23	732.32
745.415	715.94
745.6	685.22
745.785	660.64
745.97	722.08
746.155	687.26
746.34	644.26
746.525	709.79
746.71	646.3
746.895	599.2
747.079	650.4
747.264	611.49
747.449	683.17
747.634	597.15
747.819	621.73
748.003	582.82
748.188	648.35
748.373	525.47
748.557	537.76
748.742	605.35
748.927	621.73
749.111	603.3
749.296	535.71
749.481	574.63
749.665	634.02
749.85	550.05
750.034	570.53
750.219	658.59
750.404	584.87
750.588	537.76
750.773	566.43
750.957	529.57
751.141	478.37
751.326	560.29
751.51	525.47
751.695	607.39
751.879	519.33
752.064	625.83
752.248	611.49
752.432	548
752.617	566.43
752.801	529.57
752.985	537.76
753.17	568.48
753.354	443.56
753.538	537.76
753.722	519.33
753.907	521.38
754.091	525.47
754.275	478.37
754.459	515.23
754.643	388.26
754.828	484.52
755.012	500.9
755.196	537.76
755.38	484.52
755.564	492.71
755.748	402.6
755.932	476.32
756.116	423.08
756.3	484.52
756.484	382.12
756.668	412.84
756.852	410.79
757.036	480.42
757.22	472.23
757.404	418.98
757.588	459.94
757.772	468.13
757.956	427.17
758.14	468.13
758.323	443.56
758.507	441.51
758.691	412.84
758.875	429.22
759.059	492.71
759.242	537.76
759.426	410.79
759.61	380.07
759.794	371.88
759.977	486.56
760.161	488.61
760.345	388.26
760.528	388.26
760.712	455.84
760.895	347.3
761.079	461.99
761.263	394.4
761.446	390.31
761.63	445.6
761.813	400.55
761.997	392.36
762.18	396.45
762.364	431.27
762.547	408.74
762.731	351.4
762.914	431.27
763.098	345.25
763.281	347.3
763.464	406.69
763.648	353.45
763.831	380.07
764.015	390.31
764.198	382.12
764.381	408.74
764.564	388.26
764.748	369.83
764.931	410.79
765.114	392.36
765.297	408.74
765.481	392.36
765.664	373.92
765.847	394.4
766.03	386.21
766.213	339.11
766.397	357.54
766.58	429.22
766.763	373.92
766.946	353.45
767.129	388.26
767.312	308.39
767.495	373.92
767.678	308.39
767.861	347.3
768.044	349.35
768.227	378.02
768.41	369.83
768.593	324.77
768.776	265.38
768.959	347.3
769.142	300.2
769.324	322.73
769.507	347.3
769.69	345.25
769.873	382.12
770.056	382.12
770.239	269.48
770.421	302.25
770.604	386.21
770.787	261.29
770.97	378.02
771.152	347.3
771.335	337.06
771.518	283.81
771.7	318.63
771.883	365.73
772.066	273.57
772.248	339.11
772.431	367.78
772.613	359.59
772.796	353.45
772.978	353.45
773.161	410.79
773.343	306.34
773.526	285.86
773.708	335.01
773.891	191.66
774.073	353.45
774.256	249
774.438	351.4
774.621	277.67
774.803	363.69
774.985	292.01
775.168	361.64
775.35	289.96
775.532	328.87
775.715	349.35
775.897	339.11
776.079	265.38
776.261	335.01
776.444	244.9
776.626	326.82
776.808	304.29
776.99	283.81
777.173	296.1
777.355	347.3
777.537	316.58
777.719	349.35
777.901	330.92
778.083	306.34
778.265	273.57
778.447	285.86
778.629	283.81
778.811	312.49
778.993	312.49
779.175	294.05
779.357	269.48
779.539	244.9
779.721	181.42
779.903	210.09
780.085	263.33
780.267	259.24
780.449	240.81
780.631	246.95
780.812	242.85
780.994	298.15
781.176	222.38
781.358	177.32
781.54	228.52
781.721	199.85
781.903	240.81
782.085	251.05
782.267	218.28
782.448	208.04
782.63	208.04
782.812	316.58
782.993	167.08
783.175	322.73
783.357	142.5
783.538	257.19
783.72	205.99
783.901	283.81
784.083	242.85
784.264	173.22
784.446	181.42
784.627	165.03
784.809	228.52
784.99	234.66
785.172	191.66
785.353	205.99
785.535	177.32
785.716	160.94
785.897	205.99
786.079	210.09
786.26	238.76
786.441	152.74
786.623	214.18
786.804	199.85
786.985	279.72
787.167	169.13
787.348	152.74
787.529	187.56
787.71	240.81
787.891	117.93
788.073	195.75
788.254	193.7
788.435	197.8
788.616	169.13
788.797	70.83
788.978	107.69
789.159	177.32
789.34	242.85
789.522	234.66
789.703	115.88
789.884	187.56
790.065	210.09
790.246	175.27
790.427	46.25
790.607	117.93
790.788	138.41
790.969	175.27
791.15	167.08
791.331	181.42
791.512	124.07
791.693	126.12
791.874	232.62
792.054	138.41
792.235	144.55
792.416	101.55
792.597	134.31
792.778	154.79
792.958	232.62
793.139	197.8
793.32	175.27
793.5	132.26
793.681	195.75
793.862	191.66
794.042	169.13
794.223	124.07
794.404	167.08
794.584	169.13
794.765	130.22
794.945	111.78
795.126	181.42
795.306	183.46
795.487	189.61
795.667	160.94
795.848	124.07
796.028	70.83
796.209	81.07
796.389	201.9
796.57	119.98
796.75	91.31
796.93	222.38
797.111	89.26
797.291	146.6
797.471	205.99
797.652	76.97
797.832	60.59
798.012	220.33
798.192	167.08
798.373	93.35
798.553	126.12
798.733	111.78
798.913	117.93
799.093	148.65
799.274	138.41
799.454	162.98
799.634	126.12
799.814	113.83
799.994	89.26
800.174	122.02
800.354	99.5
800.534	148.65
800.714	169.13
800.894	85.16
801.074	87.21
801.254	130.22
801.434	132.26
801.614	150.7
801.794	52.39
801.974	322.73
802.154	83.11
802.334	113.83
802.514	44.2
802.693	95.4
802.873	119.98
803.053	130.22
803.233	83.11
803.413	95.4
803.592	48.3
803.772	140.46
803.952	44.2
804.131	85.16
804.311	42.15
804.491	187.56
804.67	76.97
804.85	124.07
805.03	72.87
805.209	150.7
805.389	140.46
805.568	99.5
805.748	74.92
805.928	103.59
806.107	111.78
806.287	23.72
806.466	-0.85
806.646	56.49
806.825	76.97
807.004	107.69
807.184	119.98
807.363	158.89
807.543	95.4
807.722	38.06
807.901	95.4
808.081	109.74
808.26	68.78
808.439	56.49
808.619	99.5
808.798	117.93
808.977	46.25
809.156	111.78
809.336	95.4
809.515	40.11
809.694	160.94
809.873	44.2
810.052	62.63
810.231	87.21
810.411	93.35
810.59	62.63
810.769	87.21
810.948	113.83
811.127	44.2
811.306	79.02
811.485	9.39
811.664	107.69
811.843	50.35
812.022	122.02
812.201	52.39
812.38	87.21
812.559	83.11
812.737	48.3
812.916	58.54
813.095	93.35
813.274	42.15
813.453	83.11
813.632	74.92
813.811	117.93
813.989	-11.09
814.168	50.35
814.347	76.97
814.526	68.78
814.704	56.49
814.883	48.3
815.062	72.87
815.24	99.5
815.419	66.73
815.598	60.59
815.776	85.16
815.955	-7
816.133	68.78
816.312	81.07
816.49	97.45
816.669	72.87
816.847	42.15
817.026	74.92
817.204	85.16
817.383	42.15
817.561	60.59
817.74	87.21
817.918	46.25
818.097	85.16
818.275	74.92
818.453	74.92
818.632	76.97
818.81	42.15
818.988	56.49
819.167	54.44
819.345	15.53
819.523	54.44
819.701	115.88
819.879	9.39
820.058	52.39
820.236	95.4
820.414	50.35
820.592	-31.57
820.77	93.35
820.948	29.87
821.127	9.39
821.305	79.02
821.483	13.48
821.661	85.16
821.839	21.67
822.017	36.01
822.195	87.21
822.373	76.97
822.551	79.02
822.729	72.87
822.907	44.2
823.085	36.01
823.262	-33.62
823.44	89.26
823.618	76.97
823.796	60.59
823.974	54.44
824.152	-2.9
824.329	-39.76
824.507	27.82
824.685	-2.9
824.863	40.11
825.04	38.06
825.218	58.54
825.396	52.39
825.574	15.53
825.751	52.39
825.929	83.11
826.107	48.3
826.284	7.34
826.462	31.91
826.639	42.15
826.817	-23.38
826.994	62.63
827.172	36.01
827.349	60.59
827.527	-15.19
827.704	3.24
827.882	117.93
828.059	17.58
828.237	66.73
828.414	60.59
828.591	60.59
828.769	93.35
828.946	99.5
829.124	17.58
829.301	68.78
829.478	66.73
829.655	52.39
829.833	56.49
830.01	42.15
830.187	66.73
830.364	62.63
830.542	1.19
830.719	33.96
830.896	52.39
831.073	40.11
831.25	79.02
831.427	50.35
831.604	40.11
831.782	-56.15
831.959	29.87
832.136	79.02
832.313	122.02
832.49	87.21
832.667	56.49
832.844	38.06
833.021	17.58
833.198	64.68
833.374	107.69
833.551	66.73
833.728	72.87
833.905	21.67
834.082	76.97
834.259	50.35
834.436	68.78
834.612	48.3
834.789	42.15
834.966	38.06
835.143	60.59
835.319	81.07
835.496	68.78
835.673	40.11
835.85	-7
836.026	52.39
836.203	52.39
836.38	-11.09
836.556	46.25
836.733	42.15
836.909	72.87
837.086	13.48
837.262	23.72
837.439	-47.96
837.616	-4.95
837.792	33.96
837.968	-13.14
838.145	113.83
838.321	70.83
838.498	-0.85
838.674	-39.76
838.851	-21.33
839.027	31.91
839.203	42.15
839.38	19.63
839.556	58.54
839.732	103.59
839.909	101.55
840.085	42.15
840.261	25.77
840.437	60.59
840.614	-23.38
840.79	13.48
840.966	17.58
841.142	13.48
841.318	19.63
841.494	-15.19
841.671	54.44
841.847	3.24
842.023	66.73
842.199	38.06
842.375	1.19
842.551	-15.19
842.727	68.78
842.903	25.77
843.079	60.59
843.255	74.92
843.431	-33.62
843.607	50.35
843.783	13.48
843.959	54.44
844.134	3.24
844.31	74.92
844.486	36.01
844.662	-9.05
844.838	-21.33
845.013	19.63
845.189	21.67
845.365	-9.05
845.541	1.19
845.716	15.53
845.892	-41.81
846.068	9.39
846.244	31.91
846.419	-31.57
846.595	13.48
846.77	91.31
846.946	-0.85
847.122	56.49
847.297	-45.91
847.473	50.35
847.648	-15.19
847.824	17.58
847.999	-66.39
848.175	87.21
848.35	52.39
848.526	27.82
848.701	9.39
848.876	11.43
849.052	74.92
849.227	-21.33
849.403	38.06
849.578	50.35
849.753	70.83
849.929	-21.33
850.104	9.39
850.279	-21.33
850.454	-13.14
850.63	68.78
850.805	21.67
850.98	72.87
851.155	-7
851.33	25.77
851.505	36.01
851.681	23.72
851.856	9.39
852.031	-15.19
852.206	31.91
852.381	23.72
852.556	42.15
852.731	15.53
852.906	13.48
853.081	-13.14
853.256	15.53
853.431	38.06
853.606	15.53
853.781	58.54
853.956	87.21
854.131	-23.38
854.305	-43.86
854.48	36.01
854.655	-13.14
854.83	23.72
855.005	89.26
855.18	19.63
855.354	38.06
855.529	52.39
855.704	-11.09
855.879	-13.14
856.053	70.83
856.228	-27.48
856.403	9.39
856.577	62.63
856.752	-7
856.926	13.48
857.101	25.77
857.276	-29.52
857.45	19.63
857.625	-4.95
857.799	99.5
857.974	56.49
858.148	-31.57
858.323	107.69
858.497	-15.19
858.672	87.21
858.846	58.54
859.02	3.24
859.195	-23.38
859.369	72.87
859.543	-41.81
859.718	-15.19
859.892	-41.81
860.066	13.48
860.241	1.19
860.415	-7
860.589	9.39
860.763	-15.19
860.938	7.34
861.112	-31.57
861.286	13.48
861.46	-17.24
861.634	-21.33
861.808	-0.85
861.982	15.53
862.157	68.78
862.331	-39.76
862.505	1.19
862.679	5.29
862.853	25.77
863.027	87.21
863.201	50.35
863.375	83.11
863.549	40.11
863.722	13.48
863.896	105.64
864.07	27.82
864.244	27.82
864.418	-25.43
864.592	40.11
864.766	29.87
864.939	87.21
865.113	-9.05
865.287	42.15
865.461	-19.29
865.634	3.24
865.808	46.25
865.982	97.45
866.156	-27.48
866.329	-19.29
866.503	-2.9
866.676	33.96
866.85	-54.1
867.024	46.25
867.197	17.58
867.371	27.82
867.544	-52.05
867.718	-15.19
867.891	70.83
868.065	-23.38
868.238	13.48
868.412	23.72
868.585	36.01
868.759	21.67
868.932	-15.19
869.105	48.3
869.279	56.49
869.452	-35.67
869.625	76.97
869.799	72.87
869.972	-23.38
870.145	29.87
870.319	-0.85
870.492	13.48
870.665	42.15
870.838	-39.76
871.011	11.43
871.185	13.48
871.358	-21.33
871.531	40.11
871.704	38.06
871.877	46.25
872.05	91.31
872.223	-41.81
872.396	50.35
872.569	29.87
872.742	85.16
872.915	79.02
873.088	-9.05
873.261	31.91
873.434	-0.85
873.607	-13.14
873.78	-29.52
873.953	-35.67
874.126	-25.43
874.299	85.16
874.471	1.19
874.644	-19.29
874.817	23.72
874.99	54.44
875.163	-19.29
875.335	60.59
875.508	-60.24
875.681	-19.29
875.853	3.24
876.026	7.34
876.199	79.02
876.371	25.77
876.544	27.82
876.717	7.34
876.889	33.96
877.062	-45.91
877.234	1.19
877.407	-9.05
877.579	62.63
877.752	27.82
877.924	42.15
878.097	-4.95
878.269	-90.96
878.442	1.19
878.614	-70.48
878.786	-11.09
878.959	-0.85
879.131	40.11
879.303	-31.57
879.476	33.96
879.648	11.43
879.82	-70.48
879.993	-27.48
880.165	36.01
880.337	17.58
880.509	-31.57
880.681	13.48
880.854	-37.72
881.026	-64.34
881.198	38.06
881.37	7.34
881.542	15.53
881.714	-33.62
881.886	-13.14
882.058	-2.9
882.23	7.34
882.402	46.25
882.574	76.97
882.746	64.68
882.918	33.96
883.09	-11.09
883.262	13.48
883.434	-13.14
883.606	19.63
883.778	-2.9
883.95	29.87
884.122	11.43
884.293	27.82
884.465	7.34
884.637	21.67
884.809	-62.29
884.98	74.92
885.152	3.24
885.324	-31.57
885.496	25.77
885.667	-37.72
885.839	-27.48
886.011	38.06
886.182	-39.76
886.354	48.3
886.525	17.58
886.697	54.44
886.869	3.24
887.04	-15.19
887.212	-19.29
887.383	27.82
887.555	21.67
887.726	1.19
887.897	19.63
888.069	38.06
888.24	-27.48
888.412	33.96
888.583	-11.09
888.754	-35.67
888.926	1.19
889.097	50.35
889.268	74.92
889.44	11.43
889.611	-25.43
889.782	56.49
889.953	33.96
890.125	29.87
890.296	46.25
890.467	23.72
890.638	7.34
890.809	-37.72
890.98	56.49
891.151	58.54
891.323	27.82
891.494	-68.44
891.665	-9.05
891.836	23.72
892.007	-80.72
892.178	1.19
892.349	-15.19
892.52	50.35
892.691	46.25
892.862	-7
893.032	-35.67
893.203	60.59
893.374	95.4
893.545	72.87
893.716	1.19
893.887	-2.9
894.057	27.82
894.228	21.67
894.399	-39.76
894.57	19.63
894.74	13.48
894.911	23.72
895.082	29.87
895.253	21.67
895.423	-23.38
895.594	-13.14
895.764	3.24
895.935	13.48
896.106	85.16
896.276	23.72
896.447	-19.29
896.617	19.63
896.788	-21.33
896.958	101.55
897.129	17.58
897.299	-4.95
897.47	11.43
897.64	7.34
897.81	52.39
897.981	-2.9
898.151	-17.24
898.322	33.96
898.492	33.96
898.662	42.15
898.832	-33.62
899.003	-21.33
899.173	56.49
899.343	-27.48
899.513	-27.48
