Data from USB4F104151__22__12-53-28-167.txt Node

Date: Fri Mar 14 12:53:28 EDT 2025
User: louis
Spectrometer: USB4F10415
Trigger mode: 4
Integration Time (sec): 1.000000E-2
Scans to average: 1
Electric dark correction enabled: true
Nonlinearity correction enabled: false
Boxcar width: 0
XAxis mode: Wavelengths
Number of Pixels in Spectrum: 3648
>>>>>Begin Spectral Data<<<<<
178.204	-33.28
178.424	-33.28
178.644	-33.28
178.864	-96.77
179.084	-80.38
179.304	-20.99
179.524	-49.66
179.744	-4.61
179.964	1.54
180.184	-27.14
180.404	46.59
180.624	13.82
180.844	32.26
181.064	50.69
181.283	19.97
181.503	-14.85
181.723	-47.62
181.943	32.26
182.163	-33.28
182.383	11.78
182.602	13.82
182.822	24.06
183.042	-96.77
183.262	46.59
183.482	19.97
183.701	11.78
183.921	22.02
184.141	13.82
184.361	-0.51
184.58	-27.14
184.8	-23.04
185.02	3.58
185.239	7.68
185.459	48.64
185.679	-20.99
185.898	30.21
186.118	69.12
186.338	-47.62
186.557	1.54
186.777	-68.09
186.997	44.54
187.216	-23.04
187.436	54.78
187.655	19.97
187.875	-61.95
188.095	52.74
188.314	-4.61
188.534	-23.04
188.753	44.54
188.973	-16.9
189.192	54.78
189.412	87.55
189.631	11.78
189.851	-0.51
190.07	15.87
190.29	62.98
190.509	44.54
190.729	44.54
190.948	3.58
191.168	24.06
191.387	42.5
191.607	-16.9
191.826	-20.99
192.045	62.98
192.265	-20.99
192.484	36.35
192.704	83.45
192.923	28.16
193.142	-6.66
193.362	83.45
193.581	22.02
193.8	54.78
194.02	-4.61
194.239	-0.51
194.458	34.3
194.678	-49.66
194.897	42.5
195.116	-12.8
195.335	-12.8
195.555	-2.56
195.774	-10.75
195.993	22.02
196.212	22.02
196.432	56.83
196.651	-18.94
196.87	-25.09
197.089	44.54
197.308	-59.9
197.528	-0.51
197.747	-4.61
197.966	95.74
198.185	-12.8
198.404	-14.85
198.623	30.21
198.842	34.3
199.062	1.54
199.281	44.54
199.5	38.4
199.719	-49.66
199.938	32.26
200.157	28.16
200.376	58.88
200.595	19.97
200.814	19.97
201.033	-14.85
201.252	28.16
201.471	1.54
201.69	26.11
201.909	7.68
202.128	-33.28
202.347	50.69
202.566	62.98
202.785	22.02
203.004	13.82
203.223	-0.51
203.442	3.58
203.661	-33.28
203.879	-2.56
204.098	54.78
204.317	28.16
204.536	52.74
204.755	-29.18
204.974	-2.56
205.193	-25.09
205.411	36.35
205.63	-43.52
205.849	9.73
206.068	3.58
206.287	-18.94
206.505	-0.51
206.724	-10.75
206.943	-27.14
207.162	-16.9
207.381	-45.57
207.599	42.5
207.818	11.78
208.037	22.02
208.255	36.35
208.474	-2.56
208.693	36.35
208.911	13.82
209.13	38.4
209.349	3.58
209.567	26.11
209.786	17.92
210.005	71.17
210.223	93.69
210.442	-4.61
210.661	46.59
210.879	17.92
211.098	58.88
211.316	44.54
211.535	-20.99
211.753	36.35
211.972	-6.66
212.191	54.78
212.409	-14.85
212.628	50.69
212.846	-14.85
213.065	50.69
213.283	19.97
213.502	22.02
213.72	40.45
213.938	-0.51
214.157	24.06
214.375	-2.56
214.594	-14.85
214.812	54.78
215.031	-2.56
215.249	-66.05
215.467	3.58
215.686	-18.94
215.904	65.02
216.122	48.64
216.341	48.64
216.559	-29.18
216.778	46.59
216.996	9.73
217.214	75.26
217.432	-43.52
217.651	3.58
217.869	7.68
218.087	69.12
218.306	-37.38
218.524	-53.76
218.742	3.58
218.96	50.69
219.179	-6.66
219.397	1.54
219.615	22.02
219.833	-14.85
220.051	-4.61
220.27	7.68
220.488	-16.9
220.706	-0.51
220.924	-37.38
221.142	17.92
221.36	-31.23
221.578	38.4
221.796	-4.61
222.015	32.26
222.233	28.16
222.451	-0.51
222.669	13.82
222.887	-14.85
223.105	13.82
223.323	-0.51
223.541	-2.56
223.759	-2.56
223.977	32.26
224.195	-35.33
224.413	1.54
224.631	-59.9
224.849	15.87
225.067	24.06
225.285	38.4
225.503	44.54
225.721	-37.38
225.939	-0.51
226.157	22.02
226.375	62.98
226.592	30.21
226.81	13.82
227.028	65.02
227.246	9.73
227.464	-12.8
227.682	36.35
227.9	-70.14
228.117	-47.62
228.335	81.41
228.553	-14.85
228.771	56.83
228.989	17.92
229.206	1.54
229.424	-14.85
229.642	60.93
229.86	-23.04
230.077	75.26
230.295	60.93
230.513	-31.23
230.731	-25.09
230.948	73.21
231.166	85.5
231.384	-86.53
231.601	-51.71
231.819	42.5
232.037	36.35
232.254	44.54
232.472	-4.61
232.689	52.74
232.907	1.54
233.125	32.26
233.342	-8.7
233.56	-8.7
233.777	11.78
233.995	5.63
234.213	11.78
234.43	-10.75
234.648	1.54
234.865	38.4
235.083	-57.86
235.3	-61.95
235.518	-4.61
235.735	15.87
235.953	-18.94
236.17	36.35
236.388	-45.57
236.605	-14.85
236.822	-55.81
237.04	30.21
237.257	-57.86
237.475	-10.75
237.692	40.45
237.909	-6.66
238.127	9.73
238.344	17.92
238.562	-25.09
238.779	13.82
238.996	-6.66
239.214	-4.61
239.431	46.59
239.648	30.21
239.865	7.68
240.083	-23.04
240.3	11.78
240.517	-4.61
240.735	-16.9
240.952	-29.18
241.169	60.93
241.386	24.06
241.603	-4.61
241.821	-2.56
242.038	-2.56
242.255	71.17
242.472	-12.8
242.689	24.06
242.907	17.92
243.124	-27.14
243.341	-12.8
243.558	-6.66
243.775	-4.61
243.992	22.02
244.209	108.03
244.426	-41.47
244.643	32.26
244.86	30.21
245.078	67.07
245.295	-8.7
245.512	24.06
245.729	-31.23
245.946	32.26
246.163	65.02
246.38	-43.52
246.597	50.69
246.814	-2.56
247.031	-55.81
247.248	67.07
247.464	54.78
247.681	-2.56
247.898	-16.9
248.115	-47.62
248.332	3.58
248.549	15.87
248.766	24.06
248.983	73.21
249.2	-6.66
249.417	-16.9
249.633	-92.67
249.85	1.54
250.067	42.5
250.284	81.41
250.501	26.11
250.717	-49.66
250.934	26.11
251.151	13.82
251.368	19.97
251.585	108.03
251.801	-14.85
252.018	-51.71
252.235	48.64
252.451	19.97
252.668	-18.94
252.885	22.02
253.102	3.58
253.318	46.59
253.535	-31.23
253.752	26.11
253.968	-6.66
254.185	62.98
254.401	-43.52
254.618	30.21
254.835	13.82
255.051	22.02
255.268	22.02
255.484	60.93
255.701	32.26
255.917	91.65
256.134	-20.99
256.351	40.45
256.567	-6.66
256.784	-29.18
257	9.73
257.217	38.4
257.433	28.16
257.65	50.69
257.866	-18.94
258.082	1.54
258.299	15.87
258.515	42.5
258.732	-41.47
258.948	1.54
259.165	87.55
259.381	11.78
259.597	-47.62
259.814	-0.51
260.03	46.59
260.246	52.74
260.463	-14.85
260.679	79.36
260.895	-8.7
261.112	48.64
261.328	60.93
261.544	-29.18
261.761	34.3
261.977	13.82
262.193	-53.76
262.409	-78.33
262.626	24.06
262.842	-4.61
263.058	30.21
263.274	93.69
263.49	13.82
263.707	-86.53
263.923	46.59
264.139	-70.14
264.355	24.06
264.571	7.68
264.787	17.92
265.004	13.82
265.22	-10.75
265.436	44.54
265.652	-45.57
265.868	5.63
266.084	40.45
266.3	-20.99
266.516	36.35
266.732	58.88
266.948	28.16
267.164	-23.04
267.38	19.97
267.596	71.17
267.812	9.73
268.028	5.63
268.244	30.21
268.46	22.02
268.676	-55.81
268.892	58.88
269.108	-10.75
269.324	-4.61
269.54	-39.42
269.756	-74.24
269.972	-29.18
270.188	-25.09
270.403	13.82
270.619	58.88
270.835	19.97
271.051	71.17
271.267	17.92
271.483	40.45
271.698	-20.99
271.914	44.54
272.13	91.65
272.346	50.69
272.562	36.35
272.777	-51.71
272.993	28.16
273.209	-6.66
273.425	-92.67
273.64	15.87
273.856	-20.99
274.072	42.5
274.287	44.54
274.503	5.63
274.719	-70.14
274.934	54.78
275.15	28.16
275.366	-29.18
275.581	17.92
275.797	67.07
276.012	-8.7
276.228	42.5
276.444	-43.52
276.659	60.93
276.875	-0.51
277.09	13.82
277.306	-23.04
277.521	11.78
277.737	58.88
277.952	-4.61
278.168	3.58
278.383	17.92
278.599	54.78
278.814	-41.47
279.03	-39.42
279.245	13.82
279.461	-23.04
279.676	22.02
279.892	-2.56
280.107	-20.99
280.322	-16.9
280.538	-10.75
280.753	-16.9
280.969	-121.34
281.184	-35.33
281.399	91.65
281.615	95.74
281.83	9.73
282.045	3.58
282.26	-12.8
282.476	-8.7
282.691	-51.71
282.906	22.02
283.122	38.4
283.337	-35.33
283.552	-14.85
283.767	-49.66
283.983	56.83
284.198	-25.09
284.413	-55.81
284.628	15.87
284.843	69.12
285.058	54.78
285.274	-8.7
285.489	-12.8
285.704	79.36
285.919	26.11
286.134	50.69
286.349	52.74
286.564	-45.57
286.779	-80.38
286.995	34.3
287.21	-12.8
287.425	7.68
287.64	-27.14
287.855	71.17
288.07	44.54
288.285	13.82
288.5	3.58
288.715	15.87
288.93	11.78
289.145	-16.9
289.36	30.21
289.575	30.21
289.79	24.06
290.004	19.97
290.219	60.93
290.434	5.63
290.649	-39.42
290.864	-70.14
291.079	17.92
291.294	77.31
291.509	-20.99
291.724	-33.28
291.938	-29.18
292.153	28.16
292.368	-10.75
292.583	22.02
292.798	-39.42
293.012	62.98
293.227	3.58
293.442	54.78
293.657	34.3
293.871	-57.86
294.086	-16.9
294.301	54.78
294.516	26.11
294.73	122.37
294.945	11.78
295.16	15.87
295.374	42.5
295.589	73.21
295.804	89.6
296.018	62.98
296.233	-16.9
296.447	15.87
296.662	52.74
296.877	22.02
297.091	26.11
297.306	60.93
297.52	44.54
297.735	-18.94
297.949	-39.42
298.164	24.06
298.378	-64
298.593	32.26
298.807	7.68
299.022	-14.85
299.236	-41.47
299.451	-20.99
299.665	-10.75
299.88	40.45
300.094	-31.23
300.309	28.16
300.523	15.87
300.737	58.88
300.952	110.08
301.166	9.73
301.381	-18.94
301.595	30.21
301.809	-10.75
302.024	34.3
302.238	-8.7
302.452	83.45
302.667	-41.47
302.881	75.26
303.095	5.63
303.309	-14.85
303.524	22.02
303.738	3.58
303.952	-45.57
304.166	52.74
304.381	-18.94
304.595	9.73
304.809	52.74
305.023	67.07
305.237	38.4
305.452	116.22
305.666	26.11
305.88	28.16
306.094	44.54
306.308	-12.8
306.522	-35.33
306.736	-18.94
306.95	-49.66
307.164	-27.14
307.379	-16.9
307.593	28.16
307.807	36.35
308.021	-39.42
308.235	9.73
308.449	-6.66
308.663	-51.71
308.877	5.63
309.091	-0.51
309.305	42.5
309.519	17.92
309.733	50.69
309.947	30.21
310.161	3.58
310.374	46.59
310.588	116.22
310.802	42.5
311.016	11.78
311.23	9.73
311.444	-4.61
311.658	19.97
311.872	15.87
312.085	-33.28
312.299	26.11
312.513	79.36
312.727	32.26
312.941	-4.61
313.154	17.92
313.368	17.92
313.582	60.93
313.796	-74.24
314.009	67.07
314.223	48.64
314.437	116.22
314.651	32.26
314.864	17.92
315.078	-14.85
315.292	32.26
315.505	24.06
315.719	28.16
315.933	-47.62
316.146	9.73
316.36	50.69
316.573	60.93
316.787	26.11
317.001	-14.85
317.214	32.26
317.428	24.06
317.641	-18.94
317.855	-10.75
318.068	22.02
318.282	-12.8
318.495	46.59
318.709	1.54
318.922	34.3
319.136	85.5
319.349	-23.04
319.563	3.58
319.776	60.93
319.99	-0.51
320.203	5.63
320.417	50.69
320.63	26.11
320.843	62.98
321.057	9.73
321.27	9.73
321.483	30.21
321.697	58.88
321.91	-23.04
322.124	-12.8
322.337	11.78
322.55	58.88
322.763	67.07
322.977	-4.61
323.19	-8.7
323.403	58.88
323.617	58.88
323.83	1.54
324.043	-25.09
324.256	52.74
324.469	-33.28
324.683	19.97
324.896	46.59
325.109	30.21
325.322	-57.86
325.535	71.17
325.748	-16.9
325.962	79.36
326.175	-37.38
326.388	-41.47
326.601	-2.56
326.814	3.58
327.027	36.35
327.24	-10.75
327.453	46.59
327.666	1.54
327.879	-68.09
328.092	-64
328.305	-16.9
328.518	1.54
328.731	52.74
328.944	-8.7
329.157	-12.8
329.37	9.73
329.583	54.78
329.796	58.88
330.009	58.88
330.222	69.12
330.435	42.5
330.648	3.58
330.861	24.06
331.073	91.65
331.286	-18.94
331.499	79.36
331.712	9.73
331.925	40.45
332.138	3.58
332.35	-27.14
332.563	-0.51
332.776	1.54
332.989	-12.8
333.202	42.5
333.414	32.26
333.627	77.31
333.84	15.87
334.053	-35.33
334.265	-8.7
334.478	-6.66
334.691	85.5
334.903	-4.61
335.116	-23.04
335.329	26.11
335.541	3.58
335.754	77.31
335.966	15.87
336.179	89.6
336.392	3.58
336.604	17.92
336.817	-37.38
337.029	81.41
337.242	-0.51
337.454	9.73
337.667	34.3
337.88	67.07
338.092	-2.56
338.305	11.78
338.517	58.88
338.729	46.59
338.942	50.69
339.154	-0.51
339.367	17.92
339.579	7.68
339.792	-70.14
340.004	77.31
340.217	67.07
340.429	32.26
340.641	-43.52
340.854	-27.14
341.066	-12.8
341.278	11.78
341.491	-25.09
341.703	-23.04
341.915	-14.85
342.128	-14.85
342.34	-10.75
342.552	-55.81
342.764	-102.91
342.977	77.31
343.189	-10.75
343.401	26.11
343.613	-18.94
343.826	9.73
344.038	-12.8
344.25	17.92
344.462	7.68
344.674	81.41
344.886	15.87
345.099	30.21
345.311	3.58
345.523	54.78
345.735	-49.66
345.947	97.79
346.159	11.78
346.371	58.88
346.583	19.97
346.795	-8.7
347.007	-33.28
347.219	-31.23
347.431	56.83
347.643	54.78
347.855	65.02
348.067	7.68
348.279	13.82
348.491	-43.52
348.703	-70.14
348.915	9.73
349.127	-12.8
349.339	9.73
349.551	22.02
349.763	42.5
349.975	22.02
350.187	-4.61
350.399	-18.94
350.61	38.4
350.822	13.82
351.034	50.69
351.246	15.87
351.458	-10.75
351.669	-61.95
351.881	-29.18
352.093	28.16
352.305	38.4
352.517	-23.04
352.728	75.26
352.94	13.82
353.152	-12.8
353.363	28.16
353.575	-51.71
353.787	22.02
353.999	19.97
354.21	56.83
354.422	40.45
354.633	22.02
354.845	46.59
355.057	15.87
355.268	15.87
355.48	-41.47
355.692	50.69
355.903	50.69
356.115	-6.66
356.326	71.17
356.538	3.58
356.749	-12.8
356.961	50.69
357.172	-43.52
357.384	13.82
357.595	-35.33
357.807	-6.66
358.018	34.3
358.23	-12.8
358.441	42.5
358.653	-33.28
358.864	1.54
359.075	-51.71
359.287	13.82
359.498	44.54
359.709	60.93
359.921	-0.51
360.132	48.64
360.344	56.83
360.555	24.06
360.766	48.64
360.977	24.06
361.189	42.5
361.4	32.26
361.611	81.41
361.823	30.21
362.034	-0.51
362.245	38.4
362.456	85.5
362.667	73.21
362.879	42.5
363.09	5.63
363.301	46.59
363.512	-27.14
363.723	-8.7
363.935	-23.04
364.146	62.98
364.357	-18.94
364.568	22.02
364.779	-8.7
364.99	44.54
365.201	13.82
365.412	91.65
365.623	-6.66
365.834	9.73
366.045	-14.85
366.256	40.45
366.467	-61.95
366.678	32.26
366.889	9.73
367.1	38.4
367.311	-6.66
367.522	-43.52
367.733	-8.7
367.944	7.68
368.155	-2.56
368.366	26.11
368.577	69.12
368.788	19.97
368.999	-6.66
369.209	-6.66
369.42	-43.52
369.631	56.83
369.842	44.54
370.053	7.68
370.264	58.88
370.474	50.69
370.685	38.4
370.896	38.4
371.107	44.54
371.317	15.87
371.528	-23.04
371.739	13.82
371.95	44.54
372.16	-14.85
372.371	1.54
372.582	-10.75
372.792	56.83
373.003	36.35
373.214	17.92
373.424	42.5
373.635	-10.75
373.846	42.5
374.056	13.82
374.267	42.5
374.477	30.21
374.688	7.68
374.898	-59.9
375.109	-4.61
375.319	1.54
375.53	9.73
375.74	3.58
375.951	17.92
376.161	-6.66
376.372	130.56
376.582	50.69
376.793	-23.04
377.003	-12.8
377.214	-45.57
377.424	5.63
377.635	87.55
377.845	22.02
378.055	17.92
378.266	-29.18
378.476	-25.09
378.686	32.26
378.897	9.73
379.107	75.26
379.317	73.21
379.528	-10.75
379.738	60.93
379.948	13.82
380.158	26.11
380.369	-12.8
380.579	1.54
380.789	32.26
380.999	13.82
381.21	5.63
381.42	77.31
381.63	-4.61
381.84	60.93
382.05	-12.8
382.261	3.58
382.471	-20.99
382.681	-61.95
382.891	-23.04
383.101	108.03
383.311	-8.7
383.521	-47.62
383.731	-39.42
383.941	-31.23
384.151	9.73
384.361	15.87
384.571	26.11
384.781	-39.42
384.991	-25.09
385.201	40.45
385.411	97.79
385.621	-23.04
385.831	-23.04
386.041	44.54
386.251	-25.09
386.461	65.02
386.671	56.83
386.881	-8.7
387.091	30.21
387.301	19.97
387.511	-10.75
387.72	22.02
387.93	42.5
388.14	-0.51
388.35	60.93
388.56	58.88
388.769	42.5
388.979	40.45
389.189	13.82
389.399	34.3
389.609	30.21
389.818	69.12
390.028	-27.14
390.238	99.84
390.447	-39.42
390.657	19.97
390.867	-25.09
391.076	42.5
391.286	26.11
391.496	42.5
391.705	50.69
391.915	3.58
392.125	-41.47
392.334	11.78
392.544	13.82
392.753	58.88
392.963	19.97
393.172	50.69
393.382	22.02
393.591	101.89
393.801	11.78
394.01	7.68
394.22	22.02
394.429	44.54
394.639	54.78
394.848	48.64
395.058	15.87
395.267	26.11
395.477	19.97
395.686	75.26
395.895	13.82
396.105	81.41
396.314	-18.94
396.524	19.97
396.733	-29.18
396.942	42.5
397.152	5.63
397.361	-6.66
397.57	3.58
397.78	19.97
397.989	-23.04
398.198	60.93
398.407	42.5
398.617	-47.62
398.826	32.26
399.035	17.92
399.244	22.02
399.453	85.5
399.663	17.92
399.872	77.31
400.081	-4.61
400.29	1.54
400.499	17.92
400.708	-53.76
400.917	42.5
401.127	-2.56
401.336	48.64
401.545	13.82
401.754	40.45
401.963	67.07
402.172	17.92
402.381	15.87
402.59	7.68
402.799	11.78
403.008	15.87
403.217	26.11
403.426	3.58
403.635	38.4
403.844	36.35
404.053	42.5
404.262	95.74
404.471	58.88
404.68	95.74
404.888	-4.61
405.097	40.45
405.306	44.54
405.515	60.93
405.724	13.82
405.933	95.74
406.142	130.56
406.35	7.68
406.559	36.35
406.768	50.69
406.977	58.88
407.185	58.88
407.394	65.02
407.603	-10.75
407.812	40.45
408.02	3.58
408.229	1.54
408.438	-37.38
408.646	91.65
408.855	24.06
409.064	85.5
409.272	36.35
409.481	95.74
409.69	19.97
409.898	38.4
410.107	73.21
410.315	48.64
410.524	132.61
410.733	40.45
410.941	58.88
411.15	24.06
411.358	87.55
411.567	89.6
411.775	91.65
411.984	30.21
412.192	99.84
412.401	140.8
412.609	69.12
412.818	85.5
413.026	67.07
413.234	95.74
413.443	95.74
413.651	116.22
413.86	87.55
414.068	177.66
414.276	177.66
414.485	167.42
414.693	136.7
414.901	142.85
415.11	40.45
415.318	142.85
415.526	157.18
415.734	200.19
415.943	181.76
416.151	175.61
416.359	148.99
416.567	128.51
416.776	118.27
416.984	146.94
417.192	153.09
417.4	140.8
417.608	243.2
417.817	110.08
418.025	179.71
418.233	148.99
418.441	253.44
418.649	232.96
418.857	214.52
419.065	263.68
419.273	189.95
419.481	232.96
419.689	151.04
419.897	253.44
420.105	210.43
420.313	261.63
420.521	308.73
420.729	259.58
420.937	267.77
421.145	323.07
421.353	296.44
421.561	308.73
421.769	372.22
421.977	407.03
422.185	349.69
422.393	341.5
422.601	376.31
422.809	450.04
423.017	421.37
423.224	431.61
423.432	495.1
423.64	386.55
423.848	421.37
424.056	468.47
424.263	427.51
424.471	509.43
424.679	474.62
424.887	560.63
425.094	499.19
425.302	546.3
425.51	531.96
425.718	624.12
425.925	560.63
426.133	570.87
426.341	599.54
426.548	632.31
426.756	609.78
426.964	617.97
427.171	689.65
427.379	812.53
427.586	763.38
427.794	765.43
428.001	753.14
428.209	822.77
428.417	759.28
428.624	769.52
428.832	933.36
429.039	820.72
429.247	822.77
429.454	927.22
429.662	1058.29
429.869	947.7
430.076	1005.04
430.284	904.69
430.491	974.32
430.699	1125.87
430.906	1068.53
431.114	1082.86
431.321	1072.62
431.528	1140.21
431.736	1172.97
431.943	1285.61
432.15	1201.65
432.358	1258.99
432.565	1418.73
432.772	1322.48
432.979	1412.59
433.187	1392.11
433.394	1289.71
433.601	1467.88
433.808	1461.74
434.016	1488.36
434.223	1607.14
434.43	1658.34
434.637	1615.34
434.844	1693.16
435.052	1666.53
435.259	1754.6
435.466	1848.8
435.673	1711.59
435.88	1877.48
436.087	1897.96
436.294	1930.72
436.501	1949.15
436.708	1908.19
436.915	2082.27
437.122	2082.27
437.329	2106.85
437.537	2262.49
437.743	2285.02
437.95	2024.93
438.157	2446.81
438.364	2395.61
438.571	2508.25
438.778	2379.23
438.985	2651.61
439.192	2452.95
439.399	2561.5
439.606	2538.97
439.813	2774.49
440.02	2811.35
440.227	2866.64
440.433	2747.86
440.64	2940.37
440.847	2880.98
441.054	3048.91
441.261	3161.55
441.467	3134.93
441.674	3145.17
441.881	3313.1
442.088	3257.81
442.294	3251.66
442.501	3343.82
442.708	3395.02
442.914	3458.51
443.121	3704.26
443.328	3526.09
443.534	3835.33
443.741	3792.33
443.948	3853.77
444.154	4040.13
444.361	3960.26
444.568	3995.08
444.774	3966.4
444.981	4060.61
445.187	4064.71
445.394	4273.6
445.6	4203.97
445.807	4533.69
446.013	4464.06
446.22	4642.23
446.426	4705.72
446.633	4703.67
446.839	5008.82
447.046	4935.09
447.252	4990.39
447.459	5014.96
447.665	4881.85
447.871	5150.13
448.078	5283.25
448.284	5000.63
448.491	5270.96
448.697	5596.59
448.903	5637.55
449.11	5692.84
449.316	5643.69
449.522	5672.36
449.728	5961.13
449.935	5850.53
450.141	5850.53
450.347	5950.89
450.553	5828.01
450.76	5926.31
450.966	6176.16
451.172	6096.29
451.378	6104.48
451.584	5995.94
451.791	6331.81
451.997	6176.16
452.203	6376.86
452.409	6202.79
452.615	6221.22
452.821	6038.95
453.027	5883.3
453.233	6348.19
453.44	5961.13
453.646	6096.29
453.852	6129.06
454.058	6190.5
454.264	6022.56
454.47	6165.92
454.676	6247.84
454.882	6149.54
455.088	5768.62
455.294	5723.56
455.5	5891.49
455.705	6084
455.911	5670.31
456.117	5662.12
456.323	5424.56
456.529	5248.43
456.735	5459.37
456.941	5305.78
457.147	5186.99
457.352	4978.1
457.558	4978.1
457.764	4855.22
457.97	4939.19
458.176	5072.31
458.381	4787.64
458.587	4523.45
458.793	4478.4
458.999	4425.15
459.204	4564.41
459.41	4498.88
459.616	4224.45
459.821	4146.62
460.027	4279.74
460.233	4089.28
460.438	3952.07
460.644	4040.13
460.85	3763.65
461.055	3739.08
461.261	3921.35
461.466	3417.55
461.672	3417.55
461.878	3540.43
462.083	3216.85
462.289	3247.57
462.494	3364.3
462.7	3214.8
462.905	2995.67
463.111	3141.07
463.316	3204.56
463.522	3169.74
463.727	3098.06
463.932	3249.61
464.138	3069.39
464.343	3124.69
464.549	3063.25
464.754	3177.94
464.959	3012.05
465.165	3106.26
465.37	3075.54
465.575	2991.57
465.781	3024.34
465.986	3141.07
466.191	2911.7
466.397	2954.71
466.602	2794.97
466.807	2872.79
467.012	2880.98
467.218	2848.21
467.423	2788.82
467.628	2725.33
467.833	3007.95
468.038	2731.48
468.244	2614.74
468.449	2872.79
468.654	2719.19
468.859	2661.85
469.064	2696.66
469.269	2678.23
469.474	2721.24
469.679	2700.76
469.885	2639.32
470.09	2711
470.295	2663.9
470.5	2670.04
470.705	2543.07
470.91	2504.15
471.115	2616.79
471.32	2545.11
471.525	2504.15
471.73	2446.81
471.935	2559.45
472.139	2483.67
472.344	2450.91
472.549	2448.86
472.754	2434.52
472.959	2323.93
473.164	2387.42
473.369	2297.31
473.574	2287.07
473.778	2205.15
473.983	2350.56
474.188	2373.08
474.393	2201.05
474.598	2078.18
474.802	2227.68
475.007	2180.57
475.212	2098.66
475.417	2121.18
475.621	1996.26
475.826	2156
476.031	2203.1
476.235	2049.5
476.44	1983.97
476.645	1953.25
476.849	2082.27
477.054	1981.92
477.259	1955.3
477.463	2008.55
477.668	1934.82
477.872	2002.4
478.077	1918.43
478.282	1895.91
478.486	1750.5
478.691	1842.66
478.895	1893.86
479.1	1770.98
479.304	1801.7
479.509	1822.18
479.713	1787.36
479.918	1734.12
480.122	1732.07
480.326	1744.36
480.531	1680.87
480.735	1766.89
480.94	1691.11
481.144	1793.51
481.348	1684.97
481.553	1807.84
481.757	1723.88
481.961	1711.59
482.166	1754.6
482.37	1727.97
482.574	1611.24
482.778	1783.27
482.983	1656.29
483.187	1697.25
483.391	1697.25
483.595	1666.53
483.8	1682.92
484.004	1695.21
484.208	1701.35
484.412	1703.4
484.616	1576.42
484.821	1707.49
485.025	1705.45
485.229	1799.65
485.433	1760.74
485.637	1730.02
485.841	1684.97
486.045	1621.48
486.249	1754.6
486.453	1652.2
486.657	1719.78
486.861	1717.73
487.065	1707.49
487.269	1785.32
487.473	1768.93
487.677	1721.83
487.881	1695.21
488.085	1666.53
488.289	1682.92
488.493	1617.38
488.697	1863.14
488.901	1607.14
489.105	1770.98
489.309	1680.87
489.512	1836.52
489.716	1713.64
489.92	1779.17
490.124	1752.55
490.328	1809.89
490.531	1756.65
490.735	1861.09
490.939	1816.04
491.143	1877.48
491.346	1844.71
491.55	1830.37
491.754	1789.41
491.958	1846.76
492.161	1854.95
492.365	1852.9
492.569	1908.19
492.772	1889.76
492.976	1842.66
493.18	1799.65
493.383	1900
493.587	1979.87
493.79	2063.84
493.994	1994.21
494.197	1983.97
494.401	2090.46
494.605	1955.3
494.808	2121.18
495.012	2102.75
495.215	2100.7
495.419	2108.9
495.622	2112.99
495.825	2112.99
496.029	2131.42
496.232	2217.44
496.436	2106.85
496.639	2268.64
496.843	2250.21
497.046	2209.25
497.249	2266.59
497.453	2254.3
497.656	2352.6
497.859	2264.54
498.063	2377.18
498.266	2438.62
498.469	2407.9
498.673	2416.09
498.876	2543.07
499.079	2475.48
499.282	2614.74
499.485	2600.41
499.689	2657.75
499.892	2696.66
500.095	2688.47
500.298	2653.66
500.501	2727.38
500.705	2622.94
500.908	2823.64
501.111	2889.17
501.314	2874.84
501.517	2901.46
501.72	3044.82
501.923	2801.11
502.126	3038.67
502.329	3073.49
502.532	3040.72
502.735	3030.48
502.938	3218.89
503.141	3153.36
503.344	3280.33
503.547	3116.5
503.75	3378.64
503.953	3444.17
504.156	3415.5
504.359	3343.82
504.562	3513.8
504.765	3616.2
504.968	3491.27
505.17	3589.58
505.373	3569.1
505.576	3669.45
505.779	3763.65
505.982	3782.09
506.185	3892.68
506.387	3929.54
506.59	3968.45
506.793	4062.66
506.996	3958.21
507.198	4128.19
507.401	4173.25
507.604	4218.3
507.807	4312.51
508.009	4259.26
508.212	4322.75
508.415	4400.57
508.617	4416.96
508.82	4398.52
509.022	4443.58
509.225	4711.86
509.428	4642.23
509.63	4638.14
509.833	4744.63
510.035	5000.63
510.238	4875.7
510.44	4834.74
510.643	4871.61
510.845	5049.78
511.048	5029.3
511.25	5242.29
511.453	5105.07
511.655	5342.64
511.858	5369.26
512.06	5295.54
512.262	5461.42
512.465	5354.93
512.667	5502.38
512.87	5604.78
513.072	5559.72
513.274	5672.36
513.477	5785
513.679	5746.09
513.881	5850.53
514.084	5961.13
514.286	6006.18
514.488	6047.14
514.69	6266.27
514.893	6217.12
515.095	6274.46
515.297	6464.93
515.499	6362.53
515.701	6446.49
515.904	6532.51
516.106	6520.22
516.308	6729.11
516.51	6712.73
516.712	6858.14
516.914	6878.62
517.116	6991.25
517.318	6811.03
517.52	6972.82
517.722	6917.53
517.925	7150.99
518.127	7185.81
518.329	7417.23
518.531	7536.01
518.733	7417.23
518.935	7673.23
519.136	7515.53
519.338	7679.37
519.54	7654.8
519.742	7671.18
519.944	7775.63
520.146	7990.66
520.348	7925.13
520.55	8185.22
520.752	8074.63
520.954	8328.58
521.155	8162.69
521.357	8287.62
521.559	8473.98
521.761	8471.93
521.963	8449.41
522.164	8578.43
522.366	8627.58
522.568	8697.21
522.77	8867.19
522.971	8938.87
523.173	8871.29
523.375	9141.62
523.576	8957.3
523.778	8975.74
523.98	9293.17
524.181	9276.79
524.383	9147.76
524.584	9420.14
524.786	9360.75
524.988	9252.21
525.189	9532.78
525.391	9534.83
525.592	9500.02
525.794	9532.78
525.995	9790.83
526.197	9719.15
526.398	9743.72
526.6	9749.87
526.801	9649.52
527.003	9831.79
527.204	9848.17
527.406	10196.32
527.607	9819.5
527.808	10179.94
528.01	9768.3
528.211	10184.04
528.412	10173.8
528.614	10184.04
528.815	10114.41
529.016	10351.97
529.218	10231.14
529.419	10093.93
529.62	10265.96
529.822	10308.96
530.023	10181.99
530.224	10317.15
530.425	10427.74
530.626	10386.79
530.828	10239.33
531.029	10349.92
531.23	10335.59
531.431	10517.86
531.632	10509.66
531.833	10480.99
532.035	10440.03
532.236	10560.86
532.437	10548.58
532.638	10513.76
532.839	10597.73
533.04	10736.99
533.241	10605.92
533.442	10640.73
533.643	10677.6
533.844	10878.3
534.045	10610.01
534.246	10442.08
534.447	10763.61
534.648	10696.03
534.849	10480.99
535.05	10675.55
535.251	10487.14
535.451	10517.86
535.652	10644.83
535.853	10710.36
536.054	10739.04
536.255	10732.89
536.456	10548.58
536.657	10876.25
536.857	10722.65
537.058	10593.63
537.259	10634.59
537.46	10947.93
537.66	10747.23
537.861	10913.11
538.062	10681.69
538.263	10753.37
538.463	10659.17
538.664	10661.21
538.865	10532.19
539.065	10902.87
539.266	10706.27
539.466	10919.26
539.667	10669.41
539.868	10843.48
540.068	10761.56
540.269	10802.52
540.469	10911.07
540.67	10802.52
540.87	10798.43
541.071	10708.32
541.271	10941.79
541.472	10726.75
541.672	10751.32
541.873	10665.31
542.073	10567.01
542.274	10780
542.474	10765.66
542.675	10595.68
542.875	10857.82
543.075	10997.08
543.276	10605.92
543.476	10788.19
543.676	10767.71
543.877	10818.91
544.077	10702.17
544.277	10749.28
544.478	10718.56
544.678	10855.77
544.878	10814.81
545.078	10777.95
545.279	10425.7
545.479	10882.39
545.679	10775.9
545.879	10784.09
546.079	10710.36
546.28	10882.39
546.48	10784.09
546.68	10855.77
546.88	10642.78
547.08	10663.26
547.28	10704.22
547.48	10640.73
547.68	10601.82
547.88	10753.37
548.081	10849.63
548.281	10743.13
548.481	10747.23
548.681	10925.4
548.881	10902.87
549.081	10718.56
549.28	10673.5
549.48	10743.13
549.68	10818.91
549.88	10818.91
550.08	10696.03
550.28	10927.45
550.48	10806.62
550.68	10601.82
550.88	10693.98
551.08	10906.97
551.279	10714.46
551.479	10829.15
551.679	10851.67
551.879	10624.35
552.079	10837.34
552.278	10634.59
552.478	10796.38
552.678	10683.74
552.878	10653.02
553.077	10546.53
553.277	10550.62
553.477	10878.3
553.676	10765.66
553.876	10612.06
554.076	10751.32
554.275	10540.38
554.475	10532.19
554.674	10782.04
554.874	10718.56
555.074	10773.85
555.273	10802.52
555.473	10704.22
555.672	10411.36
555.872	10599.77
556.071	10472.8
556.271	10823
556.47	10538.34
556.67	10474.85
556.869	10538.34
557.068	10567.01
557.268	10370.4
557.467	10593.63
557.667	10671.45
557.866	10560.86
558.065	10562.91
558.265	10431.84
558.464	10401.12
558.663	10503.52
558.863	10351.97
559.062	10409.31
559.261	10399.07
559.461	10630.49
559.66	10190.18
559.859	10366.31
560.058	10351.97
560.258	10317.15
560.457	10382.69
560.656	10405.22
560.855	10247.52
561.054	10388.83
561.253	10208.61
561.453	10378.59
561.652	10370.4
561.851	10347.87
562.05	10198.37
562.249	10225
562.448	10372.45
562.647	10280.29
562.846	10390.88
563.045	10331.49
563.244	10184.04
563.443	10499.42
563.642	10155.37
563.841	10014.06
564.04	9981.29
564.239	10151.27
564.438	10171.75
564.637	10073.45
564.836	10212.71
565.035	10292.58
565.234	9995.62
565.432	10169.7
565.631	9997.67
565.83	10024.3
566.029	9954.66
566.228	10132.84
566.427	10069.35
566.625	9964.9
566.824	9784.68
567.023	9985.38
567.222	9833.83
567.42	9719.15
567.619	9948.52
567.818	9864.55
568.016	9805.16
568.215	9907.56
568.414	9827.69
568.612	9889.13
568.811	9809.26
569.01	9747.82
569.208	9868.65
569.407	9987.43
569.605	9708.91
569.804	9723.24
570.002	9670
570.201	9713
570.4	9768.3
570.598	9629.04
570.797	9543.02
570.995	9524.59
571.193	9530.73
571.392	9575.79
571.59	9360.75
571.789	9440.62
571.987	9489.78
572.186	9430.38
572.384	9368.95
572.582	9545.07
572.781	9436.53
572.979	9141.62
573.177	9215.35
573.376	9332.08
573.574	9373.04
573.772	9375.09
573.971	9160.05
574.169	9155.96
574.367	9125.24
574.565	9289.07
574.763	9282.93
574.962	9166.2
575.16	9067.89
575.358	9061.75
575.556	8916.34
575.754	9244.02
575.952	9016.69
576.151	9141.62
576.349	8844.67
576.547	8985.97
576.745	8893.82
576.943	8902.01
577.141	8971.64
577.339	8801.66
577.537	8877.43
577.735	8988.02
577.933	8828.28
578.131	8953.21
578.329	8902.01
578.527	9004.41
578.725	8703.36
578.923	8813.95
579.121	8607.1
579.319	8547.71
579.516	8760.7
579.714	8422.78
579.912	8875.38
580.11	8500.61
580.308	8682.88
580.506	8433.02
580.704	8365.44
580.901	8547.71
581.099	8353.15
581.297	8654.2
581.495	8410.5
581.692	8322.43
581.89	8277.38
582.088	8361.34
582.285	8211.84
582.483	8299.91
582.681	8555.9
582.878	8332.67
583.076	8293.76
583.274	8236.42
583.471	8277.38
583.669	8390.02
583.866	8162.69
584.064	8099.2
584.262	8062.34
584.459	8140.16
584.657	8177.03
584.854	8238.47
585.052	7693.71
585.249	8242.56
585.447	8144.26
585.644	7923.08
585.841	8074.63
586.039	7914.89
586.236	7714.19
586.434	7746.95
586.631	7812.49
586.828	7959.94
587.026	7947.65
587.223	7857.54
587.42	7882.12
587.618	7832.97
587.815	7662.99
588.012	7628.17
588.21	7607.69
588.407	7738.76
588.604	7697.8
588.801	7533.97
588.999	7638.41
589.196	7716.23
589.393	7501.2
589.59	7493.01
589.787	7587.21
589.984	7368.08
590.182	7390.61
590.379	7466.38
590.576	7376.27
590.773	7579.02
590.97	7413.13
591.167	7425.42
591.364	7298.45
591.561	7368.08
591.758	7296.4
591.955	7341.46
592.152	7269.78
592.349	7247.25
592.546	7484.81
592.743	7136.66
592.94	7218.58
593.137	7196.05
593.334	7191.95
593.531	7187.86
593.727	7095.7
593.924	7120.28
594.121	7122.32
594.318	7132.56
594.515	6917.53
594.712	7093.65
594.908	6962.58
595.105	7050.64
595.302	6956.44
595.499	6940.05
595.696	7114.13
595.892	6862.23
596.089	6997.4
596.286	6831.51
596.482	6829.46
596.679	6790.55
596.876	6884.76
597.072	6878.62
597.269	6714.78
597.466	6862.23
597.662	6784.41
597.859	6800.79
598.055	6798.74
598.252	6733.21
598.448	6610.33
598.645	6796.7
598.841	6698.39
599.038	6632.86
599.234	6477.21
599.431	6602.14
599.627	6628.76
599.824	6501.79
600.02	6591.9
600.217	6485.41
600.413	6444.45
600.609	6485.41
600.806	6278.56
601.002	6528.41
601.198	6260.13
601.395	6313.38
601.591	6286.75
601.787	6335.9
601.984	6268.32
602.18	6350.24
602.376	6208.93
602.572	6210.98
602.769	6417.82
602.965	6231.46
603.161	6161.83
603.357	6229.41
603.553	6124.96
603.75	6206.88
603.946	6213.03
604.142	6143.39
604.338	5969.32
604.534	6065.57
604.73	6143.39
604.926	5979.56
605.122	6063.52
605.318	5944.74
605.514	5838.25
605.71	5860.77
605.906	5965.22
606.102	5987.75
606.298	6032.8
606.494	5883.3
606.69	5977.51
606.886	5819.82
607.082	5834.15
607.278	5694.89
607.474	5850.53
607.67	5819.82
607.866	5715.37
608.062	5862.82
608.257	5748.14
608.453	5658.03
608.649	5737.9
608.845	5756.33
609.041	5563.82
609.236	5840.29
609.432	5750.18
609.628	5707.18
609.824	5694.89
610.019	5830.06
610.215	5629.35
610.411	5684.65
610.606	5551.53
610.802	5543.34
610.998	5547.44
611.193	5621.16
611.389	5389.74
611.584	5451.18
611.78	5461.42
611.976	5586.35
612.171	5514.67
612.367	5543.34
612.562	5426.61
612.758	5426.61
612.953	5404.08
613.149	5426.61
613.344	5178.8
613.539	5479.85
613.735	5486
613.93	5438.89
614.126	5256.62
614.321	5496.24
614.517	5307.82
614.712	5416.37
614.907	5348.78
615.103	5533.1
615.298	5225.9
615.493	5268.91
615.688	5256.62
615.884	5340.59
616.079	5131.7
616.274	5318.06
616.47	5152.18
616.665	5289.39
616.86	5164.47
617.055	5197.23
617.25	5109.17
617.445	5199.28
617.641	5137.84
617.836	5086.64
618.031	5084.59
618.226	5113.27
618.421	5143.99
618.616	5199.28
618.811	5010.87
619.006	5219.76
619.201	5010.87
619.396	4933.04
619.591	4931
619.786	5039.54
619.981	5000.63
620.176	4898.23
620.371	4875.7
620.566	4863.41
620.761	4945.33
620.956	4781.5
621.151	4646.33
621.346	4666.81
621.541	4677.05
621.735	4785.59
621.93	4615.61
622.125	4795.83
622.32	4578.75
622.515	4566.46
622.709	4482.49
622.904	4615.61
623.099	4531.64
623.294	4613.56
623.488	4486.59
623.683	4619.71
623.878	4388.29
624.072	4562.36
624.267	4539.83
624.462	4519.36
624.656	4472.25
624.851	4451.77
625.046	4332.99
625.24	4259.26
625.435	4242.88
625.629	4249.02
625.824	4287.93
626.018	4187.58
626.213	4136.38
626.407	4113.86
626.602	4130.24
626.796	4076.99
626.991	4138.43
627.185	3997.12
627.38	3947.97
627.574	4013.51
627.768	3935.68
627.963	4003.27
628.157	4040.13
628.352	3886.53
628.546	3718.6
628.74	3945.92
628.935	3927.49
629.129	3788.23
629.323	3915.2
629.517	3872.2
629.712	3708.36
629.906	3798.47
630.1	3837.38
630.294	3741.13
630.489	3722.7
630.683	3743.17
630.877	3567.05
631.071	3667.4
631.265	3679.69
631.459	3677.64
631.653	3671.5
631.848	3714.5
632.042	3603.91
632.236	3651.02
632.43	3554.76
632.624	3556.81
632.818	3493.32
633.012	3462.6
633.206	3460.56
633.4	3462.6
633.594	3294.67
633.788	3532.23
633.982	3329.49
634.176	3470.8
634.369	3481.03
634.563	3460.56
634.757	3372.49
634.951	3362.25
635.145	3294.67
635.339	3266
635.533	3294.67
635.726	3188.18
635.92	3311.05
636.114	3331.53
636.308	3200.46
636.501	3132.88
636.695	3247.57
636.889	3114.45
637.083	3091.92
637.276	3118.54
637.47	3081.68
637.664	3081.68
637.857	3091.92
638.051	3061.2
638.244	3036.63
638.438	3012.05
638.632	2938.32
638.825	3081.68
639.019	2944.47
639.212	2991.57
639.406	2852.31
639.599	2917.84
639.793	2794.97
639.986	2786.77
640.18	2936.28
640.373	2803.16
640.567	2874.84
640.76	2899.41
640.954	2780.63
641.147	2889.17
641.34	2786.77
641.534	2667.99
641.727	2805.21
641.92	2760.15
642.114	2741.72
642.307	2717.14
642.5	2743.77
642.694	2612.7
642.887	2692.57
643.08	2633.18
643.273	2737.62
643.467	2586.07
643.66	2653.66
643.853	2606.55
644.046	2598.36
644.239	2508.25
644.432	2371.04
644.626	2590.17
644.819	2473.43
645.012	2530.78
645.205	2467.29
645.398	2551.26
645.591	2469.34
645.784	2467.29
645.977	2491.87
646.17	2446.81
646.363	2442.71
646.556	2426.33
646.749	2393.56
646.942	2520.54
647.135	2328.03
647.328	2340.32
647.521	2328.03
647.714	2246.11
647.907	2391.52
648.099	2252.25
648.292	2362.84
648.485	2272.73
648.678	2303.45
648.871	2192.86
649.064	2237.92
649.256	2104.8
649.449	2328.03
649.642	2156
649.835	2205.15
650.027	2094.56
650.22	2156
650.413	2151.9
650.605	2199.01
650.798	2043.36
650.991	2088.42
651.183	2104.8
651.376	2041.31
651.568	2029.03
651.761	2049.5
651.954	2024.93
652.146	2024.93
652.339	1914.34
652.531	1906.15
652.724	1902.05
652.916	1951.2
653.109	1918.43
653.301	1992.16
653.494	1959.39
653.686	1902.05
653.879	1938.91
654.071	1811.94
654.263	1838.56
654.456	1756.65
654.648	1900
654.84	1797.6
655.033	1881.57
655.225	1820.13
655.417	1752.55
655.61	1813.99
655.802	1789.41
655.994	1793.51
656.186	1727.97
656.379	1793.51
656.571	1764.84
656.763	1842.66
656.955	1725.93
657.148	1721.83
657.34	1742.31
657.532	1699.3
657.724	1703.4
657.916	1748.45
658.108	1637.86
658.3	1684.97
658.492	1750.5
658.684	1703.4
658.876	1656.29
659.068	1541.61
659.26	1551.85
659.452	1779.17
659.644	1633.77
659.836	1711.59
660.028	1549.8
660.22	1570.28
660.412	1383.91
660.604	1603.05
660.796	1449.45
660.988	1535.46
661.18	1527.27
661.372	1514.98
661.563	1467.88
661.755	1570.28
661.947	1527.27
662.139	1383.91
662.331	1408.49
662.522	1406.44
662.714	1478.12
662.906	1527.27
663.097	1437.16
663.289	1377.77
663.481	1320.43
663.673	1361.39
663.864	1367.53
664.056	1314.28
664.247	1412.59
664.439	1433.07
664.631	1330.67
664.822	1469.93
665.014	1334.76
665.205	1291.76
665.397	1285.61
665.588	1353.2
665.78	1345
665.971	1310.19
666.163	1328.62
666.354	1297.9
666.546	1304.04
666.737	1269.23
666.929	1191.41
667.12	1232.37
667.311	1285.61
667.503	1115.63
667.694	1256.94
667.885	1148.4
668.077	1211.89
668.268	1189.36
668.459	1181.17
668.651	1242.61
668.842	1261.04
669.033	1224.17
669.224	1119.73
669.416	1199.6
669.607	1170.93
669.798	1242.61
669.989	1185.26
670.18	1166.83
670.371	1150.45
670.563	1127.92
670.754	1117.68
670.945	1115.63
671.136	1127.92
671.327	1117.68
671.518	1107.44
671.709	1011.18
671.9	1027.57
672.091	1170.93
672.282	1021.42
672.473	1095.15
672.664	1136.11
672.855	1123.82
673.046	1060.34
673.237	1136.11
673.428	1103.34
673.619	1054.19
673.809	1072.62
674	1144.3
674.191	1023.47
674.382	1142.25
674.573	1000.94
674.764	1066.48
674.954	1111.54
675.145	964.08
675.336	1068.53
675.527	998.9
675.717	962.03
675.908	998.9
676.099	964.08
676.289	962.03
676.48	1078.77
676.671	941.55
676.861	1029.62
677.052	968.18
677.243	1043.95
677.433	951.79
677.624	933.36
677.814	867.83
678.005	927.22
678.195	1023.47
678.386	1007.09
678.576	927.22
678.767	935.41
678.957	962.03
679.148	867.83
679.338	990.7
679.529	931.31
679.719	906.74
679.909	978.42
680.1	972.27
680.29	902.64
680.481	1033.71
680.671	988.66
680.861	908.79
681.052	951.79
681.242	953.84
681.432	947.7
681.622	978.42
681.813	962.03
682.003	892.4
682.193	876.02
682.383	912.88
682.573	925.17
682.764	988.66
682.954	957.94
683.144	935.41
683.334	984.56
683.524	990.7
683.714	1041.9
683.904	959.99
684.094	808.44
684.284	894.45
684.474	927.22
684.664	873.97
684.854	964.08
685.044	949.75
685.234	927.22
685.424	1011.18
685.614	904.69
685.804	943.6
685.994	974.32
686.184	943.6
686.374	916.98
686.564	902.64
686.753	904.69
686.943	869.87
687.133	929.27
687.323	826.87
687.513	882.16
687.702	957.94
687.892	933.36
688.082	910.83
688.272	933.36
688.461	906.74
688.651	908.79
688.841	808.44
689.03	921.07
689.22	882.16
689.41	908.79
689.599	919.03
689.789	830.96
689.979	929.27
690.168	841.2
690.358	728.56
690.547	908.79
690.737	869.87
690.926	919.03
691.116	937.46
691.305	861.68
691.495	876.02
691.684	783.86
691.874	865.78
692.063	888.31
692.252	888.31
692.442	876.02
692.631	847.35
692.82	816.63
693.01	747
693.199	876.02
693.388	894.45
693.578	853.49
693.767	767.48
693.956	804.34
694.146	808.44
694.335	820.72
694.524	781.81
694.713	822.77
694.902	828.92
695.092	732.66
695.281	912.88
695.47	841.2
695.659	839.16
695.848	828.92
696.037	812.53
696.226	769.52
696.415	808.44
696.604	806.39
696.793	824.82
696.982	826.87
697.171	810.48
697.36	771.57
697.549	800.24
697.738	798.2
697.927	781.81
698.116	810.48
698.305	824.82
698.494	777.72
698.683	755.19
698.872	777.72
699.061	839.16
699.25	769.52
699.438	806.39
699.627	806.39
699.816	800.24
700.005	749.04
700.193	742.9
700.382	665.08
700.571	765.43
700.76	716.28
700.948	771.57
701.137	744.95
701.326	736.76
701.514	753.14
701.703	744.95
701.892	781.81
702.08	759.28
702.269	804.34
702.457	699.89
702.646	777.72
702.834	648.69
703.023	804.34
703.212	753.14
703.4	751.09
703.589	779.76
703.777	763.38
703.965	708.09
704.154	808.44
704.342	712.18
704.531	706.04
704.719	732.66
704.907	765.43
705.096	708.09
705.284	685.56
705.472	693.75
705.661	710.13
705.849	730.61
706.037	736.76
706.226	652.79
706.414	636.41
706.602	790
706.79	751.09
706.979	755.19
707.167	730.61
707.355	648.69
707.543	644.6
707.731	693.75
707.919	691.7
708.107	699.89
708.296	691.7
708.484	765.43
708.672	589.3
708.86	701.94
709.048	697.85
709.236	716.28
709.424	656.89
709.612	716.28
709.8	675.32
709.988	689.65
710.176	671.22
710.364	681.46
710.551	675.32
710.739	642.55
710.927	660.98
711.115	632.31
711.303	671.22
711.491	628.21
711.679	615.93
711.866	724.47
712.054	572.92
712.242	669.17
712.43	706.04
712.617	689.65
712.805	726.52
712.993	579.06
713.181	634.36
713.368	683.51
713.556	747
713.744	665.08
713.931	697.85
714.119	685.56
714.306	708.09
714.494	568.82
714.682	679.41
714.869	583.16
715.057	681.46
715.244	691.7
715.432	677.37
715.619	675.32
715.807	708.09
715.994	630.26
716.182	646.65
716.369	654.84
716.556	728.56
716.744	722.42
716.931	611.83
717.119	742.9
717.306	628.21
717.493	632.31
717.681	654.84
717.868	677.37
718.055	701.94
718.242	726.52
718.43	644.6
718.617	638.45
718.804	556.54
718.991	525.82
719.179	620.02
719.366	658.93
719.553	597.49
719.74	564.73
719.927	566.78
720.114	609.78
720.301	638.45
720.488	665.08
720.676	650.74
720.863	632.31
721.05	589.3
721.237	660.98
721.424	570.87
721.611	632.31
721.798	632.31
721.985	605.69
722.172	550.39
722.358	646.65
722.545	583.16
722.732	574.97
722.919	599.54
723.106	527.86
723.293	546.3
723.48	556.54
723.667	486.9
723.853	636.41
724.04	529.91
724.227	640.5
724.414	568.82
724.6	595.45
724.787	577.02
724.974	534.01
725.161	585.21
725.347	581.11
725.534	595.45
725.72	617.97
725.907	620.02
726.094	513.53
726.28	527.86
726.467	587.26
726.653	611.83
726.84	632.31
727.027	560.63
727.213	462.33
727.4	579.06
727.586	581.11
727.773	605.69
727.959	587.26
728.145	574.97
728.332	574.97
728.518	615.93
728.705	525.82
728.891	536.06
729.077	628.21
729.264	513.53
729.45	634.36
729.636	591.35
729.823	474.62
730.009	482.81
730.195	566.78
730.382	531.96
730.568	589.3
730.754	534.01
730.94	665.08
731.126	523.77
731.313	583.16
731.499	626.17
731.685	550.39
731.871	468.47
732.057	552.44
732.243	617.97
732.429	550.39
732.615	564.73
732.801	617.97
732.987	515.58
733.173	534.01
733.359	577.02
733.545	486.9
733.731	523.77
733.917	620.02
734.103	572.92
734.289	554.49
734.475	544.25
734.661	536.06
734.847	626.17
735.033	534.01
735.219	546.3
735.404	511.48
735.59	652.79
735.776	593.4
735.962	579.06
736.148	607.73
736.333	560.63
736.519	591.35
736.705	521.72
736.89	486.9
737.076	525.82
737.262	542.2
737.447	546.3
737.633	605.69
737.819	484.86
738.004	611.83
738.19	550.39
738.375	577.02
738.561	507.38
738.747	523.77
738.932	542.2
739.118	525.82
739.303	468.47
739.489	552.44
739.674	486.9
739.859	511.48
740.045	511.48
740.23	470.52
740.416	495.1
740.601	558.58
740.786	454.14
740.972	486.9
741.157	613.88
741.342	476.66
741.528	534.01
741.713	570.87
741.898	497.14
742.084	515.58
742.269	534.01
742.454	497.14
742.639	480.76
742.824	495.1
743.01	587.26
743.195	521.72
743.38	447.99
743.565	501.24
743.75	513.53
743.935	445.95
744.12	452.09
744.305	501.24
744.49	509.43
744.675	478.71
744.86	407.03
745.045	345.59
745.23	550.39
745.415	447.99
745.6	419.32
745.785	466.42
745.97	546.3
746.155	519.67
746.34	534.01
746.525	491
746.71	435.71
746.895	460.28
747.079	497.14
747.264	509.43
747.449	452.09
747.634	501.24
747.819	443.9
748.003	435.71
748.188	425.47
748.373	462.33
748.557	501.24
748.742	411.13
748.927	421.37
749.111	411.13
749.296	439.8
749.481	509.43
749.665	515.58
749.85	525.82
750.034	484.86
750.219	388.6
750.404	437.75
750.588	478.71
750.773	386.55
750.957	402.94
751.141	454.14
751.326	411.13
751.51	439.8
751.695	425.47
751.879	370.17
752.064	458.23
752.248	415.23
752.432	439.8
752.617	542.2
752.801	407.03
752.985	341.5
753.17	380.41
753.354	439.8
753.538	364.03
753.722	423.42
753.907	361.98
754.091	392.7
754.275	333.31
754.459	296.44
754.643	396.79
754.828	335.35
755.012	400.89
755.196	394.75
755.38	396.79
755.564	380.41
755.748	302.59
755.932	402.94
756.116	321.02
756.3	366.07
756.484	394.75
756.668	337.4
756.852	335.35
757.036	347.64
757.22	335.35
757.404	374.27
757.588	255.48
757.772	351.74
757.956	372.22
758.14	335.35
758.323	357.88
758.507	376.31
758.691	357.88
758.875	323.07
759.059	292.35
759.242	255.48
759.426	265.72
759.61	327.16
759.794	339.45
759.977	316.92
760.161	370.17
760.345	249.34
760.528	292.35
760.712	306.68
760.895	380.41
761.079	267.77
761.263	374.27
761.446	273.92
761.63	284.16
761.813	353.79
761.997	257.53
762.18	366.07
762.364	275.96
762.547	290.3
762.731	300.54
762.914	257.53
763.098	306.68
763.281	308.73
763.464	255.48
763.648	235
763.831	335.35
764.015	296.44
764.198	327.16
764.381	296.44
764.564	251.39
764.748	175.61
764.931	259.58
765.114	255.48
765.297	314.88
765.481	249.34
765.664	327.16
765.847	228.86
766.03	265.72
766.213	249.34
766.397	269.82
766.58	198.14
766.763	214.52
766.946	294.4
767.129	249.34
767.312	253.44
767.495	263.68
767.678	251.39
767.861	259.58
768.044	267.77
768.227	298.49
768.41	321.02
768.593	255.48
768.776	308.73
768.959	247.29
769.142	280.06
769.324	267.77
769.507	187.9
769.69	296.44
769.873	253.44
770.056	312.83
770.239	216.57
770.421	218.62
770.604	169.47
770.787	292.35
770.97	167.42
771.152	198.14
771.335	265.72
771.518	216.57
771.7	161.28
771.883	261.63
772.066	212.48
772.248	206.33
772.431	161.28
772.613	249.34
772.796	249.34
772.978	312.83
773.161	255.48
773.343	237.05
773.526	220.67
773.708	218.62
773.891	263.68
774.073	255.48
774.256	259.58
774.438	210.43
774.621	232.96
774.803	189.95
774.985	175.61
775.168	192
775.35	304.64
775.532	230.91
775.715	187.9
775.897	220.67
776.079	265.72
776.261	200.19
776.444	185.85
776.626	235
776.808	189.95
776.99	214.52
777.173	169.47
777.355	220.67
777.537	226.81
777.719	163.33
777.901	212.48
778.083	208.38
778.265	181.76
778.447	296.44
778.629	144.89
778.811	146.94
778.993	148.99
779.175	189.95
779.357	210.43
779.539	187.9
779.721	157.18
779.903	157.18
780.085	171.52
780.267	177.66
780.449	216.57
780.631	142.85
780.812	169.47
780.994	122.37
781.176	192
781.358	161.28
781.54	155.13
781.721	138.75
781.903	200.19
782.085	177.66
782.267	177.66
782.448	153.09
782.63	128.51
782.812	112.13
782.993	185.85
783.175	161.28
783.357	52.74
783.538	128.51
783.72	163.33
783.901	153.09
784.083	144.89
784.264	153.09
784.446	120.32
784.627	118.27
784.809	136.7
784.99	173.57
785.172	101.89
785.353	24.06
785.535	118.27
785.716	132.61
785.897	126.46
786.079	91.65
786.26	146.94
786.441	163.33
786.623	99.84
786.804	134.65
786.985	169.47
787.167	146.94
787.348	103.93
787.529	108.03
787.71	91.65
787.891	101.89
788.073	67.07
788.254	91.65
788.435	124.41
788.616	93.69
788.797	34.3
788.978	105.98
789.159	28.16
789.34	110.08
789.522	112.13
789.703	128.51
789.884	136.7
790.065	130.56
790.246	110.08
790.427	65.02
790.607	36.35
790.788	177.66
790.969	91.65
791.15	196.09
791.331	153.09
791.512	124.41
791.693	138.75
791.874	130.56
792.054	71.17
792.235	165.37
792.416	97.79
792.597	103.93
792.778	44.54
792.958	122.37
793.139	116.22
793.32	130.56
793.5	22.02
793.681	134.65
793.862	116.22
794.042	126.46
794.223	46.59
794.404	62.98
794.584	5.63
794.765	52.74
794.945	67.07
795.126	73.21
795.306	93.69
795.487	114.17
795.667	54.78
795.848	30.21
796.028	50.69
796.209	130.56
796.389	44.54
796.57	118.27
796.75	116.22
796.93	13.82
797.111	91.65
797.291	89.6
797.471	52.74
797.652	40.45
797.832	83.45
798.012	77.31
798.192	83.45
798.373	77.31
798.553	38.4
798.733	9.73
798.913	67.07
799.093	54.78
799.274	38.4
799.454	-16.9
799.634	-2.56
799.814	91.65
799.994	67.07
800.174	79.36
800.354	95.74
800.534	58.88
800.714	38.4
800.894	40.45
801.074	62.98
801.254	75.26
801.434	38.4
801.614	40.45
801.794	134.65
801.974	312.83
802.154	83.45
802.334	132.61
802.514	1.54
802.693	24.06
802.873	138.75
803.053	69.12
803.233	36.35
803.413	28.16
803.592	-25.09
803.772	62.98
803.952	3.58
804.131	116.22
804.311	17.92
804.491	34.3
804.67	99.84
804.85	187.9
805.03	9.73
805.209	77.31
805.389	97.79
805.568	118.27
805.748	118.27
805.928	42.5
806.107	95.74
806.287	24.06
806.466	83.45
806.646	110.08
806.825	46.59
807.004	15.87
807.184	42.5
807.363	60.93
807.543	110.08
807.722	40.45
807.901	136.7
808.081	52.74
808.26	30.21
808.439	112.13
808.619	1.54
808.798	62.98
808.977	-45.57
809.156	77.31
809.336	-23.04
809.515	13.82
809.694	83.45
809.873	62.98
810.052	79.36
810.231	99.84
810.411	-31.23
810.59	69.12
810.769	11.78
810.948	9.73
811.127	-12.8
811.306	48.64
811.485	54.78
811.664	77.31
811.843	85.5
812.022	138.75
812.201	1.54
812.38	5.63
812.559	67.07
812.737	-23.04
812.916	-6.66
813.095	71.17
813.274	58.88
813.453	42.5
813.632	-4.61
813.811	26.11
813.989	52.74
814.168	128.51
814.347	58.88
814.526	30.21
814.704	-31.23
814.883	91.65
815.062	-6.66
815.24	108.03
815.419	3.58
815.598	108.03
815.776	75.26
815.955	19.97
816.133	32.26
816.312	-29.18
816.49	-14.85
816.669	36.35
816.847	32.26
817.026	58.88
817.204	38.4
817.383	19.97
817.561	13.82
817.74	83.45
817.918	-6.66
818.097	-27.14
818.275	50.69
818.453	22.02
818.632	30.21
818.81	-31.23
818.988	24.06
819.167	130.56
819.345	69.12
819.523	105.98
819.701	112.13
819.879	118.27
820.058	-55.81
820.236	77.31
820.414	50.69
820.592	24.06
820.77	52.74
820.948	50.69
821.127	75.26
821.305	17.92
821.483	-14.85
821.661	65.02
821.839	108.03
822.017	3.58
822.195	-49.66
822.373	1.54
822.551	15.87
822.729	73.21
822.907	62.98
823.085	54.78
823.262	28.16
823.44	42.5
823.618	-27.14
823.796	-14.85
823.974	36.35
824.152	34.3
824.329	22.02
824.507	-31.23
824.685	22.02
824.863	48.64
825.04	1.54
825.218	48.64
825.396	83.45
825.574	1.54
825.751	-4.61
825.929	108.03
826.107	-14.85
826.284	17.92
826.462	73.21
826.639	77.31
826.817	-12.8
826.994	65.02
827.172	17.92
827.349	38.4
827.527	46.59
827.704	-16.9
827.882	54.78
828.059	-23.04
828.237	-47.62
828.414	-39.42
828.591	42.5
828.769	101.89
828.946	91.65
829.124	1.54
829.301	19.97
829.478	67.07
829.655	9.73
829.833	-0.51
830.01	3.58
830.187	3.58
830.364	30.21
830.542	-4.61
830.719	-8.7
830.896	42.5
831.073	15.87
831.25	77.31
831.427	15.87
831.604	42.5
831.782	28.16
831.959	-2.56
832.136	48.64
832.313	44.54
832.49	-104.96
832.667	26.11
832.844	22.02
833.021	73.21
833.198	-12.8
833.374	52.74
833.551	46.59
833.728	17.92
833.905	-70.14
834.082	28.16
834.259	30.21
834.436	-12.8
834.612	-23.04
834.789	52.74
834.966	-2.56
835.143	44.54
835.319	-41.47
835.496	-29.18
835.673	36.35
835.85	48.64
836.026	38.4
836.203	13.82
836.38	42.5
836.556	32.26
836.733	42.5
836.909	30.21
837.086	36.35
837.262	3.58
837.439	-64
837.616	-16.9
837.792	26.11
837.968	32.26
838.145	-29.18
838.321	56.83
838.498	65.02
838.674	36.35
838.851	-0.51
839.027	-10.75
839.203	-37.38
839.38	71.17
839.556	-20.99
839.732	69.12
839.909	-18.94
840.085	-8.7
840.261	-96.77
840.437	101.89
840.614	52.74
840.79	71.17
840.966	-6.66
841.142	85.5
841.318	19.97
841.494	36.35
841.671	15.87
841.847	-4.61
842.023	3.58
842.199	83.45
842.375	34.3
842.551	-10.75
842.727	38.4
842.903	42.5
843.079	-14.85
843.255	32.26
843.431	114.17
843.607	73.21
843.783	-20.99
843.959	-2.56
844.134	42.5
844.31	89.6
844.486	15.87
844.662	19.97
844.838	-0.51
845.013	-14.85
845.189	15.87
845.365	60.93
845.541	54.78
845.716	13.82
845.892	32.26
846.068	-20.99
846.244	28.16
846.419	7.68
846.595	-6.66
846.77	36.35
846.946	-31.23
847.122	-18.94
847.297	-18.94
847.473	-14.85
847.648	24.06
847.824	-4.61
847.999	-27.14
848.175	-55.81
848.35	52.74
848.526	5.63
848.701	19.97
848.876	34.3
849.052	5.63
849.227	-6.66
849.403	93.69
849.578	30.21
849.753	-6.66
849.929	-2.56
850.104	24.06
850.279	56.83
850.454	19.97
850.63	-2.56
850.805	1.54
850.98	3.58
851.155	19.97
851.33	42.5
851.505	36.35
851.681	-2.56
851.856	46.59
852.031	44.54
852.206	40.45
852.381	11.78
852.556	-82.43
852.731	38.4
852.906	30.21
853.081	22.02
853.256	-12.8
853.431	-25.09
853.606	19.97
853.781	-0.51
853.956	60.93
854.131	69.12
854.305	60.93
854.48	-4.61
854.655	15.87
854.83	54.78
855.005	26.11
855.18	48.64
855.354	11.78
855.529	-23.04
855.704	-14.85
855.879	9.73
856.053	-37.38
856.228	38.4
856.403	42.5
856.577	-8.7
856.752	-39.42
856.926	7.68
857.101	-57.86
857.276	13.82
857.45	-8.7
857.625	-16.9
857.799	-55.81
857.974	26.11
858.148	-31.23
858.323	-6.66
858.497	24.06
858.672	-39.42
858.846	-8.7
859.02	-14.85
859.195	95.74
859.369	62.98
859.543	11.78
859.718	-47.62
859.892	26.11
860.066	-14.85
860.241	-10.75
860.415	30.21
860.589	34.3
860.763	-0.51
860.938	-14.85
861.112	58.88
861.286	34.3
861.46	11.78
861.634	7.68
861.808	5.63
861.982	-45.57
862.157	77.31
862.331	9.73
862.505	-2.56
862.679	5.63
862.853	-57.86
863.027	-0.51
863.201	19.97
863.375	17.92
863.549	34.3
863.722	52.74
863.896	22.02
864.07	11.78
864.244	-12.8
864.418	40.45
864.592	13.82
864.766	-6.66
864.939	19.97
865.113	-18.94
865.287	1.54
865.461	-29.18
865.634	-80.38
865.808	-33.28
865.982	46.59
866.156	-84.48
866.329	60.93
866.503	52.74
866.676	9.73
866.85	1.54
867.024	52.74
867.197	-72.19
867.371	24.06
867.544	42.5
867.718	-6.66
867.891	38.4
868.065	52.74
868.238	11.78
868.412	34.3
868.585	-12.8
868.759	24.06
868.932	-18.94
869.105	91.65
869.279	9.73
869.452	48.64
869.625	32.26
869.799	24.06
869.972	-16.9
870.145	42.5
870.319	1.54
870.492	-29.18
870.665	-10.75
870.838	-20.99
871.011	3.58
871.185	-6.66
871.358	-4.61
871.531	40.45
871.704	-33.28
871.877	58.88
872.05	3.58
872.223	62.98
872.396	-84.48
872.569	9.73
872.742	-27.14
872.915	-37.38
873.088	-43.52
873.261	50.69
873.434	-4.61
873.607	-41.47
873.78	-53.76
873.953	17.92
874.126	26.11
874.299	9.73
874.471	-18.94
874.644	79.36
874.817	22.02
874.99	58.88
875.163	-33.28
875.335	-23.04
875.508	17.92
875.681	13.82
875.853	44.54
876.026	1.54
876.199	42.5
876.371	11.78
876.544	-39.42
876.717	19.97
876.889	26.11
877.062	44.54
877.234	34.3
877.407	-14.85
877.579	22.02
877.752	-59.9
877.924	3.58
878.097	15.87
878.269	-25.09
878.442	9.73
878.614	-20.99
878.786	1.54
878.959	62.98
879.131	54.78
879.303	-16.9
879.476	-51.71
879.648	-12.8
879.82	40.45
879.993	-4.61
880.165	-23.04
880.337	-49.66
880.509	-8.7
880.681	-35.33
880.854	48.64
881.026	19.97
881.198	17.92
881.37	-23.04
881.542	-8.7
881.714	-4.61
881.886	81.41
882.058	-6.66
882.23	42.5
882.402	56.83
882.574	77.31
882.746	-29.18
882.918	-53.76
883.09	-10.75
883.262	-12.8
883.434	-64
883.606	13.82
883.778	-27.14
883.95	42.5
884.122	-37.38
884.293	-10.75
884.465	26.11
884.637	-8.7
884.809	-55.81
884.98	40.45
885.152	-10.75
885.324	3.58
885.496	-10.75
885.667	108.03
885.839	9.73
886.011	9.73
886.182	-14.85
886.354	-37.38
886.525	-0.51
886.697	-18.94
886.869	-2.56
887.04	-23.04
887.212	40.45
887.383	-10.75
887.555	38.4
887.726	73.21
887.897	26.11
888.069	89.6
888.24	-12.8
888.412	11.78
888.583	-27.14
888.754	-20.99
888.926	-59.9
889.097	-33.28
889.268	-12.8
889.44	42.5
889.611	-27.14
889.782	-41.47
889.953	-31.23
890.125	36.35
890.296	3.58
890.467	-18.94
890.638	-25.09
890.809	-29.18
890.98	-31.23
891.151	26.11
891.323	-35.33
891.494	19.97
891.665	-61.95
891.836	62.98
892.007	15.87
892.178	-23.04
892.349	38.4
892.52	28.16
892.691	13.82
892.862	13.82
893.032	9.73
893.203	-45.57
893.374	-33.28
893.545	28.16
893.716	-25.09
893.887	-57.86
894.057	40.45
894.228	-20.99
894.399	-8.7
894.57	44.54
894.74	-23.04
894.911	28.16
895.082	-18.94
895.253	-0.51
895.423	-6.66
895.594	-8.7
895.764	-43.52
895.935	-23.04
896.106	52.74
896.276	32.26
896.447	-33.28
896.617	-20.99
896.788	13.82
896.958	-12.8
897.129	-43.52
897.299	3.58
897.47	44.54
897.64	9.73
897.81	3.58
897.981	-25.09
898.151	24.06
898.322	38.4
898.492	24.06
898.662	-16.9
898.832	-23.04
899.003	24.06
899.173	42.5
899.343	19.97
899.513	-2.56
