Data from USB4F104151__66__12-54-13-202.txt Node

Date: Fri Mar 14 12:54:13 EDT 2025
User: louis
Spectrometer: USB4F10415
Trigger mode: 4
Integration Time (sec): 1.000000E-2
Scans to average: 1
Electric dark correction enabled: true
Nonlinearity correction enabled: false
Boxcar width: 0
XAxis mode: Wavelengths
Number of Pixels in Spectrum: 3648
>>>>>Begin Spectral Data<<<<<
178.204	-1.54
178.424	-1.54
178.644	-1.54
178.864	-91.65
179.084	-69.12
179.304	-69.12
179.524	18.94
179.744	2.56
179.964	121.34
180.184	-62.98
180.404	-28.16
180.624	-1.54
180.844	-13.82
181.064	-44.54
181.283	25.09
181.503	53.76
181.723	-1.54
181.943	-85.5
182.163	-38.4
182.383	16.9
182.602	-5.63
182.822	12.8
183.042	-36.35
183.262	2.56
183.482	-50.69
183.701	-38.4
183.921	-52.74
184.141	51.71
184.361	-11.78
184.58	-22.02
184.8	-54.78
185.02	-17.92
185.239	25.09
185.459	12.8
185.679	-17.92
185.898	57.86
186.118	27.14
186.338	-13.82
186.557	-15.87
186.777	80.38
186.997	20.99
187.216	16.9
187.436	-1.54
187.655	-19.97
187.875	59.9
188.095	-19.97
188.314	-5.63
188.534	2.56
188.753	-5.63
188.973	-24.06
189.192	0.51
189.412	-60.93
189.631	-1.54
189.851	-7.68
190.07	-22.02
190.29	-46.59
190.509	-22.02
190.729	-52.74
190.948	23.04
191.168	-54.78
191.387	57.86
191.607	12.8
191.826	64
192.045	10.75
192.265	-3.58
192.484	66.05
192.704	-17.92
192.923	12.8
193.142	23.04
193.362	45.57
193.581	10.75
193.8	-69.12
194.02	2.56
194.239	-46.59
194.458	-3.58
194.678	2.56
194.897	-73.21
195.116	-13.82
195.335	25.09
195.555	-5.63
195.774	14.85
195.993	-44.54
196.212	-50.69
196.432	-5.63
196.651	-17.92
196.87	27.14
197.089	39.42
197.308	-1.54
197.528	4.61
197.747	4.61
197.966	-50.69
198.185	31.23
198.404	25.09
198.623	-13.82
198.842	18.94
199.062	66.05
199.281	6.66
199.5	-22.02
199.719	-7.68
199.938	53.76
200.157	10.75
200.376	27.14
200.595	16.9
200.814	-1.54
201.033	-52.74
201.252	123.39
201.471	78.33
201.69	4.61
201.909	31.23
202.128	-7.68
202.347	35.33
202.566	47.62
202.785	2.56
203.004	49.66
203.223	35.33
203.442	-9.73
203.661	-26.11
203.879	-77.31
204.098	59.9
204.317	10.75
204.536	43.52
204.755	82.43
204.974	61.95
205.193	2.56
205.411	74.24
205.63	-5.63
205.849	68.09
206.068	-56.83
206.287	-36.35
206.505	2.56
206.724	-7.68
206.943	27.14
207.162	-28.16
207.381	43.52
207.599	-9.73
207.818	10.75
208.037	-11.78
208.255	41.47
208.474	35.33
208.693	-54.78
208.911	8.7
209.13	41.47
209.349	41.47
209.567	-7.68
209.786	-1.54
210.005	66.05
210.223	33.28
210.442	12.8
210.661	-5.63
210.879	35.33
211.098	4.61
211.316	68.09
211.535	20.99
211.753	-32.26
211.972	2.56
212.191	72.19
212.409	-7.68
212.628	31.23
212.846	-9.73
213.065	-32.26
213.283	-13.82
213.502	6.66
213.72	-13.82
213.938	-32.26
214.157	39.42
214.375	53.76
214.594	-13.82
214.812	49.66
215.031	27.14
215.249	68.09
215.467	-56.83
215.686	57.86
215.904	31.23
216.122	-52.74
216.341	10.75
216.559	10.75
216.778	-1.54
216.996	-30.21
217.214	-7.68
217.432	-7.68
217.651	-17.92
217.869	25.09
218.087	-17.92
218.306	23.04
218.524	20.99
218.742	-50.69
218.96	27.14
219.179	33.28
219.397	-13.82
219.615	-7.68
219.833	-3.58
220.051	-17.92
220.27	68.09
220.488	18.94
220.706	80.38
220.924	6.66
221.142	35.33
221.36	-5.63
221.578	-24.06
221.796	57.86
222.015	47.62
222.233	10.75
222.451	-11.78
222.669	6.66
222.887	31.23
223.105	4.61
223.323	43.52
223.541	20.99
223.759	-32.26
223.977	18.94
224.195	20.99
224.413	37.38
224.631	14.85
224.849	4.61
225.067	2.56
225.285	-3.58
225.503	-3.58
225.721	-19.97
225.939	-22.02
226.157	8.7
226.375	31.23
226.592	27.14
226.81	16.9
227.028	39.42
227.246	12.8
227.464	66.05
227.682	6.66
227.9	18.94
228.117	92.67
228.335	47.62
228.553	64
228.771	25.09
228.989	-5.63
229.206	-3.58
229.424	72.19
229.642	43.52
229.86	-46.59
230.077	-11.78
230.295	53.76
230.513	37.38
230.731	4.61
230.948	4.61
231.166	-3.58
231.384	-3.58
231.601	-38.4
231.819	72.19
232.037	-32.26
232.254	-1.54
232.472	25.09
232.689	-22.02
232.907	-5.63
233.125	18.94
233.342	-1.54
233.56	6.66
233.777	-1.54
233.995	-30.21
234.213	33.28
234.43	-15.87
234.648	-9.73
234.865	-1.54
235.083	-52.74
235.3	-30.21
235.518	14.85
235.735	82.43
235.953	37.38
236.17	-56.83
236.388	-65.02
236.605	-52.74
236.822	41.47
237.04	66.05
237.257	39.42
237.475	6.66
237.692	-5.63
237.909	53.76
238.127	6.66
238.344	16.9
238.562	10.75
238.779	80.38
238.996	-60.93
239.214	-26.11
239.431	43.52
239.648	37.38
239.865	119.29
240.083	35.33
240.3	-3.58
240.517	41.47
240.735	25.09
240.952	-13.82
241.169	43.52
241.386	-38.4
241.603	-11.78
241.821	16.9
242.038	33.28
242.255	14.85
242.472	16.9
242.689	41.47
242.907	49.66
243.124	25.09
243.341	-46.59
243.558	-22.02
243.775	-13.82
243.992	27.14
244.209	90.62
244.426	4.61
244.643	25.09
244.86	2.56
245.078	-30.21
245.295	41.47
245.512	-13.82
245.729	4.61
245.946	10.75
246.163	12.8
246.38	-11.78
246.597	-7.68
246.814	-69.12
247.031	-13.82
247.248	25.09
247.464	16.9
247.681	-13.82
247.898	72.19
248.115	10.75
248.332	-40.45
248.549	29.18
248.766	-9.73
248.983	25.09
249.2	33.28
249.417	57.86
249.633	8.7
249.85	33.28
250.067	-56.83
250.284	-15.87
250.501	-24.06
250.717	23.04
250.934	-44.54
251.151	-3.58
251.368	4.61
251.585	57.86
251.801	37.38
252.018	-28.16
252.235	4.61
252.451	0.51
252.668	-22.02
252.885	49.66
253.102	109.05
253.318	-3.58
253.535	-19.97
253.752	27.14
253.968	-15.87
254.185	-5.63
254.401	-19.97
254.618	-30.21
254.835	10.75
255.051	10.75
255.268	-9.73
255.484	10.75
255.701	-5.63
255.917	47.62
256.134	-50.69
256.351	-85.5
256.567	4.61
256.784	84.48
257	4.61
257.217	31.23
257.433	23.04
257.65	20.99
257.866	74.24
258.082	37.38
258.299	-81.41
258.515	14.85
258.732	27.14
258.948	35.33
259.165	27.14
259.381	-44.54
259.597	-22.02
259.814	16.9
260.03	-44.54
260.246	-7.68
260.463	-19.97
260.679	-28.16
260.895	0.51
261.112	2.56
261.328	35.33
261.544	4.61
261.761	45.57
261.977	-1.54
262.193	-19.97
262.409	27.14
262.626	0.51
262.842	25.09
263.058	-19.97
263.274	14.85
263.49	-67.07
263.707	39.42
263.923	0.51
264.139	-11.78
264.355	-11.78
264.571	-5.63
264.787	29.18
265.004	-22.02
265.22	29.18
265.436	47.62
265.652	-26.11
265.868	35.33
266.084	-13.82
266.3	29.18
266.516	-24.06
266.732	18.94
266.948	-11.78
267.164	0.51
267.38	-52.74
267.596	12.8
267.812	18.94
268.028	33.28
268.244	27.14
268.46	33.28
268.676	-32.26
268.892	10.75
269.108	-19.97
269.324	-11.78
269.54	66.05
269.756	8.7
269.972	-67.07
270.188	0.51
270.403	-1.54
270.619	12.8
270.835	35.33
271.051	-28.16
271.267	45.57
271.483	-17.92
271.698	14.85
271.914	14.85
272.13	14.85
272.346	18.94
272.562	82.43
272.777	37.38
272.993	-56.83
273.209	20.99
273.425	94.72
273.64	4.61
273.856	10.75
274.072	-26.11
274.287	-52.74
274.503	-30.21
274.719	8.7
274.934	-26.11
275.15	-75.26
275.366	-26.11
275.581	8.7
275.797	20.99
276.012	14.85
276.228	47.62
276.444	-1.54
276.659	29.18
276.875	8.7
277.09	43.52
277.306	-93.69
277.521	16.9
277.737	10.75
277.952	-7.68
278.168	8.7
278.383	23.04
278.599	-48.64
278.814	8.7
279.03	-5.63
279.245	-50.69
279.461	4.61
279.676	6.66
279.892	-28.16
280.107	78.33
280.322	-1.54
280.538	35.33
280.753	45.57
280.969	80.38
281.184	37.38
281.399	47.62
281.615	12.8
281.83	-7.68
282.045	-19.97
282.26	-1.54
282.476	20.99
282.691	-17.92
282.906	-9.73
283.122	29.18
283.337	-38.4
283.552	-32.26
283.767	8.7
283.983	10.75
284.198	-22.02
284.413	-46.59
284.628	-38.4
284.843	33.28
285.058	12.8
285.274	-17.92
285.489	-26.11
285.704	47.62
285.919	16.9
286.134	35.33
286.349	2.56
286.564	53.76
286.779	-30.21
286.995	-48.64
287.21	-15.87
287.425	-3.58
287.64	64
287.855	-11.78
288.07	-32.26
288.285	55.81
288.5	41.47
288.715	-44.54
288.93	-1.54
289.145	2.56
289.36	-19.97
289.575	6.66
289.79	-26.11
290.004	14.85
290.219	10.75
290.434	39.42
290.649	51.71
290.864	4.61
291.079	-13.82
291.294	4.61
291.509	14.85
291.724	-26.11
291.938	-19.97
292.153	14.85
292.368	-11.78
292.583	43.52
292.798	35.33
293.012	-26.11
293.227	12.8
293.442	18.94
293.657	64
293.871	-24.06
294.086	41.47
294.301	14.85
294.516	12.8
294.73	6.66
294.945	-32.26
295.16	14.85
295.374	2.56
295.589	47.62
295.804	8.7
296.018	-32.26
296.233	-42.5
296.447	-13.82
296.662	25.09
296.877	-62.98
297.091	-36.35
297.306	12.8
297.52	-52.74
297.735	31.23
297.949	47.62
298.164	-44.54
298.378	53.76
298.593	-5.63
298.807	-11.78
299.022	47.62
299.236	-38.4
299.451	4.61
299.665	33.28
299.88	-71.17
300.094	-52.74
300.309	70.14
300.523	4.61
300.737	-24.06
300.952	31.23
301.166	16.9
301.381	-7.68
301.595	72.19
301.809	-1.54
302.024	33.28
302.238	-40.45
302.452	29.18
302.667	-30.21
302.881	35.33
303.095	18.94
303.309	14.85
303.524	10.75
303.738	37.38
303.952	-58.88
304.166	25.09
304.381	-15.87
304.595	82.43
304.809	0.51
305.023	2.56
305.237	8.7
305.452	-28.16
305.666	59.9
305.88	10.75
306.094	14.85
306.308	51.71
306.522	10.75
306.736	0.51
306.95	29.18
307.164	12.8
307.379	-19.97
307.593	-42.5
307.807	41.47
308.021	-5.63
308.235	35.33
308.449	-3.58
308.663	-3.58
308.877	29.18
309.091	23.04
309.305	16.9
309.519	-60.93
309.733	49.66
309.947	6.66
310.161	-32.26
310.374	18.94
310.588	25.09
310.802	6.66
311.016	72.19
311.23	70.14
311.444	82.43
311.658	-17.92
311.872	-42.5
312.085	43.52
312.299	133.63
312.513	61.95
312.727	53.76
312.941	-19.97
313.154	-26.11
313.368	-30.21
313.582	-22.02
313.796	-5.63
314.009	12.8
314.223	72.19
314.437	84.48
314.651	-42.5
314.864	29.18
315.078	35.33
315.292	86.53
315.505	-3.58
315.719	-11.78
315.933	23.04
316.146	-1.54
316.36	4.61
316.573	6.66
316.787	6.66
317.001	55.81
317.214	20.99
317.428	14.85
317.641	27.14
317.855	33.28
318.068	14.85
318.282	12.8
318.495	-22.02
318.709	16.9
318.922	-56.83
319.136	6.66
319.349	72.19
319.563	18.94
319.776	35.33
319.99	-17.92
320.203	-9.73
320.417	-9.73
320.63	0.51
320.843	-3.58
321.057	2.56
321.27	35.33
321.483	-30.21
321.697	2.56
321.91	2.56
322.124	-5.63
322.337	27.14
322.55	14.85
322.763	-38.4
322.977	25.09
323.19	20.99
323.403	-32.26
323.617	-48.64
323.83	51.71
324.043	-83.45
324.256	10.75
324.469	-24.06
324.683	20.99
324.896	18.94
325.109	64
325.322	-13.82
325.535	35.33
325.748	-1.54
325.962	35.33
326.175	25.09
326.388	-5.63
326.601	-30.21
326.814	-48.64
327.027	-3.58
327.24	43.52
327.453	-15.87
327.666	-54.78
327.879	6.66
328.092	37.38
328.305	-11.78
328.518	20.99
328.731	43.52
328.944	68.09
329.157	-9.73
329.37	-11.78
329.583	0.51
329.796	82.43
330.009	-17.92
330.222	-36.35
330.435	-3.58
330.648	29.18
330.861	2.56
331.073	10.75
331.286	-24.06
331.499	27.14
331.712	-13.82
331.925	2.56
332.138	49.66
332.35	4.61
332.563	25.09
332.776	6.66
332.989	-13.82
333.202	29.18
333.414	8.7
333.627	-11.78
333.84	14.85
334.053	25.09
334.265	53.76
334.478	18.94
334.691	14.85
334.903	47.62
335.116	-85.5
335.329	57.86
335.541	92.67
335.754	27.14
335.966	4.61
336.179	55.81
336.392	35.33
336.604	2.56
336.817	33.28
337.029	33.28
337.242	-85.5
337.454	35.33
337.667	0.51
337.88	47.62
338.092	23.04
338.305	51.71
338.517	12.8
338.729	31.23
338.942	0.51
339.154	29.18
339.367	104.96
339.579	47.62
339.792	-99.84
340.004	10.75
340.217	-71.17
340.429	12.8
340.641	-11.78
340.854	-7.68
341.066	96.77
341.278	-32.26
341.491	-83.45
341.703	92.67
341.915	14.85
342.128	25.09
342.34	31.23
342.552	53.76
342.764	37.38
342.977	-44.54
343.189	-44.54
343.401	35.33
343.613	-15.87
343.826	72.19
344.038	14.85
344.25	49.66
344.462	57.86
344.674	20.99
344.886	10.75
345.099	41.47
345.311	0.51
345.523	39.42
345.735	-9.73
345.947	94.72
346.159	4.61
346.371	6.66
346.583	84.48
346.795	-5.63
347.007	-3.58
347.219	20.99
347.431	37.38
347.643	18.94
347.855	-28.16
348.067	61.95
348.279	-30.21
348.491	68.09
348.703	0.51
348.915	-11.78
349.127	-30.21
349.339	57.86
349.551	66.05
349.763	-11.78
349.975	-17.92
350.187	-1.54
350.399	-28.16
350.61	-15.87
350.822	45.57
351.034	-26.11
351.246	55.81
351.458	27.14
351.669	66.05
351.881	4.61
352.093	16.9
352.305	12.8
352.517	20.99
352.728	14.85
352.94	-24.06
353.152	0.51
353.363	78.33
353.575	61.95
353.787	-3.58
353.999	-3.58
354.21	90.62
354.422	18.94
354.633	37.38
354.845	14.85
355.057	-32.26
355.268	18.94
355.48	18.94
355.692	6.66
355.903	-34.3
356.115	12.8
356.326	-38.4
356.538	43.52
356.749	86.53
356.961	64
357.172	-46.59
357.384	57.86
357.595	55.81
357.807	27.14
358.018	-11.78
358.23	49.66
358.441	20.99
358.653	-30.21
358.864	23.04
359.075	107.01
359.287	64
359.498	66.05
359.709	66.05
359.921	29.18
360.132	-5.63
360.344	23.04
360.555	43.52
360.766	31.23
360.977	-1.54
361.189	-5.63
361.4	23.04
361.611	0.51
361.823	18.94
362.034	37.38
362.245	-5.63
362.456	92.67
362.667	8.7
362.879	10.75
363.09	23.04
363.301	51.71
363.512	57.86
363.723	-1.54
363.935	55.81
364.146	45.57
364.357	-48.64
364.568	80.38
364.779	10.75
364.99	35.33
365.201	57.86
365.412	45.57
365.623	6.66
365.834	53.76
366.045	64
366.256	41.47
366.467	78.33
366.678	-11.78
366.889	14.85
367.1	-28.16
367.311	-13.82
367.522	29.18
367.733	2.56
367.944	0.51
368.155	29.18
368.366	29.18
368.577	80.38
368.788	-3.58
368.999	12.8
369.209	51.71
369.42	-3.58
369.631	41.47
369.842	27.14
370.053	29.18
370.264	-26.11
370.474	-11.78
370.685	64
370.896	70.14
371.107	72.19
371.317	31.23
371.528	33.28
371.739	-1.54
371.95	45.57
372.16	59.9
372.371	31.23
372.582	51.71
372.792	41.47
373.003	37.38
373.214	-44.54
373.424	33.28
373.635	-42.5
373.846	29.18
374.056	18.94
374.267	68.09
374.477	66.05
374.688	29.18
374.898	-5.63
375.109	4.61
375.319	43.52
375.53	18.94
375.74	16.9
375.951	12.8
376.161	33.28
376.372	0.51
376.582	-11.78
376.793	23.04
377.003	66.05
377.214	-36.35
377.424	33.28
377.635	10.75
377.845	-60.93
378.055	86.53
378.266	64
378.476	59.9
378.686	-5.63
378.897	41.47
379.107	-3.58
379.317	66.05
379.528	39.42
379.738	-3.58
379.948	-7.68
380.158	51.71
380.369	-26.11
380.579	10.75
380.789	45.57
380.999	12.8
381.21	57.86
381.42	0.51
381.63	20.99
381.84	68.09
382.05	29.18
382.261	45.57
382.471	113.15
382.681	68.09
382.891	84.48
383.101	-13.82
383.311	45.57
383.521	29.18
383.731	76.29
383.941	59.9
384.151	39.42
384.361	-5.63
384.571	6.66
384.781	72.19
384.991	57.86
385.201	-19.97
385.411	-38.4
385.621	-5.63
385.831	31.23
386.041	2.56
386.251	-5.63
386.461	76.29
386.671	4.61
386.881	29.18
387.091	41.47
387.301	25.09
387.511	12.8
387.72	100.86
387.93	29.18
388.14	-54.78
388.35	25.09
388.56	59.9
388.769	31.23
388.979	53.76
389.189	-32.26
389.399	39.42
389.609	27.14
389.818	-1.54
390.028	-67.07
390.238	43.52
390.447	-26.11
390.657	-9.73
390.867	68.09
391.076	-50.69
391.286	43.52
391.496	39.42
391.705	-5.63
391.915	86.53
392.125	35.33
392.334	113.15
392.544	80.38
392.753	29.18
392.963	39.42
393.172	55.81
393.382	-22.02
393.591	43.52
393.801	-1.54
394.01	39.42
394.22	33.28
394.429	90.62
394.639	10.75
394.848	23.04
395.058	39.42
395.267	29.18
395.477	33.28
395.686	-85.5
395.895	111.1
396.105	102.91
396.314	-40.45
396.524	57.86
396.733	68.09
396.942	147.97
397.152	25.09
397.361	68.09
397.57	14.85
397.78	47.62
397.989	57.86
398.198	72.19
398.407	31.23
398.617	14.85
398.826	6.66
399.035	84.48
399.244	20.99
399.453	61.95
399.663	59.9
399.872	43.52
400.081	25.09
400.29	100.86
400.499	10.75
400.708	61.95
400.917	-17.92
401.127	51.71
401.336	41.47
401.545	102.91
401.754	16.9
401.963	33.28
402.172	39.42
402.381	2.56
402.59	33.28
402.799	80.38
403.008	-34.3
403.217	51.71
403.426	29.18
403.635	94.72
403.844	4.61
404.053	147.97
404.262	10.75
404.471	10.75
404.68	113.15
404.888	76.29
405.097	143.87
405.306	35.33
405.515	43.52
405.724	68.09
405.933	109.05
406.142	37.38
406.35	72.19
406.559	98.81
406.768	78.33
406.977	90.62
407.185	119.29
407.394	35.33
407.603	129.53
407.812	109.05
408.02	193.02
408.229	115.2
408.438	47.62
408.646	113.15
408.855	82.43
409.064	70.14
409.272	174.59
409.481	129.53
409.69	98.81
409.898	117.25
410.107	59.9
410.315	178.69
410.524	154.11
410.733	127.49
410.941	141.82
411.15	184.83
411.358	154.11
411.567	209.4
411.775	211.45
411.984	195.07
412.192	172.54
412.401	238.08
412.609	227.84
412.818	250.36
413.026	238.08
413.234	260.6
413.443	207.36
413.651	324.09
413.86	272.89
414.068	250.36
414.276	326.14
414.485	242.17
414.693	322.04
414.901	336.38
415.11	334.33
415.318	315.9
415.526	410.11
415.734	446.97
415.943	393.72
416.151	381.43
416.359	354.81
416.567	428.54
416.776	383.48
416.984	481.78
417.192	479.74
417.4	397.82
417.608	457.21
417.817	504.31
418.025	514.55
418.233	596.47
418.441	506.36
418.649	598.52
418.857	573.94
419.065	637.43
419.273	678.39
419.481	674.29
419.689	692.73
419.897	715.25
420.105	700.92
420.313	741.88
420.521	776.69
420.729	719.35
420.937	766.45
421.145	946.67
421.353	866.8
421.561	883.19
421.769	952.82
421.977	979.44
422.185	920.05
422.393	1104.37
422.601	1161.71
422.809	1026.54
423.017	1057.26
423.224	1149.42
423.432	1217.01
423.64	1167.85
423.848	1266.16
424.056	1286.64
424.263	1231.34
424.471	1298.92
424.679	1376.75
424.887	1432.04
425.094	1518.06
425.302	1475.05
425.51	1567.21
425.718	1716.71
425.925	1597.93
426.133	1729
426.341	1802.72
426.548	1894.88
426.756	1903.07
426.964	1858.02
427.171	2099.68
427.379	2099.68
427.586	2079.2
427.794	2208.22
428.001	2249.18
428.209	2306.52
428.417	2306.52
428.624	2513.37
428.832	2496.99
429.039	2324.96
429.247	2484.7
429.454	2703.83
429.662	2898.39
429.869	2662.87
430.076	2871.76
430.284	2779.61
430.491	2992.59
430.699	3166.67
430.906	3054.03
431.114	3080.66
431.321	3189.2
431.528	3379.66
431.736	3537.35
431.943	3811.78
432.15	3617.22
432.358	3713.48
432.565	3850.69
432.772	3779.01
432.979	4090.31
433.187	4149.7
433.394	4250.05
433.601	4444.6
433.808	4432.32
434.016	4395.45
434.223	4518.33
434.43	4907.45
434.637	4895.16
434.844	5183.92
435.052	5212.59
435.259	5280.18
435.466	5188.02
435.673	5261.74
435.88	5542.32
436.087	5869.99
436.294	5740.97
436.501	5806.5
436.708	5859.75
436.915	5962.15
437.122	6259.1
437.329	6265.25
437.537	6398.37
437.743	6586.78
437.95	6494.62
438.157	6916.5
438.364	7125.4
438.571	6922.65
438.778	7006.61
438.985	7786.89
439.192	7428.49
439.399	7571.85
439.606	7575.95
439.813	7999.88
440.02	8511.87
440.227	8259.97
440.433	8049.03
440.64	8460.67
440.847	8356.22
441.054	8626.56
441.261	9230.71
441.467	9181.56
441.674	9324.91
441.881	9509.23
442.088	9810.28
442.294	9386.35
442.501	9769.32
442.708	10000.74
442.914	10555.74
443.121	10666.33
443.328	10340.71
443.534	11286.87
443.741	10953.05
443.948	10885.47
444.154	11604.3
444.361	11495.76
444.568	11800.91
444.774	11551.06
444.981	11751.76
445.187	11942.22
445.394	12710.21
445.6	12423.49
445.807	13404.47
446.013	13111.61
446.22	13117.75
446.426	13738.29
446.633	13836.59
446.839	14309.67
447.046	13783.34
447.252	14573.86
447.459	14563.62
447.665	14571.81
447.871	15184.15
448.078	15845.65
448.284	15261.98
448.491	15550.74
448.697	16052.49
448.903	16392.45
449.11	16455.94
449.316	16314.63
449.522	16492.8
449.728	16931.07
449.935	17043.71
450.141	17080.57
450.347	17600.76
450.553	16920.83
450.76	16963.84
450.966	17469.69
451.172	17654
451.378	18084.08
451.584	17467.64
451.791	18094.32
451.997	17807.6
452.203	18778.34
452.409	18587.88
452.615	18292.97
452.821	17793.26
453.027	17232.12
453.233	18460.9
453.44	17871.09
453.646	18010.35
453.852	18122.99
454.058	18270.44
454.264	17725.68
454.47	18135.28
454.676	17600.76
454.882	18284.78
455.088	16697.6
455.294	17142.01
455.5	17180.92
455.705	17379.57
455.911	16773.38
456.117	16576.77
456.323	16259.34
456.529	15272.21
456.735	16216.33
456.941	15802.64
457.147	15257.88
457.352	14686.5
457.558	14928.16
457.764	14596.39
457.97	14678.3
458.176	14248.23
458.381	14149.93
458.587	13416.76
458.793	13654.32
458.999	12876.09
459.204	13617.46
459.41	13236.53
459.616	12667.2
459.821	12622.14
460.027	12620.1
460.233	12284.23
460.438	11780.43
460.644	11837.77
460.85	11356.5
461.055	11053.4
461.261	11145.56
461.466	10221.92
461.672	9865.58
461.878	10811.74
462.083	10072.42
462.289	9785.71
462.494	9771.37
462.7	9226.61
462.905	9195.89
463.111	9462.13
463.316	9253.23
463.522	9220.47
463.727	9251.19
463.932	9521.52
464.138	9300.34
464.343	9208.18
464.549	9054.58
464.754	9361.78
464.959	9306.48
465.165	9269.62
465.37	8737.15
465.575	8700.28
465.781	8989.05
465.986	8880.5
466.191	8704.38
466.397	8579.45
466.602	8143.24
466.807	8419.71
467.012	8497.53
467.218	8458.62
467.423	8208.77
467.628	8370.56
467.833	8573.31
468.038	8296.83
468.244	8167.81
468.449	8434.05
468.654	8122.76
468.859	8180.1
469.064	8053.13
469.269	7768.46
469.474	7924.1
469.679	7907.72
469.885	7975.3
470.09	7790.99
470.295	7813.51
470.5	7373.2
470.705	7694.73
470.91	7594.38
471.115	7424.4
471.32	7559.56
471.525	7379.34
471.73	7264.66
471.935	7201.17
472.139	7174.55
472.344	7037.33
472.549	7147.92
472.754	6916.5
472.959	6748.57
473.164	6736.28
473.369	6672.79
473.574	6773.14
473.778	6771.1
473.983	6812.06
474.188	6615.45
474.393	6465.95
474.598	6408.61
474.802	6179.23
475.007	6226.34
475.212	6390.17
475.417	6023.59
475.621	6162.85
475.826	5867.94
476.031	5880.23
476.235	5853.61
476.44	5853.61
476.645	5847.46
476.849	5859.75
477.054	5855.65
477.259	5665.19
477.463	5568.94
477.668	5505.45
477.872	5417.39
478.077	5482.92
478.282	5401.01
478.486	5335.47
478.691	5171.63
478.895	5317.04
479.1	5226.93
479.304	5210.54
479.509	5267.89
479.713	5108.15
479.918	4991.41
480.122	4854.2
480.326	4919.73
480.531	5005.75
480.735	4903.35
480.94	5038.52
481.144	5097.91
481.348	4897.21
481.553	4934.07
481.757	4921.78
481.961	4776.38
482.166	4966.84
482.37	5015.99
482.574	4977.08
482.778	4770.23
482.983	4991.41
483.187	4903.35
483.391	4772.28
483.595	4739.51
483.8	4870.58
484.004	4899.25
484.208	4940.21
484.412	4778.42
484.616	4921.78
484.821	5013.94
485.025	4770.23
485.229	5026.23
485.433	4850.1
485.637	4792.76
485.841	4807.09
486.045	4923.83
486.249	5030.32
486.453	4907.45
486.657	5024.18
486.861	4852.15
487.065	4872.63
487.269	5005.75
487.473	5009.84
487.677	4936.12
487.881	5054.9
488.085	5018.04
488.289	4942.26
488.493	5056.95
488.697	4985.27
488.901	5190.06
489.105	5136.82
489.309	5042.61
489.512	5069.23
489.716	5065.14
489.92	5149.11
490.124	5001.65
490.328	5327.28
490.531	5245.36
490.735	5212.59
490.939	5314.99
491.143	5171.63
491.346	5222.83
491.55	5337.52
491.754	5165.49
491.958	5241.26
492.161	5376.43
492.365	5499.31
492.569	5384.62
492.772	5570.99
492.976	5329.33
493.18	5579.18
493.383	5710.25
493.587	5554.6
493.79	5829.03
493.994	5603.75
494.197	5804.46
494.401	5814.7
494.605	5900.71
494.808	6009.25
495.012	6029.73
495.215	5996.96
495.419	6224.29
495.622	6035.88
495.825	6193.57
496.029	6123.94
496.232	6304.16
496.436	6412.7
496.639	6705.56
496.843	6576.54
497.046	6601.12
497.249	6762.9
497.453	6769.05
497.656	6738.33
497.859	6953.37
498.063	6844.82
498.266	7131.54
498.469	7215.51
498.673	7246.23
498.876	7326.1
499.079	7397.78
499.282	7483.79
499.485	7494.03
499.689	7840.14
499.892	7944.58
500.095	7903.62
500.298	8249.73
500.501	7979.4
500.705	8268.16
500.908	8288.64
501.111	8587.64
501.314	8491.39
501.517	8704.38
501.72	8853.88
501.923	8835.45
502.126	8968.57
502.329	9007.48
502.532	9238.9
502.735	9462.13
502.938	9560.43
503.141	9556.33
503.344	9875.82
503.547	10115.43
503.75	9902.44
503.953	10209.64
504.156	10396
504.359	10414.43
504.562	10443.1
504.765	10854.75
504.968	10873.18
505.17	11065.69
505.373	11114.84
505.576	11297.11
505.779	11522.38
505.982	11563.34
506.185	11856.2
506.387	12026.18
506.59	12175.69
506.793	12140.87
506.996	12228.93
507.198	12575.04
507.401	12626.24
507.604	12693.82
507.807	13013.31
508.009	13273.4
508.212	13130.04
508.415	13568.3
508.617	13594.93
508.82	13728.05
509.022	13955.37
509.225	14121.26
509.428	14176.55
509.63	14412.07
509.833	14412.07
510.035	15089.95
510.238	15005.98
510.44	15239.45
510.643	15429.91
510.845	15509.78
511.048	15692.05
511.25	16005.39
511.453	15708.43
511.655	16658.69
511.858	16396.55
512.06	16695.55
512.262	16654.59
512.465	16797.95
512.667	17049.85
512.87	17254.65
513.072	17359.1
513.274	17656.05
513.477	17905.9
513.679	17996.01
513.881	18344.17
514.084	18452.71
514.286	18421.99
514.488	18577.64
514.69	19466.45
514.893	19620.05
515.095	19284.19
515.297	19730.64
515.499	19894.48
515.701	20046.03
515.904	20525.25
516.106	20119.76
516.308	20515.01
516.51	21156.03
516.712	21278.91
516.914	21340.35
517.116	21692.6
517.318	21815.48
517.52	21840.05
517.722	21948.59
517.925	22272.17
518.127	22812.84
518.329	22546.6
518.531	22640.81
518.733	23290.01
518.935	23586.97
519.136	23158.94
519.338	23951.51
519.54	24135.82
519.742	24268.94
519.944	24522.89
520.146	24682.63
520.348	24993.92
520.55	25004.16
520.752	24909.96
520.954	25536.63
521.155	25751.67
521.357	25763.96
521.559	26179.7
521.761	26294.38
521.963	26095.73
522.164	26761.32
522.366	26675.3
522.568	26767.46
522.77	27119.71
522.971	27740.25
523.173	27275.36
523.375	27621.47
523.576	27617.37
523.778	27762.78
523.98	28098.64
524.181	28321.87
524.383	28094.55
524.584	28680.27
524.786	28952.65
524.988	28596.3
525.189	28956.74
525.391	29161.54
525.592	29345.86
525.794	29411.39
525.995	29474.88
526.197	29562.94
526.398	29880.38
526.6	30294.07
526.801	30089.27
527.003	30576.69
527.204	30281.78
527.406	30548.01
527.607	30617.64
527.808	30720.04
528.01	30351.41
528.211	30887.98
528.412	31492.13
528.614	31463.46
528.815	31154.21
529.016	31903.77
529.218	31555.61
529.419	31537.18
529.62	31569.95
529.822	31307.81
530.023	31985.69
530.224	32016.41
530.425	31713.31
530.626	31467.55
530.828	31504.42
531.029	32677.9
531.23	32364.56
531.431	31799.32
531.632	32176.15
531.833	32552.98
532.035	32729.1
532.236	32493.58
532.437	32489.49
532.638	32426
532.839	32579.6
533.04	32649.23
533.241	32673.81
533.442	33077.26
533.643	32845.83
533.844	32894.99
534.045	33212.42
534.246	32968.71
534.447	33157.13
534.648	33091.59
534.849	33093.64
535.05	33030.15
535.251	33083.4
535.451	32915.47
535.652	33435.65
535.853	33142.79
536.054	33095.69
536.255	33355.78
536.456	33224.71
536.657	33646.59
536.857	33286.15
537.058	33421.31
537.259	33736.7
537.46	33320.96
537.66	33370.11
537.861	33490.94
538.062	33323.01
538.263	33734.65
538.463	33220.61
538.664	33689.6
538.865	33611.78
539.065	34086.9
539.266	33605.63
539.466	33880.06
539.667	33476.61
539.868	33835
540.068	33515.52
540.269	33679.36
540.469	33855.48
540.67	33533.95
540.87	33763.32
541.071	33589.25
541.271	34205.69
541.472	33665.02
541.672	33634.3
541.873	33921.02
542.073	33300.48
542.274	33953.79
542.474	33761.28
542.675	33558.53
542.875	34355.19
543.075	33828.86
543.276	33400.83
543.476	34267.13
543.676	34093.05
543.877	34146.29
544.077	34287.6
544.277	33912.83
544.478	33966.07
544.678	34201.59
544.878	33998.84
545.078	34195.45
545.279	33861.63
545.479	33841.15
545.679	34437.11
545.879	34052.09
546.079	34052.09
546.28	34134.01
546.48	33845.24
546.68	34093.05
546.88	34326.52
547.08	34054.14
547.28	34220.02
547.48	33650.69
547.68	34217.97
547.88	34007.03
548.081	34213.88
548.281	34177.01
548.481	33933.31
548.681	34236.41
548.881	34410.48
549.081	34011.13
549.28	34088.95
549.48	34553.84
549.68	34199.54
549.88	34535.41
550.08	33951.74
550.28	34258.93
550.48	34093.05
550.68	34609.14
550.88	34082.81
551.08	34076.66
551.279	34097.14
551.479	33925.11
551.679	34199.54
551.879	34224.12
552.079	34054.14
552.278	34035.7
552.478	34301.94
552.678	34146.29
552.878	34316.28
553.077	34355.19
553.277	33642.49
553.477	34551.79
553.676	34349.04
553.876	34009.08
554.076	34072.57
554.275	34013.18
554.475	33787.9
554.674	34228.21
554.874	33980.41
555.074	33921.02
555.273	34183.16
555.473	34260.98
555.672	33708.03
555.872	33759.23
556.071	33912.83
556.271	34406.39
556.47	34166.77
556.67	33449.99
556.869	33728.51
557.068	34217.97
557.268	33742.85
557.467	33617.92
557.667	33929.21
557.866	33972.22
558.065	33826.81
558.265	33880.06
558.464	33714.17
558.663	33810.43
558.863	33220.61
559.062	34381.81
559.261	33667.07
559.461	34168.82
559.66	33169.41
559.859	33904.63
560.058	33583.1
560.258	33617.92
560.457	33314.82
560.656	33611.78
560.855	33132.55
561.054	33247.24
561.253	33351.68
561.453	33806.33
561.652	33400.83
561.851	33714.17
562.05	33622.01
562.249	33304.58
562.448	33640.45
562.647	33492.99
562.846	33544.19
563.045	33501.18
563.244	33120.26
563.443	34099.19
563.642	33239.04
563.841	33781.76
564.04	33134.6
564.239	33593.34
564.438	32921.61
564.637	33624.06
564.836	33490.94
565.035	33306.63
565.234	33271.81
565.432	33269.76
565.631	33013.77
565.83	33402.88
566.029	33394.69
566.228	32802.83
566.427	33099.78
566.625	33122.31
566.824	32796.68
567.023	33200.13
567.222	32532.5
567.42	33443.84
567.619	32815.12
567.818	33001.48
568.016	32985.1
568.215	33280
568.414	33247.24
568.612	33376.26
568.811	32778.25
569.01	32880.65
569.208	32401.43
569.407	33306.63
569.605	32301.08
569.804	32989.19
570.002	32542.74
570.201	32929.8
570.4	32843.79
570.598	32569.36
570.797	32602.13
570.995	32464.91
571.193	32247.83
571.392	32710.67
571.59	32155.67
571.789	32131.09
571.987	32110.61
572.186	32227.35
572.384	31893.53
572.582	32200.72
572.781	32286.74
572.979	31977.5
573.177	32204.82
573.376	32460.82
573.574	31545.37
573.772	32256.02
573.971	31739.93
574.169	31774.75
574.367	31422.5
574.565	32028.7
574.763	31744.03
574.962	31406.11
575.16	31524.89
575.358	31690.78
575.556	31121.45
575.754	31514.66
575.952	31090.73
576.151	31547.42
576.349	31141.92
576.547	30793.77
576.745	31021.09
576.943	31156.26
577.141	31186.98
577.339	31078.44
577.537	30894.12
577.735	30752.81
577.933	30799.91
578.131	30658.6
578.329	30705.71
578.527	30437.42
578.725	30642.22
578.923	30591.02
579.121	30371.89
579.319	30369.84
579.516	30763.05
579.714	30281.78
579.912	30253.11
580.11	30099.51
580.308	30412.85
580.506	30287.92
580.704	29827.13
580.901	30259.25
581.099	30031.93
581.297	29749.31
581.495	29724.73
581.692	30015.54
581.89	29538.37
582.088	29882.42
582.285	29657.15
582.483	29669.44
582.681	29573.18
582.878	29442.11
583.076	29118.53
583.274	29415.49
583.471	28667.98
583.669	29169.73
583.866	29077.57
584.064	29018.18
584.262	28778.57
584.459	28915.78
584.657	28614.73
584.854	28960.84
585.052	28325.97
585.249	28827.72
585.447	28477.52
585.644	28733.51
585.841	28317.78
586.039	28661.83
586.236	28233.81
586.434	28274.77
586.631	28260.43
586.828	27992.15
587.026	27899.99
587.223	27871.32
587.42	27961.43
587.618	27832.41
587.815	27271.26
588.012	27592.79
588.21	27738.2
588.407	27678.81
588.604	27693.15
588.801	27484.25
588.999	27551.84
589.196	27433.05
589.393	27439.2
589.59	27189.35
589.787	26955.88
589.984	27000.93
590.182	26673.26
590.379	26896.49
590.576	26929.25
590.773	26749.03
590.97	26525.8
591.167	26568.81
591.364	26642.54
591.561	26597.48
591.758	26198.13
591.955	26357.87
592.152	26206.32
592.349	26171.5
592.546	25915.51
592.743	26224.75
592.94	25964.66
593.137	25929.84
593.334	25989.24
593.531	25661.56
593.727	26191.98
593.924	25993.33
594.121	25708.66
594.318	25960.56
594.515	25364.6
594.712	25669.75
594.908	25344.13
595.105	25587.83
595.302	25182.34
595.499	25299.07
595.696	24912
595.892	24873.09
596.089	24940.68
596.286	25047.17
596.482	24856.71
596.679	24778.89
596.876	24647.82
597.072	24752.26
597.269	24676.49
597.466	24549.51
597.662	24436.88
597.859	24477.83
598.055	24215.69
598.252	24336.52
598.448	23955.6
598.645	24215.69
598.841	23922.83
599.038	24072.34
599.234	23701.65
599.431	23771.29
599.627	23822.48
599.824	23699.61
600.02	23386.27
600.217	23519.39
600.413	23603.35
600.609	23402.65
600.806	23156.89
601.002	23404.7
601.198	23177.37
601.395	23064.74
601.591	23152.8
601.787	23085.22
601.984	23072.93
602.18	23130.27
602.376	22642.85
602.572	22659.24
602.769	22784.16
602.965	22610.09
603.161	22536.36
603.357	22341.8
603.553	22689.96
603.75	22481.06
603.946	22292.65
604.142	22302.89
604.338	22366.38
604.534	21997.74
604.73	22046.9
604.926	22007.98
605.122	22046.9
605.318	21897.39
605.514	21549.24
605.71	21563.57
605.906	21778.61
606.102	21801.14
606.298	21682.36
606.494	21428.41
606.69	21678.26
606.886	21500.09
607.082	21403.83
607.278	21526.71
607.474	21002.43
607.67	21686.45
607.866	21182.65
608.062	21465.27
608.257	20969.66
608.453	20799.68
608.649	21133.5
608.845	21031.1
609.041	20789.44
609.236	21160.13
609.432	20869.31
609.628	20783.3
609.824	20875.46
610.019	20695.24
610.215	20900.03
610.411	20838.59
610.606	20367.56
610.802	20592.84
610.998	20650.18
611.193	20506.82
611.389	20504.78
611.584	20130
611.78	20201.68
611.976	20240.59
612.171	20140.24
612.367	20236.49
612.562	20043.98
612.758	19972.3
612.953	19740.88
613.149	20213.96
613.344	19804.37
613.539	20435.14
613.735	20056.27
613.93	20121.8
614.126	19724.5
614.321	19978.45
614.517	19712.21
614.712	19769.55
614.907	19435.74
615.103	19566.81
615.298	19511.51
615.493	19691.73
615.688	19347.67
615.884	19886.29
616.079	19333.34
616.274	19392.73
616.47	19486.93
616.665	19208.41
616.86	19161.31
617.055	19339.48
617.25	19251.42
617.445	19390.68
617.641	18696.42
617.836	19327.19
618.031	18833.63
618.226	19042.53
618.421	19077.34
618.616	19046.62
618.811	18729.19
619.006	18823.39
619.201	18438.37
619.396	18518.25
619.591	18368.74
619.786	18575.59
619.981	18278.63
620.176	18467.05
620.371	18161.9
620.566	18243.82
620.761	17998.06
620.956	18219.24
621.151	17559.8
621.346	18176.23
621.541	17631.47
621.735	17598.71
621.93	17590.52
622.125	17715.44
622.32	17158.39
622.515	17238.26
622.709	17197.31
622.904	17369.33
623.099	17060.09
623.294	17074.43
623.488	16738.56
623.683	16699.65
623.878	16472.32
624.072	16793.86
624.267	16398.6
624.462	16439.56
624.656	16318.73
624.851	16390.41
625.046	16044.3
625.24	16158.99
625.435	16040.2
625.629	15849.74
625.824	15757.58
626.018	15761.68
626.213	15556.88
626.407	15614.23
626.602	15329.56
626.796	15448.34
626.991	15503.64
627.185	15307.03
627.38	15347.99
627.574	14944.54
627.768	15001.88
627.963	14846.24
628.157	14752.03
628.352	14723.36
628.546	14825.76
628.74	14602.53
628.935	14541.09
629.129	14571.81
629.323	14352.68
629.517	14248.23
629.712	14276.9
629.906	14145.83
630.1	13871.4
630.294	14000.43
630.489	14025
630.683	14037.29
630.877	13699.37
631.071	13584.69
631.265	13615.41
631.459	13615.41
631.653	13748.53
631.848	13365.56
632.042	13535.54
632.236	13392.18
632.43	13461.81
632.624	13304.12
632.818	13191.48
633.012	13074.74
633.206	13138.23
633.4	12960.06
633.594	12945.72
633.788	12796.22
633.982	12865.85
634.176	12591.42
634.369	12558.66
634.563	12499.27
634.757	12433.73
634.951	12595.52
635.145	12532.03
635.339	12386.63
635.533	12298.56
635.726	12376.39
635.92	12202.31
636.114	12020.04
636.308	12063.05
636.501	12276.04
636.695	11905.35
636.889	11702.61
637.083	11618.64
637.276	11630.93
637.47	11624.78
637.664	11477.33
637.857	11452.75
638.051	11383.12
638.244	11202.9
638.438	11469.14
638.632	11172.18
638.825	11143.51
639.019	11272.53
639.212	11360.59
639.406	10889.56
639.599	11073.88
639.793	11006.3
639.986	10832.22
640.18	10686.81
640.373	10985.82
640.567	10580.32
640.76	10701.15
640.954	10606.94
641.147	10756.44
641.34	10547.55
641.534	10297.7
641.727	10312.03
641.92	10408.29
642.114	10187.11
642.307	10209.64
642.5	10154.34
642.694	9957.74
642.887	9865.58
643.08	10117.48
643.273	9943.4
643.467	9951.59
643.66	9722.22
643.853	9537.9
644.046	9630.06
644.239	9701.74
644.432	9591.15
644.626	9486.7
644.819	9492.85
645.012	9404.78
645.205	9423.22
645.398	9349.49
645.591	9335.15
645.784	9345.39
645.977	8997.24
646.17	9152.88
646.363	9142.64
646.556	8784.25
646.749	8941.94
646.942	9073.01
647.135	9001.33
647.328	8841.59
647.521	8872.31
647.714	8597.88
647.907	8782.2
648.099	8604.03
648.292	8558.97
648.485	8487.29
648.678	8630.65
648.871	8458.62
649.064	8296.83
649.256	8198.53
649.449	8118.66
649.642	7977.35
649.835	7991.69
650.027	8229.25
650.22	8182.15
650.413	8192.39
650.605	7872.9
650.798	7848.33
650.991	7715.21
651.183	7936.39
651.376	7901.58
651.568	7631.24
651.761	7815.56
651.954	7522.7
652.146	7545.23
652.339	7434.64
652.531	7408.01
652.724	7465.36
652.916	7389.58
653.109	7242.13
653.301	7242.13
653.494	7285.14
653.686	7074.2
653.879	7246.23
654.071	6889.88
654.263	7162.26
654.456	7039.38
654.648	7100.82
654.84	6986.13
655.033	6953.37
655.225	6930.84
655.417	6767
655.61	6740.38
655.802	6822.3
655.994	6771.1
656.186	6676.89
656.379	6629.79
656.571	6490.52
656.763	6543.77
656.955	6474.14
657.148	6621.59
657.34	6494.62
657.532	6328.74
657.724	6377.89
657.916	6324.64
658.108	6164.9
658.3	6142.37
658.492	6285.73
658.684	6177.19
658.876	6001.06
659.068	6158.75
659.26	6007.2
659.452	6054.31
659.644	5933.48
659.836	5849.51
660.028	5861.8
660.22	5743.02
660.412	5618.09
660.604	5790.12
660.796	5738.92
660.988	5611.95
661.18	5657
661.372	5515.69
661.563	5568.94
661.755	5577.13
661.947	5513.64
662.139	5403.05
662.331	5339.57
662.522	5282.22
662.714	5261.74
662.906	5228.98
663.097	5200.3
663.289	5071.28
663.481	4909.49
663.673	5106.1
663.864	5093.81
664.056	4901.3
664.247	4923.83
664.439	4995.51
664.631	4800.95
664.822	4938.16
665.014	4932.02
665.205	4688.31
665.397	4673.98
665.588	4721.08
665.78	4686.26
665.971	4745.66
666.163	4680.12
666.354	4557.24
666.546	4467.13
666.737	4549.05
666.929	4463.04
667.12	4483.52
667.311	4383.17
667.503	4213.18
667.694	4362.69
667.885	4256.19
668.077	4395.45
668.268	4334.01
668.459	4258.24
668.651	4385.21
668.842	4262.33
669.033	4190.66
669.224	4051.39
669.416	4157.89
669.607	4164.03
669.798	4145.6
669.989	4096.45
670.18	4094.4
670.371	3949
670.563	3967.43
670.754	3860.93
670.945	3772.87
671.136	3895.75
671.327	4018.63
671.518	3910.08
671.709	3838.41
671.9	3877.32
672.091	3701.19
672.282	3762.63
672.473	3699.14
672.664	3695.05
672.855	3674.57
673.046	3656.14
673.237	3729.86
673.428	3674.57
673.619	3615.18
673.809	3600.84
674	3606.98
674.191	3449.29
674.382	3461.58
674.573	3533.26
674.764	3623.37
674.954	3494.35
675.145	3363.28
675.336	3449.29
675.527	3367.37
675.717	3471.82
675.908	3312.08
676.099	3434.96
676.289	3420.62
676.48	3383.76
676.671	3293.65
676.861	3338.7
677.052	3289.55
677.243	3199.44
677.433	3320.27
677.624	3295.69
677.814	3086.8
678.005	3133.9
678.195	3193.3
678.386	3127.76
678.576	3164.62
678.767	3217.87
678.957	3195.34
679.148	3211.73
679.338	3080.66
679.529	2968.02
679.719	3088.85
679.909	3043.79
680.1	3115.47
680.29	3066.32
680.481	3035.6
680.671	3035.6
680.861	2937.3
681.052	3054.03
681.242	2992.59
681.432	2986.45
681.622	2875.86
681.813	2951.63
682.003	2879.96
682.193	2863.57
682.383	2947.54
682.573	2798.04
682.764	2925.01
682.954	2822.61
683.144	2867.67
683.334	2918.87
683.524	2759.13
683.714	2939.35
683.904	2793.94
684.094	2906.58
684.284	2806.23
684.474	2752.98
684.664	2718.17
684.854	2857.43
685.044	2789.85
685.234	2802.13
685.424	2804.18
685.614	2865.62
685.804	2824.66
685.994	2777.56
686.184	2857.43
686.374	2820.56
686.564	2761.17
686.753	2849.24
686.943	2683.35
687.133	2714.07
687.323	2712.02
687.513	2632.15
687.702	2714.07
687.892	2814.42
688.082	2773.46
688.272	2836.95
688.461	2664.92
688.651	2607.58
688.841	2714.07
689.03	2701.78
689.22	2748.89
689.41	2752.98
689.599	2689.49
689.789	2609.62
689.979	2806.23
690.168	2632.15
690.358	2824.66
690.547	2576.86
690.737	2783.7
690.926	2626.01
691.116	2748.89
691.305	2671.06
691.495	2525.66
691.684	2660.82
691.874	2693.59
692.063	2607.58
692.252	2718.17
692.442	2546.14
692.631	2617.82
692.82	2558.42
693.01	2681.3
693.199	2720.21
693.388	2539.99
693.578	2677.21
693.767	2535.9
693.956	2609.62
694.146	2566.62
694.335	2634.2
694.524	2453.98
694.713	2578.9
694.902	2619.86
695.092	2550.23
695.281	2406.88
695.47	2544.09
695.659	2533.85
695.848	2515.42
696.037	2466.27
696.226	2494.94
696.415	2509.27
696.604	2476.51
696.793	2529.75
696.982	2441.69
697.171	2415.07
697.36	2357.72
697.549	2431.45
697.738	2345.44
697.927	2279.9
698.116	2275.81
698.305	2429.4
698.494	2316.76
698.683	2429.4
698.872	2345.44
699.061	2374.11
699.25	2118.11
699.438	2265.57
699.627	2232.8
699.816	2404.83
700.005	2187.74
700.193	2308.57
700.382	2214.37
700.571	2167.26
700.76	2193.89
700.948	2279.9
701.137	2296.28
701.326	2288.09
701.514	2148.83
701.703	2277.85
701.892	2068.96
702.08	2206.17
702.269	2085.34
702.457	2120.16
702.646	2146.78
702.834	2107.87
703.023	2185.69
703.212	2111.97
703.4	2093.54
703.589	2042.34
703.777	1997.28
703.965	2095.58
704.154	2099.68
704.342	2093.54
704.531	1966.56
704.719	1993.19
704.907	2083.3
705.096	2245.09
705.284	1980.9
705.472	1962.47
705.661	1970.66
705.849	2124.26
706.037	2050.53
706.226	1855.97
706.414	1976.8
706.602	1962.47
706.79	2001.38
706.979	1778.15
707.167	1972.71
707.355	1896.93
707.543	1931.75
707.731	1937.89
707.919	1755.62
708.107	1841.64
708.296	1860.07
708.484	1858.02
708.672	1800.68
708.86	1933.79
709.048	1722.85
709.236	1776.1
709.424	1901.03
709.612	1788.39
709.8	1819.11
709.988	1788.39
710.176	1841.64
710.364	1763.81
710.551	1675.75
710.739	1782.24
710.927	1735.14
711.115	1649.13
711.303	1677.8
711.491	1659.37
711.679	1632.74
711.866	1788.39
712.054	1663.46
712.242	1548.78
712.43	1704.42
712.617	1610.22
712.805	1675.75
712.993	1587.69
713.181	1552.87
713.368	1620.46
713.556	1765.86
713.744	1552.87
713.931	1706.47
714.119	1636.84
714.306	1606.12
714.494	1577.45
714.682	1688.04
714.869	1446.38
715.057	1528.3
715.244	1507.82
715.432	1491.43
715.619	1429.99
715.807	1458.67
715.994	1429.99
716.182	1470.95
716.369	1436.14
716.556	1511.91
716.744	1362.41
716.931	1456.62
717.119	1421.8
717.306	1337.84
717.493	1440.23
717.681	1391.08
717.868	1432.04
718.055	1319.4
718.242	1335.79
718.43	1354.22
718.617	1376.75
718.804	1333.74
718.991	1327.6
719.179	1458.67
719.366	1343.98
719.553	1257.96
719.74	1300.97
719.927	1325.55
720.114	1313.26
720.301	1214.96
720.488	1305.07
720.676	1241.58
720.863	1255.92
721.05	1176.05
721.237	1229.29
721.424	1210.86
721.611	1288.68
721.798	1135.09
721.985	1231.34
722.172	1161.71
722.358	1290.73
722.545	1174
722.732	1161.71
722.919	1214.96
723.106	1264.11
723.293	1063.41
723.48	1100.27
723.667	1149.42
723.853	1092.08
724.04	1223.15
724.227	1147.37
724.414	1196.53
724.6	1198.57
724.787	1112.56
724.974	1128.94
725.161	1204.72
725.347	1024.5
725.534	1081.84
725.72	1163.76
725.907	1141.23
726.094	1077.74
726.28	999.92
726.467	1030.64
726.653	1010.16
726.84	1018.35
727.027	973.3
727.213	1063.41
727.4	1036.78
727.586	1092.08
727.773	977.39
727.959	1040.88
728.145	1040.88
728.332	1063.41
728.518	952.82
728.705	956.91
728.891	965.11
729.077	952.82
729.264	942.58
729.45	1069.55
729.636	991.73
729.823	969.2
730.009	877.04
730.195	987.63
730.382	977.39
730.568	963.06
730.754	893.43
730.94	983.54
731.126	989.68
731.313	907.76
731.499	879.09
731.685	872.95
731.871	844.28
732.057	840.18
732.243	840.18
732.429	889.33
732.615	862.71
732.801	829.94
732.987	864.75
733.173	895.47
733.359	856.56
733.545	840.18
733.731	774.64
733.917	782.84
734.103	915.95
734.289	768.5
734.475	879.09
734.661	868.85
734.847	829.94
735.033	874.99
735.219	850.42
735.404	733.68
735.59	766.45
735.776	823.8
735.962	752.12
736.148	791.03
736.333	739.83
736.519	784.88
736.705	778.74
736.89	801.27
737.076	803.32
737.262	719.35
737.447	766.45
737.633	682.49
737.819	797.17
738.004	760.31
738.19	735.73
738.375	670.2
738.561	766.45
738.747	694.77
738.932	702.97
739.118	713.21
739.303	784.88
739.489	733.68
739.674	682.49
739.859	698.87
740.045	717.3
740.23	711.16
740.416	670.2
740.601	692.73
740.786	760.31
740.972	649.72
741.157	666.1
741.342	676.34
741.528	678.39
741.713	610.81
741.898	682.49
742.084	748.02
742.269	596.47
742.454	643.57
742.639	680.44
742.824	649.72
743.01	696.82
743.195	649.72
743.38	678.39
743.565	715.25
743.75	645.62
743.935	563.7
744.12	614.9
744.305	528.89
744.49	680.44
744.675	545.27
744.86	602.61
745.045	641.53
745.23	594.42
745.415	565.75
745.6	657.91
745.785	528.89
745.97	524.79
746.155	543.22
746.34	559.61
746.525	567.8
746.71	633.33
746.895	557.56
747.079	584.18
747.264	606.71
747.449	573.94
747.634	586.23
747.819	541.18
748.003	498.17
748.188	567.8
748.373	584.18
748.557	602.61
748.742	545.27
748.927	524.79
749.111	520.7
749.296	463.35
749.481	532.98
749.665	541.18
749.85	475.64
750.034	463.35
750.219	614.9
750.404	438.78
750.588	469.5
750.773	522.74
750.957	496.12
751.141	451.07
751.326	440.83
751.51	424.44
751.695	467.45
751.879	543.22
752.064	420.35
752.248	395.77
752.432	461.3
752.617	475.64
752.801	373.24
752.985	528.89
753.17	520.7
753.354	293.37
753.538	506.36
753.722	455.16
753.907	453.11
754.091	438.78
754.275	422.39
754.459	424.44
754.643	463.35
754.828	465.4
755.012	412.15
755.196	432.63
755.38	436.73
755.564	420.35
755.748	389.63
755.932	373.24
756.116	444.92
756.3	365.05
756.484	381.43
756.668	338.43
756.852	389.63
757.036	350.71
757.22	379.39
757.404	363
757.588	377.34
757.772	385.53
757.956	432.63
758.14	344.57
758.323	375.29
758.507	293.37
758.691	393.72
758.875	360.95
759.059	348.67
759.242	367.1
759.426	356.86
759.61	434.68
759.794	350.71
759.977	375.29
760.161	373.24
760.345	338.43
760.528	387.58
760.712	383.48
760.895	256.51
761.079	344.57
761.263	328.19
761.446	322.04
761.63	268.8
761.813	373.24
761.997	397.82
762.18	313.85
762.364	289.28
762.547	324.09
762.731	348.67
762.914	334.33
763.098	301.56
763.281	305.66
763.464	373.24
763.648	324.09
763.831	305.66
764.015	297.47
764.198	356.86
764.381	358.91
764.564	463.35
764.748	403.96
764.931	299.52
765.114	260.6
765.297	221.69
765.481	268.8
765.664	356.86
765.847	338.43
766.03	383.48
766.213	289.28
766.397	334.33
766.58	276.99
766.763	238.08
766.946	354.81
767.129	281.08
767.312	317.95
767.495	373.24
767.678	274.94
767.861	342.52
768.044	336.38
768.227	346.62
768.41	242.17
768.593	324.09
768.776	293.37
768.959	258.56
769.142	231.93
769.324	260.6
769.507	283.13
769.69	346.62
769.873	225.79
770.056	295.42
770.239	311.8
770.421	326.14
770.604	256.51
770.787	289.28
770.97	338.43
771.152	209.4
771.335	281.08
771.518	313.85
771.7	250.36
771.883	252.41
772.066	225.79
772.248	254.46
772.431	260.6
772.613	262.65
772.796	293.37
772.978	233.98
773.161	254.46
773.343	330.23
773.526	303.61
773.708	356.86
773.891	209.4
774.073	287.23
774.256	209.4
774.438	274.94
774.621	236.03
774.803	240.12
774.985	258.56
775.168	313.85
775.35	246.27
775.532	244.22
775.715	223.74
775.897	281.08
776.079	215.55
776.261	264.7
776.444	268.8
776.626	297.47
776.808	262.65
776.99	225.79
777.173	213.5
777.355	266.75
777.537	248.32
777.719	240.12
777.901	193.02
778.083	254.46
778.265	219.64
778.447	133.63
778.629	242.17
778.811	258.56
778.993	168.45
779.175	166.4
779.357	131.58
779.539	201.21
779.721	246.27
779.903	246.27
780.085	195.07
780.267	260.6
780.449	199.16
780.631	252.41
780.812	201.21
780.994	145.92
781.176	205.31
781.358	164.35
781.54	168.45
781.721	193.02
781.903	217.6
782.085	262.65
782.267	170.49
782.448	188.93
782.63	184.83
782.812	213.5
782.993	176.64
783.175	113.15
783.357	129.53
783.538	164.35
783.72	184.83
783.901	199.16
784.083	211.45
784.264	203.26
784.446	68.09
784.627	176.64
784.809	184.83
784.99	170.49
785.172	137.73
785.353	240.12
785.535	139.77
785.716	223.74
785.897	209.4
786.079	219.64
786.26	188.93
786.441	176.64
786.623	135.68
786.804	104.96
786.985	111.1
787.167	147.97
787.348	207.36
787.529	186.88
787.71	139.77
787.891	172.54
788.073	152.06
788.254	184.83
788.435	190.97
788.616	199.16
788.797	170.49
788.978	147.97
789.159	203.26
789.34	131.58
789.522	29.18
789.703	121.34
789.884	156.16
790.065	100.86
790.246	133.63
790.427	119.29
790.607	92.67
790.788	111.1
790.969	96.77
791.15	64
791.331	168.45
791.512	125.44
791.693	84.48
791.874	117.25
792.054	129.53
792.235	223.74
792.416	111.1
792.597	96.77
792.778	88.57
792.958	109.05
793.139	137.73
793.32	182.78
793.5	158.21
793.681	76.29
793.862	94.72
794.042	51.71
794.223	61.95
794.404	102.91
794.584	39.42
794.765	145.92
794.945	147.97
795.126	86.53
795.306	199.16
795.487	94.72
795.667	72.19
795.848	45.57
796.028	125.44
796.209	125.44
796.389	76.29
796.57	78.33
796.75	100.86
796.93	135.68
797.111	121.34
797.291	51.71
797.471	98.81
797.652	43.52
797.832	57.86
798.012	57.86
798.192	76.29
798.373	68.09
798.553	49.66
798.733	92.67
798.913	125.44
799.093	98.81
799.274	119.29
799.454	35.33
799.634	55.81
799.814	113.15
799.994	113.15
800.174	80.38
800.354	78.33
800.534	92.67
800.714	76.29
800.894	170.49
801.074	111.1
801.254	18.94
801.434	94.72
801.614	94.72
801.794	68.09
801.974	379.39
802.154	109.05
802.334	96.77
802.514	49.66
802.693	109.05
802.873	14.85
803.053	109.05
803.233	43.52
803.413	43.52
803.592	80.38
803.772	-19.97
803.952	133.63
804.131	45.57
804.311	53.76
804.491	55.81
804.67	137.73
804.85	66.05
805.03	47.62
805.209	133.63
805.389	23.04
805.568	45.57
805.748	98.81
805.928	45.57
806.107	72.19
806.287	135.68
806.466	23.04
806.646	86.53
806.825	55.81
807.004	70.14
807.184	94.72
807.363	70.14
807.543	35.33
807.722	80.38
807.901	145.92
808.081	33.28
808.26	55.81
808.439	92.67
808.619	59.9
808.798	107.01
808.977	51.71
809.156	76.29
809.336	43.52
809.515	49.66
809.694	27.14
809.873	14.85
810.052	102.91
810.231	82.43
810.411	47.62
810.59	59.9
810.769	70.14
810.948	-50.69
811.127	33.28
811.306	61.95
811.485	86.53
811.664	100.86
811.843	2.56
812.022	31.23
812.201	18.94
812.38	31.23
812.559	86.53
812.737	31.23
812.916	18.94
813.095	51.71
813.274	49.66
813.453	57.86
813.632	-36.35
813.811	68.09
813.989	16.9
814.168	-36.35
814.347	-30.21
814.526	2.56
814.704	94.72
814.883	35.33
815.062	-24.06
815.24	-28.16
815.419	-15.87
815.598	96.77
815.776	6.66
815.955	2.56
816.133	27.14
816.312	115.2
816.49	-34.3
816.669	80.38
816.847	2.56
817.026	64
817.204	33.28
817.383	-5.63
817.561	29.18
817.74	47.62
817.918	66.05
818.097	57.86
818.275	0.51
818.453	70.14
818.632	59.9
818.81	53.76
818.988	27.14
819.167	-28.16
819.345	27.14
819.523	74.24
819.701	27.14
819.879	41.47
820.058	35.33
820.236	23.04
820.414	-5.63
820.592	43.52
820.77	12.8
820.948	104.96
821.127	27.14
821.305	96.77
821.483	31.23
821.661	66.05
821.839	8.7
822.017	-1.54
822.195	43.52
822.373	-22.02
822.551	66.05
822.729	76.29
822.907	-1.54
823.085	37.38
823.262	20.99
823.44	76.29
823.618	45.57
823.796	20.99
823.974	51.71
824.152	74.24
824.329	90.62
824.507	37.38
824.685	-9.73
824.863	70.14
825.04	53.76
825.218	4.61
825.396	-24.06
825.574	12.8
825.751	-15.87
825.929	23.04
826.107	-89.6
826.284	4.61
826.462	41.47
826.639	23.04
826.817	-54.78
826.994	82.43
827.172	20.99
827.349	94.72
827.527	-5.63
827.704	2.56
827.882	113.15
828.059	20.99
828.237	47.62
828.414	82.43
828.591	4.61
828.769	-1.54
828.946	23.04
829.124	74.24
829.301	8.7
829.478	2.56
829.655	53.76
829.833	-126.46
830.01	-67.07
830.187	55.81
830.364	12.8
830.542	14.85
830.719	33.28
830.896	53.76
831.073	2.56
831.25	-5.63
831.427	66.05
831.604	145.92
831.782	25.09
831.959	-15.87
832.136	45.57
832.313	-22.02
832.49	-1.54
832.667	4.61
832.844	20.99
833.021	141.82
833.198	-40.45
833.374	27.14
833.551	33.28
833.728	16.9
833.905	39.42
834.082	25.09
834.259	18.94
834.436	35.33
834.612	-40.45
834.789	8.7
834.966	18.94
835.143	-22.02
835.319	6.66
835.496	18.94
835.673	51.71
835.85	-73.21
836.026	66.05
836.203	-19.97
836.38	-30.21
836.556	59.9
836.733	14.85
836.909	0.51
837.086	0.51
837.262	-28.16
837.439	35.33
837.616	0.51
837.792	23.04
837.968	64
838.145	16.9
838.321	8.7
838.498	-17.92
838.674	23.04
838.851	0.51
839.027	-5.63
839.203	-34.3
839.38	107.01
839.556	-34.3
839.732	104.96
839.909	2.56
840.085	14.85
840.261	23.04
840.437	2.56
840.614	-50.69
840.79	-32.26
840.966	-38.4
841.142	-19.97
841.318	94.72
841.494	18.94
841.671	53.76
841.847	39.42
842.023	-38.4
842.199	31.23
842.375	-13.82
842.551	-81.41
842.727	-26.11
842.903	70.14
843.079	0.51
843.255	47.62
843.431	84.48
843.607	23.04
843.783	-52.74
843.959	27.14
844.134	-85.5
844.31	-17.92
844.486	47.62
844.662	-50.69
844.838	-30.21
845.013	-30.21
845.189	-13.82
845.365	-38.4
845.541	-93.69
845.716	20.99
845.892	-22.02
846.068	16.9
846.244	-50.69
846.419	-17.92
846.595	25.09
846.77	47.62
846.946	43.52
847.122	23.04
847.297	-13.82
847.473	16.9
847.648	-22.02
847.824	14.85
847.999	-24.06
848.175	8.7
848.35	35.33
848.526	33.28
848.701	2.56
848.876	-5.63
849.052	14.85
849.227	68.09
849.403	2.56
849.578	10.75
849.753	31.23
849.929	43.52
850.104	-11.78
850.279	-13.82
850.454	2.56
850.63	35.33
850.805	6.66
850.98	76.29
851.155	27.14
851.33	-5.63
851.505	-1.54
851.681	51.71
851.856	-15.87
852.031	2.56
852.206	-36.35
852.381	14.85
852.556	39.42
852.731	45.57
852.906	0.51
853.081	49.66
853.256	8.7
853.431	18.94
853.606	-26.11
853.781	53.76
853.956	-15.87
854.131	78.33
854.305	-15.87
854.48	12.8
854.655	-32.26
854.83	10.75
855.005	-3.58
855.18	-44.54
855.354	-56.83
855.529	-58.88
855.704	-11.78
855.879	10.75
856.053	-46.59
856.228	31.23
856.403	-17.92
856.577	-3.58
856.752	-19.97
856.926	6.66
857.101	66.05
857.276	-22.02
857.45	-89.6
857.625	12.8
857.799	23.04
857.974	92.67
858.148	-24.06
858.323	-5.63
858.497	29.18
858.672	41.47
858.846	53.76
859.02	-15.87
859.195	-26.11
859.369	39.42
859.543	27.14
859.718	51.71
859.892	47.62
860.066	-48.64
860.241	47.62
860.415	25.09
860.589	35.33
860.763	-19.97
860.938	6.66
861.112	27.14
861.286	-34.3
861.46	68.09
861.634	8.7
861.808	-7.68
861.982	2.56
862.157	45.57
862.331	-34.3
862.505	-22.02
862.679	-11.78
862.853	-15.87
863.027	-28.16
863.201	10.75
863.375	-1.54
863.549	-22.02
863.722	41.47
863.896	-11.78
864.07	-17.92
864.244	-13.82
864.418	-19.97
864.592	-44.54
864.766	-22.02
864.939	-38.4
865.113	0.51
865.287	-11.78
865.461	-77.31
865.634	-48.64
865.808	-32.26
865.982	6.66
866.156	-1.54
866.329	-69.12
866.503	2.56
866.676	18.94
866.85	41.47
867.024	-30.21
867.197	-9.73
867.371	43.52
867.544	-34.3
867.718	16.9
867.891	-38.4
868.065	4.61
868.238	-3.58
868.412	18.94
868.585	-38.4
868.759	4.61
868.932	-44.54
869.105	80.38
869.279	-7.68
869.452	-19.97
869.625	49.66
869.799	45.57
869.972	-40.45
870.145	6.66
870.319	8.7
870.492	-34.3
870.665	-30.21
870.838	-38.4
871.011	-5.63
871.185	-13.82
871.358	8.7
871.531	33.28
871.704	-46.59
871.877	12.8
872.05	-48.64
872.223	12.8
872.396	12.8
872.569	16.9
872.742	-19.97
872.915	31.23
873.088	-17.92
873.261	-15.87
873.434	-48.64
873.607	-67.07
873.78	66.05
873.953	-50.69
874.126	35.33
874.299	16.9
874.471	-26.11
874.644	18.94
874.817	-62.98
874.99	6.66
875.163	-11.78
875.335	35.33
875.508	-7.68
875.681	35.33
875.853	-34.3
876.026	10.75
876.199	0.51
876.371	0.51
876.544	66.05
876.717	14.85
876.889	33.28
877.062	-60.93
877.234	33.28
877.407	-24.06
877.579	41.47
877.752	45.57
877.924	-60.93
878.097	-19.97
878.269	-19.97
878.442	37.38
878.614	-19.97
878.786	35.33
878.959	-69.12
879.131	10.75
879.303	-34.3
879.476	-30.21
879.648	-3.58
879.82	-44.54
879.993	-5.63
880.165	25.09
880.337	12.8
880.509	33.28
880.681	-17.92
880.854	-77.31
881.026	-38.4
881.198	51.71
881.37	-15.87
881.542	-44.54
881.714	-50.69
881.886	18.94
882.058	10.75
882.23	-9.73
882.402	-24.06
882.574	51.71
882.746	-34.3
882.918	-9.73
883.09	43.52
883.262	20.99
883.434	-95.74
883.606	-15.87
883.778	-19.97
883.95	70.14
884.122	-3.58
884.293	-28.16
884.465	-67.07
884.637	45.57
884.809	33.28
884.98	45.57
885.152	-32.26
885.324	14.85
885.496	-15.87
885.667	31.23
885.839	-38.4
886.011	-9.73
886.182	12.8
886.354	-5.63
886.525	-46.59
886.697	10.75
886.869	-50.69
887.04	-44.54
887.212	12.8
887.383	6.66
887.555	57.86
887.726	-110.08
887.897	-30.21
888.069	-42.5
888.24	-11.78
888.412	0.51
888.583	-26.11
888.754	4.61
888.926	-13.82
889.097	-46.59
889.268	-19.97
889.44	109.05
889.611	-13.82
889.782	4.61
889.953	-42.5
890.125	10.75
890.296	-40.45
890.467	-30.21
890.638	-13.82
890.809	33.28
890.98	29.18
891.151	-9.73
891.323	43.52
891.494	12.8
891.665	47.62
891.836	6.66
892.007	-32.26
892.178	16.9
892.349	-3.58
892.52	20.99
892.691	-26.11
892.862	-54.78
893.032	-97.79
893.203	31.23
893.374	-5.63
893.545	8.7
893.716	-15.87
893.887	18.94
894.057	-65.02
894.228	-34.3
894.399	-28.16
894.57	27.14
894.74	-7.68
894.911	8.7
895.082	35.33
895.253	-7.68
895.423	-71.17
895.594	6.66
895.764	-19.97
895.935	-22.02
896.106	-77.31
896.276	45.57
896.447	-40.45
896.617	-30.21
896.788	-5.63
896.958	-62.98
897.129	-36.35
897.299	-46.59
897.47	10.75
897.64	-1.54
897.81	35.33
897.981	-89.6
898.151	6.66
898.322	8.7
898.492	35.33
898.662	29.18
898.832	4.61
899.003	-62.98
899.173	12.8
899.343	-19.97
899.513	-79.36
