Data from USB4F104151__19__12-53-22-827.txt Node

Date: Fri Mar 14 12:53:22 EDT 2025
User: louis
Spectrometer: USB4F10415
Trigger mode: 4
Integration Time (sec): 1.000000E-2
Scans to average: 1
Electric dark correction enabled: true
Nonlinearity correction enabled: false
Boxcar width: 0
XAxis mode: Wavelengths
Number of Pixels in Spectrum: 3648
>>>>>Begin Spectral Data<<<<<
178.204	8.87
178.424	8.87
178.644	8.87
178.864	-11.61
179.084	-44.37
179.304	29.35
179.524	-1.37
179.744	-25.94
179.964	-1.37
180.184	53.93
180.404	-40.28
180.624	0.68
180.844	-25.94
181.064	-40.28
181.283	55.98
181.503	2.73
181.723	-7.51
181.943	39.59
182.163	43.69
182.383	41.64
182.602	-34.13
182.822	12.97
183.042	29.35
183.262	2.73
183.482	-58.71
183.701	-32.08
183.921	-9.56
184.141	-3.41
184.361	2.73
184.58	23.21
184.8	10.92
185.02	6.83
185.239	15.02
185.459	-1.37
185.679	-11.61
185.898	-17.75
186.118	-5.46
186.338	-1.37
186.557	76.46
186.777	-25.94
186.997	15.02
187.216	45.74
187.436	27.31
187.655	-25.94
187.875	78.51
188.095	-3.41
188.314	31.4
188.534	21.16
188.753	31.4
188.973	43.69
189.192	29.35
189.412	45.74
189.631	0.68
189.851	35.5
190.07	-7.51
190.29	15.02
190.509	17.07
190.729	-23.89
190.948	-36.18
191.168	78.51
191.387	2.73
191.607	-1.37
191.826	62.12
192.045	-23.89
192.265	-9.56
192.484	-7.51
192.704	-75.09
192.923	-1.37
193.142	2.73
193.362	17.07
193.581	90.79
193.8	-11.61
194.02	19.11
194.239	-9.56
194.458	41.64
194.678	-77.14
194.897	-7.51
195.116	8.87
195.335	53.93
195.555	-25.94
195.774	68.27
195.993	43.69
196.212	2.73
196.432	0.68
196.651	27.31
196.87	113.32
197.089	12.97
197.308	-25.94
197.528	74.41
197.747	-11.61
197.966	21.16
198.185	45.74
198.404	55.98
198.623	45.74
198.842	64.17
199.062	51.88
199.281	15.02
199.5	37.55
199.719	123.56
199.938	-46.42
200.157	25.26
200.376	43.69
200.595	82.6
200.814	25.26
201.033	-13.65
201.252	23.21
201.471	62.12
201.69	-19.8
201.909	6.83
202.128	-27.99
202.347	10.92
202.566	-17.75
202.785	-9.56
203.004	-30.04
203.223	4.78
203.442	39.59
203.661	0.68
203.879	-5.46
204.098	-1.37
204.317	-9.56
204.536	105.13
204.755	51.88
204.974	27.31
205.193	25.26
205.411	35.5
205.63	-5.46
205.849	53.93
206.068	-3.41
206.287	21.16
206.505	-7.51
206.724	4.78
206.943	19.11
207.162	80.55
207.381	33.45
207.599	33.45
207.818	-64.85
208.037	17.07
208.255	-11.61
208.474	25.26
208.693	-17.75
208.911	51.88
209.13	41.64
209.349	-9.56
209.567	19.11
209.786	-34.13
210.005	10.92
210.223	17.07
210.442	-50.52
210.661	68.27
210.879	27.31
211.098	0.68
211.316	35.5
211.535	-9.56
211.753	10.92
211.972	-19.8
212.191	-75.09
212.409	-5.46
212.628	6.83
212.846	27.31
213.065	29.35
213.283	8.87
213.502	66.22
213.72	107.18
213.938	-3.41
214.157	-9.56
214.375	17.07
214.594	-13.65
214.812	39.59
215.031	-27.99
215.249	-27.99
215.467	4.78
215.686	-7.51
215.904	115.37
216.122	-15.7
216.341	12.97
216.559	23.21
216.778	-11.61
216.996	62.12
217.214	113.32
217.432	47.79
217.651	-52.56
217.869	8.87
218.087	58.03
218.306	64.17
218.524	12.97
218.742	43.69
218.96	-23.89
219.179	31.4
219.397	-46.42
219.615	23.21
219.833	-23.89
220.051	19.11
220.27	25.26
220.488	66.22
220.706	78.51
220.924	10.92
221.142	72.36
221.36	-5.46
221.578	8.87
221.796	62.12
222.015	-5.46
222.233	45.74
222.451	17.07
222.669	-50.52
222.887	-36.18
223.105	15.02
223.323	23.21
223.541	115.37
223.759	25.26
223.977	-13.65
224.195	21.16
224.413	-71
224.631	37.55
224.849	72.36
225.067	101.03
225.285	17.07
225.503	19.11
225.721	10.92
225.939	49.83
226.157	-85.33
226.375	45.74
226.592	-5.46
226.81	15.02
227.028	10.92
227.246	80.55
227.464	23.21
227.682	107.18
227.9	-9.56
228.117	0.68
228.335	49.83
228.553	66.22
228.771	58.03
228.989	82.6
229.206	-9.56
229.424	76.46
229.642	29.35
229.86	66.22
230.077	29.35
230.295	123.56
230.513	12.97
230.731	-23.89
230.948	29.35
231.166	53.93
231.384	0.68
231.601	53.93
231.819	37.55
232.037	6.83
232.254	29.35
232.472	51.88
232.689	15.02
232.907	-21.84
233.125	33.45
233.342	72.36
233.56	15.02
233.777	31.4
233.995	25.26
234.213	49.83
234.43	-48.47
234.648	39.59
234.865	55.98
235.083	17.07
235.3	-36.18
235.518	51.88
235.735	23.21
235.953	-15.7
236.17	43.69
236.388	-11.61
236.605	0.68
236.822	6.83
237.04	96.94
237.257	41.64
237.475	-42.32
237.692	-52.56
237.909	29.35
238.127	2.73
238.344	33.45
238.562	41.64
238.779	15.02
238.996	60.07
239.214	12.97
239.431	12.97
239.648	-7.51
239.865	84.65
240.083	-21.84
240.3	-1.37
240.517	-50.52
240.735	21.16
240.952	27.31
241.169	-13.65
241.386	31.4
241.603	29.35
241.821	33.45
242.038	-3.41
242.255	-17.75
242.472	-30.04
242.689	-30.04
242.907	10.92
243.124	-5.46
243.341	19.11
243.558	35.5
243.775	4.78
243.992	43.69
244.209	-30.04
244.426	-11.61
244.643	-15.7
244.86	17.07
245.078	51.88
245.295	-32.08
245.512	12.97
245.729	12.97
245.946	49.83
246.163	25.26
246.38	33.45
246.597	80.55
246.814	2.73
247.031	47.79
247.248	-23.89
247.464	-19.8
247.681	17.07
247.898	35.5
248.115	23.21
248.332	8.87
248.549	23.21
248.766	2.73
248.983	27.31
249.2	-27.99
249.417	19.11
249.633	23.21
249.85	53.93
250.067	10.92
250.284	-21.84
250.501	0.68
250.717	45.74
250.934	-9.56
251.151	76.46
251.368	17.07
251.585	58.03
251.801	21.16
252.018	8.87
252.235	6.83
252.451	25.26
252.668	37.55
252.885	47.79
253.102	-46.42
253.318	-34.13
253.535	-1.37
253.752	45.74
253.968	-17.75
254.185	-17.75
254.401	15.02
254.618	-7.51
254.835	-23.89
255.051	25.26
255.268	76.46
255.484	70.31
255.701	92.84
255.917	53.93
256.134	10.92
256.351	43.69
256.567	25.26
256.784	-27.99
257	-15.7
257.217	8.87
257.433	-3.41
257.65	60.07
257.866	19.11
258.082	31.4
258.299	4.78
258.515	-21.84
258.732	8.87
258.948	15.02
259.165	12.97
259.381	-23.89
259.597	29.35
259.814	43.69
260.03	-1.37
260.246	39.59
260.463	-17.75
260.679	15.02
260.895	43.69
261.112	-15.7
261.328	4.78
261.544	43.69
261.761	25.26
261.977	60.07
262.193	0.68
262.409	8.87
262.626	17.07
262.842	-17.75
263.058	37.55
263.274	4.78
263.49	74.41
263.707	70.31
263.923	25.26
264.139	17.07
264.355	-1.37
264.571	70.31
264.787	-32.08
265.004	58.03
265.22	-79.19
265.436	-7.51
265.652	4.78
265.868	49.83
266.084	-46.42
266.3	25.26
266.516	41.64
266.732	33.45
266.948	-15.7
267.164	51.88
267.38	60.07
267.596	-38.23
267.812	29.35
268.028	2.73
268.244	4.78
268.46	19.11
268.676	37.55
268.892	29.35
269.108	49.83
269.324	15.02
269.54	64.17
269.756	6.83
269.972	55.98
270.188	66.22
270.403	-1.37
270.619	72.36
270.835	-13.65
271.051	-11.61
271.267	29.35
271.483	33.45
271.698	-1.37
271.914	70.31
272.13	37.55
272.346	12.97
272.562	43.69
272.777	-3.41
272.993	4.78
273.209	43.69
273.425	25.26
273.64	-40.28
273.856	-9.56
274.072	41.64
274.287	8.87
274.503	19.11
274.719	29.35
274.934	21.16
275.15	82.6
275.366	25.26
275.581	-13.65
275.797	105.13
276.012	25.26
276.228	12.97
276.444	27.31
276.659	15.02
276.875	43.69
277.09	-44.37
277.306	37.55
277.521	29.35
277.737	-15.7
277.952	-25.94
278.168	-3.41
278.383	6.83
278.599	35.5
278.814	17.07
279.03	-11.61
279.245	64.17
279.461	31.4
279.676	-23.89
279.892	47.79
280.107	62.12
280.322	-52.56
280.538	39.59
280.753	-46.42
280.969	109.23
281.184	-27.99
281.399	27.31
281.615	29.35
281.83	25.26
282.045	0.68
282.26	0.68
282.476	27.31
282.691	31.4
282.906	-38.23
283.122	-5.46
283.337	-17.75
283.552	-1.37
283.767	-9.56
283.983	53.93
284.198	35.5
284.413	15.02
284.628	8.87
284.843	19.11
285.058	25.26
285.274	-9.56
285.489	21.16
285.704	8.87
285.919	-60.76
286.134	-17.75
286.349	72.36
286.564	25.26
286.779	21.16
286.995	37.55
287.21	37.55
287.425	39.59
287.64	-1.37
287.855	21.16
288.07	53.93
288.285	47.79
288.5	43.69
288.715	47.79
288.93	-1.37
289.145	27.31
289.36	33.45
289.575	47.79
289.79	-13.65
290.004	-32.08
290.219	55.98
290.434	-21.84
290.649	39.59
290.864	33.45
291.079	31.4
291.294	29.35
291.509	31.4
291.724	21.16
291.938	-25.94
292.153	55.98
292.368	4.78
292.583	-25.94
292.798	-34.13
293.012	0.68
293.227	133.8
293.442	-48.47
293.657	-17.75
293.871	58.03
294.086	15.02
294.301	82.6
294.516	55.98
294.73	66.22
294.945	8.87
295.16	33.45
295.374	-32.08
295.589	35.5
295.804	47.79
296.018	39.59
296.233	-34.13
296.447	-3.41
296.662	0.68
296.877	55.98
297.091	-1.37
297.306	64.17
297.52	31.4
297.735	15.02
297.949	-15.7
298.164	2.73
298.378	-5.46
298.593	35.5
298.807	31.4
299.022	68.27
299.236	58.03
299.451	64.17
299.665	19.11
299.88	47.79
300.094	51.88
300.309	37.55
300.523	55.98
300.737	-52.56
300.952	-3.41
301.166	39.59
301.381	-23.89
301.595	-25.94
301.809	-42.32
302.024	29.35
302.238	17.07
302.452	64.17
302.667	27.31
302.881	64.17
303.095	2.73
303.309	53.93
303.524	6.83
303.738	60.07
303.952	23.21
304.166	-13.65
304.381	51.88
304.595	17.07
304.809	-5.46
305.023	19.11
305.237	-46.42
305.452	23.21
305.666	45.74
305.88	23.21
306.094	23.21
306.308	-13.65
306.522	109.23
306.736	-3.41
306.95	47.79
307.164	6.83
307.379	-5.46
307.593	51.88
307.807	66.22
308.021	-71
308.235	15.02
308.449	2.73
308.663	-5.46
308.877	43.69
309.091	72.36
309.305	21.16
309.519	-21.84
309.733	66.22
309.947	2.73
310.161	90.79
310.374	8.87
310.588	55.98
310.802	12.97
311.016	39.59
311.23	51.88
311.444	55.98
311.658	-7.51
311.872	105.13
312.085	-13.65
312.299	76.46
312.513	-44.37
312.727	49.83
312.941	-36.18
313.154	47.79
313.368	8.87
313.582	123.56
313.796	-27.99
314.009	-48.47
314.223	53.93
314.437	47.79
314.651	-48.47
314.864	-21.84
315.078	-25.94
315.292	76.46
315.505	39.59
315.719	-7.51
315.933	47.79
316.146	17.07
316.36	39.59
316.573	82.6
316.787	-7.51
317.001	74.41
317.214	-58.71
317.428	58.03
317.641	6.83
317.855	10.92
318.068	51.88
318.282	41.64
318.495	45.74
318.709	41.64
318.922	29.35
319.136	0.68
319.349	35.5
319.563	55.98
319.776	10.92
319.99	29.35
320.203	25.26
320.417	72.36
320.63	-17.75
320.843	10.92
321.057	45.74
321.27	55.98
321.483	-25.94
321.697	15.02
321.91	-38.23
322.124	43.69
322.337	-30.04
322.55	19.11
322.763	15.02
322.977	49.83
323.19	-38.23
323.403	4.78
323.617	37.55
323.83	88.75
324.043	49.83
324.256	-9.56
324.469	-25.94
324.683	62.12
324.896	64.17
325.109	31.4
325.322	-44.37
325.535	-19.8
325.748	39.59
325.962	-19.8
326.175	39.59
326.388	12.97
326.601	37.55
326.814	41.64
327.027	33.45
327.24	47.79
327.453	21.16
327.666	82.6
327.879	-11.61
328.092	17.07
328.305	51.88
328.518	-34.13
328.731	27.31
328.944	8.87
329.157	25.26
329.37	88.75
329.583	23.21
329.796	58.03
330.009	27.31
330.222	-5.46
330.435	43.69
330.648	74.41
330.861	35.5
331.073	6.83
331.286	88.75
331.499	31.4
331.712	4.78
331.925	31.4
332.138	82.6
332.35	53.93
332.563	58.03
332.776	137.9
332.989	10.92
333.202	55.98
333.414	31.4
333.627	19.11
333.84	17.07
334.053	53.93
334.265	47.79
334.478	35.5
334.691	43.69
334.903	4.78
335.116	-7.51
335.329	-42.32
335.541	35.5
335.754	33.45
335.966	25.26
336.179	25.26
336.392	-3.41
336.604	-13.65
336.817	72.36
337.029	66.22
337.242	17.07
337.454	45.74
337.667	-7.51
337.88	25.26
338.092	45.74
338.305	21.16
338.517	12.97
338.729	47.79
338.942	88.75
339.154	4.78
339.367	47.79
339.579	58.03
339.792	21.16
340.004	-21.84
340.217	-40.28
340.429	68.27
340.641	23.21
340.854	68.27
341.066	4.78
341.278	90.79
341.491	-34.13
341.703	21.16
341.915	76.46
342.128	58.03
342.34	55.98
342.552	-9.56
342.764	-5.46
342.977	-34.13
343.189	31.4
343.401	58.03
343.613	88.75
343.826	84.65
344.038	27.31
344.25	45.74
344.462	-15.7
344.674	31.4
344.886	-7.51
345.099	-32.08
345.311	-11.61
345.523	82.6
345.735	6.83
345.947	23.21
346.159	66.22
346.371	66.22
346.583	12.97
346.795	41.64
347.007	-7.51
347.219	64.17
347.431	35.5
347.643	-25.94
347.855	37.55
348.067	-3.41
348.279	8.87
348.491	37.55
348.703	8.87
348.915	47.79
349.127	35.5
349.339	4.78
349.551	55.98
349.763	0.68
349.975	96.94
350.187	47.79
350.399	82.6
350.61	6.83
350.822	41.64
351.034	31.4
351.246	0.68
351.458	-73.04
351.669	70.31
351.881	25.26
352.093	-11.61
352.305	68.27
352.517	74.41
352.728	96.94
352.94	76.46
353.152	-7.51
353.363	-23.89
353.575	-17.75
353.787	0.68
353.999	58.03
354.21	33.45
354.422	74.41
354.633	17.07
354.845	39.59
355.057	21.16
355.268	-34.13
355.48	107.18
355.692	76.46
355.903	31.4
356.115	-9.56
356.326	66.22
356.538	-27.99
356.749	21.16
356.961	82.6
357.172	37.55
357.384	-13.65
357.595	62.12
357.807	84.65
358.018	12.97
358.23	23.21
358.441	25.26
358.653	49.83
358.864	49.83
359.075	4.78
359.287	15.02
359.498	19.11
359.709	88.75
359.921	64.17
360.132	-46.42
360.344	35.5
360.555	82.6
360.766	64.17
360.977	35.5
361.189	80.55
361.4	-40.28
361.611	39.59
361.823	0.68
362.034	-50.52
362.245	68.27
362.456	33.45
362.667	4.78
362.879	21.16
363.09	49.83
363.301	25.26
363.512	78.51
363.723	78.51
363.935	27.31
364.146	-9.56
364.357	72.36
364.568	-21.84
364.779	-40.28
364.99	31.4
365.201	21.16
365.412	58.03
365.623	-1.37
365.834	27.31
366.045	58.03
366.256	55.98
366.467	2.73
366.678	55.98
366.889	51.88
367.1	-3.41
367.311	27.31
367.522	86.7
367.733	21.16
367.944	35.5
368.155	21.16
368.366	55.98
368.577	62.12
368.788	60.07
368.999	6.83
369.209	-30.04
369.42	27.31
369.631	25.26
369.842	35.5
370.053	47.79
370.264	92.84
370.474	-21.84
370.685	82.6
370.896	78.51
371.107	78.51
371.317	62.12
371.528	84.65
371.739	-7.51
371.95	125.61
372.16	43.69
372.371	19.11
372.582	35.5
372.792	51.88
373.003	55.98
373.214	-7.51
373.424	60.07
373.635	25.26
373.846	6.83
374.056	68.27
374.267	0.68
374.477	80.55
374.688	-13.65
374.898	78.51
375.109	47.79
375.319	17.07
375.53	10.92
375.74	25.26
375.951	150.18
376.161	19.11
376.372	19.11
376.582	8.87
376.793	68.27
377.003	-17.75
377.214	74.41
377.424	35.5
377.635	-11.61
377.845	-11.61
378.055	23.21
378.266	-17.75
378.476	-11.61
378.686	8.87
378.897	49.83
379.107	33.45
379.317	55.98
379.528	-19.8
379.738	64.17
379.948	70.31
380.158	60.07
380.369	60.07
380.579	19.11
380.789	98.99
380.999	2.73
381.21	19.11
381.42	72.36
381.63	64.17
381.84	-58.71
382.05	21.16
382.261	47.79
382.471	6.83
382.681	45.74
382.891	25.26
383.101	53.93
383.311	-15.7
383.521	58.03
383.731	78.51
383.941	23.21
384.151	103.08
384.361	0.68
384.571	53.93
384.781	29.35
384.991	12.97
385.201	115.37
385.411	55.98
385.621	33.45
385.831	121.51
386.041	98.99
386.251	15.02
386.461	33.45
386.671	-9.56
386.881	113.32
387.091	-34.13
387.301	105.13
387.511	31.4
387.72	8.87
387.93	-54.61
388.14	35.5
388.35	41.64
388.56	111.27
388.769	98.99
388.979	-17.75
389.189	62.12
389.399	39.59
389.609	-11.61
389.818	53.93
390.028	39.59
390.238	33.45
390.447	-17.75
390.657	-7.51
390.867	47.79
391.076	88.75
391.286	72.36
391.496	80.55
391.705	19.11
391.915	-23.89
392.125	35.5
392.334	45.74
392.544	64.17
392.753	29.35
392.963	-30.04
393.172	2.73
393.382	12.97
393.591	37.55
393.801	33.45
394.01	35.5
394.22	6.83
394.429	66.22
394.639	37.55
394.848	41.64
395.058	55.98
395.267	62.12
395.477	45.74
395.686	47.79
395.895	35.5
396.105	33.45
396.314	82.6
396.524	35.5
396.733	25.26
396.942	58.03
397.152	21.16
397.361	94.89
397.57	78.51
397.78	4.78
397.989	76.46
398.198	-3.41
398.407	62.12
398.617	55.98
398.826	21.16
399.035	41.64
399.244	96.94
399.453	111.27
399.663	-1.37
399.872	115.37
400.081	8.87
400.29	115.37
400.499	-11.61
400.708	-46.42
400.917	43.69
401.127	55.98
401.336	4.78
401.545	74.41
401.754	76.46
401.963	53.93
402.172	21.16
402.381	35.5
402.59	94.89
402.799	103.08
403.008	60.07
403.217	41.64
403.426	41.64
403.635	31.4
403.844	101.03
404.053	-23.89
404.262	64.17
404.471	64.17
404.68	47.79
404.888	70.31
405.097	35.5
405.306	8.87
405.515	80.55
405.724	82.6
405.933	137.9
406.142	64.17
406.35	70.31
406.559	66.22
406.768	51.88
406.977	115.37
407.185	55.98
407.394	146.09
407.603	129.7
407.812	74.41
408.02	172.71
408.229	144.04
408.438	123.56
408.646	88.75
408.855	119.46
409.064	121.51
409.272	10.92
409.481	107.18
409.69	154.28
409.898	113.32
410.107	174.76
410.315	154.28
410.524	158.38
410.733	189.1
410.941	119.46
411.15	133.8
411.358	152.23
411.567	170.66
411.775	189.1
411.984	127.66
412.192	154.28
412.401	164.52
412.609	221.86
412.818	156.33
413.026	168.62
413.234	215.72
413.443	162.47
413.651	252.58
413.86	195.24
414.068	301.73
414.276	236.2
414.485	273.06
414.693	191.14
414.901	215.72
415.11	283.3
415.318	293.54
415.526	228.01
415.734	299.69
415.943	277.16
416.151	389.8
416.359	268.97
416.567	371.37
416.776	375.46
416.984	402.08
417.192	414.37
417.4	441
417.608	371.37
417.817	441
418.025	389.8
418.233	451.24
418.441	531.11
418.649	449.19
418.857	529.06
419.065	479.91
419.273	549.54
419.481	484
419.689	541.35
419.897	561.83
420.105	535.2
420.313	559.78
420.521	627.36
420.729	653.98
420.937	694.94
421.145	678.56
421.353	701.09
421.561	823.97
421.769	832.16
421.977	774.81
422.185	717.47
422.393	805.53
422.601	928.41
422.809	932.51
423.017	942.75
423.224	1012.38
423.432	1032.86
423.64	969.37
423.848	1098.39
424.056	996
424.263	1051.29
424.471	1055.39
424.679	1102.49
424.887	1180.31
425.094	1188.5
425.302	1282.71
425.51	1266.33
425.718	1309.33
425.925	1297.05
426.133	1417.88
426.341	1346.2
426.548	1538.71
426.756	1483.41
426.964	1573.52
427.171	1569.43
427.379	1692.3
427.586	1712.78
427.794	1720.98
428.001	1784.46
428.209	1837.71
428.417	1893.01
428.624	2118.28
428.832	2003.6
429.039	2026.12
429.247	2036.36
429.454	2253.45
429.662	2284.17
429.869	2214.54
430.076	2288.26
430.284	2171.53
430.491	2394.76
430.699	2521.73
430.906	2472.58
431.114	2544.26
431.321	2607.75
431.528	2617.99
431.736	2835.07
431.943	2820.74
432.15	2873.98
432.358	2933.37
432.565	3207.8
432.772	3164.79
432.979	3302.01
433.187	3093.12
433.394	3267.19
433.601	3537.52
433.808	3449.46
434.016	3545.72
434.223	3545.72
434.43	4018.8
434.637	3801.71
434.844	4039.28
435.052	4162.16
435.259	4110.96
435.466	4143.72
435.673	4160.11
435.88	4403.82
436.087	4608.61
436.294	4661.86
436.501	4504.17
436.708	4565.6
436.915	4702.82
437.122	5003.87
437.329	4844.13
437.537	5030.49
437.743	5134.94
437.95	5184.09
438.157	5380.7
438.364	5671.51
438.571	5571.16
438.778	5745.23
438.985	6013.52
439.192	5829.2
439.399	6175.31
439.606	6013.52
439.813	6269.51
440.02	6707.78
440.227	6634.05
440.433	6464.07
440.64	6693.44
440.847	6550.09
441.054	7062.08
441.261	7332.41
441.467	7365.18
441.674	7402.04
441.881	7641.65
442.088	7592.5
442.294	7676.47
442.501	7850.55
442.708	7998
442.914	8254
443.121	8665.64
443.328	8397.35
443.534	8952.35
443.741	8671.78
443.948	8616.49
444.154	9310.75
444.361	9353.76
444.568	9423.39
444.774	9345.56
444.981	9329.18
445.187	9685.53
445.394	10002.96
445.6	9880.08
445.807	10910.21
446.013	10107.41
446.22	10691.08
446.426	11258.37
446.633	11375.1
446.839	11268.61
447.046	10877.44
447.252	11753.98
447.459	11508.22
447.665	11639.29
447.871	12122.61
448.078	12640.75
448.284	12241.39
448.491	12546.54
448.697	12673.51
448.903	13179.36
449.11	13248.99
449.316	12728.81
449.522	13048.29
449.728	13572.57
449.935	13742.55
450.141	13689.31
450.347	14070.23
450.553	13541.85
450.76	13599.2
450.966	14227.92
451.172	13980.12
451.378	14293.46
451.584	14219.73
451.791	14494.16
451.997	14645.71
452.203	14809.54
452.409	14764.49
452.615	14657.99
452.821	13904.34
453.027	14025.17
453.233	14846.41
453.44	13922.77
453.646	14115.28
453.852	14320.08
454.058	14557.64
454.264	13836.76
454.47	14449.1
454.676	14014.93
454.882	14709.19
455.088	13226.46
455.294	13660.63
455.5	13599.2
455.705	13818.33
455.911	13277.66
456.117	13107.68
456.323	12929.51
456.529	12278.26
456.735	12667.37
456.941	12401.13
457.147	12114.42
457.352	11733.5
457.558	11903.48
457.764	11633.15
457.97	11651.58
458.176	11100.67
458.381	11418.11
458.587	10689.03
458.793	10773
458.999	10140.18
459.204	10928.64
459.41	10682.89
459.616	9724.44
459.821	9910.8
460.027	10029.59
460.233	9568.79
460.438	9202.21
460.644	9519.64
460.85	8987.17
461.055	8880.68
461.261	8788.52
461.466	8200.75
461.672	7963.19
461.878	8436.27
462.083	7873.07
462.289	7735.86
462.494	7643.7
462.7	7467.58
462.905	7262.78
463.111	7486.01
463.316	7514.68
463.522	7504.44
463.727	7506.49
463.932	7352.89
464.138	7262.78
464.343	7311.93
464.549	7086.65
464.754	7244.35
464.959	7326.27
465.165	7293.5
465.37	6949.44
465.575	6834.75
465.781	7017.02
465.986	7260.73
466.191	6818.37
466.397	6777.41
466.602	6421.06
466.807	6638.15
467.012	6582.85
467.218	6658.63
467.423	6515.27
467.628	6617.67
467.833	7043.65
468.038	6638.15
468.244	6521.42
468.449	6765.12
468.654	6363.72
468.859	6572.61
469.064	6333
469.269	6187.6
469.474	6281.8
469.679	6234.7
469.885	6267.47
470.09	6175.31
470.295	6244.94
470.5	6144.59
470.705	6263.37
470.91	5978.7
471.115	5956.18
471.32	5972.56
471.525	6003.28
471.73	5765.71
471.935	5902.93
472.139	5485.14
472.344	5677.65
472.549	5583.45
472.754	5651.03
472.959	5470.81
473.164	5255.77
473.369	5249.63
473.574	5438.04
473.778	5466.71
473.983	5374.55
474.188	5309.02
474.393	5274.2
474.598	4944.48
474.802	5091.93
475.007	5087.84
475.212	5053.02
475.417	4741.73
475.621	4723.3
475.826	5005.92
476.031	4801.12
476.235	4676.2
476.44	4792.93
476.645	4549.22
476.849	4614.76
477.054	4510.31
477.259	4315.75
477.463	4555.37
477.668	4403.82
477.872	4479.59
478.077	4461.16
478.282	4254.31
478.486	4168.3
478.691	4321.9
478.895	4297.32
479.1	4160.11
479.304	4166.25
479.509	4172.39
479.713	4168.3
479.918	4108.91
480.122	3895.92
480.326	4018.8
480.531	4084.33
480.735	4037.23
480.94	4051.56
481.144	4110.96
481.348	3895.92
481.553	3873.39
481.757	3852.91
481.961	3885.68
482.166	4031.09
482.37	3850.86
482.574	4031.09
482.778	3826.29
482.983	3967.6
483.187	3983.98
483.391	3838.58
483.595	3857.01
483.8	3721.84
484.004	3879.54
484.208	4045.42
484.412	3910.26
484.616	3867.25
484.821	3885.68
485.025	3857.01
485.229	3910.26
485.433	3889.78
485.637	3945.07
485.841	3852.91
486.045	3799.66
486.249	3908.21
486.453	3969.65
486.657	3955.31
486.861	3979.89
487.065	3826.29
487.269	3949.17
487.473	3957.36
487.677	3951.21
487.881	3932.78
488.085	3979.89
488.289	4082.28
488.493	3977.84
488.697	4045.42
488.901	3930.73
489.105	4170.35
489.309	4061.8
489.512	4022.89
489.716	3979.89
489.92	4016.75
490.124	4119.15
490.328	4309.61
490.531	4211.31
490.735	4231.79
490.939	4129.39
491.143	4131.44
491.346	4246.12
491.55	4162.16
491.754	4278.89
491.958	4301.42
492.161	4311.66
492.365	4170.35
492.569	4338.28
492.772	4315.75
492.976	4350.57
493.18	4260.46
493.383	4383.34
493.587	4506.21
493.79	4569.7
493.994	4395.62
494.197	4463.21
494.401	4803.17
494.605	4573.8
494.808	4661.86
495.012	4766.31
495.215	4651.62
495.419	4975.2
495.622	4837.98
495.825	4975.2
496.029	4975.2
496.232	5018.21
496.436	4993.63
496.639	5198.43
496.843	5042.78
497.046	5278.3
497.249	5347.93
497.453	5337.69
497.656	5479
497.859	5415.51
498.063	5610.07
498.266	5605.97
498.469	5634.64
498.673	5624.4
498.876	5818.96
499.079	5880.4
499.282	6025.81
499.485	6183.5
499.689	5833.3
499.892	6181.45
500.095	6355.53
500.298	6445.64
500.501	6316.62
500.705	6511.18
500.908	6476.36
501.111	6615.62
501.314	6824.51
501.517	6838.85
501.72	7031.36
501.923	6955.58
502.126	7328.31
502.329	7270.97
502.532	7301.69
502.735	7443
502.938	7436.86
503.141	7670.33
503.344	7639.61
503.547	7610.93
503.75	7860.79
503.953	7887.41
504.156	8081.97
504.359	8208.94
504.562	8219.18
504.765	8538.66
504.968	8671.78
505.17	8563.24
505.373	8679.97
505.576	8880.68
505.779	9077.28
505.982	8964.64
506.185	9292.32
506.387	9372.19
506.59	9454.11
506.793	9665.05
506.996	9781.78
507.198	10021.39
507.401	9873.94
507.604	10084.88
507.807	10228.24
508.009	10246.67
508.212	10549.77
508.415	10494.47
508.617	10777.09
508.82	10721.8
509.022	10773
509.225	11045.38
509.428	11248.13
509.63	11371.01
509.833	11651.58
510.035	11667.96
510.238	11596.28
510.44	11934.2
510.643	12132.85
510.845	12138.99
511.048	12001.78
511.25	12497.39
511.453	12351.98
511.655	13068.77
511.858	12906.98
512.06	13109.73
512.262	13210.08
512.465	13318.62
512.667	13545.95
512.87	13369.82
513.072	13441.5
513.274	13912.53
513.477	14141.91
513.679	14180.82
513.881	14399.95
514.084	14641.61
514.286	14610.89
514.488	14670.28
514.69	14948.81
514.893	15296.96
515.095	15163.84
515.297	15385.02
515.499	15466.94
515.701	15767.99
515.904	15940.02
516.106	16099.76
516.308	16273.84
516.51	16540.08
516.712	16454.06
516.914	16546.22
517.116	17074.6
517.318	17066.41
517.52	17252.77
517.722	17224.1
517.925	17473.95
518.127	17723.8
518.329	17832.35
518.531	17709.47
518.733	18020.76
518.935	18106.77
519.136	18287
519.338	18702.73
519.54	18583.95
519.742	18817.42
519.944	18946.44
520.146	19325.32
520.348	19186.05
520.55	19485.06
520.752	19595.65
520.954	20009.34
521.155	19609.98
521.357	20179.32
521.559	20621.68
521.761	20662.64
521.963	20470.13
522.164	20498.8
522.366	20603.25
522.568	21406.05
522.77	21129.58
522.971	21567.84
523.173	21604.71
523.375	21404
523.576	21731.68
523.778	21502.31
523.98	21938.52
524.181	22100.31
524.383	22184.28
524.584	22227.29
524.786	22212.95
524.988	22368.6
525.189	23056.71
525.391	23060.81
525.592	22909.26
525.794	22976.84
525.995	22958.41
526.197	23429.45
526.398	23099.72
526.6	23552.32
526.801	23703.87
527.003	23900.48
527.204	23763.26
527.406	23886.14
527.607	23667.01
527.808	24291.64
528.01	23974.2
528.211	24099.13
528.412	24361.27
528.614	24377.65
528.815	24187.19
529.016	24545.59
529.218	24658.23
529.419	24422.71
529.62	24940.85
529.822	24795.44
530.023	25039.15
530.224	24785.2
530.425	24809.78
530.626	25084.2
530.828	24820.02
531.029	25516.33
531.23	25073.96
531.431	25219.37
531.632	25217.32
531.833	25317.67
532.035	25313.58
532.236	25551.14
532.437	25504.04
532.638	25313.58
532.839	25567.52
533.04	25835.81
533.241	25547.04
533.442	25938.21
533.643	25555.24
533.844	25784.61
534.045	25903.39
534.246	25504.04
534.447	25817.38
534.648	25702.69
534.849	25729.31
535.05	25772.32
535.251	25880.86
535.451	25723.17
535.652	25717.03
535.853	25968.93
536.054	26335.51
536.255	26124.57
536.456	26081.56
536.657	26048.8
536.857	25921.82
537.058	25823.52
537.259	26122.52
537.46	26087.71
537.66	26073.37
537.861	26478.87
538.062	25981.21
538.263	26345.75
538.463	26030.37
538.664	26202.39
538.865	26355.99
539.065	26433.82
539.266	26315.03
539.466	26276.12
539.667	26188.06
539.868	26671.38
540.068	26548.5
540.269	26577.17
540.469	26509.59
540.67	26331.42
540.87	26511.64
541.071	26407.19
541.271	26482.97
541.472	26355.99
541.672	26521.88
541.873	26358.04
542.073	26280.22
542.274	26536.21
542.474	26657.04
542.675	26573.08
542.875	26562.84
543.075	26360.09
543.276	26319.13
543.476	26900.75
543.676	26323.22
543.877	26521.88
544.077	26333.46
544.277	26579.22
544.478	26204.44
544.678	26589.46
544.878	26669.33
545.078	26771.73
545.279	26487.06
545.479	26339.61
545.679	26327.32
545.879	26485.01
546.079	26562.84
546.28	26679.57
546.48	26294.55
546.68	26845.46
546.88	26425.62
547.08	26515.73
547.28	26380.57
547.48	26306.84
547.68	26489.11
547.88	26288.41
548.081	26603.8
548.281	26337.56
548.481	26587.41
548.681	26874.13
548.881	26747.15
549.081	26716.43
549.28	26528.02
549.48	26745.11
549.68	26394.9
549.88	26630.42
550.08	26407.19
550.28	26413.34
550.48	26491.16
550.68	26489.11
550.88	26517.78
551.08	26519.83
551.279	26380.57
551.479	26226.97
551.679	26507.54
551.879	26188.06
552.079	26743.06
552.278	26427.67
552.478	26519.83
552.678	26546.45
552.878	26614.04
553.077	26226.97
553.277	26347.8
553.477	26587.41
553.676	26442.01
553.876	26097.95
554.076	26292.51
554.275	26200.35
554.475	26347.8
554.674	26349.85
554.874	26378.52
555.074	26472.73
555.273	26353.94
555.473	26509.59
555.672	26329.37
555.872	26372.38
556.071	26167.58
556.271	26460.44
556.47	26102.04
556.67	26298.65
556.869	26245.4
557.068	26417.43
557.268	25868.58
557.467	26165.53
557.667	26200.35
557.866	26298.65
558.065	26251.55
558.265	26294.55
558.464	25739.55
558.663	26222.87
558.863	25970.97
559.062	26315.03
559.261	25696.55
559.461	26155.29
559.66	25760.03
559.859	25864.48
560.058	25893.15
560.258	26321.18
560.457	25846.05
560.656	26114.33
560.855	25995.55
561.054	26091.8
561.253	25651.49
561.453	25499.94
561.652	25934.11
561.851	26013.98
562.05	25694.5
562.249	25497.89
562.448	25940.25
562.647	25536.81
562.846	25770.27
563.045	25753.89
563.244	25604.39
563.443	25788.71
563.642	25377.06
563.841	25622.82
564.04	25538.85
564.239	25893.15
564.438	25377.06
564.637	25573.67
564.836	25348.39
565.035	24963.37
565.234	25551.14
565.432	25295.14
565.631	25655.59
565.83	25612.58
566.029	25297.19
566.228	25755.94
566.427	25370.92
566.625	25415.97
566.824	25071.92
567.023	25387.3
567.222	25022.76
567.42	25348.39
567.619	25012.53
567.818	25045.29
568.016	25000.24
568.215	25243.95
568.414	24717.62
568.612	25485.61
568.811	25082.16
569.01	25067.82
569.208	24774.96
569.407	24955.18
569.605	24459.57
569.804	25008.43
570.002	24326.46
570.201	24521.01
570.4	24525.11
570.598	24742.19
570.797	24674.61
570.995	24529.2
571.193	23812.42
571.392	25000.24
571.59	24181.05
571.789	24348.98
571.987	24303.93
572.186	24162.62
572.384	24189.24
572.582	24398.13
572.781	24367.41
572.979	23591.23
573.177	24203.58
573.376	24213.82
573.574	24076.6
573.772	24193.34
573.971	23726.4
574.169	23912.77
574.367	23669.06
574.565	23974.2
574.763	23552.32
574.962	23830.85
575.16	23337.29
575.358	23318.85
575.556	23404.87
575.754	23875.9
575.952	23292.23
576.151	23468.36
576.349	23249.22
576.547	23173.45
576.745	23222.6
576.943	23281.99
577.141	23230.79
577.339	23124.3
577.537	23200.07
577.735	23087.43
577.933	22909.26
578.131	23255.37
578.329	22677.84
578.527	22935.88
578.725	22860.11
578.923	22982.99
579.121	22479.19
579.319	22649.17
579.516	22554.96
579.714	22618.45
579.912	22536.53
580.11	22651.22
580.308	22315.35
580.506	22339.93
580.704	21922.14
580.901	22227.29
581.099	22243.67
581.297	22169.94
581.495	21772.64
581.692	22348.12
581.89	21924.19
582.088	22137.18
582.285	21772.64
582.483	21864.8
582.681	21729.63
582.878	21811.55
583.076	21578.08
583.274	21969.24
583.471	21369.19
583.669	21381.48
583.866	21518.69
584.064	21440.87
584.262	21203.3
584.459	21508.45
584.657	21174.63
584.854	21463.4
585.052	20926.83
585.249	21285.22
585.447	21193.06
585.644	20822.38
585.841	21057.9
586.039	21123.43
586.236	20593.01
586.434	20912.49
586.631	20830.57
586.828	20619.63
587.026	20590.96
587.223	20760.94
587.42	20656.5
587.618	20564.34
587.815	20382.07
588.012	20205.94
588.21	20187.51
588.407	20496.75
588.604	20390.26
588.801	20224.37
588.999	20328.82
589.196	20597.1
589.393	20144.5
589.59	20048.25
589.787	19700.09
589.984	19972.47
590.182	19853.69
590.379	19855.74
590.576	19685.76
590.773	19741.05
590.97	19562.88
591.167	19503.49
591.364	19292.55
591.561	19483.01
591.758	19364.23
591.955	19437.95
592.152	19388.8
592.349	19261.83
592.546	19196.29
592.743	19069.32
592.94	18944.39
593.137	19151.24
593.334	19241.35
593.531	18602.38
593.727	18991.5
593.924	18604.43
594.121	18553.23
594.318	18801.04
594.515	18633.1
594.712	18811.28
594.908	18616.72
595.105	18512.27
595.302	18375.06
595.499	18364.82
595.696	18164.12
595.892	18155.93
596.089	18389.39
596.286	18479.5
596.482	18129.3
596.679	18268.56
596.876	18160.02
597.072	18157.97
597.269	18069.91
597.466	17805.72
597.662	17650.08
597.859	18053.53
598.055	17854.87
598.252	17514.91
598.448	17668.51
598.645	17488.29
598.841	17549.73
599.038	17463.71
599.234	17422.75
599.431	17279.39
599.627	17439.14
599.824	17330.59
600.02	17422.75
600.217	17449.38
600.413	17035.69
600.609	17029.54
600.806	16859.56
601.002	17105.32
601.198	17156.52
601.395	16839.08
601.591	16849.32
601.787	16777.64
601.984	16644.52
602.18	16748.97
602.376	16884.14
602.572	16445.87
602.769	16433.58
602.965	16392.62
603.161	16429.49
603.357	16187.83
603.553	16335.28
603.75	16345.52
603.946	16224.69
604.142	16288.18
604.338	16116.15
604.534	16116.15
604.73	15901.11
604.926	15987.13
605.122	16157.11
605.318	15921.59
605.514	16064.95
605.71	15659.45
605.906	15798.71
606.102	15688.12
606.298	15415.74
606.494	15821.24
606.69	15776.19
606.886	15671.74
607.082	15337.92
607.278	15468.99
607.474	15280.58
607.67	15329.73
607.866	15147.46
608.062	15323.58
608.257	15284.67
608.453	15364.54
608.649	15112.64
608.845	15299.01
609.041	15157.7
609.236	14913.99
609.432	15184.32
609.628	15239.62
609.824	15073.73
610.019	14862.79
610.215	14787.02
610.411	15036.87
610.606	14936.52
610.802	15098.31
610.998	14623.18
611.193	14866.89
611.389	14893.51
611.584	14688.71
611.78	14731.72
611.976	14563.79
612.171	14424.53
612.367	14711.24
612.562	14582.22
612.758	14404.05
612.953	14477.77
613.149	14485.97
613.344	14397.9
613.539	14641.61
613.735	14406.09
613.93	14430.67
614.126	14199.25
614.321	14309.84
614.517	14215.63
614.712	14215.63
614.907	14262.74
615.103	14305.74
615.298	14135.76
615.493	14406.09
615.688	13959.64
615.884	14213.59
616.079	13959.64
616.274	14066.13
616.47	13947.35
616.665	13918.68
616.86	13842.9
617.055	13937.11
617.25	13652.44
617.445	13715.93
617.641	13488.6
617.836	13742.55
618.031	13550.04
618.226	13595.1
618.421	13572.57
618.616	13820.38
618.811	13302.24
619.006	13582.81
619.201	13216.23
619.396	13226.46
619.591	13128.16
619.786	13042.15
619.981	12890.6
620.176	13158.88
620.371	13001.19
620.566	12876.26
620.761	12913.13
620.956	12958.18
621.151	12671.47
621.346	12939.75
621.541	12638.7
621.735	12593.64
621.93	12497.39
622.125	12194.29
622.32	12513.77
622.515	12610.03
622.709	12333.55
622.904	12364.27
623.099	12085.75
623.294	12038.64
623.488	11911.67
623.683	12012.02
623.878	11854.33
624.072	11782.65
624.267	11930.1
624.462	11553.27
624.656	11637.24
624.851	11682.3
625.046	11723.26
625.24	11457.02
625.435	11411.96
625.629	11444.73
625.824	11330.05
626.018	11186.69
626.213	11000.32
626.407	11168.26
626.602	11047.43
626.796	11088.39
626.991	11158.02
627.185	10797.57
627.38	10836.49
627.574	10633.74
627.768	10942.98
627.963	10707.46
628.157	10566.15
628.352	10865.16
628.546	10459.66
628.74	10488.33
628.935	10197.52
629.129	10328.59
629.323	10218
629.517	10007.06
629.712	10220.05
629.906	10125.84
630.1	9755.16
630.294	10199.57
630.489	9910.8
630.683	9830.93
630.877	9855.51
631.071	9851.41
631.265	9656.86
631.459	9886.23
631.653	9566.74
631.848	9699.86
632.042	9486.87
632.236	9593.37
632.43	9419.29
632.624	9515.55
632.818	9380.38
633.012	9271.84
633.206	9144.86
633.4	9323.04
633.594	9073.18
633.788	9144.86
633.982	9241.12
634.176	9239.07
634.369	9048.61
634.563	8956.45
634.757	8845.86
634.951	8995.36
635.145	8806.95
635.339	8970.79
635.533	8802.85
635.726	8649.25
635.92	8743.46
636.114	8737.32
636.308	8565.29
636.501	8374.83
636.695	8405.55
636.889	8376.87
637.083	8290.86
637.276	8288.81
637.47	8026.67
637.664	8219.18
637.857	8155.69
638.051	8116.78
638.244	8124.97
638.438	8184.37
638.632	8018.48
638.825	7801.4
639.019	7850.55
639.212	7871.03
639.406	7934.51
639.599	7588.41
639.793	7850.55
639.986	7774.77
640.18	7762.48
640.373	7686.71
640.567	7633.46
640.76	7676.47
640.954	7494.2
641.147	7504.44
641.34	7297.6
641.534	7391.8
641.727	7490.1
641.92	7410.23
642.114	7260.73
642.307	7152.19
642.5	7174.72
642.694	7066.17
642.887	7100.99
643.08	7117.37
643.273	7025.22
643.467	6994.5
643.66	6939.2
643.853	7053.89
644.046	6836.8
644.239	6988.35
644.432	6769.22
644.626	6660.68
644.819	6468.17
645.012	6707.78
645.205	6668.87
645.398	6685.25
645.591	6572.61
645.784	6511.18
645.977	6431.3
646.17	6335.05
646.363	6267.47
646.556	6339.15
646.749	6265.42
646.942	6412.87
647.135	6193.74
647.328	6294.09
647.521	6226.51
647.714	6171.21
647.907	6201.93
648.099	6103.63
648.292	6062.67
648.485	6050.38
648.678	6011.47
648.871	5864.02
649.064	5878.35
649.256	5718.61
649.449	5726.8
649.642	5694.04
649.835	5739.09
650.027	5687.89
650.22	5612.12
650.413	5741.14
650.605	5624.4
650.798	5517.91
650.991	5540.44
651.183	5405.27
651.376	5421.66
651.568	5300.83
651.761	5356.12
651.954	5294.68
652.146	5134.94
652.339	5202.52
652.531	5235.29
652.724	5331.55
652.916	5091.93
653.109	5290.59
653.301	5145.18
653.494	5143.13
653.686	5096.03
653.879	4954.72
654.071	5227.1
654.263	4901.47
654.456	5075.55
654.648	4792.93
654.84	4952.67
655.033	4874.85
655.225	4866.66
655.417	4903.52
655.61	4819.55
655.802	4854.37
655.994	4635.24
656.186	4708.96
656.379	4563.56
656.571	4555.37
656.763	4598.37
656.955	4495.97
657.148	4541.03
657.34	4516.45
657.532	4420.2
657.724	4438.63
657.916	4409.96
658.108	4393.58
658.3	4303.47
658.492	4340.33
658.684	4401.77
658.876	4213.35
659.068	4199.02
659.26	4262.51
659.452	4276.84
659.644	4131.44
659.836	4160.11
660.028	4170.35
660.22	4094.57
660.412	3949.17
660.604	4051.56
660.796	4033.13
660.988	3887.73
661.18	3828.34
661.372	3789.42
661.563	3816.05
661.755	3824.24
661.947	3840.62
662.139	3764.85
662.331	3746.42
662.522	3713.65
662.714	3664.5
662.906	3633.78
663.097	3580.53
663.289	3496.57
663.481	3629.68
663.673	3519.09
663.864	3488.37
664.056	3379.83
664.247	3629.68
664.439	3490.42
664.631	3398.26
664.822	3410.55
665.014	3259
665.205	3312.25
665.397	3248.76
665.588	3375.74
665.78	3162.75
665.971	3330.68
666.163	3363.45
666.354	3185.27
666.546	3285.62
666.737	3195.51
666.929	3179.13
667.12	3146.36
667.311	3191.42
667.503	2925.18
667.694	3060.35
667.885	2988.67
668.077	3134.07
668.268	3023.48
668.459	2980.48
668.651	3003
668.842	2925.18
669.033	2929.28
669.224	2925.18
669.416	2949.76
669.607	2904.7
669.798	2802.3
669.989	2738.82
670.18	2841.22
670.371	2730.62
670.563	2726.53
670.754	2687.62
670.945	2683.52
671.136	2660.99
671.327	2626.18
671.518	2704
671.709	2763.39
671.9	2718.34
672.091	2574.98
672.282	2562.69
672.473	2634.37
672.664	2480.77
672.855	2542.21
673.046	2536.07
673.237	2640.51
673.428	2470.53
673.619	2464.39
673.809	2493.06
674	2474.63
674.191	2413.19
674.382	2454.15
674.573	2400.9
674.764	2452.1
674.954	2527.88
675.145	2509.44
675.336	2439.81
675.527	2443.91
675.717	2347.65
675.908	2433.67
676.099	2456.2
676.289	2396.81
676.48	2251.4
676.671	2355.85
676.861	2308.74
677.052	2157.19
677.243	2265.74
677.433	2192.01
677.624	2306.7
677.814	2310.79
678.005	2321.03
678.195	2228.87
678.386	2165.39
678.576	2282.12
678.767	2286.22
678.957	2204.3
679.148	2169.48
679.338	2155.15
679.529	2196.11
679.719	2187.91
679.909	2220.68
680.1	2185.87
680.29	2192.01
680.481	2071.18
680.671	2138.76
680.861	2144.91
681.052	2181.77
681.242	2161.29
681.432	1972.88
681.622	2079.37
681.813	2067.08
682.003	2085.51
682.193	1989.26
682.383	1970.83
682.573	2091.66
682.764	2071.18
682.954	2105.99
683.144	2054.8
683.334	1919.63
683.524	2013.84
683.714	1985.16
683.904	1938.06
684.094	1985.16
684.284	1950.35
684.474	1923.73
684.664	1946.25
684.854	2013.84
685.044	2087.56
685.234	1997.45
685.424	2026.12
685.614	1972.88
685.804	1899.15
685.994	1946.25
686.184	1997.45
686.374	2003.6
686.564	2022.03
686.753	2077.32
686.943	1956.49
687.133	1909.39
687.323	1952.4
687.513	1919.63
687.702	1895.05
687.892	1970.83
688.082	2003.6
688.272	2013.84
688.461	1948.3
688.651	1876.62
688.841	1942.16
689.03	1970.83
689.22	2001.55
689.41	2005.64
689.599	1882.77
689.789	2009.74
689.979	2001.55
690.168	1946.25
690.358	1897.1
690.547	1895.05
690.737	1880.72
690.926	1966.73
691.116	1927.82
691.305	1991.31
691.495	1903.25
691.684	1895.05
691.874	1913.49
692.063	1821.33
692.252	1833.61
692.442	1931.92
692.631	1972.88
692.82	1776.27
693.01	1882.77
693.199	1964.68
693.388	1919.63
693.578	1919.63
693.767	2005.64
693.956	1852.05
694.146	1954.44
694.335	1925.77
694.524	1915.53
694.713	1950.35
694.902	1882.77
695.092	1866.38
695.281	1866.38
695.47	1821.33
695.659	1798.8
695.848	1784.46
696.037	1753.74
696.226	1770.13
696.415	1829.52
696.604	1856.14
696.793	1915.53
696.982	1856.14
697.171	1870.48
697.36	1831.57
697.549	1759.89
697.738	1806.99
697.927	1837.71
698.116	1802.9
698.305	1829.52
698.494	1763.98
698.683	1675.92
698.872	1866.38
699.061	1817.23
699.25	1806.99
699.438	1809.04
699.627	1800.85
699.816	1856.14
700.005	1749.65
700.193	1753.74
700.382	1792.66
700.571	1641.11
700.76	1716.88
700.948	1757.84
701.137	1825.42
701.326	1772.18
701.514	1704.59
701.703	1659.54
701.892	1714.83
702.08	1753.74
702.269	1669.78
702.457	1645.2
702.646	1665.68
702.834	1628.82
703.023	1614.48
703.212	1653.39
703.4	1589.91
703.589	1497.75
703.777	1628.82
703.965	1647.25
704.154	1567.38
704.342	1581.71
704.531	1618.58
704.719	1561.23
704.907	1499.8
705.096	1571.47
705.284	1485.46
705.472	1524.37
705.661	1534.61
705.849	1477.27
706.037	1516.18
706.226	1485.46
706.414	1434.26
706.602	1503.89
706.79	1518.23
706.979	1467.03
707.167	1485.46
707.355	1528.47
707.543	1417.88
707.731	1444.5
707.919	1530.52
708.107	1460.88
708.296	1395.35
708.484	1432.21
708.672	1460.88
708.86	1528.47
709.048	1403.54
709.236	1495.7
709.424	1383.06
709.612	1415.83
709.8	1467.03
709.988	1401.49
710.176	1493.65
710.364	1383.06
710.551	1497.75
710.739	1368.73
710.927	1270.42
711.115	1362.58
711.303	1399.45
711.491	1340.05
711.679	1288.86
711.866	1325.72
712.054	1479.32
712.242	1387.16
712.43	1198.74
712.617	1254.04
712.805	1329.81
712.993	1221.27
713.181	1338.01
713.368	1335.96
713.556	1381.01
713.744	1266.33
713.931	1233.56
714.119	1325.72
714.306	1309.33
714.494	1299.09
714.682	1295
714.869	1292.95
715.057	1307.29
715.244	1194.65
715.432	1299.09
715.619	1194.65
715.807	1272.47
715.994	1219.22
716.182	1225.37
716.369	1178.26
716.556	1211.03
716.744	1141.4
716.931	1104.54
717.119	1110.68
717.306	1200.79
717.493	1178.26
717.681	1141.4
717.868	1145.5
718.055	1200.79
718.242	1116.83
718.43	1163.93
718.617	1100.44
718.804	1137.31
718.991	1219.22
719.179	1077.91
719.366	1053.34
719.553	1139.35
719.74	1149.59
719.927	1057.43
720.114	1034.91
720.301	1088.15
720.488	1182.36
720.676	1096.35
720.863	1110.68
721.05	1112.73
721.237	1077.91
721.424	1057.43
721.611	998.04
721.798	942.75
721.985	1059.48
722.172	1118.87
722.358	961.18
722.545	1151.64
722.732	1039
722.919	1069.72
723.106	909.98
723.293	1065.63
723.48	989.85
723.667	1034.91
723.853	965.28
724.04	977.56
724.227	996
724.414	928.41
724.6	940.7
724.787	957.08
724.974	961.18
725.161	885.41
725.347	1008.28
725.534	916.12
725.72	961.18
725.907	1041.05
726.094	926.36
726.28	1010.33
726.467	860.83
726.653	920.22
726.84	916.12
727.027	869.02
727.213	918.17
727.4	838.3
727.586	893.6
727.773	883.36
727.959	879.26
728.145	877.21
728.332	969.37
728.518	1000.09
728.705	961.18
728.891	887.45
729.077	932.51
729.264	735.9
729.45	952.99
729.636	885.41
729.823	862.88
730.009	832.16
730.195	838.3
730.382	852.64
730.568	762.53
730.754	803.49
730.94	928.41
731.126	805.53
731.313	883.36
731.499	760.48
731.685	895.64
731.871	817.82
732.057	772.77
732.243	768.67
732.429	834.21
732.615	805.53
732.801	856.73
732.987	834.21
733.173	770.72
733.359	746.14
733.545	834.21
733.731	795.29
733.917	713.38
734.103	735.9
734.289	813.73
734.475	754.34
734.661	830.11
734.847	793.25
735.033	862.88
735.219	668.32
735.404	694.94
735.59	731.81
735.776	760.48
735.962	809.63
736.148	735.9
736.333	746.14
736.519	721.57
736.705	748.19
736.89	723.62
737.076	789.15
737.262	686.75
737.447	787.1
737.633	772.77
737.819	729.76
738.004	680.61
738.19	635.55
738.375	623.27
738.561	705.18
738.747	629.41
738.932	647.84
739.118	742.05
739.303	610.98
739.489	752.29
739.674	692.9
739.859	678.56
740.045	688.8
740.23	701.09
740.416	606.88
740.601	647.84
740.786	643.74
740.972	660.13
741.157	627.36
741.342	592.55
741.528	653.98
741.713	719.52
741.898	586.4
742.084	559.78
742.269	578.21
742.454	680.61
742.639	674.46
742.824	627.36
743.01	600.74
743.195	631.46
743.38	590.5
743.565	604.83
743.75	684.7
743.935	621.22
744.12	705.18
744.305	610.98
744.49	565.92
744.675	553.63
744.86	563.87
745.045	522.91
745.23	539.3
745.415	559.78
745.6	420.52
745.785	602.79
745.97	572.07
746.155	514.72
746.34	563.87
746.525	565.92
746.71	516.77
746.895	539.3
747.079	604.83
747.264	549.54
747.449	535.2
747.634	533.15
747.819	520.87
748.003	524.96
748.188	508.58
748.373	506.53
748.557	535.2
748.742	537.25
748.927	514.72
749.111	502.44
749.296	461.48
749.481	557.73
749.665	484
749.85	553.63
750.034	539.3
750.219	500.39
750.404	467.62
750.588	551.59
750.773	465.57
750.957	590.5
751.141	529.06
751.326	488.1
751.51	461.48
751.695	469.67
751.879	430.76
752.064	508.58
752.248	471.72
752.432	484
752.617	397.99
752.801	365.22
752.985	463.52
753.17	494.24
753.354	473.76
753.538	445.09
753.722	414.37
753.907	486.05
754.091	484
754.275	522.91
754.459	430.76
754.643	412.32
754.828	510.63
755.012	357.03
755.196	488.1
755.38	449.19
755.564	432.8
755.748	473.76
755.932	426.66
756.116	488.1
756.3	371.37
756.484	477.86
756.668	391.84
756.852	385.7
757.036	445.09
757.22	404.13
757.404	365.22
757.588	441
757.772	322.21
757.956	459.43
758.14	410.28
758.323	363.17
758.507	375.46
758.691	430.76
758.875	389.8
759.059	469.67
759.242	293.54
759.426	393.89
759.61	428.71
759.794	275.11
759.977	391.84
760.161	395.94
760.345	406.18
760.528	414.37
760.712	391.84
760.895	381.6
761.079	307.88
761.263	408.23
761.446	467.62
761.63	330.41
761.813	367.27
761.997	346.79
762.18	336.55
762.364	348.84
762.547	365.22
762.731	273.06
762.914	397.99
763.098	346.79
763.281	305.83
763.464	314.02
763.648	359.08
763.831	424.61
764.015	311.97
764.198	322.21
764.381	309.93
764.564	387.75
764.748	324.26
764.931	322.21
765.114	273.06
765.297	289.45
765.481	348.84
765.664	293.54
765.847	324.26
766.03	379.56
766.213	318.12
766.397	287.4
766.58	336.55
766.763	336.55
766.946	363.17
767.129	264.87
767.312	324.26
767.495	377.51
767.678	301.73
767.861	340.65
768.044	289.45
768.227	363.17
768.41	250.53
768.593	311.97
768.776	344.74
768.959	211.62
769.142	303.78
769.324	326.31
769.507	230.06
769.69	314.02
769.873	303.78
770.056	225.96
770.239	248.49
770.421	246.44
770.604	297.64
770.787	281.25
770.97	324.26
771.152	271.01
771.335	367.27
771.518	285.35
771.7	250.53
771.883	293.54
772.066	291.49
772.248	271.01
772.431	295.59
772.613	326.31
772.796	254.63
772.978	254.63
773.161	268.97
773.343	262.82
773.526	291.49
773.708	268.97
773.891	258.73
774.073	291.49
774.256	287.4
774.438	299.69
774.621	271.01
774.803	246.44
774.985	268.97
775.168	203.43
775.35	273.06
775.532	266.92
775.715	240.3
775.897	260.77
776.079	271.01
776.261	242.34
776.444	258.73
776.626	262.82
776.808	287.4
776.99	303.78
777.173	191.14
777.355	254.63
777.537	195.24
777.719	238.25
777.901	264.87
778.083	236.2
778.265	215.72
778.447	334.5
778.629	191.14
778.811	242.34
778.993	277.16
779.175	291.49
779.357	248.49
779.539	185
779.721	215.72
779.903	185
780.085	230.06
780.267	209.58
780.449	154.28
780.631	256.68
780.812	211.62
780.994	170.66
781.176	170.66
781.358	236.2
781.54	215.72
781.721	207.53
781.903	162.47
782.085	180.9
782.267	197.29
782.448	211.62
782.63	178.86
782.812	137.9
782.993	225.96
783.175	240.3
783.357	166.57
783.538	148.14
783.72	215.72
783.901	187.05
784.083	217.77
784.264	211.62
784.446	203.43
784.627	211.62
784.809	205.48
784.99	266.92
785.172	131.75
785.353	207.53
785.535	98.99
785.716	178.86
785.897	146.09
786.079	162.47
786.26	185
786.441	156.33
786.623	166.57
786.804	193.19
786.985	260.77
787.167	211.62
787.348	123.56
787.529	193.19
787.71	197.29
787.891	228.01
788.073	144.04
788.254	223.91
788.435	139.94
788.616	176.81
788.797	144.04
788.978	119.46
789.159	94.89
789.34	193.19
789.522	189.1
789.703	176.81
789.884	158.38
790.065	180.9
790.246	209.58
790.427	207.53
790.607	107.18
790.788	178.86
790.969	160.42
791.15	139.94
791.331	107.18
791.512	170.66
791.693	141.99
791.874	111.27
792.054	156.33
792.235	101.03
792.416	180.9
792.597	135.85
792.778	152.23
792.958	178.86
793.139	164.52
793.32	2.73
793.5	86.7
793.681	158.38
793.862	156.33
794.042	107.18
794.223	144.04
794.404	144.04
794.584	96.94
794.765	137.9
794.945	90.79
795.126	242.34
795.306	51.88
795.487	113.32
795.667	76.46
795.848	148.14
796.028	72.36
796.209	150.18
796.389	94.89
796.57	96.94
796.75	98.99
796.93	94.89
797.111	88.75
797.291	94.89
797.471	43.69
797.652	96.94
797.832	113.32
798.012	172.71
798.192	154.28
798.373	119.46
798.553	117.42
798.733	107.18
798.913	51.88
799.093	98.99
799.274	27.31
799.454	72.36
799.634	125.61
799.814	168.62
799.994	92.84
800.174	90.79
800.354	182.95
800.534	123.56
800.714	60.07
800.894	88.75
801.074	101.03
801.254	131.75
801.434	96.94
801.614	121.51
801.794	111.27
801.974	342.69
802.154	123.56
802.334	152.23
802.514	68.27
802.693	129.7
802.873	88.75
803.053	62.12
803.233	86.7
803.413	80.55
803.592	88.75
803.772	98.99
803.952	88.75
804.131	121.51
804.311	84.65
804.491	96.94
804.67	84.65
804.85	103.08
805.03	92.84
805.209	121.51
805.389	86.7
805.568	43.69
805.748	64.17
805.928	58.03
806.107	55.98
806.287	39.59
806.466	66.22
806.646	66.22
806.825	70.31
807.004	74.41
807.184	29.35
807.363	58.03
807.543	74.41
807.722	123.56
807.901	133.8
808.081	58.03
808.26	72.36
808.439	150.18
808.619	111.27
808.798	21.16
808.977	43.69
809.156	29.35
809.336	41.64
809.515	107.18
809.694	64.17
809.873	96.94
810.052	-27.99
810.231	64.17
810.411	92.84
810.59	27.31
810.769	60.07
810.948	58.03
811.127	76.46
811.306	162.47
811.485	45.74
811.664	72.36
811.843	98.99
812.022	47.79
812.201	88.75
812.38	107.18
812.559	33.45
812.737	98.99
812.916	33.45
813.095	139.94
813.274	45.74
813.453	25.26
813.632	64.17
813.811	96.94
813.989	15.02
814.168	55.98
814.347	-15.7
814.526	82.6
814.704	35.5
814.883	80.55
815.062	51.88
815.24	33.45
815.419	66.22
815.598	64.17
815.776	10.92
815.955	23.21
816.133	51.88
816.312	55.98
816.49	41.64
816.669	156.33
816.847	33.45
817.026	-11.61
817.204	84.65
817.383	74.41
817.561	74.41
817.74	58.03
817.918	-42.32
818.097	47.79
818.275	66.22
818.453	25.26
818.632	72.36
818.81	103.08
818.988	51.88
819.167	31.4
819.345	49.83
819.523	92.84
819.701	37.55
819.879	98.99
820.058	66.22
820.236	111.27
820.414	12.97
820.592	64.17
820.77	60.07
820.948	39.59
821.127	58.03
821.305	51.88
821.483	88.75
821.661	33.45
821.839	111.27
822.017	-7.51
822.195	-13.65
822.373	109.23
822.551	96.94
822.729	37.55
822.907	121.51
823.085	12.97
823.262	103.08
823.44	76.46
823.618	-40.28
823.796	80.55
823.974	10.92
824.152	58.03
824.329	31.4
824.507	43.69
824.685	15.02
824.863	80.55
825.04	51.88
825.218	80.55
825.396	45.74
825.574	15.02
825.751	-46.42
825.929	137.9
826.107	2.73
826.284	58.03
826.462	37.55
826.639	21.16
826.817	-9.56
826.994	90.79
827.172	15.02
827.349	96.94
827.527	107.18
827.704	92.84
827.882	96.94
828.059	60.07
828.237	10.92
828.414	80.55
828.591	19.11
828.769	62.12
828.946	23.21
829.124	53.93
829.301	-7.51
829.478	41.64
829.655	15.02
829.833	-7.51
830.01	62.12
830.187	17.07
830.364	37.55
830.542	90.79
830.719	41.64
830.896	6.83
831.073	72.36
831.25	17.07
831.427	-1.37
831.604	0.68
831.782	39.59
831.959	15.02
832.136	33.45
832.313	6.83
832.49	-21.84
832.667	31.4
832.844	90.79
833.021	17.07
833.198	62.12
833.374	35.5
833.551	51.88
833.728	68.27
833.905	-7.51
834.082	45.74
834.259	47.79
834.436	25.26
834.612	45.74
834.789	51.88
834.966	4.78
835.143	66.22
835.319	62.12
835.496	2.73
835.673	-38.23
835.85	-25.94
836.026	74.41
836.203	39.59
836.38	15.02
836.556	-13.65
836.733	-19.8
836.909	43.69
837.086	80.55
837.262	35.5
837.439	-66.9
837.616	58.03
837.792	47.79
837.968	0.68
838.145	2.73
838.321	21.16
838.498	43.69
838.674	6.83
838.851	6.83
839.027	8.87
839.203	45.74
839.38	39.59
839.556	84.65
839.732	-13.65
839.909	37.55
840.085	53.93
840.261	27.31
840.437	88.75
840.614	2.73
840.79	6.83
840.966	66.22
841.142	12.97
841.318	-52.56
841.494	27.31
841.671	49.83
841.847	72.36
842.023	0.68
842.199	-44.37
842.375	19.11
842.551	29.35
842.727	-58.71
842.903	62.12
843.079	35.5
843.255	49.83
843.431	12.97
843.607	70.31
843.783	-71
843.959	23.21
844.134	60.07
844.31	21.16
844.486	-54.61
844.662	58.03
844.838	-9.56
845.013	-71
845.189	58.03
845.365	66.22
845.541	51.88
845.716	31.4
845.892	15.02
846.068	8.87
846.244	23.21
846.419	55.98
846.595	-11.61
846.77	64.17
846.946	-9.56
847.122	51.88
847.297	-23.89
847.473	49.83
847.648	10.92
847.824	70.31
847.999	-7.51
848.175	58.03
848.35	15.02
848.526	39.59
848.701	68.27
848.876	55.98
849.052	37.55
849.227	49.83
849.403	25.26
849.578	64.17
849.753	76.46
849.929	-19.8
850.104	-32.08
850.279	23.21
850.454	33.45
850.63	29.35
850.805	15.02
850.98	-11.61
851.155	37.55
851.33	-25.94
851.505	62.12
851.681	-13.65
851.856	8.87
852.031	21.16
852.206	45.74
852.381	58.03
852.556	53.93
852.731	58.03
852.906	-1.37
853.081	-23.89
853.256	39.59
853.431	64.17
853.606	0.68
853.781	64.17
853.956	45.74
854.131	-46.42
854.305	-44.37
854.48	31.4
854.655	45.74
854.83	15.02
855.005	-36.18
855.18	82.6
855.354	17.07
855.529	31.4
855.704	23.21
855.879	51.88
856.053	76.46
856.228	15.02
856.403	-25.94
856.577	39.59
856.752	-21.84
856.926	33.45
857.101	21.16
857.276	-9.56
857.45	37.55
857.625	31.4
857.799	33.45
857.974	64.17
858.148	-52.56
858.323	72.36
858.497	33.45
858.672	0.68
858.846	-36.18
859.02	23.21
859.195	41.64
859.369	58.03
859.543	-1.37
859.718	29.35
859.892	-5.46
860.066	-1.37
860.241	29.35
860.415	-11.61
860.589	6.83
860.763	70.31
860.938	-54.61
861.112	-66.9
861.286	31.4
861.46	23.21
861.634	76.46
861.808	-17.75
861.982	45.74
862.157	27.31
862.331	21.16
862.505	25.26
862.679	15.02
862.853	-34.13
863.027	4.78
863.201	27.31
863.375	39.59
863.549	8.87
863.722	-27.99
863.896	-1.37
864.07	21.16
864.244	-17.75
864.418	33.45
864.592	4.78
864.766	39.59
864.939	25.26
865.113	31.4
865.287	-60.76
865.461	27.31
865.634	6.83
865.808	41.64
865.982	31.4
866.156	35.5
866.329	31.4
866.503	-13.65
866.676	6.83
866.85	-5.46
867.024	29.35
867.197	15.02
867.371	98.99
867.544	-21.84
867.718	47.79
867.891	0.68
868.065	15.02
868.238	-99.67
868.412	72.36
868.585	-11.61
868.759	53.93
868.932	-34.13
869.105	62.12
869.279	25.26
869.452	-25.94
869.625	27.31
869.799	-3.41
869.972	-21.84
870.145	55.98
870.319	45.74
870.492	31.4
870.665	8.87
870.838	2.73
871.011	70.31
871.185	12.97
871.358	43.69
871.531	-5.46
871.704	92.84
871.877	82.6
872.05	0.68
872.223	39.59
872.396	2.73
872.569	6.83
872.742	49.83
872.915	17.07
873.088	-27.99
873.261	-13.65
873.434	-7.51
873.607	51.88
873.78	-25.94
873.953	6.83
874.126	70.31
874.299	-11.61
874.471	-3.41
874.644	88.75
874.817	-7.51
874.99	76.46
875.163	39.59
875.335	80.55
875.508	-5.46
875.681	15.02
875.853	-23.89
876.026	62.12
876.199	31.4
876.371	27.31
876.544	60.07
876.717	31.4
876.889	23.21
877.062	41.64
877.234	90.79
877.407	17.07
877.579	88.75
877.752	29.35
877.924	39.59
878.097	35.5
878.269	-23.89
878.442	27.31
878.614	70.31
878.786	-27.99
878.959	-5.46
879.131	51.88
879.303	-3.41
879.476	-38.23
879.648	23.21
879.82	27.31
879.993	27.31
880.165	19.11
880.337	10.92
880.509	41.64
880.681	43.69
880.854	-17.75
881.026	-7.51
881.198	-30.04
881.37	35.5
881.542	25.26
881.714	-25.94
881.886	23.21
882.058	-30.04
882.23	39.59
882.402	-62.8
882.574	-25.94
882.746	29.35
882.918	23.21
883.09	-7.51
883.262	31.4
883.434	-5.46
883.606	39.59
883.778	-34.13
883.95	64.17
884.122	4.78
884.293	51.88
884.465	-11.61
884.637	29.35
884.809	4.78
884.98	6.83
885.152	47.79
885.324	-15.7
885.496	15.02
885.667	103.08
885.839	-7.51
886.011	-1.37
886.182	2.73
886.354	6.83
886.525	-34.13
886.697	58.03
886.869	0.68
887.04	-17.75
887.212	-5.46
887.383	39.59
887.555	-34.13
887.726	-21.84
887.897	-3.41
888.069	58.03
888.24	39.59
888.412	2.73
888.583	4.78
888.754	-13.65
888.926	35.5
889.097	2.73
889.268	12.97
889.44	58.03
889.611	51.88
889.782	-36.18
889.953	31.4
890.125	-17.75
890.296	-66.9
890.467	-17.75
890.638	19.11
890.809	27.31
890.98	-19.8
891.151	68.27
891.323	92.84
891.494	58.03
891.665	-17.75
891.836	29.35
892.007	23.21
892.178	23.21
892.349	-17.75
892.52	12.97
892.691	74.41
892.862	55.98
893.032	-11.61
893.203	-44.37
893.374	27.31
893.545	49.83
893.716	-23.89
893.887	105.13
894.057	55.98
894.228	15.02
894.399	-3.41
894.57	47.79
894.74	-27.99
894.911	-9.56
895.082	2.73
895.253	-7.51
895.423	-5.46
895.594	33.45
895.764	49.83
895.935	17.07
896.106	19.11
896.276	29.35
896.447	-58.71
896.617	33.45
896.788	-42.32
896.958	39.59
897.129	29.35
897.299	-9.56
897.47	68.27
897.64	-17.75
897.81	37.55
897.981	27.31
898.151	-54.61
898.322	-13.65
898.492	15.02
898.662	-7.51
898.832	19.11
899.003	41.64
899.173	12.97
899.343	37.55
899.513	78.51
