Data from USB4F104151__37__12-53-44-355.txt Node

Date: Fri Mar 14 12:53:44 EDT 2025
User: louis
Spectrometer: USB4F10415
Trigger mode: 4
Integration Time (sec): 1.000000E-2
Scans to average: 1
Electric dark correction enabled: true
Nonlinearity correction enabled: false
Boxcar width: 0
XAxis mode: Wavelengths
Number of Pixels in Spectrum: 3648
>>>>>Begin Spectral Data<<<<<
178.204	-24.23
178.424	-24.23
178.644	-24.23
178.864	-44.71
179.084	-44.71
179.304	-26.28
179.524	6.49
179.744	12.63
179.964	76.12
180.184	29.01
180.404	8.53
180.624	8.53
180.844	-7.85
181.064	-79.53
181.283	53.59
181.503	-59.05
181.723	-22.19
181.943	18.77
182.163	53.59
182.383	47.44
182.602	16.73
182.822	22.87
183.042	12.63
183.262	6.49
183.482	22.87
183.701	45.4
183.921	10.58
184.141	-13.99
184.361	26.96
184.58	-36.52
184.8	63.83
185.02	-44.71
185.239	37.2
185.459	-7.85
185.679	18.77
185.898	26.96
186.118	12.63
186.338	61.78
186.557	-38.57
186.777	26.96
186.997	45.4
187.216	47.44
187.436	69.97
187.655	22.87
187.875	-22.19
188.095	65.88
188.314	39.25
188.534	67.92
188.753	-16.04
188.973	31.06
189.192	94.55
189.412	35.16
189.631	14.68
189.851	80.21
190.07	57.68
190.29	37.2
190.509	10.58
190.729	4.44
190.948	82.26
191.168	102.74
191.387	72.02
191.607	67.92
191.826	45.4
192.045	-44.71
192.265	35.16
192.484	-46.76
192.704	-5.8
192.923	22.87
193.142	6.49
193.362	0.34
193.581	53.59
193.8	35.16
194.02	-81.58
194.239	47.44
194.458	0.34
194.678	-26.28
194.897	-65.19
195.116	59.73
195.335	74.07
195.555	29.01
195.774	2.39
195.993	65.88
196.212	24.92
196.432	16.73
196.651	67.92
196.87	-28.33
197.089	47.44
197.308	41.3
197.528	-28.33
197.747	6.49
197.966	14.68
198.185	20.82
198.404	0.34
198.623	2.39
198.842	8.53
199.062	86.36
199.281	-20.14
199.5	49.49
199.719	55.64
199.938	67.92
200.157	26.96
200.376	0.34
200.595	94.55
200.814	45.4
201.033	41.3
201.252	39.25
201.471	53.59
201.69	80.21
201.909	14.68
202.128	80.21
202.347	-22.19
202.566	-11.95
202.785	-32.43
203.004	0.34
203.223	96.6
203.442	-57
203.661	86.36
203.879	16.73
204.098	31.06
204.317	69.97
204.536	12.63
204.755	-7.85
204.974	35.16
205.193	-73.39
205.411	20.82
205.63	26.96
205.849	45.4
206.068	-24.23
206.287	31.06
206.505	12.63
206.724	2.39
206.943	-65.19
207.162	16.73
207.381	96.6
207.599	-34.47
207.818	-3.75
208.037	29.01
208.255	-22.19
208.474	12.63
208.693	6.49
208.911	76.12
209.13	-5.8
209.349	-11.95
209.567	-44.71
209.786	-11.95
210.005	18.77
210.223	47.44
210.442	8.53
210.661	29.01
210.879	4.44
211.098	41.3
211.316	-11.95
211.535	10.58
211.753	24.92
211.972	49.49
212.191	106.84
212.409	41.3
212.628	41.3
212.846	61.78
213.065	-46.76
213.283	78.16
213.502	26.96
213.72	-34.47
213.938	24.92
214.157	41.3
214.375	-13.99
214.594	4.44
214.812	76.12
215.031	12.63
215.249	55.64
215.467	72.02
215.686	72.02
215.904	51.54
216.122	29.01
216.341	20.82
216.559	24.92
216.778	20.82
216.996	-7.85
217.214	12.63
217.432	55.64
217.651	29.01
217.869	41.3
218.087	37.2
218.306	49.49
218.524	26.96
218.742	20.82
218.96	-3.75
219.179	-16.04
219.397	67.92
219.615	-26.28
219.833	-3.75
220.051	-18.09
220.27	-44.71
220.488	59.73
220.706	106.84
220.924	-9.9
221.142	53.59
221.36	55.64
221.578	-9.9
221.796	29.01
222.015	33.11
222.233	2.39
222.451	80.21
222.669	-26.28
222.887	-26.28
223.105	39.25
223.323	8.53
223.541	84.31
223.759	14.68
223.977	-22.19
224.195	35.16
224.413	29.01
224.631	35.16
224.849	119.12
225.067	22.87
225.285	22.87
225.503	59.73
225.721	20.82
225.939	16.73
226.157	45.4
226.375	59.73
226.592	6.49
226.81	29.01
227.028	-54.95
227.246	35.16
227.464	72.02
227.682	-7.85
227.9	-36.52
228.117	55.64
228.335	24.92
228.553	6.49
228.771	67.92
228.989	2.39
229.206	80.21
229.424	110.93
229.642	33.11
229.86	10.58
230.077	33.11
230.295	57.68
230.513	31.06
230.731	2.39
230.948	0.34
231.166	65.88
231.384	55.64
231.601	-38.57
231.819	-7.85
232.037	10.58
232.254	67.92
232.472	26.96
232.689	8.53
232.907	0.34
233.125	49.49
233.342	-1.71
233.56	4.44
233.777	63.83
233.995	43.35
234.213	37.2
234.43	2.39
234.648	45.4
234.865	35.16
235.083	-11.95
235.3	29.01
235.518	90.45
235.735	96.6
235.953	37.2
236.17	41.3
236.388	4.44
236.605	33.11
236.822	6.49
237.04	-28.33
237.257	51.54
237.475	8.53
237.692	10.58
237.909	53.59
238.127	2.39
238.344	4.44
238.562	18.77
238.779	2.39
238.996	0.34
239.214	39.25
239.431	47.44
239.648	-3.75
239.865	-24.23
240.083	-1.71
240.3	63.83
240.517	-7.85
240.735	178.51
240.952	24.92
241.169	-40.62
241.386	92.5
241.603	-42.67
241.821	16.73
242.038	6.49
242.255	-3.75
242.472	31.06
242.689	33.11
242.907	47.44
243.124	-30.38
243.341	84.31
243.558	12.63
243.775	18.77
243.992	12.63
244.209	-1.71
244.426	53.59
244.643	-20.14
244.86	80.21
245.078	67.92
245.295	69.97
245.512	76.12
245.729	8.53
245.946	0.34
246.163	-7.85
246.38	39.25
246.597	-11.95
246.814	51.54
247.031	20.82
247.248	72.02
247.464	18.77
247.681	119.12
247.898	14.68
248.115	-32.43
248.332	-20.14
248.549	-1.71
248.766	45.4
248.983	43.35
249.2	18.77
249.417	39.25
249.633	69.97
249.85	45.4
250.067	53.59
250.284	53.59
250.501	18.77
250.717	53.59
250.934	-9.9
251.151	29.01
251.368	76.12
251.585	51.54
251.801	-7.85
252.018	-9.9
252.235	51.54
252.451	26.96
252.668	29.01
252.885	104.79
253.102	-30.38
253.318	41.3
253.535	41.3
253.752	-22.19
253.968	-11.95
254.185	-16.04
254.401	-11.95
254.618	14.68
254.835	12.63
255.051	84.31
255.268	-16.04
255.484	51.54
255.701	-9.9
255.917	59.73
256.134	37.2
256.351	4.44
256.567	49.49
256.784	0.34
257	-11.95
257.217	61.78
257.433	6.49
257.65	37.2
257.866	6.49
258.082	-5.8
258.299	-48.81
258.515	51.54
258.732	8.53
258.948	18.77
259.165	84.31
259.381	24.92
259.597	67.92
259.814	69.97
260.03	53.59
260.246	-1.71
260.463	29.01
260.679	41.3
260.895	-20.14
261.112	41.3
261.328	108.88
261.544	24.92
261.761	55.64
261.977	74.07
262.193	41.3
262.409	20.82
262.626	-13.99
262.842	63.83
263.058	-63.15
263.274	39.25
263.49	24.92
263.707	-1.71
263.923	37.2
264.139	-22.19
264.355	26.96
264.571	39.25
264.787	55.64
265.004	18.77
265.22	12.63
265.436	4.44
265.652	78.16
265.868	-3.75
266.084	37.2
266.3	-13.99
266.516	74.07
266.732	110.93
266.948	-40.62
267.164	59.73
267.38	14.68
267.596	59.73
267.812	-9.9
268.028	51.54
268.244	39.25
268.46	-30.38
268.676	-34.47
268.892	-1.71
269.108	39.25
269.324	39.25
269.54	4.44
269.756	-7.85
269.972	-11.95
270.188	24.92
270.403	47.44
270.619	59.73
270.835	59.73
271.051	31.06
271.267	26.96
271.483	45.4
271.698	57.68
271.914	31.06
272.13	65.88
272.346	67.92
272.562	61.78
272.777	4.44
272.993	26.96
273.209	49.49
273.425	84.31
273.64	22.87
273.856	12.63
274.072	12.63
274.287	-7.85
274.503	33.11
274.719	4.44
274.934	-11.95
275.15	-22.19
275.366	43.35
275.581	41.3
275.797	67.92
276.012	4.44
276.228	-9.9
276.444	39.25
276.659	37.2
276.875	12.63
277.09	57.68
277.306	55.64
277.521	41.3
277.737	31.06
277.952	22.87
278.168	26.96
278.383	-13.99
278.599	14.68
278.814	51.54
279.03	-7.85
279.245	26.96
279.461	59.73
279.676	10.58
279.892	37.2
280.107	20.82
280.322	24.92
280.538	14.68
280.753	35.16
280.969	45.4
281.184	45.4
281.399	69.97
281.615	45.4
281.83	78.16
282.045	12.63
282.26	106.84
282.476	39.25
282.691	94.55
282.906	0.34
283.122	18.77
283.337	-65.19
283.552	72.02
283.767	4.44
283.983	76.12
284.198	18.77
284.413	39.25
284.628	22.87
284.843	26.96
285.058	43.35
285.274	45.4
285.489	78.16
285.704	-18.09
285.919	33.11
286.134	24.92
286.349	45.4
286.564	39.25
286.779	86.36
286.995	-1.71
287.21	-24.23
287.425	8.53
287.64	78.16
287.855	2.39
288.07	-30.38
288.285	-9.9
288.5	51.54
288.715	80.21
288.93	18.77
289.145	-24.23
289.36	26.96
289.575	49.49
289.79	6.49
290.004	20.82
290.219	106.84
290.434	-16.04
290.649	2.39
290.864	104.79
291.079	29.01
291.294	84.31
291.509	43.35
291.724	63.83
291.938	4.44
292.153	78.16
292.368	43.35
292.583	29.01
292.798	8.53
293.012	10.58
293.227	18.77
293.442	35.16
293.657	4.44
293.871	76.12
294.086	43.35
294.301	78.16
294.516	86.36
294.73	43.35
294.945	59.73
295.16	33.11
295.374	37.2
295.589	-5.8
295.804	14.68
296.018	24.92
296.233	43.35
296.447	10.58
296.662	43.35
296.877	10.58
297.091	-5.8
297.306	41.3
297.52	8.53
297.735	-13.99
297.949	20.82
298.164	51.54
298.378	-1.71
298.593	65.88
298.807	14.68
299.022	76.12
299.236	-18.09
299.451	35.16
299.665	76.12
299.88	2.39
300.094	-18.09
300.309	10.58
300.523	24.92
300.737	65.88
300.952	49.49
301.166	39.25
301.381	-18.09
301.595	123.22
301.809	39.25
302.024	35.16
302.238	16.73
302.452	49.49
302.667	-54.95
302.881	47.44
303.095	-1.71
303.309	-16.04
303.524	26.96
303.738	29.01
303.952	90.45
304.166	78.16
304.381	20.82
304.595	20.82
304.809	-54.95
305.023	-50.86
305.237	6.49
305.452	-18.09
305.666	-22.19
305.88	59.73
306.094	69.97
306.308	63.83
306.522	-22.19
306.736	22.87
306.95	22.87
307.164	45.4
307.379	33.11
307.593	10.58
307.807	-20.14
308.021	45.4
308.235	35.16
308.449	22.87
308.663	45.4
308.877	43.35
309.091	49.49
309.305	35.16
309.519	-7.85
309.733	67.92
309.947	51.54
310.161	49.49
310.374	78.16
310.588	16.73
310.802	-1.71
311.016	0.34
311.23	4.44
311.444	37.2
311.658	16.73
311.872	26.96
312.085	45.4
312.299	55.64
312.513	76.12
312.727	43.35
312.941	-69.29
313.154	43.35
313.368	-11.95
313.582	53.59
313.796	59.73
314.009	45.4
314.223	45.4
314.437	51.54
314.651	67.92
314.864	59.73
315.078	-18.09
315.292	53.59
315.505	8.53
315.719	90.45
315.933	12.63
316.146	18.77
316.36	-7.85
316.573	61.78
316.787	76.12
317.001	51.54
317.214	29.01
317.428	45.4
317.641	67.92
317.855	29.01
318.068	4.44
318.282	-38.57
318.495	14.68
318.709	10.58
318.922	47.44
319.136	-11.95
319.349	37.2
319.563	39.25
319.776	43.35
319.99	29.01
320.203	59.73
320.417	57.68
320.63	86.36
320.843	74.07
321.057	45.4
321.27	-13.99
321.483	57.68
321.697	37.2
321.91	53.59
322.124	59.73
322.337	80.21
322.55	98.64
322.763	12.63
322.977	-1.71
323.19	4.44
323.403	39.25
323.617	51.54
323.83	53.59
324.043	39.25
324.256	41.3
324.469	18.77
324.683	51.54
324.896	26.96
325.109	-18.09
325.322	57.68
325.535	61.78
325.748	12.63
325.962	55.64
326.175	22.87
326.388	65.88
326.601	51.54
326.814	-24.23
327.027	-42.67
327.24	174.42
327.453	67.92
327.666	41.3
327.879	65.88
328.092	63.83
328.305	43.35
328.518	72.02
328.731	6.49
328.944	131.41
329.157	2.39
329.37	61.78
329.583	49.49
329.796	137.56
330.009	-1.71
330.222	-5.8
330.435	0.34
330.648	-44.71
330.861	20.82
331.073	84.31
331.286	90.45
331.499	41.3
331.712	18.77
331.925	53.59
332.138	31.06
332.35	6.49
332.563	-20.14
332.776	45.4
332.989	-63.15
333.202	51.54
333.414	2.39
333.627	82.26
333.84	31.06
334.053	-69.29
334.265	76.12
334.478	41.3
334.691	53.59
334.903	47.44
335.116	92.5
335.329	-1.71
335.541	164.18
335.754	43.35
335.966	18.77
336.179	129.36
336.392	84.31
336.604	16.73
336.817	22.87
337.029	-1.71
337.242	57.68
337.454	45.4
337.667	29.01
337.88	24.92
338.092	-1.71
338.305	35.16
338.517	-42.67
338.729	69.97
338.942	12.63
339.154	2.39
339.367	-11.95
339.579	108.88
339.792	-5.8
340.004	10.58
340.217	45.4
340.429	18.77
340.641	2.39
340.854	18.77
341.066	24.92
341.278	72.02
341.491	47.44
341.703	47.44
341.915	-52.91
342.128	-5.8
342.34	-28.33
342.552	84.31
342.764	10.58
342.977	-18.09
343.189	16.73
343.401	51.54
343.613	16.73
343.826	74.07
344.038	18.77
344.25	0.34
344.462	51.54
344.674	0.34
344.886	41.3
345.099	72.02
345.311	-5.8
345.523	22.87
345.735	39.25
345.947	100.69
346.159	41.3
346.371	78.16
346.583	26.96
346.795	57.68
347.007	2.39
347.219	53.59
347.431	123.22
347.643	47.44
347.855	8.53
348.067	63.83
348.279	-5.8
348.491	29.01
348.703	37.2
348.915	35.16
349.127	51.54
349.339	14.68
349.551	104.79
349.763	33.11
349.975	22.87
350.187	-32.43
350.399	43.35
350.61	-5.8
350.822	67.92
351.034	35.16
351.246	4.44
351.458	49.49
351.669	59.73
351.881	53.59
352.093	47.44
352.305	78.16
352.517	59.73
352.728	-42.67
352.94	57.68
353.152	43.35
353.363	-7.85
353.575	100.69
353.787	86.36
353.999	76.12
354.21	45.4
354.422	61.78
354.633	-3.75
354.845	41.3
355.057	39.25
355.268	0.34
355.48	-16.04
355.692	8.53
355.903	39.25
356.115	49.49
356.326	10.58
356.538	-3.75
356.749	24.92
356.961	55.64
357.172	18.77
357.384	57.68
357.595	86.36
357.807	80.21
358.018	29.01
358.23	119.12
358.441	35.16
358.653	41.3
358.864	63.83
359.075	69.97
359.287	39.25
359.498	100.69
359.709	53.59
359.921	12.63
360.132	39.25
360.344	78.16
360.555	45.4
360.766	86.36
360.977	-11.95
361.189	47.44
361.4	35.16
361.611	104.79
361.823	78.16
362.034	59.73
362.245	6.49
362.456	88.4
362.667	47.44
362.879	108.88
363.09	16.73
363.301	129.36
363.512	37.2
363.723	37.2
363.935	78.16
364.146	65.88
364.357	139.6
364.568	45.4
364.779	-22.19
364.99	69.97
365.201	43.35
365.412	119.12
365.623	29.01
365.834	-48.81
366.045	-7.85
366.256	-30.38
366.467	51.54
366.678	49.49
366.889	8.53
367.1	43.35
367.311	33.11
367.522	-11.95
367.733	57.68
367.944	72.02
368.155	45.4
368.366	37.2
368.577	76.12
368.788	102.74
368.999	37.2
369.209	43.35
369.42	55.64
369.631	127.32
369.842	2.39
370.053	29.01
370.264	33.11
370.474	69.97
370.685	61.78
370.896	2.39
371.107	80.21
371.317	47.44
371.528	94.55
371.739	26.96
371.95	33.11
372.16	43.35
372.371	108.88
372.582	26.96
372.792	2.39
373.003	53.59
373.214	53.59
373.424	100.69
373.635	65.88
373.846	29.01
374.056	8.53
374.267	98.64
374.477	29.01
374.688	65.88
374.898	80.21
375.109	82.26
375.319	121.17
375.53	67.92
375.74	115.03
375.951	86.36
376.161	14.68
376.372	74.07
376.582	-1.71
376.793	-32.43
377.003	16.73
377.214	6.49
377.424	22.87
377.635	51.54
377.845	43.35
378.055	182.61
378.266	-18.09
378.476	18.77
378.686	24.92
378.897	18.77
379.107	59.73
379.317	33.11
379.528	108.88
379.738	94.55
379.948	-24.23
380.158	26.96
380.369	-9.9
380.579	106.84
380.789	-1.71
380.999	61.78
381.21	55.64
381.42	63.83
381.63	67.92
381.84	26.96
382.05	88.4
382.261	84.31
382.471	82.26
382.681	31.06
382.891	92.5
383.101	18.77
383.311	104.79
383.521	-9.9
383.731	115.03
383.941	59.73
384.151	43.35
384.361	20.82
384.571	94.55
384.781	45.4
384.991	61.78
385.201	33.11
385.411	39.25
385.621	29.01
385.831	59.73
386.041	18.77
386.251	-1.71
386.461	59.73
386.671	24.92
386.881	24.92
387.091	37.2
387.301	39.25
387.511	-3.75
387.72	37.2
387.93	26.96
388.14	94.55
388.35	86.36
388.56	80.21
388.769	53.59
388.979	76.12
389.189	18.77
389.399	33.11
389.609	88.4
389.818	-1.71
390.028	41.3
390.238	110.93
390.447	86.36
390.657	78.16
390.867	6.49
391.076	16.73
391.286	39.25
391.496	-7.85
391.705	16.73
391.915	94.55
392.125	121.17
392.334	80.21
392.544	84.31
392.753	104.79
392.963	49.49
393.172	86.36
393.382	8.53
393.591	37.2
393.801	8.53
394.01	39.25
394.22	67.92
394.429	33.11
394.639	-1.71
394.848	43.35
395.058	115.03
395.267	-30.38
395.477	94.55
395.686	57.68
395.895	108.88
396.105	43.35
396.314	100.69
396.524	26.96
396.733	37.2
396.942	67.92
397.152	59.73
397.361	108.88
397.57	125.27
397.78	31.06
397.989	26.96
398.198	133.46
398.407	96.6
398.617	76.12
398.826	51.54
399.035	133.46
399.244	51.54
399.453	67.92
399.663	61.78
399.872	63.83
400.081	41.3
400.29	37.2
400.499	35.16
400.708	108.88
400.917	31.06
401.127	92.5
401.336	39.25
401.545	135.51
401.754	49.49
401.963	18.77
402.172	112.98
402.381	92.5
402.59	49.49
402.799	100.69
403.008	92.5
403.217	76.12
403.426	86.36
403.635	90.45
403.844	78.16
404.053	22.87
404.262	72.02
404.471	106.84
404.68	63.83
404.888	43.35
405.097	57.68
405.306	63.83
405.515	102.74
405.724	20.82
405.933	141.65
406.142	155.99
406.35	139.6
406.559	63.83
406.768	51.54
406.977	106.84
407.185	110.93
407.394	174.42
407.603	88.4
407.812	137.56
408.02	61.78
408.229	104.79
408.438	143.7
408.646	170.32
408.855	211.28
409.064	141.65
409.272	215.38
409.481	133.46
409.69	102.74
409.898	164.18
410.107	149.84
410.315	184.66
410.524	168.27
410.733	201.04
410.941	196.95
411.15	178.51
411.358	264.53
411.567	168.27
411.775	203.09
411.984	192.85
412.192	160.08
412.401	309.58
412.609	272.72
412.818	268.63
413.026	282.96
413.234	260.43
413.443	217.43
413.651	262.48
413.86	297.3
414.068	289.1
414.276	246.1
414.485	438.61
414.693	356.69
414.901	315.73
415.11	483.66
415.318	342.35
415.526	354.64
415.734	405.84
415.943	463.18
416.151	487.76
416.359	420.17
416.567	428.37
416.776	387.41
416.984	543.05
417.192	584.01
417.4	534.86
417.608	489.81
417.817	526.67
418.025	627.02
418.233	610.64
418.441	569.68
418.649	622.92
418.857	551.24
419.065	684.36
419.273	678.22
419.481	684.36
419.689	827.72
419.897	878.92
420.105	829.77
420.313	817.48
420.521	782.67
420.729	815.43
420.937	860.49
421.145	862.54
421.353	913.74
421.561	942.41
421.769	952.65
421.977	1077.57
422.185	1091.91
422.393	1063.24
422.601	1118.53
422.809	1182.02
423.017	1249.6
423.224	1313.09
423.432	1218.88
423.64	1253.7
423.848	1388.86
424.056	1378.62
424.263	1501.5
424.471	1548.61
424.679	1431.87
424.887	1665.34
425.094	1491.26
425.302	1706.3
425.51	1642.81
425.718	1718.59
425.925	1734.97
426.133	1773.88
426.341	1933.62
426.548	1947.96
426.756	2007.35
426.964	2009.4
427.171	2142.52
427.379	2169.14
427.586	2203.96
427.794	2269.49
428.001	2382.13
428.209	2498.86
428.417	2548.01
428.624	2636.08
428.832	2558.25
429.039	2687.28
429.247	2593.07
429.454	2930.98
429.662	3121.45
429.869	2943.27
430.076	3123.49
430.284	2900.27
430.491	3127.59
430.699	3381.54
430.906	3266.85
431.114	3309.86
431.321	3545.38
431.528	3494.18
431.736	3662.11
431.943	3899.67
432.15	3823.9
432.358	3862.81
432.565	4067.61
432.772	4043.03
432.979	4155.67
433.187	4292.88
433.394	4303.12
433.601	4620.56
433.808	4630.8
434.016	4667.66
434.223	4763.92
434.43	4999.43
434.637	4958.47
434.844	5327.11
435.052	5497.09
435.259	5318.92
435.466	5468.42
435.673	5562.62
435.88	5773.57
436.087	5972.22
436.294	6105.34
436.501	5802.24
436.708	6070.52
436.915	6222.07
437.122	6629.62
437.329	6539.51
437.537	6881.52
437.743	6934.76
437.95	6801.65
438.157	7225.58
438.364	7432.42
438.571	7264.49
438.778	7366.88
438.985	8018.14
439.192	7612.64
439.399	8155.35
439.606	7796.96
439.813	8333.53
440.02	8777.94
440.227	8673.49
440.433	8589.52
440.64	8734.93
440.847	8915.15
441.054	9029.84
441.261	9750.72
441.467	9433.29
441.674	9945.28
441.881	9971.9
442.088	10283.19
442.294	10076.35
442.501	10334.39
442.708	10508.47
442.914	10903.73
443.121	11319.46
443.328	11118.76
443.534	11665.57
443.741	11413.67
443.948	11327.66
444.154	12413.08
444.361	12075.17
444.568	12157.08
444.774	12181.66
444.981	12257.43
445.187	12853.39
445.394	13324.43
445.6	12998.8
445.807	14278.78
446.013	13975.68
446.22	14051.45
446.426	14508.15
446.633	14858.35
446.839	15282.28
447.046	14649.46
447.252	15427.69
447.459	15315.05
447.665	15356.01
447.871	15911.01
448.078	16640.09
448.284	15898.72
448.491	16470.11
448.697	17023.06
448.903	17051.73
449.11	17281.1
449.316	17037.39
449.522	17352.78
449.728	17817.67
449.935	17897.54
450.141	18024.51
450.347	18597.95
450.553	17975.36
450.76	18083.91
450.966	18673.72
451.172	18483.26
451.378	19392.56
451.584	18645.05
451.791	19075.12
451.997	19202.1
452.203	19146.8
452.409	19445.8
452.615	19206.19
452.821	18604.09
453.027	18360.38
453.233	19396.65
453.44	18634.81
453.646	18729.02
453.852	19105.84
454.058	19181.62
454.264	18778.17
454.47	18806.84
454.676	18614.33
454.882	19132.47
455.088	17606.73
455.294	17754.18
455.5	18333.76
455.705	18157.63
455.911	17631.3
456.117	17084.5
456.323	16859.22
456.529	15911.01
456.735	16777.3
456.941	16396.38
457.147	16099.42
457.352	15659.11
457.558	15374.44
457.764	15382.63
457.97	14913.65
458.176	14522.49
458.381	14772.34
458.587	14153.85
458.793	14098.56
458.999	13553.8
459.204	14151.81
459.41	14059.65
459.616	12980.37
459.821	13230.22
460.027	12992.66
460.233	12671.12
460.438	12249.24
460.644	12157.08
460.85	11653.28
461.055	11505.83
461.261	11274.41
461.466	10502.33
461.672	10322.1
461.878	11057.32
462.083	10348.73
462.289	10193.08
462.494	10193.08
462.7	9537.73
462.905	9453.77
463.111	9547.97
463.316	9613.51
463.522	9515.2
463.727	9416.9
463.932	9396.42
464.138	9468.1
464.343	9334.98
464.549	9056.46
464.754	9480.39
464.959	9152.71
465.165	9447.62
465.37	8831.18
465.575	8741.07
465.781	9269.45
465.986	9238.73
466.191	8786.13
466.397	8718.54
466.602	8265.94
466.807	8544.47
467.012	8523.99
467.218	8638.67
467.423	8472.79
467.628	8319.19
467.833	8825.04
468.038	8349.91
468.244	8300.76
468.449	8599.76
468.654	8341.72
468.859	8212.7
469.064	8270.04
469.269	8126.68
469.474	8042.71
469.679	7891.16
469.885	8069.34
470.09	7907.55
470.295	7981.28
470.5	7659.74
470.705	7794.91
470.91	7639.26
471.115	7528.67
471.32	7721.18
471.525	7520.48
471.73	7467.24
471.935	7422.18
472.139	6955.24
472.344	7235.81
472.549	7352.55
472.754	7287.01
472.959	6963.44
473.164	6877.42
473.369	6795.5
473.574	6932.72
473.778	6877.42
473.983	6936.81
474.188	6912.24
474.393	6617.33
474.598	6602.99
474.802	6443.25
475.007	6287.61
475.212	6701.3
475.417	6242.55
475.621	6181.11
475.826	6201.59
476.031	6134.01
476.235	5927.16
476.44	6007.03
476.645	5982.46
476.849	5976.31
477.054	5787.9
477.259	5787.9
477.463	5849.34
477.668	5619.97
477.872	5558.53
478.077	5660.93
478.282	5486.85
478.486	5564.67
478.691	5449.99
478.895	5372.16
479.1	5259.53
479.304	5466.37
479.509	5271.81
479.713	5171.46
479.918	5337.35
480.122	5222.66
480.326	5114.12
480.531	5286.15
480.735	5093.64
480.94	5196.04
481.144	5257.48
481.348	5112.07
481.553	5132.55
481.757	4948.23
481.961	5089.54
482.166	5071.11
482.37	5136.65
482.574	5032.2
482.778	4944.14
482.983	5140.74
483.187	4978.95
483.391	5015.82
483.595	4894.99
483.8	4935.95
484.004	4972.81
484.208	5093.64
484.412	4966.67
484.616	5122.31
484.821	4991.24
485.025	5081.35
485.229	4950.28
485.433	4964.62
485.637	4972.81
485.841	4974.86
486.045	4933.9
486.249	4991.24
486.453	4983.05
486.657	4958.47
486.861	5081.35
487.065	4919.56
487.269	4995.34
487.473	4970.76
487.677	4968.71
487.881	5142.79
488.085	5126.41
488.289	5087.5
488.493	4944.14
488.697	5093.64
488.901	5089.54
489.105	5095.69
489.309	5034.25
489.512	5056.78
489.716	5112.07
489.92	5277.96
490.124	5107.98
490.328	5212.42
490.531	5181.7
490.735	5402.88
490.939	5036.3
491.143	5179.65
491.346	5273.86
491.55	5390.6
491.754	5089.54
491.958	5411.07
492.161	5220.61
492.365	5310.72
492.569	5361.92
492.772	5464.32
492.976	5468.42
493.18	5464.32
493.383	5546.24
493.587	5583.1
493.79	5746.94
493.994	5748.99
494.197	5648.64
494.401	5851.39
494.605	5613.82
494.808	5902.59
495.012	6015.23
495.215	5980.41
495.419	5843.2
495.622	5966.07
495.825	5978.36
496.029	6009.08
496.232	6256.89
496.436	6168.82
496.639	6314.23
496.843	6293.75
497.046	6480.11
497.249	6428.92
497.453	6430.96
497.656	6555.89
497.859	6615.28
498.063	6748.4
498.266	7024.87
498.469	6805.74
498.673	7045.35
498.876	7098.6
499.079	7209.19
499.282	7278.82
499.485	7442.66
499.689	7321.83
499.892	7538.91
500.095	7710.94
500.298	7899.36
500.501	7688.42
500.705	8102.11
500.908	7977.18
501.111	8065.24
501.314	8243.42
501.517	8448.21
501.72	8349.91
501.923	8388.82
502.126	8659.15
502.329	8779.98
502.532	8845.52
502.735	9023.69
502.938	9279.69
503.141	9337.03
503.344	9406.66
503.547	9433.29
503.75	9558.21
503.953	9752.77
504.156	10070.2
504.359	9857.21
504.562	10012.86
504.765	10350.78
504.968	10471.61
505.17	10514.61
505.373	10635.44
505.576	10672.31
505.779	10766.51
505.982	10983.6
506.185	11204.78
506.387	11421.86
506.59	11495.59
506.793	11602.08
506.996	11585.7
507.198	12155.04
507.401	11817.12
507.604	12138.65
507.807	12581.01
508.009	12308.63
508.212	12566.68
508.415	12740.75
508.617	13133.96
508.82	13179.02
509.022	13052.05
509.225	13410.44
509.428	13607.05
509.63	13779.08
509.833	14076.03
510.035	14205.05
510.238	14313.59
510.44	14563.45
510.643	14532.73
510.845	14803.06
511.048	14837.87
511.25	15097.97
511.453	15192.17
511.655	15833.19
511.858	15616.1
512.06	15833.19
512.262	16121.95
512.465	16152.67
512.667	16433.24
512.87	16595.03
513.072	16642.14
513.274	17033.3
513.477	17369.16
513.679	17567.82
513.881	17793.09
514.084	17778.76
514.286	17737.8
514.488	18153.54
514.69	18460.73
514.893	18794.55
515.095	18868.28
515.297	18931.76
515.499	19128.37
515.701	19310.64
515.904	19818.53
516.106	19845.16
516.308	19753
516.51	20238.37
516.712	20197.41
516.914	20676.63
517.116	20711.45
517.318	21055.51
517.52	21260.3
517.722	21284.88
517.925	21688.33
518.127	22075.4
518.329	22136.84
518.531	22028.29
518.733	22783.99
518.935	22878.2
519.136	22861.82
519.338	23039.99
519.54	23250.93
519.742	23654.38
519.944	23566.32
520.146	23934.95
520.348	24256.48
520.55	24528.86
520.752	24147.94
520.954	24879.07
521.155	24680.41
521.357	25368.53
521.559	25464.78
521.761	25774.03
521.963	26099.66
522.164	25827.28
522.366	26136.52
522.568	26537.92
522.77	26517.44
522.971	26802.11
523.173	26781.63
523.375	27408.31
523.576	26920.89
523.778	27242.42
523.98	27479.99
524.181	27742.13
524.383	28194.73
524.584	28164.01
524.786	28506.02
524.988	28272.55
525.189	28542.88
525.391	28833.69
525.592	28848.03
525.794	28886.94
525.995	29431.7
526.197	29448.08
526.398	29161.37
526.6	29341.59
526.801	29575.06
527.003	29898.64
527.204	29699.98
527.406	30097.29
527.607	30427.01
527.808	30476.16
528.01	30164.87
528.211	30343.05
528.412	31012.73
528.614	30834.56
528.815	30805.89
529.016	31195
529.218	30836.61
529.419	31221.62
529.62	31188.86
529.822	31289.21
530.023	31393.65
530.224	31502.2
530.425	31358.84
530.626	31313.78
530.828	31600.5
531.029	31989.61
531.23	31541.11
531.431	32161.64
531.632	31782.77
531.833	31928.17
532.035	31860.59
532.236	31960.94
532.437	32298.86
532.638	32315.24
532.839	32294.76
533.04	32325.48
533.241	31907.69
533.442	32735.07
533.643	32049
533.844	32241.51
534.045	32700.26
534.246	32343.91
534.447	32558.95
534.648	32538.47
534.849	32839.52
535.05	32456.55
535.251	32644.96
535.451	32819.04
535.652	33058.65
535.853	32644.96
536.054	33179.48
536.255	33306.46
536.456	32716.64
536.657	33288.03
536.857	33001.31
537.058	32933.73
537.259	33191.77
537.46	33236.83
537.66	33124.19
537.861	33025.89
538.062	32567.14
538.263	33480.53
538.463	32939.87
538.664	33331.03
538.865	33404.76
539.065	33503.06
539.266	33111.9
539.466	33636.18
539.667	32843.62
539.868	33474.39
540.068	33326.94
540.269	33257.31
540.469	33402.71
540.67	33171.29
540.87	33417.05
541.071	33382.23
541.271	33869.65
541.472	33486.68
541.672	33107.8
541.873	33308.51
542.073	32984.93
542.274	33550.17
542.474	33435.48
542.675	33509.21
542.875	33650.52
543.075	33576.79
543.276	32958.3
543.476	33580.88
543.676	33539.93
543.877	33513.3
544.077	33582.93
544.277	33646.42
544.478	33533.78
544.678	34111.31
544.878	33357.66
545.078	33584.98
545.279	33328.98
545.479	33818.45
545.679	33732.43
545.879	33681.24
546.079	33472.34
546.28	33582.93
546.48	33349.46
546.68	33617.75
546.88	33619.8
547.08	34017.1
547.28	33873.74
547.48	33322.84
547.68	33863.5
547.88	33591.12
548.081	33759.06
548.281	33591.12
548.481	33736.53
548.681	34070.35
548.881	33654.61
549.081	33781.59
549.28	33410.9
549.48	33683.28
549.68	33587.03
549.88	33566.55
550.08	33470.29
550.28	33898.32
550.48	33144.67
550.68	33918.8
550.88	33671
551.08	33945.42
551.279	33697.62
551.479	33386.33
551.679	33447.77
551.879	33625.94
552.079	33658.71
552.278	33357.66
552.478	33726.29
552.678	33523.54
552.878	33941.33
553.077	33935.18
553.277	33335.13
553.477	34105.16
553.676	33617.75
553.876	33703.76
554.076	33621.84
554.275	33339.22
554.475	33324.89
554.674	33599.32
554.874	33724.24
555.074	33273.69
555.273	33560.41
555.473	33539.93
555.672	33087.32
555.872	33840.98
556.071	33550.17
556.271	33595.22
556.47	33351.51
556.67	33439.58
556.869	33345.37
557.068	33179.48
557.268	33339.22
557.467	33519.45
557.667	32966.49
557.866	33242.97
558.065	33128.28
558.265	33181.53
558.464	33064.8
558.663	33668.95
558.863	32933.73
559.062	33314.65
559.261	33128.28
559.461	33388.38
559.66	32792.42
559.859	33034.08
560.058	32913.25
560.258	32925.53
560.457	32954.21
560.656	33288.03
560.855	32986.97
561.054	33050.46
561.253	32782.18
561.453	32931.68
561.652	33058.65
561.851	32966.49
562.05	32868.19
562.249	32765.79
562.448	32798.56
562.647	32931.68
562.846	32458.6
563.045	32921.44
563.244	32730.98
563.443	33142.62
563.642	32276.33
563.841	32931.68
564.04	32503.65
564.239	32634.72
564.438	32321.38
564.637	32663.39
564.836	32501.61
565.035	32374.63
565.234	32350.06
565.432	32327.53
565.631	32477.03
565.83	32728.93
566.029	32221.03
566.228	32149.35
566.427	31995.76
566.625	31909.74
566.824	31561.59
567.023	32063.34
567.222	31569.78
567.42	32288.62
567.619	32040.81
567.818	32171.88
568.016	31776.62
568.215	32194.41
568.414	32042.86
568.612	32030.57
568.811	31950.7
569.01	31713.14
569.208	31502.2
569.407	31641.46
569.605	31129.47
569.804	31596.4
570.002	31250.3
570.201	31160.19
570.4	30967.68
570.598	31434.61
570.797	31227.77
570.995	31274.87
571.193	30637.95
571.392	31057.79
571.59	30769.02
571.789	30885.76
571.987	30758.78
572.186	30685.06
572.384	30238.6
572.582	30812.03
572.781	30644.1
572.979	30328.71
573.177	30355.33
573.376	30685.06
573.574	30408.58
573.772	30361.48
573.971	30183.3
574.169	30123.91
574.367	30113.67
574.565	29951.88
574.763	29906.83
574.962	29884.3
575.16	29728.66
575.358	29894.54
575.556	29616.02
575.754	29822.86
575.952	29413.27
576.151	29611.92
576.349	29259.67
576.547	29464.47
576.745	29421.46
576.943	29484.95
577.141	28985.24
577.339	29317.01
577.537	29132.7
577.735	29183.9
577.933	28690.34
578.131	29132.7
578.329	28729.25
578.527	28708.77
578.725	28458.92
578.923	28872.6
579.121	28417.96
579.319	28641.18
579.516	28698.53
579.714	28415.91
579.912	28606.37
580.11	28497.83
580.308	28385.19
580.506	28379.04
580.704	27877.29
580.901	28088.23
581.099	28340.13
581.297	27813.8
581.495	27850.67
581.692	27789.23
581.89	27566
582.088	27854.76
582.285	27508.66
582.483	27664.3
582.681	27619.25
582.878	27844.52
583.076	27111.35
583.274	27836.33
583.471	27029.43
583.669	27277.24
583.866	26986.43
584.064	27277.24
584.262	26849.21
584.459	27144.12
584.657	26779.58
584.854	26859.45
585.052	26322.88
585.249	26576.83
585.447	27043.77
585.644	26257.35
585.841	26482.63
586.039	26714.05
586.236	26161.09
586.434	26197.96
586.631	25903.05
586.828	25993.16
587.026	26138.57
587.223	25880.52
587.42	25901
587.618	25757.64
587.815	25477.07
588.012	25823.18
588.21	25681.87
588.407	25563.09
588.604	25419.73
588.801	25274.32
588.999	25409.49
589.196	25204.69
589.393	25524.18
589.59	25034.71
589.787	25133.01
589.984	24877.02
590.182	25012.18
590.379	24989.66
590.576	24676.32
590.773	24950.74
590.97	24682.46
591.167	24897.5
591.364	24201.19
591.561	24614.88
591.758	24283.11
591.955	24459.23
592.152	24373.22
592.349	24180.71
592.546	24084.45
592.743	24156.13
592.94	23599.09
593.137	23980.01
593.334	24193
593.531	23455.73
593.727	23695.34
593.924	23513.07
594.121	23650.28
594.318	23748.59
594.515	23259.12
594.712	23488.49
594.908	23187.44
595.105	23588.85
595.302	22996.98
595.499	22872.06
595.696	22970.36
595.892	22960.12
596.089	23007.22
596.286	23046.13
596.482	22855.67
596.679	22652.92
596.876	22921.21
597.072	22378.5
597.269	22820.86
597.466	22493.18
597.662	22282.24
597.859	22235.14
598.055	22484.99
598.252	22145.03
598.448	21970.95
598.645	21995.53
598.841	21735.43
599.038	22173.7
599.234	21866.5
599.431	21731.34
599.627	21534.73
599.824	21645.32
600.02	21360.66
600.217	21530.64
600.413	21651.47
600.609	21186.58
600.806	21252.11
601.002	21227.54
601.198	20989.97
601.395	20854.81
601.591	21010.45
601.787	20768.79
601.984	20807.7
602.18	21131.28
602.376	20791.32
602.572	20746.26
602.769	20596.76
602.965	20518.94
603.161	20727.83
603.357	20400.16
603.553	20383.77
603.75	20183.07
603.946	20289.57
604.142	20189.22
604.338	19986.47
604.534	20166.69
604.73	19654.7
604.926	20015.14
605.122	20000.8
605.318	19716.14
605.514	19730.47
605.71	19730.47
605.906	19976.23
606.102	19691.56
606.298	19709.99
606.494	19503.15
606.69	19492.91
606.886	19460.14
607.082	19130.42
607.278	19367.98
607.474	18749.5
607.67	19417.13
607.866	19025.97
608.062	19277.87
608.257	18812.98
608.453	18829.37
608.649	19128.37
608.845	18909.24
609.041	18720.82
609.236	18620.47
609.432	18780.21
609.628	18354.24
609.824	18710.58
610.019	18841.65
610.215	18233.41
610.411	18499.64
610.606	18366.53
610.802	18505.79
610.998	18397.24
611.193	18466.88
611.389	18186.3
611.584	18098.24
611.78	18145.34
611.976	18327.61
612.171	18362.43
612.367	18260.03
612.562	17971.27
612.758	17901.64
612.953	18024.51
613.149	18075.71
613.344	17758.28
613.539	18243.65
613.735	18061.38
613.93	17803.33
614.126	17537.1
614.321	18212.93
614.517	17637.45
614.712	17727.56
614.907	17588.3
615.103	17823.81
615.298	17444.94
615.493	17848.39
615.688	17248.33
615.884	17698.89
616.079	17541.19
616.274	17426.51
616.47	17268.81
616.665	17580.11
616.86	17059.92
617.055	17291.34
617.25	16889.94
617.445	17258.57
617.641	17096.78
617.836	17174.61
618.031	16898.13
618.226	16939.09
618.421	16775.25
618.616	17010.77
618.811	16730.2
619.006	16857.17
619.201	16404.57
619.396	16707.67
619.591	16267.36
619.786	16328.8
619.981	16119.9
620.176	16420.95
620.371	16005.22
620.566	16224.35
620.761	15933.54
620.956	16042.08
621.151	15827.04
621.346	15863.91
621.541	15554.66
621.735	15884.39
621.93	15444.07
622.125	15655.01
622.32	15270
622.515	15564.9
622.709	15259.76
622.904	15057.01
623.099	15235.18
623.294	15083.63
623.488	15024.24
623.683	15044.72
623.878	14688.37
624.072	14927.99
624.267	14760.05
624.462	14608.5
624.656	14420.09
624.851	14598.26
625.046	14538.87
625.24	14397.56
625.435	14145.66
625.629	14280.83
625.824	13895.81
626.018	14295.16
626.213	13531.27
626.407	14096.51
626.602	13957.25
626.796	14008.45
626.991	13734.02
627.185	13555.85
627.38	13232.27
627.574	13545.61
627.768	13422.73
627.963	13084.81
628.157	13267.08
628.352	13228.17
628.546	13068.43
628.74	13326.47
628.935	12923.02
629.129	12939.41
629.323	12775.57
629.517	12693.65
629.712	12642.45
629.906	12705.94
630.1	12527.77
630.294	12617.88
630.489	12499.09
630.683	12693.65
630.877	12392.6
631.071	12134.56
631.265	12138.65
631.459	12144.8
631.653	12030.11
631.848	12150.94
632.042	12046.49
632.236	11950.24
632.43	11845.79
632.624	11976.86
632.818	11663.52
633.012	11856.03
633.206	11610.28
633.4	11722.91
633.594	11552.93
633.788	11485.35
633.982	11491.49
634.176	11339.94
634.369	11245.74
634.563	11147.44
634.757	10934.45
634.951	11260.07
635.145	11120.81
635.339	10956.97
635.533	10848.43
635.726	10920.11
635.92	10772.66
636.114	10780.85
636.308	10758.32
636.501	10758.32
636.695	10619.06
636.889	10262.71
637.083	10514.61
637.276	10240.19
637.47	10451.13
637.664	10260.66
637.857	10305.72
638.051	10102.97
638.244	10098.88
638.438	9857.21
638.632	9961.66
638.825	9824.45
639.019	9865.41
639.212	9898.17
639.406	9578.69
639.599	9586.88
639.793	9648.32
639.986	9271.5
640.18	9429.19
640.373	9527.49
640.567	9144.52
640.76	9300.17
640.954	8974.54
641.147	9230.54
641.34	9185.48
641.534	9095.37
641.727	8974.54
641.92	8788.18
642.114	8800.46
642.307	8741.07
642.5	8579.28
642.694	8501.46
642.887	8423.64
643.08	8495.32
643.273	8452.31
643.467	8444.12
643.66	8249.56
643.853	8065.24
644.046	8235.22
644.239	8112.35
644.432	8128.73
644.626	8020.19
644.819	7788.77
645.012	8042.71
645.205	7786.72
645.398	7860.45
645.591	7805.15
645.784	7489.76
645.977	7604.45
646.17	7612.64
646.363	7416.04
646.556	7393.51
646.749	7512.29
646.942	7497.95
647.135	7141.61
647.328	7284.97
647.521	7207.14
647.714	6897.9
647.907	7082.22
648.099	6918.38
648.292	7035.11
648.485	6947.05
648.678	6867.18
648.871	6893.8
649.064	6717.68
649.256	6721.77
649.449	6797.55
649.642	6627.57
649.835	6529.27
650.027	6611.18
650.22	6410.48
650.413	6312.18
650.605	6510.83
650.798	6549.75
650.991	6281.46
651.183	6162.68
651.376	6273.27
651.568	6033.66
651.761	6166.78
651.954	6213.88
652.146	6105.34
652.339	6045.95
652.531	6099.19
652.724	5976.31
652.916	6000.89
653.109	5875.96
653.301	5740.8
653.494	5896.44
653.686	5775.61
653.879	5937.4
654.071	5753.09
654.263	5650.69
654.456	5865.72
654.648	5771.52
654.84	5597.44
655.033	5540.1
655.225	5640.45
655.417	5433.6
655.61	5550.34
655.802	5505.28
655.994	5433.6
656.186	5404.93
656.379	5206.28
656.571	5486.85
656.763	5343.49
656.955	5257.48
657.148	5343.49
657.34	5208.33
657.532	5036.3
657.724	5189.89
657.916	5019.91
658.108	5011.72
658.3	4995.34
658.492	5093.64
658.684	4911.37
658.876	4983.05
659.068	4929.8
659.26	4886.79
659.452	4925.71
659.644	5003.53
659.836	4800.78
660.028	4851.98
660.22	4751.63
660.412	4688.14
660.604	4733.2
660.796	4602.13
660.988	4749.58
661.18	4563.22
661.372	4458.77
661.563	4669.71
661.755	4462.87
661.947	4499.73
662.139	4632.85
662.331	4598.03
662.522	4444.43
662.714	4376.85
662.906	4292.88
663.097	4174.1
663.289	4299.03
663.481	4391.19
663.673	4239.64
663.864	4260.12
664.056	4180.25
664.247	4221.2
664.439	4206.87
664.631	4106.52
664.822	3895.58
665.014	4075.8
665.205	3979.54
665.397	3928.35
665.588	3860.76
665.78	3944.73
665.971	3907.87
666.163	3948.83
666.354	3791.13
666.546	3746.08
666.737	3746.08
666.929	3762.46
667.12	3764.51
667.311	3717.4
667.503	3670.3
667.694	3619.1
667.885	3610.91
668.077	3674.4
668.268	3649.82
668.459	3580.19
668.651	3629.34
668.842	3645.73
669.033	3596.57
669.224	3451.17
669.416	3660.06
669.607	3555.62
669.798	3533.09
669.989	3569.95
670.18	3365.15
670.371	3309.86
670.563	3508.51
670.754	3426.59
670.945	3477.79
671.136	3275.04
671.327	3483.94
671.518	3234.08
671.709	3242.28
671.9	3336.48
672.091	3277.09
672.282	3352.87
672.473	3234.08
672.664	3232.04
672.855	3229.99
673.046	3176.74
673.237	3180.84
673.428	3150.12
673.619	3166.5
673.809	3146.02
674	3264.8
674.191	3119.4
674.382	3125.54
674.573	3189.03
674.764	3264.8
674.954	3160.36
675.145	3002.66
675.336	3039.53
675.527	3143.97
675.717	2969.9
675.908	3062.05
676.099	3023.14
676.289	2945.32
676.48	3055.91
676.671	2947.37
676.861	3076.39
677.052	2990.38
677.243	2885.93
677.433	2857.26
677.624	2943.27
677.814	2853.16
678.005	2894.12
678.195	2894.12
678.386	2978.09
678.576	2855.21
678.767	2930.98
678.957	3017
679.148	3025.19
679.338	3045.67
679.529	2826.54
679.719	2900.27
679.909	2849.07
680.1	2986.28
680.29	2955.56
680.481	2908.46
680.671	2896.17
680.861	2838.83
681.052	2887.98
681.242	2926.89
681.432	2808.11
681.622	2881.83
681.813	2955.56
682.003	2939.18
682.193	2949.42
682.383	2890.03
682.573	2902.31
682.764	2930.98
682.954	3000.62
683.144	2861.35
683.334	2926.89
683.524	2959.66
683.714	2894.12
683.904	2865.45
684.094	2971.94
684.284	2990.38
684.474	2996.52
684.664	3055.91
684.854	2928.94
685.044	2953.51
685.234	2949.42
685.424	2914.6
685.614	3027.24
685.804	2879.79
685.994	2959.66
686.184	2873.64
686.374	2953.51
686.564	3035.43
686.753	2959.66
686.943	3025.19
687.133	3060.01
687.323	2935.08
687.513	2986.28
687.702	2857.26
687.892	3004.71
688.082	3039.53
688.272	2971.94
688.461	2980.14
688.651	3060.01
688.841	2988.33
689.03	3021.1
689.22	2953.51
689.41	2873.64
689.599	2918.7
689.789	2976.04
689.979	2918.7
690.168	2998.57
690.358	2935.08
690.547	2961.7
690.737	2935.08
690.926	3088.68
691.116	2908.46
691.305	3012.9
691.495	3125.54
691.684	3045.67
691.874	3041.57
692.063	3029.29
692.252	2990.38
692.442	3029.29
692.631	2963.75
692.82	2986.28
693.01	3074.34
693.199	2910.5
693.388	2957.61
693.578	2939.18
693.767	2965.8
693.956	3008.81
694.146	2928.94
694.335	2943.27
694.524	2935.08
694.713	2924.84
694.902	3000.62
695.092	2967.85
695.281	2982.18
695.47	2904.36
695.659	2978.09
695.848	2896.17
696.037	2965.8
696.226	2785.58
696.415	2873.64
696.604	2847.02
696.793	2824.49
696.982	2816.3
697.171	2877.74
697.36	2842.92
697.549	2791.72
697.738	2842.92
697.927	2726.19
698.116	2732.33
698.305	2763.05
698.494	2752.81
698.683	2890.03
698.872	2820.39
699.061	2777.39
699.25	2705.71
699.438	2720.04
699.627	2779.43
699.816	2623.79
700.005	2724.14
700.193	2664.75
700.382	2697.52
700.571	2634.03
700.76	2552.11
700.948	2713.9
701.137	2494.77
701.326	2556.21
701.514	2519.34
701.703	2525.49
701.892	2550.06
702.08	2595.12
702.269	2511.15
702.457	2597.17
702.646	2525.49
702.834	2494.77
703.023	2631.98
703.212	2543.92
703.4	2476.34
703.589	2443.57
703.777	2474.29
703.965	2400.56
704.154	2468.14
704.342	2394.42
704.531	2472.24
704.719	2439.47
704.907	2431.28
705.096	2425.14
705.284	2384.18
705.472	2345.27
705.661	2408.75
705.849	2306.35
706.037	2341.17
706.226	2197.81
706.414	2316.59
706.602	2214.2
706.79	2294.07
706.979	2326.83
707.167	2277.68
707.355	2206
707.543	2298.16
707.731	2226.48
707.919	2146.61
708.107	2304.31
708.296	2294.07
708.484	2199.86
708.672	2169.14
708.86	2201.91
709.048	2216.24
709.236	2197.81
709.424	2087.22
709.612	2132.28
709.8	2195.76
709.988	2103.61
710.176	2087.22
710.364	2038.07
710.551	2103.61
710.739	2126.13
710.927	2152.76
711.115	2027.83
711.303	1978.68
711.491	2042.17
711.679	2056.5
711.866	1980.73
712.054	2029.88
712.242	2068.79
712.43	2023.73
712.617	2060.6
712.805	2025.78
712.993	2005.3
713.181	1843.51
713.368	1911.1
713.556	2027.83
713.744	1950.01
713.931	1947.96
714.119	1855.8
714.306	1993.01
714.494	1931.58
714.682	1810.75
714.869	1894.71
715.057	1829.18
715.244	1831.23
715.432	1902.9
715.619	1861.94
715.807	1757.5
715.994	1788.22
716.182	1814.84
716.369	1823.03
716.556	1786.17
716.744	1694.01
716.931	1702.2
717.119	1749.31
717.306	1753.4
717.493	1804.6
717.681	1757.5
717.868	1786.17
718.055	1579.33
718.242	1732.92
718.43	1694.01
718.617	1603.9
718.804	1548.61
718.991	1573.18
719.179	1626.43
719.366	1648.96
719.553	1567.04
719.74	1679.68
719.927	1620.28
720.114	1468.73
720.301	1630.52
720.488	1636.67
720.676	1507.65
720.863	1562.94
721.05	1567.04
721.237	1550.65
721.424	1487.17
721.611	1489.21
721.798	1542.46
721.985	1456.45
722.172	1562.94
722.358	1493.31
722.545	1435.97
722.732	1540.41
722.919	1511.74
723.106	1405.25
723.293	1446.21
723.48	1509.69
723.667	1528.13
723.853	1429.82
724.04	1472.83
724.227	1403.2
724.414	1458.5
724.6	1411.39
724.787	1468.73
724.974	1470.78
725.161	1352
725.347	1411.39
725.534	1352
725.72	1485.12
725.907	1521.98
726.094	1354.05
726.28	1366.34
726.467	1296.71
726.653	1313.09
726.84	1370.43
727.027	1388.86
727.213	1417.54
727.4	1347.9
727.586	1380.67
727.773	1362.24
727.959	1347.9
728.145	1274.18
728.332	1331.52
728.518	1335.62
728.705	1372.48
728.891	1261.89
729.077	1220.93
729.264	1270.08
729.45	1233.22
729.636	1296.71
729.823	1321.28
730.009	1315.14
730.195	1298.75
730.382	1139.01
730.568	1239.36
730.754	1143.11
730.94	1167.68
731.126	1231.17
731.313	1196.36
731.499	1249.6
731.685	1153.35
731.871	1155.4
732.057	1184.07
732.243	1247.55
732.429	1130.82
732.615	1145.16
732.801	1165.64
732.987	1169.73
733.173	1136.96
733.359	1065.29
733.545	1149.25
733.731	1093.96
733.917	1116.48
734.103	1155.4
734.289	1081.67
734.475	1147.2
734.661	1194.31
734.847	1134.92
735.033	1102.15
735.219	1089.86
735.404	1016.13
735.59	1030.47
735.776	1106.24
735.962	1145.16
736.148	1141.06
736.333	1028.42
736.519	1007.94
736.705	977.22
736.89	1067.33
737.076	1065.29
737.262	934.22
737.447	1112.39
737.633	1120.58
737.819	1030.47
738.004	1007.94
738.19	1003.85
738.375	969.03
738.561	1075.52
738.747	989.51
738.932	911.69
739.118	997.7
739.303	997.7
739.489	944.45
739.674	911.69
739.859	940.36
740.045	964.93
740.23	960.84
740.416	913.74
740.601	864.58
740.786	860.49
740.972	915.78
741.157	889.16
741.342	872.78
741.528	944.45
741.713	960.84
741.898	878.92
742.084	926.02
742.269	844.1
742.454	969.03
742.639	930.12
742.824	858.44
743.01	923.98
743.195	883.02
743.38	903.5
743.565	856.39
743.75	790.86
743.935	905.54
744.12	887.11
744.305	780.62
744.49	815.43
744.675	870.73
744.86	762.19
745.045	854.34
745.23	848.2
745.415	780.62
745.6	782.67
745.785	715.08
745.97	821.58
746.155	823.62
746.34	758.09
746.525	842.06
746.71	788.81
746.895	706.89
747.079	780.62
747.264	764.23
747.449	764.23
747.634	760.14
747.819	721.23
748.003	680.27
748.188	749.9
748.373	756.04
748.557	778.57
748.742	727.37
748.927	739.66
749.111	667.98
749.296	645.45
749.481	741.71
749.665	733.51
749.85	641.36
750.034	657.74
750.219	680.27
750.404	706.89
750.588	700.75
750.773	702.79
750.957	743.75
751.141	690.51
751.326	735.56
751.51	627.02
751.695	706.89
751.879	659.79
752.064	684.36
752.248	651.6
752.432	633.16
752.617	680.27
752.801	674.12
752.985	655.69
753.17	663.88
753.354	645.45
753.538	561.48
753.722	647.5
753.907	618.83
754.091	586.06
754.275	665.93
754.459	547.15
754.643	610.64
754.828	606.54
755.012	651.6
755.196	602.44
755.38	598.35
755.564	602.44
755.748	596.3
755.932	602.44
756.116	624.97
756.3	563.53
756.484	577.87
756.668	487.76
756.852	557.39
757.036	508.24
757.22	508.24
757.404	610.64
757.588	676.17
757.772	506.19
757.956	551.24
758.14	579.92
758.323	532.81
758.507	489.81
758.691	612.68
758.875	524.62
759.059	590.16
759.242	530.77
759.426	452.94
759.61	485.71
759.794	498
759.977	461.13
760.161	577.87
760.345	543.05
760.528	495.95
760.712	495.95
760.895	590.16
761.079	397.65
761.263	434.51
761.446	487.76
761.63	405.84
761.813	502.09
761.997	467.28
762.18	459.09
762.364	424.27
762.547	536.91
762.731	493.9
762.914	444.75
763.098	536.91
763.281	459.09
763.464	487.76
763.648	418.13
763.831	428.37
764.015	395.6
764.198	479.57
764.381	395.6
764.564	389.46
764.748	444.75
764.931	504.14
765.114	450.89
765.297	448.85
765.481	424.27
765.664	420.17
765.847	373.07
766.03	405.84
766.213	450.89
766.397	373.07
766.58	485.71
766.763	463.18
766.946	405.84
767.129	454.99
767.312	444.75
767.495	479.57
767.678	422.22
767.861	399.7
768.044	346.45
768.227	434.51
768.41	463.18
768.593	420.17
768.776	420.17
768.959	438.61
769.142	405.84
769.324	383.31
769.507	461.13
769.69	356.69
769.873	371.02
770.056	397.65
770.239	354.64
770.421	428.37
770.604	405.84
770.787	391.5
770.97	366.93
771.152	393.55
771.335	358.74
771.518	444.75
771.7	313.68
771.883	432.46
772.066	385.36
772.248	397.65
772.431	411.98
772.613	338.26
772.796	350.54
772.978	317.78
773.161	366.93
773.343	452.94
773.526	307.54
773.708	389.46
773.891	391.5
774.073	407.89
774.256	362.83
774.438	401.74
774.621	336.21
774.803	338.26
774.985	377.17
775.168	403.79
775.35	323.92
775.532	401.74
775.715	282.96
775.897	313.68
776.079	434.51
776.261	342.35
776.444	325.97
776.626	328.02
776.808	368.98
776.99	389.46
777.173	350.54
777.355	432.46
777.537	276.82
777.719	289.1
777.901	280.91
778.083	340.3
778.265	305.49
778.447	309.58
778.629	278.87
778.811	295.25
778.993	358.74
779.175	242
779.357	291.15
779.539	319.82
779.721	330.06
779.903	268.63
780.085	297.3
780.267	276.82
780.449	297.3
780.631	289.1
780.812	295.25
780.994	248.15
781.176	217.43
781.358	272.72
781.54	285.01
781.721	237.91
781.903	233.81
782.085	297.3
782.267	203.09
782.448	260.43
782.63	270.67
782.812	225.62
782.993	256.34
783.175	262.48
783.357	303.44
783.538	242
783.72	274.77
783.901	299.34
784.083	264.53
784.264	225.62
784.446	205.14
784.627	215.38
784.809	250.19
784.99	217.43
785.172	266.58
785.353	264.53
785.535	164.18
785.716	219.47
785.897	178.51
786.079	231.76
786.26	239.95
786.441	297.3
786.623	198.99
786.804	188.75
786.985	252.24
787.167	149.84
787.348	256.34
787.529	260.43
787.71	252.24
787.891	170.32
788.073	186.71
788.254	211.28
788.435	190.8
788.616	172.37
788.797	164.18
788.978	168.27
789.159	158.03
789.34	215.38
789.522	211.28
789.703	330.06
789.884	217.43
790.065	141.65
790.246	133.46
790.427	258.39
790.607	143.7
790.788	166.23
790.969	203.09
791.15	186.71
791.331	168.27
791.512	244.05
791.693	133.46
791.874	174.42
792.054	129.36
792.235	160.08
792.416	221.52
792.597	180.56
792.778	219.47
792.958	96.6
793.139	190.8
793.32	205.14
793.5	153.94
793.681	176.47
793.862	129.36
794.042	160.08
794.223	172.37
794.404	153.94
794.584	131.41
794.765	244.05
794.945	141.65
795.126	203.09
795.306	186.71
795.487	121.17
795.667	186.71
795.848	133.46
796.028	219.47
796.209	272.72
796.389	233.81
796.57	121.17
796.75	194.9
796.93	201.04
797.111	164.18
797.291	182.61
797.471	160.08
797.652	123.22
797.832	108.88
798.012	217.43
798.192	205.14
798.373	59.73
798.553	110.93
798.733	160.08
798.913	168.27
799.093	178.51
799.274	119.12
799.454	135.51
799.634	190.8
799.814	196.95
799.994	84.31
800.174	86.36
800.354	125.27
800.534	176.47
800.714	170.32
800.894	127.32
801.074	172.37
801.254	86.36
801.434	106.84
801.614	115.03
801.794	92.5
801.974	350.54
802.154	84.31
802.334	145.75
802.514	88.4
802.693	102.74
802.873	57.68
803.053	137.56
803.233	88.4
803.413	125.27
803.592	112.98
803.772	121.17
803.952	129.36
804.131	57.68
804.311	135.51
804.491	76.12
804.67	78.16
804.85	108.88
805.03	61.78
805.209	203.09
805.389	94.55
805.568	112.98
805.748	59.73
805.928	123.22
806.107	184.66
806.287	86.36
806.466	102.74
806.646	117.08
806.825	131.41
807.004	127.32
807.184	86.36
807.363	115.03
807.543	92.5
807.722	76.12
807.901	108.88
808.081	176.47
808.26	-38.57
808.439	112.98
808.619	127.32
808.798	100.69
808.977	139.6
809.156	115.03
809.336	92.5
809.515	119.12
809.694	67.92
809.873	106.84
810.052	94.55
810.231	115.03
810.411	135.51
810.59	82.26
810.769	90.45
810.948	104.79
811.127	112.98
811.306	166.23
811.485	104.79
811.664	84.31
811.843	133.46
812.022	86.36
812.201	80.21
812.38	-26.28
812.559	88.4
812.737	166.23
812.916	141.65
813.095	10.58
813.274	69.97
813.453	29.01
813.632	31.06
813.811	96.6
813.989	45.4
814.168	110.93
814.347	84.31
814.526	47.44
814.704	76.12
814.883	53.59
815.062	69.97
815.24	78.16
815.419	51.54
815.598	59.73
815.776	31.06
815.955	110.93
816.133	29.01
816.312	108.88
816.49	108.88
816.669	59.73
816.847	98.64
817.026	78.16
817.204	98.64
817.383	74.07
817.561	94.55
817.74	76.12
817.918	110.93
818.097	16.73
818.275	90.45
818.453	61.78
818.632	26.96
818.81	37.2
818.988	4.44
819.167	63.83
819.345	76.12
819.523	207.19
819.701	80.21
819.879	63.83
820.058	43.35
820.236	53.59
820.414	65.88
820.592	108.88
820.77	57.68
820.948	76.12
821.127	82.26
821.305	100.69
821.483	-3.75
821.661	43.35
821.839	123.22
822.017	69.97
822.195	65.88
822.373	96.6
822.551	43.35
822.729	153.94
822.907	0.34
823.085	127.32
823.262	39.25
823.44	112.98
823.618	112.98
823.796	63.83
823.974	98.64
824.152	133.46
824.329	98.64
824.507	22.87
824.685	29.01
824.863	84.31
825.04	43.35
825.218	4.44
825.396	35.16
825.574	125.27
825.751	26.96
825.929	-20.14
826.107	94.55
826.284	100.69
826.462	2.39
826.639	82.26
826.817	14.68
826.994	43.35
827.172	108.88
827.349	170.32
827.527	84.31
827.704	29.01
827.882	24.92
828.059	55.64
828.237	26.96
828.414	61.78
828.591	43.35
828.769	35.16
828.946	78.16
829.124	82.26
829.301	108.88
829.478	22.87
829.655	53.59
829.833	76.12
830.01	90.45
830.187	31.06
830.364	29.01
830.542	149.84
830.719	49.49
830.896	-22.19
831.073	18.77
831.25	53.59
831.427	24.92
831.604	-5.8
831.782	18.77
831.959	84.31
832.136	22.87
832.313	-28.33
832.49	31.06
832.667	72.02
832.844	51.54
833.021	57.68
833.198	33.11
833.374	84.31
833.551	39.25
833.728	51.54
833.905	0.34
834.082	59.73
834.259	53.59
834.436	98.64
834.612	63.83
834.789	63.83
834.966	102.74
835.143	90.45
835.319	22.87
835.496	29.01
835.673	-20.14
835.85	26.96
836.026	65.88
836.203	125.27
836.38	67.92
836.556	57.68
836.733	26.96
836.909	47.44
837.086	-1.71
837.262	45.4
837.439	47.44
837.616	67.92
837.792	49.49
837.968	39.25
838.145	-38.57
838.321	33.11
838.498	16.73
838.674	53.59
838.851	84.31
839.027	67.92
839.203	-30.38
839.38	14.68
839.556	6.49
839.732	59.73
839.909	37.2
840.085	-9.9
840.261	80.21
840.437	90.45
840.614	-7.85
840.79	14.68
840.966	-20.14
841.142	-7.85
841.318	82.26
841.494	59.73
841.671	-22.19
841.847	6.49
842.023	67.92
842.199	35.16
842.375	57.68
842.551	0.34
842.727	4.44
842.903	129.36
843.079	14.68
843.255	10.58
843.431	12.63
843.607	127.32
843.783	-50.86
843.959	78.16
844.134	45.4
844.31	24.92
844.486	55.64
844.662	76.12
844.838	39.25
845.013	29.01
845.189	45.4
845.365	-22.19
845.541	14.68
845.716	51.54
845.892	84.31
846.068	94.55
846.244	-26.28
846.419	59.73
846.595	29.01
846.77	0.34
846.946	76.12
847.122	-28.33
847.297	29.01
847.473	106.84
847.648	10.58
847.824	37.2
847.999	49.49
848.175	39.25
848.35	53.59
848.526	39.25
848.701	12.63
848.876	22.87
849.052	29.01
849.227	65.88
849.403	78.16
849.578	43.35
849.753	-16.04
849.929	65.88
850.104	39.25
850.279	72.02
850.454	-7.85
850.63	61.78
850.805	8.53
850.98	6.49
851.155	-30.38
851.33	18.77
851.505	119.12
851.681	-18.09
851.856	82.26
852.031	2.39
852.206	76.12
852.381	92.5
852.556	-7.85
852.731	2.39
852.906	10.58
853.081	14.68
853.256	76.12
853.431	26.96
853.606	-5.8
853.781	24.92
853.956	12.63
854.131	35.16
854.305	-44.71
854.48	59.73
854.655	12.63
854.83	22.87
855.005	63.83
855.18	2.39
855.354	63.83
855.529	2.39
855.704	-32.43
855.879	61.78
856.053	-32.43
856.228	22.87
856.403	-3.75
856.577	72.02
856.752	92.5
856.926	49.49
857.101	31.06
857.276	53.59
857.45	29.01
857.625	33.11
857.799	-50.86
857.974	2.39
858.148	26.96
858.323	43.35
858.497	39.25
858.672	18.77
858.846	33.11
859.02	88.4
859.195	-46.76
859.369	12.63
859.543	31.06
859.718	86.36
859.892	2.39
860.066	29.01
860.241	33.11
860.415	55.64
860.589	41.3
860.763	-59.05
860.938	-13.99
861.112	61.78
861.286	-48.81
861.46	-1.71
861.634	2.39
861.808	78.16
861.982	29.01
862.157	41.3
862.331	33.11
862.505	35.16
862.679	33.11
862.853	33.11
863.027	16.73
863.201	12.63
863.375	61.78
863.549	-9.9
863.722	39.25
863.896	57.68
864.07	20.82
864.244	18.77
864.418	47.44
864.592	43.35
864.766	31.06
864.939	51.54
865.113	37.2
865.287	61.78
865.461	29.01
865.634	2.39
865.808	92.5
865.982	31.06
866.156	-24.23
866.329	29.01
866.503	49.49
866.676	37.2
866.85	57.68
867.024	35.16
867.197	14.68
867.371	57.68
867.544	18.77
867.718	0.34
867.891	61.78
868.065	61.78
868.238	35.16
868.412	61.78
868.585	100.69
868.759	55.64
868.932	92.5
869.105	39.25
869.279	14.68
869.452	49.49
869.625	92.5
869.799	49.49
869.972	55.64
870.145	39.25
870.319	2.39
870.492	-1.71
870.665	0.34
870.838	-13.99
871.011	24.92
871.185	-1.71
871.358	47.44
871.531	2.39
871.704	-13.99
871.877	24.92
872.05	-22.19
872.223	-7.85
872.396	16.73
872.569	6.49
872.742	-61.1
872.915	31.06
873.088	2.39
873.261	145.75
873.434	35.16
873.607	84.31
873.78	69.97
873.953	0.34
874.126	0.34
874.299	-46.76
874.471	29.01
874.644	6.49
874.817	26.96
874.99	24.92
875.163	61.78
875.335	18.77
875.508	29.01
875.681	43.35
875.853	-7.85
876.026	59.73
876.199	12.63
876.371	65.88
876.544	-48.81
876.717	22.87
876.889	55.64
877.062	45.4
877.234	-13.99
877.407	35.16
877.579	43.35
877.752	22.87
877.924	22.87
878.097	47.44
878.269	35.16
878.442	-24.23
878.614	20.82
878.786	-3.75
878.959	-54.95
879.131	106.84
879.303	14.68
879.476	14.68
879.648	2.39
879.82	37.2
879.993	45.4
880.165	24.92
880.337	-28.33
880.509	6.49
880.681	-42.67
880.854	20.82
881.026	-3.75
881.198	29.01
881.37	-34.47
881.542	61.78
881.714	-7.85
881.886	-42.67
882.058	45.4
882.23	22.87
882.402	14.68
882.574	-24.23
882.746	67.92
882.918	43.35
883.09	-3.75
883.262	2.39
883.434	6.49
883.606	35.16
883.778	33.11
883.95	82.26
884.122	35.16
884.293	37.2
884.465	74.07
884.637	2.39
884.809	18.77
884.98	26.96
885.152	78.16
885.324	98.64
885.496	-38.57
885.667	110.93
885.839	-5.8
886.011	69.97
886.182	65.88
886.354	53.59
886.525	-65.19
886.697	-34.47
886.869	24.92
887.04	45.4
887.212	53.59
887.383	39.25
887.555	-52.91
887.726	-40.62
887.897	-46.76
888.069	-13.99
888.24	43.35
888.412	2.39
888.583	0.34
888.754	45.4
888.926	-30.38
889.097	12.63
889.268	-22.19
889.44	76.12
889.611	-5.8
889.782	2.39
889.953	-11.95
890.125	49.49
890.296	-16.04
890.467	59.73
890.638	72.02
890.809	35.16
890.98	2.39
891.151	74.07
891.323	2.39
891.494	22.87
891.665	35.16
891.836	47.44
892.007	-57
892.178	51.54
892.349	20.82
892.52	18.77
892.691	45.4
892.862	24.92
893.032	-3.75
893.203	-11.95
893.374	2.39
893.545	-9.9
893.716	16.73
893.887	10.58
894.057	45.4
894.228	16.73
894.399	26.96
894.57	55.64
894.74	39.25
894.911	6.49
895.082	94.55
895.253	-28.33
895.423	-42.67
895.594	22.87
895.764	-9.9
895.935	-44.71
896.106	2.39
896.276	-11.95
896.447	-42.67
896.617	67.92
896.788	-73.39
896.958	100.69
897.129	-36.52
897.299	26.96
897.47	-48.81
897.64	16.73
897.81	-20.14
897.981	22.87
898.151	-30.38
898.322	80.21
898.492	41.3
898.662	18.77
898.832	45.4
899.003	-9.9
899.173	88.4
899.343	31.06
899.513	29.01
