Data from USB4F104151__15__12-53-13-889.txt Node

Date: Fri Mar 14 12:53:13 EDT 2025
User: louis
Spectrometer: USB4F10415
Trigger mode: 4
Integration Time (sec): 1.000000E-2
Scans to average: 1
Electric dark correction enabled: true
Nonlinearity correction enabled: false
Boxcar width: 0
XAxis mode: Wavelengths
Number of Pixels in Spectrum: 3648
>>>>>Begin Spectral Data<<<<<
178.204	-16.04
178.424	-16.04
178.644	-16.04
178.864	-20.14
179.084	59.73
179.304	-28.33
179.524	-13.99
179.744	-3.75
179.964	29.01
180.184	39.25
180.404	-54.95
180.624	-59.05
180.844	4.44
181.064	22.87
181.283	29.01
181.503	4.44
181.723	31.06
181.943	-57
182.163	20.82
182.383	61.78
182.602	-54.95
182.822	-18.09
183.042	33.11
183.262	-67.24
183.482	22.87
183.701	22.87
183.921	6.49
184.141	35.16
184.361	49.49
184.58	-1.71
184.8	41.3
185.02	0.34
185.239	10.58
185.459	4.44
185.679	29.01
185.898	-5.8
186.118	35.16
186.338	-3.75
186.557	41.3
186.777	-46.76
186.997	-11.95
187.216	31.06
187.436	-5.8
187.655	33.11
187.875	14.68
188.095	94.55
188.314	82.26
188.534	63.83
188.753	12.63
188.973	-18.09
189.192	-5.8
189.412	0.34
189.631	26.96
189.851	26.96
190.07	-5.8
190.29	41.3
190.509	43.35
190.729	14.68
190.948	29.01
191.168	57.68
191.387	-18.09
191.607	49.49
191.826	51.54
192.045	2.39
192.265	-61.1
192.484	33.11
192.704	-1.71
192.923	-13.99
193.142	35.16
193.362	43.35
193.581	37.2
193.8	31.06
194.02	-22.19
194.239	-34.47
194.458	-34.47
194.678	53.59
194.897	-18.09
195.116	51.54
195.335	18.77
195.555	2.39
195.774	-11.95
195.993	26.96
196.212	12.63
196.432	49.49
196.651	29.01
196.87	-44.71
197.089	4.44
197.308	-22.19
197.528	98.64
197.747	76.12
197.966	14.68
198.185	-22.19
198.404	-42.67
198.623	41.3
198.842	12.63
199.062	37.2
199.281	57.68
199.5	12.63
199.719	-16.04
199.938	65.88
200.157	72.02
200.376	-16.04
200.595	-24.23
200.814	16.73
201.033	-13.99
201.252	2.39
201.471	-61.1
201.69	-13.99
201.909	-11.95
202.128	-24.23
202.347	63.83
202.566	-42.67
202.785	72.02
203.004	18.77
203.223	69.97
203.442	53.59
203.661	-61.1
203.879	-16.04
204.098	14.68
204.317	-5.8
204.536	10.58
204.755	74.07
204.974	24.92
205.193	-44.71
205.411	-3.75
205.63	16.73
205.849	61.78
206.068	-44.71
206.287	-13.99
206.505	12.63
206.724	-16.04
206.943	-46.76
207.162	-24.23
207.381	-67.24
207.599	18.77
207.818	-5.8
208.037	18.77
208.255	10.58
208.474	-16.04
208.693	4.44
208.911	-32.43
209.13	-5.8
209.349	2.39
209.567	-28.33
209.786	10.58
210.005	-22.19
210.223	76.12
210.442	-9.9
210.661	72.02
210.879	-9.9
211.098	37.2
211.316	94.55
211.535	-16.04
211.753	33.11
211.972	-32.43
212.191	37.2
212.409	0.34
212.628	18.77
212.846	43.35
213.065	-1.71
213.283	43.35
213.502	-3.75
213.72	29.01
213.938	-40.62
214.157	33.11
214.375	18.77
214.594	43.35
214.812	24.92
215.031	29.01
215.249	26.96
215.467	31.06
215.686	18.77
215.904	72.02
216.122	8.53
216.341	-16.04
216.559	74.07
216.778	59.73
216.996	55.64
217.214	-5.8
217.432	-20.14
217.651	-40.62
217.869	-24.23
218.087	16.73
218.306	10.58
218.524	-20.14
218.742	-28.33
218.96	14.68
219.179	-20.14
219.397	49.49
219.615	67.92
219.833	6.49
220.051	-18.09
220.27	-24.23
220.488	12.63
220.706	14.68
220.924	8.53
221.142	45.4
221.36	49.49
221.578	20.82
221.796	69.97
222.015	18.77
222.233	-13.99
222.451	53.59
222.669	20.82
222.887	-46.76
223.105	0.34
223.323	37.2
223.541	-16.04
223.759	4.44
223.977	-57
224.195	57.68
224.413	-54.95
224.631	86.36
224.849	24.92
225.067	49.49
225.285	-46.76
225.503	8.53
225.721	-3.75
225.939	24.92
226.157	-1.71
226.375	80.21
226.592	-5.8
226.81	-9.9
227.028	35.16
227.246	65.88
227.464	47.44
227.682	8.53
227.9	22.87
228.117	20.82
228.335	-9.9
228.553	-7.85
228.771	39.25
228.989	92.5
229.206	8.53
229.424	37.2
229.642	-24.23
229.86	31.06
230.077	72.02
230.295	92.5
230.513	90.45
230.731	-9.9
230.948	37.2
231.166	18.77
231.384	29.01
231.601	51.54
231.819	-1.71
232.037	4.44
232.254	33.11
232.472	0.34
232.689	-16.04
232.907	10.58
233.125	-65.19
233.342	22.87
233.56	39.25
233.777	80.21
233.995	-46.76
234.213	108.88
234.43	6.49
234.648	18.77
234.865	43.35
235.083	125.27
235.3	6.49
235.518	76.12
235.735	39.25
235.953	-3.75
236.17	-42.67
236.388	41.3
236.605	22.87
236.822	45.4
237.04	59.73
237.257	41.3
237.475	-30.38
237.692	4.44
237.909	-11.95
238.127	37.2
238.344	-7.85
238.562	43.35
238.779	8.53
238.996	-9.9
239.214	45.4
239.431	49.49
239.648	33.11
239.865	47.44
240.083	49.49
240.3	-32.43
240.517	-36.52
240.735	-28.33
240.952	-26.28
241.169	84.31
241.386	-1.71
241.603	61.78
241.821	10.58
242.038	18.77
242.255	18.77
242.472	20.82
242.689	14.68
242.907	22.87
243.124	4.44
243.341	31.06
243.558	-32.43
243.775	-16.04
243.992	0.34
244.209	88.4
244.426	29.01
244.643	29.01
244.86	24.92
245.078	10.58
245.295	-32.43
245.512	76.12
245.729	24.92
245.946	41.3
246.163	14.68
246.38	57.68
246.597	-34.47
246.814	31.06
247.031	22.87
247.248	-32.43
247.464	-5.8
247.681	33.11
247.898	18.77
248.115	29.01
248.332	-13.99
248.549	106.84
248.766	37.2
248.983	-1.71
249.2	37.2
249.417	18.77
249.633	0.34
249.85	20.82
250.067	-38.57
250.284	47.44
250.501	121.17
250.717	0.34
250.934	-16.04
251.151	0.34
251.368	6.49
251.585	-24.23
251.801	-9.9
252.018	41.3
252.235	-24.23
252.451	-7.85
252.668	45.4
252.885	-44.71
253.102	43.35
253.318	49.49
253.535	-32.43
253.752	31.06
253.968	49.49
254.185	22.87
254.401	-1.71
254.618	24.92
254.835	31.06
255.051	92.5
255.268	47.44
255.484	20.82
255.701	-28.33
255.917	35.16
256.134	-1.71
256.351	31.06
256.567	59.73
256.784	4.44
257	4.44
257.217	37.2
257.433	37.2
257.65	45.4
257.866	67.92
258.082	67.92
258.299	45.4
258.515	65.88
258.732	-36.52
258.948	37.2
259.165	2.39
259.381	-5.8
259.597	84.31
259.814	18.77
260.03	37.2
260.246	53.59
260.463	-1.71
260.679	43.35
260.895	53.59
261.112	10.58
261.328	10.58
261.544	-18.09
261.761	-13.99
261.977	-20.14
262.193	16.73
262.409	26.96
262.626	33.11
262.842	-26.28
263.058	74.07
263.274	-3.75
263.49	-24.23
263.707	-24.23
263.923	45.4
264.139	37.2
264.355	22.87
264.571	33.11
264.787	-50.86
265.004	2.39
265.22	45.4
265.436	-57
265.652	86.36
265.868	24.92
266.084	14.68
266.3	-5.8
266.516	-24.23
266.732	33.11
266.948	-32.43
267.164	24.92
267.38	14.68
267.596	8.53
267.812	59.73
268.028	10.58
268.244	-44.71
268.46	67.92
268.676	22.87
268.892	-30.38
269.108	8.53
269.324	37.2
269.54	-3.75
269.756	49.49
269.972	18.77
270.188	-16.04
270.403	80.21
270.619	16.73
270.835	76.12
271.051	26.96
271.267	35.16
271.483	67.92
271.698	47.44
271.914	61.78
272.13	88.4
272.346	29.01
272.562	14.68
272.777	-30.38
272.993	-73.39
273.209	74.07
273.425	51.54
273.64	51.54
273.856	0.34
274.072	76.12
274.287	51.54
274.503	-13.99
274.719	26.96
274.934	33.11
275.15	53.59
275.366	18.77
275.581	8.53
275.797	104.79
276.012	10.58
276.228	26.96
276.444	6.49
276.659	49.49
276.875	-26.28
277.09	82.26
277.306	-44.71
277.521	0.34
277.737	-36.52
277.952	2.39
278.168	10.58
278.383	16.73
278.599	57.68
278.814	18.77
279.03	-81.58
279.245	26.96
279.461	29.01
279.676	59.73
279.892	-59.05
280.107	35.16
280.322	-44.71
280.538	-5.8
280.753	26.96
280.969	37.2
281.184	37.2
281.399	26.96
281.615	-20.14
281.83	6.49
282.045	26.96
282.26	-36.52
282.476	-44.71
282.691	-13.99
282.906	8.53
283.122	72.02
283.337	26.96
283.552	80.21
283.767	51.54
283.983	39.25
284.198	84.31
284.413	14.68
284.628	-46.76
284.843	26.96
285.058	-28.33
285.274	26.96
285.489	29.01
285.704	-3.75
285.919	57.68
286.134	14.68
286.349	-1.71
286.564	43.35
286.779	57.68
286.995	63.83
287.21	-30.38
287.425	94.55
287.64	-28.33
287.855	72.02
288.07	37.2
288.285	22.87
288.5	-1.71
288.715	67.92
288.93	47.44
289.145	-16.04
289.36	18.77
289.575	39.25
289.79	6.49
290.004	-22.19
290.219	-9.9
290.434	6.49
290.649	-32.43
290.864	53.59
291.079	29.01
291.294	-30.38
291.509	-7.85
291.724	74.07
291.938	-1.71
292.153	35.16
292.368	-46.76
292.583	2.39
292.798	82.26
293.012	-7.85
293.227	29.01
293.442	-1.71
293.657	37.2
293.871	69.97
294.086	-13.99
294.301	14.68
294.516	67.92
294.73	59.73
294.945	-28.33
295.16	47.44
295.374	39.25
295.589	18.77
295.804	-20.14
296.018	-5.8
296.233	39.25
296.447	108.88
296.662	43.35
296.877	43.35
297.091	18.77
297.306	106.84
297.52	18.77
297.735	16.73
297.949	41.3
298.164	100.69
298.378	88.4
298.593	55.64
298.807	-46.76
299.022	-46.76
299.236	-24.23
299.451	6.49
299.665	33.11
299.88	6.49
300.094	-61.1
300.309	49.49
300.523	-9.9
300.737	63.83
300.952	37.2
301.166	35.16
301.381	20.82
301.595	22.87
301.809	-13.99
302.024	4.44
302.238	59.73
302.452	-5.8
302.667	-18.09
302.881	24.92
303.095	-9.9
303.309	41.3
303.524	-16.04
303.738	-11.95
303.952	29.01
304.166	8.53
304.381	24.92
304.595	51.54
304.809	24.92
305.023	0.34
305.237	57.68
305.452	49.49
305.666	10.58
305.88	4.44
306.094	45.4
306.308	8.53
306.522	-11.95
306.736	49.49
306.95	-40.62
307.164	-1.71
307.379	-7.85
307.593	49.49
307.807	-3.75
308.021	24.92
308.235	47.44
308.449	-3.75
308.663	4.44
308.877	43.35
309.091	16.73
309.305	-5.8
309.519	-22.19
309.733	24.92
309.947	-3.75
310.161	20.82
310.374	0.34
310.588	10.58
310.802	55.64
311.016	-28.33
311.23	24.92
311.444	-22.19
311.658	29.01
311.872	33.11
312.085	6.49
312.299	53.59
312.513	-20.14
312.727	-38.57
312.941	16.73
313.154	53.59
313.368	115.03
313.582	-22.19
313.796	-24.23
314.009	47.44
314.223	92.5
314.437	88.4
314.651	22.87
314.864	-13.99
315.078	14.68
315.292	16.73
315.505	-36.52
315.719	86.36
315.933	37.2
316.146	-7.85
316.36	-24.23
316.573	-9.9
316.787	-3.75
317.001	4.44
317.214	18.77
317.428	-20.14
317.641	10.58
317.855	-13.99
318.068	57.68
318.282	53.59
318.495	37.2
318.709	0.34
318.922	24.92
319.136	69.97
319.349	100.69
319.563	-5.8
319.776	-13.99
319.99	26.96
320.203	14.68
320.417	61.78
320.63	115.03
320.843	6.49
321.057	67.92
321.27	33.11
321.483	-1.71
321.697	55.64
321.91	29.01
322.124	-20.14
322.337	2.39
322.55	39.25
322.763	-11.95
322.977	53.59
323.19	29.01
323.403	-1.71
323.617	6.49
323.83	18.77
324.043	12.63
324.256	10.58
324.469	-7.85
324.683	22.87
324.896	16.73
325.109	-3.75
325.322	31.06
325.535	80.21
325.748	33.11
325.962	104.79
326.175	37.2
326.388	74.07
326.601	39.25
326.814	33.11
327.027	51.54
327.24	69.97
327.453	47.44
327.666	0.34
327.879	-28.33
328.092	78.16
328.305	88.4
328.518	-13.99
328.731	-9.9
328.944	59.73
329.157	76.12
329.37	35.16
329.583	-13.99
329.796	22.87
330.009	33.11
330.222	33.11
330.435	-7.85
330.648	20.82
330.861	10.58
331.073	72.02
331.286	43.35
331.499	18.77
331.712	-36.52
331.925	22.87
332.138	-3.75
332.35	47.44
332.563	16.73
332.776	47.44
332.989	37.2
333.202	43.35
333.414	-3.75
333.627	53.59
333.84	37.2
334.053	57.68
334.265	18.77
334.478	55.64
334.691	78.16
334.903	49.49
335.116	-42.67
335.329	37.2
335.541	6.49
335.754	41.3
335.966	-95.91
336.179	-59.05
336.392	-9.9
336.604	4.44
336.817	100.69
337.029	72.02
337.242	37.2
337.454	41.3
337.667	53.59
337.88	-30.38
338.092	18.77
338.305	35.16
338.517	65.88
338.729	-7.85
338.942	8.53
339.154	33.11
339.367	35.16
339.579	51.54
339.792	49.49
340.004	29.01
340.217	0.34
340.429	43.35
340.641	45.4
340.854	69.97
341.066	-13.99
341.278	-89.77
341.491	16.73
341.703	0.34
341.915	33.11
342.128	63.83
342.34	59.73
342.552	80.21
342.764	-20.14
342.977	45.4
343.189	35.16
343.401	2.39
343.613	18.77
343.826	4.44
344.038	20.82
344.25	55.64
344.462	35.16
344.674	-30.38
344.886	49.49
345.099	8.53
345.311	-50.86
345.523	-40.62
345.735	-9.9
345.947	33.11
346.159	16.73
346.371	24.92
346.583	51.54
346.795	90.45
347.007	18.77
347.219	115.03
347.431	8.53
347.643	76.12
347.855	53.59
348.067	26.96
348.279	-36.52
348.491	33.11
348.703	-3.75
348.915	57.68
349.127	14.68
349.339	47.44
349.551	-44.71
349.763	67.92
349.975	4.44
350.187	-1.71
350.399	33.11
350.61	100.69
350.822	59.73
351.034	4.44
351.246	18.77
351.458	-13.99
351.669	74.07
351.881	-11.95
352.093	6.49
352.305	69.97
352.517	-20.14
352.728	80.21
352.94	33.11
353.152	55.64
353.363	-52.91
353.575	8.53
353.787	49.49
353.999	35.16
354.21	31.06
354.422	33.11
354.633	-30.38
354.845	76.12
355.057	45.4
355.268	45.4
355.48	55.64
355.692	-5.8
355.903	-9.9
356.115	47.44
356.326	-13.99
356.538	110.93
356.749	29.01
356.961	43.35
357.172	16.73
357.384	31.06
357.595	86.36
357.807	43.35
358.018	37.2
358.23	-3.75
358.441	80.21
358.653	80.21
358.864	-11.95
359.075	-1.71
359.287	10.58
359.498	20.82
359.709	-18.09
359.921	-3.75
360.132	74.07
360.344	-42.67
360.555	16.73
360.766	57.68
360.977	69.97
361.189	18.77
361.4	24.92
361.611	20.82
361.823	18.77
362.034	57.68
362.245	39.25
362.456	45.4
362.667	61.78
362.879	-24.23
363.09	49.49
363.301	78.16
363.512	82.26
363.723	41.3
363.935	-61.1
364.146	69.97
364.357	-30.38
364.568	41.3
364.779	4.44
364.99	86.36
365.201	-18.09
365.412	67.92
365.623	-38.57
365.834	29.01
366.045	33.11
366.256	26.96
366.467	94.55
366.678	61.78
366.889	0.34
367.1	0.34
367.311	65.88
367.522	37.2
367.733	43.35
367.944	8.53
368.155	57.68
368.366	43.35
368.577	74.07
368.788	65.88
368.999	24.92
369.209	47.44
369.42	80.21
369.631	65.88
369.842	-57
370.053	49.49
370.264	98.64
370.474	41.3
370.685	10.58
370.896	72.02
371.107	-9.9
371.317	82.26
371.528	33.11
371.739	78.16
371.95	49.49
372.16	22.87
372.371	98.64
372.582	90.45
372.792	45.4
373.003	8.53
373.214	84.31
373.424	-18.09
373.635	43.35
373.846	61.78
374.056	45.4
374.267	51.54
374.477	41.3
374.688	-54.95
374.898	47.44
375.109	22.87
375.319	12.63
375.53	39.25
375.74	55.64
375.951	37.2
376.161	-20.14
376.372	8.53
376.582	22.87
376.793	22.87
377.003	29.01
377.214	53.59
377.424	6.49
377.635	55.64
377.845	6.49
378.055	-16.04
378.266	6.49
378.476	94.55
378.686	31.06
378.897	26.96
379.107	86.36
379.317	8.53
379.528	14.68
379.738	51.54
379.948	4.44
380.158	80.21
380.369	57.68
380.579	-57
380.789	47.44
380.999	31.06
381.21	53.59
381.42	84.31
381.63	26.96
381.84	67.92
382.05	12.63
382.261	-1.71
382.471	10.58
382.681	-30.38
382.891	65.88
383.101	55.64
383.311	-16.04
383.521	35.16
383.731	22.87
383.941	92.5
384.151	65.88
384.361	55.64
384.571	-32.43
384.781	98.64
384.991	-5.8
385.201	-7.85
385.411	45.4
385.621	63.83
385.831	18.77
386.041	84.31
386.251	57.68
386.461	63.83
386.671	72.02
386.881	10.58
387.091	110.93
387.301	76.12
387.511	45.4
387.72	59.73
387.93	47.44
388.14	57.68
388.35	43.35
388.56	108.88
388.769	72.02
388.979	-1.71
389.189	86.36
389.399	8.53
389.609	-30.38
389.818	49.49
390.028	72.02
390.238	41.3
390.447	-40.62
390.657	92.5
390.867	35.16
391.076	29.01
391.286	57.68
391.496	84.31
391.705	-3.75
391.915	39.25
392.125	47.44
392.334	33.11
392.544	-18.09
392.753	59.73
392.963	-11.95
393.172	72.02
393.382	6.49
393.591	94.55
393.801	18.77
394.01	96.6
394.22	100.69
394.429	45.4
394.639	74.07
394.848	-22.19
395.058	51.54
395.267	131.41
395.477	33.11
395.686	51.54
395.895	88.4
396.105	12.63
396.314	45.4
396.524	47.44
396.733	24.92
396.942	59.73
397.152	67.92
397.361	137.56
397.57	119.12
397.78	76.12
397.989	127.32
398.198	61.78
398.407	74.07
398.617	76.12
398.826	96.6
399.035	72.02
399.244	65.88
399.453	26.96
399.663	45.4
399.872	72.02
400.081	69.97
400.29	88.4
400.499	-22.19
400.708	72.02
400.917	43.35
401.127	37.2
401.336	110.93
401.545	131.41
401.754	2.39
401.963	129.36
402.172	63.83
402.381	41.3
402.59	39.25
402.799	61.78
403.008	78.16
403.217	92.5
403.426	24.92
403.635	112.98
403.844	106.84
404.053	49.49
404.262	76.12
404.471	125.27
404.68	96.6
404.888	155.99
405.097	102.74
405.306	131.41
405.515	84.31
405.724	67.92
405.933	76.12
406.142	84.31
406.35	170.32
406.559	115.03
406.768	98.64
406.977	139.6
407.185	153.94
407.394	123.22
407.603	170.32
407.812	112.98
408.02	90.45
408.229	151.89
408.438	186.71
408.646	135.51
408.855	178.51
409.064	110.93
409.272	205.14
409.481	221.52
409.69	137.56
409.898	133.46
410.107	270.67
410.315	174.42
410.524	225.62
410.733	162.13
410.941	178.51
411.15	180.56
411.358	225.62
411.567	225.62
411.775	248.15
411.984	164.18
412.192	215.38
412.401	231.76
412.609	254.29
412.818	307.54
413.026	280.91
413.234	344.4
413.443	264.53
413.651	233.81
413.86	264.53
414.068	287.06
414.276	463.18
414.485	418.13
414.693	313.68
414.901	428.37
415.11	411.98
415.318	391.5
415.526	418.13
415.734	467.28
415.943	459.09
416.151	520.53
416.359	473.42
416.567	504.14
416.776	467.28
416.984	577.87
417.192	557.39
417.4	639.31
417.608	522.57
417.817	545.1
418.025	645.45
418.233	629.07
418.441	606.54
418.649	663.88
418.857	747.85
419.065	717.13
419.273	696.65
419.481	768.33
419.689	848.2
419.897	778.57
420.105	858.44
420.313	870.73
420.521	874.82
420.729	960.84
420.937	997.7
421.145	987.46
421.353	991.56
421.561	1079.62
421.769	1093.96
421.977	1118.53
422.185	1081.67
422.393	1227.07
422.601	1380.67
422.809	1280.32
423.017	1186.12
423.224	1372.48
423.432	1317.19
423.64	1343.81
423.848	1446.21
424.056	1448.26
424.263	1589.57
424.471	1626.43
424.679	1630.52
424.887	1771.83
425.094	1755.45
425.302	1835.32
425.51	1741.11
425.718	1900.86
425.925	1947.96
426.133	2015.54
426.341	1978.68
426.548	2152.76
426.756	2165.04
426.964	2138.42
427.171	2423.09
427.379	2406.7
427.586	2441.52
427.794	2509.1
428.001	2611.5
428.209	2674.99
428.417	2672.94
428.624	2908.46
428.832	2951.46
429.039	2967.85
429.247	2879.79
429.454	3201.32
429.662	3373.35
429.869	3170.6
430.076	3453.22
430.284	3316
430.491	3477.79
430.699	3623.2
430.906	3604.77
431.114	3711.26
431.321	3739.93
431.528	3907.87
431.736	4165.91
431.943	4395.28
432.15	4165.91
432.358	4217.11
432.565	4518.16
432.772	4604.18
432.979	4829.45
433.187	4811.02
433.394	4794.64
433.601	5191.94
433.808	5288.2
434.016	5069.06
434.223	5357.83
434.43	5720.32
434.637	5517.57
434.844	6119.67
435.052	5871.87
435.259	5933.31
435.466	6179.06
435.673	6129.91
435.88	6398.2
436.087	6709.49
436.294	6725.87
436.501	6611.18
436.708	6637.81
436.915	6906.09
437.122	7313.64
437.329	7133.42
437.537	7356.65
437.743	7684.32
437.95	7602.4
438.157	7786.72
438.364	8249.56
438.571	8274.14
438.778	8278.23
438.985	9142.47
439.192	8620.24
439.399	9152.71
439.606	8839.37
439.813	9185.48
440.02	9773.25
440.227	9681.09
440.433	9476.29
440.64	10135.74
440.847	9943.23
441.054	10113.21
441.261	10811.57
441.467	10594.48
441.674	10719.41
441.881	11374.76
442.088	11241.64
442.294	10946.73
442.501	11655.33
442.708	11737.25
442.914	11983.01
443.121	12562.58
443.328	12273.82
443.534	13287.56
443.741	12583.06
443.948	12687.51
444.154	13629.57
444.361	13623.43
444.568	13705.35
444.774	13873.28
444.981	13922.43
445.187	14143.61
445.394	14850.16
445.6	14854.26
445.807	16048.22
446.013	15360.11
446.22	15687.78
446.426	16142.43
446.633	16494.68
446.839	17018.96
447.046	16150.62
447.252	17385.55
447.459	17029.2
447.665	17074.26
447.871	17659.98
448.078	18786.36
448.284	17868.87
448.491	18077.76
448.697	18843.7
448.903	19167.28
449.11	19372.08
449.316	18942
449.522	19515.44
449.728	19802.15
449.935	20326.43
450.141	20004.9
450.347	20527.13
450.553	19841.06
450.76	20121.63
450.966	20942.87
451.172	20308
451.378	21338.13
451.584	20762.65
451.791	21252.11
451.997	21274.64
452.203	21501.97
452.409	21565.45
452.615	21555.21
452.821	20668.44
453.027	20725.79
453.233	21696.52
453.44	20746.26
453.646	21329.94
453.852	21100.56
454.058	21579.79
454.264	21032.98
454.47	21141.52
454.676	20652.06
454.882	21381.14
455.088	19755.05
455.294	19656.75
455.5	20207.65
455.705	20140.07
455.911	19558.44
456.117	19169.33
456.323	19204.14
456.529	17991.75
456.735	18753.59
456.941	18688.06
457.147	18055.23
457.352	17440.84
457.558	17166.42
457.764	17436.75
457.97	16943.19
458.176	16631.9
458.381	16509.02
458.587	15671.4
458.793	15777.89
458.999	14952.56
459.204	15835.24
459.41	15558.76
459.616	14569.59
459.821	14551.16
460.027	14561.4
460.233	14186.62
460.438	13717.64
460.644	13584.52
460.85	13168.78
461.055	12996.75
461.261	12959.89
461.466	11985.05
461.672	11569.32
461.878	12701.84
462.083	11595.94
462.289	11495.59
462.494	11597.99
462.7	10807.47
462.905	10479.8
463.111	10879.15
463.316	11036.84
463.522	10717.36
463.727	10662.07
463.932	10690.74
464.138	10660.02
464.343	10737.84
464.549	10424.5
464.754	10647.73
464.959	10725.55
465.165	10633.4
465.37	10168.51
465.575	9885.89
465.781	10193.08
465.986	10293.43
466.191	9898.17
466.397	9658.56
466.602	9375.94
466.807	9593.03
467.012	9738.43
467.218	9533.64
467.423	9699.52
467.628	9590.98
467.833	10070.2
468.038	9554.12
468.244	9396.42
468.449	9572.55
468.654	9377.99
468.859	9421
469.064	9117.9
469.269	8939.72
469.474	9087.18
469.679	9294.02
469.885	8941.77
470.09	9042.12
470.295	8995.02
470.5	8691.92
470.705	8788.18
470.91	8632.53
471.115	8650.96
471.32	8636.63
471.525	8753.36
471.73	8296.66
471.935	8468.69
472.139	8112.35
472.344	8151.26
472.549	8157.4
472.754	8077.53
472.959	7835.87
473.164	7706.85
473.369	7629.02
473.574	7735.52
473.778	7684.32
473.983	7635.17
474.188	7637.22
474.393	7323.88
474.598	7356.65
474.802	7213.29
475.007	7362.79
475.212	7266.53
475.417	6885.61
475.621	7026.92
475.826	6947.05
476.031	6832.37
476.235	6723.82
476.44	6654.19
476.645	6660.34
476.849	6783.21
477.054	6605.04
477.259	6465.78
477.463	6478.07
477.668	6187.25
477.872	6353.14
478.077	6371.57
478.282	6095.1
478.486	6127.86
478.691	6097.14
478.895	6007.03
479.1	6000.89
479.304	5998.84
479.509	5740.8
479.713	6011.13
479.918	5826.81
480.122	5740.8
480.326	5673.21
480.531	5835
480.735	5800.19
480.94	5538.05
481.144	5839.1
481.348	5601.54
481.553	5796.09
481.757	5429.51
481.961	5611.78
482.166	5761.28
482.37	5679.36
482.574	5374.21
482.778	5689.6
482.983	5681.41
483.187	5454.08
483.391	5732.61
483.595	5458.18
483.8	5505.28
484.004	5490.95
484.208	5792
484.412	5579.01
484.616	5593.34
484.821	5689.6
485.025	5656.83
485.229	5712.13
485.433	5595.39
485.637	5703.93
485.841	5619.97
486.045	5613.82
486.249	5726.46
486.453	5644.54
486.657	5642.5
486.861	5693.69
487.065	5533.95
487.269	5708.03
487.473	5605.63
487.677	5804.28
487.881	5853.44
488.085	5699.84
488.289	5773.57
488.493	5697.79
488.697	5798.14
488.901	5677.31
489.105	5763.33
489.309	5867.77
489.512	5746.94
489.716	5783.81
489.92	5728.51
490.124	5832.96
490.328	5970.17
490.531	5875.96
490.735	6088.95
490.939	6084.86
491.143	5929.21
491.346	5908.73
491.55	6103.29
491.754	6043.9
491.958	6091
492.161	6142.2
492.365	6033.66
492.569	6281.46
492.772	6256.89
492.976	6146.3
493.18	6271.22
493.383	6297.85
493.587	6535.41
493.79	6547.7
493.994	6398.2
494.197	6660.34
494.401	6615.28
494.605	6629.62
494.808	6598.9
495.012	6893.8
495.215	6734.06
495.419	6824.17
495.622	6744.3
495.825	6818.03
496.029	6967.53
496.232	7260.39
496.436	7090.41
496.639	7278.82
496.843	7121.13
497.046	7418.08
497.249	7459.04
497.453	7604.45
497.656	7629.02
497.859	7516.39
498.063	7805.15
498.266	8192.22
498.469	7925.98
498.673	8059.1
498.876	8095.96
499.079	8298.71
499.282	8382.68
499.485	8599.76
499.689	8597.71
499.892	8720.59
500.095	8765.65
500.298	9017.55
500.501	9081.03
500.705	9177.29
500.908	9341.13
501.111	9404.61
501.314	9361.61
501.517	9560.26
501.72	9961.66
501.923	9539.78
502.126	10006.72
502.329	10193.08
502.532	10231.99
502.735	10387.64
502.938	10492.09
503.141	10688.69
503.344	10821.81
503.547	10789.04
503.75	10830
503.953	11219.11
504.156	11276.46
504.359	11432.1
504.562	11784.35
504.765	11829.41
504.968	11825.31
505.17	12087.45
505.373	11978.91
505.576	12320.92
505.779	12535.96
505.982	12376.22
506.185	13004.94
506.387	12910.74
506.59	13103.25
506.793	13656.2
506.996	13369.48
507.198	13719.68
507.401	13578.37
507.604	13977.73
507.807	14229.63
508.009	14495.86
508.212	14465.14
508.415	14737.52
508.617	14760.05
508.82	14960.75
509.022	14792.82
509.225	15251.56
509.428	15435.88
509.63	15616.1
509.833	15812.71
510.035	16013.41
510.238	15935.59
510.44	16197.73
510.643	16638.04
510.845	16801.88
511.048	16736.34
511.25	17051.73
511.453	16779.35
511.655	17807.43
511.858	17610.82
512.06	17862.72
512.262	18014.27
512.465	17891.4
512.667	18233.41
512.87	18780.21
513.072	18444.35
513.274	18896.95
513.477	19193.9
513.679	19312.69
513.881	19492.91
514.084	20095.01
514.286	19728.42
514.488	19855.4
514.69	20654.11
514.893	20736.02
515.095	20707.35
515.297	21137.43
515.499	21276.69
515.701	21331.98
515.904	21717
516.106	21880.84
516.308	21985.29
516.51	22177.79
516.712	22554.62
516.914	22433.79
517.116	23195.64
517.318	23126
517.52	23373.81
517.722	23255.03
517.925	23631.85
518.127	23789.55
518.329	24207.33
518.531	24158.18
518.733	24518.62
518.935	24594.4
519.136	24766.43
519.338	25276.37
519.54	25231.32
519.742	25530.32
519.944	25499.6
520.146	25923.53
520.348	26279.88
520.55	26068.94
520.752	26230.73
520.954	27107.26
521.155	26879.93
521.357	27232.18
521.559	27418.55
521.761	27430.83
521.963	27625.39
522.164	28086.18
522.366	27934.64
522.568	28237.73
522.77	28409.76
522.971	28792.73
523.173	28639.14
523.375	29124.5
523.576	29362.07
523.778	29331.35
523.98	29675.41
524.181	29423.51
524.383	29908.88
524.584	29919.12
524.786	30123.91
524.988	30076.81
525.189	30488.45
525.391	30660.48
525.592	30939.01
525.794	30842.75
525.995	31203.19
526.197	31025.02
526.398	31119.23
526.6	31696.75
526.801	31551.35
527.003	31901.55
527.204	31702.9
527.406	32139.11
527.607	31815.54
527.808	32317.29
528.01	32071.53
528.211	31879.02
528.412	33161.05
528.614	32915.3
528.815	32608.1
529.016	32837.47
529.218	32915.3
529.419	33283.93
529.62	33269.59
529.822	32909.15
530.023	33269.59
530.224	33249.11
530.425	33423.19
530.626	33279.83
530.828	33060.7
531.029	34086.73
531.23	33427.29
531.431	33632.08
531.632	33453.91
531.833	33888.08
532.035	33800.02
532.236	33863.5
532.437	34219.85
532.638	33523.54
532.839	34287.43
533.04	34234.19
533.241	33765.2
533.442	34766.66
533.643	34281.29
533.844	34279.24
534.045	34475.85
534.246	34144.08
534.447	34477.9
534.648	34393.93
534.849	34742.08
535.05	34395.98
535.251	34666.31
535.451	34393.93
535.652	34703.17
535.853	34815.81
536.054	34766.66
536.255	34494.28
536.456	34658.12
536.657	35163.96
536.857	34926.4
537.058	34674.5
537.259	35348.28
537.46	35155.77
537.66	34897.73
537.861	34934.59
538.062	34709.32
538.263	34905.92
538.463	34934.59
538.664	34946.88
538.865	34981.7
539.065	35114.81
539.266	34914.11
539.466	35383.1
539.667	34971.46
539.868	35389.24
540.068	35446.58
540.269	35096.38
540.469	35370.81
540.67	34875.2
540.87	34957.12
541.071	35202.88
541.271	35358.52
541.472	35604.28
541.672	35202.88
541.873	35155.77
542.073	35112.77
542.274	35555.13
542.474	35311.42
542.675	34783.04
542.875	35841.84
543.075	35452.73
543.276	35217.21
543.476	35702.58
543.676	35098.43
543.877	35327.8
544.077	35161.92
544.277	35123.01
544.478	35196.73
544.678	35495.74
544.878	35159.87
545.078	35405.63
545.279	35290.94
545.479	35307.32
545.679	35123.01
545.879	35434.3
546.079	35403.58
546.28	35493.69
546.48	34963.26
546.68	35239.74
546.88	35561.27
547.08	35845.94
547.28	35286.84
547.48	34879.3
547.68	35678
547.88	35309.37
548.081	35667.77
548.281	35473.21
548.481	35266.36
548.681	35768.12
548.881	35874.61
549.081	35450.68
549.28	35338.04
549.48	35520.31
549.68	35657.53
549.88	36077.36
550.08	35489.59
550.28	35561.27
550.48	35225.4
550.68	35823.41
550.88	35219.26
551.08	35718.96
551.279	35274.56
551.479	34953.02
551.679	35264.32
551.879	35163.96
552.079	35172.16
552.278	35481.4
552.478	35505.98
552.678	35403.58
552.878	35657.53
553.077	35313.47
553.277	35118.91
553.477	35555.13
553.676	35114.81
553.876	35524.41
554.076	35223.36
554.275	35020.61
554.475	34961.22
554.674	35491.64
554.874	34889.54
555.074	34957.12
555.273	34973.5
555.473	35077.95
555.672	34926.4
555.872	34854.72
556.071	35069.76
556.271	34844.48
556.47	35137.34
556.67	34535.24
556.869	34987.84
557.068	34914.11
557.268	34688.84
557.467	34766.66
557.667	34885.44
557.866	34914.11
558.065	34709.32
558.265	34748.23
558.464	34985.79
558.663	35014.46
558.863	34510.66
559.062	35092.29
559.261	34342.73
559.461	35006.27
559.66	34387.78
559.859	34443.08
560.058	34791.23
560.258	34746.18
560.457	34506.57
560.656	34887.49
560.855	34465.61
561.054	34445.13
561.253	34346.83
561.453	34365.26
561.652	34662.21
561.851	34375.5
562.05	34506.57
562.249	34232.14
562.448	34410.31
562.647	34582.34
562.846	34490.18
563.045	34586.44
563.244	34070.35
563.443	34740.04
563.642	33771.35
563.841	34604.87
564.04	34172.75
564.239	34590.53
564.438	34219.85
564.637	34240.33
564.836	34424.65
565.035	33869.65
565.234	34172.75
565.432	33961.81
565.631	34043.73
565.83	33978.19
566.029	33883.98
566.228	33750.87
566.427	34496.33
566.625	34021.2
566.824	33685.33
567.023	34096.97
567.222	33517.4
567.42	34064.21
567.619	33785.68
567.818	33603.41
568.016	33709.91
568.215	33955.66
568.414	33511.25
568.612	34172.75
568.811	33484.63
569.01	33685.33
569.208	33316.7
569.407	33601.36
569.605	32980.83
569.804	33505.11
570.002	33386.33
570.201	33369.94
570.4	32919.39
570.598	32964.45
570.797	32872.29
570.995	33116
571.193	32378.73
571.392	33116
571.59	33087.32
571.789	32702.31
571.987	33005.41
572.186	32620.39
572.384	32900.96
572.582	32751.46
572.781	32698.21
572.979	32114.54
573.177	32581.48
573.376	33150.81
573.574	32395.11
573.772	32579.43
573.971	32370.54
574.169	32403.3
574.367	32098.16
574.565	32554.85
574.763	31813.49
574.962	32116.59
575.16	31534.96
575.358	31954.8
575.556	31641.46
575.754	31973.23
575.952	31530.87
576.151	31676.27
576.349	31387.51
576.547	31840.11
576.745	31457.14
576.943	31612.79
577.141	31362.93
577.339	31344.5
577.537	31233.91
577.735	31346.55
577.933	31131.51
578.131	31381.37
578.329	30834.56
578.527	30547.84
578.725	30967.68
578.923	31002.49
579.121	30977.92
579.319	31170.43
579.516	31012.73
579.714	30687.11
579.912	30687.11
580.11	30500.74
580.308	30369.67
580.506	30406.53
580.704	30080.91
580.901	30138.25
581.099	30353.29
581.297	30324.61
581.495	29763.47
581.692	29953.93
581.89	29779.85
582.088	30060.43
582.285	29855.63
582.483	30048.14
582.681	29554.58
582.878	29489.04
583.076	29712.27
583.274	29863.82
583.471	29038.49
583.669	29607.83
583.866	29036.44
584.064	28929.95
584.262	28665.76
584.459	29075.35
584.657	29212.57
584.854	29042.59
585.052	28536.74
585.249	29196.18
585.447	28913.56
585.644	28368.8
585.841	28680.1
586.039	28870.56
586.236	28426.15
586.434	28321.7
586.631	28293.03
586.828	28221.35
587.026	27991.98
587.223	28317.61
587.42	28080.04
587.618	28272.55
587.815	27795.37
588.012	27436.98
588.21	27682.73
588.407	27813.8
588.604	27703.21
588.801	27568.05
588.999	27002.81
589.196	27463.6
589.393	27369.4
589.59	27312.05
589.787	26836.92
589.984	27004.86
590.182	26451.91
590.379	26853.31
590.576	26980.28
590.773	26752.96
590.97	27027.38
591.167	26795.96
591.364	26417.09
591.561	26509.25
591.758	26419.14
591.955	26394.56
592.152	26259.4
592.349	26003.4
592.546	26083.27
592.743	26275.78
592.94	26019.78
593.137	25987.02
593.334	26025.93
593.531	25589.71
593.727	25845.71
593.924	26054.6
594.121	25360.34
594.318	25671.63
594.515	25266.13
594.712	25624.53
594.908	25313.24
595.105	25262.04
595.302	25081.81
595.499	25307.09
595.696	25040.86
595.892	25212.88
596.089	25171.93
596.286	25315.28
596.482	24735.71
596.679	24782.81
596.876	24819.67
597.072	24600.54
597.269	24922.07
597.466	24281.06
597.662	24764.38
597.859	24618.97
598.055	24403.94
598.252	24283.11
598.448	24158.18
598.645	24193
598.841	23986.15
599.038	23961.58
599.234	23932.9
599.431	23693.29
599.627	23560.17
599.824	23891.94
600.02	23719.92
600.217	23658.48
600.413	23302.13
600.609	23375.86
600.806	23089.14
601.002	23484.4
601.198	23158.77
601.395	23056.37
601.591	22994.93
601.787	22980.6
601.984	23009.27
602.18	23173.11
602.376	22669.31
602.572	22571
602.769	22650.88
602.965	22523.9
603.161	22947.83
603.357	22417.41
603.553	22431.74
603.75	22405.12
603.946	21927.94
604.142	22370.3
604.338	22038.53
604.534	22188.03
604.73	21755.91
604.926	21723.15
605.122	21889.03
605.318	21768.2
605.514	21919.75
605.71	21532.68
605.906	21776.39
606.102	21530.64
606.298	21661.71
606.494	21440.53
606.69	21497.87
606.886	21458.96
607.082	21221.39
607.278	21571.6
607.474	21325.84
607.67	21680.14
607.866	20850.71
608.062	21213.2
608.257	20748.31
608.453	20928.53
608.649	21094.42
608.845	20723.74
609.041	20768.79
609.236	20961.3
609.432	20856.86
609.628	20576.28
609.824	20535.32
610.019	20664.35
610.215	20406.3
610.411	20432.93
610.606	20297.76
610.802	20516.89
610.998	20281.38
611.193	20385.82
611.389	20344.86
611.584	19918.89
611.78	20281.38
611.976	20385.82
612.171	20195.36
612.367	20133.92
612.562	19812.39
612.758	19738.66
612.953	19959.84
613.149	19791.91
613.344	19742.76
613.539	20095.01
613.735	19804.2
613.93	19961.89
614.126	19599.4
614.321	19877.93
614.517	19595.31
614.712	19613.74
614.907	19410.99
615.103	19394.61
615.298	19327.02
615.493	19824.68
615.688	19150.9
615.884	19597.35
616.079	19021.88
616.274	19458.09
616.47	19361.84
616.665	19015.73
616.86	19095.6
617.055	19017.78
617.25	19060.79
617.445	19193.9
617.641	18643
617.836	19001.4
618.031	18532.41
618.226	18909.24
618.421	18489.4
618.616	18532.41
618.811	18368.57
619.006	18780.21
619.201	18098.24
619.396	18544.7
619.591	17793.09
619.786	18288.7
619.981	17776.71
620.176	18354.24
620.371	17809.48
620.566	18112.58
620.761	17479.75
620.956	17750.09
621.151	17496.14
621.346	17565.77
621.541	17328.2
621.735	17479.75
621.93	17350.73
622.125	17317.97
622.32	17244.24
622.515	16939.09
622.709	16980.05
622.904	16898.13
623.099	16793.69
623.294	17078.35
623.488	16500.83
623.683	16541.78
623.878	16357.47
624.072	16210.01
624.267	16124
624.462	16218.21
624.656	16074.85
624.851	16150.62
625.046	16003.17
625.24	15929.44
625.435	15892.58
625.629	15632.49
625.824	15325.29
626.018	15364.2
626.213	15360.11
626.407	15409.26
626.602	15413.35
626.796	15337.58
626.991	15390.83
627.185	15011.95
627.38	14909.55
627.574	14829.68
627.768	14827.64
627.963	14669.94
628.157	14663.8
628.352	14653.56
628.546	14530.68
628.74	14557.3
628.935	14446.71
629.129	14360.7
629.323	14100.61
629.517	14317.69
629.712	14127.23
629.906	13947.01
630.1	14047.36
630.294	13852.8
630.489	13824.13
630.683	13686.92
630.877	13510.79
631.071	13396.1
631.265	13723.78
631.459	13398.15
631.653	13260.94
631.848	13138.06
632.042	13379.72
632.236	13471.88
632.43	12771.47
632.624	13123.73
632.818	13021.33
633.012	12683.41
633.206	12959.89
633.4	12882.06
633.594	12433.56
633.788	12513.43
633.982	12490.9
634.176	12517.53
634.369	12402.84
634.563	12538.01
634.757	12384.41
634.951	12353.69
635.145	12374.17
635.339	12241.05
635.533	11942.05
635.726	12146.84
635.92	11845.79
636.114	11999.39
636.308	11733.15
636.501	11743.39
636.695	11688.1
636.889	11516.07
637.083	11534.5
637.276	11704.48
637.47	11423.91
637.664	11284.65
637.857	11227.31
638.051	11315.37
638.244	11221.16
638.438	11270.31
638.632	11120.81
638.825	11137.2
639.019	10971.31
639.212	10836.14
639.406	10887.34
639.599	10864.82
639.793	10807.47
639.986	10569.91
640.18	10477.75
640.373	10719.41
640.567	10453.17
640.76	10416.31
640.954	10211.51
641.147	10244.28
641.34	10260.66
641.534	10258.62
641.727	10344.63
641.92	10168.51
642.114	10170.55
642.307	9955.52
642.5	10033.34
642.694	9885.89
642.887	9760.96
643.08	9844.93
643.273	9650.37
643.467	9806.02
643.66	9603.27
643.853	9451.72
644.046	9363.65
644.239	9527.49
644.432	9507.01
644.626	9251.02
644.819	9251.02
645.012	9449.67
645.205	9238.73
645.398	9101.51
645.591	9017.55
645.784	9089.23
645.977	8886.48
646.17	8999.12
646.363	8874.19
646.556	8790.22
646.749	8845.52
646.942	8866
647.135	8665.3
647.328	8763.6
647.521	8644.82
647.714	8483.03
647.907	8566.99
648.099	8464.6
648.292	8521.94
648.485	8331.48
648.678	8130.78
648.871	8249.56
649.064	7921.88
649.256	8167.64
649.449	8118.49
649.642	8016.09
649.835	7942.36
650.027	7882.97
650.22	7860.45
650.413	7698.66
650.605	7723.23
650.798	7686.37
650.991	7706.85
651.183	7659.74
651.376	7327.97
651.568	7395.56
651.761	7489.76
651.954	7459.04
652.146	7377.12
652.339	7319.78
652.531	7375.08
652.724	7303.4
652.916	7123.18
653.109	7190.76
653.301	7295.21
653.494	7131.37
653.686	7045.35
653.879	7164.14
654.071	6973.67
654.263	7059.69
654.456	6965.48
654.648	6967.53
654.84	6750.45
655.033	6899.95
655.225	6691.06
655.417	6666.48
655.61	6629.62
655.802	6727.92
655.994	6598.9
656.186	6584.56
656.379	6476.02
656.571	6441.2
656.763	6478.07
656.955	6297.85
657.148	6488.31
657.34	6295.8
657.532	6238.45
657.724	6070.52
657.916	6349.04
658.108	6101.24
658.3	6080.76
658.492	6062.33
658.684	5935.35
658.876	5974.27
659.068	5796.09
659.26	5878.01
659.452	5927.16
659.644	5916.92
659.836	5789.95
660.028	5796.09
660.22	5634.3
660.412	5632.26
660.604	5445.89
660.796	5550.34
660.988	5499.14
661.18	5431.55
661.372	5564.67
661.563	5527.81
661.755	5298.44
661.947	5376.26
662.139	5171.46
662.331	5378.31
662.522	5261.57
662.714	5140.74
662.906	5079.3
663.097	4989.19
663.289	4972.81
663.481	4858.12
663.673	4997.39
663.864	4808.97
664.056	4886.79
664.247	4874.51
664.439	4753.68
664.631	4872.46
664.822	4792.59
665.014	4841.74
665.205	4694.29
665.397	4821.26
665.588	4641.04
665.78	4464.91
665.971	4634.89
666.163	4534.54
666.354	4495.63
666.546	4503.82
666.737	4581.65
666.929	4489.49
667.12	4419.86
667.311	4323.6
667.503	4348.18
667.694	4317.46
667.885	4272.4
668.077	4258.07
668.268	4247.83
668.459	4129.05
668.651	4309.27
668.842	4088.09
669.033	4075.8
669.224	4120.85
669.416	4016.41
669.607	4153.62
669.798	3997.98
669.989	4118.81
670.18	4022.55
670.371	3948.83
670.563	4030.74
670.754	3762.46
670.945	3871
671.136	3866.91
671.327	3813.66
671.518	3801.37
671.709	3731.74
671.9	3762.46
672.091	3754.27
672.282	3584.29
672.473	3645.73
672.664	3670.3
672.855	3565.85
673.046	3627.29
673.237	3735.84
673.428	3481.89
673.619	3457.31
673.809	3553.57
674	3592.48
674.191	3518.75
674.382	3459.36
674.573	3361.06
674.764	3574.05
674.954	3547.42
675.145	3449.12
675.336	3436.83
675.527	3453.22
675.717	3475.74
675.908	3475.74
676.099	3488.03
676.289	3328.29
676.48	3430.69
676.671	3367.2
676.861	3238.18
677.052	3197.22
677.243	3234.08
677.433	3326.24
677.624	3256.61
677.814	3166.5
678.005	3270.95
678.195	3332.39
678.386	3086.63
678.576	3158.31
678.767	3060.01
678.957	3012.9
679.148	3064.1
679.338	3088.68
679.529	3143.97
679.719	3037.48
679.909	3057.96
680.1	3141.93
680.29	3017
680.481	2965.8
680.671	3019.05
680.861	3047.72
681.052	2949.42
681.242	3043.62
681.432	3041.57
681.622	2935.08
681.813	2955.56
682.003	3017
682.193	2767.15
682.383	2883.88
682.573	2967.85
682.764	2789.67
682.954	2857.26
683.144	2847.02
683.334	2861.35
683.524	2859.31
683.714	2861.35
683.904	2890.03
684.094	2910.5
684.284	2763.05
684.474	2873.64
684.664	2726.19
684.854	2838.83
685.044	2818.35
685.234	2812.2
685.424	2867.5
685.614	2838.83
685.804	2674.99
685.994	2761
686.184	2713.9
686.374	2689.32
686.564	2648.36
686.753	2724.14
686.943	2826.54
687.133	2705.71
687.323	2654.51
687.513	2771.24
687.702	2748.72
687.892	2666.8
688.082	2687.28
688.272	2822.44
688.461	2695.47
688.651	2750.76
688.841	2769.2
689.03	2855.21
689.22	2783.53
689.41	2634.03
689.599	2574.64
689.789	2711.85
689.979	2646.32
690.168	2668.84
690.358	2658.6
690.547	2535.73
690.737	2683.18
690.926	2720.04
691.116	2611.5
691.305	2720.04
691.495	2572.59
691.684	2615.6
691.874	2642.22
692.063	2713.9
692.252	2627.89
692.442	2617.65
692.631	2701.61
692.82	2631.98
693.01	2588.97
693.199	2498.86
693.388	2586.93
693.578	2488.62
693.767	2586.93
693.956	2623.79
694.146	2566.45
694.335	2662.7
694.524	2533.68
694.713	2554.16
694.902	2443.57
695.092	2474.29
695.281	2513.2
695.47	2509.1
695.659	2410.8
695.848	2488.62
696.037	2474.29
696.226	2498.86
696.415	2443.57
696.604	2443.57
696.793	2451.76
696.982	2369.84
697.171	2414.9
697.36	2453.81
697.549	2384.18
697.738	2283.83
697.927	2414.9
698.116	2482.48
698.305	2365.75
698.494	2418.99
698.683	2384.18
698.872	2298.16
699.061	2312.5
699.25	2320.69
699.438	2228.53
699.627	2353.46
699.816	2228.53
700.005	2277.68
700.193	2367.79
700.382	2226.48
700.571	2251.06
700.76	2425.14
700.948	2263.35
701.137	2222.39
701.326	2271.54
701.514	2240.82
701.703	2306.35
701.892	2124.08
702.08	2298.16
702.269	2253.11
702.457	2152.76
702.646	2154.8
702.834	2167.09
703.023	2134.32
703.212	2187.57
703.4	2158.9
703.589	2097.46
703.777	2087.22
703.965	2054.45
704.154	2126.13
704.342	2099.51
704.531	2099.51
704.719	2083.13
704.907	2079.03
705.096	2052.41
705.284	2009.4
705.472	2040.12
705.661	1995.06
705.849	1988.92
706.037	1970.49
706.226	1984.82
706.414	1988.92
706.602	1968.44
706.79	2074.93
706.979	2074.93
707.167	1972.54
707.355	1927.48
707.543	1880.38
707.731	1937.72
707.919	1921.34
708.107	1937.72
708.296	1859.9
708.484	1839.42
708.672	1868.09
708.86	1808.7
709.048	1847.61
709.236	1888.57
709.424	1810.75
709.612	1923.38
709.8	1786.17
709.988	1859.9
710.176	1933.62
710.364	1763.64
710.551	1700.16
710.739	1753.4
710.927	1804.6
711.115	1784.12
711.303	1802.55
711.491	1765.69
711.679	1741.11
711.866	1651
712.054	1728.83
712.242	1675.58
712.43	1706.3
712.617	1663.29
712.805	1618.24
712.993	1603.9
713.181	1634.62
713.368	1724.73
713.556	1595.71
713.744	1624.38
713.931	1657.15
714.119	1691.96
714.306	1632.57
714.494	1618.24
714.682	1548.61
714.869	1665.34
715.057	1470.78
715.244	1499.45
715.432	1524.03
715.619	1499.45
715.807	1622.33
715.994	1550.65
716.182	1608
716.369	1562.94
716.556	1605.95
716.744	1554.75
716.931	1478.97
717.119	1444.16
717.306	1487.17
717.493	1356.1
717.681	1509.69
717.868	1341.76
718.055	1415.49
718.242	1466.69
718.43	1458.5
718.617	1413.44
718.804	1450.3
718.991	1421.63
719.179	1384.77
719.366	1349.95
719.553	1290.56
719.74	1440.06
719.927	1417.54
720.114	1358.14
720.301	1419.58
720.488	1225.03
720.676	1364.29
720.863	1372.48
721.05	1290.56
721.237	1292.61
721.424	1263.94
721.611	1298.75
721.798	1290.56
721.985	1290.56
722.172	1282.37
722.358	1280.32
722.545	1237.31
722.732	1274.18
722.919	1272.13
723.106	1272.13
723.293	1272.13
723.48	1296.71
723.667	1169.73
723.853	1171.78
724.04	1298.75
724.227	1253.7
724.414	1145.16
724.6	1126.72
724.787	1200.45
724.974	1151.3
725.161	1167.68
725.347	1190.21
725.534	1182.02
725.72	1149.25
725.907	1153.35
726.094	1206.59
726.28	1153.35
726.467	1089.86
726.653	1130.82
726.84	1149.25
727.027	1085.76
727.213	1085.76
727.4	1112.39
727.586	1096
727.773	1061.19
727.959	1067.33
728.145	1091.91
728.332	1034.57
728.518	1081.67
728.705	1030.47
728.891	1075.52
729.077	1012.04
729.264	966.98
729.45	1032.52
729.636	940.36
729.823	1018.18
730.009	1083.72
730.195	993.61
730.382	977.22
730.568	960.84
730.754	960.84
730.94	1048.9
731.126	1020.23
731.313	960.84
731.499	993.61
731.685	1018.18
731.871	903.5
732.057	964.93
732.243	1030.47
732.429	919.88
732.615	946.5
732.801	948.55
732.987	905.54
733.173	985.41
733.359	962.89
733.545	948.55
733.731	923.98
733.917	880.97
734.103	1012.04
734.289	909.64
734.475	987.46
734.661	977.22
734.847	876.87
735.033	928.07
735.219	883.02
735.404	848.2
735.59	911.69
735.776	891.21
735.962	837.96
736.148	848.2
736.333	760.14
736.519	905.54
736.705	825.67
736.89	833.86
737.076	813.38
737.262	817.48
737.447	797
737.633	860.49
737.819	749.9
738.004	837.96
738.19	807.24
738.375	790.86
738.561	801.1
738.747	803.15
738.932	778.57
739.118	815.43
739.303	803.15
739.489	803.15
739.674	776.52
739.859	762.19
740.045	776.52
740.23	735.56
740.416	743.75
740.601	784.71
740.786	846.15
740.972	745.8
741.157	731.47
741.342	819.53
741.528	805.19
741.713	772.43
741.898	645.45
742.084	717.13
742.269	688.46
742.454	756.04
742.639	622.92
742.824	835.91
743.01	768.33
743.195	624.97
743.38	639.31
743.565	739.66
743.75	665.93
743.935	639.31
744.12	643.4
744.305	641.36
744.49	639.31
744.675	639.31
744.86	641.36
745.045	704.84
745.23	684.36
745.415	618.83
745.6	727.37
745.785	667.98
745.97	618.83
746.155	594.25
746.34	643.4
746.525	661.84
746.71	678.22
746.895	678.22
747.079	622.92
747.264	604.49
747.449	715.08
747.634	594.25
747.819	616.78
748.003	575.82
748.188	545.1
748.373	622.92
748.557	567.63
748.742	569.68
748.927	575.82
749.111	639.31
749.296	547.15
749.481	512.33
749.665	624.97
749.85	614.73
750.034	573.77
750.219	567.63
750.404	557.39
750.588	514.38
750.773	547.15
750.957	508.24
751.141	598.35
751.326	514.38
751.51	563.53
751.695	618.83
751.879	491.85
752.064	530.77
752.248	586.06
752.432	543.05
752.617	551.24
752.801	553.29
752.985	530.77
753.17	483.66
753.354	446.8
753.538	526.67
753.722	444.75
753.907	444.75
754.091	498
754.275	532.81
754.459	469.33
754.643	475.47
754.828	520.53
755.012	461.13
755.196	422.22
755.38	405.84
755.564	526.67
755.748	467.28
755.932	473.42
756.116	446.8
756.3	411.98
756.484	502.09
756.668	381.26
756.852	438.61
757.036	506.19
757.22	473.42
757.404	414.03
757.588	434.51
757.772	416.08
757.956	414.03
758.14	414.03
758.323	418.13
758.507	411.98
758.691	477.52
758.875	475.47
759.059	387.41
759.242	418.13
759.426	416.08
759.61	356.69
759.794	383.31
759.977	368.98
760.161	405.84
760.345	463.18
760.528	487.76
760.712	420.17
760.895	371.02
761.079	418.13
761.263	379.22
761.446	387.41
761.63	381.26
761.813	393.55
761.997	407.89
762.18	389.46
762.364	401.74
762.547	354.64
762.731	379.22
762.914	346.45
763.098	375.12
763.281	317.78
763.464	272.72
763.648	340.3
763.831	434.51
764.015	352.59
764.198	430.41
764.381	338.26
764.564	428.37
764.748	346.45
764.931	311.63
765.114	379.22
765.297	399.7
765.481	350.54
765.664	405.84
765.847	321.87
766.03	315.73
766.213	368.98
766.397	366.93
766.58	352.59
766.763	397.65
766.946	371.02
767.129	315.73
767.312	321.87
767.495	354.64
767.678	330.06
767.861	397.65
768.044	395.6
768.227	328.02
768.41	344.4
768.593	313.68
768.776	344.4
768.959	391.5
769.142	332.11
769.324	323.92
769.507	328.02
769.69	360.78
769.873	282.96
770.056	323.92
770.239	422.22
770.421	342.35
770.604	330.06
770.787	330.06
770.97	262.48
771.152	272.72
771.335	342.35
771.518	319.82
771.7	303.44
771.883	346.45
772.066	205.14
772.248	321.87
772.431	340.3
772.613	352.59
772.796	311.63
772.978	272.72
773.161	354.64
773.343	332.11
773.526	368.98
773.708	346.45
773.891	287.06
774.073	285.01
774.256	330.06
774.438	332.11
774.621	211.28
774.803	280.91
774.985	221.52
775.168	233.81
775.35	309.58
775.532	266.58
775.715	254.29
775.897	246.1
776.079	317.78
776.261	311.63
776.444	289.1
776.626	196.95
776.808	325.97
776.99	301.39
777.173	252.24
777.355	160.08
777.537	315.73
777.719	254.29
777.901	293.2
778.083	328.02
778.265	262.48
778.447	239.95
778.629	248.15
778.811	293.2
778.993	229.71
779.175	270.67
779.357	231.76
779.539	217.43
779.721	172.37
779.903	246.1
780.085	237.91
780.267	235.86
780.449	172.37
780.631	151.89
780.812	256.34
780.994	237.91
781.176	242
781.358	274.77
781.54	198.99
781.721	190.8
781.903	287.06
782.085	229.71
782.267	180.56
782.448	217.43
782.63	223.57
782.812	180.56
782.993	182.61
783.175	221.52
783.357	203.09
783.538	196.95
783.72	282.96
783.901	246.1
784.083	201.04
784.264	190.8
784.446	262.48
784.627	196.95
784.809	258.39
784.99	190.8
785.172	242
785.353	219.47
785.535	211.28
785.716	198.99
785.897	215.38
786.079	229.71
786.26	231.76
786.441	219.47
786.623	158.03
786.804	170.32
786.985	182.61
787.167	209.23
787.348	168.27
787.529	149.84
787.71	158.03
787.891	190.8
788.073	155.99
788.254	108.88
788.435	188.75
788.616	155.99
788.797	207.19
788.978	158.03
789.159	168.27
789.34	172.37
789.522	119.12
789.703	174.42
789.884	112.98
790.065	196.95
790.246	188.75
790.427	207.19
790.607	168.27
790.788	119.12
790.969	137.56
791.15	166.23
791.331	164.18
791.512	100.69
791.693	188.75
791.874	260.43
792.054	131.41
792.235	102.74
792.416	166.23
792.597	110.93
792.778	133.46
792.958	162.13
793.139	137.56
793.32	153.94
793.5	100.69
793.681	223.57
793.862	131.41
794.042	207.19
794.223	117.08
794.404	147.8
794.584	115.03
794.765	65.88
794.945	80.21
795.126	67.92
795.306	63.83
795.487	151.89
795.667	117.08
795.848	106.84
796.028	131.41
796.209	82.26
796.389	166.23
796.57	84.31
796.75	82.26
796.93	139.6
797.111	100.69
797.291	112.98
797.471	53.59
797.652	69.97
797.832	137.56
798.012	135.51
798.192	158.03
798.373	186.71
798.553	49.49
798.733	139.6
798.913	84.31
799.093	155.99
799.274	125.27
799.454	108.88
799.634	104.79
799.814	49.49
799.994	127.32
800.174	88.4
800.354	57.68
800.534	57.68
800.714	129.36
800.894	110.93
801.074	108.88
801.254	143.7
801.434	168.27
801.614	51.54
801.794	125.27
801.974	276.82
802.154	84.31
802.334	131.41
802.514	145.75
802.693	57.68
802.873	78.16
803.053	137.56
803.233	90.45
803.413	57.68
803.592	10.58
803.772	84.31
803.952	51.54
804.131	86.36
804.311	72.02
804.491	86.36
804.67	43.35
804.85	33.11
805.03	55.64
805.209	121.17
805.389	78.16
805.568	45.4
805.748	80.21
805.928	98.64
806.107	76.12
806.287	98.64
806.466	88.4
806.646	90.45
806.825	35.16
807.004	125.27
807.184	14.68
807.363	110.93
807.543	119.12
807.722	119.12
807.901	33.11
808.081	108.88
808.26	104.79
808.439	125.27
808.619	88.4
808.798	-1.71
808.977	92.5
809.156	131.41
809.336	84.31
809.515	82.26
809.694	84.31
809.873	149.84
810.052	16.73
810.231	86.36
810.411	0.34
810.59	117.08
810.769	92.5
810.948	41.3
811.127	39.25
811.306	151.89
811.485	39.25
811.664	96.6
811.843	78.16
812.022	100.69
812.201	65.88
812.38	100.69
812.559	72.02
812.737	29.01
812.916	14.68
813.095	65.88
813.274	6.49
813.453	82.26
813.632	67.92
813.811	104.79
813.989	90.45
814.168	108.88
814.347	61.78
814.526	88.4
814.704	139.6
814.883	84.31
815.062	8.53
815.24	96.6
815.419	51.54
815.598	14.68
815.776	-7.85
815.955	43.35
816.133	12.63
816.312	37.2
816.49	76.12
816.669	51.54
816.847	-1.71
817.026	47.44
817.204	45.4
817.383	51.54
817.561	74.07
817.74	12.63
817.918	53.59
818.097	61.78
818.275	74.07
818.453	35.16
818.632	100.69
818.81	33.11
818.988	72.02
819.167	0.34
819.345	35.16
819.523	78.16
819.701	90.45
819.879	31.06
820.058	158.03
820.236	55.64
820.414	-38.57
820.592	33.11
820.77	51.54
820.948	84.31
821.127	22.87
821.305	63.83
821.483	-38.57
821.661	20.82
821.839	43.35
822.017	41.3
822.195	-46.76
822.373	31.06
822.551	-1.71
822.729	143.7
822.907	63.83
823.085	-9.9
823.262	-5.8
823.44	-3.75
823.618	72.02
823.796	14.68
823.974	0.34
824.152	108.88
824.329	6.49
824.507	63.83
824.685	78.16
824.863	-20.14
825.04	69.97
825.218	80.21
825.396	41.3
825.574	39.25
825.751	88.4
825.929	24.92
826.107	16.73
826.284	47.44
826.462	26.96
826.639	31.06
826.817	-46.76
826.994	94.55
827.172	47.44
827.349	37.2
827.527	86.36
827.704	74.07
827.882	49.49
828.059	31.06
828.237	18.77
828.414	49.49
828.591	-1.71
828.769	20.82
828.946	106.84
829.124	22.87
829.301	98.64
829.478	-32.43
829.655	57.68
829.833	123.22
830.01	-18.09
830.187	29.01
830.364	-3.75
830.542	86.36
830.719	74.07
830.896	65.88
831.073	86.36
831.25	2.39
831.427	31.06
831.604	-9.9
831.782	4.44
831.959	18.77
832.136	72.02
832.313	16.73
832.49	-22.19
832.667	74.07
832.844	65.88
833.021	51.54
833.198	67.92
833.374	67.92
833.551	43.35
833.728	31.06
833.905	-44.71
834.082	57.68
834.259	-18.09
834.436	31.06
834.612	31.06
834.789	10.58
834.966	4.44
835.143	49.49
835.319	-1.71
835.496	33.11
835.673	90.45
835.85	80.21
836.026	-28.33
836.203	14.68
836.38	55.64
836.556	65.88
836.733	-30.38
836.909	0.34
837.086	-1.71
837.262	0.34
837.439	10.58
837.616	20.82
837.792	-5.8
837.968	-1.71
838.145	33.11
838.321	14.68
838.498	18.77
838.674	12.63
838.851	-69.29
839.027	29.01
839.203	0.34
839.38	41.3
839.556	59.73
839.732	47.44
839.909	82.26
840.085	-1.71
840.261	0.34
840.437	22.87
840.614	117.08
840.79	69.97
840.966	65.88
841.142	6.49
841.318	14.68
841.494	72.02
841.671	-5.8
841.847	22.87
842.023	-7.85
842.199	-28.33
842.375	37.2
842.551	-13.99
842.727	-26.28
842.903	29.01
843.079	24.92
843.255	59.73
843.431	43.35
843.607	10.58
843.783	84.31
843.959	63.83
844.134	24.92
844.31	74.07
844.486	49.49
844.662	90.45
844.838	-13.99
845.013	-3.75
845.189	72.02
845.365	-30.38
845.541	-44.71
845.716	-13.99
845.892	57.68
846.068	39.25
846.244	-9.9
846.419	24.92
846.595	72.02
846.77	-52.91
846.946	59.73
847.122	20.82
847.297	-30.38
847.473	61.78
847.648	-30.38
847.824	24.92
847.999	-30.38
848.175	20.82
848.35	22.87
848.526	49.49
848.701	39.25
848.876	47.44
849.052	80.21
849.227	-42.67
849.403	51.54
849.578	-3.75
849.753	47.44
849.929	33.11
850.104	-16.04
850.279	16.73
850.454	53.59
850.63	-11.95
850.805	14.68
850.98	29.01
851.155	0.34
851.33	45.4
851.505	26.96
851.681	72.02
851.856	26.96
852.031	8.53
852.206	12.63
852.381	-20.14
852.556	49.49
852.731	-48.81
852.906	-7.85
853.081	-18.09
853.256	16.73
853.431	8.53
853.606	47.44
853.781	-3.75
853.956	-24.23
854.131	69.97
854.305	49.49
854.48	57.68
854.655	33.11
854.83	35.16
855.005	-9.9
855.18	18.77
855.354	-5.8
855.529	26.96
855.704	-26.28
855.879	61.78
856.053	43.35
856.228	16.73
856.403	-11.95
856.577	6.49
856.752	-16.04
856.926	0.34
857.101	47.44
857.276	20.82
857.45	55.64
857.625	47.44
857.799	-30.38
857.974	10.58
858.148	37.2
858.323	39.25
858.497	24.92
858.672	16.73
858.846	96.6
859.02	84.31
859.195	45.4
859.369	55.64
859.543	-9.9
859.718	43.35
859.892	-16.04
860.066	12.63
860.241	18.77
860.415	29.01
860.589	-52.91
860.763	35.16
860.938	22.87
861.112	67.92
861.286	8.53
861.46	-30.38
861.634	-5.8
861.808	41.3
861.982	26.96
862.157	-32.43
862.331	-75.43
862.505	-1.71
862.679	-3.75
862.853	-38.57
863.027	18.77
863.201	-20.14
863.375	29.01
863.549	4.44
863.722	-30.38
863.896	63.83
864.07	-71.34
864.244	12.63
864.418	-73.39
864.592	-52.91
864.766	14.68
864.939	16.73
865.113	16.73
865.287	4.44
865.461	-30.38
865.634	18.77
865.808	-1.71
865.982	96.6
866.156	57.68
866.329	-40.62
866.503	59.73
866.676	2.39
866.85	-75.43
867.024	8.53
867.197	65.88
867.371	65.88
867.544	-22.19
867.718	-16.04
867.891	57.68
868.065	-5.8
868.238	24.92
868.412	133.46
868.585	-42.67
868.759	33.11
868.932	-46.76
869.105	24.92
869.279	59.73
869.452	51.54
869.625	-3.75
869.799	8.53
869.972	-46.76
870.145	-9.9
870.319	12.63
870.492	-97.96
870.665	24.92
870.838	33.11
871.011	-69.29
871.185	18.77
871.358	-26.28
871.531	-3.75
871.704	41.3
871.877	-26.28
872.05	0.34
872.223	-9.9
872.396	8.53
872.569	-22.19
872.742	29.01
872.915	10.58
873.088	-57
873.261	31.06
873.434	10.58
873.607	39.25
873.78	-44.71
873.953	-7.85
874.126	-46.76
874.299	43.35
874.471	53.59
874.644	-46.76
874.817	-59.05
874.99	-3.75
875.163	-7.85
875.335	4.44
875.508	-42.67
875.681	-5.8
875.853	-44.71
876.026	12.63
876.199	-42.67
876.371	90.45
876.544	51.54
876.717	37.2
876.889	8.53
877.062	65.88
877.234	18.77
877.407	29.01
877.579	16.73
877.752	39.25
877.924	10.58
878.097	33.11
878.269	-5.8
878.442	-57
878.614	24.92
878.786	10.58
878.959	-22.19
879.131	-26.28
879.303	-26.28
879.476	-24.23
879.648	-9.9
879.82	-20.14
879.993	41.3
880.165	0.34
880.337	18.77
880.509	41.3
880.681	-16.04
880.854	-5.8
881.026	22.87
881.198	4.44
881.37	22.87
881.542	-3.75
881.714	-73.39
881.886	57.68
882.058	47.44
882.23	-18.09
882.402	18.77
882.574	-20.14
882.746	-89.77
882.918	-1.71
883.09	-30.38
883.262	-16.04
883.434	20.82
883.606	12.63
883.778	31.06
883.95	-57
884.122	-7.85
884.293	10.58
884.465	-91.82
884.637	-18.09
884.809	-40.62
884.98	26.96
885.152	-93.87
885.324	8.53
885.496	-16.04
885.667	-36.52
885.839	96.6
886.011	26.96
886.182	26.96
886.354	-61.1
886.525	-22.19
886.697	-67.24
886.869	-63.15
887.04	12.63
887.212	20.82
887.383	-5.8
887.555	72.02
887.726	4.44
887.897	51.54
888.069	-16.04
888.24	-63.15
888.412	-79.53
888.583	18.77
888.754	12.63
888.926	-5.8
889.097	-77.48
889.268	-11.95
889.44	-34.47
889.611	-26.28
889.782	-42.67
889.953	-36.52
890.125	0.34
890.296	-9.9
890.467	100.69
890.638	0.34
890.809	29.01
890.98	-18.09
891.151	26.96
891.323	-32.43
891.494	22.87
891.665	-9.9
891.836	-48.81
892.007	-11.95
892.178	-16.04
892.349	26.96
892.52	51.54
892.691	-46.76
892.862	55.64
893.032	14.68
893.203	-32.43
893.374	2.39
893.545	22.87
893.716	20.82
893.887	0.34
894.057	-32.43
894.228	43.35
894.399	-1.71
894.57	16.73
894.74	-18.09
894.911	2.39
895.082	-13.99
895.253	0.34
895.423	-40.62
895.594	-30.38
895.764	14.68
895.935	-71.34
896.106	20.82
896.276	10.58
896.447	31.06
896.617	18.77
896.788	-22.19
896.958	-26.28
897.129	29.01
897.299	-3.75
897.47	59.73
897.64	-32.43
897.81	-79.53
897.981	6.49
898.151	-42.67
898.322	39.25
898.492	12.63
898.662	-42.67
898.832	-3.75
899.003	-5.8
899.173	10.58
899.343	55.64
899.513	10.58
