Data from USB4F104151__48__12-53-55-114.txt Node

Date: Fri Mar 14 12:53:55 EDT 2025
User: louis
Spectrometer: USB4F10415
Trigger mode: 4
Integration Time (sec): 1.000000E-2
Scans to average: 1
Electric dark correction enabled: true
Nonlinearity correction enabled: false
Boxcar width: 0
XAxis mode: Wavelengths
Number of Pixels in Spectrum: 3648
>>>>>Begin Spectral Data<<<<<
178.204	-145.75
178.424	-145.75
178.644	-145.75
178.864	-20.82
179.084	-0.34
179.304	-35.16
179.524	-59.73
179.744	7.85
179.964	38.57
180.184	-59.73
180.404	59.05
180.624	-10.58
180.844	18.09
181.064	3.75
181.283	16.04
181.503	-2.39
181.723	24.23
181.943	28.33
182.163	-26.96
182.383	-51.54
182.602	-14.68
182.822	34.47
183.042	-53.59
183.262	-2.39
183.482	-26.96
183.701	-86.36
183.921	-22.87
184.141	-12.63
184.361	-31.06
184.58	-20.82
184.8	-8.53
185.02	-33.11
185.239	5.8
185.459	9.9
185.679	-22.87
185.898	1.71
186.118	30.38
186.338	-18.77
186.557	67.24
186.777	16.04
186.997	-16.73
187.216	-37.2
187.436	-16.73
187.655	-0.34
187.875	1.71
188.095	9.9
188.314	75.43
188.534	-20.82
188.753	3.75
188.973	38.57
189.192	-31.06
189.412	-12.63
189.631	-24.92
189.851	24.23
190.07	95.91
190.29	-74.07
190.509	38.57
190.729	-29.01
190.948	36.52
191.168	13.99
191.387	-0.34
191.607	-8.53
191.826	42.67
192.045	-16.73
192.265	30.38
192.484	-31.06
192.704	-14.68
192.923	-0.34
193.142	79.53
193.362	-29.01
193.581	30.38
193.8	20.14
194.02	52.91
194.239	24.23
194.458	-6.49
194.678	-51.54
194.897	89.77
195.116	-22.87
195.335	3.75
195.555	-24.92
195.774	26.28
195.993	9.9
196.212	22.19
196.432	38.57
196.651	-39.25
196.87	-16.73
197.089	34.47
197.308	11.95
197.528	44.71
197.747	-47.44
197.966	-16.73
198.185	73.39
198.404	-26.96
198.623	-2.39
198.842	57
199.062	32.43
199.281	50.86
199.5	-0.34
199.719	18.09
199.938	-49.49
200.157	22.19
200.376	9.9
200.595	16.04
200.814	-31.06
201.033	-12.63
201.252	30.38
201.471	-14.68
201.69	5.8
201.909	36.52
202.128	13.99
202.347	-2.39
202.566	-16.73
202.785	26.28
203.004	16.04
203.223	-8.53
203.442	32.43
203.661	-57.68
203.879	18.09
204.098	118.44
204.317	7.85
204.536	69.29
204.755	34.47
204.974	22.19
205.193	32.43
205.411	69.29
205.63	48.81
205.849	-10.58
206.068	32.43
206.287	-0.34
206.505	18.09
206.724	-10.58
206.943	34.47
207.162	40.62
207.381	-43.35
207.599	48.81
207.818	-55.64
208.037	-20.82
208.255	-4.44
208.474	42.67
208.693	7.85
208.911	-16.73
209.13	20.14
209.349	-37.2
209.567	38.57
209.786	-59.73
210.005	67.24
210.223	30.38
210.442	36.52
210.661	11.95
210.879	-0.34
211.098	-6.49
211.316	-57.68
211.535	63.15
211.753	-22.87
211.972	38.57
212.191	5.8
212.409	-20.82
212.628	46.76
212.846	-33.11
213.065	-12.63
213.283	20.14
213.502	-8.53
213.72	-45.4
213.938	1.71
214.157	11.95
214.375	11.95
214.594	1.71
214.812	1.71
215.031	-16.73
215.249	5.8
215.467	-35.16
215.686	-6.49
215.904	-18.77
216.122	54.95
216.341	-16.73
216.559	-2.39
216.778	-72.02
216.996	-37.2
217.214	-0.34
217.432	36.52
217.651	-8.53
217.869	13.99
218.087	38.57
218.306	63.15
218.524	46.76
218.742	18.09
218.96	-6.49
219.179	3.75
219.397	-10.58
219.615	54.95
219.833	13.99
220.051	-31.06
220.27	-0.34
220.488	5.8
220.706	40.62
220.924	-8.53
221.142	61.1
221.36	20.14
221.578	5.8
221.796	-78.16
222.015	13.99
222.233	83.63
222.451	20.14
222.669	-80.21
222.887	5.8
223.105	38.57
223.323	24.23
223.541	-24.92
223.759	20.14
223.977	-41.3
224.195	-26.96
224.413	-8.53
224.631	28.33
224.849	-8.53
225.067	18.09
225.285	61.1
225.503	9.9
225.721	-26.96
225.939	-26.96
226.157	-2.39
226.375	32.43
226.592	-57.68
226.81	-4.44
227.028	67.24
227.246	-4.44
227.464	3.75
227.682	28.33
227.9	22.19
228.117	100.01
228.335	-26.96
228.553	-12.63
228.771	-33.11
228.989	-65.88
229.206	13.99
229.424	65.19
229.642	-51.54
229.86	22.19
230.077	61.1
230.295	-65.88
230.513	11.95
230.731	16.04
230.948	-59.73
231.166	32.43
231.384	81.58
231.601	36.52
231.819	16.04
232.037	38.57
232.254	-35.16
232.472	16.04
232.689	9.9
232.907	-41.3
233.125	38.57
233.342	-47.44
233.56	22.19
233.777	-20.82
233.995	-49.49
234.213	-51.54
234.43	-2.39
234.648	1.71
234.865	-43.35
235.083	16.04
235.3	30.38
235.518	75.43
235.735	22.19
235.953	5.8
236.17	24.23
236.388	40.62
236.605	48.81
236.822	-51.54
237.04	34.47
237.257	30.38
237.475	48.81
237.692	28.33
237.909	-45.4
238.127	-2.39
238.344	-33.11
238.562	22.19
238.779	-80.21
238.996	-59.73
239.214	9.9
239.431	26.28
239.648	11.95
239.865	-43.35
240.083	95.91
240.3	26.28
240.517	-18.77
240.735	-12.63
240.952	54.95
241.169	5.8
241.386	-53.59
241.603	71.34
241.821	26.28
242.038	-61.78
242.255	-35.16
242.472	24.23
242.689	11.95
242.907	83.63
243.124	-24.92
243.341	81.58
243.558	-10.58
243.775	100.01
243.992	11.95
244.209	36.52
244.426	-2.39
244.643	-37.2
244.86	5.8
245.078	65.19
245.295	7.85
245.512	42.67
245.729	-8.53
245.946	32.43
246.163	48.81
246.38	13.99
246.597	-14.68
246.814	-29.01
247.031	-6.49
247.248	11.95
247.464	-31.06
247.681	44.71
247.898	-39.25
248.115	-67.92
248.332	-43.35
248.549	77.48
248.766	-16.73
248.983	9.9
249.2	-72.02
249.417	7.85
249.633	-4.44
249.85	-18.77
250.067	-14.68
250.284	26.28
250.501	57
250.717	-47.44
250.934	-49.49
251.151	-59.73
251.368	-33.11
251.585	-53.59
251.801	-6.49
252.018	-14.68
252.235	9.9
252.451	34.47
252.668	32.43
252.885	-18.77
253.102	-6.49
253.318	-2.39
253.535	16.04
253.752	18.09
253.968	-57.68
254.185	3.75
254.401	122.54
254.618	-12.63
254.835	59.05
255.051	63.15
255.268	-0.34
255.484	1.71
255.701	20.14
255.917	81.58
256.134	40.62
256.351	36.52
256.567	50.86
256.784	-53.59
257	20.14
257.217	16.04
257.433	42.67
257.65	71.34
257.866	24.23
258.082	-22.87
258.299	30.38
258.515	5.8
258.732	11.95
258.948	-22.87
259.165	1.71
259.381	1.71
259.597	54.95
259.814	-53.59
260.03	-33.11
260.246	5.8
260.463	-10.58
260.679	-6.49
260.895	22.19
261.112	42.67
261.328	18.09
261.544	-16.73
261.761	54.95
261.977	-26.96
262.193	-0.34
262.409	34.47
262.626	11.95
262.842	73.39
263.058	30.38
263.274	36.52
263.49	18.09
263.707	-2.39
263.923	-24.92
264.139	-29.01
264.355	46.76
264.571	106.15
264.787	52.91
265.004	-20.82
265.22	-37.2
265.436	20.14
265.652	-18.77
265.868	38.57
266.084	18.09
266.3	-49.49
266.516	5.8
266.732	13.99
266.948	91.82
267.164	67.24
267.38	24.23
267.596	-57.68
267.812	-26.96
268.028	-4.44
268.244	40.62
268.46	63.15
268.676	77.48
268.892	-49.49
269.108	-8.53
269.324	1.71
269.54	1.71
269.756	-65.88
269.972	-2.39
270.188	26.28
270.403	-4.44
270.619	-29.01
270.835	11.95
271.051	30.38
271.267	7.85
271.483	-0.34
271.698	-24.92
271.914	38.57
272.13	3.75
272.346	-90.45
272.562	61.1
272.777	3.75
272.993	-8.53
273.209	28.33
273.425	-29.01
273.64	63.15
273.856	38.57
274.072	-35.16
274.287	-16.73
274.503	-8.53
274.719	40.62
274.934	-35.16
275.15	-18.77
275.366	-6.49
275.581	-94.55
275.797	16.04
276.012	-14.68
276.228	9.9
276.444	5.8
276.659	59.05
276.875	-67.92
277.09	32.43
277.306	-39.25
277.521	104.11
277.737	52.91
277.952	77.48
278.168	-26.96
278.383	30.38
278.599	-29.01
278.814	-57.68
279.03	-6.49
279.245	11.95
279.461	22.19
279.676	42.67
279.892	-37.2
280.107	-31.06
280.322	20.14
280.538	28.33
280.753	-43.35
280.969	-55.64
281.184	-31.06
281.399	54.95
281.615	-20.82
281.83	40.62
282.045	22.19
282.26	54.95
282.476	-14.68
282.691	-18.77
282.906	-57.68
283.122	26.28
283.337	-26.96
283.552	22.19
283.767	-22.87
283.983	20.14
284.198	-12.63
284.413	-22.87
284.628	-20.82
284.843	9.9
285.058	57
285.274	24.23
285.489	1.71
285.704	30.38
285.919	-37.2
286.134	26.28
286.349	59.05
286.564	3.75
286.779	71.34
286.995	-8.53
287.21	-10.58
287.425	42.67
287.64	-12.63
287.855	28.33
288.07	61.1
288.285	-16.73
288.5	3.75
288.715	28.33
288.93	-14.68
289.145	-10.58
289.36	-31.06
289.575	-35.16
289.79	5.8
290.004	-22.87
290.219	48.81
290.434	18.09
290.649	7.85
290.864	5.8
291.079	9.9
291.294	-41.3
291.509	40.62
291.724	9.9
291.938	24.23
292.153	-8.53
292.368	40.62
292.583	-2.39
292.798	95.91
293.012	77.48
293.227	46.76
293.442	-20.82
293.657	-29.01
293.871	11.95
294.086	65.19
294.301	-26.96
294.516	-53.59
294.73	-29.01
294.945	-33.11
295.16	-14.68
295.374	69.29
295.589	16.04
295.804	54.95
296.018	30.38
296.233	-45.4
296.447	22.19
296.662	-12.63
296.877	11.95
297.091	11.95
297.306	7.85
297.52	-26.96
297.735	38.57
297.949	-0.34
298.164	-86.36
298.378	22.19
298.593	20.14
298.807	-4.44
299.022	65.19
299.236	38.57
299.451	48.81
299.665	-24.92
299.88	-16.73
300.094	91.82
300.309	16.04
300.523	-4.44
300.737	-22.87
300.952	9.9
301.166	-49.49
301.381	-22.87
301.595	16.04
301.809	-4.44
302.024	7.85
302.238	26.28
302.452	32.43
302.667	-22.87
302.881	5.8
303.095	-6.49
303.309	11.95
303.524	38.57
303.738	32.43
303.952	13.99
304.166	11.95
304.381	20.14
304.595	46.76
304.809	61.1
305.023	54.95
305.237	16.04
305.452	-53.59
305.666	-8.53
305.88	18.09
306.094	-35.16
306.308	-18.77
306.522	30.38
306.736	-26.96
306.95	-22.87
307.164	54.95
307.379	-4.44
307.593	46.76
307.807	3.75
308.021	5.8
308.235	26.28
308.449	24.23
308.663	-33.11
308.877	-16.73
309.091	26.28
309.305	44.71
309.519	-61.78
309.733	13.99
309.947	-59.73
310.161	-26.96
310.374	36.52
310.588	32.43
310.802	-43.35
311.016	22.19
311.23	59.05
311.444	-29.01
311.658	42.67
311.872	-4.44
312.085	22.19
312.299	46.76
312.513	26.28
312.727	-31.06
312.941	-35.16
313.154	5.8
313.368	28.33
313.582	-0.34
313.796	-22.87
314.009	11.95
314.223	16.04
314.437	32.43
314.651	-12.63
314.864	61.1
315.078	7.85
315.292	-49.49
315.505	30.38
315.719	-24.92
315.933	63.15
316.146	71.34
316.36	-65.88
316.573	30.38
316.787	9.9
317.001	9.9
317.214	-10.58
317.428	59.05
317.641	-6.49
317.855	-8.53
318.068	44.71
318.282	46.76
318.495	22.19
318.709	32.43
318.922	38.57
319.136	22.19
319.349	61.1
319.563	-6.49
319.776	-35.16
319.99	-18.77
320.203	-10.58
320.417	-35.16
320.63	-10.58
320.843	1.71
321.057	16.04
321.27	-0.34
321.483	71.34
321.697	-49.49
321.91	30.38
322.124	38.57
322.337	-10.58
322.55	5.8
322.763	-20.82
322.977	7.85
323.19	-35.16
323.403	-39.25
323.617	3.75
323.83	20.14
324.043	5.8
324.256	106.15
324.469	9.9
324.683	5.8
324.896	44.71
325.109	3.75
325.322	-67.92
325.535	61.1
325.748	-53.59
325.962	-16.73
326.175	5.8
326.388	13.99
326.601	48.81
326.814	38.57
327.027	13.99
327.24	-35.16
327.453	38.57
327.666	5.8
327.879	-29.01
328.092	28.33
328.305	-6.49
328.518	-18.77
328.731	-8.53
328.944	46.76
329.157	-29.01
329.37	24.23
329.583	22.19
329.796	-26.96
330.009	24.23
330.222	40.62
330.435	63.15
330.648	-14.68
330.861	59.05
331.073	5.8
331.286	16.04
331.499	-16.73
331.712	-6.49
331.925	-14.68
332.138	-0.34
332.35	63.15
332.563	9.9
332.776	-16.73
332.989	5.8
333.202	34.47
333.414	108.2
333.627	-24.92
333.84	24.23
334.053	20.14
334.265	32.43
334.478	30.38
334.691	54.95
334.903	42.67
335.116	-2.39
335.329	-2.39
335.541	54.95
335.754	30.38
335.966	-6.49
336.179	26.28
336.392	-10.58
336.604	16.04
336.817	24.23
337.029	-16.73
337.242	-31.06
337.454	1.71
337.667	-0.34
337.88	36.52
338.092	-72.02
338.305	-12.63
338.517	46.76
338.729	79.53
338.942	-22.87
339.154	11.95
339.367	13.99
339.579	-26.96
339.792	-39.25
340.004	69.29
340.217	71.34
340.429	5.8
340.641	-47.44
340.854	30.38
341.066	-31.06
341.278	13.99
341.491	20.14
341.703	20.14
341.915	69.29
342.128	36.52
342.34	65.19
342.552	11.95
342.764	-26.96
342.977	13.99
343.189	24.23
343.401	11.95
343.613	13.99
343.826	38.57
344.038	-12.63
344.25	11.95
344.462	-55.64
344.674	42.67
344.886	-39.25
345.099	48.81
345.311	52.91
345.523	18.09
345.735	-47.44
345.947	54.95
346.159	28.33
346.371	5.8
346.583	36.52
346.795	32.43
347.007	42.67
347.219	34.47
347.431	-6.49
347.643	42.67
347.855	-6.49
348.067	-33.11
348.279	48.81
348.491	30.38
348.703	28.33
348.915	26.28
349.127	-55.64
349.339	-10.58
349.551	-10.58
349.763	-10.58
349.975	38.57
350.187	22.19
350.399	24.23
350.61	-6.49
350.822	7.85
351.034	-41.3
351.246	38.57
351.458	-24.92
351.669	-16.73
351.881	38.57
352.093	-10.58
352.305	73.39
352.517	-8.53
352.728	-14.68
352.94	-55.64
353.152	9.9
353.363	-16.73
353.575	7.85
353.787	-2.39
353.999	-24.92
354.21	79.53
354.422	79.53
354.633	-8.53
354.845	-22.87
355.057	89.77
355.268	-0.34
355.48	63.15
355.692	9.9
355.903	18.09
356.115	52.91
356.326	11.95
356.538	-0.34
356.749	42.67
356.961	42.67
357.172	3.75
357.384	73.39
357.595	28.33
357.807	57
358.018	-57.68
358.23	59.05
358.441	13.99
358.653	54.95
358.864	-51.54
359.075	71.34
359.287	7.85
359.498	69.29
359.709	97.96
359.921	36.52
360.132	-53.59
360.344	-39.25
360.555	73.39
360.766	20.14
360.977	-6.49
361.189	48.81
361.4	-0.34
361.611	-10.58
361.823	42.67
362.034	59.05
362.245	7.85
362.456	-33.11
362.667	63.15
362.879	32.43
363.09	11.95
363.301	42.67
363.512	22.19
363.723	-20.82
363.935	9.9
364.146	-49.49
364.357	-0.34
364.568	61.1
364.779	-10.58
364.99	75.43
365.201	11.95
365.412	16.04
365.623	9.9
365.834	-6.49
366.045	57
366.256	22.19
366.467	7.85
366.678	16.04
366.889	54.95
367.1	65.19
367.311	-16.73
367.522	-26.96
367.733	67.24
367.944	3.75
368.155	26.28
368.366	149.16
368.577	-53.59
368.788	-86.36
368.999	-61.78
369.209	-24.92
369.42	48.81
369.631	69.29
369.842	57
370.053	-2.39
370.264	16.04
370.474	20.14
370.685	7.85
370.896	38.57
371.107	-0.34
371.317	-10.58
371.528	13.99
371.739	-4.44
371.95	-43.35
372.16	38.57
372.371	54.95
372.582	52.91
372.792	-4.44
373.003	26.28
373.214	44.71
373.424	59.05
373.635	-12.63
373.846	-35.16
374.056	-20.82
374.267	46.76
374.477	34.47
374.688	20.14
374.898	75.43
375.109	42.67
375.319	5.8
375.53	1.71
375.74	5.8
375.951	-26.96
376.161	42.67
376.372	38.57
376.582	9.9
376.793	7.85
377.003	40.62
377.214	59.05
377.424	32.43
377.635	-8.53
377.845	-29.01
378.055	34.47
378.266	-26.96
378.476	5.8
378.686	18.09
378.897	13.99
379.107	1.71
379.317	11.95
379.528	-10.58
379.738	93.87
379.948	-12.63
380.158	-45.4
380.369	-55.64
380.579	-0.34
380.789	-49.49
380.999	-57.68
381.21	-26.96
381.42	65.19
381.63	28.33
381.84	22.19
382.05	24.23
382.261	54.95
382.471	28.33
382.681	-33.11
382.891	63.15
383.101	67.24
383.311	30.38
383.521	-20.82
383.731	9.9
383.941	67.24
384.151	38.57
384.361	36.52
384.571	-53.59
384.781	-18.77
384.991	-47.44
385.201	140.97
385.411	65.19
385.621	71.34
385.831	-22.87
386.041	65.19
386.251	-35.16
386.461	-14.68
386.671	-0.34
386.881	11.95
387.091	28.33
387.301	130.73
387.511	-12.63
387.72	13.99
387.93	30.38
388.14	28.33
388.35	-16.73
388.56	46.76
388.769	30.38
388.979	-0.34
389.189	44.71
389.399	26.28
389.609	-24.92
389.818	79.53
390.028	-31.06
390.238	32.43
390.447	36.52
390.657	22.19
390.867	-26.96
391.076	7.85
391.286	-2.39
391.496	-8.53
391.705	5.8
391.915	50.86
392.125	22.19
392.334	-4.44
392.544	-49.49
392.753	71.34
392.963	7.85
393.172	73.39
393.382	52.91
393.591	-10.58
393.801	13.99
394.01	65.19
394.22	-26.96
394.429	73.39
394.639	38.57
394.848	20.14
395.058	50.86
395.267	-12.63
395.477	65.19
395.686	44.71
395.895	11.95
396.105	30.38
396.314	-2.39
396.524	59.05
396.733	46.76
396.942	54.95
397.152	102.06
397.361	26.28
397.57	-16.73
397.78	16.04
397.989	36.52
398.198	22.19
398.407	16.04
398.617	3.75
398.826	50.86
399.035	61.1
399.244	44.71
399.453	65.19
399.663	67.24
399.872	18.09
400.081	20.14
400.29	1.71
400.499	26.28
400.708	116.39
400.917	5.8
401.127	16.04
401.336	-37.2
401.545	5.8
401.754	67.24
401.963	61.1
402.172	22.19
402.381	-14.68
402.59	-35.16
402.799	30.38
403.008	22.19
403.217	22.19
403.426	69.29
403.635	79.53
403.844	-24.92
404.053	59.05
404.262	-49.49
404.471	59.05
404.68	-51.54
404.888	42.67
405.097	3.75
405.306	26.28
405.515	-0.34
405.724	71.34
405.933	30.38
406.142	108.2
406.35	-4.44
406.559	30.38
406.768	-14.68
406.977	7.85
407.185	-2.39
407.394	124.58
407.603	73.39
407.812	71.34
408.02	38.57
408.229	87.72
408.438	93.87
408.646	46.76
408.855	16.04
409.064	-22.87
409.272	65.19
409.481	40.62
409.69	69.29
409.898	22.19
410.107	87.72
410.315	73.39
410.524	36.52
410.733	67.24
410.941	18.09
411.15	77.48
411.358	79.53
411.567	42.67
411.775	132.78
411.984	87.72
412.192	83.63
412.401	100.01
412.609	126.63
412.818	38.57
413.026	77.48
413.234	106.15
413.443	30.38
413.651	63.15
413.86	126.63
414.068	140.97
414.276	50.86
414.485	100.01
414.693	128.68
414.901	153.26
415.11	81.58
415.318	97.96
415.526	134.82
415.734	175.78
415.943	181.93
416.151	153.26
416.359	108.2
416.567	124.58
416.776	89.77
416.984	151.21
417.192	169.64
417.4	177.83
417.608	216.74
417.817	179.88
418.025	173.74
418.233	220.84
418.441	231.08
418.649	157.35
418.857	274.09
419.065	231.08
419.273	226.98
419.481	317.09
419.689	321.19
419.897	265.89
420.105	286.37
420.313	351.91
420.521	347.81
420.729	315.05
420.937	296.61
421.145	280.23
421.353	374.44
421.561	407.2
421.769	325.29
421.977	425.64
422.185	368.29
422.393	396.96
422.601	380.58
422.809	392.87
423.017	425.64
423.224	415.4
423.432	435.88
423.64	409.25
423.848	468.64
424.056	505.51
424.263	497.32
424.471	536.23
424.679	575.14
424.887	609.95
425.094	560.8
425.302	612
425.51	601.76
425.718	669.34
425.925	640.67
426.133	646.82
426.341	693.92
426.548	769.69
426.756	693.92
426.964	714.4
427.171	702.11
427.379	802.46
427.586	827.04
427.794	796.32
428.001	865.95
428.209	886.43
428.417	919.2
428.624	1007.26
428.832	978.59
429.039	927.39
429.247	917.15
429.454	1080.99
429.662	1037.98
429.869	1009.31
430.076	997.02
430.284	1123.99
430.491	1119.9
430.699	1162.9
430.906	1123.99
431.114	1246.87
431.321	1271.45
431.528	1242.78
431.736	1275.54
431.943	1361.56
432.15	1355.41
432.358	1386.13
432.565	1482.39
432.772	1447.57
432.979	1547.92
433.187	1517.2
433.394	1570.45
433.601	1642.13
433.808	1619.6
434.016	1584.79
434.223	1678.99
434.43	1851.02
434.637	1937.04
434.844	1879.69
435.052	1922.7
435.259	1986.19
435.466	1941.13
435.673	1955.47
435.88	2156.17
436.087	2197.13
436.294	2178.7
436.501	1967.76
436.708	2203.27
436.915	2328.2
437.122	2254.47
437.329	2449.03
437.537	2424.45
437.743	2424.45
437.95	2397.83
438.157	2662.02
438.364	2623.11
438.571	2680.45
438.778	2555.52
438.985	2981.5
439.192	2670.21
439.399	2905.73
439.606	2799.23
439.813	2899.58
440.02	3065.47
440.227	3108.48
440.433	3044.99
440.64	3231.35
440.847	3100.28
441.054	3323.51
441.261	3380.86
441.467	3421.81
441.674	3479.16
441.881	3501.69
442.088	3579.51
442.294	3546.74
442.501	3571.32
442.708	3786.35
442.914	4036.21
443.121	4036.21
443.328	3731.06
443.534	4208.23
443.741	3989.1
443.948	3884.66
444.154	4294.25
444.361	4286.06
444.568	4367.98
444.774	4296.3
444.981	4253.29
445.187	4503.14
445.394	4617.83
445.6	4650.6
445.807	5189.21
446.013	4912.74
446.22	4847.2
446.426	5101.15
446.633	5082.72
446.839	5506.65
447.046	5154.4
447.252	5447.26
447.459	5418.58
447.665	5334.62
447.871	5604.95
448.078	5977.68
448.284	5678.68
448.491	5731.92
448.697	5865.04
448.903	6049.36
449.11	6028.88
449.316	6133.33
449.522	6239.82
449.728	6262.35
449.935	6452.81
450.141	6547.01
450.347	6565.45
450.553	6348.36
450.76	6413.9
450.966	6684.23
451.172	6577.73
451.378	6866.5
451.584	6594.12
451.791	6747.72
451.997	6827.59
452.203	6874.69
452.409	6823.49
452.615	7034.43
452.821	6653.51
453.027	6571.59
453.233	6950.46
453.44	6690.37
453.646	6815.3
453.852	6811.2
454.058	6921.79
454.264	6794.82
454.47	6862.4
454.676	6733.38
454.882	6975.04
455.088	6305.35
455.294	6538.82
455.5	6604.36
455.705	6497.86
455.911	6452.81
456.117	6078.03
456.323	6114.89
456.529	5758.55
456.735	6176.33
456.941	5836.37
457.147	5879.38
457.352	5742.16
457.558	5690.96
457.764	5627.48
457.97	5502.55
458.176	5402.2
458.381	5494.36
458.587	5285.47
458.793	5174.88
458.999	4877.92
459.204	5254.75
459.41	5260.89
459.616	4836.96
459.821	4763.23
460.027	4830.82
460.233	4634.21
460.438	4605.54
460.644	4537.96
460.85	4290.15
461.055	4394.6
461.261	4277.87
461.466	3919.47
461.672	3888.75
461.878	4025.97
462.083	3898.99
462.289	3790.45
462.494	3843.7
462.7	3606.13
462.905	3624.56
463.111	3624.56
463.316	3649.14
463.522	3675.76
463.727	3645.04
463.932	3548.79
464.138	3587.7
464.343	3552.88
464.549	3462.77
464.754	3530.36
464.959	3577.46
465.165	3632.76
465.37	3421.81
465.575	3360.38
465.781	3432.05
465.986	3419.77
466.191	3366.52
466.397	3276.41
466.602	3206.78
466.807	3296.89
467.012	3341.94
467.218	3208.83
467.423	3122.81
467.628	3309.18
467.833	3356.28
468.038	3204.73
468.244	3194.49
468.449	3374.71
468.654	3198.59
468.859	3194.49
469.064	3096.19
469.269	3061.37
469.474	3063.42
469.679	3104.38
469.885	3024.51
470.09	3102.33
470.295	2991.74
470.5	2850.43
470.705	3063.42
470.91	3012.22
471.115	2875.01
471.32	2764.42
471.525	2825.86
471.73	2920.06
471.935	2895.49
472.139	2684.55
472.344	2807.42
472.549	2776.7
472.754	2748.03
472.959	2676.35
473.164	2670.21
473.369	2608.77
473.574	2553.48
473.778	2588.29
473.983	2686.59
474.188	2537.09
474.393	2621.06
474.598	2473.6
474.802	2449.03
475.007	2528.9
475.212	2487.94
475.417	2369.16
475.621	2352.77
475.826	2315.91
476.031	2197.13
476.235	2227.85
476.44	2221.7
476.645	2193.03
476.849	2320.01
477.054	2223.75
477.259	2231.94
477.463	2203.27
477.668	2125.45
477.872	2057.87
478.077	2123.4
478.282	2072.2
478.486	2025.1
478.691	2176.65
478.895	2053.77
479.1	2180.75
479.304	1994.38
479.509	1924.75
479.713	2047.63
479.918	1926.8
480.122	1957.52
480.326	1990.28
480.531	1867.41
480.735	1898.13
480.94	1904.27
481.144	2053.77
481.348	1877.65
481.553	1797.78
481.757	1808.02
481.961	1848.97
482.166	1965.71
482.37	1834.64
482.574	1838.73
482.778	1805.97
482.983	1887.89
483.187	1910.41
483.391	1918.61
483.595	1857.17
483.8	1963.66
484.004	1896.08
484.208	1941.13
484.412	1982.09
484.616	1963.66
484.821	1920.65
485.025	1904.27
485.229	2031.24
485.433	1898.13
485.637	1814.16
485.841	1926.8
486.045	1873.55
486.249	1894.03
486.453	2023.05
486.657	2004.62
486.861	1930.89
487.065	2049.68
487.269	1996.43
487.473	1912.46
487.677	1992.33
487.881	1982.09
488.085	1955.47
488.289	1984.14
488.493	2010.76
488.697	2100.87
488.901	1996.43
489.105	2061.96
489.309	2016.91
489.512	2070.16
489.716	1857.17
489.92	2012.81
490.124	2027.15
490.328	2055.82
490.531	2064.01
490.735	2090.63
490.939	2123.4
491.143	2064.01
491.346	2107.02
491.55	1982.09
491.754	2264.71
491.958	2168.46
492.161	2152.07
492.365	2090.63
492.569	2145.93
492.772	2240.14
492.976	2258.57
493.18	2324.1
493.383	2293.38
493.587	2385.54
493.79	2326.15
493.994	2336.39
494.197	2346.63
494.401	2375.3
494.605	2334.34
494.808	2426.5
495.012	2483.84
495.215	2551.43
495.419	2551.43
495.622	2563.72
495.825	2608.77
496.029	2530.95
496.232	2586.24
496.436	2573.96
496.639	2619.01
496.843	2645.63
497.046	2690.69
497.249	2836.1
497.453	2764.42
497.656	2860.67
497.859	3014.27
498.063	3012.22
498.266	2993.79
498.469	2961.02
498.673	2975.36
498.876	3065.47
499.079	3102.33
499.282	3149.43
499.485	3247.74
499.689	3135.1
499.892	3315.32
500.095	3296.89
500.298	3300.98
500.501	3468.92
500.705	3366.52
500.908	3597.94
501.111	3462.77
501.314	3526.26
501.517	3624.56
501.72	3706.48
501.923	3673.71
502.126	3698.29
502.329	3954.29
502.532	3913.33
502.735	3878.51
502.938	4193.9
503.141	4132.46
503.344	4134.51
503.547	4220.52
503.75	4216.43
503.953	4314.73
504.156	4441.7
504.359	4353.64
504.562	4552.29
504.765	4497
504.968	4521.57
505.17	4701.79
505.373	4746.85
505.576	4793.95
505.779	4841.06
505.982	5041.76
506.185	5082.72
506.387	5131.87
506.59	5164.64
506.793	5207.64
506.996	5230.17
507.198	5289.56
507.401	5183.07
507.604	5420.63
507.807	5496.41
508.009	5695.06
508.212	5547.61
508.415	5875.28
508.617	5920.34
508.82	6016.59
509.022	6006.35
509.225	6000.21
509.428	6010.45
509.63	6262.35
509.833	6229.58
510.035	6389.32
510.238	6344.27
510.44	6540.87
510.643	6522.44
510.845	6948.42
511.048	6694.47
511.25	6725.19
511.453	6891.07
511.655	7196.22
511.858	6907.46
512.06	7177.79
512.262	7276.09
512.465	7272
512.667	7515.7
512.87	7585.33
513.072	7673.4
513.274	7609.91
513.477	7685.69
513.679	7853.62
513.881	8023.6
514.084	7986.74
514.286	7937.59
514.488	8293.93
514.69	8328.75
514.893	8539.69
515.095	8502.82
515.297	8625.7
515.499	8642.09
515.701	8793.64
515.904	8898.08
516.106	9117.22
516.308	9041.44
516.51	9070.11
516.712	9203.23
516.914	9391.64
517.116	9631.26
517.318	9668.12
517.52	9670.17
517.722	9582.1
517.925	9952.79
518.127	9911.83
518.329	9920.02
518.531	9963.03
518.733	10268.17
518.935	10507.79
519.136	10307.09
519.338	10362.38
519.54	10700.3
519.742	10722.82
519.944	10847.75
520.146	10821.13
520.348	10984.96
520.55	11089.41
520.752	11105.79
520.954	11431.42
521.155	11144.7
521.357	11456
521.559	11671.03
521.761	11728.38
521.963	11353.6
522.164	11816.44
522.366	11967.99
522.568	11941.36
522.77	12121.59
522.971	12357.1
523.173	12041.71
523.375	12451.31
523.576	12455.4
523.778	12264.94
523.98	12596.71
524.181	12740.07
524.383	12588.52
524.584	13039.08
524.786	12979.68
524.988	12828.13
525.189	12891.62
525.391	13219.3
525.592	13186.53
525.794	13305.31
525.995	13176.29
526.197	13272.54
526.398	13542.88
526.6	13546.97
526.801	13809.11
527.003	13714.91
527.204	13485.53
527.406	13755.86
527.607	13948.37
527.808	13798.87
528.01	13688.28
528.211	13950.42
528.412	14253.52
528.614	14061.01
528.815	14118.36
529.016	14341.58
529.218	14144.98
529.419	14312.91
529.62	14380.5
529.822	14382.54
530.023	14507.47
530.224	14480.85
530.425	14865.86
530.626	14573
530.828	14407.12
531.029	14874.06
531.23	14624.2
531.431	14859.72
531.632	14437.84
531.833	14943.69
532.035	14788.04
532.236	15011.27
532.437	14974.41
532.638	14882.25
532.839	14888.39
533.04	15013.32
533.241	14863.82
533.442	15310.27
533.643	15009.22
533.844	14990.79
534.045	15111.62
534.246	15060.42
534.447	15175.11
534.648	15072.71
534.849	15482.3
535.05	15193.54
535.251	15621.56
535.451	15087.04
535.652	15218.11
535.853	15394.24
536.054	15549.89
536.255	15218.11
536.456	15078.85
536.657	15775.16
536.857	15441.34
537.058	15508.93
537.259	15451.58
537.46	15535.55
537.66	15668.67
537.861	15676.86
538.062	15427.01
538.263	15652.28
538.463	15513.02
538.664	15232.45
538.865	15850.94
539.065	15703.48
539.266	15506.88
539.466	15836.6
539.667	15742.39
539.868	15748.54
540.068	15545.79
540.269	15740.35
540.469	16086.45
540.67	15799.74
540.87	15621.56
541.071	15949.24
541.271	15764.92
541.472	15754.68
541.672	16051.64
541.873	15914.42
542.073	15709.63
542.274	16102.84
542.474	15812.03
542.675	15711.67
542.875	15963.58
543.075	15797.69
543.276	15758.78
543.476	16309.68
543.676	15996.34
543.877	15975.86
544.077	15984.05
544.277	16037.3
544.478	15984.05
544.678	15916.47
544.878	16088.5
545.078	15805.88
545.279	15965.62
545.479	15734.2
545.679	16168.37
545.879	15967.67
546.079	16229.81
546.28	15951.29
546.48	15910.33
546.68	16405.94
546.88	16033.21
547.08	16004.53
547.28	16041.4
547.48	15809.98
547.68	16258.48
547.88	15902.14
548.081	16235.95
548.281	16188.85
548.481	15805.88
548.681	16313.78
548.881	16151.99
549.081	16012.73
549.28	15867.32
549.48	16168.37
549.68	15990.2
549.88	16479.66
550.08	16254.39
550.28	16293.3
550.48	16186.8
550.68	16313.78
550.88	15975.86
551.08	16070.07
551.279	16117.17
551.479	16086.45
551.679	16379.31
551.879	16213.43
552.079	16201.14
552.278	16252.34
552.478	16420.27
552.678	16051.64
552.878	16299.44
553.077	16297.39
553.277	16076.21
553.477	16364.98
553.676	16192.95
553.876	15918.52
554.076	16141.75
554.275	16225.72
554.475	15910.33
554.674	16184.76
554.874	16149.94
555.074	16123.32
555.273	16291.25
555.473	16117.17
555.672	16059.83
555.872	15930.81
556.071	16162.23
556.271	16266.67
556.47	15867.32
556.67	16082.36
556.869	16135.6
557.068	16266.67
557.268	16145.84
557.467	15977.91
557.667	16156.08
557.866	16006.58
558.065	16082.36
558.265	15998.39
558.464	15902.14
558.663	16293.3
558.863	15797.69
559.062	16119.22
559.261	15908.28
559.461	16129.46
559.66	16018.87
559.859	16057.78
560.058	15873.46
560.258	15943.1
560.457	15906.23
560.656	16276.91
560.855	15877.56
561.054	16113.08
561.253	15873.46
561.453	15912.38
561.652	15941.05
561.851	16043.45
562.05	15793.59
562.249	15904.18
562.448	15934.9
562.647	15814.07
562.846	15949.24
563.045	15824.31
563.244	15748.54
563.443	15826.36
563.642	15975.86
563.841	16047.54
564.04	15678.91
564.239	16033.21
564.438	15881.66
564.637	15865.27
564.836	15812.03
565.035	15642.04
565.234	16029.11
565.432	15836.6
565.631	15824.31
565.83	15713.72
566.029	15656.38
566.228	15711.67
566.427	15814.07
566.625	15717.82
566.824	15572.41
567.023	15807.93
567.222	15533.5
567.42	15801.79
567.619	15695.29
567.818	15842.74
568.016	15670.72
568.215	15824.31
568.414	15695.29
568.612	15842.74
568.811	15799.74
569.01	15883.7
569.208	15496.64
569.407	15537.6
569.605	15474.11
569.804	15660.48
570.002	15488.45
570.201	15486.4
570.4	15089.09
570.598	15420.86
570.797	15422.91
570.995	15377.86
571.193	15429.06
571.392	15535.55
571.59	15334.85
571.789	15189.44
571.987	15529.41
572.186	15082.95
572.384	15269.31
572.582	15357.38
572.781	15302.08
572.979	15175.11
573.177	15226.31
573.376	15089.09
573.574	14835.14
573.772	15148.48
573.971	15066.56
574.169	15091.14
574.367	14984.65
574.565	15168.96
574.763	15013.32
574.962	15029.7
575.16	14685.64
575.358	14800.33
575.556	14702.03
575.754	15168.96
575.952	14847.43
576.151	14921.16
576.349	14566.86
576.547	14530
576.745	14710.22
576.943	14728.65
577.141	14792.14
577.339	14859.72
577.537	14659.02
577.735	14357.97
577.933	14534.09
578.131	14568.91
578.329	14472.65
578.527	14405.07
578.725	14482.89
578.923	14486.99
579.121	14357.97
579.319	14271.95
579.516	14357.97
579.714	14382.54
579.912	14339.54
580.11	14362.06
580.308	14353.87
580.506	14345.68
580.704	14073.3
580.901	14214.61
581.099	14155.22
581.297	14181.84
581.495	14054.87
581.692	14130.64
581.89	14042.58
582.088	13966.81
582.285	13925.85
582.483	14183.89
582.681	13925.85
582.878	13862.36
583.076	13710.81
583.274	13827.54
583.471	13684.19
583.669	13835.74
583.866	13508.06
584.064	13524.44
584.262	13305.31
584.459	13673.95
584.657	13544.92
584.854	13491.68
585.052	13243.87
585.249	13411.81
585.447	13499.87
585.644	13338.08
585.841	13219.3
586.039	13706.71
586.236	13223.39
586.434	13325.79
586.631	12955.11
586.828	13067.75
587.026	13280.74
587.223	13407.71
587.42	13082.08
587.618	12977.64
587.815	13006.31
588.012	12815.85
588.21	13016.55
588.407	12875.24
588.604	12996.07
588.801	13094.37
588.999	12953.06
589.196	13098.47
589.393	12940.77
589.59	12803.56
589.787	12768.74
589.984	12660.2
590.182	12576.23
590.379	12828.13
590.576	12598.76
590.773	12512.75
590.97	12770.79
591.167	12627.43
591.364	12285.42
591.561	12625.39
591.758	12367.34
591.955	12439.02
592.152	12387.82
592.349	12189.17
592.546	12115.44
592.743	12135.92
592.94	11945.46
593.137	12289.52
593.334	12142.07
593.531	11902.45
593.727	12432.88
593.924	12144.11
594.121	11884.02
594.318	12144.11
594.515	11816.44
594.712	12127.73
594.908	11988.47
595.105	11894.26
595.302	11738.62
595.499	11857.4
595.696	11664.89
595.892	11787.77
596.089	11836.92
596.286	11798.01
596.482	11585.02
596.679	11435.52
596.876	11787.77
597.072	11660.79
597.269	11539.96
597.466	11441.66
597.662	11394.56
597.859	11238.91
598.055	11625.98
598.252	11533.82
598.448	11404.8
598.645	11357.69
598.841	11253.25
599.038	11421.18
599.234	11355.65
599.431	11062.79
599.627	11093.51
599.824	11116.03
600.02	11236.86
600.217	11146.75
600.413	11335.17
600.609	10913.28
600.806	10886.66
601.002	11093.51
601.198	10905.09
601.395	10868.23
601.591	10794.5
601.787	10825.22
601.984	10554.89
602.18	11007.49
602.376	10706.44
602.572	10528.27
602.769	10583.56
602.965	10567.18
603.161	10399.24
603.357	10569.23
603.553	10788.36
603.75	10466.83
603.946	10415.63
604.142	10503.69
604.338	10118.67
604.534	10319.37
604.73	10139.15
604.926	10290.7
605.122	10282.51
605.318	10126.86
605.514	10284.56
605.71	10061.33
605.906	10096.14
606.102	10237.45
606.298	10022.42
606.494	9915.92
606.69	10098.19
606.886	10051.09
607.082	9825.81
607.278	10188.3
607.474	9909.78
607.67	9831.96
607.866	9661.98
608.062	9799.19
608.257	9868.82
608.453	9842.2
608.649	9852.44
608.845	9756.18
609.041	9819.67
609.236	9954.83
609.432	9784.85
609.628	9653.78
609.824	9487.9
610.019	9707.03
610.215	9578.01
610.411	9543.19
610.606	9475.61
610.802	9524.76
610.998	9610.78
611.193	9535
611.389	9408.03
611.584	9481.75
611.78	9369.12
611.976	9569.82
612.171	9387.55
612.367	9489.95
612.562	9096.74
612.758	8984.1
612.953	9250.33
613.149	9405.98
613.344	9215.52
613.539	9494.04
613.735	9377.31
613.93	9127.46
614.126	9332.25
614.321	9289.24
614.517	9313.82
614.712	9045.54
614.907	9149.98
615.103	8939.04
615.298	9061.92
615.493	9084.45
615.688	8949.28
615.884	9152.03
616.079	8928.8
616.274	8986.15
616.47	8912.42
616.665	8922.66
616.86	8828.45
617.055	8738.34
617.25	8941.09
617.445	8857.12
617.641	8797.73
617.836	9018.91
618.031	8650.28
618.226	8705.57
618.421	8781.35
618.616	8779.3
618.811	8613.42
619.006	8633.89
619.201	8381.99
619.396	8513.06
619.591	8457.77
619.786	8668.71
619.981	8234.54
620.176	8504.87
620.371	8404.52
620.566	8310.32
620.761	8326.7
620.956	8300.08
621.151	8101.42
621.346	8138.29
621.541	7956.02
621.735	8291.88
621.93	7960.11
622.125	7964.21
622.32	7822.9
622.515	7943.73
622.709	7910.96
622.904	7822.9
623.099	7943.73
623.294	7716.4
623.488	7695.93
623.683	7874.1
623.878	7552.57
624.072	7644.73
624.267	7368.25
624.462	7501.37
624.656	7327.29
624.851	7376.44
625.046	7394.87
625.24	7358.01
625.435	7333.43
625.629	7360.06
625.824	7351.87
626.018	7274.04
626.213	7128.64
626.407	7173.69
626.602	7026.24
626.796	7120.45
626.991	7171.65
627.185	7081.53
627.38	7024.19
627.574	6966.85
627.768	6725.19
627.963	6929.98
628.157	6780.48
628.352	6882.88
628.546	6843.97
628.74	6897.22
628.935	6608.45
629.129	6690.37
629.323	6590.02
629.517	6714.95
629.712	6581.83
629.906	6481.48
630.1	6473.29
630.294	6581.83
630.489	6323.79
630.683	6446.66
630.877	6176.33
631.071	6315.59
631.265	6463.05
631.459	6250.06
631.653	6309.45
631.848	6256.2
632.042	6041.17
632.236	6147.66
632.43	6075.98
632.624	6047.31
632.818	6069.84
633.012	5967.44
633.206	5895.76
633.4	5973.58
633.594	5912.14
633.788	5961.3
633.982	5887.57
634.176	5848.66
634.369	5848.66
634.563	5707.35
634.757	5736.02
634.951	5748.31
635.145	5680.72
635.339	5568.09
635.533	5596.76
635.726	5584.47
635.92	5535.32
636.114	5541.46
636.308	5512.79
636.501	5647.96
636.695	5449.3
636.889	5389.91
637.083	5441.11
637.276	5328.47
637.47	5504.6
637.664	5281.37
637.857	5240.41
638.051	5166.68
638.244	5324.38
638.438	5232.22
638.632	5144.16
638.825	5105.24
639.019	5004.89
639.212	5107.29
639.406	5174.88
639.599	5052
639.793	5004.89
639.986	4910.69
640.18	4947.55
640.373	4980.32
640.567	4867.68
640.76	4896.35
640.954	4798.05
641.147	4861.54
641.34	4898.4
641.534	4859.49
641.727	4726.37
641.92	4894.3
642.114	4740.71
642.307	4709.99
642.5	4628.07
642.694	4423.27
642.887	4499.05
643.08	4626.02
643.273	4480.61
643.467	4515.43
643.66	4468.33
643.853	4437.61
644.046	4357.74
644.239	4437.61
644.432	4460.13
644.626	4345.45
644.819	4400.74
645.012	4327.02
645.205	4329.06
645.398	4355.69
645.591	4281.96
645.784	4150.89
645.977	4132.46
646.17	4261.48
646.363	4163.18
646.556	4079.21
646.749	4093.55
646.942	4066.92
647.135	4007.53
647.328	4083.31
647.521	4077.16
647.714	3948.14
647.907	3892.85
648.099	3845.74
648.292	3962.48
648.485	3991.15
648.678	3655.28
648.871	3878.51
649.064	3753.59
649.256	3837.55
649.449	3788.4
649.642	3645.04
649.835	3790.45
650.027	3661.43
650.22	3700.34
650.413	3612.28
650.605	3550.84
650.798	3614.32
650.991	3528.31
651.183	3643
651.376	3579.51
651.568	3434.1
651.761	3540.6
651.954	3446.39
652.146	3487.35
652.339	3401.33
652.531	3448.44
652.724	3337.85
652.916	3358.33
653.109	3253.88
653.301	3378.81
653.494	3243.64
653.686	3088
653.879	3303.03
654.071	3278.46
654.263	3202.68
654.456	3389.05
654.648	3272.31
654.84	3116.67
655.033	3196.54
655.225	3110.52
655.417	3026.56
655.61	3044.99
655.802	3044.99
655.994	2942.59
656.186	3022.46
656.379	2993.79
656.571	2936.45
656.763	2942.59
656.955	2963.07
657.148	2969.21
657.34	2950.78
657.532	2920.06
657.724	2872.96
657.916	2811.52
658.108	2725.51
658.3	2799.23
658.492	2758.27
658.684	2610.82
658.876	2639.49
659.068	2696.83
659.26	2655.87
659.452	2709.12
659.644	2770.56
659.836	2604.67
660.028	2625.15
660.22	2539.14
660.412	2492.04
660.604	2553.48
660.796	2475.65
660.988	2461.32
661.18	2348.68
661.372	2395.78
661.563	2426.5
661.755	2313.86
661.947	2479.75
662.139	2324.1
662.331	2324.1
662.522	2424.45
662.714	2266.76
662.906	2315.91
663.097	2295.43
663.289	2287.24
663.481	2266.76
663.673	2203.27
663.864	2131.59
664.056	2281.1
664.247	2195.08
664.439	2160.27
664.631	2154.12
664.822	2186.89
665.014	2215.56
665.205	1990.28
665.397	1978
665.588	2049.68
665.78	2064.01
665.971	2059.92
666.163	2041.48
666.354	2057.87
666.546	1998.48
666.737	1961.61
666.929	1873.55
667.12	2049.68
667.311	1891.98
667.503	1877.65
667.694	1808.02
667.885	1898.13
668.077	1877.65
668.268	1777.3
668.459	1859.21
668.651	1812.11
668.842	1871.5
669.033	1826.45
669.224	1687.18
669.416	1814.16
669.607	1697.42
669.798	1756.82
669.989	1701.52
670.18	1713.81
670.371	1681.04
670.563	1599.12
670.754	1724.05
670.945	1687.18
671.136	1611.41
671.327	1660.56
671.518	1640.08
671.709	1605.27
671.9	1656.47
672.091	1590.93
672.282	1627.79
672.473	1549.97
672.664	1656.47
672.855	1621.65
673.046	1525.4
673.237	1613.46
673.428	1423
673.619	1494.68
673.809	1535.64
674	1429.14
674.191	1480.34
674.382	1441.43
674.573	1537.68
674.764	1531.54
674.954	1466
675.145	1486.48
675.336	1412.76
675.527	1429.14
675.717	1377.94
675.908	1390.23
676.099	1535.64
676.289	1476.24
676.48	1470.1
676.671	1406.61
676.861	1451.67
677.052	1357.46
677.243	1332.89
677.433	1375.89
677.624	1334.93
677.814	1441.43
678.005	1339.03
678.195	1439.38
678.386	1369.75
678.576	1363.61
678.767	1371.8
678.957	1326.74
679.148	1238.68
679.338	1296.02
679.529	1283.74
679.719	1308.31
679.909	1238.68
680.1	1275.54
680.29	1326.74
680.481	1343.13
680.671	1304.21
680.861	1296.02
681.052	1257.11
681.242	1253.02
681.432	1324.69
681.622	1185.43
681.813	1177.24
682.003	1232.54
682.193	1281.69
682.383	1304.21
682.573	1169.05
682.764	1201.82
682.954	1279.64
683.144	1261.21
683.334	1230.49
683.524	1189.53
683.714	1162.9
683.904	1187.48
684.094	1179.29
684.284	1244.82
684.474	1265.3
684.664	1267.35
684.854	1197.72
685.044	1201.82
685.234	1220.25
685.424	1293.97
685.614	1267.35
685.804	1277.59
685.994	1179.29
686.184	1187.48
686.374	1130.14
686.564	1177.24
686.753	1232.54
686.943	1212.06
687.133	1136.28
687.323	1306.26
687.513	1273.5
687.702	1242.78
687.892	1115.8
688.082	1306.26
688.272	1236.63
688.461	1216.15
688.651	1146.52
688.841	1279.64
689.03	1279.64
689.22	1099.42
689.41	1181.34
689.599	1293.97
689.789	1291.93
689.979	1197.72
690.168	1078.94
690.358	1195.67
690.547	1201.82
690.737	1263.26
690.926	1320.6
691.116	1167
691.305	1275.54
691.495	1193.62
691.684	1195.67
691.874	1271.45
692.063	1214.1
692.252	1138.33
692.442	1187.48
692.631	1289.88
692.82	1212.06
693.01	1189.53
693.199	1234.58
693.388	1357.46
693.578	1271.45
693.767	1300.12
693.956	1242.78
694.146	1212.06
694.335	1267.35
694.524	1175.19
694.713	1205.91
694.902	1271.45
695.092	1191.58
695.281	1187.48
695.47	1179.29
695.659	1130.14
695.848	1128.09
696.037	1169.05
696.226	1162.9
696.415	1146.52
696.604	1076.89
696.793	1189.53
696.982	1154.71
697.171	1162.9
697.36	1097.37
697.549	1162.9
697.738	1158.81
697.927	1177.24
698.116	1099.42
698.305	1103.51
698.494	1154.71
698.683	1197.72
698.872	1087.13
699.061	1109.66
699.25	992.92
699.438	1093.27
699.627	1072.79
699.816	1158.81
700.005	1152.67
700.193	1128.09
700.382	1144.47
700.571	1136.28
700.76	1136.28
700.948	1078.94
701.137	1054.36
701.326	988.83
701.514	1066.65
701.703	1095.32
701.892	1085.08
702.08	1046.17
702.269	1085.08
702.457	1001.12
702.646	1062.55
702.834	1023.64
703.023	984.73
703.212	997.02
703.4	1021.6
703.589	1017.5
703.777	990.88
703.965	1015.45
704.154	927.39
704.342	986.78
704.531	974.49
704.719	1062.55
704.907	939.68
705.096	962.2
705.284	929.44
705.472	1017.5
705.661	1029.79
705.849	1003.16
706.037	962.2
706.226	902.81
706.414	933.53
706.602	990.88
706.79	900.76
706.979	956.06
707.167	882.33
707.355	939.68
707.543	919.2
707.731	882.33
707.919	888.48
708.107	906.91
708.296	882.33
708.484	886.43
708.672	865.95
708.86	917.15
709.048	925.34
709.236	888.48
709.424	882.33
709.612	900.76
709.8	874.14
709.988	810.65
710.176	943.77
710.364	808.61
710.551	835.23
710.739	775.84
710.927	876.19
711.115	837.28
711.303	853.66
711.491	802.46
711.679	837.28
711.866	798.37
712.054	761.5
712.242	781.98
712.43	833.18
712.617	829.09
712.805	827.04
712.993	892.57
713.181	745.12
713.368	835.23
713.556	775.84
713.744	859.81
713.931	728.74
714.119	792.22
714.306	777.89
714.494	808.61
714.682	796.32
714.869	775.84
715.057	759.46
715.244	630.43
715.432	796.32
715.619	665.25
715.807	743.07
715.994	745.12
716.182	716.45
716.369	667.3
716.556	749.22
716.744	685.73
716.931	786.08
717.119	667.3
717.306	759.46
717.493	636.58
717.681	710.3
717.868	650.91
718.055	722.59
718.242	663.2
718.43	624.29
718.617	665.25
718.804	671.39
718.991	691.87
719.179	716.45
719.366	614.05
719.553	665.25
719.74	628.39
719.927	612
720.114	661.15
720.301	698.02
720.488	571.04
720.676	675.49
720.863	657.06
721.05	603.81
721.237	607.91
721.424	597.67
721.611	644.77
721.798	620.19
721.985	628.39
722.172	562.85
722.358	630.43
722.545	528.03
722.732	628.39
722.919	618.15
723.106	591.52
723.293	554.66
723.48	577.19
723.667	595.62
723.853	603.81
724.04	587.43
724.227	636.58
724.414	579.23
724.6	616.1
724.787	513.7
724.974	560.8
725.161	562.85
725.347	546.47
725.534	478.88
725.72	554.66
725.907	482.98
726.094	552.61
726.28	501.41
726.467	470.69
726.653	495.27
726.84	509.6
727.027	546.47
727.213	573.09
727.4	482.98
727.586	530.08
727.773	497.32
727.959	497.32
728.145	452.26
728.332	464.55
728.518	417.44
728.705	519.84
728.891	444.07
729.077	546.47
729.264	485.03
729.45	470.69
729.636	448.16
729.823	419.49
730.009	495.27
730.195	513.7
730.382	411.3
730.568	530.08
730.754	390.82
730.94	497.32
731.126	462.5
731.313	495.27
731.499	452.26
731.685	439.97
731.871	462.5
732.057	442.02
732.243	448.16
732.429	431.78
732.615	474.79
732.801	458.4
732.987	480.93
733.173	368.29
733.359	401.06
733.545	382.63
733.731	419.49
733.917	501.41
734.103	413.35
734.289	380.58
734.475	358.05
734.661	448.16
734.847	386.72
735.033	399.01
735.219	396.96
735.404	446.12
735.59	390.82
735.776	378.53
735.962	431.78
736.148	399.01
736.333	347.81
736.519	358.05
736.705	437.92
736.89	382.63
737.076	368.29
737.262	403.11
737.447	380.58
737.633	411.3
737.819	323.24
738.004	294.57
738.19	349.86
738.375	335.53
738.561	345.77
738.747	390.82
738.932	317.09
739.118	407.2
739.303	403.11
739.489	446.12
739.674	360.1
739.859	429.73
740.045	374.44
740.23	341.67
740.416	337.57
740.601	388.77
740.786	343.72
740.972	308.9
741.157	276.13
741.342	333.48
741.528	278.18
741.713	347.81
741.898	356.01
742.084	282.28
742.269	253.61
742.454	401.06
742.639	345.77
742.824	315.05
743.01	308.9
743.195	368.29
743.38	286.37
743.565	255.65
743.75	323.24
743.935	290.47
744.12	411.3
744.305	343.72
744.49	308.9
744.675	255.65
744.86	206.5
745.045	349.86
745.23	300.71
745.415	315.05
745.6	294.57
745.785	319.14
745.97	310.95
746.155	237.22
746.34	298.66
746.525	261.8
746.71	282.28
746.895	292.52
747.079	247.46
747.264	206.5
747.449	321.19
747.634	274.09
747.819	241.32
748.003	288.42
748.188	257.7
748.373	229.03
748.557	241.32
748.742	257.7
748.927	276.13
749.111	300.71
749.296	177.83
749.481	231.08
749.665	280.23
749.85	300.71
750.034	243.37
750.219	206.5
750.404	263.85
750.588	259.75
750.773	298.66
750.957	226.98
751.141	298.66
751.326	204.46
751.51	231.08
751.695	206.5
751.879	261.8
752.064	214.7
752.248	278.18
752.432	286.37
752.617	194.22
752.801	210.6
752.985	267.94
753.17	229.03
753.354	198.31
753.538	202.41
753.722	173.74
753.907	276.13
754.091	177.83
754.275	272.04
754.459	239.27
754.643	216.74
754.828	153.26
755.012	206.5
755.196	169.64
755.38	222.89
755.564	153.26
755.748	251.56
755.932	202.41
756.116	112.3
756.3	272.04
756.484	288.42
756.668	257.7
756.852	233.13
757.036	233.13
757.22	200.36
757.404	198.31
757.588	222.89
757.772	255.65
757.956	190.12
758.14	202.41
758.323	151.21
758.507	151.21
758.691	155.3
758.875	147.11
759.059	161.45
759.242	186.02
759.426	214.7
759.61	206.5
759.794	222.89
759.977	257.7
760.161	265.89
760.345	112.3
760.528	163.5
760.712	218.79
760.895	190.12
761.079	155.3
761.263	206.5
761.446	149.16
761.63	206.5
761.813	157.35
761.997	136.87
762.18	134.82
762.364	198.31
762.547	110.25
762.731	208.55
762.914	179.88
763.098	104.11
763.281	177.83
763.464	165.54
763.648	167.59
763.831	165.54
764.015	77.48
764.198	206.5
764.381	128.68
764.564	171.69
764.748	161.45
764.931	110.25
765.114	106.15
765.297	233.13
765.481	100.01
765.664	179.88
765.847	208.55
766.03	145.06
766.213	186.02
766.397	91.82
766.58	116.39
766.763	194.22
766.946	153.26
767.129	108.2
767.312	155.3
767.495	128.68
767.678	122.54
767.861	190.12
768.044	126.63
768.227	134.82
768.41	153.26
768.593	171.69
768.776	149.16
768.959	181.93
769.142	171.69
769.324	138.92
769.507	177.83
769.69	120.49
769.873	106.15
770.056	177.83
770.239	126.63
770.421	147.11
770.604	155.3
770.787	116.39
770.97	130.73
771.152	175.78
771.335	171.69
771.518	151.21
771.7	132.78
771.883	114.34
772.066	130.73
772.248	200.36
772.431	108.2
772.613	138.92
772.796	130.73
772.978	173.74
773.161	151.21
773.343	116.39
773.526	188.07
773.708	175.78
773.891	102.06
774.073	136.87
774.256	143.02
774.438	83.63
774.621	75.43
774.803	97.96
774.985	83.63
775.168	100.01
775.35	198.31
775.532	120.49
775.715	171.69
775.897	192.17
776.079	155.3
776.261	128.68
776.444	104.11
776.626	204.46
776.808	126.63
776.99	77.48
777.173	190.12
777.355	120.49
777.537	130.73
777.719	124.58
777.901	145.06
778.083	52.91
778.265	48.81
778.447	145.06
778.629	59.05
778.811	120.49
778.993	126.63
779.175	134.82
779.357	71.34
779.539	52.91
779.721	138.92
779.903	128.68
780.085	46.76
780.267	77.48
780.449	130.73
780.631	91.82
780.812	61.1
780.994	186.02
781.176	71.34
781.358	130.73
781.54	65.19
781.721	157.35
781.903	124.58
782.085	120.49
782.267	118.44
782.448	22.19
782.63	120.49
782.812	75.43
782.993	46.76
783.175	93.87
783.357	65.19
783.538	77.48
783.72	81.58
783.901	79.53
784.083	75.43
784.264	112.3
784.446	91.82
784.627	83.63
784.809	65.19
784.99	116.39
785.172	75.43
785.353	100.01
785.535	93.87
785.716	28.33
785.897	130.73
786.079	153.26
786.26	114.34
786.441	67.24
786.623	87.72
786.804	46.76
786.985	124.58
787.167	100.01
787.348	46.76
787.529	75.43
787.71	71.34
787.891	11.95
788.073	65.19
788.254	24.23
788.435	61.1
788.616	22.19
788.797	11.95
788.978	48.81
789.159	69.29
789.34	126.63
789.522	67.24
789.703	81.58
789.884	114.34
790.065	77.48
790.246	130.73
790.427	57
790.607	44.71
790.788	34.47
790.969	83.63
791.15	40.62
791.331	48.81
791.512	87.72
791.693	65.19
791.874	40.62
792.054	63.15
792.235	97.96
792.416	-6.49
792.597	9.9
792.778	28.33
792.958	118.44
793.139	102.06
793.32	97.96
793.5	63.15
793.681	57
793.862	11.95
794.042	57
794.223	-47.44
794.404	79.53
794.584	22.19
794.765	65.19
794.945	42.67
795.126	32.43
795.306	102.06
795.487	38.57
795.667	-18.77
795.848	124.58
796.028	130.73
796.209	71.34
796.389	24.23
796.57	9.9
796.75	50.86
796.93	28.33
797.111	40.62
797.291	89.77
797.471	24.23
797.652	16.04
797.832	59.05
798.012	30.38
798.192	38.57
798.373	93.87
798.553	28.33
798.733	77.48
798.913	100.01
799.093	108.2
799.274	48.81
799.454	30.38
799.634	61.1
799.814	1.71
799.994	16.04
800.174	110.25
800.354	34.47
800.534	87.72
800.714	-12.63
800.894	42.67
801.074	73.39
801.254	42.67
801.434	50.86
801.614	30.38
801.794	79.53
801.974	296.61
802.154	-14.68
802.334	5.8
802.514	79.53
802.693	13.99
802.873	32.43
803.053	83.63
803.233	73.39
803.413	40.62
803.592	-10.58
803.772	65.19
803.952	-0.34
804.131	34.47
804.311	52.91
804.491	122.54
804.67	54.95
804.85	-20.82
805.03	-47.44
805.209	57
805.389	28.33
805.568	11.95
805.748	32.43
805.928	18.09
806.107	44.71
806.287	40.62
806.466	71.34
806.646	18.09
806.825	91.82
807.004	87.72
807.184	50.86
807.363	5.8
807.543	32.43
807.722	-0.34
807.901	79.53
808.081	93.87
808.26	-26.96
808.439	87.72
808.619	91.82
808.798	-0.34
808.977	-33.11
809.156	1.71
809.336	24.23
809.515	9.9
809.694	-18.77
809.873	44.71
810.052	40.62
810.231	7.85
810.411	-2.39
810.59	30.38
810.769	57
810.948	59.05
811.127	-4.44
811.306	22.19
811.485	-26.96
811.664	116.39
811.843	48.81
812.022	-2.39
812.201	26.28
812.38	26.28
812.559	-35.16
812.737	-2.39
812.916	61.1
813.095	85.67
813.274	83.63
813.453	69.29
813.632	9.9
813.811	-2.39
813.989	30.38
814.168	36.52
814.347	34.47
814.526	67.24
814.704	59.05
814.883	30.38
815.062	13.99
815.24	5.8
815.419	24.23
815.598	59.05
815.776	83.63
815.955	48.81
816.133	40.62
816.312	13.99
816.49	-41.3
816.669	71.34
816.847	34.47
817.026	30.38
817.204	-0.34
817.383	104.11
817.561	-8.53
817.74	59.05
817.918	32.43
818.097	63.15
818.275	-24.92
818.453	61.1
818.632	50.86
818.81	18.09
818.988	7.85
819.167	42.67
819.345	-31.06
819.523	-26.96
819.701	81.58
819.879	28.33
820.058	24.23
820.236	13.99
820.414	11.95
820.592	50.86
820.77	-20.82
820.948	18.09
821.127	24.23
821.305	38.57
821.483	16.04
821.661	46.76
821.839	11.95
822.017	91.82
822.195	34.47
822.373	46.76
822.551	3.75
822.729	-20.82
822.907	-35.16
823.085	28.33
823.262	26.28
823.44	54.95
823.618	-16.73
823.796	26.28
823.974	22.19
824.152	-57.68
824.329	5.8
824.507	-65.88
824.685	-16.73
824.863	38.57
825.04	32.43
825.218	42.67
825.396	-26.96
825.574	20.14
825.751	20.14
825.929	3.75
826.107	79.53
826.284	-18.77
826.462	-57.68
826.639	59.05
826.817	16.04
826.994	91.82
827.172	5.8
827.349	1.71
827.527	9.9
827.704	65.19
827.882	1.71
828.059	-35.16
828.237	28.33
828.414	42.67
828.591	34.47
828.769	-22.87
828.946	18.09
829.124	13.99
829.301	-22.87
829.478	54.95
829.655	1.71
829.833	57
830.01	57
830.187	1.71
830.364	-53.59
830.542	54.95
830.719	61.1
830.896	1.71
831.073	-69.97
831.25	38.57
831.427	-6.49
831.604	30.38
831.782	50.86
831.959	11.95
832.136	11.95
832.313	26.28
832.49	-0.34
832.667	-14.68
832.844	1.71
833.021	13.99
833.198	63.15
833.374	50.86
833.551	-2.39
833.728	13.99
833.905	-49.49
834.082	28.33
834.259	22.19
834.436	38.57
834.612	-78.16
834.789	-2.39
834.966	54.95
835.143	81.58
835.319	-49.49
835.496	9.9
835.673	-22.87
835.85	-31.06
836.026	44.71
836.203	-0.34
836.38	5.8
836.556	-10.58
836.733	-6.49
836.909	44.71
837.086	-18.77
837.262	-37.2
837.439	-4.44
837.616	50.86
837.792	32.43
837.968	59.05
838.145	-2.39
838.321	-2.39
838.498	87.72
838.674	-33.11
838.851	-24.92
839.027	11.95
839.203	32.43
839.38	42.67
839.556	-12.63
839.732	5.8
839.909	-4.44
840.085	-6.49
840.261	30.38
840.437	-8.53
840.614	3.75
840.79	54.95
840.966	57
841.142	11.95
841.318	-16.73
841.494	32.43
841.671	22.19
841.847	18.09
842.023	-22.87
842.199	9.9
842.375	-37.2
842.551	-18.77
842.727	-6.49
842.903	7.85
843.079	-16.73
843.255	18.09
843.431	7.85
843.607	20.14
843.783	-29.01
843.959	48.81
844.134	-2.39
844.31	59.05
844.486	-45.4
844.662	26.28
844.838	-29.01
845.013	63.15
845.189	-49.49
845.365	13.99
845.541	-33.11
845.716	20.14
845.892	46.76
846.068	7.85
846.244	20.14
846.419	-59.73
846.595	-18.77
846.77	-4.44
846.946	63.15
847.122	-0.34
847.297	-18.77
847.473	134.82
847.648	-6.49
847.824	26.28
847.999	-76.12
848.175	-16.73
848.35	-51.54
848.526	13.99
848.701	-10.58
848.876	34.47
849.052	-24.92
849.227	54.95
849.403	7.85
849.578	-43.35
849.753	-47.44
849.929	38.57
850.104	-33.11
850.279	36.52
850.454	52.91
850.63	57
850.805	-10.58
850.98	77.48
851.155	46.76
851.33	30.38
851.505	-45.4
851.681	-37.2
851.856	-22.87
852.031	63.15
852.206	28.33
852.381	-14.68
852.556	-10.58
852.731	-29.01
852.906	16.04
853.081	-88.4
853.256	16.04
853.431	-10.58
853.606	-22.87
853.781	18.09
853.956	5.8
854.131	-55.64
854.305	-8.53
854.48	16.04
854.655	22.19
854.83	5.8
855.005	-2.39
855.18	-14.68
855.354	44.71
855.529	18.09
855.704	-12.63
855.879	-6.49
856.053	24.23
856.228	20.14
856.403	-16.73
856.577	44.71
856.752	-65.88
856.926	3.75
857.101	36.52
857.276	26.28
857.45	-29.01
857.625	81.58
857.799	48.81
857.974	28.33
858.148	-6.49
858.323	24.23
858.497	-61.78
858.672	46.76
858.846	-14.68
859.02	-18.77
859.195	-12.63
859.369	42.67
859.543	30.38
859.718	-41.3
859.892	-12.63
860.066	46.76
860.241	9.9
860.415	-18.77
860.589	38.57
860.763	7.85
860.938	-12.63
861.112	36.52
861.286	20.14
861.46	38.57
861.634	-22.87
861.808	3.75
861.982	-14.68
862.157	-8.53
862.331	20.14
862.505	3.75
862.679	-0.34
862.853	-0.34
863.027	34.47
863.201	34.47
863.375	38.57
863.549	-2.39
863.722	1.71
863.896	87.72
864.07	44.71
864.244	-63.83
864.418	7.85
864.592	-69.97
864.766	-0.34
864.939	-31.06
865.113	-43.35
865.287	42.67
865.461	1.71
865.634	32.43
865.808	-31.06
865.982	-14.68
866.156	24.23
866.329	-6.49
866.503	5.8
866.676	-47.44
866.85	-33.11
867.024	46.76
867.197	30.38
867.371	24.23
867.544	-2.39
867.718	7.85
867.891	-20.82
868.065	-39.25
868.238	44.71
868.412	61.1
868.585	-98.64
868.759	-2.39
868.932	-53.59
869.105	3.75
869.279	50.86
869.452	-20.82
869.625	-59.73
869.799	-12.63
869.972	11.95
870.145	87.72
870.319	20.14
870.492	-22.87
870.665	11.95
870.838	-10.58
871.011	1.71
871.185	-29.01
871.358	-82.26
871.531	-10.58
871.704	-8.53
871.877	20.14
872.05	-26.96
872.223	-33.11
872.396	-37.2
872.569	7.85
872.742	-14.68
872.915	-18.77
873.088	48.81
873.261	-47.44
873.434	-2.39
873.607	-92.5
873.78	18.09
873.953	65.19
874.126	-33.11
874.299	-22.87
874.471	-0.34
874.644	-74.07
874.817	3.75
874.99	28.33
875.163	-49.49
875.335	-22.87
875.508	-47.44
875.681	-29.01
875.853	5.8
876.026	26.28
876.199	-8.53
876.371	32.43
876.544	-57.68
876.717	54.95
876.889	-20.82
877.062	22.19
877.234	-20.82
877.407	-33.11
877.579	-37.2
877.752	-8.53
877.924	-45.4
878.097	-2.39
878.269	11.95
878.442	13.99
878.614	16.04
878.786	59.05
878.959	22.19
879.131	-35.16
879.303	-80.21
879.476	5.8
879.648	-6.49
879.82	16.04
879.993	-55.64
880.165	-0.34
880.337	-2.39
880.509	42.67
880.681	-22.87
880.854	50.86
881.026	26.28
881.198	48.81
881.37	-63.83
881.542	89.77
881.714	-0.34
881.886	26.28
882.058	-2.39
882.23	3.75
882.402	-18.77
882.574	-33.11
882.746	34.47
882.918	16.04
883.09	40.62
883.262	9.9
883.434	-10.58
883.606	-24.92
883.778	54.95
883.95	18.09
884.122	-0.34
884.293	20.14
884.465	-35.16
884.637	108.2
884.809	-22.87
884.98	-67.92
885.152	77.48
885.324	13.99
885.496	11.95
885.667	-22.87
885.839	5.8
886.011	11.95
886.182	1.71
886.354	54.95
886.525	-26.96
886.697	-43.35
886.869	-0.34
887.04	18.09
887.212	-14.68
887.383	44.71
887.555	-6.49
887.726	-2.39
887.897	42.67
888.069	65.19
888.24	16.04
888.412	81.58
888.583	-22.87
888.754	-20.82
888.926	22.19
889.097	57
889.268	-18.77
889.44	22.19
889.611	-35.16
889.782	73.39
889.953	22.19
890.125	-14.68
890.296	38.57
890.467	13.99
890.638	13.99
890.809	-24.92
890.98	-22.87
891.151	5.8
891.323	9.9
891.494	-24.92
891.665	-16.73
891.836	91.82
892.007	16.04
892.178	1.71
892.349	-18.77
892.52	-55.64
892.691	-16.73
892.862	-4.44
893.032	-63.83
893.203	48.81
893.374	-0.34
893.545	36.52
893.716	9.9
893.887	-37.2
894.057	36.52
894.228	-2.39
894.399	-10.58
894.57	7.85
894.74	16.04
894.911	-33.11
895.082	30.38
895.253	13.99
895.423	5.8
895.594	61.1
895.764	1.71
895.935	54.95
896.106	-16.73
896.276	18.09
896.447	-45.4
896.617	7.85
896.788	11.95
896.958	-33.11
897.129	36.52
897.299	63.15
897.47	-6.49
897.64	-55.64
897.81	3.75
897.981	48.81
898.151	1.71
898.322	-18.77
898.492	-22.87
898.662	-37.2
898.832	-12.63
899.003	-16.73
899.173	1.71
899.343	11.95
899.513	-12.63
