Data from USB4F104151__36__12-53-44-095.txt Node

Date: Fri Mar 14 12:53:44 EDT 2025
User: louis
Spectrometer: USB4F10415
Trigger mode: 4
Integration Time (sec): 1.000000E-2
Scans to average: 1
Electric dark correction enabled: true
Nonlinearity correction enabled: false
Boxcar width: 0
XAxis mode: Wavelengths
Number of Pixels in Spectrum: 3648
>>>>>Begin Spectral Data<<<<<
178.204	-80.04
178.424	-80.04
178.644	-80.04
178.864	-80.04
179.084	-4.27
179.304	-47.27
179.524	44.88
179.744	-63.66
179.964	8.02
180.184	73.56
180.404	-18.6
180.624	48.98
180.844	-28.84
181.064	-16.55
181.283	32.6
181.503	-71.85
181.723	38.74
181.943	-34.99
182.163	-32.94
182.383	-4.27
182.602	10.07
182.822	32.6
183.042	32.6
183.262	16.21
183.482	65.36
183.701	12.12
183.921	75.6
184.141	-84.14
184.361	53.08
184.58	71.51
184.8	-4.27
185.02	3.93
185.239	14.17
185.459	42.84
185.679	87.89
185.898	57.17
186.118	67.41
186.338	24.4
186.557	1.88
186.777	-59.56
186.997	48.98
187.216	12.12
187.436	-0.17
187.655	-20.65
187.875	-47.27
188.095	-20.65
188.314	42.84
188.534	12.12
188.753	20.31
188.973	36.69
189.192	-26.79
189.412	-59.56
189.631	53.08
189.851	34.64
190.07	42.84
190.29	40.79
190.509	-80.04
190.729	-8.36
190.948	-22.7
191.168	-10.41
191.387	-6.31
191.607	26.45
191.826	3.93
192.045	20.31
192.265	-45.23
192.484	-47.27
192.704	-28.84
192.923	-12.46
193.142	22.36
193.362	10.07
193.581	-0.17
193.8	30.55
194.02	5.97
194.239	3.93
194.458	73.56
194.678	67.41
194.897	18.26
195.116	-18.6
195.335	-4.27
195.555	8.02
195.774	18.26
195.993	1.88
196.212	36.69
196.432	26.45
196.651	-14.51
196.87	22.36
197.089	28.5
197.308	59.22
197.528	-2.22
197.747	-6.31
197.966	1.88
198.185	67.41
198.404	55.12
198.623	-4.27
198.842	3.93
199.062	51.03
199.281	-6.31
199.5	14.17
199.719	48.98
199.938	-10.41
200.157	79.7
200.376	40.79
200.595	22.36
200.814	-10.41
201.033	-10.41
201.252	36.69
201.471	71.51
201.69	102.23
201.909	87.89
202.128	26.45
202.347	-12.46
202.566	30.55
202.785	46.93
203.004	26.45
203.223	53.08
203.442	67.41
203.661	-49.32
203.879	-0.17
204.098	-26.79
204.317	81.75
204.536	1.88
204.755	14.17
204.974	61.27
205.193	28.5
205.411	20.31
205.63	-8.36
205.849	18.26
206.068	14.17
206.287	44.88
206.505	20.31
206.724	20.31
206.943	38.74
207.162	44.88
207.381	32.6
207.599	67.41
207.818	40.79
208.037	3.93
208.255	16.21
208.474	42.84
208.693	-12.46
208.911	14.17
209.13	36.69
209.349	38.74
209.567	26.45
209.786	3.93
210.005	40.79
210.223	40.79
210.442	42.84
210.661	51.03
210.879	-12.46
211.098	5.97
211.316	22.36
211.535	28.5
211.753	26.45
211.972	16.21
212.191	28.5
212.409	16.21
212.628	51.03
212.846	28.5
213.065	16.21
213.283	-28.84
213.502	85.84
213.72	26.45
213.938	-0.17
214.157	85.84
214.375	-12.46
214.594	12.12
214.812	18.26
215.031	-14.51
215.249	-12.46
215.467	36.69
215.686	67.41
215.904	65.36
216.122	79.7
216.341	44.88
216.559	-30.89
216.778	-37.03
216.996	8.02
217.214	24.4
217.432	-2.22
217.651	-6.31
217.869	-20.65
218.087	-12.46
218.306	3.93
218.524	79.7
218.742	71.51
218.96	12.12
219.179	-20.65
219.397	34.64
219.615	59.22
219.833	3.93
220.051	14.17
220.27	24.4
220.488	-37.03
220.706	34.64
220.924	-32.94
221.142	8.02
221.36	20.31
221.578	46.93
221.796	-10.41
222.015	-8.36
222.233	-32.94
222.451	-47.27
222.669	30.55
222.887	-6.31
223.105	1.88
223.323	-32.94
223.541	-14.51
223.759	-14.51
223.977	32.6
224.195	10.07
224.413	32.6
224.631	1.88
224.849	16.21
225.067	55.12
225.285	-12.46
225.503	26.45
225.721	-18.6
225.939	10.07
226.157	48.98
226.375	65.36
226.592	8.02
226.81	10.07
227.028	40.79
227.246	-0.17
227.464	-49.32
227.682	-28.84
227.9	20.31
228.117	40.79
228.335	-34.99
228.553	91.99
228.771	38.74
228.989	67.41
229.206	46.93
229.424	94.04
229.642	-0.17
229.86	-39.08
230.077	1.88
230.295	-20.65
230.513	75.6
230.731	-32.94
230.948	20.31
231.166	16.21
231.384	42.84
231.601	-82.09
231.819	63.32
232.037	-18.6
232.254	1.88
232.472	-26.79
232.689	46.93
232.907	44.88
233.125	-6.31
233.342	-39.08
233.56	-18.6
233.777	63.32
233.995	110.42
234.213	-24.75
234.43	36.69
234.648	-16.55
234.865	28.5
235.083	61.27
235.3	57.17
235.518	44.88
235.735	36.69
235.953	79.7
236.17	-14.51
236.388	91.99
236.605	30.55
236.822	48.98
237.04	-20.65
237.257	59.22
237.475	8.02
237.692	-6.31
237.909	20.31
238.127	42.84
238.344	57.17
238.562	38.74
238.779	5.97
238.996	-43.18
239.214	38.74
239.431	55.12
239.648	-59.56
239.865	5.97
240.083	26.45
240.3	20.31
240.517	-34.99
240.735	3.93
240.952	32.6
241.169	-6.31
241.386	-2.22
241.603	3.93
241.821	48.98
242.038	-0.17
242.255	-16.55
242.472	61.27
242.689	5.97
242.907	96.08
243.124	-55.47
243.341	40.79
243.558	22.36
243.775	46.93
243.992	18.26
244.209	-22.7
244.426	16.21
244.643	-10.41
244.86	48.98
245.078	59.22
245.295	-37.03
245.512	-12.46
245.729	55.12
245.946	85.84
246.163	-55.47
246.38	40.79
246.597	30.55
246.814	32.6
247.031	5.97
247.248	8.02
247.464	53.08
247.681	-47.27
247.898	40.79
248.115	32.6
248.332	46.93
248.549	89.94
248.766	24.4
248.983	57.17
249.2	71.51
249.417	3.93
249.633	79.7
249.85	-39.08
250.067	-22.7
250.284	-32.94
250.501	-26.79
250.717	-43.18
250.934	28.5
251.151	63.32
251.368	12.12
251.585	42.84
251.801	-8.36
252.018	32.6
252.235	46.93
252.451	-14.51
252.668	-47.27
252.885	67.41
253.102	55.12
253.318	57.17
253.535	3.93
253.752	30.55
253.968	24.4
254.185	12.12
254.401	14.17
254.618	-34.99
254.835	18.26
255.051	-0.17
255.268	67.41
255.484	-10.41
255.701	-12.46
255.917	42.84
256.134	-8.36
256.351	44.88
256.567	22.36
256.784	106.32
257	102.23
257.217	12.12
257.433	-30.89
257.65	42.84
257.866	-32.94
258.082	67.41
258.299	3.93
258.515	-8.36
258.732	-24.75
258.948	36.69
259.165	-45.23
259.381	3.93
259.597	-6.31
259.814	16.21
260.03	-2.22
260.246	5.97
260.463	53.08
260.679	-6.31
260.895	36.69
261.112	26.45
261.328	14.17
261.544	16.21
261.761	26.45
261.977	18.26
262.193	-12.46
262.409	1.88
262.626	-39.08
262.842	44.88
263.058	46.93
263.274	-39.08
263.49	28.5
263.707	55.12
263.923	14.17
264.139	3.93
264.355	26.45
264.571	73.56
264.787	10.07
265.004	69.46
265.22	18.26
265.436	12.12
265.652	46.93
265.868	32.6
266.084	42.84
266.3	75.6
266.516	10.07
266.732	42.84
266.948	36.69
267.164	30.55
267.38	40.79
267.596	14.17
267.812	32.6
268.028	-28.84
268.244	-20.65
268.46	100.18
268.676	57.17
268.892	65.36
269.108	5.97
269.324	26.45
269.54	-32.94
269.756	-26.79
269.972	-34.99
270.188	14.17
270.403	55.12
270.619	24.4
270.835	8.02
271.051	57.17
271.267	16.21
271.483	38.74
271.698	-4.27
271.914	55.12
272.13	28.5
272.346	20.31
272.562	5.97
272.777	-2.22
272.993	16.21
273.209	67.41
273.425	38.74
273.64	-12.46
273.856	-12.46
274.072	48.98
274.287	-34.99
274.503	75.6
274.719	-30.89
274.934	69.46
275.15	-6.31
275.366	36.69
275.581	57.17
275.797	46.93
276.012	36.69
276.228	18.26
276.444	-4.27
276.659	116.56
276.875	79.7
277.09	26.45
277.306	-6.31
277.521	-30.89
277.737	36.69
277.952	104.28
278.168	36.69
278.383	44.88
278.599	5.97
278.814	69.46
279.03	53.08
279.245	-10.41
279.461	75.6
279.676	-30.89
279.892	-45.23
280.107	12.12
280.322	1.88
280.538	16.21
280.753	8.02
280.969	28.5
281.184	26.45
281.399	34.64
281.615	-2.22
281.83	28.5
282.045	-4.27
282.26	55.12
282.476	12.12
282.691	79.7
282.906	16.21
283.122	75.6
283.337	16.21
283.552	3.93
283.767	26.45
283.983	85.84
284.198	-45.23
284.413	85.84
284.628	1.88
284.843	-16.55
285.058	53.08
285.274	22.36
285.489	16.21
285.704	-6.31
285.919	-10.41
286.134	48.98
286.349	59.22
286.564	32.6
286.779	10.07
286.995	42.84
287.21	51.03
287.425	10.07
287.64	20.31
287.855	28.5
288.07	26.45
288.285	12.12
288.5	46.93
288.715	-0.17
288.93	3.93
289.145	48.98
289.36	26.45
289.575	28.5
289.79	51.03
290.004	10.07
290.219	44.88
290.434	65.36
290.649	34.64
290.864	51.03
291.079	-14.51
291.294	-37.03
291.509	-32.94
291.724	1.88
291.938	24.4
292.153	-14.51
292.368	1.88
292.583	77.65
292.798	14.17
293.012	63.32
293.227	10.07
293.442	-45.23
293.657	8.02
293.871	36.69
294.086	53.08
294.301	26.45
294.516	46.93
294.73	22.36
294.945	53.08
295.16	24.4
295.374	-6.31
295.589	44.88
295.804	3.93
296.018	79.7
296.233	89.94
296.447	65.36
296.662	28.5
296.877	34.64
297.091	8.02
297.306	8.02
297.52	42.84
297.735	34.64
297.949	-12.46
298.164	63.32
298.378	10.07
298.593	65.36
298.807	10.07
299.022	59.22
299.236	-28.84
299.451	61.27
299.665	44.88
299.88	12.12
300.094	51.03
300.309	8.02
300.523	26.45
300.737	30.55
300.952	63.32
301.166	51.03
301.381	-43.18
301.595	67.41
301.809	81.75
302.024	20.31
302.238	12.12
302.452	46.93
302.667	36.69
302.881	20.31
303.095	-0.17
303.309	100.18
303.524	-10.41
303.738	26.45
303.952	14.17
304.166	38.74
304.381	73.56
304.595	-12.46
304.809	30.55
305.023	-6.31
305.237	-18.6
305.452	20.31
305.666	20.31
305.88	40.79
306.094	36.69
306.308	-32.94
306.522	22.36
306.736	32.6
306.95	159.57
307.164	26.45
307.379	40.79
307.593	32.6
307.807	-4.27
308.021	65.36
308.235	26.45
308.449	-39.08
308.663	46.93
308.877	69.46
309.091	57.17
309.305	18.26
309.519	44.88
309.733	22.36
309.947	12.12
310.161	38.74
310.374	-73.9
310.588	24.4
310.802	-53.42
311.016	14.17
311.23	1.88
311.444	14.17
311.658	34.64
311.872	-8.36
312.085	57.17
312.299	38.74
312.513	12.12
312.727	57.17
312.941	-14.51
313.154	114.52
313.368	16.21
313.582	67.41
313.796	-39.08
314.009	34.64
314.223	14.17
314.437	-10.41
314.651	44.88
314.864	40.79
315.078	22.36
315.292	42.84
315.505	-39.08
315.719	26.45
315.933	-18.6
316.146	51.03
316.36	-10.41
316.573	91.99
316.787	104.28
317.001	40.79
317.214	-53.42
317.428	46.93
317.641	34.64
317.855	-14.51
318.068	36.69
318.282	30.55
318.495	55.12
318.709	10.07
318.922	10.07
319.136	30.55
319.349	46.93
319.563	112.47
319.776	-2.22
319.99	51.03
320.203	5.97
320.417	73.56
320.63	1.88
320.843	79.7
321.057	-2.22
321.27	128.85
321.483	-43.18
321.697	3.93
321.91	132.95
322.124	-96.43
322.337	102.23
322.55	-41.13
322.763	-16.55
322.977	22.36
323.19	-14.51
323.403	40.79
323.617	-8.36
323.83	26.45
324.043	22.36
324.256	5.97
324.469	12.12
324.683	1.88
324.896	40.79
325.109	-2.22
325.322	51.03
325.535	32.6
325.748	53.08
325.962	98.13
326.175	30.55
326.388	42.84
326.601	24.4
326.814	81.75
327.027	-51.37
327.24	100.18
327.453	-4.27
327.666	79.7
327.879	-2.22
328.092	73.56
328.305	28.5
328.518	-16.55
328.731	-32.94
328.944	10.07
329.157	-16.55
329.37	-49.32
329.583	12.12
329.796	61.27
330.009	-6.31
330.222	48.98
330.435	-24.75
330.648	73.56
330.861	18.26
331.073	36.69
331.286	-0.17
331.499	75.6
331.712	24.4
331.925	32.6
332.138	73.56
332.35	100.18
332.563	32.6
332.776	63.32
332.989	30.55
333.202	34.64
333.414	38.74
333.627	26.45
333.84	22.36
334.053	42.84
334.265	1.88
334.478	124.76
334.691	34.64
334.903	3.93
335.116	34.64
335.329	24.4
335.541	51.03
335.754	10.07
335.966	-6.31
336.179	71.51
336.392	-14.51
336.604	-8.36
336.817	22.36
337.029	-24.75
337.242	-53.42
337.454	120.66
337.667	42.84
337.88	38.74
338.092	-49.32
338.305	44.88
338.517	8.02
338.729	32.6
338.942	-2.22
339.154	26.45
339.367	18.26
339.579	-22.7
339.792	-20.65
340.004	34.64
340.217	65.36
340.429	40.79
340.641	18.26
340.854	36.69
341.066	32.6
341.278	100.18
341.491	30.55
341.703	-16.55
341.915	-10.41
342.128	16.21
342.34	46.93
342.552	61.27
342.764	22.36
342.977	55.12
343.189	5.97
343.401	-14.51
343.613	36.69
343.826	44.88
344.038	-24.75
344.25	67.41
344.462	-4.27
344.674	10.07
344.886	28.5
345.099	61.27
345.311	67.41
345.523	3.93
345.735	1.88
345.947	67.41
346.159	38.74
346.371	-6.31
346.583	-16.55
346.795	10.07
347.007	81.75
347.219	30.55
347.431	38.74
347.643	69.46
347.855	-24.75
348.067	75.6
348.279	59.22
348.491	94.04
348.703	3.93
348.915	79.7
349.127	-18.6
349.339	38.74
349.551	-12.46
349.763	14.17
349.975	-16.55
350.187	-2.22
350.399	69.46
350.61	10.07
350.822	91.99
351.034	46.93
351.246	38.74
351.458	96.08
351.669	28.5
351.881	30.55
352.093	65.36
352.305	20.31
352.517	59.22
352.728	12.12
352.94	16.21
353.152	126.8
353.363	67.41
353.575	69.46
353.787	77.65
353.999	14.17
354.21	-14.51
354.422	30.55
354.633	59.22
354.845	38.74
355.057	59.22
355.268	-2.22
355.48	24.4
355.692	63.32
355.903	14.17
356.115	57.17
356.326	18.26
356.538	-8.36
356.749	61.27
356.961	65.36
357.172	61.27
357.384	51.03
357.595	16.21
357.807	59.22
358.018	28.5
358.23	22.36
358.441	24.4
358.653	53.08
358.864	18.26
359.075	53.08
359.287	14.17
359.498	77.65
359.709	51.03
359.921	20.31
360.132	3.93
360.344	30.55
360.555	20.31
360.766	53.08
360.977	42.84
361.189	108.37
361.4	36.69
361.611	10.07
361.823	69.46
362.034	48.98
362.245	14.17
362.456	-12.46
362.667	85.84
362.879	53.08
363.09	-0.17
363.301	53.08
363.512	85.84
363.723	85.84
363.935	51.03
364.146	57.17
364.357	-4.27
364.568	-12.46
364.779	40.79
364.99	26.45
365.201	-0.17
365.412	69.46
365.623	8.02
365.834	102.23
366.045	75.6
366.256	71.51
366.467	-34.99
366.678	46.93
366.889	-2.22
367.1	-10.41
367.311	3.93
367.522	38.74
367.733	85.84
367.944	-6.31
368.155	-18.6
368.366	55.12
368.577	-22.7
368.788	67.41
368.999	18.26
369.209	83.8
369.42	85.84
369.631	24.4
369.842	16.21
370.053	63.32
370.264	-61.61
370.474	53.08
370.685	22.36
370.896	42.84
371.107	77.65
371.317	10.07
371.528	81.75
371.739	61.27
371.95	51.03
372.16	128.85
372.371	48.98
372.582	32.6
372.792	24.4
373.003	59.22
373.214	69.46
373.424	69.46
373.635	-47.27
373.846	5.97
374.056	69.46
374.267	-6.31
374.477	-8.36
374.688	34.64
374.898	28.5
375.109	44.88
375.319	-18.6
375.53	100.18
375.74	44.88
375.951	53.08
376.161	16.21
376.372	10.07
376.582	-10.41
376.793	87.89
377.003	36.69
377.214	14.17
377.424	44.88
377.635	59.22
377.845	55.12
378.055	53.08
378.266	46.93
378.476	36.69
378.686	-6.31
378.897	14.17
379.107	77.65
379.317	-98.47
379.528	8.02
379.738	3.93
379.948	10.07
380.158	1.88
380.369	44.88
380.579	55.12
380.789	-34.99
380.999	51.03
381.21	81.75
381.42	14.17
381.63	8.02
381.84	67.41
382.05	40.79
382.261	-18.6
382.471	38.74
382.681	-16.55
382.891	26.45
383.101	-28.84
383.311	8.02
383.521	67.41
383.731	-34.99
383.941	38.74
384.151	48.98
384.361	-8.36
384.571	32.6
384.781	108.37
384.991	57.17
385.201	14.17
385.411	1.88
385.621	85.84
385.831	20.31
386.041	20.31
386.251	30.55
386.461	-30.89
386.671	46.93
386.881	38.74
387.091	-24.75
387.301	3.93
387.511	-26.79
387.72	10.07
387.93	71.51
388.14	83.8
388.35	-43.18
388.56	151.38
388.769	89.94
388.979	18.26
389.189	75.6
389.399	1.88
389.609	63.32
389.818	122.71
390.028	36.69
390.238	59.22
390.447	59.22
390.657	-16.55
390.867	24.4
391.076	-2.22
391.286	24.4
391.496	40.79
391.705	42.84
391.915	102.23
392.125	32.6
392.334	26.45
392.544	77.65
392.753	63.32
392.963	-20.65
393.172	44.88
393.382	-16.55
393.591	5.97
393.801	-8.36
394.01	73.56
394.22	102.23
394.429	73.56
394.639	94.04
394.848	65.36
395.058	67.41
395.267	32.6
395.477	-14.51
395.686	28.5
395.895	96.08
396.105	91.99
396.314	87.89
396.524	-6.31
396.733	96.08
396.942	1.88
397.152	79.7
397.361	53.08
397.57	63.32
397.78	67.41
397.989	16.21
398.198	57.17
398.407	69.46
398.617	110.42
398.826	40.79
399.035	65.36
399.244	71.51
399.453	98.13
399.663	26.45
399.872	61.27
400.081	67.41
400.29	132.95
400.499	46.93
400.708	59.22
400.917	69.46
401.127	71.51
401.336	75.6
401.545	124.76
401.754	28.5
401.963	124.76
402.172	42.84
402.381	71.51
402.59	51.03
402.799	38.74
403.008	38.74
403.217	69.46
403.426	135
403.635	59.22
403.844	59.22
404.053	128.85
404.262	77.65
404.471	77.65
404.68	147.28
404.888	85.84
405.097	10.07
405.306	124.76
405.515	145.24
405.724	96.08
405.933	108.37
406.142	163.67
406.35	100.18
406.559	141.14
406.768	53.08
406.977	141.14
407.185	91.99
407.394	79.7
407.603	89.94
407.812	102.23
408.02	118.61
408.229	63.32
408.438	161.62
408.646	126.8
408.855	126.8
409.064	126.8
409.272	85.84
409.481	239.44
409.69	157.52
409.898	69.46
410.107	120.66
410.315	151.38
410.524	98.13
410.733	231.25
410.941	274.26
411.15	151.38
411.358	196.43
411.567	235.35
411.775	237.39
411.984	178
412.192	218.96
412.401	249.68
412.609	253.78
412.818	241.49
413.026	264.02
413.234	321.36
413.443	264.02
413.651	266.07
413.86	239.44
414.068	309.07
414.276	296.78
414.485	304.98
414.693	319.31
414.901	390.99
415.11	343.89
415.318	321.36
415.526	327.5
415.734	380.75
415.943	386.9
416.151	444.24
416.359	434
416.567	460.62
416.776	440.14
416.984	491.34
417.192	419.66
417.4	481.1
417.608	436.05
417.817	495.44
418.025	526.16
418.233	606.03
418.441	581.45
418.649	687.95
418.857	718.67
419.065	667.47
419.273	646.99
419.481	706.38
419.689	708.43
419.897	825.16
420.105	778.06
420.313	753.48
420.521	806.73
420.729	917.32
420.937	878.41
421.145	845.64
421.353	956.23
421.561	884.55
421.769	954.18
421.977	1066.82
422.185	982.85
422.393	1111.88
422.601	1115.97
422.809	1107.78
423.017	1189.7
423.224	1169.22
423.432	1322.82
423.64	1306.43
423.848	1343.3
424.056	1335.1
424.263	1474.37
424.471	1447.74
424.679	1507.13
424.887	1705.79
425.094	1517.37
425.302	1648.44
425.51	1744.7
425.718	1679.16
425.925	1685.31
426.133	1771.32
426.341	1892.15
426.548	1990.45
426.756	2031.41
426.964	1988.41
427.171	2037.56
427.379	2182.96
427.586	2160.44
427.794	2318.13
428.001	2338.61
428.209	2494.26
428.417	2418.48
428.624	2635.57
428.832	2674.48
429.039	2631.47
429.247	2635.57
429.454	2848.55
429.662	3116.84
429.869	2953
430.076	3075.88
430.284	2957.1
430.491	3245.86
430.699	3237.67
430.906	3194.66
431.114	3180.32
431.321	3534.62
431.528	3407.65
431.736	3669.79
431.943	3829.53
432.15	3850.01
432.358	3782.43
432.565	3976.98
432.772	4103.96
432.979	4263.7
433.187	4302.61
433.394	4429.59
433.601	4554.51
433.808	4718.35
434.016	4618
434.223	4798.22
434.43	5183.24
434.637	5021.45
434.844	5275.4
435.052	5400.32
435.259	5330.69
435.466	5457.67
435.673	5422.85
435.88	5965.56
436.087	5889.79
436.294	6106.87
436.501	5963.51
436.708	5990.14
436.915	6258.42
437.122	6559.47
437.329	6438.64
437.537	6758.13
437.743	6751.98
437.95	6862.57
438.157	7231.21
438.364	7280.36
438.571	7327.46
438.778	7427.81
438.985	8175.32
439.192	7837.41
439.399	8019.67
439.606	7896.8
439.813	8281.81
440.02	8773.33
440.227	8445.65
440.433	8474.32
440.64	8795.86
440.847	8750.8
441.054	9010.89
441.261	9453.25
441.467	9604.8
441.674	9780.93
441.881	10086.08
442.088	10153.66
442.294	9932.48
442.501	10211
442.708	10591.92
442.914	10831.54
443.121	11304.62
443.328	10999.47
443.534	11697.83
443.741	11519.65
443.948	11454.12
444.154	12275.35
444.361	12267.16
444.568	12154.52
444.774	12189.34
444.981	12609.17
445.187	12719.76
445.394	13291.15
445.6	13012.62
445.807	14192.25
446.013	13762.18
446.22	14116.48
446.426	14454.39
446.633	14607.99
446.839	15122.03
447.046	14636.66
447.252	15328.88
447.459	15519.34
447.665	15210.09
447.871	16084.58
448.078	16686.68
448.284	15840.87
448.491	16295.52
448.697	16887.38
448.903	17321.55
449.11	17393.23
449.316	17458.76
449.522	17241.68
449.728	17886.79
449.935	18212.42
450.141	17940.04
450.347	18447.93
450.553	17851.97
450.76	18210.37
450.966	18632.25
451.172	18562.62
451.378	18863.67
451.584	18669.11
451.791	19064.37
451.997	19258.93
452.203	19334.7
452.409	19525.16
452.615	19224.11
452.821	18425.4
453.027	18357.82
453.233	19279.41
453.44	18617.91
453.646	18667.06
453.852	18896.44
454.058	19301.93
454.264	18533.95
454.47	19164.72
454.676	18308.67
454.882	19172.91
455.088	17573.45
455.294	17765.96
455.5	18091.59
455.705	18302.53
455.911	17458.76
456.117	17077.84
456.323	16891.48
456.529	16029.28
456.735	16404.06
456.941	16494.17
457.147	15992.42
457.352	15468.14
457.558	15513.19
457.764	15281.77
457.97	15228.52
458.176	15140.46
458.381	14694.01
458.587	13983.36
458.793	13969.02
458.999	13303.43
459.204	14182.01
459.41	13854.34
459.616	13225.61
459.821	12996.24
460.027	12922.51
460.233	12807.83
460.438	12054.17
460.644	12189.34
460.85	11609.76
461.055	11220.65
461.261	11407.02
461.466	10643.12
461.672	10342.07
461.878	11126.44
462.083	10290.87
462.289	10098.36
462.494	10096.32
462.7	9266.89
462.905	9342.66
463.111	9629.38
463.316	9879.23
463.522	9545.41
463.727	9705.15
463.932	9445.06
464.138	9490.12
464.343	9340.61
464.549	9348.81
464.754	9506.5
464.959	9195.21
465.165	9250.5
465.37	8984.27
465.575	8732.37
465.781	8918.73
465.986	9184.97
466.191	8758.99
466.397	8576.72
466.602	8199.9
466.807	8679.12
467.012	8416.98
467.218	8615.63
467.423	8425.17
467.628	8525.52
467.833	8632.02
468.038	8300.25
468.244	8283.86
468.449	8558.29
468.654	8255.19
468.859	8242.9
469.064	8226.52
469.269	7900.89
469.474	7753.44
469.679	8091.35
469.885	7880.41
470.09	8197.85
470.295	7890.65
470.5	7622.37
470.705	7730.91
470.91	7829.21
471.115	7771.87
471.32	7562.98
471.525	7603.94
471.73	7403.24
471.935	7382.76
472.139	6983.4
472.344	7214.82
472.549	7083.75
472.754	7014.12
472.959	6971.11
473.164	6833.9
473.369	6840.04
473.574	6975.21
473.778	6901.48
473.983	6774.51
474.188	6702.83
474.393	6530.8
474.598	6420.21
474.802	6485.75
475.007	6508.27
475.212	6502.13
475.417	6125.3
475.621	6301.43
475.826	6166.26
476.031	6219.51
476.235	5953.27
476.44	6022.91
476.645	5887.74
476.849	5883.64
477.054	5869.31
477.259	5793.53
477.463	5701.37
477.668	5730.05
477.872	5742.33
478.077	5627.65
478.282	5342.98
478.486	5408.51
478.691	5363.46
478.895	5449.47
479.1	5322.5
479.304	5400.32
479.509	5095.18
479.713	5394.18
479.918	5152.52
480.122	5115.66
480.326	5185.29
480.531	5205.77
480.735	5084.94
480.94	5000.97
481.144	5209.86
481.348	5033.74
481.553	5150.47
481.757	5078.79
481.961	4925.19
482.166	5072.65
482.37	5017.35
482.574	4917
482.778	5066.5
482.983	5064.46
483.187	5025.54
483.391	4943.63
483.595	4884.23
483.8	4787.98
484.004	4976.39
484.208	4892.43
484.412	5103.37
484.616	4947.72
484.821	5150.47
485.025	4808.46
485.229	5117.7
485.433	4947.72
485.637	4980.49
485.841	5023.5
486.045	4902.67
486.249	5093.13
486.453	5125.9
486.657	4925.19
486.861	5039.88
487.065	4904.71
487.269	4826.89
487.473	4908.81
487.677	4986.63
487.881	4972.3
488.085	4953.87
488.289	4982.54
488.493	5007.11
488.697	4964.11
488.901	4994.83
489.105	5043.98
489.309	5046.02
489.512	4927.24
489.716	5213.96
489.92	4966.15
490.124	5123.85
490.328	5113.61
490.531	4976.39
490.735	5142.28
490.939	5175.05
491.143	5132.04
491.346	5211.91
491.55	5179.14
491.754	5265.16
491.958	5336.84
492.161	5279.49
492.365	5519.11
492.569	5252.87
492.772	5443.33
492.976	5426.95
493.18	5416.71
493.383	5447.43
493.587	5543.68
493.79	5588.74
493.994	5607.17
494.197	5697.28
494.401	5793.53
494.605	5805.82
494.808	5906.17
495.012	5873.4
495.215	5902.08
495.419	5859.07
495.622	5994.23
495.825	6043.39
496.029	6088.44
496.232	6147.83
496.436	6149.88
496.639	6389.49
496.843	6350.58
497.046	6538.99
497.249	6582
497.453	6561.52
497.656	6633.2
497.859	6526.71
498.063	6743.79
498.266	6977.26
498.469	7028.46
498.673	7030.51
498.876	7169.77
499.079	7159.53
499.282	7276.26
499.485	7343.85
499.689	7524.07
499.892	7657.18
500.095	7595.75
500.298	7812.83
500.501	7628.51
500.705	7919.32
500.908	7948
501.111	8074.97
501.314	8058.59
501.517	8216.28
501.72	8394.45
501.923	8486.61
502.126	8632.02
502.329	8890.06
502.532	8783.57
502.735	9027.28
502.938	9236.17
503.141	9076.43
503.344	9264.84
503.547	9406.15
503.75	9486.02
503.953	9830.08
504.156	9785.02
504.359	9952.96
504.562	10100.41
504.765	10170.04
504.968	10260.15
505.17	10510
505.373	10567.35
505.576	10766
505.779	10944.17
505.982	11138.73
506.185	11181.74
506.387	11288.23
506.59	11521.7
506.793	11718.31
506.996	11708.07
507.198	11888.29
507.401	12132
507.604	11951.77
507.807	12377.75
508.009	12502.68
508.212	12504.73
508.415	12652.18
508.617	13069.97
508.82	13076.11
509.022	13303.43
509.225	13340.3
509.428	13575.81
509.63	13774.47
509.833	13966.98
510.035	14331.51
510.238	14270.08
510.44	14442.1
510.643	14714.48
510.845	14632.57
511.048	14823.03
511.25	14888.56
511.453	15257.2
511.655	15609.45
511.858	15384.17
512.06	15711.85
512.262	15920.74
512.465	16225.89
512.667	16465.5
512.87	16430.68
513.072	16715.35
513.274	16881.24
513.477	17221.2
513.679	17567.31
513.881	17491.53
514.084	17858.12
514.286	17925.7
514.488	18228.8
514.69	18515.51
514.893	18712.12
515.095	18699.83
515.297	18921.01
515.499	19015.22
515.701	19263.02
515.904	19654.19
516.106	19742.25
516.308	20069.92
516.51	20368.93
516.712	20309.54
516.914	20284.96
517.116	20788.76
517.318	21116.44
517.52	21290.51
517.722	21202.45
517.925	21782.02
518.127	22081.03
518.329	21931.53
518.531	21956.1
518.733	22416.9
518.935	22586.88
519.136	22705.66
519.338	23438.83
519.54	23137.78
519.742	23406.06
519.944	23537.13
520.146	24389.09
520.348	24430.05
520.55	24374.75
520.752	24567.26
520.954	24999.38
521.155	24905.18
521.357	25077.21
521.559	25290.2
521.761	25920.97
521.963	25757.13
522.164	26090.95
522.366	26416.58
522.568	26383.81
522.77	26695.1
522.971	26566.08
523.173	26955.19
523.375	27180.47
523.576	26944.95
523.778	27336.12
523.98	27231.67
524.181	27768.24
524.383	27919.79
524.584	28134.82
524.786	28372.39
524.988	28059.05
525.189	28718.5
525.391	28808.61
525.592	28753.31
525.794	28988.83
525.995	29203.86
526.197	29191.58
526.398	29263.25
526.6	29744.53
526.801	29552.02
527.003	29793.68
527.204	30002.57
527.406	30107.02
527.607	30066.06
527.808	30510.47
528.01	29877.65
528.211	30401.93
528.412	30911.87
528.614	30752.13
528.815	30705.02
529.016	31372.66
529.218	30735.74
529.419	30770.56
529.62	31298.94
529.822	31462.77
530.023	31288.7
530.224	31192.44
530.425	31376.76
530.626	31608.18
530.828	31794.54
531.029	31985.01
531.23	31587.7
531.431	31778.16
531.632	31563.12
531.833	31995.25
532.035	31731.06
532.236	31982.96
532.437	32169.32
532.638	32081.26
532.839	32230.76
533.04	32763.23
533.241	31985.01
533.442	32515.43
533.643	32554.34
533.844	32382.31
534.045	32331.11
534.246	32423.27
534.447	32699.75
534.648	32423.27
534.849	32548.2
535.05	32533.86
535.251	32593.25
535.451	32355.69
535.652	32720.23
535.853	32689.51
536.054	32701.79
536.255	33162.59
536.456	32574.82
536.657	33377.62
536.857	32931.17
537.058	32558.44
537.259	33088.86
537.46	33011.04
537.66	33041.76
537.861	32959.84
538.062	33181.02
538.263	33170.78
538.463	32746.85
538.664	33039.71
538.865	33260.89
539.065	33271.13
539.266	32908.64
539.466	33570.13
539.667	32650.6
539.868	33666.39
540.068	33414.49
540.269	33420.63
540.469	33416.54
540.67	32988.51
540.87	33056.09
541.071	33283.42
541.271	33303.9
541.472	33367.38
541.672	33156.44
541.873	32992.61
542.073	32988.51
542.274	33410.39
542.474	33566.04
542.675	33078.62
542.875	33695.06
543.075	33414.49
543.276	33074.52
543.476	33551.7
543.676	33355.1
543.877	33621.33
544.077	33776.98
544.277	33342.81
544.478	33617.24
544.678	33891.66
544.878	33584.47
545.078	33607
545.279	33467.73
545.479	33477.97
545.679	33420.63
545.879	33535.32
546.079	33422.68
546.28	33510.74
546.48	33277.27
546.68	33545.56
546.88	33430.87
547.08	33537.37
547.28	33199.45
547.48	33609.04
547.68	33449.3
547.88	33430.87
548.081	33858.9
548.281	33475.93
548.481	33506.65
548.681	33658.2
548.881	33484.12
549.081	33688.92
549.28	33682.77
549.48	33676.63
549.68	33408.34
549.88	33955.15
550.08	33621.33
550.28	33799.51
550.48	33789.27
550.68	33994.06
550.88	33797.46
551.08	33672.53
551.279	33744.21
551.479	33379.67
551.679	33582.42
551.879	33566.04
552.079	33828.18
552.278	33803.6
552.478	33459.54
552.678	33674.58
552.878	33899.86
553.077	33477.97
553.277	33146.2
553.477	33445.21
553.676	33342.81
553.876	33582.42
554.076	33318.23
554.275	33572.18
554.475	33297.75
554.674	33477.97
554.874	33434.97
555.074	33230.17
555.273	33412.44
555.473	33742.16
555.672	33471.83
555.872	33262.94
556.071	33322.33
556.271	33824.08
556.47	33439.06
556.67	32875.87
556.869	33408.34
557.068	33119.58
557.268	32998.75
557.467	33338.71
557.667	33477.97
557.866	33224.03
558.065	33369.43
558.265	33160.54
558.464	33008.99
558.663	33095
558.863	32910.69
559.062	33486.17
559.261	32531.81
559.461	33490.26
559.66	32961.89
559.859	32982.37
560.058	32724.32
560.258	33189.21
560.457	32834.91
560.656	33011.04
560.855	32689.51
561.054	33123.68
561.253	32834.91
561.453	32990.56
561.652	32617.83
561.851	32879.97
562.05	32628.07
562.249	32333.16
562.448	32824.67
562.647	32525.67
562.846	32574.82
563.045	32714.08
563.244	32361.83
563.443	33342.81
563.642	32429.41
563.841	32785.76
564.04	32413.03
564.239	32697.7
564.438	31915.37
564.637	32490.85
564.836	32546.15
565.035	31927.66
565.234	32529.76
565.432	32286.06
565.631	32505.19
565.83	32269.67
566.029	32064.88
566.228	31802.74
566.427	32093.55
566.625	32013.68
566.824	31692.15
567.023	32218.47
567.222	31526.26
567.42	32093.55
567.619	31808.88
567.818	31819.12
568.016	31952.24
568.215	31720.82
568.414	31888.75
568.612	32187.75
568.811	31638.9
569.01	31788.4
569.208	31438.2
569.407	31567.22
569.605	31423.86
569.804	31675.76
570.002	31442.29
570.201	31339.9
570.4	31176.06
570.598	30918.01
570.797	30844.29
570.995	30879.1
571.193	30533
571.392	30948.73
571.59	31004.03
571.789	30872.96
571.987	30870.91
572.186	30680.45
572.384	30606.72
572.582	30969.21
572.781	30977.4
572.979	30324.1
573.177	30238.09
573.376	30641.54
573.574	30442.88
573.772	30539.14
573.971	30436.74
574.169	30016.91
574.367	29975.95
574.565	30342.53
574.763	30215.56
574.962	29908.36
575.16	29584.79
575.358	29660.56
575.556	29236.63
575.754	30145.93
575.952	29406.61
576.151	29732.24
576.349	29322.65
576.547	29306.26
576.745	29461.91
576.943	29410.71
577.141	29263.25
577.339	29357.46
577.537	28857.76
577.735	29425.04
577.933	28646.82
578.131	28925.34
578.329	28747.17
578.527	28568.99
578.725	28605.86
578.923	28849.57
579.121	28859.8
579.319	28861.85
579.516	28439.97
579.714	28278.18
579.912	28399.01
580.11	28120.49
580.308	28362.15
580.506	27966.89
580.704	27430.32
580.901	27948.46
581.099	28181.93
581.297	27760.05
581.495	27833.77
581.692	28374.44
581.89	27506.1
582.088	27964.84
582.285	27735.47
582.483	27815.34
582.681	27704.75
582.878	27313.59
583.076	26926.52
583.274	27418.03
583.471	26957.24
583.669	27086.26
583.866	26783.16
584.064	27076.02
584.262	26725.82
584.459	26871.23
584.657	26762.68
584.854	26709.44
585.052	26641.85
585.249	26580.42
585.447	26633.66
585.644	26449.35
585.841	26478.02
586.039	26607.04
586.236	26344.9
586.434	26150.34
586.631	26033.61
586.828	25957.83
587.026	26029.51
587.223	25951.69
587.42	25685.45
587.618	25982.41
587.815	25929.16
588.012	25630.16
588.21	25748.94
588.407	25857.48
588.604	25591.25
588.801	25191.89
588.999	25431.51
589.196	25335.25
589.393	25376.21
589.59	25028.06
589.787	24851.93
589.984	25005.53
590.182	24792.54
590.379	24964.57
590.576	24542.69
590.773	24714.72
590.97	24540.64
591.167	24587.74
591.364	24192.48
591.561	24540.64
591.758	24116.71
591.955	24118.76
592.152	24266.21
592.349	23881.19
592.546	24059.37
592.743	24542.69
592.94	23641.58
593.137	23961.06
593.334	23737.84
593.531	23475.7
593.727	23397.87
593.924	23619.05
594.121	23551.47
594.318	23227.89
594.515	23270.9
594.712	23760.36
594.908	23242.23
595.105	23303.67
595.302	22922.74
595.499	23170.55
595.696	23021.05
595.892	22754.81
596.089	22957.56
596.286	22978.04
596.482	22898.17
596.679	22523.39
596.876	22676.99
597.072	22554.11
597.269	22504.96
597.466	22349.31
597.662	22251.01
597.859	22507.01
598.055	22216.19
598.252	22175.23
598.448	22029.83
598.645	21949.96
598.841	21663.24
599.038	22201.86
599.234	21990.92
599.431	21812.74
599.627	21454.35
599.824	21665.29
600.02	21505.55
600.217	21509.65
600.413	21394.96
600.609	21356.05
600.806	21323.28
601.002	21265.94
601.198	21255.7
601.395	20880.92
601.591	20944.41
601.787	21247.51
601.984	20555.29
602.18	21093.91
602.376	20624.92
602.572	20575.77
602.769	20162.08
602.965	20205.09
603.161	20409.89
603.357	20356.64
603.553	20448.8
603.75	20321.82
603.946	20381.21
604.142	20239.9
604.338	19926.57
604.534	20014.63
604.73	19793.45
604.926	19883.56
605.122	20088.35
605.318	19684.9
605.514	19605.03
605.71	19310.13
605.906	19543.6
606.102	19848.74
606.298	19473.96
606.494	19226.16
606.69	19334.7
606.886	19535.4
607.082	19228.21
607.278	19293.74
607.474	19074.61
607.67	19138.1
607.866	19029.55
608.062	19113.52
608.257	19093.04
608.453	18753.08
608.649	18988.6
608.845	18646.58
609.041	18677.3
609.236	18849.33
609.432	18642.49
609.628	18441.79
609.824	18269.76
610.019	18472.51
610.215	18415.16
610.411	18497.08
610.606	18603.58
610.802	18546.23
610.998	18548.28
611.193	18402.88
611.389	18243.13
611.584	18091.59
611.78	18273.85
611.976	18099.78
612.171	18019.91
612.367	18048.58
612.562	18075.2
612.758	17593.93
612.953	17931.84
613.149	18183.74
613.344	17913.41
613.539	18112.06
613.735	17792.58
613.93	18091.59
614.126	17706.57
614.321	17796.68
614.517	17860.16
614.712	17677.9
614.907	17475.15
615.103	17587.78
615.298	17559.11
615.493	17526.35
615.688	17245.77
615.884	17692.23
616.079	17180.24
616.274	17407.56
616.47	17329.74
616.665	17313.36
616.86	17176.14
617.055	17362.51
617.25	17206.86
617.445	17229.39
617.641	17149.52
617.836	17067.6
618.031	16694.87
618.226	16660.06
618.421	16801.36
618.616	16944.72
618.811	16821.84
619.006	16766.55
619.201	16445.02
619.396	16645.72
619.591	16105.06
619.786	16432.73
619.981	16133.73
620.176	16516.7
620.371	16053.86
620.566	16334.43
620.761	16070.24
620.956	16213.6
621.151	16158.3
621.346	16111.2
621.541	15857.25
621.735	15746.66
621.93	15418.99
622.125	15599.21
622.32	15267.44
622.515	15539.82
622.709	15177.33
622.904	15148.65
623.099	15044.21
623.294	14859.89
623.488	14952.05
623.683	14792.31
623.878	14829.17
624.072	14874.23
624.267	14599.8
624.462	14653.05
624.656	14538.36
624.851	14577.27
625.046	14337.66
625.24	14263.93
625.435	14315.13
625.629	14173.82
625.824	14106.24
626.018	14120.57
626.213	13788.8
626.407	13823.62
626.602	13543.05
626.796	13756.04
626.991	13633.16
627.185	13522.57
627.38	13352.59
627.574	13469.32
627.768	13325.96
627.963	13352.59
628.157	13166.22
628.352	13246.09
628.546	13104.78
628.74	13188.75
628.935	13026.96
629.129	12967.57
629.323	12748.43
629.517	12848.79
629.712	12742.29
629.906	12746.39
630.1	12523.16
630.294	12555.93
630.489	12611.22
630.683	12603.03
630.877	12336.79
631.071	12228.25
631.265	12400.28
631.459	12066.46
631.653	11988.64
631.848	11943.58
632.042	12050.08
632.236	12086.94
632.43	11761.31
632.624	11796.13
632.818	11785.89
633.012	11562.66
633.206	11611.81
633.4	11620
633.594	11372.2
633.788	11478.69
633.982	11353.77
634.176	11335.34
634.369	11103.92
634.563	11304.62
634.757	11108.01
634.951	11200.17
635.145	11191.98
635.339	11034.28
635.533	10964.65
635.726	10833.58
635.92	10737.33
636.114	10796.72
636.308	10423.99
636.501	10610.36
636.695	10620.6
636.889	10614.45
637.083	10583.73
637.276	10270.39
637.47	10331.83
637.664	10231.48
637.857	10204.86
638.051	10096.32
638.244	9922.24
638.438	9957.05
638.632	9918.14
638.825	9707.2
639.019	9797.31
639.212	9664.19
639.406	9713.35
639.599	9703.11
639.793	9592.51
639.986	9492.16
640.18	9578.18
640.373	9350.85
640.567	9293.51
640.76	9299.66
640.954	9092.81
641.147	9029.32
641.34	9096.91
641.534	8908.49
641.727	8826.57
641.92	8793.81
642.114	8752.85
642.307	8810.19
642.5	8433.36
642.694	8376.02
642.887	8386.26
643.08	8550.1
643.273	8292.05
643.467	8355.54
643.66	8158.94
643.853	8251.1
644.046	8130.27
644.239	8025.82
644.432	7945.95
644.626	8005.34
644.819	7919.32
645.012	7796.45
645.205	7814.88
645.398	7794.4
645.591	7759.58
645.784	7669.47
645.977	7431.91
646.17	7583.46
646.363	7341.8
646.556	7202.54
646.749	7327.46
646.942	7300.84
647.135	7255.78
647.328	7311.08
647.521	7073.51
647.714	6952.68
647.907	6969.07
648.099	6956.78
648.292	6956.78
648.485	7038.7
648.678	6889.2
648.871	6835.95
649.064	6618.86
649.256	6700.78
649.449	6655.73
649.642	6538.99
649.835	6596.34
650.027	6536.95
650.22	6582
650.413	6461.17
650.605	6407.92
650.798	6463.22
650.991	6276.85
651.183	6135.54
651.376	6098.68
651.568	6166.26
651.761	6039.29
651.954	6135.54
652.146	6113.02
652.339	6096.63
652.531	6076.15
652.724	5979.9
652.916	5904.12
653.109	5879.55
653.301	5965.56
653.494	5981.95
653.686	5771.01
653.879	5652.22
654.071	5744.38
654.263	5660.41
654.456	5764.86
654.648	5768.96
654.84	5590.78
655.033	5564.16
655.225	5428.99
655.417	5396.23
655.61	5441.28
655.802	5433.09
655.994	5498.63
656.186	5547.78
656.379	5326.6
656.571	5435.14
656.763	5216.01
656.955	5201.67
657.148	5164.81
657.34	5310.21
657.532	5043.98
657.724	5054.22
657.916	5121.8
658.108	4968.2
658.3	5181.19
658.492	4980.49
658.684	4828.94
658.876	4953.87
659.068	4845.32
659.26	4802.32
659.452	4894.47
659.644	4841.23
659.836	4767.5
660.028	4814.6
660.22	4716.3
660.412	4650.77
660.604	4744.97
660.796	4656.91
660.988	4691.73
661.18	4488.98
661.372	4476.69
661.563	4501.26
661.755	4478.74
661.947	4540.18
662.139	4478.74
662.331	4380.43
662.522	4384.53
662.714	4378.39
662.906	4230.93
663.097	4286.23
663.289	4134.68
663.481	4194.07
663.673	4083.48
663.864	4212.5
664.056	4044.57
664.247	4056.86
664.439	3929.88
664.631	4083.48
664.822	3942.17
665.014	4013.85
665.205	4024.09
665.397	3903.26
665.588	3884.83
665.78	3915.55
665.971	3841.82
666.163	3882.78
666.354	3833.63
666.546	3778.33
666.737	3800.86
666.929	3710.75
667.12	3909.4
667.311	3688.22
667.503	3641.12
667.694	3581.73
667.885	3602.21
668.077	3639.07
668.268	3671.84
668.459	3538.72
668.651	3551.01
668.842	3663.65
669.033	3575.58
669.224	3346.21
669.416	3534.62
669.607	3481.38
669.798	3370.79
669.989	3393.31
670.18	3389.22
670.371	3383.07
670.563	3413.79
670.754	3366.69
670.945	3448.61
671.136	3297.06
671.327	3399.46
671.518	3360.55
671.709	3370.79
671.9	3278.63
672.091	3307.3
672.282	3323.68
672.473	3249.96
672.664	3202.85
672.855	3190.56
673.046	3233.57
673.237	3225.38
673.428	3147.56
673.619	3170.08
673.809	3125.03
674	3116.84
674.191	3104.55
674.382	3094.31
674.573	3063.59
674.764	3217.19
674.954	3225.38
675.145	3071.78
675.336	3057.45
675.527	3125.03
675.717	3026.73
675.908	3141.41
676.099	2953
676.289	3045.16
676.48	3016.49
676.671	2963.24
676.861	3045.16
677.052	2963.24
677.243	2996.01
677.433	2942.76
677.624	2996.01
677.814	2973.48
678.005	2969.38
678.195	2914.09
678.386	3108.65
678.576	2932.52
678.767	2963.24
678.957	2789.16
679.148	2934.57
679.338	2965.29
679.529	2828.07
679.719	2901.8
679.909	3061.54
680.1	2864.94
680.29	2926.38
680.481	2815.79
680.671	2920.23
680.861	2838.31
681.052	2897.71
681.242	2920.23
681.432	2950.95
681.622	2819.88
681.813	2897.71
682.003	3012.39
682.193	2903.85
682.383	2934.57
682.573	2895.66
682.764	2877.23
682.954	2924.33
683.144	2836.27
683.334	2891.56
683.524	2987.82
683.714	2889.51
683.904	2869.03
684.094	3012.39
684.284	2883.37
684.474	3024.68
684.664	2926.38
684.854	2909.99
685.044	2932.52
685.234	3049.25
685.424	2905.9
685.614	2801.45
685.804	2957.1
685.994	2969.38
686.184	2979.62
686.374	2871.08
686.564	2996.01
686.753	2877.23
686.943	3028.78
687.133	3057.45
687.323	2893.61
687.513	2981.67
687.702	2950.95
687.892	3004.2
688.082	3051.3
688.272	2899.75
688.461	2953
688.651	3008.3
688.841	2909.99
689.03	2963.24
689.22	3051.3
689.41	2953
689.599	3020.58
689.789	2953
689.979	3057.45
690.168	2955.05
690.358	2873.13
690.547	3006.25
690.737	3125.03
690.926	2871.08
691.116	2928.42
691.305	3086.12
691.495	2909.99
691.684	3133.22
691.874	2942.76
692.063	2981.67
692.252	2909.99
692.442	2996.01
692.631	2914.09
692.82	2996.01
693.01	3008.3
693.199	2959.14
693.388	2842.41
693.578	2901.8
693.767	2928.42
693.956	2858.79
694.146	2942.76
694.335	3075.88
694.524	2924.33
694.713	2881.32
694.902	2883.37
695.092	2969.38
695.281	2877.23
695.47	2946.86
695.659	3051.3
695.848	2789.16
696.037	2832.17
696.226	2799.4
696.415	2875.18
696.604	2901.8
696.793	2869.03
696.982	2795.31
697.171	2815.79
697.36	2889.51
697.549	2830.12
697.738	2772.78
697.927	2869.03
698.116	2826.03
698.305	2803.5
698.494	2785.07
698.683	2785.07
698.872	2793.26
699.061	2709.29
699.25	2729.77
699.438	2707.24
699.627	2705.2
699.816	2623.28
700.005	2713.39
700.193	2649.9
700.382	2731.82
700.571	2572.08
700.76	2666.28
700.948	2656.04
701.137	2682.67
701.326	2510.64
701.514	2567.98
701.703	2731.82
701.892	2584.37
702.08	2598.7
702.269	2520.88
702.457	2506.54
702.646	2586.41
702.834	2457.39
703.023	2496.3
703.212	2492.21
703.4	2441.01
703.589	2373.43
703.777	2504.5
703.965	2332.47
704.154	2510.64
704.342	2324.27
704.531	2293.55
704.719	2340.66
704.907	2299.7
705.096	2283.31
705.284	2285.36
705.472	2379.57
705.661	2277.17
705.849	2256.69
706.037	2344.75
706.226	2373.43
706.414	2248.5
706.602	2283.31
706.79	2271.03
706.979	2340.66
707.167	2238.26
707.355	2264.88
707.543	2182.96
707.731	2174.77
707.919	2234.16
708.107	2176.82
708.296	2228.02
708.484	2182.96
708.672	2164.53
708.86	2268.98
709.048	2168.63
709.236	2086.71
709.424	2066.23
709.612	2162.48
709.8	2037.56
709.988	2084.66
710.176	2103.09
710.364	2158.39
710.551	2015.03
710.739	1980.22
710.927	2096.95
711.115	1965.88
711.303	1986.36
711.491	2107.19
711.679	1992.5
711.866	2047.8
712.054	2041.65
712.242	2004.79
712.43	2004.79
712.617	1945.4
712.805	1879.86
712.993	2090.81
713.181	1861.43
713.368	2037.56
713.556	1939.26
713.744	1892.15
713.931	2002.74
714.119	1900.34
714.306	1916.73
714.494	1838.91
714.682	1849.15
714.869	1793.85
715.057	1836.86
715.244	1836.86
715.432	1746.75
715.619	1826.62
715.807	1763.13
715.994	1894.2
716.182	1810.23
716.369	1888.06
716.556	1763.13
716.744	1781.56
716.931	1754.94
717.119	1752.89
717.306	1711.93
717.493	1722.17
717.681	1785.66
717.868	1808.19
718.055	1736.51
718.242	1668.92
718.43	1582.91
718.617	1754.94
718.804	1691.45
718.991	1648.44
719.179	1752.89
719.366	1718.08
719.553	1693.5
719.74	1670.97
719.927	1738.55
720.114	1533.76
720.301	1611.58
720.488	1668.92
720.676	1568.57
720.863	1605.44
721.05	1560.38
721.237	1460.03
721.424	1552.19
721.611	1570.62
721.798	1484.61
721.985	1529.66
722.172	1472.32
722.358	1484.61
722.545	1453.89
722.732	1503.04
722.919	1513.28
723.106	1519.42
723.293	1546.05
723.48	1513.28
723.667	1472.32
723.853	1390.4
724.04	1474.37
724.227	1267.52
724.414	1488.7
724.6	1492.8
724.787	1357.63
724.974	1404.74
725.161	1396.54
725.347	1408.83
725.534	1445.7
725.72	1318.72
725.907	1388.35
726.094	1433.41
726.28	1279.81
726.467	1187.65
726.653	1365.82
726.84	1310.53
727.027	1341.25
727.213	1320.77
727.4	1351.49
727.586	1392.45
727.773	1312.58
727.959	1265.47
728.145	1269.57
728.332	1273.67
728.518	1343.3
728.705	1236.8
728.891	1255.23
729.077	1314.63
729.264	1163.08
729.45	1208.13
729.636	1326.91
729.823	1255.23
730.009	1292.1
730.195	1232.71
730.382	1177.41
730.568	1267.52
730.754	1247.04
730.94	1134.4
731.126	1216.32
731.313	1175.36
731.499	1148.74
731.685	1152.84
731.871	1107.78
732.057	1179.46
732.243	1134.4
732.429	1199.94
732.615	1113.92
732.801	1154.88
732.987	1216.32
733.173	1087.3
733.359	1128.26
733.545	1173.32
733.731	1120.07
733.917	1169.22
734.103	1075.01
734.289	1005.38
734.475	1072.96
734.661	1107.78
734.847	1091.4
735.033	1064.77
735.219	1083.2
735.404	1038.15
735.59	1054.53
735.776	1034.05
735.962	1070.92
736.148	1191.75
736.333	1062.73
736.519	1046.34
736.705	1007.43
736.89	1060.68
737.076	1140.55
737.262	1077.06
737.447	1050.44
737.633	1036.1
737.819	1077.06
738.004	1011.53
738.19	960.33
738.375	993.09
738.561	1044.29
738.747	984.9
738.932	1066.82
739.118	1015.62
739.303	1027.91
739.489	982.85
739.674	948.04
739.859	976.71
740.045	962.37
740.23	864.07
740.416	931.66
740.601	978.76
740.786	900.94
740.972	952.13
741.157	937.8
741.342	956.23
741.528	878.41
741.713	831.3
741.898	927.56
742.084	886.6
742.269	948.04
742.454	989
742.639	862.02
742.824	884.55
743.01	839.5
743.195	902.98
743.38	939.85
743.565	888.65
743.75	857.93
743.935	816.97
744.12	829.26
744.305	786.25
744.49	905.03
744.675	868.17
744.86	788.3
745.045	917.32
745.23	833.35
745.415	872.26
745.6	849.74
745.785	823.11
745.97	823.11
746.155	792.39
746.34	718.67
746.525	675.66
746.71	782.15
746.895	786.25
747.079	700.23
747.264	763.72
747.449	722.76
747.634	730.95
747.819	677.71
748.003	716.62
748.188	722.76
748.373	733
748.557	726.86
748.742	763.72
748.927	757.58
749.111	694.09
749.296	773.96
749.481	771.91
749.665	685.9
749.85	665.42
750.034	653.13
750.219	798.54
750.404	679.75
750.588	739.15
750.773	669.52
750.957	638.8
751.141	687.95
751.326	649.04
751.51	649.04
751.695	632.65
751.879	669.52
752.064	640.84
752.248	628.56
752.432	595.79
752.617	644.94
752.801	632.65
752.985	581.45
753.17	657.23
753.354	673.61
753.538	620.36
753.722	560.97
753.907	632.65
754.091	595.79
754.275	608.08
754.459	610.12
754.643	595.79
754.828	638.8
755.012	714.57
755.196	622.41
755.38	599.88
755.564	448.33
755.748	534.35
755.932	575.31
756.116	550.73
756.3	565.07
756.484	554.83
756.668	528.21
756.852	528.21
757.036	524.11
757.22	491.34
757.404	511.82
757.588	468.81
757.772	534.35
757.956	567.12
758.14	534.35
758.323	550.73
758.507	509.77
758.691	542.54
758.875	548.68
759.059	517.97
759.242	485.2
759.426	466.77
759.61	468.81
759.794	477.01
759.977	538.45
760.161	505.68
760.345	534.35
760.528	532.3
760.712	509.77
760.895	444.24
761.079	487.25
761.263	483.15
761.446	503.63
761.63	411.47
761.813	530.25
761.997	511.82
762.18	458.57
762.364	446.29
762.547	444.24
762.731	446.29
762.914	434
763.098	485.2
763.281	452.43
763.464	493.39
763.648	458.57
763.831	444.24
764.015	372.56
764.198	372.56
764.381	487.25
764.564	468.81
764.748	409.42
764.931	376.66
765.114	448.33
765.297	413.52
765.481	434
765.664	436.05
765.847	370.51
766.03	438.09
766.213	489.29
766.397	444.24
766.58	347.98
766.763	493.39
766.946	368.46
767.129	450.38
767.312	405.33
767.495	436.05
767.678	397.14
767.861	448.33
768.044	366.42
768.227	339.79
768.41	378.7
768.593	368.46
768.776	380.75
768.959	423.76
769.142	436.05
769.324	327.5
769.507	462.67
769.69	368.46
769.873	415.57
770.056	427.85
770.239	380.75
770.421	405.33
770.604	419.66
770.787	376.66
770.97	397.14
771.152	477.01
771.335	419.66
771.518	393.04
771.7	386.9
771.883	440.14
772.066	378.7
772.248	319.31
772.431	446.29
772.613	352.08
772.796	315.22
772.978	284.5
773.161	419.66
773.343	388.94
773.526	347.98
773.708	360.27
773.891	343.89
774.073	337.74
774.256	337.74
774.438	380.75
774.621	360.27
774.803	395.09
774.985	264.02
775.168	331.6
775.35	376.66
775.532	403.28
775.715	366.42
775.897	354.13
776.079	360.27
776.261	270.16
776.444	341.84
776.626	288.59
776.808	321.36
776.99	311.12
777.173	245.59
777.355	257.87
777.537	266.07
777.719	241.49
777.901	278.35
778.083	294.74
778.265	294.74
778.447	288.59
778.629	233.3
778.811	304.98
778.993	286.54
779.175	259.92
779.357	235.35
779.539	325.46
779.721	296.78
779.903	261.97
780.085	380.75
780.267	231.25
780.449	329.55
780.631	231.25
780.812	210.77
780.994	341.84
781.176	264.02
781.358	206.67
781.54	270.16
781.721	298.83
781.903	280.4
782.085	210.77
782.267	229.2
782.448	192.34
782.63	282.45
782.812	282.45
782.993	251.73
783.175	296.78
783.357	268.11
783.538	249.68
783.72	216.91
783.901	231.25
784.083	247.63
784.264	327.5
784.446	218.96
784.627	239.44
784.809	210.77
784.99	288.59
785.172	247.63
785.353	194.39
785.535	229.2
785.716	206.67
785.897	251.73
786.079	243.54
786.26	225.11
786.441	221.01
786.623	214.87
786.804	282.45
786.985	225.11
787.167	110.42
787.348	175.95
787.529	173.91
787.71	245.59
787.891	137.04
788.073	214.87
788.254	139.09
788.435	175.95
788.616	208.72
788.797	188.24
788.978	175.95
789.159	188.24
789.34	184.15
789.522	124.76
789.703	173.91
789.884	175.95
790.065	245.59
790.246	233.3
790.427	157.52
790.607	163.67
790.788	184.15
790.969	161.62
791.15	126.8
791.331	145.24
791.512	157.52
791.693	118.61
791.874	214.87
792.054	194.39
792.235	173.91
792.416	159.57
792.597	175.95
792.778	221.01
792.958	141.14
793.139	132.95
793.32	130.9
793.5	204.63
793.681	249.68
793.862	55.12
794.042	151.38
794.223	171.86
794.404	155.47
794.584	157.52
794.765	89.94
794.945	149.33
795.126	202.58
795.306	120.66
795.487	161.62
795.667	135
795.848	165.71
796.028	190.29
796.209	149.33
796.389	175.95
796.57	180.05
796.75	116.56
796.93	116.56
797.111	202.58
797.291	175.95
797.471	137.04
797.652	124.76
797.832	114.52
798.012	130.9
798.192	184.15
798.373	120.66
798.553	147.28
798.733	116.56
798.913	89.94
799.093	141.14
799.274	206.67
799.454	163.67
799.634	67.41
799.814	132.95
799.994	157.52
800.174	143.19
800.354	132.95
800.534	87.89
800.714	169.81
800.894	161.62
801.074	106.32
801.254	186.19
801.434	96.08
801.614	171.86
801.794	147.28
801.974	296.78
802.154	-2.22
802.334	182.1
802.514	67.41
802.693	186.19
802.873	81.75
803.053	157.52
803.233	157.52
803.413	118.61
803.592	51.03
803.772	87.89
803.952	128.85
804.131	98.13
804.311	141.14
804.491	132.95
804.67	51.03
804.85	77.65
805.03	108.37
805.209	81.75
805.389	155.47
805.568	79.7
805.748	173.91
805.928	44.88
806.107	102.23
806.287	104.28
806.466	126.8
806.646	112.47
806.825	85.84
807.004	57.17
807.184	42.84
807.363	118.61
807.543	81.75
807.722	65.36
807.901	65.36
808.081	14.17
808.26	36.69
808.439	139.09
808.619	55.12
808.798	85.84
808.977	67.41
809.156	130.9
809.336	59.22
809.515	143.19
809.694	83.8
809.873	112.47
810.052	91.99
810.231	108.37
810.411	91.99
810.59	46.93
810.769	104.28
810.948	77.65
811.127	79.7
811.306	18.26
811.485	53.08
811.664	71.51
811.843	61.27
812.022	128.85
812.201	61.27
812.38	44.88
812.559	20.31
812.737	120.66
812.916	147.28
813.095	130.9
813.274	53.08
813.453	20.31
813.632	122.71
813.811	94.04
813.989	48.98
814.168	102.23
814.347	65.36
814.526	81.75
814.704	57.17
814.883	114.52
815.062	16.21
815.24	126.8
815.419	77.65
815.598	32.6
815.776	85.84
815.955	83.8
816.133	161.62
816.312	143.19
816.49	34.64
816.669	75.6
816.847	42.84
817.026	42.84
817.204	91.99
817.383	46.93
817.561	26.45
817.74	94.04
817.918	1.88
818.097	-2.22
818.275	67.41
818.453	77.65
818.632	81.75
818.81	-4.27
818.988	51.03
819.167	36.69
819.345	51.03
819.523	67.41
819.701	59.22
819.879	-20.65
820.058	114.52
820.236	155.47
820.414	87.89
820.592	53.08
820.77	3.93
820.948	63.32
821.127	18.26
821.305	65.36
821.483	-6.31
821.661	18.26
821.839	16.21
822.017	124.76
822.195	42.84
822.373	139.09
822.551	42.84
822.729	46.93
822.907	1.88
823.085	26.45
823.262	67.41
823.44	30.55
823.618	-12.46
823.796	-2.22
823.974	3.93
824.152	81.75
824.329	98.13
824.507	30.55
824.685	63.32
824.863	30.55
825.04	77.65
825.218	53.08
825.396	73.56
825.574	83.8
825.751	-84.14
825.929	32.6
826.107	-32.94
826.284	59.22
826.462	59.22
826.639	132.95
826.817	8.02
826.994	118.61
827.172	8.02
827.349	116.56
827.527	36.69
827.704	59.22
827.882	63.32
828.059	61.27
828.237	40.79
828.414	69.46
828.591	71.51
828.769	57.17
828.946	5.97
829.124	1.88
829.301	118.61
829.478	63.32
829.655	100.18
829.833	132.95
830.01	63.32
830.187	71.51
830.364	1.88
830.542	44.88
830.719	116.56
830.896	26.45
831.073	-32.94
831.25	38.74
831.427	12.12
831.604	40.79
831.782	122.71
831.959	38.74
832.136	73.56
832.313	1.88
832.49	32.6
832.667	30.55
832.844	48.98
833.021	89.94
833.198	46.93
833.374	28.5
833.551	32.6
833.728	81.75
833.905	51.03
834.082	22.36
834.259	61.27
834.436	30.55
834.612	26.45
834.789	20.31
834.966	-55.47
835.143	120.66
835.319	3.93
835.496	14.17
835.673	40.79
835.85	57.17
836.026	61.27
836.203	51.03
836.38	32.6
836.556	-4.27
836.733	-26.79
836.909	108.37
837.086	96.08
837.262	51.03
837.439	71.51
837.616	16.21
837.792	-73.9
837.968	104.28
838.145	10.07
838.321	-22.7
838.498	65.36
838.674	44.88
838.851	14.17
839.027	40.79
839.203	75.6
839.38	40.79
839.556	-4.27
839.732	34.64
839.909	55.12
840.085	40.79
840.261	10.07
840.437	94.04
840.614	8.02
840.79	61.27
840.966	59.22
841.142	1.88
841.318	81.75
841.494	22.36
841.671	24.4
841.847	73.56
842.023	69.46
842.199	91.99
842.375	65.36
842.551	-30.89
842.727	44.88
842.903	-10.41
843.079	77.65
843.255	67.41
843.431	102.23
843.607	36.69
843.783	1.88
843.959	28.5
844.134	-10.41
844.31	53.08
844.486	57.17
844.662	38.74
844.838	89.94
845.013	48.98
845.189	-0.17
845.365	48.98
845.541	44.88
845.716	44.88
845.892	34.64
846.068	67.41
846.244	-4.27
846.419	42.84
846.595	61.27
846.77	36.69
846.946	42.84
847.122	-28.84
847.297	-4.27
847.473	91.99
847.648	22.36
847.824	1.88
847.999	94.04
848.175	53.08
848.35	1.88
848.526	46.93
848.701	40.79
848.876	75.6
849.052	36.69
849.227	85.84
849.403	30.55
849.578	-43.18
849.753	51.03
849.929	-28.84
850.104	-2.22
850.279	18.26
850.454	55.12
850.63	42.84
850.805	46.93
850.98	36.69
851.155	28.5
851.33	91.99
851.505	24.4
851.681	24.4
851.856	36.69
852.031	22.36
852.206	-45.23
852.381	38.74
852.556	75.6
852.731	-55.47
852.906	48.98
853.081	18.26
853.256	98.13
853.431	18.26
853.606	-20.65
853.781	-4.27
853.956	-49.32
854.131	-24.75
854.305	-4.27
854.48	44.88
854.655	-22.7
854.83	36.69
855.005	89.94
855.18	34.64
855.354	-63.66
855.529	36.69
855.704	51.03
855.879	16.21
856.053	59.22
856.228	10.07
856.403	32.6
856.577	46.93
856.752	28.5
856.926	-39.08
857.101	48.98
857.276	1.88
857.45	36.69
857.625	-20.65
857.799	-37.03
857.974	10.07
858.148	-65.71
858.323	36.69
858.497	-6.31
858.672	55.12
858.846	8.02
859.02	32.6
859.195	53.08
859.369	85.84
859.543	36.69
859.718	51.03
859.892	42.84
860.066	20.31
860.241	-28.84
860.415	81.75
860.589	22.36
860.763	-20.65
860.938	32.6
861.112	28.5
861.286	12.12
861.46	57.17
861.634	-4.27
861.808	26.45
861.982	-2.22
862.157	55.12
862.331	14.17
862.505	20.31
862.679	16.21
862.853	18.26
863.027	48.98
863.201	44.88
863.375	18.26
863.549	22.36
863.722	14.17
863.896	24.4
864.07	-8.36
864.244	44.88
864.418	-8.36
864.592	75.6
864.766	24.4
864.939	1.88
865.113	14.17
865.287	16.21
865.461	-14.51
865.634	12.12
865.808	-28.84
865.982	3.93
866.156	-20.65
866.329	24.4
866.503	38.74
866.676	91.99
866.85	-18.6
867.024	36.69
867.197	57.17
867.371	75.6
867.544	51.03
867.718	-8.36
867.891	40.79
868.065	-18.6
868.238	26.45
868.412	-0.17
868.585	51.03
868.759	12.12
868.932	-32.94
869.105	10.07
869.279	-53.42
869.452	18.26
869.625	-4.27
869.799	10.07
869.972	-10.41
870.145	10.07
870.319	-61.61
870.492	-12.46
870.665	-32.94
870.838	3.93
871.011	-24.75
871.185	59.22
871.358	40.79
871.531	30.55
871.704	59.22
871.877	67.41
872.05	65.36
872.223	24.4
872.396	-34.99
872.569	20.31
872.742	75.6
872.915	-71.85
873.088	-2.22
873.261	69.46
873.434	1.88
873.607	14.17
873.78	-14.51
873.953	-4.27
874.126	10.07
874.299	57.17
874.471	18.26
874.644	12.12
874.817	-30.89
874.99	8.02
875.163	-82.09
875.335	18.26
875.508	20.31
875.681	67.41
875.853	-47.27
876.026	34.64
876.199	61.27
876.371	8.02
876.544	8.02
876.717	18.26
876.889	18.26
877.062	53.08
877.234	-86.19
877.407	34.64
877.579	10.07
877.752	38.74
877.924	28.5
878.097	22.36
878.269	20.31
878.442	102.23
878.614	1.88
878.786	73.56
878.959	-43.18
879.131	34.64
879.303	-26.79
879.476	3.93
879.648	-4.27
879.82	1.88
879.993	30.55
880.165	-8.36
880.337	44.88
880.509	-14.51
880.681	69.46
880.854	-20.65
881.026	-34.99
881.198	48.98
881.37	-39.08
881.542	22.36
881.714	12.12
881.886	8.02
882.058	-10.41
882.23	34.64
882.402	-32.94
882.574	69.46
882.746	28.5
882.918	40.79
883.09	18.26
883.262	-49.32
883.434	-8.36
883.606	36.69
883.778	59.22
883.95	-57.51
884.122	-51.37
884.293	26.45
884.465	36.69
884.637	5.97
884.809	10.07
884.98	-2.22
885.152	30.55
885.324	28.5
885.496	14.17
885.667	-20.65
885.839	18.26
886.011	-12.46
886.182	-20.65
886.354	24.4
886.525	-34.99
886.697	20.31
886.869	44.88
887.04	57.17
887.212	30.55
887.383	44.88
887.555	-28.84
887.726	-18.6
887.897	34.64
888.069	5.97
888.24	-10.41
888.412	120.66
888.583	-65.71
888.754	26.45
888.926	12.12
889.097	28.5
889.268	-47.27
889.44	12.12
889.611	-24.75
889.782	14.17
889.953	-28.84
890.125	85.84
890.296	-63.66
890.467	26.45
890.638	-53.42
890.809	-24.75
890.98	-34.99
891.151	-63.66
891.323	16.21
891.494	38.74
891.665	-34.99
891.836	16.21
892.007	8.02
892.178	24.4
892.349	20.31
892.52	-18.6
892.691	51.03
892.862	46.93
893.032	-43.18
893.203	67.41
893.374	20.31
893.545	75.6
893.716	-41.13
893.887	3.93
894.057	-26.79
894.228	48.98
894.399	-20.65
894.57	-14.51
894.74	5.97
894.911	3.93
895.082	30.55
895.253	42.84
895.423	12.12
895.594	3.93
895.764	59.22
895.935	26.45
896.106	42.84
896.276	20.31
896.447	30.55
896.617	71.51
896.788	-47.27
896.958	51.03
897.129	-8.36
897.299	8.02
897.47	34.64
897.64	30.55
897.81	30.55
897.981	10.07
898.151	46.93
898.322	1.88
898.492	53.08
898.662	44.88
898.832	18.26
899.003	14.17
899.173	3.93
899.343	69.46
899.513	-6.31
