Data from USB4F104151__51__12-53-59-334.txt Node

Date: Fri Mar 14 12:53:59 EDT 2025
User: louis
Spectrometer: USB4F10415
Trigger mode: 4
Integration Time (sec): 1.000000E-2
Scans to average: 1
Electric dark correction enabled: true
Nonlinearity correction enabled: false
Boxcar width: 0
XAxis mode: Wavelengths
Number of Pixels in Spectrum: 3648
>>>>>Begin Spectral Data<<<<<
178.204	-35.5
178.424	-35.5
178.644	-35.5
178.864	-45.74
179.084	-35.5
179.304	73.04
179.524	-23.21
179.744	75.09
179.964	-10.92
180.184	1.37
180.404	11.61
180.624	13.65
180.844	-35.5
181.064	-2.73
181.283	-55.98
181.503	-6.83
181.723	-39.59
181.943	19.8
182.163	64.85
182.383	-43.69
182.602	7.51
182.822	40.28
183.042	-10.92
183.262	-8.87
183.482	32.08
183.701	-53.93
183.921	-25.26
184.141	-2.73
184.361	95.57
184.58	-31.4
184.8	79.19
185.02	48.47
185.239	30.04
185.459	15.7
185.679	19.8
185.898	-78.51
186.118	60.76
186.338	-55.98
186.557	89.43
186.777	-12.97
186.997	-8.87
187.216	-45.74
187.436	32.08
187.655	30.04
187.875	17.75
188.095	19.8
188.314	-60.07
188.534	46.42
188.753	30.04
188.973	38.23
189.192	-55.98
189.412	54.61
189.631	-0.68
189.851	73.04
190.07	44.37
190.29	-74.41
190.509	21.85
190.729	-2.73
190.948	1.37
191.168	103.76
191.387	71
191.607	64.85
191.826	-15.02
192.045	38.23
192.265	34.13
192.484	50.52
192.704	34.13
192.923	-21.16
193.142	64.85
193.362	77.14
193.581	27.99
193.8	21.85
194.02	21.85
194.239	5.46
194.458	44.37
194.678	-37.55
194.897	5.46
195.116	5.46
195.335	-6.83
195.555	-8.87
195.774	60.76
195.993	-0.68
196.212	-80.55
196.432	34.13
196.651	25.94
196.87	-17.07
197.089	13.65
197.308	21.85
197.528	36.18
197.747	25.94
197.966	-58.03
198.185	-12.97
198.404	-19.11
198.623	7.51
198.842	-66.22
199.062	17.75
199.281	60.76
199.5	9.56
199.719	46.42
199.938	-17.07
200.157	50.52
200.376	-12.97
200.595	52.56
200.814	19.8
201.033	-6.83
201.252	-31.4
201.471	23.89
201.69	-6.83
201.909	54.61
202.128	-2.73
202.347	-15.02
202.566	13.65
202.785	-4.78
203.004	-43.69
203.223	30.04
203.442	-4.78
203.661	38.23
203.879	34.13
204.098	68.95
204.317	-12.97
204.536	-39.59
204.755	68.95
204.974	-2.73
205.193	38.23
205.411	99.67
205.63	19.8
205.849	7.51
206.068	38.23
206.287	38.23
206.505	-39.59
206.724	-4.78
206.943	89.43
207.162	1.37
207.381	15.7
207.599	111.96
207.818	9.56
208.037	32.08
208.255	3.41
208.474	7.51
208.693	-4.78
208.911	1.37
209.13	27.99
209.349	15.7
209.567	21.85
209.786	73.04
210.005	-12.97
210.223	38.23
210.442	30.04
210.661	19.8
210.879	-8.87
211.098	-19.11
211.316	42.32
211.535	-15.02
211.753	-2.73
211.972	48.47
212.191	-8.87
212.409	-6.83
212.628	-2.73
212.846	32.08
213.065	42.32
213.283	17.75
213.502	103.76
213.72	-4.78
213.938	-33.45
214.157	1.37
214.375	95.57
214.594	42.32
214.812	15.7
215.031	40.28
215.249	-43.69
215.467	58.71
215.686	-60.07
215.904	75.09
216.122	46.42
216.341	44.37
216.559	-10.92
216.778	7.51
216.996	-51.88
217.214	71
217.432	-0.68
217.651	13.65
217.869	-0.68
218.087	19.8
218.306	-23.21
218.524	114
218.742	19.8
218.96	23.89
219.179	-0.68
219.397	27.99
219.615	13.65
219.833	23.89
220.051	77.14
220.27	25.94
220.488	-15.02
220.706	13.65
220.924	64.85
221.142	34.13
221.36	-6.83
221.578	-2.73
221.796	5.46
222.015	-19.11
222.233	-45.74
222.451	36.18
222.669	-19.11
222.887	34.13
223.105	40.28
223.323	36.18
223.541	1.37
223.759	11.61
223.977	1.37
224.195	62.8
224.413	-58.03
224.631	64.85
224.849	21.85
225.067	-31.4
225.285	-21.16
225.503	-0.68
225.721	-25.26
225.939	36.18
226.157	-8.87
226.375	114
226.592	-35.5
226.81	-0.68
227.028	40.28
227.246	3.41
227.464	48.47
227.682	54.61
227.9	40.28
228.117	-0.68
228.335	42.32
228.553	81.24
228.771	-10.92
228.989	13.65
229.206	15.7
229.424	-2.73
229.642	38.23
229.86	34.13
230.077	40.28
230.295	13.65
230.513	32.08
230.731	11.61
230.948	159.06
231.166	17.75
231.384	13.65
231.601	62.8
231.819	56.66
232.037	-37.55
232.254	-23.21
232.472	36.18
232.689	50.52
232.907	1.37
233.125	-41.64
233.342	-21.16
233.56	56.66
233.777	64.85
233.995	11.61
234.213	1.37
234.43	54.61
234.648	-25.26
234.865	-6.83
235.083	15.7
235.3	25.94
235.518	79.19
235.735	81.24
235.953	71
236.17	27.99
236.388	-31.4
236.605	52.56
236.822	5.46
237.04	15.7
237.257	62.8
237.475	19.8
237.692	13.65
237.909	27.99
238.127	-60.07
238.344	-15.02
238.562	34.13
238.779	5.46
238.996	-23.21
239.214	68.95
239.431	-6.83
239.648	27.99
239.865	50.52
240.083	5.46
240.3	15.7
240.517	-31.4
240.735	-29.35
240.952	11.61
241.169	36.18
241.386	21.85
241.603	83.28
241.821	-37.55
242.038	85.33
242.255	54.61
242.472	7.51
242.689	-8.87
242.907	-33.45
243.124	64.85
243.341	-8.87
243.558	3.41
243.775	17.75
243.992	-23.21
244.209	38.23
244.426	42.32
244.643	21.85
244.86	15.7
245.078	5.46
245.295	111.96
245.512	56.66
245.729	-15.02
245.946	32.08
246.163	54.61
246.38	122.2
246.597	1.37
246.814	-15.02
247.031	11.61
247.248	-35.5
247.464	-4.78
247.681	7.51
247.898	64.85
248.115	34.13
248.332	-31.4
248.549	38.23
248.766	32.08
248.983	-29.35
249.2	-17.07
249.417	54.61
249.633	-21.16
249.85	54.61
250.067	15.7
250.284	34.13
250.501	68.95
250.717	52.56
250.934	-51.88
251.151	-6.83
251.368	-19.11
251.585	-33.45
251.801	21.85
252.018	23.89
252.235	46.42
252.451	3.41
252.668	-17.07
252.885	30.04
253.102	-19.11
253.318	50.52
253.535	-2.73
253.752	7.51
253.968	60.76
254.185	13.65
254.401	56.66
254.618	62.8
254.835	44.37
255.051	68.95
255.268	-2.73
255.484	-15.02
255.701	71
255.917	66.9
256.134	-15.02
256.351	9.56
256.567	27.99
256.784	40.28
257	-15.02
257.217	5.46
257.433	48.47
257.65	95.57
257.866	9.56
258.082	30.04
258.299	48.47
258.515	30.04
258.732	-8.87
258.948	-0.68
259.165	-15.02
259.381	-6.83
259.597	9.56
259.814	15.7
260.03	-15.02
260.246	34.13
260.463	-37.55
260.679	-35.5
260.895	73.04
261.112	-49.83
261.328	-25.26
261.544	7.51
261.761	-53.93
261.977	7.51
262.193	38.23
262.409	27.99
262.626	7.51
262.842	5.46
263.058	44.37
263.274	-2.73
263.49	85.33
263.707	75.09
263.923	11.61
264.139	21.85
264.355	23.89
264.571	64.85
264.787	5.46
265.004	40.28
265.22	46.42
265.436	-31.4
265.652	38.23
265.868	89.43
266.084	-31.4
266.3	-31.4
266.516	-8.87
266.732	89.43
266.948	21.85
267.164	15.7
267.38	56.66
267.596	38.23
267.812	5.46
268.028	60.76
268.244	40.28
268.46	46.42
268.676	11.61
268.892	7.51
269.108	-47.79
269.324	-0.68
269.54	58.71
269.756	56.66
269.972	-33.45
270.188	-0.68
270.403	77.14
270.619	9.56
270.835	32.08
271.051	52.56
271.267	9.56
271.483	-4.78
271.698	-0.68
271.914	1.37
272.13	64.85
272.346	5.46
272.562	-6.83
272.777	-4.78
272.993	-17.07
273.209	32.08
273.425	44.37
273.64	-4.78
273.856	79.19
274.072	1.37
274.287	-49.83
274.503	89.43
274.719	-19.11
274.934	75.09
275.15	-64.17
275.366	36.18
275.581	46.42
275.797	-2.73
276.012	19.8
276.228	-29.35
276.444	52.56
276.659	73.04
276.875	48.47
277.09	19.8
277.306	-2.73
277.521	-19.11
277.737	13.65
277.952	13.65
278.168	60.76
278.383	-66.22
278.599	71
278.814	89.43
279.03	23.89
279.245	-27.31
279.461	-35.5
279.676	5.46
279.892	32.08
280.107	54.61
280.322	11.61
280.538	21.85
280.753	-51.88
280.969	9.56
281.184	11.61
281.399	-27.31
281.615	17.75
281.83	77.14
282.045	-2.73
282.26	54.61
282.476	77.14
282.691	21.85
282.906	-2.73
283.122	66.9
283.337	48.47
283.552	54.61
283.767	54.61
283.983	48.47
284.198	-4.78
284.413	48.47
284.628	36.18
284.843	11.61
285.058	-0.68
285.274	62.8
285.489	42.32
285.704	15.7
285.919	-25.26
286.134	48.47
286.349	46.42
286.564	-0.68
286.779	40.28
286.995	48.47
287.21	7.51
287.425	56.66
287.64	34.13
287.855	9.56
288.07	-29.35
288.285	25.94
288.5	-19.11
288.715	21.85
288.93	54.61
289.145	38.23
289.36	107.86
289.575	71
289.79	58.71
290.004	-17.07
290.219	64.85
290.434	81.24
290.649	34.13
290.864	62.8
291.079	42.32
291.294	71
291.509	-2.73
291.724	-4.78
291.938	-8.87
292.153	68.95
292.368	19.8
292.583	75.09
292.798	75.09
293.012	36.18
293.227	17.75
293.442	42.32
293.657	42.32
293.871	87.38
294.086	34.13
294.301	-0.68
294.516	-2.73
294.73	17.75
294.945	30.04
295.16	-6.83
295.374	23.89
295.589	79.19
295.804	-51.88
296.018	9.56
296.233	46.42
296.447	42.32
296.662	54.61
296.877	32.08
297.091	44.37
297.306	71
297.52	17.75
297.735	99.67
297.949	50.52
298.164	32.08
298.378	21.85
298.593	54.61
298.807	5.46
299.022	7.51
299.236	15.7
299.451	36.18
299.665	64.85
299.88	54.61
300.094	64.85
300.309	-25.26
300.523	-17.07
300.737	17.75
300.952	-4.78
301.166	52.56
301.381	30.04
301.595	60.76
301.809	-19.11
302.024	-53.93
302.238	27.99
302.452	73.04
302.667	136.53
302.881	19.8
303.095	71
303.309	32.08
303.524	-0.68
303.738	17.75
303.952	109.91
304.166	19.8
304.381	62.8
304.595	68.95
304.809	79.19
305.023	68.95
305.237	-23.21
305.452	36.18
305.666	-29.35
305.88	79.19
306.094	9.56
306.308	46.42
306.522	17.75
306.736	93.52
306.95	68.95
307.164	-10.92
307.379	50.52
307.593	42.32
307.807	140.63
308.021	103.76
308.235	-19.11
308.449	58.71
308.663	1.37
308.877	52.56
309.091	-68.27
309.305	83.28
309.519	36.18
309.733	36.18
309.947	58.71
310.161	66.9
310.374	19.8
310.588	54.61
310.802	-47.79
311.016	42.32
311.23	-0.68
311.444	138.58
311.658	105.81
311.872	30.04
312.085	-29.35
312.299	64.85
312.513	83.28
312.727	-0.68
312.941	-72.36
313.154	11.61
313.368	15.7
313.582	46.42
313.796	64.85
314.009	25.94
314.223	-6.83
314.437	66.9
314.651	21.85
314.864	38.23
315.078	-15.02
315.292	40.28
315.505	64.85
315.719	81.24
315.933	56.66
316.146	21.85
316.36	-33.45
316.573	-17.07
316.787	21.85
317.001	56.66
317.214	-27.31
317.428	48.47
317.641	64.85
317.855	9.56
318.068	34.13
318.282	56.66
318.495	89.43
318.709	77.14
318.922	21.85
319.136	19.8
319.349	13.65
319.563	-6.83
319.776	54.61
319.99	34.13
320.203	34.13
320.417	17.75
320.63	87.38
320.843	60.76
321.057	-76.46
321.27	13.65
321.483	68.95
321.697	32.08
321.91	-27.31
322.124	85.33
322.337	36.18
322.55	32.08
322.763	23.89
322.977	1.37
323.19	32.08
323.403	36.18
323.617	15.7
323.83	-10.92
324.043	44.37
324.256	1.37
324.469	48.47
324.683	40.28
324.896	54.61
325.109	40.28
325.322	73.04
325.535	58.71
325.748	-19.11
325.962	32.08
326.175	38.23
326.388	-21.16
326.601	79.19
326.814	27.99
327.027	71
327.24	66.9
327.453	64.85
327.666	64.85
327.879	85.33
328.092	-0.68
328.305	-8.87
328.518	62.8
328.731	7.51
328.944	114
329.157	50.52
329.37	95.57
329.583	38.23
329.796	64.85
330.009	54.61
330.222	25.94
330.435	54.61
330.648	107.86
330.861	62.8
331.073	25.94
331.286	124.24
331.499	52.56
331.712	-8.87
331.925	34.13
332.138	126.29
332.35	-2.73
332.563	-4.78
332.776	85.33
332.989	3.41
333.202	9.56
333.414	40.28
333.627	17.75
333.84	19.8
334.053	52.56
334.265	7.51
334.478	38.23
334.691	54.61
334.903	56.66
335.116	-0.68
335.329	3.41
335.541	81.24
335.754	54.61
335.966	109.91
336.179	-2.73
336.392	-8.87
336.604	-17.07
336.817	66.9
337.029	1.37
337.242	118.1
337.454	-4.78
337.667	-6.83
337.88	75.09
338.092	56.66
338.305	32.08
338.517	46.42
338.729	3.41
338.942	19.8
339.154	58.71
339.367	-49.83
339.579	91.48
339.792	81.24
340.004	52.56
340.217	42.32
340.429	-0.68
340.641	-17.07
340.854	83.28
341.066	34.13
341.278	3.41
341.491	-15.02
341.703	32.08
341.915	36.18
342.128	7.51
342.34	71
342.552	36.18
342.764	-19.11
342.977	60.76
343.189	46.42
343.401	60.76
343.613	-15.02
343.826	30.04
344.038	-23.21
344.25	66.9
344.462	40.28
344.674	-10.92
344.886	56.66
345.099	62.8
345.311	23.89
345.523	62.8
345.735	25.94
345.947	40.28
346.159	62.8
346.371	64.85
346.583	23.89
346.795	25.94
347.007	13.65
347.219	77.14
347.431	25.94
347.643	64.85
347.855	27.99
348.067	73.04
348.279	48.47
348.491	66.9
348.703	-33.45
348.915	75.09
349.127	66.9
349.339	13.65
349.551	25.94
349.763	62.8
349.975	17.75
350.187	103.76
350.399	89.43
350.61	-15.02
350.822	-0.68
351.034	9.56
351.246	-2.73
351.458	120.15
351.669	-31.4
351.881	-0.68
352.093	46.42
352.305	85.33
352.517	46.42
352.728	95.57
352.94	60.76
353.152	-6.83
353.363	13.65
353.575	62.8
353.787	36.18
353.999	81.24
354.21	32.08
354.422	81.24
354.633	120.15
354.845	25.94
355.057	9.56
355.268	3.41
355.48	13.65
355.692	79.19
355.903	73.04
356.115	-21.16
356.326	-43.69
356.538	48.47
356.749	52.56
356.961	95.57
357.172	58.71
357.384	34.13
357.595	-35.5
357.807	21.85
358.018	42.32
358.23	50.52
358.441	30.04
358.653	-0.68
358.864	42.32
359.075	7.51
359.287	25.94
359.498	58.71
359.709	-0.68
359.921	71
360.132	21.85
360.344	79.19
360.555	66.9
360.766	27.99
360.977	87.38
361.189	25.94
361.4	25.94
361.611	101.72
361.823	66.9
362.034	36.18
362.245	32.08
362.456	-19.11
362.667	15.7
362.879	7.51
363.09	48.47
363.301	54.61
363.512	30.04
363.723	23.89
363.935	93.52
364.146	-70.31
364.357	56.66
364.568	30.04
364.779	-31.4
364.99	71
365.201	85.33
365.412	-27.31
365.623	-35.5
365.834	-55.98
366.045	101.72
366.256	126.29
366.467	34.13
366.678	-12.97
366.889	44.37
367.1	64.85
367.311	3.41
367.522	5.46
367.733	46.42
367.944	34.13
368.155	-37.55
368.366	32.08
368.577	109.91
368.788	79.19
368.999	36.18
369.209	3.41
369.42	48.47
369.631	15.7
369.842	21.85
370.053	89.43
370.264	7.51
370.474	11.61
370.685	-8.87
370.896	25.94
371.107	52.56
371.317	48.47
371.528	40.28
371.739	46.42
371.95	62.8
372.16	103.76
372.371	38.23
372.582	62.8
372.792	40.28
373.003	101.72
373.214	1.37
373.424	-45.74
373.635	-15.02
373.846	60.76
374.056	101.72
374.267	109.91
374.477	58.71
374.688	107.86
374.898	62.8
375.109	9.56
375.319	32.08
375.53	-4.78
375.74	54.61
375.951	73.04
376.161	44.37
376.372	40.28
376.582	23.89
376.793	-27.31
377.003	36.18
377.214	54.61
377.424	23.89
377.635	23.89
377.845	-23.21
378.055	89.43
378.266	-58.03
378.476	77.14
378.686	71
378.897	77.14
379.107	-10.92
379.317	42.32
379.528	25.94
379.738	111.96
379.948	7.51
380.158	75.09
380.369	32.08
380.579	64.85
380.789	60.76
380.999	13.65
381.21	30.04
381.42	97.62
381.63	-15.02
381.84	101.72
382.05	62.8
382.261	52.56
382.471	46.42
382.681	-8.87
382.891	77.14
383.101	42.32
383.311	54.61
383.521	89.43
383.731	25.94
383.941	52.56
384.151	68.95
384.361	40.28
384.571	46.42
384.781	142.68
384.991	83.28
385.201	99.67
385.411	64.85
385.621	68.95
385.831	40.28
386.041	13.65
386.251	19.8
386.461	71
386.671	25.94
386.881	50.52
387.091	13.65
387.301	75.09
387.511	50.52
387.72	107.86
387.93	11.61
388.14	38.23
388.35	52.56
388.56	40.28
388.769	89.43
388.979	50.52
389.189	52.56
389.399	23.89
389.609	34.13
389.818	30.04
390.028	42.32
390.238	68.95
390.447	44.37
390.657	87.38
390.867	11.61
391.076	-15.02
391.286	101.72
391.496	91.48
391.705	87.38
391.915	36.18
392.125	5.46
392.334	81.24
392.544	71
392.753	109.91
392.963	81.24
393.172	36.18
393.382	48.47
393.591	32.08
393.801	62.8
394.01	56.66
394.22	30.04
394.429	30.04
394.639	40.28
394.848	89.43
395.058	32.08
395.267	25.94
395.477	42.32
395.686	122.2
395.895	68.95
396.105	23.89
396.314	34.13
396.524	107.86
396.733	27.99
396.942	91.48
397.152	85.33
397.361	48.47
397.57	93.52
397.78	89.43
397.989	89.43
398.198	38.23
398.407	25.94
398.617	111.96
398.826	128.34
399.035	64.85
399.244	114
399.453	58.71
399.663	85.33
399.872	71
400.081	64.85
400.29	89.43
400.499	68.95
400.708	85.33
400.917	75.09
401.127	111.96
401.336	32.08
401.545	114
401.754	126.29
401.963	85.33
402.172	130.39
402.381	40.28
402.59	77.14
402.799	13.65
403.008	159.06
403.217	79.19
403.426	52.56
403.635	99.67
403.844	116.05
404.053	148.82
404.262	109.91
404.471	60.76
404.68	128.34
404.888	89.43
405.097	93.52
405.306	171.35
405.515	126.29
405.724	99.67
405.933	167.25
406.142	103.76
406.35	91.48
406.559	179.54
406.768	148.82
406.977	189.78
407.185	101.72
407.394	93.52
407.603	83.28
407.812	187.73
408.02	150.87
408.229	126.29
408.438	208.21
408.646	191.83
408.855	245.07
409.064	179.54
409.272	185.68
409.481	195.92
409.69	161.11
409.898	212.31
410.107	197.97
410.315	173.39
410.524	255.31
410.733	281.94
410.941	261.46
411.15	290.13
411.358	333.14
411.567	308.56
411.775	234.83
411.984	308.56
412.192	298.32
412.401	343.38
412.609	423.25
412.818	357.71
413.026	312.66
413.234	384.34
413.443	402.77
413.651	451.92
413.86	341.33
414.068	445.77
414.276	517.45
414.485	435.53
414.693	370
414.901	505.17
415.11	589.13
415.318	494.93
415.526	599.37
415.734	593.23
415.943	644.43
416.151	572.75
416.359	621.9
416.567	617.8
416.776	609.61
416.984	687.43
417.192	712.01
417.4	646.48
417.608	738.63
417.817	728.39
418.025	865.61
418.233	834.89
418.441	757.07
418.649	898.38
418.857	941.38
419.065	916.81
419.273	925
419.481	896.33
419.689	1092.93
419.897	1056.07
420.105	1164.61
420.313	1160.52
420.521	1131.84
420.729	1244.48
420.937	1262.91
421.145	1275.2
421.353	1269.06
421.561	1398.08
421.769	1426.75
421.977	1496.38
422.185	1449.28
422.393	1586.49
422.601	1613.12
422.809	1637.69
423.017	1705.28
423.224	1791.29
423.432	1686.84
423.64	1834.3
423.848	1873.21
424.056	1977.66
424.263	2030.9
424.471	2151.73
424.679	2166.07
424.887	2319.67
425.094	2368.82
425.302	2252.08
425.51	2487.6
425.718	2471.22
425.925	2387.25
426.133	2542.89
426.341	2712.88
426.548	2880.81
426.756	2788.65
426.964	2874.67
427.171	2950.44
427.379	3165.48
427.586	3220.77
427.794	3345.7
428.001	3470.62
428.209	3501.34
428.417	3421.47
428.624	3841.31
428.832	3886.36
429.039	3669.28
429.247	3794.2
429.454	3951.9
429.662	4318.48
429.869	4128.02
430.076	4457.75
430.284	4216.09
430.491	4523.28
430.699	4810
430.906	4822.28
431.114	4771.08
431.321	4904.2
431.528	5027.08
431.736	5295.36
431.943	5569.79
432.15	5571.84
432.358	5723.39
432.565	5905.66
432.772	5848.32
432.979	6243.57
433.187	6296.82
433.394	6290.68
433.601	6790.38
433.808	6802.67
434.016	6640.88
434.223	6980.84
434.43	7396.58
434.637	7171.3
434.844	7752.93
435.052	7904.48
435.259	7900.38
435.466	7894.24
435.673	7763.17
435.88	8410.32
436.087	9071.82
436.294	8801.49
436.501	8602.83
436.708	8830.16
436.915	8957.13
437.122	9616.58
437.329	9471.17
437.537	9788.61
437.743	9974.97
437.95	9882.81
438.157	10546.36
438.364	10904.75
438.571	10785.97
438.778	10601.65
438.985	11783.33
439.192	11435.17
439.399	11607.2
439.606	11416.74
439.813	12086.43
440.02	12686.48
440.227	12459.16
440.433	12666
440.64	12950.67
440.847	12647.57
441.054	12932.24
441.261	13888.64
441.467	13868.16
441.674	14046.33
441.881	14503.03
442.088	14595.19
442.294	14566.52
442.501	14820.47
442.708	15146.09
442.914	15733.86
443.121	16510.04
443.328	15963.23
443.534	17259.6
443.741	16567.38
443.948	16518.23
444.154	17736.77
444.361	17579.08
444.568	17505.35
444.774	17683.53
444.981	17595.46
445.187	18322.49
445.394	18949.17
445.6	18736.18
445.807	20720.67
446.013	19670.06
446.22	20120.61
446.426	21091.35
446.633	21290
446.839	21584.91
447.046	20857.88
447.252	22060.04
447.459	21976.07
447.665	21980.17
447.871	23131.12
448.078	23927.78
448.284	22850.55
448.491	23454.7
448.697	24818.65
448.903	24806.36
449.11	24810.46
449.316	24861.66
449.522	24994.78
449.728	25809.87
449.935	26043.34
450.141	25893.83
450.347	26459.07
450.553	25785.29
450.76	26176.45
450.966	26733.5
451.172	26682.3
451.378	27177.91
451.584	26756.03
451.791	27343.8
451.997	27351.99
452.203	27833.26
452.409	27802.54
452.615	27696.05
452.821	26948.54
453.027	26391.49
453.233	27964.33
453.44	26786.75
453.646	27132.86
453.852	27249.59
454.058	27823.02
454.264	26966.97
454.47	27358.13
454.676	26704.83
454.882	27820.97
455.088	25218
455.294	25816.01
455.5	26061.77
455.705	26301.38
455.911	25584.59
456.117	25218
456.323	24564.7
456.529	23546.86
456.735	24476.64
456.941	23667.69
457.147	23362.54
457.352	22473.73
457.558	22219.78
457.764	22488.06
457.97	21961.73
458.176	21996.55
458.381	21392.4
458.587	20333.6
458.793	20454.43
458.999	19500.08
459.204	20722.71
459.41	20102.18
459.616	18869.3
459.821	18986.04
460.027	18883.64
460.233	18635.83
460.438	17820.74
460.644	17679.43
460.85	16868.44
461.055	16931.92
461.261	16858.2
461.466	15291.5
461.672	15144.05
461.878	16014.43
462.083	15060.08
462.289	14675.06
462.494	14695.54
462.7	14187.64
462.905	13683.84
463.111	14148.73
463.316	14236.8
463.522	13917.31
463.727	13812.87
463.932	13845.63
464.138	13659.27
464.343	13802.63
464.549	13485.19
464.754	13718.66
464.959	13663.36
465.165	13710.47
465.37	13116.56
465.575	12823.7
465.781	13436.04
465.986	13270.15
466.191	13036.69
466.397	12614.8
466.602	12170.4
466.807	12459.16
467.012	12475.54
467.218	12358.81
467.423	12512.41
467.628	12463.26
467.833	12940.43
468.038	12457.11
468.244	12154.01
468.449	12790.93
468.654	12115.1
468.859	12047.52
469.064	11955.36
469.269	11658.4
469.474	11834.53
469.679	11828.38
469.885	11562.15
470.09	11709.6
470.295	11572.39
470.5	11277.48
470.705	11494.57
470.91	11197.61
471.115	11173.03
471.32	11220.14
471.525	11093.16
471.73	10933.42
471.935	10792.11
472.139	10474.68
472.344	10599.6
472.549	10511.54
472.754	10374.33
472.959	10085.56
473.164	9913.53
473.369	9888.96
473.574	10425.53
473.778	9970.88
473.983	9860.29
474.188	9901.25
474.393	9331.91
474.598	9557.19
474.802	9317.58
475.007	9409.73
475.212	9438.41
475.417	9116.87
475.621	9004.24
475.826	8754.38
476.031	8893.65
476.235	8686.8
476.44	8893.65
476.645	8742.1
476.849	8680.66
477.054	8479.96
477.259	8461.52
477.463	8359.13
477.668	8205.53
477.872	8195.29
478.077	8064.22
478.282	7865.57
478.486	7894.24
478.691	7761.12
478.895	7795.93
479.1	7781.6
479.304	7630.05
479.509	7550.18
479.713	7709.92
479.918	7503.07
480.122	7253.22
480.326	7648.48
480.531	7572.71
480.735	7523.55
480.94	7341.29
481.144	7503.07
481.348	7345.38
481.553	7337.19
481.757	7216.36
481.961	7251.17
482.166	7333.09
482.37	7316.71
482.574	7159.02
482.778	7240.93
482.983	7324.9
483.187	7236.84
483.391	7234.79
483.595	7156.97
483.8	7148.78
484.004	7259.37
484.208	7290.09
484.412	7116.01
484.616	7271.65
484.821	7484.64
485.025	7232.74
485.229	7296.23
485.433	7329
485.637	7451.88
485.841	7175.4
486.045	7240.93
486.249	7378.15
486.453	7093.48
486.657	7398.63
486.861	7427.3
487.065	7257.32
487.269	7257.32
487.473	7220.46
487.677	7363.81
487.881	7322.85
488.085	7245.03
488.289	7402.72
488.493	7298.28
488.697	7501.03
488.901	7523.55
489.105	7417.06
489.309	7521.51
489.512	7455.97
489.716	7527.65
489.92	7564.51
490.124	7505.12
490.328	7726.3
490.531	7566.56
490.735	7601.38
490.939	7789.79
491.143	7757.02
491.346	7722.21
491.55	7709.92
491.754	7767.26
491.958	8068.31
492.161	7867.61
492.365	8119.51
492.569	8037.59
492.772	7906.52
492.976	8099.03
493.18	8092.89
493.383	8187.1
493.587	8238.3
493.79	8377.56
493.994	8139.99
494.197	8629.46
494.401	8447.19
494.605	8543.44
494.808	8662.23
495.012	8641.75
495.215	8660.18
495.419	8965.32
495.622	8899.79
495.825	9252.04
496.029	8991.95
496.232	9188.55
496.436	9204.94
496.639	9512.13
496.843	9387.21
497.046	9424.07
497.249	9729.22
497.453	9735.36
497.656	10015.93
497.859	9899.2
498.063	10153.15
498.266	10226.87
498.469	10400.95
498.673	10441.91
498.876	10517.68
499.079	10728.63
499.282	10654.9
499.485	10984.62
499.689	10992.81
499.892	11013.29
500.095	11306.15
500.298	11660.45
500.501	11594.92
500.705	11881.63
500.908	11996.32
501.111	12047.52
501.314	12256.41
501.517	12479.64
501.72	12557.46
501.923	12590.23
502.126	12969.1
502.329	12776.59
502.532	13116.56
502.735	13163.66
502.938	13538.44
503.141	13575.3
503.344	13866.11
503.547	14011.52
503.75	14009.47
503.953	14462.07
504.156	14564.47
504.359	14638.2
504.562	14920.82
504.765	15133.81
504.968	15336.56
505.17	15477.87
505.373	15549.54
505.576	15721.57
505.779	16266.33
505.982	16239.71
506.185	16530.52
506.387	16807
506.59	16677.97
506.793	17265.74
506.996	17136.72
507.198	17701.96
507.401	17552.46
507.604	17927.24
507.807	18191.42
508.009	18306.11
508.212	18627.64
508.415	18953.27
508.617	19039.28
508.82	19328.05
509.022	19262.51
509.225	19596.33
509.428	20018.21
509.63	20010.02
509.833	20223.01
510.035	20335.65
510.238	20501.53
510.44	20712.47
510.643	21105.68
510.845	21349.39
511.048	21480.46
511.25	21609.48
511.453	22187.01
511.655	22750.2
511.858	22756.35
512.06	22641.66
512.262	22871.03
512.465	23297.01
512.667	23673.84
512.87	23684.08
513.072	23976.94
513.274	24374.24
513.477	24613.85
513.679	24896.47
513.881	24902.62
514.084	25428.95
514.286	25478.1
514.488	25740.24
514.69	26598.34
514.893	26299.33
515.095	26596.29
515.297	26876.86
515.499	26717.12
515.701	27642.8
515.904	27581.36
516.106	27771.82
516.308	28406.69
516.51	28646.3
516.712	28558.24
516.914	28760.99
517.116	29457.3
517.318	29453.2
517.52	30065.55
517.722	30075.79
517.925	30204.81
518.127	30700.42
518.329	30710.66
518.531	30929.79
518.733	31638.39
518.935	31492.98
519.136	31712.11
519.338	32125.8
519.54	32654.18
519.742	32537.44
519.944	32658.28
520.146	33295.19
520.348	33268.57
520.55	33694.55
520.752	33864.53
520.954	34313.03
521.155	34681.67
521.357	34700.1
521.559	34833.22
521.761	35644.21
521.963	35203.9
522.164	35658.55
522.366	35945.26
522.568	36191.02
522.77	36051.76
522.971	36657.96
523.173	36930.34
523.375	37124.89
523.576	37294.88
523.778	37059.36
523.98	37718.81
524.181	37569.3
524.383	37618.46
524.584	38318.86
524.786	38615.82
524.988	38339.34
525.189	38837
525.391	39207.68
525.592	39777.01
525.794	39942.9
525.995	39901.94
526.197	39789.3
526.398	39678.71
526.6	39715.58
526.801	40155.89
527.003	40592.11
527.204	40477.42
527.406	41237.22
527.607	40506.09
527.808	40970.98
528.01	40717.03
528.211	41030.37
528.412	41771.74
528.614	41394.91
528.815	41956.05
529.016	41831.13
529.218	41505.5
529.419	41943.77
529.62	42316.5
529.822	41757.4
530.023	42210
530.224	42482.38
530.425	42388.17
530.626	42324.69
530.828	41728.73
531.029	43168.45
531.23	42435.28
531.431	42232.53
531.632	42775.24
531.833	42738.38
532.035	43033.28
532.236	42904.26
532.437	43240.13
532.638	42705.61
532.839	43363.01
533.04	43367.1
533.241	42779.34
533.442	43356.86
533.643	43555.52
533.844	43139.78
534.045	43559.61
534.246	42715.85
534.447	43715.26
534.648	43465.41
534.849	43776.7
535.05	43715.26
535.251	43532.99
535.451	43467.45
535.652	44004.02
535.853	43750.07
536.054	43762.36
536.255	44350.13
536.456	43393.73
536.657	44524.21
536.857	43907.77
537.058	44028.6
537.259	43891.38
537.46	43885.24
537.66	44044.98
537.861	43981.49
538.062	43944.63
538.263	44182.2
538.463	43981.49
538.664	44163.76
538.865	44272.31
539.065	44423.86
539.266	43870.9
539.466	44540.59
539.667	43854.52
539.868	44667.56
540.068	44260.02
540.269	44413.62
540.469	44319.41
540.67	44020.41
540.87	44270.26
541.071	44217.01
541.271	44526.25
541.472	44212.91
541.672	44102.32
541.873	44528.3
542.073	43571.9
542.274	44767.91
542.474	44407.47
542.675	43932.34
542.875	44501.68
543.075	44772.01
543.276	44108.47
543.476	44667.56
543.676	44522.16
543.877	44495.53
544.077	44911.27
544.277	44348.08
544.478	44581.55
544.678	44722.86
544.878	44221.11
545.078	44300.98
545.279	44331.7
545.479	44389.04
545.679	44368.56
545.879	44386.99
546.079	44583.6
546.28	44397.23
546.48	44309.17
546.68	44614.32
546.88	44438.19
547.08	44829.35
547.28	44487.34
547.48	44372.66
547.68	44393.14
547.88	44286.64
548.081	45042.34
548.281	44225.2
548.481	44436.14
548.681	44853.93
548.881	44659.37
549.081	44579.5
549.28	44868.26
549.48	44710.57
549.68	44161.72
549.88	44925.61
550.08	44208.82
550.28	44726.95
550.48	44444.34
550.68	44696.24
550.88	44673.71
551.08	44225.2
551.279	44673.71
551.479	44579.5
551.679	44858.02
551.879	44528.3
552.079	44880.55
552.278	44081.84
552.478	44438.19
552.678	44487.34
552.878	44597.93
553.077	44495.53
553.277	44094.13
553.477	44663.47
553.676	44237.49
553.876	44397.23
554.076	44282.55
554.275	43829.94
554.475	44034.74
554.674	44567.21
554.874	44307.12
555.074	43858.62
555.273	44305.07
555.473	44036.79
555.672	43938.49
555.872	43954.87
556.071	44284.59
556.271	44626.6
556.47	44079.8
556.67	43922.1
556.869	44067.51
557.068	44352.18
557.268	43705.02
557.467	43891.38
557.667	43954.87
557.866	44085.94
558.065	44042.93
558.265	43930.29
558.464	43748.03
558.663	43780.79
558.863	43612.86
559.062	44169.91
559.261	43436.73
559.461	44239.54
559.66	43606.72
559.859	43700.92
560.058	43299.52
560.258	43821.75
560.457	43918.01
560.656	43926.2
560.855	43956.92
561.054	43627.2
561.253	43463.36
561.453	43670.2
561.652	43600.57
561.851	43592.38
562.05	43274.94
562.249	43229.89
562.448	43877.05
562.647	43840.18
562.846	43193.03
563.045	43500.22
563.244	43252.42
563.443	44106.42
563.642	43377.34
563.841	43395.78
564.04	43240.13
564.239	43287.23
564.438	43276.99
564.637	43576
564.836	43344.58
565.035	43025.09
565.234	43236.03
565.432	42988.23
565.631	43010.76
565.83	43428.54
566.029	42502.86
566.228	42824.39
566.427	42877.64
566.625	42848.97
566.824	42558.16
567.023	43186.88
567.222	42232.53
567.42	43133.64
567.619	42638.03
567.818	42906.31
568.016	42713.8
568.215	42988.23
568.414	42443.47
568.612	43168.45
568.811	42635.98
569.01	42916.55
569.208	42179.28
569.407	42674.89
569.605	42107.6
569.804	42711.75
570.002	42031.83
570.201	42607.31
570.4	42250.96
570.598	42119.89
570.797	41751.26
570.995	42105.55
571.193	41556.7
571.392	42265.3
571.59	41491.16
571.789	41562.84
571.987	41650.91
572.186	41767.64
572.384	41616.09
572.582	41601.75
572.781	41747.16
572.979	41532.12
573.177	41538.27
573.376	41781.98
573.574	41603.8
573.772	41595.61
573.971	41138.91
574.169	40696.55
574.367	40925.92
574.565	41595.61
574.763	40714.98
574.962	40606.44
575.16	40512.24
575.358	40788.71
575.556	40266.48
575.754	41374.43
575.952	40026.87
576.151	40585.96
576.349	39932.66
576.547	40381.17
576.745	40704.74
576.943	40360.69
577.141	40358.64
577.339	40127.22
577.537	40133.36
577.735	39990
577.933	39734.01
578.131	39914.23
578.329	39922.42
578.527	39385.85
578.725	39908.08
578.923	39506.68
579.121	39514.87
579.319	39604.99
579.516	39928.56
579.714	39580.41
579.912	39219.97
580.11	38769.41
580.308	39113.47
580.506	38978.31
580.704	38112.02
580.901	38908.68
581.099	39129.86
581.297	38722.31
581.495	38460.17
581.692	38857.48
581.89	38458.12
582.088	38441.74
582.285	38267.66
582.483	38589.19
582.681	37966.61
582.878	38052.62
583.076	37716.76
583.274	38077.2
583.471	37532.44
583.669	37794.58
583.866	37141.28
584.064	37655.32
584.262	36977.44
584.459	37573.4
584.657	37221.15
584.854	37745.43
585.052	36819.75
585.249	37036.83
585.447	37196.57
585.644	36522.79
585.841	36862.75
586.039	37008.16
586.236	36320.04
586.434	36471.59
586.631	36272.94
586.828	36678.44
587.026	36569.9
587.223	36342.57
587.42	36143.92
587.618	35920.69
587.815	35574.58
588.012	35584.82
588.21	35945.26
588.407	35828.53
588.604	35648.31
588.801	35427.13
588.999	35312.44
589.196	35326.78
589.393	35316.54
589.59	35255.1
589.787	35017.53
589.984	34972.48
590.182	34837.31
590.379	34782.02
590.576	34691.91
590.773	34665.28
590.97	34751.3
591.167	34642.76
591.364	34255.69
591.561	34573.13
591.758	33948.5
591.955	34138.96
592.152	34245.45
592.349	33723.22
592.546	34044.75
592.743	33887.06
592.94	33370.97
593.137	33856.34
593.334	33749.84
593.531	33178.46
593.727	33325.91
593.924	33493.85
594.121	33106.78
594.318	33514.33
594.515	32955.23
594.712	33053.53
594.908	32615.27
595.105	32672.61
595.302	32465.77
595.499	32791.39
595.696	32633.7
595.892	32502.63
596.089	32508.77
596.286	32283.5
596.482	32183.15
596.679	31896.43
596.876	32054.12
597.072	31906.67
597.269	31826.8
597.466	31556.47
597.662	31566.71
597.859	31767.41
598.055	31738.74
598.252	31298.42
598.448	31316.86
598.645	31230.84
598.841	30866.3
599.038	31271.8
599.234	31187.83
599.431	30614.4
599.627	30729.09
599.824	31114.11
600.02	30505.86
600.217	30270.34
600.413	30182.28
600.609	30208.9
600.806	30268.3
601.002	30399.37
601.198	29922.19
601.395	29719.44
601.591	29690.77
601.787	30006.16
601.984	29754.26
602.18	29836.17
602.376	29406.1
602.572	29502.36
602.769	29279.13
602.965	29297.56
603.161	29313.94
603.357	28924.83
603.553	29111.19
603.75	29365.14
603.946	28679.07
604.142	29064.09
604.338	28447.65
604.534	28617.63
604.73	28378.02
604.926	28402.6
605.122	28617.63
605.318	28230.57
605.514	28150.7
605.71	27982.76
605.906	28193.7
606.102	27814.83
606.298	28134.31
606.494	27898.8
606.69	28165.03
606.886	27761.58
607.082	27405.24
607.278	28027.82
607.474	27190.2
607.67	27321.27
607.866	27433.91
608.062	27558.83
608.257	27075.51
608.453	26921.91
608.649	27147.19
608.845	26926.01
609.041	27225.01
609.236	27100.09
609.432	27308.98
609.628	26739.65
609.824	26966.97
610.019	26747.84
610.215	26778.56
610.411	26829.76
610.606	26426.31
610.802	26360.77
610.998	26606.53
611.193	26436.55
611.389	26295.24
611.584	26268.61
611.78	26252.23
611.976	26301.38
612.171	26442.69
612.367	26155.97
612.562	25887.69
612.758	25811.92
612.953	25486.29
613.149	26342.34
613.344	25578.45
613.539	25877.45
613.735	25945.03
613.93	25940.94
614.126	25549.78
614.321	26194.89
614.517	25799.63
614.712	25396.18
614.907	25564.11
615.103	25539.54
615.298	25279.44
615.493	25486.29
615.688	25005.02
615.884	25492.43
616.079	25074.65
616.274	25295.83
616.47	25400.27
616.665	24982.49
616.86	24892.38
617.055	24814.55
617.25	24595.42
617.445	25136.09
617.641	24286.18
617.836	24998.87
618.031	24341.47
618.226	24613.85
618.421	24206.31
618.616	24581.09
618.811	24214.5
619.006	24450.02
619.201	23813.1
619.396	23931.88
619.591	23782.38
619.786	23933.93
619.981	23417.84
620.176	23841.77
620.371	23481.33
620.566	23540.72
620.761	23538.67
620.956	23047.16
621.151	23075.83
621.346	23315.44
621.541	22653.95
621.735	22791.16
621.93	22119.43
622.125	22834.17
622.32	22377.47
622.515	22594.56
622.709	22033.41
622.904	22463.49
623.099	22428.67
623.294	21978.12
623.488	21879.82
623.683	21914.63
623.878	21570.57
624.072	21625.87
624.267	21597.2
624.462	21326.86
624.656	21169.17
624.851	21337.1
625.046	21109.78
625.24	20773.91
625.435	20632.6
625.629	20794.39
625.824	20622.36
626.018	20573.21
626.213	20126.75
626.407	20390.94
626.602	20202.53
626.796	19928.1
626.991	19989.54
627.185	19559.47
627.38	19874.85
627.574	19688.49
627.768	19455.02
627.963	19575.85
628.157	19014.71
628.352	19117.11
628.546	18873.4
628.74	19012.66
628.935	18711.61
629.129	18811.96
629.323	18693.18
629.517	18508.86
629.712	18605.11
629.906	18521.15
630.1	18152.51
630.294	18101.31
630.489	18248.77
630.683	18357.31
630.877	17747.01
631.071	17706.06
631.265	17826.89
631.459	17955.91
631.653	17560.65
631.848	17382.48
632.042	17253.45
632.236	17175.63
632.43	17228.88
632.624	17206.35
632.818	16802.9
633.012	16989.27
633.206	16456.79
633.4	16829.52
633.594	16518.23
633.788	16536.66
633.982	16544.86
634.176	16411.74
634.369	16450.65
634.563	16381.02
634.757	16270.43
634.951	16258.14
635.145	15907.94
635.339	16104.54
635.533	15842.4
635.726	15795.3
635.92	15549.54
636.114	15762.53
636.308	15606.89
636.501	15465.58
636.695	15479.91
636.889	15275.12
637.083	14939.25
637.276	15238.25
637.47	15123.57
637.664	15176.81
637.857	14922.87
638.051	14855.28
638.244	14761.08
638.438	14797.94
638.632	14664.82
638.825	14523.51
639.019	14292.09
639.212	14138.49
639.406	14216.32
639.599	14546.04
639.793	14251.13
639.986	13962.37
640.18	14150.78
640.373	14093.44
640.567	13784.19
640.76	13993.09
640.954	13644.93
641.147	13733
641.34	13462.66
641.534	13579.4
641.727	13438.09
641.92	13257.87
642.114	13296.78
642.307	13309.07
642.5	13132.94
642.694	12948.62
642.887	13018.25
643.08	12977.3
643.273	12864.66
643.467	12706.96
643.66	12567.7
643.853	12698.77
644.046	12489.88
644.239	12483.73
644.432	12436.63
644.626	12276.89
644.819	12346.52
645.012	12223.64
645.205	12371.1
645.398	12164.25
645.591	11998.37
645.784	11969.69
645.977	11855.01
646.17	11889.82
646.363	11689.12
646.556	11392.17
646.749	11768.99
646.942	11402.41
647.135	11459.75
647.328	11330.73
647.521	11310.25
647.714	11144.36
647.907	11195.56
648.099	11224.23
648.292	11173.03
648.485	11027.63
648.678	10769.58
648.871	10976.43
649.064	10812.59
649.256	10575.03
649.449	10550.45
649.642	10628.28
649.835	10628.28
650.027	10607.8
650.22	10359.99
650.413	10308.79
650.605	10415.29
650.798	10466.49
650.991	10024.12
651.183	10450.1
651.376	10007.74
651.568	9995.45
651.761	9987.26
651.954	9733.31
652.146	9985.21
652.339	9821.38
652.531	9651.39
652.724	9653.44
652.916	9589.95
653.109	9598.15
653.301	9518.28
653.494	9594.05
653.686	9448.65
653.879	9381.06
654.071	9399.49
654.263	9331.91
654.456	9499.84
654.648	9231.56
654.84	8959.18
655.033	8942.8
655.225	8934.6
655.417	8776.91
655.61	8768.72
655.802	8887.5
655.994	8682.7
656.186	8764.62
656.379	8615.12
656.571	8674.51
656.763	8586.45
656.955	8467.67
657.148	8568.02
657.34	8324.31
657.532	8174.81
657.724	8375.51
657.916	8213.72
658.108	8162.52
658.3	8152.28
658.492	8223.96
658.684	7881.95
658.876	7855.33
659.068	7853.28
659.26	7773.41
659.452	7847.13
659.644	7840.99
659.836	7757.02
660.028	7527.65
660.22	7531.75
660.412	7484.64
660.604	7544.03
660.796	7351.53
660.988	7357.67
661.18	7202.02
661.372	7169.26
661.563	7439.59
661.755	7171.3
661.947	7195.88
662.139	7060.71
662.331	7038.19
662.522	6978.79
662.714	6962.41
662.906	6986.99
663.097	6855.92
663.289	7007.47
663.481	6528.24
663.673	6737.13
663.864	6565.11
664.056	6589.68
664.247	6515.95
664.439	6561.01
664.631	6518
664.822	6493.43
665.014	6495.47
665.205	6204.66
665.397	6366.45
665.588	6241.53
665.78	6155.51
665.971	6135.03
666.163	6075.64
666.354	6161.66
666.546	6089.98
666.737	6030.59
666.929	5823.74
667.12	5989.63
667.311	5997.82
667.503	5786.88
667.694	5893.37
667.885	5803.26
668.077	5666.05
668.268	5598.46
668.459	5801.21
668.651	5620.99
668.842	5530.88
669.033	5580.03
669.224	5336.32
669.416	5514.5
669.607	5625.09
669.798	5260.55
669.989	5541.12
670.18	5330.18
670.371	5465.35
670.563	5262.6
670.754	5137.67
670.945	5270.79
671.136	5244.17
671.327	5074.18
671.518	5104.9
671.709	5133.58
671.9	5240.07
672.091	5020.94
672.282	4949.26
672.473	4910.35
672.664	4955.4
672.855	4928.78
673.046	4822.28
673.237	4967.69
673.428	4865.29
673.619	4625.68
673.809	4830.48
674	4787.47
674.191	4822.28
674.382	4623.63
674.573	4699.41
674.764	4775.18
674.954	4619.53
675.145	4689.17
675.336	4470.03
675.527	4650.25
675.717	4545.81
675.908	4396.31
676.099	4566.29
676.289	4517.14
676.48	4429.07
676.671	4476.18
676.861	4402.45
677.052	4250.9
677.243	4267.28
677.433	4285.72
677.624	4363.54
677.814	4304.15
678.005	4300.05
678.195	4224.28
678.386	4230.42
678.576	4269.33
678.767	4226.32
678.957	4322.58
679.148	4113.69
679.338	4027.67
679.529	4173.08
679.719	4150.55
679.909	4138.26
680.1	4070.68
680.29	3931.42
680.481	3951.9
680.671	3992.86
680.861	3996.95
681.052	3831.07
681.242	4085.02
681.432	3933.47
681.622	3947.8
681.813	3939.61
682.003	3929.37
682.193	3894.55
682.383	3958.04
682.573	3927.32
682.764	3892.51
682.954	3765.53
683.144	3853.59
683.334	3761.44
683.524	3812.64
683.714	3931.42
683.904	3734.81
684.094	3773.72
684.284	3869.98
684.474	3771.68
684.664	3636.51
684.854	3773.72
685.044	3702.04
685.234	3683.61
685.424	3720.48
685.614	3712.28
685.804	3740.96
685.994	3759.39
686.184	3566.88
686.374	3747.1
686.564	3613.98
686.753	3843.35
686.943	3685.66
687.133	3624.22
687.323	3593.5
687.513	3628.32
687.702	3521.82
687.892	3718.43
688.082	3577.12
688.272	3632.41
688.461	3611.93
688.651	3673.37
688.841	3667.23
689.03	3734.81
689.22	3579.17
689.41	3796.25
689.599	3519.78
689.789	3540.26
689.979	3441.95
690.168	3554.59
690.358	3515.68
690.547	3495.2
690.737	3495.2
690.926	3513.63
691.116	3413.28
691.305	3482.91
691.495	3433.76
691.684	3405.09
691.874	3499.3
692.063	3439.9
692.252	3427.62
692.442	3564.83
692.631	3319.07
692.82	3357.99
693.01	3407.14
693.199	3378.47
693.388	3267.88
693.578	3366.18
693.767	3353.89
693.956	3368.23
694.146	3437.86
694.335	3304.74
694.524	3366.18
694.713	3185.96
694.902	3233.06
695.092	3317.03
695.281	3243.3
695.47	3235.11
695.659	3126.57
695.848	3132.71
696.037	3341.6
696.226	3151.14
696.415	3126.57
696.604	3104.04
696.793	3093.8
696.982	2981.16
697.171	3175.72
697.36	3140.9
697.549	3142.95
697.738	3069.22
697.927	3011.88
698.116	3058.98
698.305	2987.3
698.494	2991.4
698.683	3065.13
698.872	3165.48
699.061	3083.56
699.25	2907.43
699.438	3083.56
699.627	2999.59
699.816	3069.22
700.005	2792.75
700.193	3083.56
700.382	2850.09
700.571	2815.27
700.76	2942.25
700.948	2864.43
701.137	2796.84
701.326	2819.37
701.514	2823.47
701.703	2719.02
701.892	2950.44
702.08	2882.86
702.269	2909.48
702.457	2659.63
702.646	2725.16
702.834	2694.44
703.023	2577.71
703.212	2565.42
703.4	2620.72
703.589	2684.2
703.777	2551.09
703.965	2676.01
704.154	2647.34
704.342	2682.16
704.531	2577.71
704.719	2618.67
704.907	2649.39
705.096	2440.5
705.284	2628.91
705.472	2446.64
705.661	2555.18
705.849	2569.52
706.037	2448.69
706.226	2565.42
706.414	2452.78
706.602	2438.45
706.79	2544.94
706.979	2391.34
707.167	2542.89
707.355	2424.11
707.543	2405.68
707.731	2389.3
707.919	2360.63
708.107	2315.57
708.296	2288.95
708.484	2233.65
708.672	2401.58
708.86	2194.74
709.048	2348.34
709.236	2207.03
709.424	2329.91
709.612	2200.88
709.8	2131.25
709.988	2186.55
710.176	2229.56
710.364	2252.08
710.551	2164.02
710.739	2213.17
710.927	2104.63
711.115	2256.18
711.303	2112.82
711.491	2231.6
711.679	2145.59
711.866	2155.83
712.054	2098.49
712.242	2012.47
712.43	2143.54
712.617	2041.14
712.805	2176.31
712.993	2121.01
713.181	2024.76
713.368	1994.04
713.556	2039.09
713.744	2028.85
713.931	1987.9
714.119	1973.56
714.306	2008.37
714.494	1963.32
714.682	1916.22
714.869	1936.7
715.057	1998.13
715.244	1838.39
715.432	1910.07
715.619	1844.54
715.807	1903.93
715.994	1862.97
716.182	1797.43
716.369	1924.41
716.556	1973.56
716.744	1852.73
716.931	1846.59
717.119	1813.82
717.306	1836.35
717.493	1830.2
717.681	1766.71
717.868	1844.54
718.055	1774.91
718.242	1717.56
718.43	1762.62
718.617	1682.75
718.804	1635.64
718.991	1664.32
719.179	1735.99
719.366	1615.16
719.553	1578.3
719.74	1637.69
719.927	1682.75
720.114	1615.16
720.301	1629.5
720.488	1658.17
720.676	1594.69
720.863	1594.69
721.05	1617.21
721.237	1637.69
721.424	1635.64
721.611	1592.64
721.798	1545.53
721.985	1498.43
722.172	1604.92
722.358	1531.2
722.545	1531.2
722.732	1463.62
722.919	1529.15
723.106	1400.13
723.293	1492.29
723.48	1449.28
723.667	1471.81
723.853	1471.81
724.04	1494.33
724.227	1416.51
724.414	1432.9
724.6	1385.79
724.787	1424.7
724.974	1432.9
725.161	1348.93
725.347	1287.49
725.534	1357.12
725.72	1365.31
725.907	1430.85
726.094	1416.51
726.28	1320.26
726.467	1316.16
726.653	1367.36
726.84	1346.88
727.027	1316.16
727.213	1307.97
727.4	1375.55
727.586	1277.25
727.773	1211.71
727.959	1262.91
728.145	1318.21
728.332	1277.25
728.518	1168.71
728.705	1267.01
728.891	1289.54
729.077	1254.72
729.264	1187.14
729.45	1246.53
729.636	1277.25
729.823	1224
730.009	1326.4
730.195	1258.82
730.382	1209.67
730.568	1160.52
730.754	1146.18
730.94	1205.57
731.126	1193.28
731.313	1199.43
731.499	1135.94
731.685	1162.56
731.871	1168.71
732.057	1224
732.243	1027.4
732.429	1193.28
732.615	1166.66
732.801	1047.88
732.987	1074.5
733.173	1037.64
733.359	1162.56
733.545	1131.84
733.731	1056.07
733.917	1062.21
734.103	1084.74
734.289	1113.41
734.475	1041.73
734.661	1107.27
734.847	1084.74
735.033	972.1
735.219	959.81
735.404	976.2
735.59	1011.01
735.776	1025.35
735.962	968.01
736.148	1029.45
736.333	1013.06
736.519	970.05
736.705	1070.41
736.89	1070.41
737.076	1025.35
737.262	972.1
737.447	908.62
737.633	949.57
737.819	1045.83
738.004	1015.11
738.19	886.09
738.375	886.09
738.561	943.43
738.747	861.51
738.932	853.32
739.118	931.14
739.303	918.86
739.489	943.43
739.674	910.66
739.859	914.76
740.045	888.14
740.23	851.27
740.416	892.23
740.601	941.38
740.786	916.81
740.972	972.1
741.157	890.18
741.342	851.27
741.528	789.83
741.713	886.09
741.898	841.03
742.084	836.94
742.269	900.42
742.454	824.65
742.639	808.27
742.824	789.83
743.01	894.28
743.195	836.94
743.38	763.21
743.565	836.94
743.75	812.36
743.935	808.27
744.12	748.87
744.305	742.73
744.49	757.07
744.675	781.64
744.86	738.63
745.045	781.64
745.23	742.73
745.415	707.91
745.6	798.03
745.785	726.35
745.97	736.59
746.155	707.91
746.34	718.15
746.525	701.77
746.71	781.64
746.895	671.05
747.079	693.58
747.264	701.77
747.449	664.91
747.634	726.35
747.819	683.34
748.003	757.07
748.188	595.28
748.373	724.3
748.557	693.58
748.742	574.8
748.927	660.81
749.111	685.39
749.296	644.43
749.481	679.24
749.665	601.42
749.85	646.48
750.034	693.58
750.219	572.75
750.404	644.43
750.588	656.72
750.773	531.79
750.957	568.65
751.141	603.47
751.326	599.37
751.51	660.81
751.695	628.04
751.879	554.32
752.064	640.33
752.248	615.76
752.432	556.36
752.617	513.36
752.801	576.84
752.985	550.22
753.17	537.93
753.354	664.91
753.538	585.04
753.722	556.36
753.907	544.08
754.091	564.56
754.275	570.7
754.459	546.13
754.643	572.75
754.828	572.75
755.012	527.69
755.196	556.36
755.38	599.37
755.564	527.69
755.748	589.13
755.932	490.83
756.116	568.65
756.3	507.21
756.484	488.78
756.668	572.75
756.852	376.14
757.036	511.31
757.22	464.21
757.404	470.35
757.588	460.11
757.772	398.67
757.956	533.84
758.14	484.69
758.323	445.77
758.507	408.91
758.691	392.53
758.875	572.75
759.059	437.58
759.242	470.35
759.426	474.45
759.61	466.25
759.794	419.15
759.977	511.31
760.161	415.06
760.345	421.2
760.528	443.73
760.712	445.77
760.895	431.44
761.079	443.73
761.263	453.97
761.446	449.87
761.63	492.88
761.813	396.62
761.997	453.97
762.18	376.14
762.364	464.21
762.547	376.14
762.731	367.95
762.914	458.06
763.098	435.53
763.281	505.17
763.464	359.76
763.648	392.53
763.831	427.34
764.015	382.29
764.198	431.44
764.381	431.44
764.564	423.25
764.748	435.53
764.931	296.27
765.114	398.67
765.297	447.82
765.481	363.86
765.664	359.76
765.847	378.19
766.03	396.62
766.213	341.33
766.397	370
766.58	451.92
766.763	472.4
766.946	322.9
767.129	382.29
767.312	402.77
767.495	380.24
767.678	331.09
767.861	400.72
768.044	370
768.227	384.34
768.41	423.25
768.593	425.29
768.776	277.84
768.959	251.22
769.142	394.58
769.324	337.23
769.507	451.92
769.69	363.86
769.873	365.9
770.056	396.62
770.239	294.22
770.421	267.6
770.604	335.18
770.787	445.77
770.97	275.79
771.152	386.38
771.335	376.14
771.518	310.61
771.7	400.72
771.883	329.04
772.066	388.43
772.248	316.75
772.431	353.62
772.613	372.05
772.796	374.1
772.978	353.62
773.161	421.2
773.343	288.08
773.526	359.76
773.708	415.06
773.891	271.7
774.073	310.61
774.256	372.05
774.438	433.49
774.621	294.22
774.803	279.89
774.985	253.27
775.168	345.42
775.35	351.57
775.532	374.1
775.715	286.03
775.897	423.25
776.079	300.37
776.261	351.57
776.444	324.94
776.626	300.37
776.808	283.99
776.99	273.75
777.173	292.18
777.355	263.51
777.537	335.18
777.719	349.52
777.901	326.99
778.083	286.03
778.265	257.36
778.447	408.91
778.629	251.22
778.811	341.33
778.993	281.94
779.175	251.22
779.357	331.09
779.539	283.99
779.721	222.55
779.903	320.85
780.085	273.75
780.267	238.93
780.449	259.41
780.631	240.98
780.812	249.17
780.994	210.26
781.176	261.46
781.358	243.03
781.54	249.17
781.721	300.37
781.903	337.23
782.085	292.18
782.267	208.21
782.448	296.27
782.63	300.37
782.812	259.41
782.993	263.51
783.175	288.08
783.357	267.6
783.538	243.03
783.72	234.83
783.901	212.31
784.083	220.5
784.264	253.27
784.446	230.74
784.627	185.68
784.809	232.79
784.99	232.79
785.172	214.35
785.353	208.21
785.535	249.17
785.716	245.07
785.897	161.11
786.079	191.83
786.26	245.07
786.441	197.97
786.623	204.11
786.804	191.83
786.985	212.31
787.167	204.11
787.348	161.11
787.529	245.07
787.71	165.2
787.891	187.73
788.073	228.69
788.254	267.6
788.435	251.22
788.616	157.01
788.797	157.01
788.978	163.15
789.159	167.25
789.34	171.35
789.522	210.26
789.703	251.22
789.884	202.07
790.065	216.4
790.246	214.35
790.427	159.06
790.607	101.72
790.788	208.21
790.969	128.34
791.15	253.27
791.331	206.16
791.512	144.72
791.693	140.63
791.874	218.45
792.054	103.76
792.235	173.39
792.416	218.45
792.597	126.29
792.778	159.06
792.958	169.3
793.139	173.39
793.32	154.96
793.5	189.78
793.681	105.81
793.862	167.25
794.042	167.25
794.223	120.15
794.404	118.1
794.584	159.06
794.765	109.91
794.945	118.1
795.126	173.39
795.306	120.15
795.487	99.67
795.667	144.72
795.848	167.25
796.028	146.77
796.209	218.45
796.389	138.58
796.57	175.44
796.75	128.34
796.93	142.68
797.111	118.1
797.291	134.48
797.471	142.68
797.652	132.44
797.832	154.96
798.012	103.76
798.192	116.05
798.373	171.35
798.553	105.81
798.733	181.59
798.913	114
799.093	71
799.274	200.02
799.454	50.52
799.634	75.09
799.814	71
799.994	107.86
800.174	114
800.354	60.76
800.534	30.04
800.714	93.52
800.894	120.15
801.074	148.82
801.254	91.48
801.434	97.62
801.614	177.49
801.794	73.04
801.974	337.23
802.154	114
802.334	148.82
802.514	132.44
802.693	103.76
802.873	136.53
803.053	161.11
803.233	107.86
803.413	163.15
803.592	58.71
803.772	107.86
803.952	109.91
804.131	95.57
804.311	118.1
804.491	64.85
804.67	122.2
804.85	97.62
805.03	126.29
805.209	62.8
805.389	134.48
805.568	109.91
805.748	66.9
805.928	93.52
806.107	179.54
806.287	60.76
806.466	93.52
806.646	87.38
806.825	50.52
807.004	38.23
807.184	128.34
807.363	150.87
807.543	83.28
807.722	62.8
807.901	134.48
808.081	105.81
808.26	36.18
808.439	75.09
808.619	42.32
808.798	97.62
808.977	124.24
809.156	79.19
809.336	95.57
809.515	118.1
809.694	62.8
809.873	64.85
810.052	107.86
810.231	154.96
810.411	66.9
810.59	46.42
810.769	150.87
810.948	58.71
811.127	54.61
811.306	64.85
811.485	56.66
811.664	66.9
811.843	44.37
812.022	103.76
812.201	75.09
812.38	7.51
812.559	79.19
812.737	91.48
812.916	1.37
813.095	58.71
813.274	50.52
813.453	101.72
813.632	48.47
813.811	216.4
813.989	60.76
814.168	71
814.347	32.08
814.526	109.91
814.704	95.57
814.883	42.32
815.062	44.37
815.24	89.43
815.419	42.32
815.598	107.86
815.776	50.52
815.955	169.3
816.133	32.08
816.312	79.19
816.49	111.96
816.669	68.95
816.847	87.38
817.026	116.05
817.204	95.57
817.383	64.85
817.561	44.37
817.74	62.8
817.918	99.67
818.097	71
818.275	-10.92
818.453	99.67
818.632	48.47
818.81	58.71
818.988	-35.5
819.167	79.19
819.345	99.67
819.523	15.7
819.701	58.71
819.879	85.33
820.058	66.9
820.236	79.19
820.414	44.37
820.592	27.99
820.77	44.37
820.948	73.04
821.127	27.99
821.305	21.85
821.483	11.61
821.661	126.29
821.839	27.99
822.017	52.56
822.195	48.47
822.373	105.81
822.551	81.24
822.729	89.43
822.907	75.09
823.085	-66.22
823.262	30.04
823.44	140.63
823.618	40.28
823.796	46.42
823.974	52.56
824.152	118.1
824.329	50.52
824.507	42.32
824.685	36.18
824.863	-10.92
825.04	17.75
825.218	66.9
825.396	64.85
825.574	13.65
825.751	13.65
825.929	25.94
826.107	60.76
826.284	38.23
826.462	144.72
826.639	34.13
826.817	5.46
826.994	40.28
827.172	-31.4
827.349	89.43
827.527	27.99
827.704	138.58
827.882	71
828.059	38.23
828.237	75.09
828.414	68.95
828.591	44.37
828.769	79.19
828.946	40.28
829.124	91.48
829.301	23.89
829.478	122.2
829.655	-2.73
829.833	130.39
830.01	42.32
830.187	60.76
830.364	7.51
830.542	40.28
830.719	71
830.896	58.71
831.073	77.14
831.25	17.75
831.427	52.56
831.604	30.04
831.782	-33.45
831.959	40.28
832.136	93.52
832.313	42.32
832.49	19.8
832.667	75.09
832.844	62.8
833.021	91.48
833.198	19.8
833.374	85.33
833.551	25.94
833.728	3.41
833.905	73.04
834.082	5.46
834.259	9.56
834.436	91.48
834.612	-0.68
834.789	91.48
834.966	50.52
835.143	36.18
835.319	17.75
835.496	25.94
835.673	-0.68
835.85	-15.02
836.026	-12.97
836.203	-6.83
836.38	109.91
836.556	116.05
836.733	48.47
836.909	23.89
837.086	19.8
837.262	64.85
837.439	9.56
837.616	30.04
837.792	32.08
837.968	85.33
838.145	1.37
838.321	-15.02
838.498	17.75
838.674	34.13
838.851	48.47
839.027	48.47
839.203	79.19
839.38	62.8
839.556	-41.64
839.732	19.8
839.909	-15.02
840.085	50.52
840.261	5.46
840.437	19.8
840.614	-62.12
840.79	81.24
840.966	30.04
841.142	13.65
841.318	21.85
841.494	21.85
841.671	5.46
841.847	50.52
842.023	-8.87
842.199	64.85
842.375	50.52
842.551	13.65
842.727	23.89
842.903	81.24
843.079	54.61
843.255	89.43
843.431	25.94
843.607	1.37
843.783	48.47
843.959	-33.45
844.134	30.04
844.31	1.37
844.486	48.47
844.662	27.99
844.838	54.61
845.013	60.76
845.189	71
845.365	-2.73
845.541	27.99
845.716	9.56
845.892	38.23
846.068	-10.92
846.244	56.66
846.419	11.61
846.595	25.94
846.77	83.28
846.946	40.28
847.122	-0.68
847.297	30.04
847.473	64.85
847.648	3.41
847.824	-35.5
847.999	50.52
848.175	81.24
848.35	-4.78
848.526	46.42
848.701	81.24
848.876	87.38
849.052	60.76
849.227	-41.64
849.403	42.32
849.578	-80.55
849.753	-49.83
849.929	-4.78
850.104	19.8
850.279	-15.02
850.454	60.76
850.63	-45.74
850.805	-39.59
850.98	17.75
851.155	40.28
851.33	48.47
851.505	-0.68
851.681	19.8
851.856	-35.5
852.031	3.41
852.206	-53.93
852.381	71
852.556	11.61
852.731	46.42
852.906	36.18
853.081	68.95
853.256	13.65
853.431	-29.35
853.606	19.8
853.781	-27.31
853.956	-0.68
854.131	-2.73
854.305	-72.36
854.48	11.61
854.655	-12.97
854.83	25.94
855.005	-23.21
855.18	46.42
855.354	9.56
855.529	19.8
855.704	75.09
855.879	38.23
856.053	64.85
856.228	54.61
856.403	-17.07
856.577	3.41
856.752	17.75
856.926	68.95
857.101	48.47
857.276	-29.35
857.45	36.18
857.625	40.28
857.799	-70.31
857.974	-35.5
858.148	-2.73
858.323	44.37
858.497	38.23
858.672	44.37
858.846	89.43
859.02	15.7
859.195	34.13
859.369	-47.79
859.543	68.95
859.718	17.75
859.892	42.32
860.066	-15.02
860.241	50.52
860.415	-92.84
860.589	-17.07
860.763	64.85
860.938	17.75
861.112	71
861.286	13.65
861.46	52.56
861.634	34.13
861.808	-35.5
861.982	7.51
862.157	66.9
862.331	-2.73
862.505	25.94
862.679	-33.45
862.853	9.56
863.027	-15.02
863.201	27.99
863.375	-6.83
863.549	46.42
863.722	11.61
863.896	23.89
864.07	30.04
864.244	3.41
864.418	87.38
864.592	25.94
864.766	-35.5
864.939	-25.26
865.113	25.94
865.287	30.04
865.461	-53.93
865.634	71
865.808	19.8
865.982	3.41
866.156	5.46
866.329	-2.73
866.503	-8.87
866.676	56.66
866.85	21.85
867.024	3.41
867.197	25.94
867.371	-45.74
867.544	-12.97
867.718	-35.5
867.891	66.9
868.065	-2.73
868.238	-31.4
868.412	-25.26
868.585	42.32
868.759	-76.46
868.932	-31.4
869.105	62.8
869.279	-58.03
869.452	27.99
869.625	68.95
869.799	27.99
869.972	-29.35
870.145	19.8
870.319	-2.73
870.492	21.85
870.665	-4.78
870.838	79.19
871.011	25.94
871.185	75.09
871.358	-12.97
871.531	56.66
871.704	-4.78
871.877	42.32
872.05	-51.88
872.223	-17.07
872.396	-15.02
872.569	40.28
872.742	15.7
872.915	64.85
873.088	30.04
873.261	30.04
873.434	48.47
873.607	13.65
873.78	-25.26
873.953	-4.78
874.126	-39.59
874.299	-47.79
874.471	15.7
874.644	-101.03
874.817	-17.07
874.99	23.89
875.163	-6.83
875.335	19.8
875.508	1.37
875.681	30.04
875.853	34.13
876.026	38.23
876.199	23.89
876.371	25.94
876.544	-58.03
876.717	66.9
876.889	52.56
877.062	40.28
877.234	-25.26
877.407	11.61
877.579	7.51
877.752	93.52
877.924	19.8
878.097	50.52
878.269	21.85
878.442	32.08
878.614	5.46
878.786	44.37
878.959	38.23
879.131	-15.02
879.303	-12.97
879.476	-19.11
879.648	32.08
879.82	21.85
879.993	-6.83
880.165	-101.03
880.337	3.41
880.509	5.46
880.681	-80.55
880.854	83.28
881.026	-0.68
881.198	56.66
881.37	19.8
881.542	-60.07
881.714	44.37
881.886	-19.11
882.058	-12.97
882.23	-12.97
882.402	-31.4
882.574	3.41
882.746	-2.73
882.918	-19.11
883.09	17.75
883.262	56.66
883.434	11.61
883.606	19.8
883.778	-66.22
883.95	46.42
884.122	-0.68
884.293	64.85
884.465	36.18
884.637	48.47
884.809	7.51
884.98	77.14
885.152	19.8
885.324	60.76
885.496	-31.4
885.667	7.51
885.839	54.61
886.011	-33.45
886.182	34.13
886.354	32.08
886.525	19.8
886.697	-2.73
886.869	23.89
887.04	64.85
887.212	-31.4
887.383	58.71
887.555	25.94
887.726	-17.07
887.897	73.04
888.069	-6.83
888.24	5.46
888.412	-43.69
888.583	-25.26
888.754	-47.79
888.926	-35.5
889.097	-8.87
889.268	13.65
889.44	-29.35
889.611	54.61
889.782	-23.21
889.953	42.32
890.125	9.56
890.296	23.89
890.467	-25.26
890.638	56.66
890.809	34.13
890.98	13.65
891.151	19.8
891.323	-25.26
891.494	25.94
891.665	-21.16
891.836	46.42
892.007	-0.68
892.178	-0.68
892.349	-39.59
892.52	-43.69
892.691	9.56
892.862	15.7
893.032	-8.87
893.203	-53.93
893.374	30.04
893.545	-21.16
893.716	-27.31
893.887	19.8
894.057	-2.73
894.228	9.56
894.399	1.37
894.57	40.28
894.74	25.94
894.911	5.46
895.082	34.13
895.253	-27.31
895.423	-0.68
895.594	66.9
895.764	-15.02
895.935	-74.41
896.106	-15.02
896.276	-0.68
896.447	-74.41
896.617	11.61
896.788	1.37
896.958	15.7
897.129	-4.78
897.299	-53.93
897.47	3.41
897.64	60.76
897.81	42.32
897.981	-0.68
898.151	23.89
898.322	32.08
898.492	-21.16
898.662	42.32
898.832	-10.92
899.003	-29.35
899.173	52.56
899.343	-29.35
899.513	58.71
