Data from USB4F104151__77__12-54-42-838.txt Node

Date: Fri Mar 14 12:54:42 EDT 2025
User: louis
Spectrometer: USB4F10415
Trigger mode: 4
Integration Time (sec): 1.000000E-2
Scans to average: 1
Electric dark correction enabled: true
Nonlinearity correction enabled: false
Boxcar width: 0
XAxis mode: Wavelengths
Number of Pixels in Spectrum: 3648
>>>>>Begin Spectral Data<<<<<
178.204	6.31
178.424	6.31
178.644	6.31
178.864	6.31
179.084	41.13
179.304	-18.26
179.524	0.17
179.744	28.84
179.964	-38.74
180.184	-26.45
180.404	22.7
180.624	-57.17
180.844	49.32
181.064	0.17
181.283	-8.02
181.503	-26.45
181.723	73.9
181.943	-10.07
182.163	82.09
182.383	-12.12
182.602	43.18
182.822	49.32
183.042	92.33
183.262	18.6
183.482	12.46
183.701	63.66
183.921	8.36
184.141	-16.21
184.361	-12.12
184.58	8.36
184.8	2.22
185.02	30.89
185.239	16.55
185.459	-8.02
185.679	57.51
185.898	63.66
186.118	67.75
186.338	-18.26
186.557	0.17
186.777	4.27
186.997	32.94
187.216	-1.88
187.436	6.31
187.655	20.65
187.875	55.47
188.095	39.08
188.314	30.89
188.534	34.99
188.753	-18.26
188.973	2.22
189.192	80.04
189.412	55.47
189.631	-26.45
189.851	32.94
190.07	-8.02
190.29	22.7
190.509	30.89
190.729	39.08
190.948	34.99
191.168	26.79
191.387	123.05
191.607	53.42
191.826	6.31
192.045	41.13
192.265	59.56
192.484	14.51
192.704	-18.26
192.923	-14.17
193.142	-40.79
193.362	59.56
193.581	4.27
193.8	84.14
194.02	43.18
194.239	-40.79
194.458	14.51
194.678	8.36
194.897	39.08
195.116	47.27
195.335	4.27
195.555	0.17
195.774	84.14
195.993	-14.17
196.212	-46.93
196.432	51.37
196.651	-48.98
196.87	2.22
197.089	-30.55
197.308	-16.21
197.528	39.08
197.747	-26.45
197.966	18.6
198.185	43.18
198.404	-12.12
198.623	92.33
198.842	30.89
199.062	22.7
199.281	16.55
199.5	0.17
199.719	71.85
199.938	43.18
200.157	18.6
200.376	32.94
200.595	-1.88
200.814	28.84
201.033	45.23
201.252	14.51
201.471	18.6
201.69	10.41
201.909	16.55
202.128	26.79
202.347	6.31
202.566	0.17
202.785	14.51
203.004	-20.31
203.223	34.99
203.442	71.85
203.661	6.31
203.879	32.94
204.098	45.23
204.317	57.51
204.536	34.99
204.755	24.75
204.974	14.51
205.193	75.95
205.411	51.37
205.63	59.56
205.849	51.37
206.068	10.41
206.287	18.6
206.505	22.7
206.724	47.27
206.943	-26.45
207.162	-10.07
207.381	43.18
207.599	55.47
207.818	8.36
208.037	2.22
208.255	-30.55
208.474	49.32
208.693	8.36
208.911	63.66
209.13	14.51
209.349	28.84
209.567	-16.21
209.786	161.96
210.005	47.27
210.223	34.99
210.442	2.22
210.661	55.47
210.879	-22.36
211.098	-30.55
211.316	12.46
211.535	73.9
211.753	14.51
211.972	80.04
212.191	39.08
212.409	14.51
212.628	49.32
212.846	-12.12
213.065	-5.97
213.283	63.66
213.502	69.8
213.72	-8.02
213.938	-24.4
214.157	-10.07
214.375	59.56
214.594	80.04
214.812	82.09
215.031	30.89
215.249	2.22
215.467	0.17
215.686	-75.6
215.904	-24.4
216.122	-20.31
216.341	26.79
216.559	2.22
216.778	73.9
216.996	26.79
217.214	0.17
217.432	-81.75
217.651	-24.4
217.869	8.36
218.087	12.46
218.306	24.75
218.524	77.99
218.742	-10.07
218.96	84.14
219.179	-14.17
219.397	47.27
219.615	39.08
219.833	41.13
220.051	57.51
220.27	53.42
220.488	8.36
220.706	49.32
220.924	43.18
221.142	34.99
221.36	-14.17
221.578	32.94
221.796	8.36
222.015	88.23
222.233	-28.5
222.451	51.37
222.669	-10.07
222.887	65.71
223.105	30.89
223.323	-12.12
223.541	-36.69
223.759	32.94
223.977	39.08
224.195	28.84
224.413	30.89
224.631	61.61
224.849	63.66
225.067	-10.07
225.285	24.75
225.503	61.61
225.721	75.95
225.939	-65.36
226.157	-46.93
226.375	45.23
226.592	12.46
226.81	24.75
227.028	-10.07
227.246	71.85
227.464	14.51
227.682	41.13
227.9	-22.36
228.117	39.08
228.335	55.47
228.553	-26.45
228.771	75.95
228.989	92.33
229.206	41.13
229.424	18.6
229.642	-22.36
229.86	-3.93
230.077	14.51
230.295	73.9
230.513	88.23
230.731	16.55
230.948	63.66
231.166	-14.17
231.384	-38.74
231.601	71.85
231.819	28.84
232.037	41.13
232.254	-94.04
232.472	-10.07
232.689	32.94
232.907	16.55
233.125	67.75
233.342	0.17
233.56	90.28
233.777	41.13
233.995	53.42
234.213	24.75
234.43	-44.88
234.648	34.99
234.865	-24.4
235.083	39.08
235.3	10.41
235.518	57.51
235.735	22.7
235.953	32.94
236.17	-26.45
236.388	32.94
236.605	-3.93
236.822	24.75
237.04	59.56
237.257	55.47
237.475	8.36
237.692	-28.5
237.909	-8.02
238.127	-14.17
238.344	34.99
238.562	6.31
238.779	2.22
238.996	-40.79
239.214	22.7
239.431	55.47
239.648	-36.69
239.865	73.9
240.083	-1.88
240.3	-8.02
240.517	-44.88
240.735	39.08
240.952	49.32
241.169	24.75
241.386	8.36
241.603	59.56
241.821	75.95
242.038	43.18
242.255	0.17
242.472	47.27
242.689	106.67
242.907	6.31
243.124	71.85
243.341	28.84
243.558	39.08
243.775	104.62
243.992	-1.88
244.209	28.84
244.426	92.33
244.643	20.65
244.86	121
245.078	32.94
245.295	30.89
245.512	67.75
245.729	8.36
245.946	43.18
246.163	41.13
246.38	47.27
246.597	49.32
246.814	28.84
247.031	34.99
247.248	57.51
247.464	10.41
247.681	61.61
247.898	16.55
248.115	-51.03
248.332	10.41
248.549	80.04
248.766	63.66
248.983	0.17
249.2	-12.12
249.417	16.55
249.633	-34.64
249.85	80.04
250.067	-10.07
250.284	37.03
250.501	26.79
250.717	-16.21
250.934	26.79
251.151	129.19
251.368	20.65
251.585	-5.97
251.801	-38.74
252.018	-32.6
252.235	47.27
252.451	-34.64
252.668	10.41
252.885	39.08
253.102	6.31
253.318	-1.88
253.535	67.75
253.752	14.51
253.968	30.89
254.185	-14.17
254.401	39.08
254.618	8.36
254.835	65.71
255.051	67.75
255.268	22.7
255.484	2.22
255.701	39.08
255.917	10.41
256.134	26.79
256.351	2.22
256.567	43.18
256.784	-1.88
257	-3.93
257.217	-18.26
257.433	2.22
257.65	41.13
257.866	73.9
258.082	8.36
258.299	-12.12
258.515	112.81
258.732	-1.88
258.948	65.71
259.165	4.27
259.381	2.22
259.597	-40.79
259.814	6.31
260.03	8.36
260.246	10.41
260.463	53.42
260.679	43.18
260.895	47.27
261.112	10.41
261.328	65.71
261.544	-22.36
261.761	98.47
261.977	41.13
262.193	-89.94
262.409	-22.36
262.626	80.04
262.842	47.27
263.058	55.47
263.274	110.76
263.49	-18.26
263.707	55.47
263.923	37.03
264.139	32.94
264.355	10.41
264.571	65.71
264.787	82.09
265.004	6.31
265.22	55.47
265.436	59.56
265.652	51.37
265.868	-16.21
266.084	6.31
266.3	45.23
266.516	-8.02
266.732	-1.88
266.948	-1.88
267.164	-40.79
267.38	18.6
267.596	108.71
267.812	51.37
268.028	67.75
268.244	57.51
268.46	63.66
268.676	49.32
268.892	67.75
269.108	69.8
269.324	22.7
269.54	-53.08
269.756	90.28
269.972	-12.12
270.188	-5.97
270.403	4.27
270.619	22.7
270.835	77.99
271.051	51.37
271.267	61.61
271.483	-26.45
271.698	-3.93
271.914	47.27
272.13	-61.27
272.346	0.17
272.562	6.31
272.777	24.75
272.993	-48.98
273.209	-5.97
273.425	-18.26
273.64	10.41
273.856	24.75
274.072	-53.08
274.287	69.8
274.503	-14.17
274.719	-1.88
274.934	16.55
275.15	88.23
275.366	-10.07
275.581	12.46
275.797	-18.26
276.012	41.13
276.228	10.41
276.444	20.65
276.659	151.72
276.875	-26.45
277.09	92.33
277.306	82.09
277.521	-34.64
277.737	-8.02
277.952	104.62
278.168	30.89
278.383	65.71
278.599	96.43
278.814	67.75
279.03	18.6
279.245	55.47
279.461	69.8
279.676	34.99
279.892	0.17
280.107	51.37
280.322	-65.36
280.538	-26.45
280.753	41.13
280.969	32.94
281.184	-67.41
281.399	65.71
281.615	57.51
281.83	28.84
282.045	67.75
282.26	41.13
282.476	80.04
282.691	-20.31
282.906	24.75
283.122	80.04
283.337	24.75
283.552	34.99
283.767	61.61
283.983	-10.07
284.198	2.22
284.413	73.9
284.628	59.56
284.843	18.6
285.058	37.03
285.274	37.03
285.489	37.03
285.704	69.8
285.919	59.56
286.134	-51.03
286.349	12.46
286.564	55.47
286.779	137.38
286.995	14.51
287.21	-18.26
287.425	26.79
287.64	57.51
287.855	67.75
288.07	18.6
288.285	20.65
288.5	-77.65
288.715	20.65
288.93	-61.27
289.145	61.61
289.36	10.41
289.575	82.09
289.79	45.23
290.004	-20.31
290.219	32.94
290.434	-12.12
290.649	16.55
290.864	55.47
291.079	34.99
291.294	75.95
291.509	16.55
291.724	30.89
291.938	-42.84
292.153	34.99
292.368	32.94
292.583	-3.93
292.798	-20.31
293.012	51.37
293.227	-12.12
293.442	34.99
293.657	80.04
293.871	-10.07
294.086	6.31
294.301	106.67
294.516	30.89
294.73	28.84
294.945	28.84
295.16	-30.55
295.374	84.14
295.589	108.71
295.804	80.04
296.018	-32.6
296.233	82.09
296.447	18.6
296.662	14.51
296.877	43.18
297.091	41.13
297.306	39.08
297.52	53.42
297.735	24.75
297.949	-10.07
298.164	24.75
298.378	6.31
298.593	57.51
298.807	-20.31
299.022	84.14
299.236	53.42
299.451	6.31
299.665	45.23
299.88	6.31
300.094	-5.97
300.309	63.66
300.523	-24.4
300.737	86.19
300.952	41.13
301.166	67.75
301.381	24.75
301.595	32.94
301.809	-14.17
302.024	65.71
302.238	47.27
302.452	63.66
302.667	-26.45
302.881	51.37
303.095	-26.45
303.309	41.13
303.524	51.37
303.738	39.08
303.952	71.85
304.166	71.85
304.381	0.17
304.595	-16.21
304.809	-26.45
305.023	45.23
305.237	28.84
305.452	28.84
305.666	53.42
305.88	49.32
306.094	-26.45
306.308	41.13
306.522	69.8
306.736	-1.88
306.95	-12.12
307.164	24.75
307.379	4.27
307.593	43.18
307.807	4.27
308.021	32.94
308.235	71.85
308.449	57.51
308.663	59.56
308.877	57.51
309.091	41.13
309.305	26.79
309.519	-22.36
309.733	104.62
309.947	41.13
310.161	98.47
310.374	59.56
310.588	49.32
310.802	16.55
311.016	102.57
311.23	45.23
311.444	155.82
311.658	32.94
311.872	67.75
312.085	16.55
312.299	61.61
312.513	69.8
312.727	-20.31
312.941	55.47
313.154	4.27
313.368	22.7
313.582	45.23
313.796	63.66
314.009	30.89
314.223	112.81
314.437	57.51
314.651	47.27
314.864	-28.5
315.078	49.32
315.292	20.65
315.505	37.03
315.719	34.99
315.933	-8.02
316.146	8.36
316.36	6.31
316.573	-20.31
316.787	24.75
317.001	-8.02
317.214	139.43
317.428	116.9
317.641	67.75
317.855	43.18
318.068	47.27
318.282	-1.88
318.495	51.37
318.709	45.23
318.922	24.75
319.136	-10.07
319.349	-77.65
319.563	20.65
319.776	-34.64
319.99	55.47
320.203	-26.45
320.417	28.84
320.63	61.61
320.843	37.03
321.057	45.23
321.27	43.18
321.483	37.03
321.697	61.61
321.91	84.14
322.124	104.62
322.337	-16.21
322.55	71.85
322.763	24.75
322.977	-30.55
323.19	8.36
323.403	0.17
323.617	2.22
323.83	32.94
324.043	28.84
324.256	75.95
324.469	-12.12
324.683	22.7
324.896	75.95
325.109	37.03
325.322	-22.36
325.535	32.94
325.748	-26.45
325.962	-14.17
326.175	34.99
326.388	14.51
326.601	22.7
326.814	0.17
327.027	30.89
327.24	2.22
327.453	37.03
327.666	88.23
327.879	16.55
328.092	28.84
328.305	8.36
328.518	24.75
328.731	24.75
328.944	80.04
329.157	-14.17
329.37	41.13
329.583	108.71
329.796	34.99
330.009	67.75
330.222	114.86
330.435	24.75
330.648	14.51
330.861	-5.97
331.073	59.56
331.286	-10.07
331.499	53.42
331.712	67.75
331.925	80.04
332.138	2.22
332.35	34.99
332.563	32.94
332.776	75.95
332.989	47.27
333.202	110.76
333.414	30.89
333.627	-24.4
333.84	-30.55
334.053	59.56
334.265	32.94
334.478	18.6
334.691	71.85
334.903	92.33
335.116	47.27
335.329	59.56
335.541	10.41
335.754	75.95
335.966	37.03
336.179	14.51
336.392	26.79
336.604	102.57
336.817	45.23
337.029	94.38
337.242	-1.88
337.454	24.75
337.667	16.55
337.88	-5.97
338.092	61.61
338.305	18.6
338.517	2.22
338.729	28.84
338.942	55.47
339.154	8.36
339.367	26.79
339.579	73.9
339.792	108.71
340.004	-30.55
340.217	47.27
340.429	-34.64
340.641	4.27
340.854	59.56
341.066	-5.97
341.278	-28.5
341.491	26.79
341.703	41.13
341.915	10.41
342.128	6.31
342.34	-32.6
342.552	-5.97
342.764	-32.6
342.977	10.41
343.189	92.33
343.401	28.84
343.613	24.75
343.826	2.22
344.038	55.47
344.25	34.99
344.462	34.99
344.674	47.27
344.886	-14.17
345.099	12.46
345.311	41.13
345.523	49.32
345.735	-16.21
345.947	61.61
346.159	69.8
346.371	71.85
346.583	75.95
346.795	34.99
347.007	24.75
347.219	57.51
347.431	32.94
347.643	14.51
347.855	86.19
348.067	55.47
348.279	43.18
348.491	47.27
348.703	59.56
348.915	49.32
349.127	30.89
349.339	30.89
349.551	6.31
349.763	-67.41
349.975	-65.36
350.187	8.36
350.399	67.75
350.61	47.27
350.822	75.95
351.034	65.71
351.246	30.89
351.458	-16.21
351.669	22.7
351.881	0.17
352.093	37.03
352.305	2.22
352.517	53.42
352.728	100.52
352.94	26.79
353.152	61.61
353.363	22.7
353.575	-24.4
353.787	63.66
353.999	-10.07
354.21	12.46
354.422	10.41
354.633	61.61
354.845	84.14
355.057	47.27
355.268	102.57
355.48	90.28
355.692	-14.17
355.903	41.13
356.115	-30.55
356.326	100.52
356.538	108.71
356.749	61.61
356.961	65.71
357.172	77.99
357.384	55.47
357.595	14.51
357.807	55.47
358.018	16.55
358.23	65.71
358.441	30.89
358.653	32.94
358.864	14.51
359.075	98.47
359.287	47.27
359.498	10.41
359.709	14.51
359.921	39.08
360.132	10.41
360.344	80.04
360.555	26.79
360.766	20.65
360.977	18.6
361.189	106.67
361.4	6.31
361.611	77.99
361.823	37.03
362.034	14.51
362.245	-67.41
362.456	18.6
362.667	71.85
362.879	-3.93
363.09	30.89
363.301	-1.88
363.512	55.47
363.723	77.99
363.935	98.47
364.146	45.23
364.357	-14.17
364.568	-57.17
364.779	-18.26
364.99	45.23
365.201	39.08
365.412	55.47
365.623	-16.21
365.834	-46.93
366.045	-1.88
366.256	37.03
366.467	24.75
366.678	57.51
366.889	65.71
367.1	-24.4
367.311	108.71
367.522	73.9
367.733	-3.93
367.944	86.19
368.155	39.08
368.366	67.75
368.577	39.08
368.788	71.85
368.999	-32.6
369.209	14.51
369.42	2.22
369.631	-22.36
369.842	96.43
370.053	-22.36
370.264	55.47
370.474	121
370.685	39.08
370.896	84.14
371.107	37.03
371.317	20.65
371.528	0.17
371.739	39.08
371.95	0.17
372.16	98.47
372.371	28.84
372.582	-26.45
372.792	63.66
373.003	82.09
373.214	-3.93
373.424	0.17
373.635	14.51
373.846	61.61
374.056	16.55
374.267	104.62
374.477	20.65
374.688	22.7
374.898	26.79
375.109	28.84
375.319	24.75
375.53	84.14
375.74	-5.97
375.951	6.31
376.161	14.51
376.372	18.6
376.582	39.08
376.793	34.99
377.003	51.37
377.214	63.66
377.424	30.89
377.635	55.47
377.845	63.66
378.055	63.66
378.266	12.46
378.476	55.47
378.686	8.36
378.897	118.95
379.107	47.27
379.317	104.62
379.528	26.79
379.738	82.09
379.948	-20.31
380.158	80.04
380.369	39.08
380.579	75.95
380.789	71.85
380.999	116.9
381.21	26.79
381.42	90.28
381.63	30.89
381.84	16.55
382.05	73.9
382.261	30.89
382.471	75.95
382.681	18.6
382.891	65.71
383.101	53.42
383.311	57.51
383.521	-32.6
383.731	51.37
383.941	-5.97
384.151	20.65
384.361	2.22
384.571	98.47
384.781	6.31
384.991	135.34
385.201	34.99
385.411	55.47
385.621	30.89
385.831	80.04
386.041	100.52
386.251	8.36
386.461	92.33
386.671	51.37
386.881	55.47
387.091	-30.55
387.301	8.36
387.511	55.47
387.72	53.42
387.93	10.41
388.14	86.19
388.35	55.47
388.56	30.89
388.769	41.13
388.979	59.56
389.189	-18.26
389.399	86.19
389.609	55.47
389.818	63.66
390.028	73.9
390.238	0.17
390.447	61.61
390.657	71.85
390.867	-22.36
391.076	32.94
391.286	51.37
391.496	92.33
391.705	57.51
391.915	22.7
392.125	28.84
392.334	88.23
392.544	102.57
392.753	63.66
392.963	-1.88
393.172	57.51
393.382	10.41
393.591	100.52
393.801	-1.88
394.01	110.76
394.22	65.71
394.429	77.99
394.639	-24.4
394.848	100.52
395.058	94.38
395.267	88.23
395.477	55.47
395.686	94.38
395.895	-18.26
396.105	32.94
396.314	12.46
396.524	84.14
396.733	59.56
396.942	86.19
397.152	51.37
397.361	34.99
397.57	47.27
397.78	18.6
397.989	32.94
398.198	94.38
398.407	55.47
398.617	80.04
398.826	53.42
399.035	63.66
399.244	45.23
399.453	63.66
399.663	51.37
399.872	104.62
400.081	84.14
400.29	55.47
400.499	45.23
400.708	92.33
400.917	-75.6
401.127	82.09
401.336	63.66
401.545	184.49
401.754	-1.88
401.963	26.79
402.172	84.14
402.381	30.89
402.59	41.13
402.799	73.9
403.008	65.71
403.217	4.27
403.426	82.09
403.635	84.14
403.844	26.79
404.053	24.75
404.262	94.38
404.471	98.47
404.68	53.42
404.888	104.62
405.097	61.61
405.306	123.05
405.515	106.67
405.724	147.62
405.933	137.38
406.142	121
406.35	153.77
406.559	170.15
406.768	102.57
406.977	104.62
407.185	104.62
407.394	92.33
407.603	106.67
407.812	194.73
408.02	153.77
408.229	155.82
408.438	170.15
408.646	170.15
408.855	149.67
409.064	207.02
409.272	118.95
409.481	155.82
409.69	153.77
409.898	137.38
410.107	178.34
410.315	123.05
410.524	182.44
410.733	114.86
410.941	207.02
411.15	235.69
411.358	229.54
411.567	317.61
411.775	202.92
411.984	211.11
412.192	174.25
412.401	256.17
412.609	297.13
412.818	266.41
413.026	280.74
413.234	209.06
413.443	309.41
413.651	293.03
413.86	272.55
414.068	366.76
414.276	333.99
414.485	309.41
414.693	319.65
414.901	344.23
415.11	415.91
415.318	319.65
415.526	389.28
415.734	448.68
415.943	442.53
416.151	465.06
416.359	450.72
416.567	444.58
416.776	534.69
416.984	501.92
417.192	532.64
417.4	538.79
417.608	499.88
417.817	583.84
418.025	553.12
418.233	641.18
418.441	653.47
418.649	598.18
418.857	663.71
419.065	708.77
419.273	696.48
419.481	807.07
419.689	719.01
419.897	774.3
420.105	778.4
420.313	860.32
420.521	858.27
420.729	954.52
420.937	983.2
421.145	966.81
421.353	960.67
421.561	1042.59
421.769	1011.87
421.977	1046.68
422.185	1056.92
422.393	1065.11
422.601	1261.72
422.809	1226.9
423.017	1265.82
423.224	1284.25
423.432	1290.39
423.64	1439.89
423.848	1499.28
424.056	1433.75
424.263	1568.91
424.471	1562.77
424.679	1573.01
424.887	1718.42
425.094	1638.55
425.302	1683.6
425.51	1724.56
425.718	1765.52
425.925	1847.44
426.133	1917.07
426.341	2037.9
426.548	2095.24
426.756	2132.11
426.964	2144.39
427.171	2132.11
427.379	2394.25
427.586	2359.43
427.794	2429.06
428.001	2666.63
428.209	2726.02
428.417	2578.56
428.624	2738.3
428.832	2799.74
429.039	2748.54
429.247	2764.93
429.454	3008.64
429.662	3199.1
429.869	3164.28
430.076	3233.91
430.284	3061.88
430.491	3301.5
430.699	3467.38
430.906	3582.07
431.114	3565.68
431.321	3653.75
431.528	3907.7
431.736	3909.74
431.943	4040.81
432.15	4016.24
432.358	4079.72
432.565	4216.94
432.772	4204.65
432.979	4522.09
433.187	4552.81
433.394	4630.63
433.601	5091.42
433.808	4997.21
434.016	4923.49
434.223	5046.37
434.43	5570.65
434.637	5300.31
434.844	5697.62
435.052	5763.15
435.259	5673.04
435.466	5679.19
435.673	5507.16
435.88	6109.26
436.087	6342.73
436.294	6400.07
436.501	6381.64
436.708	6322.25
436.915	6766.66
437.122	7014.46
437.329	6645.83
437.537	7116.86
437.743	7284.8
437.95	7161.92
438.157	7755.83
438.364	7702.58
438.571	7665.72
438.778	7874.61
438.985	8620.07
439.192	8157.23
439.399	8618.02
439.606	8251.44
439.813	8800.29
440.02	9396.25
440.227	9248.8
440.433	8994.85
440.64	9234.46
440.847	9000.99
441.054	9316.38
441.261	10082.32
441.467	10127.38
441.674	10250.25
441.881	10682.38
442.088	10772.49
442.294	10532.87
442.501	10944.52
442.708	11016.19
442.914	11450.36
443.121	11950.07
443.328	11732.98
443.534	12466.16
443.741	12183.54
443.948	11921.4
444.154	12865.51
444.361	12947.43
444.568	12838.89
444.774	12773.35
444.981	13146.08
445.187	13428.7
445.394	13998.04
445.6	13774.81
445.807	15038.41
446.013	14542.8
446.22	14741.45
446.426	15525.82
446.633	15296.45
446.839	16181.17
447.046	15495.1
447.252	16238.51
447.459	16345.01
447.665	16261.04
447.871	17039.27
448.078	17745.82
448.284	16791.47
448.491	17303.46
448.697	18237.33
448.903	18444.18
449.11	18466.7
449.316	18032.54
449.522	18235.28
449.728	19068.81
449.935	19234.69
450.141	19292.04
450.347	19711.87
450.553	18814.86
450.76	19109.77
450.966	19707.77
451.172	19525.5
451.378	20215.67
451.584	19644.29
451.791	20469.62
451.997	20137.85
452.203	20524.91
452.409	20553.59
452.615	20350.84
452.821	19505.03
453.027	19343.24
453.233	20631.41
453.44	19675.01
453.646	19928.95
453.852	19933.05
454.058	20420.47
454.264	19738.49
454.47	20273.01
454.676	19783.55
454.882	20520.82
455.088	18503.57
455.294	18999.18
455.5	19201.93
455.705	19521.41
455.911	18845.58
456.117	18225.04
456.323	17803.16
456.529	17199.01
456.735	17956.76
456.941	17436.58
457.147	17149.86
457.352	16357.3
457.558	16445.36
457.764	16609.2
457.97	16086.97
458.176	15775.67
458.381	15787.96
458.587	14956.49
458.793	14972.87
458.999	14280.66
459.204	15032.26
459.41	14698.44
459.616	13785.05
459.821	13993.94
460.027	13541.34
460.233	13445.09
460.438	12804.07
460.644	12748.78
460.85	12402.67
461.055	12040.18
461.261	12222.45
461.466	11212.8
461.672	10821.64
461.878	11536.38
462.083	11061.25
462.289	10606.6
462.494	10555.4
462.7	10266.64
462.905	9865.24
463.111	10188.82
463.316	10110.99
463.522	9863.19
463.727	9959.44
463.932	10074.13
464.138	9975.83
464.343	9861.14
464.549	9596.95
464.754	10000.4
464.959	9973.78
465.165	9922.58
465.37	9506.84
465.575	9125.92
465.781	9476.12
465.986	9742.36
466.191	9375.77
466.397	9119.78
466.602	8910.88
466.807	8794.15
467.012	8957.99
467.218	8943.65
467.423	8992.8
467.628	8990.75
467.833	9287.71
468.038	8888.36
468.244	8656.93
468.449	8974.37
468.654	8736.81
468.859	8556.58
469.064	8636.45
469.269	8278.06
469.474	8255.53
469.679	8566.82
469.885	8405.03
470.09	8431.66
470.295	8302.64
470.5	8183.85
470.705	8177.71
470.91	7948.34
471.115	7725.11
471.32	8034.35
471.525	7925.81
471.73	7923.76
471.935	7905.33
472.139	7569.46
472.344	7741.49
472.549	7606.33
472.754	7635
472.959	7288.89
473.164	7182.4
473.369	7028.8
473.574	7284.8
473.778	7319.61
473.983	7262.27
474.188	7084.09
474.393	6799.43
474.598	6860.87
474.802	6932.54
475.007	6615.11
475.212	6635.59
475.417	6512.71
475.621	6570.05
475.826	6486.09
476.031	6490.18
476.235	6307.91
476.44	6447.18
476.645	6379.59
476.849	6322.25
477.054	6277.19
477.259	6142.03
477.463	5955.66
477.668	5963.86
477.872	5924.94
478.077	5757.01
478.282	5765.2
478.486	5797.97
478.691	5802.07
478.895	5718.1
479.1	5658.71
479.304	5652.56
479.509	5625.94
479.713	5558.36
479.918	5519.45
480.122	5343.32
480.326	5484.63
480.531	5455.96
480.735	5468.25
480.94	5345.37
481.144	5509.21
481.348	5304.41
481.553	5535.83
481.757	5220.44
481.961	5249.11
482.166	5226.59
482.37	5130.33
482.574	5163.1
482.778	5263.45
482.983	5343.32
483.187	5222.49
483.391	5392.47
483.595	5204.06
483.8	5171.29
484.004	5193.82
484.208	5310.55
484.412	5136.48
484.616	5378.14
484.821	5408.86
485.025	5193.82
485.229	5427.29
485.433	5204.06
485.637	5183.58
485.841	5355.61
486.045	5171.29
486.249	5347.42
486.453	5187.68
486.657	5349.47
486.861	5216.35
487.065	5242.97
487.269	5273.69
487.473	5171.29
487.677	5288.03
487.881	5371.99
488.085	5138.52
488.289	5220.44
488.493	5216.35
488.697	5265.5
488.901	5310.55
489.105	5331.03
489.309	5371.99
489.512	5415
489.716	5333.08
489.92	5331.03
490.124	5242.97
490.328	5404.76
490.531	5191.77
490.735	5449.82
490.939	5601.37
491.143	5288.03
491.346	5398.62
491.55	5619.8
491.754	5609.56
491.958	5714
492.161	5455.96
492.365	5638.23
492.569	5650.52
492.772	5718.1
492.976	5625.94
493.18	5795.92
493.383	5814.35
493.587	5886.03
493.79	5775.44
493.994	5724.24
494.197	5943.38
494.401	5922.9
494.605	6006.86
494.808	5902.42
495.012	6135.89
495.215	6066.25
495.419	6240.33
495.622	6013.01
495.825	6158.41
496.029	6203.47
496.232	6289.48
496.436	6226
496.639	6479.94
496.843	6359.11
497.046	6584.39
497.249	6662.21
497.453	6752.32
497.656	6934.59
497.859	6793.28
498.063	6948.93
498.266	7174.21
498.469	6977.6
498.673	7159.87
498.876	7184.45
499.079	7233.6
499.282	7209.02
499.485	7456.82
499.689	7387.19
499.892	7667.77
500.095	7667.77
500.298	7673.91
500.501	7665.72
500.705	8052.78
500.908	7964.72
501.111	8222.77
501.314	8261.68
501.517	8331.31
501.72	8362.03
501.923	8316.97
502.126	8486.95
502.329	8788
502.532	8529.96
502.735	8763.43
502.938	9023.52
503.141	9183.26
503.344	9392.16
503.547	9199.65
503.75	9406.49
503.953	9560.09
504.156	9574.42
504.359	9711.64
504.562	9783.32
504.765	9859.09
504.968	10049.55
505.17	10151.95
505.373	10266.64
505.576	10414.09
505.779	10485.77
505.982	10672.14
506.185	10866.69
506.387	10788.87
506.59	10768.39
506.793	11075.59
506.996	11042.82
507.198	11438.08
507.401	11302.91
507.604	11452.41
507.807	11843.57
508.009	11825.14
508.212	11991.03
508.415	12179.44
508.617	12388.33
508.82	12357.61
509.022	12410.86
509.225	12564.46
509.428	12623.85
509.63	12871.65
509.833	12820.46
510.035	13236.19
510.238	13248.48
510.44	13375.45
510.643	13395.93
510.845	13391.84
511.048	13813.72
511.25	13633.5
511.453	14030.8
511.655	14698.44
511.858	14303.18
512.06	14368.72
512.262	14757.83
512.465	14579.66
512.667	14772.17
512.87	14989.25
513.072	15265.73
513.274	15409.09
513.477	15441.86
513.679	15695.8
513.881	15800.25
514.084	16099.25
514.286	16060.34
514.488	16064.44
514.69	16635.82
514.893	16717.74
515.095	16883.63
515.297	16961.45
515.499	17117.09
515.701	17153.96
515.904	17258.4
516.106	17358.75
516.308	17801.12
516.51	17612.7
516.712	17985.43
516.914	18247.57
517.116	18186.13
517.318	18309.01
517.52	18405.27
517.722	18679.69
517.925	19025.8
518.127	19130.25
518.329	19525.5
518.531	19140.49
518.733	19580.8
518.935	19646.33
519.136	19840.89
519.338	19992.44
519.54	20184.95
519.742	20449.14
519.944	20375.41
520.146	20856.68
520.348	21124.97
520.55	20809.58
520.752	20746.09
520.954	21569.38
521.155	21249.89
521.357	21419.88
521.559	21608.29
521.761	22083.42
521.963	22134.62
522.164	22318.93
522.366	22357.85
522.568	22120.28
522.77	22636.37
522.971	22746.96
523.173	22785.87
523.375	23193.42
523.576	22955.85
523.778	23084.87
523.98	23603.01
524.181	23537.48
524.383	23482.18
524.584	23742.27
524.786	23748.42
524.988	23641.92
525.189	24082.24
525.391	24391.48
525.592	24262.46
525.794	24497.97
525.995	24119.1
526.197	24663.86
526.398	24577.84
526.6	24667.95
526.801	24745.78
527.003	24940.33
527.204	24753.97
527.406	24891.18
527.607	25044.78
527.808	25288.49
528.01	24921.9
528.211	25130.8
528.412	25571.11
528.614	25524.01
528.815	25405.22
529.016	25390.89
529.218	25814.82
529.419	25669.41
529.62	25673.51
529.822	25708.32
530.023	25925.41
530.224	25730.85
530.425	25863.97
530.626	25847.58
530.828	25380.65
531.029	26197.79
531.23	25984.8
531.431	25949.98
531.632	25997.09
531.833	26242.84
532.035	26081.05
532.236	26095.39
532.437	26386.2
532.638	26138.4
532.839	26337.05
533.04	26461.97
533.241	25755.43
533.442	26496.79
533.643	26210.07
533.844	26279.71
534.045	26279.71
534.246	26541.85
534.447	26380.06
534.648	26300.19
534.849	26830.61
535.05	26040.09
535.251	26326.81
535.451	26285.85
535.652	26437.4
535.853	26490.65
536.054	26240.79
536.255	26476.31
536.456	26042.14
536.657	26869.52
536.857	26220.31
537.058	26138.4
537.259	26775.31
537.46	26511.13
537.66	26378.01
537.861	25990.94
538.062	26335
538.263	26556.18
538.463	26455.83
538.664	26654.48
538.865	26580.76
539.065	26445.59
539.266	26324.76
539.466	26472.21
539.667	25880.35
539.868	26453.78
540.068	26513.17
540.269	26101.53
540.469	26547.99
540.67	26003.23
540.87	26060.57
541.071	26335
541.271	26316.57
541.472	26117.92
541.672	26380.06
541.873	26197.79
542.073	25458.47
542.274	26408.73
542.474	26265.37
542.675	26140.44
542.875	26134.3
543.075	26062.62
543.276	25997.09
543.476	26388.25
543.676	25909.02
543.877	26259.23
544.077	26378.01
544.277	25976.61
544.478	26038.05
544.678	26359.58
544.878	26279.71
545.078	26003.23
545.279	26162.97
545.479	25902.88
545.679	26535.7
545.879	26038.05
546.079	25966.37
546.28	26017.57
546.48	25949.98
546.68	26083.1
546.88	26042.14
547.08	26015.52
547.28	26103.58
547.48	25751.33
547.68	25896.74
547.88	26019.61
548.081	26394.39
548.281	25904.93
548.481	25939.74
548.681	26091.29
548.881	25886.5
549.081	25982.75
549.28	25882.4
549.48	26138.4
549.68	25693.99
549.88	26298.14
550.08	26107.68
550.28	25892.64
550.48	25773.86
550.68	26230.55
550.88	25892.64
551.08	25784.1
551.279	26056.48
551.479	25870.11
551.679	26072.86
551.879	25526.05
552.079	25980.7
552.278	25820.96
552.478	25935.65
552.678	25870.11
552.878	26263.32
553.077	25814.82
553.277	25659.17
553.477	26044.19
553.676	25730.85
553.876	25831.2
554.076	25282.34
554.275	25231.15
554.475	25644.84
554.674	25847.58
554.874	25632.55
555.074	25624.36
555.273	25855.78
555.473	25968.41
555.672	25245.48
555.872	25464.61
556.071	25681.7
556.271	25593.64
556.47	25435.94
556.67	25253.67
556.869	25233.19
557.068	25489.19
557.268	24999.73
557.467	25448.23
557.667	25147.18
557.866	25325.35
558.065	25227.05
558.265	25073.45
558.464	24835.89
558.663	25474.85
558.863	25093.93
559.062	25526.05
559.261	24895.28
559.461	25456.42
559.66	24661.81
559.859	25063.21
560.058	24805.17
560.258	25050.92
560.457	25155.37
560.656	24919.85
560.855	24643.38
561.054	24950.57
561.253	24821.55
561.453	24690.48
561.652	24723.25
561.851	24674.1
562.05	24651.57
562.249	24856.37
562.448	24913.71
562.647	24739.63
562.846	24739.63
563.045	24846.13
563.244	24352.57
563.443	24803.12
563.642	24340.28
563.841	24454.97
564.04	24491.83
564.239	24764.21
564.438	24254.26
564.637	24504.12
564.836	24260.41
565.035	23899.97
565.234	24284.98
565.432	24287.03
565.631	23959.36
565.83	24215.35
566.029	23893.82
566.228	23992.12
566.427	24164.15
566.625	23805.76
566.824	23822.14
567.023	23865.15
567.222	23609.15
567.42	23725.89
567.619	23811.9
567.818	23828.29
568.016	23834.43
568.215	23840.57
568.414	23596.87
568.612	23590.72
568.811	23873.34
569.01	23713.6
569.208	23082.83
569.407	23533.38
569.605	22912.85
569.804	23451.46
570.002	23213.9
570.201	23510.85
570.4	23146.31
570.598	23115.59
570.797	22644.56
570.995	23285.58
571.193	22849.36
571.392	23123.79
571.59	23005
571.789	22708.05
571.987	22685.52
572.186	22886.22
572.384	22595.41
572.582	22708.05
572.781	22918.99
572.979	22374.23
573.177	22591.31
573.376	22347.61
573.574	22288.21
573.772	22515.54
573.971	22310.74
574.169	22083.42
574.367	22302.55
574.565	22462.29
574.763	22161.24
574.962	21952.35
575.16	21929.82
575.358	21806.94
575.556	21661.54
575.754	21974.88
575.952	21944.16
576.151	21872.48
576.349	21704.54
576.547	21688.16
576.745	21552.99
576.943	21280.61
577.141	21659.49
577.339	21450.6
577.537	21364.58
577.735	21442.4
577.933	21137.26
578.131	21438.31
578.329	21141.35
578.527	20801.39
578.725	21337.96
578.923	21280.61
579.121	21045.1
579.319	20825.96
579.516	20871.02
579.714	20889.45
579.912	20981.61
580.11	20742
580.308	20662.13
580.506	20866.92
580.704	20569.97
580.901	20598.64
581.099	20868.97
581.297	20531.06
581.495	20514.67
581.692	20549.49
581.89	20297.59
582.088	20440.95
582.285	20160.38
582.483	20248.44
582.681	20397.94
582.878	19857.28
583.076	19662.72
583.274	20172.66
583.471	19715.97
583.669	20019.07
583.866	19519.36
584.064	19851.13
584.262	19601.28
584.459	19572.61
584.657	19353.48
584.854	19758.97
585.052	19193.73
585.249	19664.77
585.447	19392.39
585.644	19333
585.841	19214.21
586.039	19670.91
586.236	18952.07
586.434	19455.87
586.631	19042.18
586.828	18933.64
587.026	19058.57
587.223	19138.44
587.42	18960.27
587.618	18841.48
587.815	18712.46
588.012	18737.04
588.21	18548.62
588.407	18671.5
588.604	18773.9
588.801	18423.7
588.999	18620.3
589.196	18626.45
589.393	18419.6
589.59	18491.28
589.787	18235.28
589.984	18313.11
590.182	18026.39
590.379	18311.06
590.576	18192.28
590.773	18100.12
590.97	17991.58
591.167	18165.65
591.364	17766.3
591.561	18306.96
591.758	17680.28
591.955	18028.44
592.152	17835.93
592.349	17567.65
592.546	17708.96
592.743	17649.57
592.94	17225.64
593.137	17635.23
593.334	17590.17
593.531	17524.64
593.727	17362.85
593.924	17336.23
594.121	17305.51
594.318	17213.35
594.515	16930.73
594.712	17201.06
594.908	17022.89
595.105	17031.08
595.302	16695.21
595.499	16809.9
595.696	16672.68
595.892	16619.44
596.089	16650.16
596.286	16826.28
596.482	16672.68
596.679	16836.52
596.876	16517.04
597.072	16340.91
597.269	16328.63
597.466	16508.85
597.662	16385.97
597.859	16277.43
598.055	16508.85
598.252	16490.42
598.448	16281.52
598.645	16009.14
598.841	16060.34
599.038	16119.73
599.234	16170.93
599.431	15833.02
599.627	15914.94
599.824	16195.51
600.02	15642.56
600.217	15861.69
600.413	15804.35
600.609	15890.36
600.806	15587.26
601.002	15468.48
601.198	15562.69
601.395	15384.51
601.591	15331.26
601.787	15505.34
601.984	15228.87
602.18	15542.21
602.376	15054.79
602.572	15185.86
602.769	15173.57
602.965	15042.5
603.161	15105.99
603.357	14610.38
603.553	14948.29
603.75	15056.84
603.946	14964.68
604.142	15077.32
604.338	14931.91
604.534	14841.8
604.73	14749.64
604.926	14700.49
605.122	14813.13
605.318	14559.18
605.514	14550.99
605.71	14374.86
605.906	14426.06
606.102	14235.6
606.298	14401.49
606.494	14276.56
606.69	14458.83
606.886	14317.52
607.082	14153.68
607.278	14401.49
607.474	14168.02
607.67	14469.07
607.866	13903.83
608.062	14102.48
608.257	14014.42
608.453	13809.62
608.649	13742.04
608.845	13975.51
609.041	13893.59
609.236	13858.78
609.432	13858.78
609.628	13787.1
609.824	13795.29
610.019	13758.42
610.215	13641.69
610.411	13746.14
610.606	13635.55
610.802	13694.94
610.998	13531.1
611.193	13453.28
611.389	13502.43
611.584	13397.98
611.78	13412.32
611.976	13287.39
612.171	13449.18
612.367	13191.14
612.562	13271.01
612.758	12896.23
612.953	13248.48
613.149	13522.91
613.344	13385.69
613.539	13291.49
613.735	13176.8
613.93	13133.79
614.126	13225.95
614.321	13219.81
614.517	13076.45
614.712	13346.78
614.907	12994.53
615.103	13131.75
615.298	13090.79
615.493	13121.51
615.688	12869.61
615.884	13084.64
616.079	12935.14
616.274	12746.73
616.47	12799.98
616.665	12904.42
616.86	12619.75
617.055	12593.13
617.25	12691.43
617.445	12853.22
617.641	12322.8
617.836	12515.31
618.031	12333.04
618.226	12576.75
618.421	12494.83
618.616	12548.08
618.811	12490.73
619.006	12314.61
619.201	12298.22
619.396	12390.38
619.591	11909.11
619.786	12365.81
619.981	12044.27
620.176	12285.94
620.371	12023.8
620.566	11993.08
620.761	11790.33
620.956	11792.37
621.151	11757.56
621.346	11763.7
621.541	11573.24
621.735	11859.96
621.93	11515.9
622.125	11579.39
622.32	11325.44
622.515	11642.87
622.709	11411.45
622.904	11196.42
623.099	11210.75
623.294	11290.62
623.488	11014.15
623.683	10991.62
623.878	10909.7
624.072	10868.74
624.267	11018.24
624.462	10715.14
624.656	10739.72
624.851	10813.45
625.046	10643.46
625.24	10649.61
625.435	10704.9
625.629	10696.71
625.824	10588.17
626.018	10453
626.213	9951.25
626.407	10029.07
626.602	10133.52
626.796	10264.59
626.991	10094.61
627.185	10123.28
627.38	10127.38
627.574	9998.35
627.768	9996.31
627.963	9791.51
628.157	9642.01
628.352	9758.74
628.546	9584.66
628.74	9801.75
628.935	9693.21
629.129	9607.19
629.323	9472.03
629.517	9304.09
629.712	9310.24
629.906	9529.37
630.1	9156.64
630.294	9263.13
630.489	9164.83
630.683	9248.8
630.877	9121.82
631.071	9062.43
631.265	9033.76
631.459	8871.97
631.653	9076.77
631.848	8783.91
632.042	8871.97
632.236	8849.44
632.43	8765.48
632.624	8747.05
632.818	8658.98
633.012	8607.78
633.206	8536.1
633.4	8667.17
633.594	8521.77
633.788	8513.58
633.982	8575.02
634.176	8642.6
634.369	8482.86
634.563	8226.86
634.757	8257.58
634.951	8233.01
635.145	7968.82
635.339	8294.44
635.533	8144.94
635.726	7960.63
635.92	7786.55
636.114	8056.88
636.308	7878.71
636.501	7804.98
636.695	8007.73
636.889	7675.96
637.083	7852.08
637.276	7759.92
637.47	7731.25
637.664	7487.54
637.857	7579.7
638.051	7553.08
638.244	7403.58
638.438	7594.04
638.632	7454.78
638.825	7389.24
639.019	7278.65
639.212	7209.02
639.406	7321.66
639.599	7241.79
639.793	7389.24
639.986	7190.59
640.18	7170.11
640.373	7217.21
640.567	7036.99
640.76	7022.66
640.954	6918.21
641.147	6973.5
641.34	6889.54
641.534	6778.95
641.727	6912.07
641.92	6914.11
642.114	6692.93
642.307	6674.5
642.5	6662.21
642.694	6516.81
642.887	6568.01
643.08	6664.26
643.273	6748.23
643.467	6457.42
643.66	6400.07
643.853	6389.83
644.046	6338.63
644.239	6535.24
644.432	6479.94
644.626	6170.7
644.819	6301.77
645.012	6197.32
645.205	6256.72
645.398	6314.06
645.591	6045.77
645.784	6029.39
645.977	6002.77
646.17	5939.28
646.363	6115.41
646.556	6045.77
646.749	5779.54
646.942	5851.22
647.135	5982.29
647.328	5855.31
647.521	5689.43
647.714	5765.2
647.907	5714
648.099	5720.15
648.292	5654.61
648.485	5654.61
648.678	5527.64
648.871	5484.63
649.064	5496.92
649.256	5351.51
649.449	5355.61
649.642	5470.3
649.835	5296.22
650.027	5365.85
650.22	5255.26
650.413	5294.17
650.605	5242.97
650.798	5247.07
650.991	5236.83
651.183	5214.3
651.376	5238.87
651.568	5277.79
651.761	5083.23
651.954	5032.03
652.146	5111.9
652.339	5109.85
652.531	5113.95
652.724	4978.78
652.916	4841.57
653.109	4868.19
653.301	4798.56
653.494	4784.23
653.686	4700.26
653.879	4792.42
654.071	4735.07
654.263	4786.27
654.456	4792.42
654.648	4827.23
654.84	4612.2
655.033	4702.31
655.225	4606.05
655.417	4874.34
655.61	4679.78
655.802	4558.95
655.994	4489.32
656.186	4497.51
656.379	4503.65
656.571	4391.02
656.763	4348.01
656.955	4278.38
657.148	4366.44
657.34	4208.75
657.532	4233.32
657.724	4225.13
657.916	4253.8
658.108	4188.27
658.3	4098.16
658.492	4194.41
658.684	4085.87
658.876	4096.11
659.068	4190.31
659.26	4110.44
659.452	4014.19
659.644	4028.53
659.836	4141.16
660.028	4161.64
660.22	4061.29
660.412	3987.57
660.604	3922.03
660.796	3897.46
660.988	3881.07
661.18	3887.22
661.372	3862.64
661.563	3750
661.755	3723.38
661.947	3909.74
662.139	3854.45
662.331	3760.24
662.522	3721.33
662.714	3508.34
662.906	3627.12
663.097	3661.94
663.289	3522.68
663.481	3577.97
663.673	3537.01
663.864	3455.09
664.056	3520.63
664.247	3469.43
664.439	3305.59
664.631	3405.94
664.822	3438.71
665.014	3422.33
665.205	3465.33
665.397	3442.81
665.588	3385.46
665.78	3377.27
665.971	3340.41
666.163	3338.36
666.354	3330.17
666.546	3342.46
666.737	3299.45
666.929	3156.09
667.12	3317.88
667.311	3186.81
667.503	3260.54
667.694	3205.24
667.885	3266.68
668.077	3131.51
668.268	3219.58
668.459	3100.8
668.651	3104.89
668.842	3012.73
669.033	2982.01
669.224	3029.12
669.416	3141.75
669.607	3078.27
669.798	2971.77
669.989	3178.62
670.18	3012.73
670.371	2984.06
670.563	2867.33
670.754	3049.6
670.945	2955.39
671.136	2885.76
671.327	2826.37
671.518	2924.67
671.709	2949.25
671.9	2824.32
672.091	2871.42
672.282	2826.37
672.473	2896
672.664	2762.88
672.855	2744.45
673.046	2668.67
673.237	2783.36
673.428	2750.59
673.619	2717.83
673.809	2746.5
674	2672.77
674.191	2791.55
674.382	2594.95
674.573	2687.11
674.764	2486.4
674.954	2793.6
675.145	2545.8
675.336	2599.04
675.527	2617.47
675.717	2660.48
675.908	2691.2
676.099	2613.38
676.289	2611.33
676.48	2523.27
676.671	2390.15
676.861	2541.7
677.052	2558.08
677.243	2539.65
677.433	2508.93
677.624	2431.11
677.814	2547.84
678.005	2650.24
678.195	2482.31
678.386	2474.12
678.576	2338.95
678.767	2453.64
678.957	2465.93
679.148	2529.41
679.338	2431.11
679.529	2310.28
679.719	2494.6
679.909	2420.87
680.1	2357.38
680.29	2463.88
680.481	2418.82
680.671	2459.78
680.861	2373.77
681.052	2371.72
681.242	2392.2
681.432	2488.45
681.622	2332.81
681.813	2291.85
682.003	2240.65
682.193	2386.05
682.383	2293.9
682.573	2416.77
682.764	2341
682.954	2295.94
683.144	2379.91
683.334	2314.38
683.524	2304.14
683.714	2140.3
683.904	2271.37
684.094	2269.32
684.284	2236.55
684.474	2275.46
684.664	2242.7
684.854	2201.74
685.044	2257.03
685.234	2244.74
685.424	2254.98
685.614	2242.7
685.804	2226.31
685.994	2211.98
686.184	2191.5
686.374	2214.02
686.564	2152.59
686.753	2238.6
686.943	2168.97
687.133	2189.45
687.323	2048.14
687.513	2070.67
687.702	2138.25
687.892	2056.33
688.082	2150.54
688.272	2136.2
688.461	2238.6
688.651	2125.96
688.841	2037.9
689.03	2085
689.22	2072.72
689.41	2009.23
689.599	2154.63
689.789	1960.08
689.979	2152.59
690.168	2066.57
690.358	2056.33
690.547	2005.13
690.737	2062.48
690.926	2119.82
691.116	1902.73
691.305	2046.09
691.495	2044.04
691.684	1990.8
691.874	1980.56
692.063	2117.77
692.252	1947.79
692.442	1984.65
692.631	1988.75
692.82	1941.65
693.01	1888.4
693.199	1966.22
693.388	1927.31
693.578	1867.92
693.767	1960.08
693.956	1876.11
694.146	1867.92
694.335	1955.98
694.524	1876.11
694.713	2011.28
694.902	2005.13
695.092	1829.01
695.281	1857.68
695.47	1865.87
695.659	1796.24
695.848	1890.45
696.037	1867.92
696.226	1835.15
696.415	1884.3
696.604	1923.21
696.793	1861.77
696.982	1796.24
697.171	1802.38
697.36	1882.25
697.549	1898.64
697.738	1794.19
697.927	1794.19
698.116	1794.19
698.305	1708.18
698.494	1831.05
698.683	1786
698.872	1802.38
699.061	1720.46
699.25	1734.8
699.438	1781.9
699.627	1822.86
699.816	1818.77
700.005	1712.27
700.193	1669.27
700.382	1798.29
700.571	1661.07
700.76	1679.51
700.948	1710.22
701.137	1681.55
701.326	1755.28
701.514	1650.83
701.703	1673.36
701.892	1679.51
702.08	1792.14
702.269	1681.55
702.457	1671.31
702.646	1704.08
702.834	1644.69
703.023	1607.83
703.212	1775.76
703.4	1751.18
703.589	1636.5
703.777	1552.53
703.965	1638.55
704.154	1646.74
704.342	1712.27
704.531	1587.35
704.719	1575.06
704.907	1624.21
705.096	1550.48
705.284	1581.2
705.472	1575.06
705.661	1589.39
705.849	1599.63
706.037	1554.58
706.226	1564.82
706.414	1616.02
706.602	1616.02
706.79	1552.53
706.979	1593.49
707.167	1581.2
707.355	1482.9
707.543	1487
707.731	1466.52
707.919	1554.58
708.107	1552.53
708.296	1413.27
708.484	1484.95
708.672	1534.1
708.86	1573.01
709.048	1542.29
709.236	1595.54
709.424	1482.9
709.612	1460.37
709.8	1429.65
709.988	1482.9
710.176	1437.84
710.364	1423.51
710.551	1493.14
710.739	1464.47
710.927	1493.14
711.115	1362.07
711.303	1495.19
711.491	1452.18
711.679	1443.99
711.866	1403.03
712.054	1400.98
712.242	1452.18
712.43	1423.51
712.617	1456.28
712.805	1417.37
712.993	1392.79
713.181	1439.89
713.368	1376.41
713.556	1384.6
713.744	1364.12
713.931	1517.72
714.119	1376.41
714.306	1396.89
714.494	1392.79
714.682	1349.78
714.869	1351.83
715.057	1388.69
715.244	1296.53
715.432	1417.37
715.619	1370.26
715.807	1370.26
715.994	1249.43
716.182	1323.16
716.369	1325.21
716.556	1222.81
716.744	1357.97
716.931	1321.11
717.119	1370.26
717.306	1263.77
717.493	1286.3
717.681	1286.3
717.868	1192.09
718.055	1317.01
718.242	1368.21
718.43	1171.61
718.617	1382.55
718.804	1243.29
718.991	1284.25
719.179	1317.01
719.366	1292.44
719.553	1202.33
719.74	1243.29
719.927	1194.14
720.114	1218.71
720.301	1206.42
720.488	1288.34
720.676	1331.35
720.863	1257.62
721.05	1245.34
721.237	1335.45
721.424	1214.62
721.611	1341.59
721.798	1261.72
721.985	1202.33
722.172	1167.51
722.358	1147.03
722.545	1206.42
722.732	1157.27
722.919	1261.72
723.106	1155.23
723.293	1218.71
723.48	1235.1
723.667	1202.33
723.853	1177.75
724.04	1085.59
724.227	1233.05
724.414	1142.94
724.6	1151.13
724.787	1206.42
724.974	1183.9
725.161	1276.06
725.347	1138.84
725.534	1171.61
725.72	1157.27
725.907	1200.28
726.094	1101.98
726.28	1114.27
726.467	1194.14
726.653	1179.8
726.84	1171.61
727.027	1198.23
727.213	1063.07
727.4	1155.23
727.586	1104.03
727.773	1071.26
727.959	1106.07
728.145	1128.6
728.332	1144.99
728.518	1034.39
728.705	1196.18
728.891	1065.11
729.077	1099.93
729.264	1081.5
729.45	1087.64
729.636	1026.2
729.823	1042.59
730.009	1128.6
730.195	1091.74
730.382	1144.99
730.568	1075.35
730.754	1126.55
730.94	1050.78
731.126	1185.94
731.313	1067.16
731.499	1110.17
731.685	1048.73
731.871	1149.08
732.057	1128.6
732.243	1028.25
732.429	1108.12
732.615	1087.64
732.801	1122.46
732.987	1042.59
733.173	1067.16
733.359	1048.73
733.545	1067.16
733.731	1032.35
733.917	1007.77
734.103	1005.72
734.289	1120.41
734.475	1030.3
734.661	1079.45
734.847	999.58
735.033	1122.46
735.219	1069.21
735.404	1091.74
735.59	1052.83
735.776	1050.78
735.962	1065.11
736.148	1050.78
736.333	983.2
736.519	925.85
736.705	981.15
736.89	1036.44
737.076	1058.97
737.262	1093.79
737.447	1058.97
737.633	1005.72
737.819	1011.87
738.004	1032.35
738.19	1095.83
738.375	1054.87
738.561	1001.63
738.747	997.53
738.932	956.57
739.118	964.76
739.303	1007.77
739.489	1052.83
739.674	975
739.859	1028.25
740.045	1040.54
740.23	1007.77
740.416	991.39
740.601	1034.39
740.786	1028.25
740.972	966.81
741.157	921.76
741.342	1005.72
741.528	993.44
741.713	962.72
741.898	995.48
742.084	993.44
742.269	1032.35
742.454	983.2
742.639	1032.35
742.824	909.47
743.01	936.09
743.195	979.1
743.38	899.23
743.565	936.09
743.75	907.42
743.935	1048.73
744.12	915.61
744.305	893.09
744.49	936.09
744.675	1028.25
744.86	909.47
745.045	882.85
745.23	919.71
745.415	874.65
745.6	866.46
745.785	907.42
745.97	907.42
746.155	852.13
746.34	895.13
746.525	864.41
746.71	872.61
746.895	880.8
747.079	901.28
747.264	899.23
747.449	850.08
747.634	952.48
747.819	880.8
748.003	768.16
748.188	821.41
748.373	874.65
748.557	776.35
748.742	792.73
748.927	759.97
749.111	872.61
749.296	772.25
749.481	839.84
749.665	798.88
749.85	827.55
750.034	749.73
750.219	817.31
750.404	813.21
750.588	768.16
750.773	796.83
750.957	794.78
751.141	868.51
751.326	719.01
751.51	825.5
751.695	735.39
751.879	788.64
752.064	880.8
752.248	739.49
752.432	737.44
752.617	694.43
752.801	700.58
752.985	784.54
753.17	768.16
753.354	768.16
753.538	786.59
753.722	737.44
753.907	704.67
754.091	659.62
754.275	737.44
754.459	692.38
754.643	704.67
754.828	690.34
755.012	743.58
755.196	600.23
755.38	723.1
755.564	632.99
755.748	702.62
755.932	641.18
756.116	733.34
756.3	673.95
756.484	624.8
756.668	632.99
756.852	665.76
757.036	598.18
757.22	688.29
757.404	628.9
757.588	602.27
757.772	694.43
757.956	628.9
758.14	589.99
758.323	592.03
758.507	571.55
758.691	526.5
758.875	596.13
759.059	596.13
759.242	626.85
759.426	577.7
759.61	608.42
759.794	657.57
759.977	553.12
760.161	647.33
760.345	628.9
760.528	618.66
760.712	489.64
760.895	575.65
761.079	487.59
761.263	567.46
761.446	575.65
761.63	561.31
761.813	563.36
761.997	565.41
762.18	553.12
762.364	532.64
762.547	485.54
762.731	438.44
762.914	565.41
763.098	581.79
763.281	514.21
763.464	549.03
763.648	495.78
763.831	483.49
764.015	514.21
764.198	571.55
764.381	612.51
764.564	538.79
764.748	592.03
764.931	522.4
765.114	546.98
765.297	471.2
765.481	508.07
765.664	532.64
765.847	510.11
766.03	432.29
766.213	549.03
766.397	516.26
766.58	450.72
766.763	499.88
766.946	557.22
767.129	524.45
767.312	479.4
767.495	512.16
767.678	485.54
767.861	450.72
768.044	497.83
768.227	497.83
768.41	499.88
768.593	491.68
768.776	409.76
768.959	512.16
769.142	368.81
769.324	458.92
769.507	485.54
769.69	448.68
769.873	436.39
770.056	528.55
770.239	524.45
770.421	481.44
770.604	471.2
770.787	473.25
770.97	458.92
771.152	460.96
771.335	401.57
771.518	465.06
771.7	438.44
771.883	473.25
772.066	473.25
772.248	399.52
772.431	422.05
772.613	395.43
772.796	485.54
772.978	381.09
773.161	364.71
773.343	508.07
773.526	463.01
773.708	348.33
773.891	358.57
774.073	407.72
774.256	413.86
774.438	446.63
774.621	323.75
774.803	440.48
774.985	389.28
775.168	422.05
775.35	360.61
775.532	426.15
775.715	360.61
775.897	440.48
776.079	368.81
776.261	374.95
776.444	346.28
776.626	313.51
776.808	370.85
776.99	293.03
777.173	391.33
777.355	333.99
777.537	319.65
777.719	385.19
777.901	424.1
778.083	393.38
778.265	284.84
778.447	311.46
778.629	303.27
778.811	346.28
778.993	362.66
779.175	395.43
779.357	364.71
779.539	215.21
779.721	282.79
779.903	329.89
780.085	266.41
780.267	403.62
780.449	372.9
780.631	303.27
780.812	336.04
780.994	288.93
781.176	243.88
781.358	290.98
781.54	286.89
781.721	311.46
781.903	288.93
782.085	233.64
782.267	352.42
782.448	227.5
782.63	252.07
782.812	272.55
782.993	329.89
783.175	237.74
783.357	245.93
783.538	250.02
783.72	293.03
783.901	297.13
784.083	215.21
784.264	250.02
784.446	178.34
784.627	309.41
784.809	233.64
784.99	252.07
785.172	221.35
785.353	301.22
785.535	225.45
785.716	188.58
785.897	194.73
786.079	311.46
786.26	260.26
786.441	235.69
786.623	239.78
786.804	233.64
786.985	260.26
787.167	147.62
787.348	243.88
787.529	284.84
787.71	241.83
787.891	211.11
788.073	202.92
788.254	245.93
788.435	149.67
788.616	266.41
788.797	254.12
788.978	178.34
789.159	245.93
789.34	233.64
789.522	243.88
789.703	137.38
789.884	88.23
790.065	188.58
790.246	217.26
790.427	254.12
790.607	182.44
790.788	184.49
790.969	235.69
791.15	194.73
791.331	262.31
791.512	260.26
791.693	141.48
791.874	180.39
792.054	184.49
792.235	254.12
792.416	123.05
792.597	182.44
792.778	131.24
792.958	272.55
793.139	215.21
793.32	151.72
793.5	159.91
793.681	247.97
793.862	211.11
794.042	133.29
794.223	182.44
794.404	170.15
794.584	149.67
794.765	164.01
794.945	204.97
795.126	123.05
795.306	166.06
795.487	182.44
795.667	184.49
795.848	190.63
796.028	143.53
796.209	172.2
796.389	123.05
796.57	170.15
796.75	229.54
796.93	194.73
797.111	172.2
797.291	151.72
797.471	151.72
797.652	166.06
797.832	114.86
798.012	141.48
798.192	98.47
798.373	82.09
798.553	145.58
798.733	135.34
798.913	207.02
799.093	135.34
799.274	135.34
799.454	192.68
799.634	86.19
799.814	190.63
799.994	135.34
800.174	190.63
800.354	170.15
800.534	108.71
800.714	73.9
800.894	176.3
801.074	131.24
801.254	125.1
801.434	131.24
801.614	94.38
801.794	127.14
801.974	383.14
802.154	92.33
802.334	121
802.514	61.61
802.693	153.77
802.873	149.67
803.053	172.2
803.233	75.95
803.413	133.29
803.592	77.99
803.772	143.53
803.952	164.01
804.131	106.67
804.311	108.71
804.491	139.43
804.67	112.81
804.85	145.58
805.03	184.49
805.209	145.58
805.389	186.54
805.568	86.19
805.748	110.76
805.928	168.1
806.107	184.49
806.287	114.86
806.466	157.86
806.646	123.05
806.825	116.9
807.004	41.13
807.184	104.62
807.363	143.53
807.543	82.09
807.722	137.38
807.901	102.57
808.081	92.33
808.26	116.9
808.439	131.24
808.619	133.29
808.798	102.57
808.977	90.28
809.156	133.29
809.336	94.38
809.515	92.33
809.694	92.33
809.873	129.19
810.052	118.95
810.231	129.19
810.411	125.1
810.59	147.62
810.769	96.43
810.948	168.1
811.127	41.13
811.306	24.75
811.485	28.84
811.664	82.09
811.843	92.33
812.022	166.06
812.201	80.04
812.38	129.19
812.559	112.81
812.737	149.67
812.916	104.62
813.095	22.7
813.274	168.1
813.453	118.95
813.632	94.38
813.811	61.61
813.989	77.99
814.168	43.18
814.347	51.37
814.526	125.1
814.704	55.47
814.883	65.71
815.062	102.57
815.24	47.27
815.419	34.99
815.598	77.99
815.776	100.52
815.955	63.66
816.133	59.56
816.312	49.32
816.49	147.62
816.669	71.85
816.847	139.43
817.026	108.71
817.204	73.9
817.383	-16.21
817.561	26.79
817.74	34.99
817.918	82.09
818.097	96.43
818.275	164.01
818.453	63.66
818.632	106.67
818.81	18.6
818.988	28.84
819.167	71.85
819.345	59.56
819.523	141.48
819.701	4.27
819.879	90.28
820.058	108.71
820.236	61.61
820.414	26.79
820.592	155.82
820.77	104.62
820.948	16.55
821.127	14.51
821.305	106.67
821.483	73.9
821.661	30.89
821.839	12.46
822.017	84.14
822.195	57.51
822.373	102.57
822.551	73.9
822.729	123.05
822.907	110.76
823.085	106.67
823.262	39.08
823.44	28.84
823.618	180.39
823.796	65.71
823.974	34.99
824.152	18.6
824.329	2.22
824.507	108.71
824.685	82.09
824.863	86.19
825.04	57.51
825.218	94.38
825.396	71.85
825.574	55.47
825.751	53.42
825.929	90.28
826.107	77.99
826.284	100.52
826.462	45.23
826.639	106.67
826.817	90.28
826.994	12.46
827.172	28.84
827.349	100.52
827.527	47.27
827.704	55.47
827.882	57.51
828.059	65.71
828.237	73.9
828.414	102.57
828.591	37.03
828.769	34.99
828.946	80.04
829.124	49.32
829.301	73.9
829.478	96.43
829.655	57.51
829.833	47.27
830.01	45.23
830.187	53.42
830.364	39.08
830.542	14.51
830.719	-8.02
830.896	4.27
831.073	32.94
831.25	69.8
831.427	39.08
831.604	55.47
831.782	12.46
831.959	28.84
832.136	88.23
832.313	47.27
832.49	28.84
832.667	90.28
832.844	145.58
833.021	57.51
833.198	32.94
833.374	6.31
833.551	86.19
833.728	18.6
833.905	20.65
834.082	67.75
834.259	43.18
834.436	71.85
834.612	32.94
834.789	34.99
834.966	24.75
835.143	131.24
835.319	55.47
835.496	10.41
835.673	116.9
835.85	84.14
836.026	51.37
836.203	73.9
836.38	51.37
836.556	12.46
836.733	67.75
836.909	118.95
837.086	20.65
837.262	41.13
837.439	30.89
837.616	57.51
837.792	0.17
837.968	75.95
838.145	55.47
838.321	41.13
838.498	82.09
838.674	28.84
838.851	30.89
839.027	53.42
839.203	51.37
839.38	41.13
839.556	37.03
839.732	96.43
839.909	18.6
840.085	47.27
840.261	41.13
840.437	18.6
840.614	63.66
840.79	43.18
840.966	73.9
841.142	41.13
841.318	92.33
841.494	10.41
841.671	32.94
841.847	108.71
842.023	2.22
842.199	-63.32
842.375	16.55
842.551	39.08
842.727	41.13
842.903	98.47
843.079	12.46
843.255	26.79
843.431	37.03
843.607	41.13
843.783	2.22
843.959	57.51
844.134	8.36
844.31	84.14
844.486	28.84
844.662	47.27
844.838	20.65
845.013	-5.97
845.189	26.79
845.365	80.04
845.541	53.42
845.716	39.08
845.892	73.9
846.068	55.47
846.244	26.79
846.419	63.66
846.595	26.79
846.77	14.51
846.946	57.51
847.122	26.79
847.297	-48.98
847.473	51.37
847.648	61.61
847.824	22.7
847.999	-5.97
848.175	20.65
848.35	59.56
848.526	20.65
848.701	-55.12
848.876	39.08
849.052	41.13
849.227	57.51
849.403	24.75
849.578	-14.17
849.753	69.8
849.929	100.52
850.104	-57.17
850.279	55.47
850.454	-42.84
850.63	63.66
850.805	20.65
850.98	51.37
851.155	10.41
851.33	30.89
851.505	26.79
851.681	30.89
851.856	20.65
852.031	0.17
852.206	102.57
852.381	16.55
852.556	96.43
852.731	-10.07
852.906	92.33
853.081	-55.12
853.256	-16.21
853.431	77.99
853.606	57.51
853.781	41.13
853.956	4.27
854.131	18.6
854.305	-1.88
854.48	24.75
854.655	55.47
854.83	55.47
855.005	34.99
855.18	22.7
855.354	-30.55
855.529	55.47
855.704	80.04
855.879	37.03
856.053	37.03
856.228	22.7
856.403	24.75
856.577	-3.93
856.752	-12.12
856.926	65.71
857.101	61.61
857.276	-1.88
857.45	80.04
857.625	51.37
857.799	0.17
857.974	4.27
858.148	45.23
858.323	71.85
858.497	22.7
858.672	-5.97
858.846	26.79
859.02	90.28
859.195	43.18
859.369	-12.12
859.543	20.65
859.718	6.31
859.892	6.31
860.066	63.66
860.241	30.89
860.415	-12.12
860.589	24.75
860.763	-34.64
860.938	22.7
861.112	94.38
861.286	-18.26
861.46	30.89
861.634	73.9
861.808	24.75
861.982	18.6
862.157	16.55
862.331	69.8
862.505	-10.07
862.679	-40.79
862.853	6.31
863.027	-10.07
863.201	59.56
863.375	10.41
863.549	39.08
863.722	-14.17
863.896	55.47
864.07	59.56
864.244	98.47
864.418	26.79
864.592	55.47
864.766	67.75
864.939	77.99
865.113	-48.98
865.287	-24.4
865.461	4.27
865.634	-30.55
865.808	59.56
865.982	100.52
866.156	28.84
866.329	41.13
866.503	30.89
866.676	-42.84
866.85	8.36
867.024	-1.88
867.197	-18.26
867.371	0.17
867.544	-16.21
867.718	2.22
867.891	-1.88
868.065	82.09
868.238	-20.31
868.412	-38.74
868.585	69.8
868.759	22.7
868.932	-10.07
869.105	82.09
869.279	-18.26
869.452	-10.07
869.625	63.66
869.799	-30.55
869.972	18.6
870.145	77.99
870.319	6.31
870.492	32.94
870.665	10.41
870.838	14.51
871.011	-5.97
871.185	22.7
871.358	47.27
871.531	18.6
871.704	14.51
871.877	-32.6
872.05	41.13
872.223	-18.26
872.396	22.7
872.569	20.65
872.742	24.75
872.915	14.51
873.088	12.46
873.261	18.6
873.434	61.61
873.607	75.95
873.78	14.51
873.953	-10.07
874.126	61.61
874.299	69.8
874.471	0.17
874.644	-10.07
874.817	65.71
874.99	16.55
875.163	6.31
875.335	-26.45
875.508	6.31
875.681	80.04
875.853	4.27
876.026	51.37
876.199	-10.07
876.371	57.51
876.544	-48.98
876.717	65.71
876.889	-16.21
877.062	30.89
877.234	51.37
877.407	4.27
877.579	-20.31
877.752	98.47
877.924	55.47
878.097	45.23
878.269	16.55
878.442	16.55
878.614	24.75
878.786	59.56
878.959	51.37
879.131	-10.07
879.303	-12.12
879.476	82.09
879.648	-32.6
879.82	14.51
879.993	16.55
880.165	37.03
880.337	32.94
880.509	26.79
880.681	30.89
880.854	41.13
881.026	-32.6
881.198	-91.99
881.37	-10.07
881.542	-1.88
881.714	26.79
881.886	14.51
882.058	-36.69
882.23	-36.69
882.402	18.6
882.574	22.7
882.746	53.42
882.918	32.94
883.09	8.36
883.262	2.22
883.434	6.31
883.606	55.47
883.778	14.51
883.95	-22.36
884.122	-67.41
884.293	82.09
884.465	-34.64
884.637	61.61
884.809	-81.75
884.98	14.51
885.152	-48.98
885.324	-12.12
885.496	49.32
885.667	-30.55
885.839	2.22
886.011	43.18
886.182	-16.21
886.354	63.66
886.525	-18.26
886.697	-22.36
886.869	20.65
887.04	14.51
887.212	-5.97
887.383	61.61
887.555	41.13
887.726	53.42
887.897	55.47
888.069	37.03
888.24	94.38
888.412	39.08
888.583	41.13
888.754	61.61
888.926	-26.45
889.097	10.41
889.268	55.47
889.44	39.08
889.611	22.7
889.782	14.51
889.953	14.51
890.125	30.89
890.296	-14.17
890.467	34.99
890.638	22.7
890.809	16.55
890.98	-10.07
891.151	-48.98
891.323	14.51
891.494	84.14
891.665	-104.28
891.836	28.84
892.007	47.27
892.178	-1.88
892.349	-14.17
892.52	2.22
892.691	55.47
892.862	-5.97
893.032	28.84
893.203	18.6
893.374	6.31
893.545	20.65
893.716	30.89
893.887	57.51
894.057	-5.97
894.228	8.36
894.399	-8.02
894.57	32.94
894.74	10.41
894.911	41.13
895.082	22.7
895.253	24.75
895.423	61.61
895.594	32.94
895.764	-1.88
895.935	-16.21
896.106	61.61
896.276	43.18
896.447	104.62
896.617	127.14
896.788	49.32
896.958	43.18
897.129	-24.4
897.299	43.18
897.47	28.84
897.64	24.75
897.81	10.41
897.981	53.42
898.151	4.27
898.322	-14.17
898.492	0.17
898.662	-12.12
898.832	18.6
899.003	82.09
899.173	8.36
899.343	-5.97
899.513	-42.84
