Data from USB4F104151__97__12-54-56-227.txt Node

Date: Fri Mar 14 12:54:56 EDT 2025
User: louis
Spectrometer: USB4F10415
Trigger mode: 4
Integration Time (sec): 1.000000E-2
Scans to average: 1
Electric dark correction enabled: true
Nonlinearity correction enabled: false
Boxcar width: 0
XAxis mode: Wavelengths
Number of Pixels in Spectrum: 3648
>>>>>Begin Spectral Data<<<<<
178.204	-36.52
178.424	-36.52
178.644	-36.52
178.864	-52.91
179.084	-44.71
179.304	-7.85
179.524	43.35
179.744	2.39
179.964	18.77
180.184	-52.91
180.404	20.82
180.624	20.82
180.844	-13.99
181.064	-5.8
181.283	-30.38
181.503	12.63
181.723	-7.85
181.943	-54.95
182.163	69.97
182.383	-16.04
182.602	2.39
182.822	-9.9
183.042	31.06
183.262	31.06
183.482	16.73
183.701	-52.91
183.921	-7.85
184.141	-83.63
184.361	29.01
184.58	29.01
184.8	39.25
185.02	-26.28
185.239	-30.38
185.459	-3.75
185.679	-42.67
185.898	-30.38
186.118	-18.09
186.338	-30.38
186.557	61.78
186.777	-50.86
186.997	0.34
187.216	31.06
187.436	-13.99
187.655	-34.47
187.875	33.11
188.095	-28.33
188.314	26.96
188.534	31.06
188.753	41.3
188.973	-11.95
189.192	67.92
189.412	-11.95
189.631	-28.33
189.851	43.35
190.07	26.96
190.29	10.58
190.509	2.39
190.729	-1.71
190.948	4.44
191.168	-28.33
191.387	8.53
191.607	-20.14
191.826	37.2
192.045	-28.33
192.265	33.11
192.484	43.35
192.704	-69.29
192.923	24.92
193.142	47.44
193.362	80.21
193.581	-1.71
193.8	-22.19
194.02	-7.85
194.239	8.53
194.458	-28.33
194.678	45.4
194.897	-30.38
195.116	35.16
195.335	-20.14
195.555	-7.85
195.774	29.01
195.993	6.49
196.212	20.82
196.432	-18.09
196.651	26.96
196.87	12.63
197.089	59.73
197.308	43.35
197.528	-9.9
197.747	-48.81
197.966	-1.71
198.185	55.64
198.404	-18.09
198.623	76.12
198.842	-63.15
199.062	18.77
199.281	22.87
199.5	29.01
199.719	-11.95
199.938	72.02
200.157	59.73
200.376	-42.67
200.595	-16.04
200.814	37.2
201.033	-83.63
201.252	51.54
201.471	-11.95
201.69	-22.19
201.909	-50.86
202.128	14.68
202.347	-54.95
202.566	8.53
202.785	55.64
203.004	-34.47
203.223	-36.52
203.442	-5.8
203.661	12.63
203.879	-9.9
204.098	-18.09
204.317	-9.9
204.536	4.44
204.755	-34.47
204.974	69.97
205.193	20.82
205.411	-9.9
205.63	12.63
205.849	2.39
206.068	-13.99
206.287	-46.76
206.505	-34.47
206.724	-16.04
206.943	-79.53
207.162	26.96
207.381	-71.34
207.599	-13.99
207.818	4.44
208.037	55.64
208.255	-38.57
208.474	37.2
208.693	31.06
208.911	20.82
209.13	-26.28
209.349	12.63
209.567	-18.09
209.786	2.39
210.005	-22.19
210.223	-7.85
210.442	4.44
210.661	-42.67
210.879	-30.38
211.098	-7.85
211.316	22.87
211.535	35.16
211.753	-30.38
211.972	67.92
212.191	-69.29
212.409	-16.04
212.628	33.11
212.846	-26.28
213.065	-13.99
213.283	8.53
213.502	26.96
213.72	51.54
213.938	-16.04
214.157	2.39
214.375	-50.86
214.594	-5.8
214.812	-28.33
215.031	51.54
215.249	-5.8
215.467	10.58
215.686	10.58
215.904	35.16
216.122	12.63
216.341	45.4
216.559	4.44
216.778	-7.85
216.996	72.02
217.214	8.53
217.432	59.73
217.651	-40.62
217.869	-9.9
218.087	-22.19
218.306	-22.19
218.524	4.44
218.742	-42.67
218.96	26.96
219.179	59.73
219.397	49.49
219.615	57.68
219.833	59.73
220.051	16.73
220.27	-3.75
220.488	-28.33
220.706	-3.75
220.924	-52.91
221.142	-16.04
221.36	22.87
221.578	-44.71
221.796	12.63
222.015	-42.67
222.233	-26.28
222.451	18.77
222.669	-22.19
222.887	10.58
223.105	-42.67
223.323	18.77
223.541	0.34
223.759	8.53
223.977	-54.95
224.195	-16.04
224.413	47.44
224.631	6.49
224.849	0.34
225.067	-18.09
225.285	-54.95
225.503	-28.33
225.721	22.87
225.939	12.63
226.157	16.73
226.375	53.59
226.592	-1.71
226.81	-63.15
227.028	12.63
227.246	47.44
227.464	6.49
227.682	26.96
227.9	-63.15
228.117	-30.38
228.335	14.68
228.553	2.39
228.771	14.68
228.989	-44.71
229.206	2.39
229.424	31.06
229.642	29.01
229.86	-32.43
230.077	20.82
230.295	-26.28
230.513	29.01
230.731	24.92
230.948	-46.76
231.166	20.82
231.384	-65.19
231.601	-30.38
231.819	-38.57
232.037	-48.81
232.254	39.25
232.472	-46.76
232.689	-11.95
232.907	10.58
233.125	-44.71
233.342	39.25
233.56	63.83
233.777	78.16
233.995	22.87
234.213	-32.43
234.43	-3.75
234.648	20.82
234.865	-13.99
235.083	-50.86
235.3	-46.76
235.518	-7.85
235.735	-7.85
235.953	-28.33
236.17	76.12
236.388	31.06
236.605	0.34
236.822	35.16
237.04	-48.81
237.257	12.63
237.475	-1.71
237.692	49.49
237.909	18.77
238.127	37.2
238.344	-24.23
238.562	22.87
238.779	-5.8
238.996	-42.67
239.214	-5.8
239.431	67.92
239.648	-73.39
239.865	35.16
240.083	-18.09
240.3	31.06
240.517	-48.81
240.735	-28.33
240.952	18.77
241.169	-7.85
241.386	-3.75
241.603	-32.43
241.821	-32.43
242.038	-3.75
242.255	-34.47
242.472	31.06
242.689	-13.99
242.907	-38.57
243.124	-85.67
243.341	-18.09
243.558	-24.23
243.775	-1.71
243.992	-61.1
244.209	6.49
244.426	-59.05
244.643	-38.57
244.86	-52.91
245.078	22.87
245.295	0.34
245.512	4.44
245.729	-5.8
245.946	-13.99
246.163	-44.71
246.38	6.49
246.597	0.34
246.814	-30.38
247.031	18.77
247.248	29.01
247.464	10.58
247.681	29.01
247.898	-20.14
248.115	59.73
248.332	-5.8
248.549	-22.19
248.766	22.87
248.983	35.16
249.2	24.92
249.417	-5.8
249.633	18.77
249.85	31.06
250.067	49.49
250.284	-42.67
250.501	-24.23
250.717	16.73
250.934	53.59
251.151	20.82
251.368	-28.33
251.585	24.92
251.801	-5.8
252.018	-48.81
252.235	26.96
252.451	29.01
252.668	6.49
252.885	-36.52
253.102	12.63
253.318	-5.8
253.535	-83.63
253.752	-81.58
253.968	-5.8
254.185	-18.09
254.401	-34.47
254.618	-38.57
254.835	72.02
255.051	-38.57
255.268	-13.99
255.484	-54.95
255.701	-77.48
255.917	-38.57
256.134	20.82
256.351	-26.28
256.567	-93.87
256.784	-65.19
257	-5.8
257.217	29.01
257.433	-16.04
257.65	-13.99
257.866	43.35
258.082	-22.19
258.299	-22.19
258.515	4.44
258.732	14.68
258.948	2.39
259.165	31.06
259.381	33.11
259.597	2.39
259.814	-77.48
260.03	49.49
260.246	-11.95
260.463	-97.96
260.679	4.44
260.895	10.58
261.112	10.58
261.328	14.68
261.544	24.92
261.761	-32.43
261.977	10.58
262.193	37.2
262.409	-5.8
262.626	-50.86
262.842	14.68
263.058	-9.9
263.274	16.73
263.49	47.44
263.707	-20.14
263.923	-3.75
264.139	-22.19
264.355	-40.62
264.571	-20.14
264.787	45.4
265.004	-93.87
265.22	-48.81
265.436	41.3
265.652	-11.95
265.868	-3.75
266.084	-46.76
266.3	-26.28
266.516	-26.28
266.732	31.06
266.948	31.06
267.164	-9.9
267.38	-52.91
267.596	16.73
267.812	-40.62
268.028	-3.75
268.244	39.25
268.46	-7.85
268.676	39.25
268.892	14.68
269.108	39.25
269.324	33.11
269.54	-7.85
269.756	12.63
269.972	43.35
270.188	49.49
270.403	16.73
270.619	16.73
270.835	-5.8
271.051	-5.8
271.267	-52.91
271.483	104.79
271.698	-1.71
271.914	14.68
272.13	22.87
272.346	10.58
272.562	26.96
272.777	47.44
272.993	-24.23
273.209	-5.8
273.425	-13.99
273.64	-38.57
273.856	51.54
274.072	22.87
274.287	31.06
274.503	35.16
274.719	-24.23
274.934	-24.23
275.15	-22.19
275.366	-28.33
275.581	18.77
275.797	-1.71
276.012	20.82
276.228	67.92
276.444	37.2
276.659	37.2
276.875	2.39
277.09	-32.43
277.306	-26.28
277.521	-30.38
277.737	24.92
277.952	-3.75
278.168	8.53
278.383	-71.34
278.599	-54.95
278.814	-7.85
279.03	-7.85
279.245	14.68
279.461	35.16
279.676	10.58
279.892	-67.24
280.107	-20.14
280.322	-36.52
280.538	-22.19
280.753	20.82
280.969	-30.38
281.184	-24.23
281.399	16.73
281.615	-30.38
281.83	35.16
282.045	-110.25
282.26	-42.67
282.476	20.82
282.691	16.73
282.906	-30.38
283.122	86.36
283.337	-95.91
283.552	78.16
283.767	-1.71
283.983	-28.33
284.198	53.59
284.413	-9.9
284.628	-65.19
284.843	-5.8
285.058	49.49
285.274	-26.28
285.489	-26.28
285.704	31.06
285.919	61.78
286.134	-20.14
286.349	2.39
286.564	-20.14
286.779	4.44
286.995	-44.71
287.21	-32.43
287.425	31.06
287.64	20.82
287.855	67.92
288.07	14.68
288.285	8.53
288.5	18.77
288.715	-22.19
288.93	29.01
289.145	10.58
289.36	-16.04
289.575	12.63
289.79	-22.19
290.004	35.16
290.219	-7.85
290.434	26.96
290.649	-20.14
290.864	-1.71
291.079	-22.19
291.294	18.77
291.509	51.54
291.724	-16.04
291.938	-73.39
292.153	78.16
292.368	-32.43
292.583	-38.57
292.798	-44.71
293.012	53.59
293.227	-65.19
293.442	29.01
293.657	-22.19
293.871	20.82
294.086	20.82
294.301	26.96
294.516	-13.99
294.73	-30.38
294.945	-38.57
295.16	-20.14
295.374	-20.14
295.589	39.25
295.804	6.49
296.018	-42.67
296.233	18.77
296.447	-26.28
296.662	33.11
296.877	-20.14
297.091	24.92
297.306	-11.95
297.52	-13.99
297.735	-59.05
297.949	74.07
298.164	-22.19
298.378	-63.15
298.593	-63.15
298.807	-11.95
299.022	-38.57
299.236	33.11
299.451	39.25
299.665	-3.75
299.88	57.68
300.094	-110.25
300.309	16.73
300.523	37.2
300.737	45.4
300.952	-67.24
301.166	-34.47
301.381	26.96
301.595	-3.75
301.809	-16.04
302.024	18.77
302.238	-32.43
302.452	41.3
302.667	14.68
302.881	-9.9
303.095	-30.38
303.309	-3.75
303.524	18.77
303.738	-5.8
303.952	43.35
304.166	33.11
304.381	-44.71
304.595	86.36
304.809	-52.91
305.023	-18.09
305.237	-65.19
305.452	10.58
305.666	18.77
305.88	-11.95
306.094	49.49
306.308	-46.76
306.522	-20.14
306.736	-54.95
306.95	-16.04
307.164	45.4
307.379	2.39
307.593	12.63
307.807	26.96
308.021	-9.9
308.235	-24.23
308.449	41.3
308.663	82.26
308.877	-24.23
309.091	10.58
309.305	-13.99
309.519	-52.91
309.733	-13.99
309.947	-5.8
310.161	45.4
310.374	-34.47
310.588	12.63
310.802	22.87
311.016	14.68
311.23	31.06
311.444	-38.57
311.658	-16.04
311.872	-7.85
312.085	78.16
312.299	51.54
312.513	14.68
312.727	55.64
312.941	14.68
313.154	-7.85
313.368	-42.67
313.582	35.16
313.796	-20.14
314.009	0.34
314.223	18.77
314.437	14.68
314.651	-44.71
314.864	26.96
315.078	-18.09
315.292	-3.75
315.505	-42.67
315.719	10.58
315.933	35.16
316.146	57.68
316.36	20.82
316.573	-13.99
316.787	37.2
317.001	-3.75
317.214	-65.19
317.428	33.11
317.641	0.34
317.855	-13.99
318.068	24.92
318.282	6.49
318.495	-30.38
318.709	22.87
318.922	-54.95
319.136	43.35
319.349	-52.91
319.563	-3.75
319.776	2.39
319.99	41.3
320.203	41.3
320.417	14.68
320.63	2.39
320.843	-46.76
321.057	-46.76
321.27	-5.8
321.483	33.11
321.697	47.44
321.91	-16.04
322.124	-13.99
322.337	-65.19
322.55	39.25
322.763	47.44
322.977	-5.8
323.19	4.44
323.403	-52.91
323.617	18.77
323.83	-1.71
324.043	6.49
324.256	-13.99
324.469	-48.81
324.683	-81.58
324.896	-30.38
325.109	6.49
325.322	-57
325.535	20.82
325.748	20.82
325.962	4.44
326.175	0.34
326.388	49.49
326.601	-61.1
326.814	65.88
327.027	-46.76
327.24	6.49
327.453	-5.8
327.666	-48.81
327.879	16.73
328.092	59.73
328.305	22.87
328.518	33.11
328.731	-52.91
328.944	55.64
329.157	20.82
329.37	37.2
329.583	-1.71
329.796	94.55
330.009	-63.15
330.222	-7.85
330.435	2.39
330.648	18.77
330.861	-34.47
331.073	-11.95
331.286	-11.95
331.499	-46.76
331.712	-67.24
331.925	-52.91
332.138	-40.62
332.35	-36.52
332.563	6.49
332.776	37.2
332.989	-59.05
333.202	8.53
333.414	-11.95
333.627	22.87
333.84	-50.86
334.053	41.3
334.265	0.34
334.478	12.63
334.691	-46.76
334.903	22.87
335.116	-7.85
335.329	-38.57
335.541	-5.8
335.754	-75.43
335.966	20.82
336.179	18.77
336.392	6.49
336.604	4.44
336.817	12.63
337.029	-5.8
337.242	-13.99
337.454	41.3
337.667	10.58
337.88	76.12
338.092	-69.29
338.305	-9.9
338.517	20.82
338.729	0.34
338.942	-40.62
339.154	26.96
339.367	-13.99
339.579	-13.99
339.792	-30.38
340.004	-36.52
340.217	-42.67
340.429	24.92
340.641	-5.8
340.854	-22.19
341.066	-11.95
341.278	53.59
341.491	-11.95
341.703	16.73
341.915	45.4
342.128	10.58
342.34	24.92
342.552	47.44
342.764	35.16
342.977	-46.76
343.189	29.01
343.401	10.58
343.613	45.4
343.826	2.39
344.038	41.3
344.25	16.73
344.462	6.49
344.674	22.87
344.886	-46.76
345.099	10.58
345.311	24.92
345.523	-1.71
345.735	-44.71
345.947	4.44
346.159	2.39
346.371	22.87
346.583	-22.19
346.795	20.82
347.007	-24.23
347.219	-18.09
347.431	57.68
347.643	51.54
347.855	18.77
348.067	2.39
348.279	-83.63
348.491	14.68
348.703	-3.75
348.915	-3.75
349.127	12.63
349.339	10.58
349.551	51.54
349.763	-24.23
349.975	-63.15
350.187	-26.28
350.399	4.44
350.61	-28.33
350.822	4.44
351.034	16.73
351.246	-18.09
351.458	-7.85
351.669	4.44
351.881	69.97
352.093	-42.67
352.305	-22.19
352.517	2.39
352.728	-13.99
352.94	61.78
353.152	98.64
353.363	2.39
353.575	2.39
353.787	-26.28
353.999	-13.99
354.21	-24.23
354.422	-44.71
354.633	22.87
354.845	-67.24
355.057	29.01
355.268	6.49
355.48	8.53
355.692	-20.14
355.903	-7.85
356.115	-16.04
356.326	22.87
356.538	-89.77
356.749	8.53
356.961	-44.71
357.172	-38.57
357.384	24.92
357.595	-48.81
357.807	-63.15
358.018	-46.76
358.23	-3.75
358.441	35.16
358.653	12.63
358.864	-52.91
359.075	-13.99
359.287	26.96
359.498	-16.04
359.709	-3.75
359.921	-24.23
360.132	65.88
360.344	16.73
360.555	-36.52
360.766	20.82
360.977	-89.77
361.189	-5.8
361.4	-69.29
361.611	22.87
361.823	47.44
362.034	-9.9
362.245	-11.95
362.456	53.59
362.667	-36.52
362.879	-26.28
363.09	-34.47
363.301	90.45
363.512	37.2
363.723	-1.71
363.935	-44.71
364.146	-59.05
364.357	-20.14
364.568	-18.09
364.779	39.25
364.99	41.3
365.201	8.53
365.412	-57
365.623	-3.75
365.834	82.26
366.045	33.11
366.256	61.78
366.467	35.16
366.678	31.06
366.889	-30.38
367.1	-3.75
367.311	35.16
367.522	69.97
367.733	22.87
367.944	37.2
368.155	-83.63
368.366	-28.33
368.577	-52.91
368.788	67.92
368.999	31.06
369.209	6.49
369.42	18.77
369.631	-34.47
369.842	16.73
370.053	-28.33
370.264	-20.14
370.474	-5.8
370.685	14.68
370.896	-5.8
371.107	-11.95
371.317	69.97
371.528	-20.14
371.739	59.73
371.95	-3.75
372.16	10.58
372.371	26.96
372.582	18.77
372.792	12.63
373.003	-30.38
373.214	18.77
373.424	0.34
373.635	-79.53
373.846	0.34
374.056	-11.95
374.267	4.44
374.477	-18.09
374.688	86.36
374.898	-11.95
375.109	35.16
375.319	-79.53
375.53	24.92
375.74	14.68
375.951	-28.33
376.161	-28.33
376.372	63.83
376.582	20.82
376.793	20.82
377.003	10.58
377.214	-67.24
377.424	-7.85
377.635	-20.14
377.845	8.53
378.055	16.73
378.266	59.73
378.476	16.73
378.686	4.44
378.897	-3.75
379.107	115.03
379.317	-1.71
379.528	-83.63
379.738	-40.62
379.948	-36.52
380.158	14.68
380.369	10.58
380.579	-11.95
380.789	22.87
380.999	43.35
381.21	39.25
381.42	24.92
381.63	-3.75
381.84	37.2
382.05	-46.76
382.261	22.87
382.471	20.82
382.681	37.2
382.891	41.3
383.101	-40.62
383.311	0.34
383.521	-13.99
383.731	-7.85
383.941	-48.81
384.151	-71.34
384.361	29.01
384.571	-13.99
384.781	-40.62
384.991	-20.14
385.201	16.73
385.411	10.58
385.621	20.82
385.831	-32.43
386.041	41.3
386.251	49.49
386.461	104.79
386.671	22.87
386.881	-7.85
387.091	55.64
387.301	-32.43
387.511	74.07
387.72	-18.09
387.93	-46.76
388.14	-63.15
388.35	-26.28
388.56	4.44
388.769	-11.95
388.979	20.82
389.189	14.68
389.399	0.34
389.609	29.01
389.818	26.96
390.028	-20.14
390.238	-11.95
390.447	94.55
390.657	35.16
390.867	43.35
391.076	-20.14
391.286	6.49
391.496	108.88
391.705	-34.47
391.915	-42.67
392.125	49.49
392.334	45.4
392.544	26.96
392.753	-63.15
392.963	-34.47
393.172	-40.62
393.382	-24.23
393.591	55.64
393.801	35.16
394.01	-11.95
394.22	0.34
394.429	74.07
394.639	8.53
394.848	69.97
395.058	6.49
395.267	65.88
395.477	10.58
395.686	35.16
395.895	94.55
396.105	67.92
396.314	-1.71
396.524	80.21
396.733	-20.14
396.942	14.68
397.152	6.49
397.361	-3.75
397.57	24.92
397.78	10.58
397.989	-5.8
398.198	-11.95
398.407	88.4
398.617	-5.8
398.826	20.82
399.035	-1.71
399.244	-22.19
399.453	39.25
399.663	-48.81
399.872	22.87
400.081	0.34
400.29	53.59
400.499	67.92
400.708	45.4
400.917	-30.38
401.127	-26.28
401.336	69.97
401.545	108.88
401.754	-67.24
401.963	2.39
402.172	-26.28
402.381	10.58
402.59	37.2
402.799	49.49
403.008	-42.67
403.217	57.68
403.426	-5.8
403.635	63.83
403.844	-9.9
404.053	-40.62
404.262	55.64
404.471	61.78
404.68	12.63
404.888	76.12
405.097	14.68
405.306	63.83
405.515	102.74
405.724	18.77
405.933	86.36
406.142	80.21
406.35	47.44
406.559	-40.62
406.768	65.88
406.977	72.02
407.185	29.01
407.394	43.35
407.603	-40.62
407.812	47.44
408.02	94.55
408.229	45.4
408.438	67.92
408.646	84.31
408.855	69.97
409.064	88.4
409.272	86.36
409.481	92.5
409.69	63.83
409.898	26.96
410.107	86.36
410.315	18.77
410.524	65.88
410.733	88.4
410.941	12.63
411.15	145.75
411.358	153.94
411.567	153.94
411.775	201.04
411.984	94.55
412.192	51.54
412.401	78.16
412.609	96.6
412.818	149.84
413.026	178.51
413.234	141.65
413.443	84.31
413.651	160.08
413.86	162.13
414.068	295.25
414.276	160.08
414.485	160.08
414.693	135.51
414.901	215.38
415.11	196.95
415.318	184.66
415.526	235.86
415.734	258.39
415.943	174.42
416.151	250.19
416.359	207.19
416.567	258.39
416.776	264.53
416.984	264.53
417.192	207.19
417.4	305.49
417.608	289.1
417.817	305.49
418.025	313.68
418.233	348.5
418.441	379.22
418.649	356.69
418.857	346.45
419.065	282.96
419.273	375.12
419.481	356.69
419.689	368.98
419.897	502.09
420.105	436.56
420.313	446.8
420.521	508.24
420.729	487.76
420.937	493.9
421.145	454.99
421.353	487.76
421.561	563.53
421.769	569.68
421.977	545.1
422.185	522.57
422.393	608.59
422.601	614.73
422.809	661.84
423.017	616.78
423.224	706.89
423.432	682.31
423.64	821.58
423.848	764.23
424.056	729.42
424.263	811.34
424.471	872.78
424.679	903.5
424.887	860.49
425.094	821.58
425.302	934.22
425.51	983.37
425.718	981.32
425.925	993.61
426.133	969.03
426.341	1112.39
426.548	1190.21
426.756	1118.53
426.964	1165.64
427.171	1284.42
427.379	1274.18
427.586	1292.61
427.794	1222.98
428.001	1315.14
428.209	1454.4
428.417	1462.59
428.624	1440.06
428.832	1544.51
429.039	1446.21
429.247	1452.35
429.454	1628.48
429.662	1796.41
429.869	1599.8
430.076	1780.03
430.284	1800.51
430.491	1790.27
430.699	1874.23
430.906	1866.04
431.114	1835.32
431.321	2027.83
431.528	2015.54
431.736	2132.28
431.943	2251.06
432.15	2126.13
432.358	2197.81
432.565	2195.76
432.772	2402.61
432.979	2427.18
433.187	2418.99
433.394	2410.8
433.601	2591.02
433.808	2687.28
434.016	2656.56
434.223	2646.32
434.43	2937.13
434.637	2894.12
434.844	3135.78
435.052	3135.78
435.259	3082.53
435.466	3219.75
435.673	3123.49
435.88	3340.58
436.087	3404.07
436.294	3483.94
436.501	3424.55
436.708	3451.17
436.915	3574.05
437.122	3655.97
437.329	3760.41
437.537	3926.3
437.743	3926.3
437.95	3909.91
438.157	4100.37
438.364	4346.13
438.571	4196.63
438.778	4225.3
438.985	4682
439.192	4391.19
439.399	4569.36
439.606	4428.05
439.813	4692.24
440.02	5062.92
440.227	4970.76
440.433	4802.83
440.64	5032.2
440.847	5087.5
441.054	5062.92
441.261	5515.52
441.467	5474.56
441.674	5406.98
441.881	5667.07
442.088	5603.58
442.294	5687.55
442.501	5888.25
442.708	6009.08
442.914	6066.42
443.121	6512.88
443.328	6103.29
443.534	6766.83
443.741	6576.37
443.948	6437.11
444.154	6783.21
444.361	6973.67
444.568	6883.56
444.774	6873.32
444.981	7002.35
445.187	7164.14
445.394	7471.33
445.6	7438.56
445.807	8126.68
446.013	7735.52
446.22	7893.21
446.426	8192.22
446.633	8286.42
446.839	8753.36
447.046	8237.27
447.252	8796.37
447.459	8749.26
447.665	8755.41
447.871	9189.58
448.078	9545.92
448.284	9058.51
448.491	9320.65
448.697	9588.93
448.903	9654.47
449.11	9830.59
449.316	9646.27
449.522	9961.66
449.728	10229.95
449.935	10281.14
450.141	10275
450.347	10416.31
450.553	10143.93
450.76	10305.72
450.966	10619.06
451.172	10647.73
451.378	10879.15
451.584	10465.46
451.791	10913.97
451.997	10952.88
452.203	10948.78
452.409	11002.03
452.615	10793.14
452.821	10397.88
453.027	10305.72
453.233	11174.06
453.44	10709.17
453.646	10606.77
453.852	10918.06
454.058	10928.3
454.264	10432.69
454.47	10686.64
454.676	10383.54
454.882	10811.57
455.088	9875.65
455.294	10051.77
455.5	10145.98
455.705	10201.27
455.911	9840.83
456.117	9855.17
456.323	9517.25
456.529	9121.99
456.735	9375.94
456.941	9281.74
457.147	8949.96
457.352	8956.11
457.558	8820.94
457.764	8663.25
457.97	8575.19
458.176	8331.48
458.381	8145.11
458.587	7831.77
458.793	8022.23
458.999	7319.78
459.204	8050.91
459.41	7862.49
459.616	7418.08
459.821	7352.55
460.027	7446.76
460.233	7065.83
460.438	6775.02
460.644	6850.8
460.85	6516.98
461.055	6402.29
461.261	6404.34
461.466	6007.03
461.672	5732.61
461.878	6240.5
462.083	5830.91
462.289	5482.75
462.494	5681.41
462.7	5263.62
462.905	5490.95
463.111	5460.23
463.316	5333.25
463.522	5294.34
463.727	5269.76
463.932	5234.95
464.138	5316.87
464.343	5394.69
464.549	5146.89
464.754	5296.39
464.959	5249.29
465.165	5132.55
465.37	4901.13
465.575	4897.03
465.781	5183.75
465.986	4940.04
466.191	5091.59
466.397	4794.64
466.602	4686.09
466.807	4725.01
467.012	4761.87
467.218	4725.01
467.423	4565.26
467.628	4669.71
467.833	4915.47
468.038	4638.99
468.244	4534.54
468.449	4786.44
468.654	4653.33
468.859	4428.05
469.064	4718.86
469.269	4475.15
469.474	4382.99
469.679	4397.33
469.885	4475.15
470.09	4370.71
470.295	4337.94
470.5	4376.85
470.705	4491.54
470.91	4264.21
471.115	4270.36
471.32	4299.03
471.525	4131.09
471.73	4127
471.935	4053.27
472.139	3911.96
472.344	3936.54
472.549	3977.5
472.754	3985.69
472.959	3899.67
473.164	3746.08
473.369	3721.5
473.574	3827.99
473.778	4014.36
473.983	3762.46
474.188	3770.65
474.393	3475.74
474.598	3623.2
474.802	3555.62
475.007	3621.15
475.212	3612.96
475.417	3381.54
475.621	3399.97
475.826	3385.63
476.031	3244.32
476.235	3273
476.44	3438.88
476.645	3260.71
476.849	3248.42
477.054	3328.29
477.259	3238.18
477.463	3150.12
477.668	3107.11
477.872	3225.89
478.077	3105.06
478.282	3033.38
478.486	3078.44
478.691	3111.21
478.895	2949.42
479.1	2973.99
479.304	3043.62
479.509	2918.7
479.713	3023.14
479.918	2918.7
480.122	2795.82
480.326	2849.07
480.531	2924.84
480.735	2806.06
480.94	2859.31
481.144	2750.76
481.348	2849.07
481.553	2806.06
481.757	2642.22
481.961	2797.87
482.166	2926.89
482.37	2863.4
482.574	2681.13
482.778	2705.71
482.983	2738.48
483.187	2730.28
483.391	2715.95
483.595	2726.19
483.8	2806.06
484.004	2697.52
484.208	2785.58
484.412	2773.29
484.616	2660.65
484.821	2787.63
485.025	2699.56
485.229	2883.88
485.433	2687.28
485.637	2695.47
485.841	2765.1
486.045	2771.24
486.249	2746.67
486.453	2773.29
486.657	2730.28
486.861	2687.28
487.065	2816.3
487.269	2754.86
487.473	2648.36
487.677	2754.86
487.881	2865.45
488.085	2844.97
488.289	2953.51
488.493	2752.81
488.697	2746.67
488.901	2724.14
489.105	2662.7
489.309	2746.67
489.512	2853.16
489.716	2795.82
489.92	2859.31
490.124	2785.58
490.328	2820.39
490.531	2793.77
490.735	2908.46
490.939	2834.73
491.143	2918.7
491.346	2818.35
491.55	2810.15
491.754	2791.72
491.958	2885.93
492.161	2814.25
492.365	2849.07
492.569	2926.89
492.772	2847.02
492.976	2875.69
493.18	2978.09
493.383	3100.97
493.587	3041.57
493.79	2961.7
493.994	3053.86
494.197	3082.53
494.401	3137.83
494.605	3103.01
494.808	3060.01
495.012	3129.64
495.215	3189.03
495.419	3199.27
495.622	3174.69
495.825	3213.6
496.029	3270.95
496.232	3195.17
496.436	3363.11
496.639	3539.23
496.843	3367.2
497.046	3442.98
497.249	3533.09
497.453	3516.7
497.656	3510.56
497.859	3526.94
498.063	3586.33
498.266	3567.9
498.469	3582.24
498.673	3674.4
498.876	3778.84
499.079	3799.32
499.282	3672.35
499.485	3827.99
499.689	3660.06
499.892	3928.35
500.095	3877.15
500.298	3969.3
500.501	3895.58
500.705	4083.99
500.908	4028.7
501.111	4190.49
501.314	4284.69
501.517	4249.88
501.72	4258.07
501.923	4352.27
502.126	4491.54
502.329	4481.3
502.532	4372.75
502.735	4409.62
502.938	4671.76
503.141	4512.02
503.344	4749.58
503.547	4720.91
503.75	4819.21
503.953	4888.84
504.156	4827.4
504.359	4923.66
504.562	5024.01
504.765	4983.05
504.968	5193.99
505.17	5214.47
505.373	5087.5
505.576	5214.47
505.779	5304.58
505.982	5357.83
506.185	5435.65
506.387	5275.91
506.59	5484.8
506.793	5628.16
506.996	5613.82
507.198	5826.81
507.401	5765.37
507.604	5710.08
507.807	5947.64
508.009	5902.59
508.212	5970.17
508.415	5968.12
508.617	6086.9
508.82	6127.86
509.022	5974.27
509.225	6222.07
509.428	6287.61
509.63	6390
509.833	6402.29
510.035	6377.72
510.238	6531.31
510.44	6652.14
510.643	6727.92
510.845	6781.17
511.048	6711.53
511.25	6824.17
511.453	6975.72
511.655	7061.74
511.858	7131.37
512.06	7108.84
512.262	7223.53
512.465	7141.61
512.667	7317.73
512.87	7215.34
513.072	7358.69
513.274	7551.2
513.477	7694.56
513.679	7721.18
513.881	7700.7
514.084	7684.32
514.286	7899.36
514.488	7885.02
514.69	8034.52
514.893	8263.9
515.095	7934.17
515.297	8335.57
515.499	8382.68
515.701	8456.4
515.904	8544.47
516.106	8284.37
516.308	8503.51
516.51	8499.41
516.712	8603.86
516.914	8685.78
517.116	8958.16
517.318	8870.09
517.52	8841.42
517.722	9083.08
517.925	9179.34
518.127	9490.63
518.329	9275.59
518.531	9193.67
518.733	9509.06
518.935	9461.96
519.136	9545.92
519.338	9545.92
519.54	9855.17
519.742	9783.49
519.944	9875.65
520.146	9996.48
520.348	9846.98
520.55	10080.44
520.752	10158.27
520.954	10432.69
521.155	10473.65
521.357	10508.47
521.559	10438.84
521.761	10533.04
521.963	10598.58
522.164	10608.82
522.366	10803.38
522.568	10913.97
522.77	10842.29
522.971	11008.17
523.173	10784.94
523.375	11264.17
523.576	11036.84
523.778	11008.17
523.98	11266.22
524.181	11382.95
524.383	11405.48
524.584	11507.88
524.786	11329.7
524.988	11489.45
525.189	11628.71
525.391	11673.76
525.592	11794.59
525.794	11675.81
525.995	11653.28
526.197	11651.24
526.398	11593.89
526.6	11856.03
526.801	12030.11
527.003	11978.91
527.204	12095.64
527.406	11978.91
527.607	12322.97
527.808	12204.19
528.01	11995.29
528.211	12066.97
528.412	12347.54
528.614	12173.47
528.815	12449.94
529.016	12343.45
529.218	12357.78
529.419	12392.6
529.62	12339.35
529.822	12368.02
530.023	12306.59
530.224	12445.85
530.425	12347.54
530.626	12521.62
530.828	12495
531.029	12748.95
531.23	12415.13
531.431	12423.32
531.632	12478.61
531.833	12527.77
532.035	12544.15
532.236	12523.67
532.437	12636.31
532.638	12462.23
532.839	12726.42
533.04	12511.38
533.241	12363.93
533.442	12828.82
533.643	12730.52
533.844	12589.21
534.045	12683.41
534.246	12572.82
534.447	12683.41
534.648	12695.7
534.849	12810.39
535.05	12757.14
535.251	12505.24
535.451	12800.15
535.652	12824.72
535.853	12722.32
536.054	12849.3
536.255	12773.52
536.456	12488.85
536.657	12763.28
536.857	12654.74
537.058	12732.56
537.259	12720.28
537.46	12837.01
537.66	12558.49
537.861	12755.09
538.062	12621.97
538.263	12789.91
538.463	12650.64
538.664	12683.41
538.865	12757.14
539.065	12755.09
539.266	12540.05
539.466	12769.43
539.667	12607.64
539.868	12750.99
540.068	12794
540.269	12847.25
540.469	12744.85
540.67	12527.77
540.87	12517.53
541.071	12552.34
541.271	12693.65
541.472	12449.94
541.672	12621.97
541.873	12253.34
542.073	12570.77
542.274	12810.39
542.474	12503.19
542.675	12552.34
542.875	12888.21
543.075	12519.57
543.276	12544.15
543.476	12834.96
543.676	12478.61
543.877	12482.71
544.077	12693.65
544.277	12499.09
544.478	12372.12
544.678	12714.13
544.878	12478.61
545.078	12611.73
545.279	12697.75
545.479	12464.28
545.679	12578.97
545.879	12505.24
546.079	12527.77
546.28	12595.35
546.48	12603.54
546.68	12675.22
546.88	12486.81
547.08	12685.46
547.28	12462.23
547.48	12374.17
547.68	12591.25
547.88	12484.76
548.081	12544.15
548.281	12474.52
548.481	12540.05
548.681	12554.39
548.881	12370.07
549.081	12431.51
549.28	12427.42
549.48	12404.89
549.68	12454.04
549.88	12714.13
550.08	12652.69
550.28	12523.67
550.48	12396.7
550.68	12656.79
550.88	12347.54
551.08	12484.76
551.279	12621.97
551.479	12466.33
551.679	12501.14
551.879	12339.35
552.079	12337.31
552.278	12515.48
552.478	12335.26
552.678	12449.94
552.878	12564.63
553.077	12341.4
553.277	12157.08
553.477	12624.02
553.676	12193.95
553.876	12322.97
554.076	12343.45
554.275	12179.61
554.475	12103.84
554.674	12435.61
554.874	12343.45
555.074	12273.82
555.273	12540.05
555.473	12257.43
555.672	12290.2
555.872	12245.15
556.071	12439.7
556.271	12241.05
556.47	12177.56
556.67	12179.61
556.869	12200.09
557.068	12230.81
557.268	12044.45
557.467	12112.03
557.667	12103.84
557.866	12155.04
558.065	12173.47
558.265	12099.74
558.464	12152.99
558.663	12292.25
558.863	11892.9
559.062	12206.24
559.261	11896.99
559.461	12015.77
559.66	11940
559.859	12146.84
560.058	11935.9
560.258	12013.73
560.457	11851.94
560.656	12054.69
560.855	11815.07
561.054	11966.62
561.253	11802.79
561.453	11890.85
561.652	11866.27
561.851	11700.39
562.05	11808.93
562.249	11647.14
562.448	12062.88
562.647	11808.93
562.846	11794.59
563.045	11706.53
563.244	11501.73
563.443	11786.4
563.642	11606.18
563.841	11626.66
564.04	11800.74
564.239	11759.78
564.438	11540.65
564.637	11497.64
564.836	11495.59
565.035	11524.26
565.234	11673.76
565.432	11485.35
565.631	11260.07
565.83	11634.85
566.029	11581.6
566.228	11577.51
566.427	11382.95
566.625	11358.38
566.824	11329.7
567.023	11499.69
567.222	11284.65
567.42	11430.05
567.619	11169.96
567.818	11389.1
568.016	11174.06
568.215	11196.59
568.414	11174.06
568.612	11407.53
568.811	11278.51
569.01	11348.14
569.208	11192.49
569.407	11200.68
569.605	11114.67
569.804	11215.02
570.002	11149.48
570.201	10946.73
570.4	10942.64
570.598	10983.6
570.797	10909.87
570.995	10963.12
571.193	10762.42
571.392	10924.21
571.59	10932.4
571.789	10655.92
571.987	10860.72
572.186	10850.48
572.384	10649.78
572.582	10682.55
572.781	10795.18
572.979	10727.6
573.177	10522.8
573.376	10696.88
573.574	10725.55
573.772	10885.3
573.971	10643.63
574.169	10473.65
574.367	10356.92
574.565	10862.77
574.763	10528.95
574.962	10346.68
575.16	10502.33
575.358	10369.21
575.556	10107.07
575.754	10377.4
575.952	10309.82
576.151	10457.27
576.349	10238.14
576.547	10219.71
576.745	10281.14
576.943	10322.1
577.141	10356.92
577.339	10262.71
577.537	10172.6
577.735	10111.16
577.933	10070.2
578.131	10168.51
578.329	10019
578.527	10051.77
578.725	10023.1
578.923	10051.77
579.121	10055.87
579.319	9967.81
579.516	9990.33
579.714	10125.5
579.912	9967.81
580.11	9717.95
580.308	9826.5
580.506	9885.89
580.704	9734.34
580.901	9611.46
581.099	9947.33
581.297	9849.02
581.495	9728.19
581.692	9695.43
581.89	9638.08
582.088	9844.93
582.285	9562.31
582.483	9623.75
582.681	9674.95
582.878	9386.18
583.076	9384.13
583.274	9496.77
583.471	9437.38
583.669	9496.77
583.866	9414.85
584.064	9566.4
584.262	9261.26
584.459	9324.74
584.657	9332.93
584.854	9326.79
585.052	9418.95
585.249	9259.21
585.447	9425.09
585.644	9269.45
585.841	9265.35
586.039	9328.84
586.236	9105.61
586.434	9130.19
586.631	9107.66
586.828	9128.14
587.026	9216.2
587.223	8880.33
587.42	8882.38
587.618	9091.27
587.815	8779.98
588.012	8706.26
588.21	8952.01
588.407	9081.03
588.604	8859.85
588.801	8710.35
588.999	8837.33
589.196	8761.55
589.393	8802.51
589.59	8800.46
589.787	8820.94
589.984	8730.83
590.182	8587.47
590.379	8691.92
590.576	8415.44
590.773	8675.54
590.97	8554.71
591.167	8702.16
591.364	8569.04
591.561	8431.83
591.758	8667.35
591.955	8487.12
592.152	8560.85
592.349	8331.48
592.546	8431.83
592.743	8464.6
592.94	8317.14
593.137	8347.86
593.334	8204.5
593.531	8181.98
593.727	8368.34
593.924	8259.8
594.121	8208.6
594.318	8339.67
594.515	8063.19
594.712	8259.8
594.908	8055
595.105	8116.44
595.302	7817.44
595.499	8179.93
595.696	8075.48
595.892	8020.19
596.089	7975.13
596.286	7887.07
596.482	7864.54
596.679	8014.04
596.876	7893.21
597.072	7874.78
597.269	7889.12
597.466	7618.79
597.662	7856.35
597.859	7694.56
598.055	7796.96
598.252	7704.8
598.448	7901.4
598.645	7815.39
598.841	7678.18
599.038	7680.22
599.234	7739.62
599.431	7540.96
599.627	7583.97
599.824	7606.5
600.02	7545.06
600.217	7487.72
600.413	7510.24
600.609	7479.52
600.806	7448.8
601.002	7432.42
601.198	7334.12
601.395	7215.34
601.591	7504.1
601.787	7395.56
601.984	7358.69
602.18	7342.31
602.376	7164.14
602.572	7311.59
602.769	7164.14
602.965	7133.42
603.161	7217.38
603.357	7217.38
603.553	7211.24
603.75	7280.87
603.946	7164.14
604.142	7147.75
604.338	6983.91
604.534	7071.98
604.73	7022.83
604.926	6826.22
605.122	7014.63
605.318	7121.13
605.514	7041.26
605.71	6842.6
605.906	6920.43
606.102	6893.8
606.298	6916.33
606.494	6721.77
606.69	6564.08
606.886	6832.37
607.082	6693.1
607.278	6775.02
607.474	6652.14
607.67	6818.03
607.866	6639.86
608.062	6691.06
608.257	6613.23
608.453	6697.2
608.649	6713.58
608.845	6752.49
609.041	6674.67
609.236	6582.51
609.432	6844.65
609.628	6582.51
609.824	6686.96
610.019	6592.75
610.215	6566.13
610.411	6654.19
610.606	6725.87
610.802	6596.85
610.998	6650.1
611.193	6433.01
611.389	6498.55
611.584	6445.3
611.78	6504.69
611.976	6482.16
612.171	6433.01
612.367	6355.19
612.562	6574.32
612.758	6203.64
612.953	6156.54
613.149	6416.63
613.344	6433.01
613.539	6502.64
613.735	6271.22
613.93	6351.09
614.126	6275.32
614.321	6428.92
614.517	6359.28
614.712	6230.26
614.907	6398.2
615.103	6220.02
615.298	6334.71
615.493	6213.88
615.688	6189.3
615.884	6260.98
616.079	6205.69
616.274	6045.95
616.47	6285.56
616.665	6058.23
616.86	6091
617.055	6086.9
617.25	6244.6
617.445	6013.18
617.641	6011.13
617.836	6177.02
618.031	6056.18
618.226	5925.11
618.421	5982.46
618.616	6119.67
618.811	5878.01
619.006	6078.71
619.201	5734.65
619.396	5767.42
619.591	5773.57
619.786	5910.78
619.981	5933.31
620.176	5968.12
620.371	5738.75
620.566	5765.37
620.761	5863.68
620.956	6056.18
621.151	5622.02
621.346	5646.59
621.541	5691.65
621.735	5656.83
621.93	5507.33
622.125	5472.51
622.32	5597.44
622.515	5601.54
622.709	5402.88
622.904	5474.56
623.099	5400.83
623.294	5429.51
623.488	5312.77
623.683	5388.55
623.878	5357.83
624.072	5237
624.267	5208.33
624.462	5239.05
624.656	5093.64
624.851	5263.62
625.046	5013.77
625.24	5118.22
625.435	5013.77
625.629	5046.54
625.824	4983.05
626.018	4962.57
626.213	4944.14
626.407	4944.14
626.602	4833.55
626.796	4905.23
626.991	4935.95
627.185	4882.7
627.38	4796.68
627.574	4759.82
627.768	4778.25
627.963	4677.9
628.157	4727.05
628.352	4759.82
628.546	4665.61
628.74	4712.72
628.935	4765.96
629.129	4591.89
629.323	4641.04
629.517	4585.74
629.712	4569.36
629.906	4518.16
630.1	4419.86
630.294	4385.04
630.489	4485.39
630.683	4395.28
630.877	4333.84
631.071	4372.75
631.265	4571.41
631.459	4204.82
631.653	4231.44
631.848	4303.12
632.042	4229.4
632.236	4268.31
632.43	4272.4
632.624	4331.8
632.818	4196.63
633.012	4098.33
633.206	4188.44
633.4	4172.05
633.594	4122.9
633.788	4159.77
633.982	4063.51
634.176	4213.01
634.369	4053.27
634.563	3938.59
634.757	3979.54
634.951	3991.83
635.145	3883.29
635.339	3928.35
635.533	3977.5
635.726	3868.95
635.92	3852.57
636.114	3797.28
636.308	3889.43
636.501	3883.29
636.695	3760.41
636.889	3813.66
637.083	3842.33
637.276	3694.88
637.47	3729.69
637.664	3592.48
637.857	3664.16
638.051	3670.3
638.244	3610.91
638.438	3600.67
638.632	3610.91
638.825	3561.76
639.019	3637.53
639.212	3522.85
639.406	3434.78
639.599	3537.18
639.793	3533.09
639.986	3457.31
640.18	3346.72
640.373	3430.69
640.567	3356.96
640.76	3330.34
640.954	3430.69
641.147	3383.59
641.34	3207.46
641.534	3352.87
641.727	3281.19
641.92	3197.22
642.114	3356.96
642.307	3350.82
642.5	3156.26
642.694	3209.51
642.887	3236.13
643.08	3264.8
643.273	3221.8
643.467	3084.58
643.66	3180.84
643.853	3248.42
644.046	3115.3
644.239	3195.17
644.432	3186.98
644.626	3045.67
644.819	3131.69
645.012	3002.66
645.205	3076.39
645.398	3002.66
645.591	2926.89
645.784	2912.55
645.977	2947.37
646.17	2908.46
646.363	2955.56
646.556	2822.44
646.749	2793.77
646.942	2818.35
647.135	2869.55
647.328	2922.79
647.521	2808.11
647.714	2791.72
647.907	2730.28
648.099	2763.05
648.292	2832.68
648.485	2726.19
648.678	2664.75
648.871	2715.95
649.064	2644.27
649.256	2777.39
649.449	2664.75
649.642	2560.3
649.835	2691.37
650.027	2607.41
650.22	2623.79
650.413	2668.84
650.605	2718
650.798	2670.89
650.991	2545.97
651.183	2435.38
651.376	2523.44
651.568	2566.45
651.761	2554.16
651.954	2515.25
652.146	2627.89
652.339	2529.58
652.531	2470.19
652.724	2365.75
652.916	2402.61
653.109	2337.07
653.301	2443.57
653.494	2457.9
653.686	2439.47
653.879	2285.87
654.071	2404.66
654.263	2279.73
654.456	2462
654.648	2373.94
654.84	2394.42
655.033	2308.4
655.225	2197.81
655.417	2306.35
655.61	2265.39
655.802	2312.5
655.994	2316.59
656.186	2197.81
656.379	2236.72
656.571	2150.71
656.763	2093.37
656.955	2148.66
657.148	2230.58
657.34	2122.04
657.532	2124.08
657.724	2091.32
657.916	2128.18
658.108	2068.79
658.3	2191.67
658.492	2148.66
658.684	2021.69
658.876	2033.97
659.068	2165.04
659.26	1952.06
659.452	2064.69
659.644	2074.93
659.836	2099.51
660.028	2011.45
660.22	1943.86
660.412	1993.01
660.604	1954.1
660.796	1972.54
660.988	1972.54
661.18	2011.45
661.372	1827.13
661.563	1843.51
661.755	1890.62
661.947	1872.18
662.139	1872.18
662.331	1872.18
662.522	1941.82
662.714	1849.66
662.906	1837.37
663.097	1841.47
663.289	1763.64
663.481	1806.65
663.673	1820.99
663.864	1816.89
664.056	1845.56
664.247	1810.75
664.439	1741.11
664.631	1782.07
664.822	1765.69
665.014	1737.02
665.205	1720.64
665.397	1698.11
665.588	1669.44
665.78	1661.24
665.971	1640.76
666.163	1730.87
666.354	1720.64
666.546	1714.49
666.737	1655.1
666.929	1659.2
667.12	1642.81
667.311	1636.67
667.503	1610.04
667.694	1628.48
667.885	1648.96
668.077	1616.19
668.268	1552.7
668.459	1620.28
668.651	1591.61
668.842	1610.04
669.033	1556.8
669.224	1558.85
669.416	1569.09
669.607	1683.77
669.798	1554.75
669.989	1562.94
670.18	1470.78
670.371	1458.5
670.563	1558.85
670.754	1528.13
670.945	1558.85
671.136	1585.47
671.327	1575.23
671.518	1552.7
671.709	1511.74
671.9	1524.03
672.091	1419.58
672.282	1521.98
672.473	1460.54
672.664	1509.69
672.855	1491.26
673.046	1489.21
673.237	1409.34
673.428	1370.43
673.619	1462.59
673.809	1448.26
674	1419.58
674.191	1419.58
674.382	1356.1
674.573	1395.01
674.764	1360.19
674.954	1341.76
675.145	1423.68
675.336	1438.02
675.527	1292.61
675.717	1337.66
675.908	1349.95
676.099	1347.9
676.289	1425.73
676.48	1292.61
676.671	1380.67
676.861	1395.01
677.052	1288.51
677.243	1276.23
677.433	1397.06
677.624	1272.13
677.814	1321.28
678.005	1306.95
678.195	1364.29
678.386	1302.85
678.576	1339.71
678.767	1280.32
678.957	1292.61
679.148	1294.66
679.338	1347.9
679.529	1311.04
679.719	1278.27
679.909	1231.17
680.1	1255.75
680.29	1247.55
680.481	1165.64
680.671	1319.23
680.861	1286.47
681.052	1239.36
681.242	1194.31
681.432	1247.55
681.622	1249.6
681.813	1380.67
682.003	1222.98
682.193	1247.55
682.383	1233.22
682.573	1251.65
682.764	1194.31
682.954	1182.02
683.144	1302.85
683.334	1225.03
683.524	1286.47
683.714	1241.41
683.904	1259.84
684.094	1208.64
684.284	1268.03
684.474	1265.99
684.664	1237.31
684.854	1194.31
685.044	1272.13
685.234	1173.83
685.424	1184.07
685.614	1214.79
685.804	1249.6
685.994	1175.88
686.184	1102.15
686.374	1222.98
686.564	1192.26
686.753	1159.49
686.943	1073.48
687.133	1171.78
687.323	1149.25
687.513	1175.88
687.702	1157.44
687.892	1122.63
688.082	1143.11
688.272	1229.12
688.461	1161.54
688.651	1225.03
688.841	1143.11
689.03	1177.92
689.22	1096
689.41	1112.39
689.599	1061.19
689.789	1143.11
689.979	1059.14
690.168	1141.06
690.358	1036.61
690.547	1087.81
690.737	1241.41
690.926	1114.44
691.116	1073.48
691.305	1124.68
691.495	1089.86
691.684	1055.05
691.874	1009.99
692.063	1050.95
692.252	1016.13
692.442	1087.81
692.631	1063.24
692.82	1063.24
693.01	1114.44
693.199	1034.57
693.388	1034.57
693.578	966.98
693.767	1081.67
693.956	1063.24
694.146	1065.29
694.335	1055.05
694.524	1028.42
694.713	919.88
694.902	1032.52
695.092	1036.61
695.281	1007.94
695.47	991.56
695.659	948.55
695.848	966.98
696.037	975.17
696.226	1124.68
696.415	1018.18
696.604	983.37
696.793	909.64
696.982	1007.94
697.171	983.37
697.36	969.03
697.549	981.32
697.738	852.3
697.927	919.88
698.116	938.31
698.305	973.13
698.494	911.69
698.683	960.84
698.872	934.22
699.061	1003.85
699.25	801.1
699.438	917.83
699.627	1009.99
699.816	962.89
700.005	868.68
700.193	905.54
700.382	966.98
700.571	1009.99
700.76	860.49
700.948	887.11
701.137	889.16
701.326	940.36
701.514	862.54
701.703	917.83
701.892	880.97
702.08	969.03
702.269	866.63
702.457	891.21
702.646	987.46
702.834	860.49
703.023	915.78
703.212	883.02
703.4	917.83
703.589	899.4
703.777	940.36
703.965	948.55
704.154	905.54
704.342	878.92
704.531	930.12
704.719	862.54
704.907	930.12
705.096	964.93
705.284	876.87
705.472	901.45
705.661	919.88
705.849	833.86
706.037	872.78
706.226	860.49
706.414	823.62
706.602	831.82
706.79	903.5
706.979	870.73
707.167	946.5
707.355	893.26
707.543	889.16
707.731	907.59
707.919	934.22
708.107	770.38
708.296	932.17
708.484	919.88
708.672	813.38
708.86	946.5
709.048	792.91
709.236	917.83
709.424	850.25
709.612	844.1
709.8	758.09
709.988	751.95
710.176	891.21
710.364	809.29
710.551	856.39
710.739	823.62
710.927	885.06
711.115	880.97
711.303	835.91
711.491	835.91
711.679	909.64
711.866	860.49
712.054	872.78
712.242	809.29
712.43	825.67
712.617	880.97
712.805	842.06
712.993	854.34
713.181	858.44
713.368	864.58
713.556	852.3
713.744	938.31
713.931	745.8
714.119	837.96
714.306	948.55
714.494	829.77
714.682	844.1
714.869	891.21
715.057	797
715.244	913.74
715.432	856.39
715.619	856.39
715.807	880.97
715.994	831.82
716.182	751.95
716.369	792.91
716.556	821.58
716.744	813.38
716.931	788.81
717.119	930.12
717.306	801.1
717.493	848.2
717.681	792.91
717.868	852.3
718.055	891.21
718.242	743.75
718.43	827.72
718.617	878.92
718.804	831.82
718.991	964.93
719.179	862.54
719.366	872.78
719.553	846.15
719.74	956.74
719.927	805.19
720.114	842.06
720.301	864.58
720.488	813.38
720.676	786.76
720.863	866.63
721.05	850.25
721.237	782.67
721.424	840.01
721.611	862.54
721.798	797
721.985	825.67
722.172	858.44
722.358	799.05
722.545	874.82
722.732	870.73
722.919	788.81
723.106	821.58
723.293	883.02
723.48	866.63
723.667	756.04
723.853	880.97
724.04	809.29
724.227	854.34
724.414	889.16
724.6	823.62
724.787	799.05
724.974	866.63
725.161	850.25
725.347	815.43
725.534	913.74
725.72	862.54
725.907	891.21
726.094	790.86
726.28	852.3
726.467	827.72
726.653	876.87
726.84	891.21
727.027	797
727.213	819.53
727.4	803.15
727.586	844.1
727.773	870.73
727.959	876.87
728.145	950.6
728.332	860.49
728.518	829.77
728.705	842.06
728.891	827.72
729.077	921.93
729.264	889.16
729.45	891.21
729.636	899.4
729.823	876.87
730.009	895.3
730.195	944.45
730.382	874.82
730.568	911.69
730.754	827.72
730.94	860.49
731.126	942.41
731.313	928.07
731.499	874.82
731.685	866.63
731.871	887.11
732.057	938.31
732.243	913.74
732.429	948.55
732.615	870.73
732.801	809.29
732.987	952.65
733.173	905.54
733.359	921.93
733.545	893.26
733.731	876.87
733.917	958.79
734.103	895.3
734.289	813.38
734.475	885.06
734.661	850.25
734.847	905.54
735.033	919.88
735.219	805.19
735.404	899.4
735.59	801.1
735.776	901.45
735.962	921.93
736.148	823.62
736.333	942.41
736.519	887.11
736.705	874.82
736.89	915.78
737.076	893.26
737.262	885.06
737.447	979.27
737.633	850.25
737.819	735.56
738.004	905.54
738.19	893.26
738.375	926.02
738.561	850.25
738.747	893.26
738.932	805.19
739.118	842.06
739.303	844.1
739.489	864.58
739.674	964.93
739.859	930.12
740.045	850.25
740.23	840.01
740.416	809.29
740.601	897.35
740.786	923.98
740.972	868.68
741.157	887.11
741.342	848.2
741.528	878.92
741.713	852.3
741.898	876.87
742.084	911.69
742.269	788.81
742.454	756.04
742.639	923.98
742.824	782.67
743.01	880.97
743.195	858.44
743.38	950.6
743.565	829.77
743.75	770.38
743.935	817.48
744.12	866.63
744.305	823.62
744.49	823.62
744.675	774.47
744.86	827.72
745.045	862.54
745.23	770.38
745.415	807.24
745.6	792.91
745.785	774.47
745.97	807.24
746.155	774.47
746.34	760.14
746.525	776.52
746.71	850.25
746.895	819.53
747.079	760.14
747.264	749.9
747.449	799.05
747.634	747.85
747.819	717.13
748.003	782.67
748.188	737.61
748.373	805.19
748.557	807.24
748.742	780.62
748.927	735.56
749.111	792.91
749.296	725.32
749.481	760.14
749.665	751.95
749.85	737.61
750.034	794.95
750.219	700.75
750.404	612.68
750.588	663.88
750.773	610.64
750.957	741.71
751.141	661.84
751.326	702.79
751.51	788.81
751.695	694.6
751.879	733.51
752.064	721.23
752.248	661.84
752.432	665.93
752.617	670.03
752.801	741.71
752.985	698.7
753.17	758.09
753.354	624.97
753.538	667.98
753.722	641.36
753.907	635.21
754.091	647.5
754.275	653.64
754.459	631.12
754.643	596.3
754.828	594.25
755.012	608.59
755.196	559.44
755.38	612.68
755.564	588.11
755.748	606.54
755.932	590.16
756.116	590.16
756.3	557.39
756.484	577.87
756.668	600.4
756.852	567.63
757.036	612.68
757.22	608.59
757.404	592.2
757.588	567.63
757.772	612.68
757.956	561.48
758.14	598.35
758.323	590.16
758.507	549.2
758.691	610.64
758.875	575.82
759.059	555.34
759.242	547.15
759.426	545.1
759.61	518.48
759.794	502.09
759.977	526.67
760.161	500.05
760.345	536.91
760.528	526.67
760.712	538.96
760.895	536.91
761.079	424.27
761.263	471.37
761.446	571.72
761.63	551.24
761.813	485.71
761.997	493.9
762.18	457.04
762.364	559.44
762.547	440.65
762.731	534.86
762.914	438.61
763.098	463.18
763.281	551.24
763.464	506.19
763.648	500.05
763.831	469.33
764.015	510.29
764.198	463.18
764.381	479.57
764.564	477.52
764.748	467.28
764.931	418.13
765.114	403.79
765.297	502.09
765.481	481.61
765.664	416.08
765.847	457.04
766.03	475.47
766.213	428.37
766.397	483.66
766.58	428.37
766.763	481.61
766.946	430.41
767.129	360.78
767.312	354.64
767.495	407.89
767.678	479.57
767.861	348.5
768.044	397.65
768.227	510.29
768.41	438.61
768.593	436.56
768.776	399.7
768.959	364.88
769.142	381.26
769.324	428.37
769.507	438.61
769.69	471.37
769.873	387.41
770.056	448.85
770.239	454.99
770.421	348.5
770.604	409.94
770.787	332.11
770.97	452.94
771.152	287.06
771.335	383.31
771.518	424.27
771.7	377.17
771.883	346.45
772.066	317.78
772.248	457.04
772.431	420.17
772.613	358.74
772.796	291.15
772.978	356.69
773.161	446.8
773.343	358.74
773.526	368.98
773.708	356.69
773.891	340.3
774.073	346.45
774.256	321.87
774.438	299.34
774.621	352.59
774.803	381.26
774.985	407.89
775.168	377.17
775.35	338.26
775.532	356.69
775.715	246.1
775.897	330.06
776.079	301.39
776.261	307.54
776.444	444.75
776.626	336.21
776.808	352.59
776.99	221.52
777.173	268.63
777.355	264.53
777.537	266.58
777.719	282.96
777.901	321.87
778.083	315.73
778.265	338.26
778.447	362.83
778.629	258.39
778.811	276.82
778.993	328.02
779.175	319.82
779.357	209.23
779.539	258.39
779.721	242
779.903	258.39
780.085	239.95
780.267	297.3
780.449	291.15
780.631	205.14
780.812	282.96
780.994	186.71
781.176	217.43
781.358	270.67
781.54	221.52
781.721	258.39
781.903	205.14
782.085	258.39
782.267	227.67
782.448	244.05
782.63	266.58
782.812	198.99
782.993	276.82
783.175	233.81
783.357	235.86
783.538	186.71
783.72	164.18
783.901	315.73
784.083	282.96
784.264	256.34
784.446	244.05
784.627	252.24
784.809	151.89
784.99	184.66
785.172	184.66
785.353	215.38
785.535	205.14
785.716	186.71
785.897	194.9
786.079	188.75
786.26	178.51
786.441	184.66
786.623	149.84
786.804	184.66
786.985	239.95
787.167	219.47
787.348	137.56
787.529	162.13
787.71	239.95
787.891	209.23
788.073	160.08
788.254	203.09
788.435	227.67
788.616	244.05
788.797	213.33
788.978	168.27
789.159	168.27
789.34	201.04
789.522	198.99
789.703	182.61
789.884	149.84
790.065	178.51
790.246	151.89
790.427	258.39
790.607	217.43
790.788	131.41
790.969	127.32
791.15	84.31
791.331	182.61
791.512	174.42
791.693	106.84
791.874	117.08
792.054	190.8
792.235	151.89
792.416	166.23
792.597	170.32
792.778	147.8
792.958	176.47
793.139	125.27
793.32	147.8
793.5	166.23
793.681	135.51
793.862	180.56
794.042	80.21
794.223	147.8
794.404	112.98
794.584	86.36
794.765	90.45
794.945	176.47
795.126	141.65
795.306	145.75
795.487	84.31
795.667	137.56
795.848	153.94
796.028	196.95
796.209	94.55
796.389	145.75
796.57	153.94
796.75	131.41
796.93	104.79
797.111	92.5
797.291	198.99
797.471	121.17
797.652	184.66
797.832	102.74
798.012	174.42
798.192	133.46
798.373	145.75
798.553	108.88
798.733	149.84
798.913	100.69
799.093	155.99
799.274	155.99
799.454	76.12
799.634	31.06
799.814	53.59
799.994	123.22
800.174	94.55
800.354	47.44
800.534	135.51
800.714	104.79
800.894	84.31
801.074	108.88
801.254	108.88
801.434	84.31
801.614	69.97
801.794	108.88
801.974	340.3
802.154	76.12
802.334	33.11
802.514	39.25
802.693	59.73
802.873	166.23
803.053	127.32
803.233	96.6
803.413	41.3
803.592	65.88
803.772	61.78
803.952	72.02
804.131	104.79
804.311	155.99
804.491	88.4
804.67	104.79
804.85	69.97
805.03	78.16
805.209	63.83
805.389	119.12
805.568	72.02
805.748	51.54
805.928	84.31
806.107	65.88
806.287	143.7
806.466	33.11
806.646	39.25
806.825	63.83
807.004	39.25
807.184	37.2
807.363	26.96
807.543	67.92
807.722	74.07
807.901	92.5
808.081	88.4
808.26	-1.71
808.439	94.55
808.619	139.6
808.798	86.36
808.977	49.49
809.156	100.69
809.336	22.87
809.515	96.6
809.694	90.45
809.873	41.3
810.052	74.07
810.231	115.03
810.411	29.01
810.59	51.54
810.769	-1.71
810.948	43.35
811.127	102.74
811.306	102.74
811.485	86.36
811.664	61.78
811.843	86.36
812.022	80.21
812.201	67.92
812.38	18.77
812.559	96.6
812.737	72.02
812.916	8.53
813.095	80.21
813.274	41.3
813.453	-22.19
813.632	39.25
813.811	4.44
813.989	35.16
814.168	65.88
814.347	67.92
814.526	82.26
814.704	110.93
814.883	74.07
815.062	31.06
815.24	61.78
815.419	135.51
815.598	84.31
815.776	63.83
815.955	37.2
816.133	47.44
816.312	84.31
816.49	65.88
816.669	149.84
816.847	37.2
817.026	131.41
817.204	26.96
817.383	53.59
817.561	49.49
817.74	139.6
817.918	80.21
818.097	117.08
818.275	-32.43
818.453	0.34
818.632	59.73
818.81	33.11
818.988	12.63
819.167	-24.23
819.345	39.25
819.523	47.44
819.701	16.73
819.879	45.4
820.058	45.4
820.236	110.93
820.414	18.77
820.592	72.02
820.77	35.16
820.948	10.58
821.127	49.49
821.305	53.59
821.483	78.16
821.661	-5.8
821.839	65.88
822.017	6.49
822.195	-9.9
822.373	53.59
822.551	20.82
822.729	110.93
822.907	57.68
823.085	51.54
823.262	37.2
823.44	115.03
823.618	-20.14
823.796	-24.23
823.974	8.53
824.152	59.73
824.329	37.2
824.507	12.63
824.685	-26.28
824.863	59.73
825.04	-22.19
825.218	72.02
825.396	53.59
825.574	14.68
825.751	-20.14
825.929	59.73
826.107	90.45
826.284	53.59
826.462	-7.85
826.639	78.16
826.817	41.3
826.994	8.53
827.172	10.58
827.349	90.45
827.527	16.73
827.704	10.58
827.882	47.44
828.059	53.59
828.237	35.16
828.414	14.68
828.591	-54.95
828.769	22.87
828.946	18.77
829.124	-9.9
829.301	69.97
829.478	4.44
829.655	102.74
829.833	18.77
830.01	-9.9
830.187	43.35
830.364	51.54
830.542	18.77
830.719	102.74
830.896	4.44
831.073	18.77
831.25	0.34
831.427	33.11
831.604	49.49
831.782	20.82
831.959	82.26
832.136	108.88
832.313	51.54
832.49	67.92
832.667	76.12
832.844	76.12
833.021	18.77
833.198	-28.33
833.374	39.25
833.551	45.4
833.728	18.77
833.905	-3.75
834.082	-44.71
834.259	43.35
834.436	24.92
834.612	10.58
834.789	10.58
834.966	69.97
835.143	-3.75
835.319	16.73
835.496	-9.9
835.673	2.39
835.85	4.44
836.026	63.83
836.203	88.4
836.38	61.78
836.556	49.49
836.733	10.58
836.909	39.25
837.086	4.44
837.262	-30.38
837.439	53.59
837.616	33.11
837.792	-9.9
837.968	-3.75
838.145	6.49
838.321	-16.04
838.498	72.02
838.674	86.36
838.851	-26.28
839.027	20.82
839.203	-38.57
839.38	31.06
839.556	-20.14
839.732	-46.76
839.909	-7.85
840.085	-54.95
840.261	20.82
840.437	43.35
840.614	59.73
840.79	-5.8
840.966	-1.71
841.142	26.96
841.318	-13.99
841.494	8.53
841.671	-1.71
841.847	14.68
842.023	51.54
842.199	41.3
842.375	69.97
842.551	2.39
842.727	8.53
842.903	4.44
843.079	-7.85
843.255	29.01
843.431	-26.28
843.607	-5.8
843.783	51.54
843.959	18.77
844.134	-11.95
844.31	29.01
844.486	24.92
844.662	45.4
844.838	16.73
845.013	8.53
845.189	63.83
845.365	-22.19
845.541	22.87
845.716	31.06
845.892	10.58
846.068	-3.75
846.244	41.3
846.419	-22.19
846.595	-1.71
846.77	-46.76
846.946	-18.09
847.122	108.88
847.297	-67.24
847.473	51.54
847.648	-16.04
847.824	-1.71
847.999	-40.62
848.175	37.2
848.35	29.01
848.526	-32.43
848.701	92.5
848.876	-50.86
849.052	0.34
849.227	14.68
849.403	49.49
849.578	29.01
849.753	-38.57
849.929	-7.85
850.104	-13.99
850.279	14.68
850.454	-24.23
850.63	67.92
850.805	0.34
850.98	18.77
851.155	80.21
851.33	-7.85
851.505	8.53
851.681	59.73
851.856	-20.14
852.031	0.34
852.206	2.39
852.381	-7.85
852.556	20.82
852.731	55.64
852.906	-22.19
853.081	-24.23
853.256	10.58
853.431	18.77
853.606	-11.95
853.781	31.06
853.956	-5.8
854.131	20.82
854.305	26.96
854.48	-48.81
854.655	-28.33
854.83	-40.62
855.005	-11.95
855.18	-13.99
855.354	-44.71
855.529	-16.04
855.704	67.92
855.879	24.92
856.053	0.34
856.228	-3.75
856.403	14.68
856.577	29.01
856.752	-46.76
856.926	18.77
857.101	-7.85
857.276	31.06
857.45	26.96
857.625	-11.95
857.799	-52.91
857.974	-52.91
858.148	-3.75
858.323	61.78
858.497	31.06
858.672	-24.23
858.846	-18.09
859.02	49.49
859.195	8.53
859.369	65.88
859.543	-3.75
859.718	37.2
859.892	-79.53
860.066	-50.86
860.241	16.73
860.415	-5.8
860.589	-28.33
860.763	14.68
860.938	-57
861.112	4.44
861.286	-81.58
861.46	51.54
861.634	-24.23
861.808	-28.33
861.982	20.82
862.157	-1.71
862.331	18.77
862.505	-16.04
862.679	-52.91
862.853	72.02
863.027	-30.38
863.201	63.83
863.375	2.39
863.549	-18.09
863.722	0.34
863.896	65.88
864.07	43.35
864.244	-36.52
864.418	35.16
864.592	49.49
864.766	-34.47
864.939	20.82
865.113	10.58
865.287	106.84
865.461	29.01
865.634	14.68
865.808	53.59
865.982	10.58
866.156	-46.76
866.329	39.25
866.503	-20.14
866.676	69.97
866.85	-32.43
867.024	-69.29
867.197	-22.19
867.371	22.87
867.544	18.77
867.718	29.01
867.891	-30.38
868.065	59.73
868.238	26.96
868.412	90.45
868.585	-13.99
868.759	43.35
868.932	-13.99
869.105	-13.99
869.279	8.53
869.452	22.87
869.625	-20.14
869.799	-71.34
869.972	-36.52
870.145	-11.95
870.319	39.25
870.492	-26.28
870.665	12.63
870.838	-26.28
871.011	-28.33
871.185	115.03
871.358	24.92
871.531	-3.75
871.704	12.63
871.877	-22.19
872.05	-71.34
872.223	-30.38
872.396	-3.75
872.569	20.82
872.742	-63.15
872.915	-3.75
873.088	-9.9
873.261	2.39
873.434	-3.75
873.607	-13.99
873.78	-32.43
873.953	-5.8
874.126	24.92
874.299	51.54
874.471	16.73
874.644	-5.8
874.817	2.39
874.99	18.77
875.163	22.87
875.335	-50.86
875.508	-13.99
875.681	2.39
875.853	-65.19
876.026	-1.71
876.199	-26.28
876.371	45.4
876.544	-3.75
876.717	18.77
876.889	-102.06
877.062	37.2
877.234	-24.23
877.407	6.49
877.579	-7.85
877.752	4.44
877.924	-18.09
878.097	10.58
878.269	-65.19
878.442	35.16
878.614	-73.39
878.786	-5.8
878.959	12.63
879.131	110.93
879.303	26.96
879.476	-36.52
879.648	35.16
879.82	16.73
879.993	31.06
880.165	-42.67
880.337	31.06
880.509	-9.9
880.681	-7.85
880.854	-3.75
881.026	10.58
881.198	12.63
881.37	49.49
881.542	8.53
881.714	-52.91
881.886	43.35
882.058	-16.04
882.23	-1.71
882.402	-1.71
882.574	-7.85
882.746	-7.85
882.918	4.44
883.09	-65.19
883.262	4.44
883.434	-28.33
883.606	45.4
883.778	22.87
883.95	47.44
884.122	-32.43
884.293	2.39
884.465	-11.95
884.637	4.44
884.809	10.58
884.98	37.2
885.152	18.77
885.324	2.39
885.496	12.63
885.667	8.53
885.839	-1.71
886.011	-38.57
886.182	6.49
886.354	137.56
886.525	20.82
886.697	-69.29
886.869	26.96
887.04	-20.14
887.212	33.11
887.383	-5.8
887.555	-28.33
887.726	-13.99
887.897	-9.9
888.069	-3.75
888.24	-44.71
888.412	-61.1
888.583	41.3
888.754	-61.1
888.926	-18.09
889.097	20.82
889.268	-83.63
889.44	33.11
889.611	-26.28
889.782	0.34
889.953	-44.71
890.125	-34.47
890.296	-11.95
890.467	29.01
890.638	-28.33
890.809	-5.8
890.98	39.25
891.151	43.35
891.323	59.73
891.494	-20.14
891.665	14.68
891.836	-22.19
892.007	82.26
892.178	-52.91
892.349	-26.28
892.52	-3.75
892.691	31.06
892.862	4.44
893.032	-13.99
893.203	69.97
893.374	-5.8
893.545	39.25
893.716	47.44
893.887	55.64
894.057	31.06
894.228	-18.09
894.399	18.77
894.57	-20.14
894.74	43.35
894.911	-1.71
895.082	24.92
895.253	12.63
895.423	22.87
895.594	0.34
895.764	-20.14
895.935	-38.57
896.106	-16.04
896.276	6.49
896.447	-9.9
896.617	-28.33
896.788	29.01
896.958	-5.8
897.129	6.49
897.299	-18.09
897.47	55.64
897.64	76.12
897.81	-30.38
897.981	-1.71
898.151	14.68
898.322	-22.19
898.492	33.11
898.662	-13.99
898.832	-18.09
899.003	2.39
899.173	-9.9
899.343	-1.71
899.513	-11.95
