Data from USB4F104151__55__12-54-01-033.txt Node

Date: Fri Mar 14 12:54:01 EDT 2025
User: louis
Spectrometer: USB4F10415
Trigger mode: 4
Integration Time (sec): 1.000000E-2
Scans to average: 1
Electric dark correction enabled: true
Nonlinearity correction enabled: false
Boxcar width: 0
XAxis mode: Wavelengths
Number of Pixels in Spectrum: 3648
>>>>>Begin Spectral Data<<<<<
178.204	-78.68
178.424	-78.68
178.644	-78.68
178.864	54.44
179.084	-4.95
179.304	-23.38
179.524	-29.52
179.744	36.01
179.964	7.34
180.184	23.72
180.404	7.34
180.624	3.24
180.844	-45.91
181.064	-58.2
181.283	-41.81
181.503	54.44
181.723	66.73
181.943	-0.85
182.163	68.78
182.383	-27.48
182.602	101.55
182.822	42.15
183.042	46.25
183.262	11.43
183.482	-50
183.701	50.35
183.921	52.39
184.141	-7
184.361	17.58
184.58	17.58
184.8	72.87
185.02	29.87
185.239	31.91
185.459	89.26
185.679	23.72
185.898	-9.05
186.118	-2.9
186.338	1.19
186.557	-13.14
186.777	-9.05
186.997	15.53
187.216	3.24
187.436	1.19
187.655	33.96
187.875	72.87
188.095	60.59
188.314	40.11
188.534	-0.85
188.753	1.19
188.973	66.73
189.192	103.59
189.412	95.4
189.631	33.96
189.851	33.96
190.07	-37.72
190.29	52.39
190.509	50.35
190.729	56.49
190.948	56.49
191.168	42.15
191.387	60.59
191.607	-21.33
191.826	33.96
192.045	83.11
192.265	42.15
192.484	27.82
192.704	27.82
192.923	-11.09
193.142	50.35
193.362	56.49
193.581	27.82
193.8	17.58
194.02	-25.43
194.239	58.54
194.458	1.19
194.678	44.2
194.897	64.68
195.116	11.43
195.335	21.67
195.555	111.78
195.774	56.49
195.993	42.15
196.212	21.67
196.432	-21.33
196.651	27.82
196.87	72.87
197.089	38.06
197.308	-33.62
197.528	52.39
197.747	-45.91
197.966	21.67
198.185	72.87
198.404	-31.57
198.623	74.92
198.842	70.83
199.062	15.53
199.281	-0.85
199.5	-37.72
199.719	62.63
199.938	72.87
200.157	36.01
200.376	-25.43
200.595	66.73
200.814	7.34
201.033	36.01
201.252	42.15
201.471	5.29
201.69	7.34
201.909	81.07
202.128	7.34
202.347	79.02
202.566	72.87
202.785	23.72
203.004	23.72
203.223	40.11
203.442	3.24
203.661	38.06
203.879	27.82
204.098	15.53
204.317	-25.43
204.536	-23.38
204.755	-19.29
204.974	5.29
205.193	-29.52
205.411	72.87
205.63	-2.9
205.849	42.15
206.068	9.39
206.287	29.87
206.505	31.91
206.724	1.19
206.943	21.67
207.162	21.67
207.381	68.78
207.599	9.39
207.818	23.72
208.037	21.67
208.255	33.96
208.474	-15.19
208.693	-2.9
208.911	9.39
209.13	40.11
209.349	76.97
209.567	31.91
209.786	72.87
210.005	-9.05
210.223	-0.85
210.442	50.35
210.661	48.3
210.879	93.35
211.098	52.39
211.316	40.11
211.535	21.67
211.753	44.2
211.972	60.59
212.191	81.07
212.409	91.31
212.628	89.26
212.846	50.35
213.065	91.31
213.283	58.54
213.502	56.49
213.72	52.39
213.938	-15.19
214.157	-7
214.375	38.06
214.594	42.15
214.812	46.25
215.031	74.92
215.249	44.2
215.467	40.11
215.686	79.02
215.904	132.26
216.122	74.92
216.341	-45.91
216.559	-2.9
216.778	60.59
216.996	15.53
217.214	23.72
217.432	81.07
217.651	33.96
217.869	85.16
218.087	36.01
218.306	-15.19
218.524	-21.33
218.742	113.83
218.96	-11.09
219.179	42.15
219.397	23.72
219.615	-2.9
219.833	-47.96
220.051	-27.48
220.27	-27.48
220.488	23.72
220.706	23.72
220.924	40.11
221.142	1.19
221.36	70.83
221.578	83.11
221.796	5.29
222.015	25.77
222.233	-11.09
222.451	66.73
222.669	1.19
222.887	29.87
223.105	79.02
223.323	-50
223.541	-15.19
223.759	-9.05
223.977	21.67
224.195	7.34
224.413	109.74
224.631	44.2
224.849	64.68
225.067	21.67
225.285	17.58
225.503	36.01
225.721	5.29
225.939	15.53
226.157	38.06
226.375	103.59
226.592	81.07
226.81	23.72
227.028	-4.95
227.246	91.31
227.464	50.35
227.682	-0.85
227.9	36.01
228.117	-47.96
228.335	99.5
228.553	50.35
228.771	-7
228.989	56.49
229.206	99.5
229.424	-15.19
229.642	36.01
229.86	-7
230.077	130.22
230.295	58.54
230.513	38.06
230.731	99.5
230.948	64.68
231.166	101.55
231.384	23.72
231.601	-9.05
231.819	79.02
232.037	95.4
232.254	93.35
232.472	13.48
232.689	-43.86
232.907	46.25
233.125	-29.52
233.342	64.68
233.56	-11.09
233.777	89.26
233.995	17.58
234.213	64.68
234.43	7.34
234.648	76.97
234.865	40.11
235.083	44.2
235.3	-27.48
235.518	46.25
235.735	-35.67
235.953	91.31
236.17	1.19
236.388	29.87
236.605	-15.19
236.822	60.59
237.04	15.53
237.257	13.48
237.475	7.34
237.692	99.5
237.909	11.43
238.127	9.39
238.344	-115.54
238.562	50.35
238.779	15.53
238.996	40.11
239.214	31.91
239.431	93.35
239.648	-21.33
239.865	54.44
240.083	52.39
240.3	44.2
240.517	23.72
240.735	40.11
240.952	70.83
241.169	83.11
241.386	11.43
241.603	-33.62
241.821	33.96
242.038	66.73
242.255	3.24
242.472	58.54
242.689	74.92
242.907	87.21
243.124	62.63
243.341	-4.95
243.558	23.72
243.775	23.72
243.992	76.97
244.209	95.4
244.426	105.64
244.643	50.35
244.86	9.39
245.078	27.82
245.295	50.35
245.512	107.69
245.729	-9.05
245.946	66.73
246.163	58.54
246.38	-17.24
246.597	68.78
246.814	64.68
247.031	11.43
247.248	79.02
247.464	-41.81
247.681	29.87
247.898	21.67
248.115	33.96
248.332	7.34
248.549	68.78
248.766	23.72
248.983	58.54
249.2	58.54
249.417	62.63
249.633	9.39
249.85	19.63
250.067	-21.33
250.284	29.87
250.501	31.91
250.717	46.25
250.934	36.01
251.151	9.39
251.368	29.87
251.585	68.78
251.801	5.29
252.018	11.43
252.235	-13.14
252.451	36.01
252.668	-15.19
252.885	83.11
253.102	79.02
253.318	79.02
253.535	56.49
253.752	58.54
253.968	-17.24
254.185	89.26
254.401	62.63
254.618	-0.85
254.835	17.58
255.051	66.73
255.268	42.15
255.484	48.3
255.701	85.16
255.917	105.64
256.134	17.58
256.351	105.64
256.567	9.39
256.784	44.2
257	-2.9
257.217	1.19
257.433	42.15
257.65	-19.29
257.866	56.49
258.082	33.96
258.299	66.73
258.515	21.67
258.732	40.11
258.948	58.54
259.165	38.06
259.381	50.35
259.597	72.87
259.814	31.91
260.03	1.19
260.246	23.72
260.463	13.48
260.679	31.91
260.895	64.68
261.112	17.58
261.328	23.72
261.544	70.83
261.761	66.73
261.977	66.73
262.193	38.06
262.409	52.39
262.626	48.3
262.842	-0.85
263.058	-25.43
263.274	23.72
263.49	74.92
263.707	81.07
263.923	40.11
264.139	-31.57
264.355	19.63
264.571	81.07
264.787	68.78
265.004	54.44
265.22	33.96
265.436	11.43
265.652	52.39
265.868	48.3
266.084	62.63
266.3	33.96
266.516	-2.9
266.732	74.92
266.948	89.26
267.164	52.39
267.38	64.68
267.596	42.15
267.812	-4.95
268.028	52.39
268.244	7.34
268.46	81.07
268.676	23.72
268.892	97.45
269.108	36.01
269.324	40.11
269.54	31.91
269.756	17.58
269.972	31.91
270.188	-7
270.403	7.34
270.619	101.55
270.835	56.49
271.051	-7
271.267	105.64
271.483	29.87
271.698	52.39
271.914	56.49
272.13	5.29
272.346	101.55
272.562	23.72
272.777	66.73
272.993	87.21
273.209	50.35
273.425	5.29
273.64	3.24
273.856	58.54
274.072	76.97
274.287	66.73
274.503	19.63
274.719	36.01
274.934	87.21
275.15	-15.19
275.366	93.35
275.581	54.44
275.797	103.59
276.012	9.39
276.228	1.19
276.444	-37.72
276.659	21.67
276.875	72.87
277.09	40.11
277.306	56.49
277.521	58.54
277.737	40.11
277.952	31.91
278.168	9.39
278.383	56.49
278.599	48.3
278.814	99.5
279.03	17.58
279.245	105.64
279.461	38.06
279.676	33.96
279.892	-7
280.107	60.59
280.322	76.97
280.538	13.48
280.753	33.96
280.969	64.68
281.184	60.59
281.399	-0.85
281.615	62.63
281.83	9.39
282.045	70.83
282.26	-7
282.476	-0.85
282.691	48.3
282.906	93.35
283.122	-19.29
283.337	40.11
283.552	109.74
283.767	27.82
283.983	56.49
284.198	-33.62
284.413	62.63
284.628	17.58
284.843	3.24
285.058	60.59
285.274	-0.85
285.489	38.06
285.704	58.54
285.919	105.64
286.134	95.4
286.349	50.35
286.564	89.26
286.779	97.45
286.995	48.3
287.21	27.82
287.425	62.63
287.64	56.49
287.855	83.11
288.07	46.25
288.285	25.77
288.5	148.65
288.715	40.11
288.93	74.92
289.145	60.59
289.36	44.2
289.575	46.25
289.79	68.78
290.004	38.06
290.219	87.21
290.434	58.54
290.649	1.19
290.864	50.35
291.079	-21.33
291.294	89.26
291.509	60.59
291.724	27.82
291.938	38.06
292.153	25.77
292.368	23.72
292.583	81.07
292.798	-0.85
293.012	-17.24
293.227	46.25
293.442	17.58
293.657	7.34
293.871	52.39
294.086	40.11
294.301	-27.48
294.516	40.11
294.73	42.15
294.945	-39.76
295.16	87.21
295.374	79.02
295.589	113.83
295.804	-39.76
296.018	105.64
296.233	9.39
296.447	42.15
296.662	-17.24
296.877	-7
297.091	17.58
297.306	64.68
297.52	5.29
297.735	33.96
297.949	56.49
298.164	48.3
298.378	40.11
298.593	56.49
298.807	-9.05
299.022	124.07
299.236	23.72
299.451	58.54
299.665	50.35
299.88	72.87
300.094	44.2
300.309	15.53
300.523	56.49
300.737	48.3
300.952	11.43
301.166	74.92
301.381	79.02
301.595	79.02
301.809	17.58
302.024	109.74
302.238	-4.95
302.452	62.63
302.667	66.73
302.881	97.45
303.095	79.02
303.309	74.92
303.524	-21.33
303.738	99.5
303.952	-2.9
304.166	19.63
304.381	-17.24
304.595	81.07
304.809	29.87
305.023	54.44
305.237	23.72
305.452	87.21
305.666	42.15
305.88	107.69
306.094	93.35
306.308	50.35
306.522	17.58
306.736	42.15
306.95	81.07
307.164	40.11
307.379	3.24
307.593	-41.81
307.807	101.55
308.021	68.78
308.235	76.97
308.449	7.34
308.663	11.43
308.877	134.31
309.091	89.26
309.305	60.59
309.519	60.59
309.733	-25.43
309.947	136.36
310.161	31.91
310.374	44.2
310.588	99.5
310.802	60.59
311.016	64.68
311.23	46.25
311.444	52.39
311.658	85.16
311.872	101.55
312.085	60.59
312.299	44.2
312.513	68.78
312.727	31.91
312.941	52.39
313.154	83.11
313.368	64.68
313.582	62.63
313.796	46.25
314.009	42.15
314.223	33.96
314.437	70.83
314.651	64.68
314.864	85.16
315.078	27.82
315.292	70.83
315.505	15.53
315.719	91.31
315.933	50.35
316.146	44.2
316.36	27.82
316.573	85.16
316.787	105.64
317.001	130.22
317.214	31.91
317.428	58.54
317.641	46.25
317.855	97.45
318.068	85.16
318.282	68.78
318.495	44.2
318.709	9.39
318.922	109.74
319.136	83.11
319.349	27.82
319.563	15.53
319.776	87.21
319.99	36.01
320.203	72.87
320.417	48.3
320.63	9.39
320.843	89.26
321.057	64.68
321.27	62.63
321.483	64.68
321.697	27.82
321.91	91.31
322.124	17.58
322.337	66.73
322.55	126.12
322.763	68.78
322.977	5.29
323.19	52.39
323.403	64.68
323.617	52.39
323.83	48.3
324.043	60.59
324.256	42.15
324.469	25.77
324.683	72.87
324.896	64.68
325.109	-9.05
325.322	7.34
325.535	60.59
325.748	-27.48
325.962	62.63
326.175	83.11
326.388	40.11
326.601	54.44
326.814	48.3
327.027	33.96
327.24	83.11
327.453	13.48
327.666	31.91
327.879	91.31
328.092	87.21
328.305	81.07
328.518	33.96
328.731	33.96
328.944	101.55
329.157	60.59
329.37	103.59
329.583	144.55
329.796	74.92
330.009	3.24
330.222	64.68
330.435	33.96
330.648	103.59
330.861	56.49
331.073	72.87
331.286	38.06
331.499	169.13
331.712	-41.81
331.925	58.54
332.138	95.4
332.35	48.3
332.563	72.87
332.776	62.63
332.989	9.39
333.202	56.49
333.414	93.35
333.627	105.64
333.84	36.01
334.053	85.16
334.265	33.96
334.478	38.06
334.691	109.74
334.903	91.31
335.116	52.39
335.329	99.5
335.541	13.48
335.754	56.49
335.966	27.82
336.179	5.29
336.392	122.02
336.604	-0.85
336.817	7.34
337.029	42.15
337.242	46.25
337.454	99.5
337.667	40.11
337.88	50.35
338.092	5.29
338.305	3.24
338.517	68.78
338.729	54.44
338.942	-2.9
339.154	99.5
339.367	-54.1
339.579	17.58
339.792	52.39
340.004	-17.24
340.217	64.68
340.429	83.11
340.641	68.78
340.854	62.63
341.066	117.93
341.278	62.63
341.491	87.21
341.703	-2.9
341.915	46.25
342.128	72.87
342.34	79.02
342.552	23.72
342.764	38.06
342.977	-0.85
343.189	70.83
343.401	89.26
343.613	107.69
343.826	76.97
344.038	56.49
344.25	68.78
344.462	25.77
344.674	27.82
344.886	40.11
345.099	52.39
345.311	79.02
345.523	40.11
345.735	74.92
345.947	29.87
346.159	72.87
346.371	23.72
346.583	85.16
346.795	87.21
347.007	50.35
347.219	99.5
347.431	93.35
347.643	58.54
347.855	15.53
348.067	66.73
348.279	31.91
348.491	89.26
348.703	58.54
348.915	95.4
349.127	113.83
349.339	58.54
349.551	13.48
349.763	111.78
349.975	31.91
350.187	83.11
350.399	19.63
350.61	3.24
350.822	85.16
351.034	56.49
351.246	91.31
351.458	15.53
351.669	83.11
351.881	99.5
352.093	68.78
352.305	126.12
352.517	36.01
352.728	113.83
352.94	126.12
353.152	99.5
353.363	83.11
353.575	27.82
353.787	1.19
353.999	29.87
354.21	60.59
354.422	115.88
354.633	17.58
354.845	103.59
355.057	9.39
355.268	66.73
355.48	60.59
355.692	44.2
355.903	83.11
356.115	23.72
356.326	21.67
356.538	50.35
356.749	97.45
356.961	85.16
357.172	111.78
357.384	68.78
357.595	21.67
357.807	52.39
358.018	91.31
358.23	25.77
358.441	64.68
358.653	87.21
358.864	-13.14
359.075	36.01
359.287	29.87
359.498	44.2
359.709	117.93
359.921	113.83
360.132	89.26
360.344	72.87
360.555	23.72
360.766	46.25
360.977	107.69
361.189	52.39
361.4	85.16
361.611	3.24
361.823	40.11
362.034	27.82
362.245	-7
362.456	79.02
362.667	-45.91
362.879	60.59
363.09	44.2
363.301	124.07
363.512	31.91
363.723	48.3
363.935	54.44
364.146	152.74
364.357	1.19
364.568	1.19
364.779	36.01
364.99	150.7
365.201	48.3
365.412	115.88
365.623	58.54
365.834	27.82
366.045	48.3
366.256	74.92
366.467	68.78
366.678	74.92
366.889	38.06
367.1	46.25
367.311	21.67
367.522	126.12
367.733	-9.05
367.944	33.96
368.155	91.31
368.366	74.92
368.577	85.16
368.788	15.53
368.999	58.54
369.209	126.12
369.42	79.02
369.631	81.07
369.842	76.97
370.053	105.64
370.264	81.07
370.474	105.64
370.685	66.73
370.896	11.43
371.107	56.49
371.317	91.31
371.528	38.06
371.739	21.67
371.95	56.49
372.16	150.7
372.371	60.59
372.582	146.6
372.792	79.02
373.003	101.55
373.214	89.26
373.424	64.68
373.635	124.07
373.846	64.68
374.056	60.59
374.267	-7
374.477	60.59
374.688	-7
374.898	79.02
375.109	38.06
375.319	29.87
375.53	117.93
375.74	-4.95
375.951	134.31
376.161	36.01
376.372	72.87
376.582	15.53
376.793	40.11
377.003	19.63
377.214	40.11
377.424	46.25
377.635	83.11
377.845	83.11
378.055	87.21
378.266	11.43
378.476	48.3
378.686	72.87
378.897	103.59
379.107	25.77
379.317	109.74
379.528	25.77
379.738	79.02
379.948	23.72
380.158	44.2
380.369	48.3
380.579	91.31
380.789	-31.57
380.999	72.87
381.21	87.21
381.42	64.68
381.63	48.3
381.84	115.88
382.05	79.02
382.261	15.53
382.471	33.96
382.681	54.44
382.891	66.73
383.101	72.87
383.311	11.43
383.521	29.87
383.731	99.5
383.941	27.82
384.151	89.26
384.361	66.73
384.571	81.07
384.781	128.17
384.991	99.5
385.201	128.17
385.411	89.26
385.621	79.02
385.831	72.87
386.041	91.31
386.251	93.35
386.461	42.15
386.671	101.55
386.881	76.97
387.091	-4.95
387.301	95.4
387.511	95.4
387.72	72.87
387.93	119.98
388.14	58.54
388.35	91.31
388.56	36.01
388.769	44.2
388.979	70.83
389.189	17.58
389.399	115.88
389.609	93.35
389.818	29.87
390.028	52.39
390.238	95.4
390.447	42.15
390.657	115.88
390.867	-0.85
391.076	97.45
391.286	79.02
391.496	56.49
391.705	101.55
391.915	11.43
392.125	-2.9
392.334	148.65
392.544	70.83
392.753	113.83
392.963	85.16
393.172	62.63
393.382	146.6
393.591	173.22
393.801	72.87
394.01	83.11
394.22	87.21
394.429	68.78
394.639	27.82
394.848	72.87
395.058	19.63
395.267	42.15
395.477	58.54
395.686	124.07
395.895	122.02
396.105	42.15
396.314	89.26
396.524	115.88
396.733	70.83
396.942	179.37
397.152	128.17
397.361	64.68
397.57	126.12
397.78	85.16
397.989	113.83
398.198	76.97
398.407	62.63
398.617	175.27
398.826	56.49
399.035	140.46
399.244	162.98
399.453	130.22
399.663	111.78
399.872	150.7
400.081	109.74
400.29	189.61
400.499	146.6
400.708	79.02
400.917	93.35
401.127	124.07
401.336	91.31
401.545	42.15
401.754	177.32
401.963	74.92
402.172	134.31
402.381	74.92
402.59	83.11
402.799	89.26
403.008	72.87
403.217	68.78
403.426	140.46
403.635	144.55
403.844	132.26
404.053	64.68
404.262	101.55
404.471	132.26
404.68	99.5
404.888	187.56
405.097	134.31
405.306	132.26
405.515	146.6
405.724	111.78
405.933	249
406.142	160.94
406.35	142.5
406.559	156.84
406.768	177.32
406.977	58.54
407.185	158.89
407.394	142.5
407.603	126.12
407.812	162.98
408.02	130.22
408.229	185.51
408.438	175.27
408.646	216.23
408.855	128.17
409.064	281.77
409.272	193.7
409.481	140.46
409.69	230.57
409.898	277.67
410.107	261.29
410.315	242.85
410.524	191.66
410.733	287.91
410.941	273.57
411.15	337.06
411.358	259.24
411.567	328.87
411.775	314.53
411.984	298.15
412.192	308.39
412.401	384.16
412.609	406.69
412.818	375.97
413.026	355.49
413.234	337.06
413.443	488.61
413.651	412.84
413.86	423.08
414.068	468.13
414.276	490.66
414.485	468.13
414.693	445.6
414.901	466.08
415.11	484.52
415.318	574.63
415.526	537.76
415.734	556.19
415.943	578.72
416.151	607.39
416.359	613.54
416.567	654.5
416.776	689.31
416.984	736.42
417.192	795.81
417.4	662.69
417.608	709.79
417.817	851.1
418.025	740.51
418.233	836.77
418.441	814.24
418.649	918.68
418.857	980.12
419.065	924.83
419.273	986.27
419.481	933.02
419.689	1039.51
419.897	1107.1
420.105	1176.73
420.313	1121.43
420.521	1154.2
420.729	1217.69
420.937	1215.64
421.145	1275.03
421.353	1313.94
421.561	1457.3
421.769	1467.54
421.977	1533.08
422.185	1465.49
422.393	1608.85
422.601	1735.82
422.809	1696.91
423.017	1715.34
423.224	1793.17
423.432	1787.02
423.64	1875.09
423.848	2092.17
424.056	1991.82
424.263	2086.03
424.471	2153.61
424.679	2143.37
424.887	2231.43
425.094	2296.97
425.302	2274.44
425.51	2323.59
425.718	2532.48
425.925	2407.56
426.133	2501.76
426.341	2667.65
426.548	2886.78
426.756	2800.77
426.964	3021.95
427.171	3087.48
427.379	3056.76
427.586	3259.51
427.794	3458.17
428.001	3447.93
428.209	3703.92
428.417	3470.45
428.624	3726.45
428.832	3818.61
429.039	3785.84
429.247	3779.7
429.454	4289.64
429.662	4338.79
429.869	4172.91
430.076	4539.49
430.284	4185.19
430.491	4600.93
430.699	4734.05
430.906	4744.29
431.114	4873.31
431.321	5000.29
431.528	5166.17
431.736	5508.18
431.943	5653.59
432.15	5581.91
432.358	5373.02
432.565	5934.16
432.772	5825.62
432.979	6052.94
433.187	6243.4
433.394	6278.22
433.601	6820.93
433.808	6814.79
434.016	6712.39
434.223	6915.14
434.43	7375.93
434.637	7373.88
434.844	7787.57
435.052	7945.27
435.259	7816.24
435.466	8066.1
435.673	7838.77
435.88	8338.48
436.087	8838.18
436.294	8864.8
436.501	8641.57
436.708	8825.89
436.915	9094.18
437.122	9448.47
437.329	9477.15
437.537	9784.34
437.743	9946.13
437.95	9980.95
438.157	10361.87
438.364	10619.91
438.571	10660.87
438.778	10959.88
438.985	11924.47
439.192	11492.35
439.399	11709.43
439.606	11404.28
439.813	12196.85
440.02	12801
440.227	12667.88
440.433	12418.03
440.64	12901.35
440.847	12653.55
441.054	13061.09
441.261	13882.33
441.467	13835.22
441.674	14025.68
441.881	14502.86
442.088	14691.27
442.294	14474.19
442.501	14736.33
442.708	15195.07
442.914	15723.45
443.121	16233.39
443.328	15971.25
443.534	16917.42
443.741	16624.56
443.948	16554.93
444.154	17636.25
444.361	17558.43
444.568	17578.91
444.774	17595.29
444.981	17626.01
445.187	18391.95
445.394	19088.26
445.6	18887.56
445.807	20708.21
446.013	19932.03
446.22	19954.55
446.426	21017.45
446.633	20933.48
446.839	21767.01
447.046	20917.1
447.252	22098.78
447.459	22303.57
447.665	22018.91
447.871	23227.21
448.078	24247.1
448.284	23067.47
448.491	23356.23
448.697	24687.41
448.903	25035.56
449.11	25054
449.316	24562.48
449.522	25109.29
449.728	26016.54
449.935	25867.04
450.141	25713.44
450.347	26424.09
450.553	25912.1
450.76	26149.66
450.966	26759.95
451.172	26651.41
451.378	27415.3
451.584	26899.22
451.791	27546.37
451.997	27427.59
452.203	28164.86
452.409	28171
452.615	27529.99
452.821	26733.33
453.027	26239.77
453.233	27656.96
453.44	26788.63
453.646	27071.25
453.852	27491.08
454.058	27609.86
454.264	27087.63
454.47	27425.54
454.676	26682.13
454.882	27644.68
455.088	25228.07
455.294	25516.84
455.5	25955.1
455.705	26315.55
455.911	25490.21
456.117	24951.6
456.323	24564.53
456.529	23276.36
456.735	24597.3
456.941	23679.81
457.147	23098.19
457.352	22524.75
457.558	22297.43
457.764	22442.84
457.97	21883.74
458.176	21603.17
458.381	21676.9
458.587	20706.16
458.793	20585.33
458.999	19563.39
459.204	20831.08
459.41	20413.3
459.616	18731.92
459.821	19264.39
460.027	18889.61
460.233	18707.34
460.438	17544.09
460.644	17728.41
460.85	16950.18
461.055	16915.37
461.261	16898.98
461.466	15512.51
461.672	15385.54
461.878	16083.89
462.083	15328.19
462.289	14900.17
462.494	14642.12
462.7	14164.95
462.905	13566.94
463.111	14197.71
463.316	14044.12
463.522	13949.91
463.727	13958.1
463.932	13929.43
464.138	13855.7
464.343	13898.71
464.549	13403.1
464.754	13988.82
464.959	13835.22
465.165	13884.37
465.37	13163.49
465.575	12729.32
465.781	13360.09
465.986	13560.8
466.191	13007.84
466.397	12868.58
466.602	12000.24
466.807	12706.79
467.012	12520.43
467.218	12444.65
467.423	12274.67
467.628	12266.48
467.833	12970.98
468.038	12506.09
468.244	12141.55
468.449	12692.46
468.654	12172.27
468.859	12049.39
469.064	12164.08
469.269	11697.14
469.474	11654.14
469.679	11994.1
469.885	11541.5
470.09	11582.46
470.295	11404.28
470.5	11344.89
470.705	11473.92
470.91	11148.29
471.115	11072.51
471.32	11015.17
471.525	11181.06
471.73	11082.75
471.935	10871.81
472.139	10615.82
472.344	10587.15
472.549	10351.63
472.754	10302.48
472.959	10228.75
473.164	10189.84
473.369	10005.52
473.574	10200.08
473.778	10109.97
473.983	9976.85
474.188	10060.82
474.393	9546.78
474.598	9397.28
474.802	9272.35
475.007	9460.76
475.212	9212.96
475.417	9067.55
475.621	9149.47
475.826	8934.43
476.031	8956.96
476.235	8731.69
476.44	8895.52
476.645	8635.43
476.849	8469.55
477.054	8604.71
477.259	8649.77
477.463	8301.61
477.668	8191.02
477.872	8033.33
478.077	8150.06
478.282	7853.11
478.486	7887.92
478.691	7853.11
478.895	7896.11
479.1	7695.41
479.304	7691.32
479.509	7685.17
479.713	7803.96
479.918	7353.4
480.122	7580.73
480.326	7513.14
480.531	7556.15
480.735	7388.22
480.94	7343.16
481.144	7568.44
481.348	7277.63
481.553	7412.79
481.757	7273.53
481.961	7167.04
482.166	7486.52
482.37	7416.89
482.574	7003.2
482.778	7156.8
482.983	7298.11
483.187	7197.76
483.391	7328.83
483.595	7185.47
483.8	7134.27
484.004	7328.83
484.208	7314.49
484.412	7167.04
484.616	7359.55
484.821	7345.21
485.025	7167.04
485.229	7416.89
485.433	7126.08
485.637	7164.99
485.841	7275.58
486.045	7287.87
486.249	7463.99
486.453	7289.92
486.657	7369.79
486.861	7263.29
487.065	7199.8
487.269	7525.43
487.473	7236.67
487.677	7425.08
487.881	7502.9
488.085	7337.02
488.289	7482.42
488.493	7384.12
488.697	7644.21
488.901	7521.34
489.105	7435.32
489.309	7535.67
489.512	7631.93
489.716	7615.54
489.92	7570.49
490.124	7445.56
490.328	7603.25
490.531	7633.97
490.735	7666.74
490.939	7736.37
491.143	7713.84
491.346	7861.3
491.55	7865.39
491.754	8062
491.958	8057.9
492.161	7803.96
492.365	8133.68
492.569	8049.71
492.772	8057.9
492.976	8252.46
493.18	8281.13
493.383	8242.22
493.587	8289.32
493.79	8662.05
493.994	8266.8
494.197	8524.84
494.401	8461.35
494.605	8686.63
494.808	8864.8
495.012	8578.09
495.215	8741.93
495.419	8868.9
495.622	8975.39
495.825	9036.83
496.029	9079.84
496.232	9331.74
496.436	9380.89
496.639	9366.56
496.843	9487.39
497.046	9661.46
497.249	9921.56
497.453	9774.1
497.656	9876.5
497.859	9896.98
498.063	10066.96
498.266	10441.74
498.469	10376.2
498.673	10583.05
498.876	10587.15
499.079	10861.57
499.282	10689.54
499.485	10992.64
499.689	11074.56
499.892	11234.3
500.095	11199.49
500.298	11637.75
500.501	11615.23
500.705	12016.63
500.908	11979.76
501.111	12166.13
501.314	12057.59
501.517	12518.38
501.72	12639.21
501.923	12649.45
502.126	13265.89
502.329	13153.25
502.532	13251.55
502.735	13171.68
502.938	13655
503.141	13540.32
503.344	14005.2
503.547	13964.25
503.75	14375.89
503.953	14572.49
504.156	14244.82
504.359	14869.45
504.562	14750.67
504.765	15104.96
504.968	15223.75
505.17	15487.93
505.373	15535.04
505.576	15846.33
505.779	15942.58
505.982	16266.16
506.185	16231.35
506.387	16810.92
506.59	17142.69
506.793	16966.57
506.996	17126.31
507.198	17683.36
507.401	17580.96
507.604	17728.41
507.807	18305.94
508.009	18172.82
508.212	18781.07
508.415	18625.42
508.617	18953.1
508.82	19198.85
509.022	19284.87
509.225	19706.75
509.428	19929.98
509.63	19753.85
509.833	20327.28
510.035	20550.51
510.238	20575.09
510.44	21187.43
510.643	21351.27
510.845	21293.93
511.048	21259.11
511.25	21936.99
511.453	22242.14
511.655	22641.49
511.858	22375.25
512.06	22651.73
512.262	22899.53
512.465	23096.14
512.667	23520.07
512.87	23759.68
513.072	23929.66
513.274	24294.2
513.477	24585.01
513.679	24619.83
513.881	25279.27
514.084	25619.24
514.286	25387.82
514.488	25897.76
514.69	26325.78
514.893	26606.36
515.095	26489.62
515.297	27216.65
515.499	26940.18
515.701	27319.05
515.904	27673.35
516.106	27712.26
516.308	28214.01
516.51	28627.7
516.712	28779.25
516.914	29000.43
517.116	29631.21
517.318	29645.54
517.52	29702.89
517.722	29731.56
517.925	30241.5
518.127	30556.89
518.329	30767.83
518.531	30943.95
518.733	31470.28
518.935	31785.67
519.136	31603.4
519.338	31982.27
519.54	32342.72
519.742	32740.02
519.944	32985.78
520.146	33323.69
520.348	33692.33
520.55	33229.49
520.752	33792.68
520.954	34458.27
521.155	34091.68
521.357	34955.93
521.559	34624.15
521.761	34908.82
521.963	35173.01
522.164	35519.12
522.366	35766.92
522.568	36102.79
522.77	36493.95
522.971	37012.09
523.173	36751.99
523.375	37075.57
523.576	37059.19
523.778	37253.75
523.98	38040.17
524.181	38066.79
524.383	37970.54
524.584	38449.76
524.786	38685.28
524.988	38048.36
525.189	39058.01
525.391	39299.67
525.592	39146.07
525.794	39377.49
525.995	39422.55
526.197	39565.9
526.398	39586.38
526.6	40120.9
526.801	40331.84
527.003	40673.85
527.204	40409.67
527.406	40550.98
527.607	40837.69
527.808	41327.16
528.01	40731.2
528.211	41130.55
528.412	41779.76
528.614	41660.97
528.815	41497.14
529.016	42166.82
529.218	41933.35
529.419	41790
529.62	41896.49
529.822	41779.76
530.023	42074.66
530.224	41830.96
530.425	42357.28
530.626	42132.01
530.828	41982.51
531.029	42789.41
531.23	42381.86
531.431	42781.21
531.632	43082.27
531.833	43170.33
532.035	42633.76
532.236	43065.88
532.437	43276.82
532.638	42971.67
532.839	43276.82
533.04	43643.41
533.241	43166.23
533.442	43424.28
533.643	43508.24
533.844	43356.69
534.045	43938.32
534.246	43092.51
534.447	43921.93
534.648	43493.91
534.849	43506.19
535.05	43500.05
535.251	43602.45
535.451	43665.94
535.652	43840.01
535.853	43885.07
536.054	44042.76
536.255	43647.5
536.456	43354.65
536.657	44370.44
536.857	43670.03
537.058	43328.02
537.259	44282.37
537.46	44243.46
537.66	43938.32
537.861	44153.35
538.062	43831.82
538.263	43868.69
538.463	44128.78
538.664	43731.47
538.865	43950.6
539.065	44169.74
539.266	43751.95
539.466	44497.41
539.667	44102.15
539.868	44624.39
540.068	44325.38
540.269	44304.9
540.469	45046.27
540.67	43903.5
540.87	44265.99
541.071	44118.54
541.271	44716.54
541.472	44067.34
541.672	44431.88
541.873	44407.3
542.073	43770.38
542.274	44542.47
542.474	44128.78
542.675	44395.01
542.875	44775.94
543.075	44222.98
543.276	43885.07
543.476	44734.98
543.676	44427.78
543.877	44675.58
544.077	44460.55
544.277	44415.49
544.478	44466.69
544.678	44743.17
544.878	44233.22
545.078	44380.68
545.279	44321.29
545.479	44665.35
545.679	44366.34
545.879	44538.37
546.079	44663.3
546.28	44210.7
546.48	44063.24
546.68	44659.2
546.88	44526.08
547.08	44847.61
547.28	44640.77
547.48	44761.6
547.68	44528.13
547.88	44143.11
548.081	44653.06
548.281	44528.13
548.481	44435.97
548.681	44495.36
548.881	44753.41
549.081	44716.54
549.28	44524.04
549.48	44708.35
549.68	44493.32
549.88	45296.12
550.08	44352.01
550.28	44806.65
550.48	44468.74
550.68	44796.42
550.88	44474.88
551.08	44710.4
551.279	45025.79
551.479	44386.82
551.679	44712.45
551.879	44571.14
552.079	44585.47
552.278	44472.84
552.478	44059.15
552.678	44349.96
552.878	44909.05
553.077	44478.98
553.277	44018.19
553.477	44722.69
553.676	44362.25
553.876	44352.01
554.076	44153.35
554.275	44108.3
554.475	43971.08
554.674	44446.21
554.874	44261.9
555.074	44358.15
555.273	44288.52
555.473	44777.98
555.672	44007.95
555.872	44134.92
556.071	44309
556.271	44395.01
556.47	44005.9
556.67	43973.13
556.869	43901.45
557.068	44528.13
557.268	44030.47
557.467	44083.72
557.667	44122.63
557.866	43768.33
558.065	43803.15
558.265	43784.72
558.464	43588.11
558.663	44470.79
558.863	43573.78
559.062	44677.63
559.261	43903.5
559.461	44282.37
559.66	43561.49
559.859	43780.62
560.058	43659.79
560.258	43635.22
560.457	43403.8
560.656	43735.57
560.855	43768.33
561.054	44108.3
561.253	43657.74
561.453	43295.25
561.652	43684.37
561.851	44085.77
562.05	43465.24
562.249	43252.25
562.448	43270.68
562.647	43463.19
562.846	43252.25
563.045	43233.81
563.244	43039.26
563.443	43702.8
563.642	43330.07
563.841	43344.41
564.04	42994.2
564.239	43788.81
564.438	43006.49
564.637	43282.97
564.836	43604.5
565.035	42902.04
565.234	43149.85
565.432	42973.72
565.631	42844.7
565.83	43115.03
566.029	42885.66
566.228	42940.96
566.427	42951.2
566.625	43086.36
566.824	42392.1
567.023	43676.18
567.222	42570.27
567.42	43213.34
567.619	42830.37
567.818	42654.24
568.016	42525.22
568.215	43063.83
568.414	42910.24
568.612	43039.26
568.811	42424.87
569.01	42844.7
569.208	42134.06
569.407	43006.49
569.605	42070.57
569.804	42502.69
570.002	42144.3
570.201	42240.55
570.4	42154.54
570.598	41878.06
570.797	42195.49
570.995	42039.85
571.193	41505.33
571.392	42273.32
571.59	41714.22
571.789	42033.71
571.987	41724.46
572.186	41386.55
572.384	41826.86
572.582	42054.18
572.781	41935.4
572.979	41085.5
573.177	41534
573.376	41654.83
573.574	40909.37
573.772	41460.27
573.971	40948.28
574.169	41017.91
574.367	40905.27
574.565	41105.98
574.763	41118.26
574.962	40712.77
575.16	40325.7
575.358	40579.65
575.556	40708.67
575.754	41044.54
575.952	40538.69
576.151	40733.25
576.349	40329.8
576.547	40274.5
576.745	40532.54
576.943	40413.76
577.141	40108.61
577.339	40409.67
577.537	40192.58
577.735	39948.87
577.933	40055.37
578.131	39936.59
578.329	39529.04
578.527	39240.28
578.725	39440.98
578.923	39805.52
579.121	39424.59
579.319	39189.08
579.516	39352.91
579.714	39453.26
579.912	39107.16
580.11	38994.52
580.308	39150.17
580.506	38906.46
580.704	38685.28
580.901	38478.43
581.099	38503.01
581.297	38683.23
581.495	38533.73
581.692	38589.02
581.89	38343.27
582.088	38914.65
582.285	38210.15
582.483	38218.34
582.681	38163.04
582.878	37921.38
583.076	37829.23
583.274	38335.07
583.471	37493.36
583.669	38052.45
583.866	37669.48
584.064	37526.13
584.262	37208.69
584.459	37501.55
584.657	37083.76
584.854	37474.93
585.052	37018.23
585.249	36977.27
585.447	36924.02
585.644	36276.87
585.841	36795
586.039	36782.71
586.236	36754.04
586.434	36446.85
586.631	36401.79
586.828	36551.29
587.026	36418.17
587.223	36299.39
587.42	36022.92
587.618	36016.77
587.815	35918.47
588.012	35650.19
588.21	35764.87
588.407	35875.46
588.604	35418.77
588.801	35549.84
588.999	35609.23
589.196	35183.25
589.393	35087
589.59	34802.33
589.787	35187.35
589.984	35076.76
590.182	34630.3
590.379	34566.81
590.576	34611.87
590.773	34515.61
590.97	34601.63
591.167	34396.83
591.364	34196.13
591.561	34302.62
591.758	33983.14
591.955	33749.67
592.152	34368.16
592.349	34173.6
592.546	34120.35
592.743	33686.18
592.94	33561.26
593.137	33692.33
593.334	33850.02
593.531	32969.4
593.727	33387.18
593.924	33137.33
594.121	33141.42
594.318	33127.09
594.515	32817.85
594.712	33141.42
594.908	32547.51
595.105	32787.13
595.302	32342.72
595.499	33002.16
595.696	32410.3
595.892	32133.82
596.089	32305.85
596.286	32629.43
596.482	32162.5
596.679	32213.7
596.876	32135.87
597.072	31673.03
597.269	32119.49
597.466	31582.92
597.662	31509.19
597.859	31476.43
598.055	31451.85
598.252	31072.98
598.448	31611.59
598.645	31140.56
598.841	30978.77
599.038	30925.52
599.234	31062.74
599.431	30616.28
599.627	31013.59
599.824	30958.29
600.02	30341.85
600.217	30655.19
600.413	30434.01
600.609	29932.26
600.806	30118.62
601.002	30366.43
601.198	29952.74
601.395	29715.17
601.591	29911.78
601.787	29911.78
601.984	29799.14
602.18	29817.57
602.376	29375.21
602.572	29274.86
602.769	29565.67
602.965	29059.82
603.161	29092.59
603.357	28812.02
603.553	29106.93
603.75	29127.41
603.946	28674.81
604.142	28787.44
604.338	28383.99
604.534	28726
604.73	28721.91
604.926	28289.79
605.122	28470.01
605.318	28345.08
605.514	28242.68
605.71	28144.38
605.906	27958.02
606.102	28103.42
606.298	27757.32
606.494	27773.7
606.69	27966.21
606.886	27491.08
607.082	27863.81
607.278	27847.43
607.474	27390.73
607.67	27663.11
607.866	27075.34
608.062	27581.19
608.257	27273.99
608.453	27300.62
608.649	26960.66
608.845	26835.73
609.041	27128.59
609.236	27235.08
609.432	26886.93
609.628	26835.73
609.824	26979.09
610.019	26686.23
610.215	26737.43
610.411	26757.91
610.606	26614.55
610.802	26690.32
610.998	26506.01
611.193	26678.04
611.389	26272.54
611.584	26333.98
611.78	26073.88
611.976	26413.85
612.171	26370.84
612.367	26272.54
612.562	26047.26
612.758	25600.8
612.953	25729.83
613.149	25842.46
613.344	25547.56
613.539	25918.24
613.735	25662.24
613.93	25697.06
614.126	25971.49
614.321	26014.49
614.517	25660.2
614.712	25525.03
614.907	25531.17
615.103	25568.04
615.298	25066.28
615.493	25522.98
615.688	25135.92
615.884	25551.65
616.079	25207.59
616.274	25256.75
616.47	24832.82
616.665	25203.5
616.86	25193.26
617.055	24832.82
617.25	24810.29
617.445	24881.97
617.641	24390.45
617.836	24738.61
618.031	24050.49
618.226	24808.24
618.421	24677.17
618.616	24597.3
618.811	24214.33
619.006	24288.06
619.201	23798.59
619.396	23966.52
619.591	24054.59
619.786	24079.16
619.981	23466.82
620.176	23649.09
620.371	23276.36
620.566	23470.92
620.761	23372.61
620.956	23315.27
621.151	23173.96
621.346	23241.54
621.541	22635.35
621.735	22973.26
621.93	22578
622.125	22448.98
622.32	22365.01
622.515	22393.68
622.709	22190.94
622.904	22119.26
623.099	22143.83
623.294	21893.98
623.488	21572.45
623.683	21699.42
623.878	21580.64
624.072	21740.38
624.267	21637.98
624.462	21162.86
624.656	21138.28
624.851	20921.2
625.046	20968.3
625.24	20990.83
625.435	20861.8
625.629	20515.7
625.824	20382.58
626.018	20548.47
626.213	20038.52
626.407	20482.93
626.602	19731.33
626.796	20312.95
626.991	20044.66
627.185	20011.9
627.38	19739.52
627.574	19510.14
627.768	19608.45
627.963	19415.94
628.157	18971.53
628.352	19303.3
628.546	18953.1
628.74	19164.04
628.935	18680.72
629.129	19065.74
629.323	18529.17
629.517	18469.78
629.712	18543.5
629.906	18447.25
630.1	18107.29
630.294	18215.83
630.489	17832.86
630.683	18095
630.877	17939.35
631.071	17744.8
631.265	17988.5
631.459	17578.91
631.653	17738.65
631.848	17626.01
632.042	17226.66
632.236	17474.46
632.43	17015.72
632.624	17363.87
632.818	16915.37
633.012	16765.87
633.206	16653.23
633.4	17011.62
633.594	16489.39
633.788	16862.12
633.982	16589.74
634.176	16372.66
634.369	16317.36
634.563	16223.16
634.757	16239.54
634.951	16241.59
635.145	16077.75
635.339	16251.83
635.533	16208.82
635.726	15893.43
635.92	15549.37
636.114	15852.47
636.308	15569.85
636.501	15389.63
636.695	15621.05
636.889	15371.2
637.083	15428.54
637.276	15233.99
637.47	15088.58
637.664	14808.01
637.857	14963.65
638.051	14851.02
638.244	14687.18
638.438	14846.92
638.632	14611.4
638.825	14578.64
639.019	14457.81
639.212	14212.05
639.406	14148.56
639.599	14324.69
639.793	14459.85
639.986	13937.62
640.18	13865.94
640.373	14146.51
640.567	13829.08
640.76	13728.73
640.954	13659.1
641.147	13628.38
641.34	13466.59
641.534	13730.78
641.727	13417.44
641.92	13435.87
642.114	13327.33
642.307	13272.03
642.5	13319.14
642.694	12872.68
642.887	13130.72
643.08	13237.22
643.273	12895.21
643.467	12895.21
643.66	12467.18
643.853	12588.01
644.046	12446.7
644.239	12631.02
644.432	12553.2
644.626	12354.54
644.819	12276.72
645.012	12225.52
645.205	12428.27
645.398	12301.29
645.591	12252.14
645.784	12055.54
645.977	11774.97
646.17	11740.15
646.363	11742.2
646.556	11746.3
646.749	11617.27
646.942	11672.57
647.135	11277.31
647.328	11375.61
647.521	11318.27
647.714	11258.88
647.907	11058.18
648.099	11324.41
648.292	11138.05
648.485	11115.52
648.678	11033.6
648.871	10689.54
649.064	10720.26
649.256	10742.79
649.449	10736.65
649.642	10613.77
649.835	10271.76
650.027	10755.08
650.22	10353.68
650.413	10345.48
650.605	10370.06
650.798	10349.58
650.991	10193.94
651.183	10298.38
651.376	9903.12
651.568	9993.23
651.761	9978.9
651.954	9804.82
652.146	9853.97
652.339	9634.84
652.531	9700.37
652.724	9597.98
652.916	9528.35
653.109	9536.54
653.301	9729.05
653.494	9456.67
653.686	9346.08
653.879	9393.18
654.071	9208.86
654.263	9174.05
654.456	9176.09
654.648	9090.08
654.84	8922.15
655.033	8993.83
655.225	8873
655.417	8993.83
655.61	8868.9
655.802	8834.08
655.994	8801.32
656.186	8786.98
656.379	8690.73
656.571	8567.85
656.763	8479.79
656.955	8467.5
657.148	8610.86
657.34	8410.15
657.532	8213.55
657.724	8279.08
657.916	8207.41
658.108	8203.31
658.3	8049.71
658.492	8172.59
658.684	7881.78
658.876	7902.26
659.068	7773.24
659.26	7906.35
659.452	8010.8
659.644	7724.08
659.836	7707.7
660.028	7750.71
660.22	7474.23
660.412	7660.6
660.604	7457.85
660.796	7375.93
660.988	7382.07
661.18	7281.72
661.372	7337.02
661.563	7275.58
661.755	7070.78
661.947	7136.32
662.139	6915.14
662.331	7068.73
662.522	6995.01
662.714	6892.61
662.906	6853.7
663.097	7009.34
663.289	6681.67
663.481	6681.67
663.673	6798.4
663.864	6761.54
664.056	6546.5
664.247	6560.84
664.439	6511.69
664.631	6581.32
664.822	6519.88
665.014	6489.16
665.205	6397
665.397	6327.37
665.588	6349.9
665.78	6108.24
665.971	6132.81
666.163	6138.96
666.354	6057.04
666.546	6136.91
666.737	6087.76
666.929	6005.84
667.12	5954.64
667.311	5780.56
667.503	5956.69
667.694	5792.85
667.885	5784.66
668.077	5692.5
668.268	5721.17
668.459	5729.36
668.651	5590.1
668.842	5631.06
669.033	5598.29
669.224	5430.36
669.416	5545.05
669.607	5418.07
669.798	5405.78
669.989	5342.3
670.18	5289.05
670.371	5149.79
670.563	5192.8
670.754	5231.71
670.945	5287
671.136	5264.47
671.327	5211.23
671.518	5229.66
671.709	5186.65
671.9	5110.88
672.091	5014.62
672.282	5057.63
672.473	5067.87
672.664	4893.79
672.855	4899.94
673.046	4840.54
673.237	4934.75
673.428	4701.28
673.619	4912.22
673.809	4725.86
674	4781.15
674.191	4770.91
674.382	4621.41
674.573	4734.05
674.764	4613.22
674.954	4697.19
675.145	4656.23
675.336	4613.22
675.527	4617.32
675.717	4537.45
675.908	4484.2
676.099	4570.21
676.289	4385.9
676.48	4408.42
676.671	4428.9
676.861	4416.62
677.052	4385.9
677.243	4355.18
677.433	4277.35
677.624	4437.09
677.814	4201.58
678.005	4275.31
678.195	4160.62
678.386	4172.91
678.576	4213.87
678.767	4293.74
678.957	4103.28
679.148	4123.76
679.338	4154.48
679.529	3974.25
679.719	4050.03
679.909	4131.95
680.1	4277.35
680.29	4095.08
680.481	4035.69
680.671	4045.93
680.861	4054.12
681.052	3990.64
681.242	3976.3
681.432	3996.78
681.622	4033.65
681.813	3959.92
682.003	4035.69
682.193	3857.52
682.383	3943.53
682.573	3943.53
682.764	3728.5
682.954	3949.68
683.144	3834.99
683.334	3730.55
683.524	3882.1
683.714	3802.22
683.904	3857.52
684.094	3884.14
684.284	3847.28
684.474	3841.14
684.664	3757.17
684.854	3759.22
685.044	3767.41
685.234	3796.08
685.424	3781.74
685.614	3683.44
685.804	3671.15
685.994	3724.4
686.184	3716.21
686.374	3771.51
686.564	3779.7
686.753	3591.28
686.943	3548.28
687.133	3644.53
687.323	3570.8
687.513	3687.54
687.702	3585.14
687.892	3574.9
688.082	3667.06
688.272	3505.27
688.461	3517.56
688.651	3540.08
688.841	3452.02
689.03	3476.6
689.22	3679.35
689.41	3585.14
689.599	3705.97
689.789	3427.45
689.979	3566.71
690.168	3611.76
690.358	3464.31
690.547	3486.84
690.737	3624.05
690.926	3400.82
691.116	3456.12
691.305	3441.78
691.495	3417.21
691.684	3507.32
691.874	3568.76
692.063	3384.44
692.252	3515.51
692.442	3269.75
692.631	3263.61
692.82	3345.53
693.01	3306.62
693.199	3361.91
693.388	3417.21
693.578	3400.82
693.767	3388.53
693.956	3253.37
694.146	3318.9
694.335	3335.29
694.524	3357.82
694.713	3411.06
694.902	3185.79
695.092	3333.24
695.281	3216.51
695.47	3314.81
695.659	3196.03
695.848	3224.7
696.037	3077.24
696.226	3296.38
696.415	3222.65
696.604	3163.26
696.793	3105.92
696.982	3114.11
697.171	3236.99
697.36	3009.66
697.549	3116.16
697.738	3079.29
697.927	3124.35
698.116	3175.55
698.305	2985.09
698.494	3038.33
698.683	2976.89
698.872	2956.41
699.061	2989.18
699.25	2997.37
699.438	3091.58
699.627	2999.42
699.816	3038.33
700.005	3019.9
700.193	3032.19
700.382	2970.75
700.571	2851.97
700.76	2849.92
700.948	2944.13
701.137	2813.06
701.326	2815.1
701.514	2786.43
701.703	2817.15
701.892	2835.58
702.08	2796.67
702.269	2776.19
702.457	2841.73
702.646	2718.85
702.834	2679.94
703.023	2669.7
703.212	2589.83
703.4	2667.65
703.589	2665.6
703.777	2579.59
703.965	2595.97
704.154	2665.6
704.342	2655.36
704.531	2636.93
704.719	2614.4
704.907	2632.83
705.096	2675.84
705.284	2548.87
705.472	2540.68
705.661	2401.41
705.849	2505.86
706.037	2518.15
706.226	2493.57
706.414	2471.04
706.602	2489.48
706.79	2417.8
706.979	2380.93
707.167	2421.89
707.355	2411.65
707.543	2452.61
707.731	2458.76
707.919	2456.71
708.107	2342.02
708.296	2403.46
708.484	2331.78
708.672	2382.98
708.86	2266.25
709.048	2311.3
709.236	2299.02
709.424	2327.69
709.612	2280.58
709.8	2251.91
709.988	2268.3
710.176	2233.48
710.364	2241.67
710.551	2286.73
710.739	2219.14
710.927	2172.04
711.115	2210.95
711.303	2253.96
711.491	2071.69
711.679	2186.38
711.866	2186.38
712.054	2143.37
712.242	2100.36
712.43	2155.66
712.617	2081.93
712.805	2065.55
712.993	2083.98
713.181	2043.02
713.368	2067.6
713.556	1948.81
713.744	2010.25
713.931	2051.21
714.119	2055.31
714.306	1965.2
714.494	1985.68
714.682	1995.92
714.869	1793.17
715.057	1946.76
715.244	1916.05
715.432	1967.24
715.619	1926.29
715.807	1926.29
715.994	1899.66
716.182	1965.2
716.369	1887.37
716.556	1879.18
716.744	1817.74
716.931	1844.37
717.119	1887.37
717.306	1844.37
717.493	1772.69
717.681	1778.83
717.868	1784.98
718.055	1660.05
718.242	1705.1
718.43	1787.02
718.617	1721.49
718.804	1784.98
718.991	1778.83
719.179	1705.1
719.366	1655.95
719.553	1672.34
719.74	1604.75
719.927	1688.72
720.114	1676.43
720.301	1660.05
720.488	1719.44
720.676	1707.15
720.863	1621.14
721.05	1719.44
721.237	1631.38
721.424	1574.03
721.611	1621.14
721.798	1512.6
721.985	1520.79
722.172	1653.91
722.358	1496.21
722.545	1516.69
722.732	1569.94
722.919	1490.07
723.106	1518.74
723.293	1471.64
723.48	1469.59
723.667	1475.73
723.853	1432.72
724.04	1508.5
724.227	1383.57
724.414	1324.18
724.6	1383.57
724.787	1483.92
724.974	1440.92
725.161	1473.68
725.347	1367.19
725.534	1410.2
725.72	1426.58
725.907	1352.85
726.094	1342.61
726.28	1315.99
726.467	1418.39
726.653	1383.57
726.84	1338.52
727.027	1344.66
727.213	1350.81
727.4	1332.37
727.586	1285.27
727.773	1236.12
727.959	1367.19
728.145	1289.37
728.332	1297.56
728.518	1293.46
728.705	1180.82
728.891	1232.02
729.077	1238.17
729.264	1248.41
729.45	1203.35
729.636	1238.17
729.823	1229.98
730.009	1203.35
730.195	1203.35
730.382	1141.91
730.568	1320.09
730.754	1160.34
730.94	1127.58
731.126	1195.16
731.313	1244.31
731.499	1184.92
731.685	1105.05
731.871	1170.58
732.057	1252.5
732.243	1096.86
732.429	1123.48
732.615	1121.43
732.801	1115.29
732.987	1129.63
733.173	1062.04
733.359	1078.43
733.545	1072.28
733.731	1066.14
733.917	1170.58
734.103	1064.09
734.289	1117.34
734.475	973.98
734.661	1080.47
734.847	984.22
735.033	1070.23
735.219	1072.28
735.404	1047.71
735.59	1033.37
735.776	971.93
735.962	1037.47
736.148	1019.04
736.333	1049.75
736.519	1070.23
736.705	1033.37
736.89	971.93
737.076	1012.89
737.262	941.21
737.447	959.64
737.633	1068.19
737.819	990.36
738.004	992.41
738.19	971.93
738.375	1049.75
738.561	937.12
738.747	1016.99
738.932	873.63
739.118	1055.9
739.303	918.68
739.489	949.4
739.674	953.5
739.859	914.59
740.045	945.31
740.23	920.73
740.416	853.15
740.601	912.54
740.786	804
740.972	873.63
741.157	896.16
741.342	928.92
741.528	863.39
741.713	953.5
741.898	900.25
742.084	808.09
742.269	890.01
742.454	930.97
742.639	844.96
742.824	861.34
743.01	810.14
743.195	812.19
743.38	818.33
743.565	842.91
743.75	789.66
743.935	810.14
744.12	816.29
744.305	785.57
744.49	781.47
744.675	785.57
744.86	760.99
745.045	773.28
745.23	812.19
745.415	720.03
745.6	775.33
745.785	674.98
745.97	795.81
746.155	705.7
746.34	746.66
746.525	664.74
746.71	773.28
746.895	711.84
747.079	756.9
747.264	754.85
747.449	765.09
747.634	717.98
747.819	668.83
748.003	726.18
748.188	695.46
748.373	691.36
748.557	791.71
748.742	629.92
748.927	736.42
749.111	711.84
749.296	597.15
749.481	689.31
749.665	601.25
749.85	720.03
750.034	687.26
750.219	648.35
750.404	648.35
750.588	674.98
750.773	644.26
750.957	595.11
751.141	525.47
751.326	611.49
751.51	677.02
751.695	638.11
751.879	580.77
752.064	619.68
752.248	601.25
752.432	564.39
752.617	574.63
752.801	611.49
752.985	558.24
753.17	677.02
753.354	607.39
753.538	668.83
753.722	543.91
753.907	556.19
754.091	556.19
754.275	586.91
754.459	621.73
754.643	580.77
754.828	627.87
755.012	560.29
755.196	550.05
755.38	548
755.564	570.53
755.748	527.52
755.932	527.52
756.116	498.85
756.3	552.1
756.484	402.6
756.668	504.99
756.852	478.37
757.036	582.82
757.22	461.99
757.404	500.9
757.588	545.95
757.772	515.23
757.956	439.46
758.14	494.76
758.323	533.67
758.507	504.99
758.691	572.58
758.875	509.09
759.059	459.94
759.242	447.65
759.426	533.67
759.61	453.8
759.794	437.41
759.977	380.07
760.161	517.28
760.345	476.32
760.528	486.56
760.712	461.99
760.895	433.32
761.079	455.84
761.263	435.36
761.446	355.49
761.63	427.17
761.813	476.32
761.997	476.32
762.18	404.64
762.364	384.16
762.547	416.93
762.731	466.08
762.914	347.3
763.098	466.08
763.281	431.27
763.464	431.27
763.648	425.12
763.831	484.52
764.015	439.46
764.198	433.32
764.381	400.55
764.564	468.13
764.748	351.4
764.931	468.13
765.114	400.55
765.297	466.08
765.481	363.69
765.664	459.94
765.847	427.17
766.03	382.12
766.213	390.31
766.397	418.98
766.58	390.31
766.763	380.07
766.946	482.47
767.129	445.6
767.312	371.88
767.495	412.84
767.678	445.6
767.861	443.56
768.044	431.27
768.227	412.84
768.41	427.17
768.593	373.92
768.776	373.92
768.959	466.08
769.142	437.41
769.324	355.49
769.507	418.98
769.69	425.12
769.873	394.4
770.056	351.4
770.239	390.31
770.421	396.45
770.604	373.92
770.787	421.03
770.97	361.64
771.152	287.91
771.335	371.88
771.518	384.16
771.7	335.01
771.883	423.08
772.066	380.07
772.248	447.65
772.431	435.36
772.613	406.69
772.796	289.96
772.978	335.01
773.161	425.12
773.343	369.83
773.526	257.19
773.708	296.1
773.891	367.78
774.073	388.26
774.256	328.87
774.438	384.16
774.621	249
774.803	380.07
774.985	283.81
775.168	445.6
775.35	304.29
775.532	386.21
775.715	388.26
775.897	216.23
776.079	292.01
776.261	343.21
776.444	359.59
776.626	396.45
776.808	330.92
776.99	269.48
777.173	314.53
777.355	277.67
777.537	353.45
777.719	318.63
777.901	322.73
778.083	289.96
778.265	349.35
778.447	320.68
778.629	271.53
778.811	341.16
778.993	326.82
779.175	294.05
779.357	318.63
779.539	273.57
779.721	261.29
779.903	277.67
780.085	271.53
780.267	281.77
780.449	257.19
780.631	265.38
780.812	281.77
780.994	318.63
781.176	249
781.358	236.71
781.54	287.91
781.721	251.05
781.903	355.49
782.085	294.05
782.267	328.87
782.448	222.38
782.63	249
782.812	249
782.993	214.18
783.175	210.09
783.357	193.7
783.538	296.1
783.72	267.43
783.901	312.49
784.083	285.86
784.264	294.05
784.446	203.94
784.627	244.9
784.809	126.12
784.99	203.94
785.172	279.72
785.353	173.22
785.535	232.62
785.716	216.23
785.897	253.09
786.079	193.7
786.26	265.38
786.441	224.42
786.623	173.22
786.804	212.14
786.985	228.52
787.167	255.14
787.348	240.81
787.529	251.05
787.71	210.09
787.891	187.56
788.073	203.94
788.254	160.94
788.435	249
788.616	265.38
788.797	212.14
788.978	228.52
789.159	189.61
789.34	220.33
789.522	183.46
789.703	175.27
789.884	179.37
790.065	132.26
790.246	199.85
790.427	150.7
790.607	183.46
790.788	169.13
790.969	76.97
791.15	232.62
791.331	126.12
791.512	216.23
791.693	171.18
791.874	249
792.054	195.75
792.235	246.95
792.416	185.51
792.597	244.9
792.778	205.99
792.958	160.94
793.139	189.61
793.32	167.08
793.5	212.14
793.681	210.09
793.862	177.32
794.042	175.27
794.223	201.9
794.404	271.53
794.584	138.41
794.765	205.99
794.945	146.6
795.126	150.7
795.306	111.78
795.487	101.55
795.667	126.12
795.848	169.13
796.028	183.46
796.209	171.18
796.389	187.56
796.57	109.74
796.75	101.55
796.93	197.8
797.111	93.35
797.291	111.78
797.471	138.41
797.652	126.12
797.832	181.42
798.012	134.31
798.192	107.69
798.373	140.46
798.553	150.7
798.733	195.75
798.913	142.5
799.093	152.74
799.274	148.65
799.454	140.46
799.634	185.51
799.814	183.46
799.994	160.94
800.174	89.26
800.354	173.22
800.534	117.93
800.714	136.36
800.894	162.98
801.074	117.93
801.254	124.07
801.434	169.13
801.614	189.61
801.794	95.4
801.974	378.02
802.154	150.7
802.334	111.78
802.514	134.31
802.693	115.88
802.873	99.5
803.053	115.88
803.233	158.89
803.413	175.27
803.592	126.12
803.772	68.78
803.952	154.79
804.131	111.78
804.311	91.31
804.491	144.55
804.67	187.56
804.85	103.59
805.03	138.41
805.209	68.78
805.389	134.31
805.568	150.7
805.748	107.69
805.928	97.45
806.107	91.31
806.287	101.55
806.466	105.64
806.646	64.68
806.825	105.64
807.004	117.93
807.184	72.87
807.363	119.98
807.543	134.31
807.722	185.51
807.901	134.31
808.081	95.4
808.26	62.63
808.439	115.88
808.619	76.97
808.798	156.84
808.977	13.48
809.156	150.7
809.336	89.26
809.515	60.59
809.694	130.22
809.873	99.5
810.052	68.78
810.231	124.07
810.411	95.4
810.59	189.61
810.769	89.26
810.948	136.36
811.127	76.97
811.306	156.84
811.485	87.21
811.664	130.22
811.843	48.3
812.022	105.64
812.201	93.35
812.38	62.63
812.559	173.22
812.737	132.26
812.916	33.96
813.095	27.82
813.274	130.22
813.453	167.08
813.632	48.3
813.811	79.02
813.989	95.4
814.168	167.08
814.347	58.54
814.526	99.5
814.704	52.39
814.883	111.78
815.062	81.07
815.24	113.83
815.419	87.21
815.598	72.87
815.776	134.31
815.955	113.83
816.133	89.26
816.312	124.07
816.49	58.54
816.669	119.98
816.847	111.78
817.026	107.69
817.204	99.5
817.383	144.55
817.561	60.59
817.74	58.54
817.918	56.49
818.097	76.97
818.275	87.21
818.453	19.63
818.632	54.44
818.81	81.07
818.988	81.07
819.167	52.39
819.345	56.49
819.523	33.96
819.701	95.4
819.879	91.31
820.058	87.21
820.236	83.11
820.414	117.93
820.592	56.49
820.77	56.49
820.948	74.92
821.127	38.06
821.305	13.48
821.483	25.77
821.661	142.5
821.839	68.78
822.017	85.16
822.195	56.49
822.373	31.91
822.551	27.82
822.729	142.5
822.907	111.78
823.085	132.26
823.262	128.17
823.44	31.91
823.618	72.87
823.796	-35.67
823.974	48.3
824.152	58.54
824.329	85.16
824.507	17.58
824.685	15.53
824.863	76.97
825.04	7.34
825.218	-45.91
825.396	126.12
825.574	40.11
825.751	119.98
825.929	113.83
826.107	60.59
826.284	113.83
826.462	54.44
826.639	50.35
826.817	79.02
826.994	64.68
827.172	101.55
827.349	101.55
827.527	29.87
827.704	107.69
827.882	-45.91
828.059	79.02
828.237	17.58
828.414	70.83
828.591	74.92
828.769	56.49
828.946	64.68
829.124	103.59
829.301	105.64
829.478	40.11
829.655	97.45
829.833	89.26
830.01	101.55
830.187	52.39
830.364	93.35
830.542	3.24
830.719	93.35
830.896	68.78
831.073	144.55
831.25	19.63
831.427	27.82
831.604	79.02
831.782	85.16
831.959	23.72
832.136	122.02
832.313	58.54
832.49	64.68
832.667	62.63
832.844	23.72
833.021	109.74
833.198	36.01
833.374	79.02
833.551	81.07
833.728	52.39
833.905	31.91
834.082	101.55
834.259	25.77
834.436	56.49
834.612	60.59
834.789	156.84
834.966	76.97
835.143	83.11
835.319	89.26
835.496	54.44
835.673	64.68
835.85	72.87
836.026	70.83
836.203	115.88
836.38	48.3
836.556	25.77
836.733	79.02
836.909	29.87
837.086	-37.72
837.262	-9.05
837.439	31.91
837.616	40.11
837.792	138.41
837.968	56.49
838.145	7.34
838.321	46.25
838.498	76.97
838.674	72.87
838.851	60.59
839.027	54.44
839.203	97.45
839.38	56.49
839.556	-31.57
839.732	-13.14
839.909	70.83
840.085	83.11
840.261	-17.24
840.437	50.35
840.614	83.11
840.79	126.12
840.966	13.48
841.142	-11.09
841.318	40.11
841.494	-11.09
841.671	-4.95
841.847	66.73
842.023	5.29
842.199	31.91
842.375	48.3
842.551	74.92
842.727	107.69
842.903	105.64
843.079	66.73
843.255	64.68
843.431	-13.14
843.607	91.31
843.783	46.25
843.959	64.68
844.134	74.92
844.31	144.55
844.486	109.74
844.662	99.5
844.838	29.87
845.013	-2.9
845.189	44.2
845.365	74.92
845.541	64.68
845.716	93.35
845.892	42.15
846.068	40.11
846.244	42.15
846.419	79.02
846.595	29.87
846.77	21.67
846.946	29.87
847.122	40.11
847.297	25.77
847.473	15.53
847.648	11.43
847.824	64.68
847.999	33.96
848.175	7.34
848.35	64.68
848.526	56.49
848.701	87.21
848.876	66.73
849.052	83.11
849.227	66.73
849.403	64.68
849.578	33.96
849.753	33.96
849.929	1.19
850.104	-9.05
850.279	62.63
850.454	93.35
850.63	62.63
850.805	17.58
850.98	27.82
851.155	1.19
851.33	81.07
851.505	31.91
851.681	66.73
851.856	29.87
852.031	11.43
852.206	44.2
852.381	9.39
852.556	23.72
852.731	25.77
852.906	-11.09
853.081	44.2
853.256	25.77
853.431	17.58
853.606	36.01
853.781	-2.9
853.956	-29.52
854.131	42.15
854.305	19.63
854.48	74.92
854.655	31.91
854.83	9.39
855.005	56.49
855.18	33.96
855.354	66.73
855.529	33.96
855.704	70.83
855.879	58.54
856.053	60.59
856.228	-29.52
856.403	33.96
856.577	109.74
856.752	52.39
856.926	11.43
857.101	64.68
857.276	33.96
857.45	40.11
857.625	42.15
857.799	50.35
857.974	83.11
858.148	15.53
858.323	11.43
858.497	76.97
858.672	113.83
858.846	25.77
859.02	68.78
859.195	27.82
859.369	46.25
859.543	40.11
859.718	-0.85
859.892	15.53
860.066	72.87
860.241	9.39
860.415	-9.05
860.589	36.01
860.763	-11.09
860.938	15.53
861.112	36.01
861.286	-9.05
861.46	83.11
861.634	48.3
861.808	83.11
861.982	50.35
862.157	76.97
862.331	33.96
862.505	42.15
862.679	42.15
862.853	40.11
863.027	21.67
863.201	89.26
863.375	-56.15
863.549	19.63
863.722	15.53
863.896	17.58
864.07	62.63
864.244	40.11
864.418	-43.86
864.592	23.72
864.766	17.58
864.939	23.72
865.113	40.11
865.287	66.73
865.461	-13.14
865.634	62.63
865.808	52.39
865.982	-4.95
866.156	29.87
866.329	52.39
866.503	74.92
866.676	33.96
866.85	3.24
867.024	48.3
867.197	52.39
867.371	23.72
867.544	-7
867.718	-21.33
867.891	76.97
868.065	36.01
868.238	68.78
868.412	66.73
868.585	17.58
868.759	-4.95
868.932	36.01
869.105	27.82
869.279	-15.19
869.452	27.82
869.625	54.44
869.799	17.58
869.972	83.11
870.145	3.24
870.319	27.82
870.492	-7
870.665	33.96
870.838	36.01
871.011	5.29
871.185	1.19
871.358	60.59
871.531	72.87
871.704	13.48
871.877	46.25
872.05	42.15
872.223	-2.9
872.396	23.72
872.569	46.25
872.742	-13.14
872.915	-11.09
873.088	36.01
873.261	9.39
873.434	36.01
873.607	48.3
873.78	52.39
873.953	38.06
874.126	-0.85
874.299	25.77
874.471	11.43
874.644	-54.1
874.817	54.44
874.99	17.58
875.163	79.02
875.335	19.63
875.508	-45.91
875.681	81.07
875.853	9.39
876.026	23.72
876.199	68.78
876.371	25.77
876.544	42.15
876.717	17.58
876.889	83.11
877.062	48.3
877.234	38.06
877.407	46.25
877.579	21.67
877.752	31.91
877.924	-13.14
878.097	-4.95
878.269	17.58
878.442	40.11
878.614	36.01
878.786	40.11
878.959	19.63
879.131	72.87
879.303	36.01
879.476	48.3
879.648	-31.57
879.82	42.15
879.993	11.43
880.165	62.63
880.337	70.83
880.509	-33.62
880.681	36.01
880.854	36.01
881.026	81.07
881.198	44.2
881.37	17.58
881.542	15.53
881.714	25.77
881.886	13.48
882.058	-47.96
882.23	79.02
882.402	-13.14
882.574	27.82
882.746	40.11
882.918	66.73
883.09	134.31
883.262	74.92
883.434	79.02
883.606	21.67
883.778	25.77
883.95	66.73
884.122	93.35
884.293	19.63
884.465	38.06
884.637	46.25
884.809	15.53
884.98	-17.24
885.152	21.67
885.324	117.93
885.496	-0.85
885.667	38.06
885.839	-58.2
886.011	50.35
886.182	-35.67
886.354	62.63
886.525	38.06
886.697	11.43
886.869	-21.33
887.04	11.43
887.212	25.77
887.383	-25.43
887.555	50.35
887.726	40.11
887.897	-11.09
888.069	7.34
888.24	72.87
888.412	40.11
888.583	66.73
888.754	64.68
888.926	3.24
889.097	81.07
889.268	5.29
889.44	29.87
889.611	-17.24
889.782	-27.48
889.953	-19.29
890.125	46.25
890.296	48.3
890.467	48.3
890.638	23.72
890.809	36.01
890.98	-39.76
891.151	23.72
891.323	3.24
891.494	-37.72
891.665	15.53
891.836	60.59
892.007	74.92
892.178	9.39
892.349	60.59
892.52	7.34
892.691	60.59
892.862	-0.85
893.032	-4.95
893.203	83.11
893.374	-33.62
893.545	27.82
893.716	44.2
893.887	68.78
894.057	-27.48
894.228	66.73
894.399	72.87
894.57	54.44
894.74	21.67
894.911	5.29
895.082	31.91
895.253	46.25
895.423	105.64
895.594	-4.95
895.764	33.96
895.935	60.59
896.106	66.73
896.276	-64.34
896.447	-11.09
896.617	-25.43
896.788	21.67
896.958	50.35
897.129	-35.67
897.299	52.39
897.47	70.83
897.64	56.49
897.81	-15.19
897.981	-31.57
898.151	21.67
898.322	1.19
898.492	66.73
898.662	15.53
898.832	58.54
899.003	40.11
899.173	-13.14
899.343	27.82
899.513	17.58
