Data from USB4F104151__94__12-54-55-327.txt Node

Date: Fri Mar 14 12:54:55 EDT 2025
User: louis
Spectrometer: USB4F10415
Trigger mode: 4
Integration Time (sec): 1.000000E-2
Scans to average: 1
Electric dark correction enabled: true
Nonlinearity correction enabled: false
Boxcar width: 0
XAxis mode: Wavelengths
Number of Pixels in Spectrum: 3648
>>>>>Begin Spectral Data<<<<<
178.204	-64.85
178.424	-64.85
178.644	-64.85
178.864	-83.28
179.084	-64.85
179.304	-60.76
179.524	-30.04
179.744	51.88
179.964	37.55
180.184	10.92
180.404	15.02
180.624	-25.94
180.844	6.83
181.064	12.97
181.283	-13.65
181.503	2.73
181.723	-7.51
181.943	-11.61
182.163	0.68
182.383	31.4
182.602	-15.7
182.822	-32.08
183.042	23.21
183.262	-13.65
183.482	70.31
183.701	-30.04
183.921	-54.61
184.141	-64.85
184.361	2.73
184.58	-21.84
184.8	41.64
185.02	-50.52
185.239	76.46
185.459	43.69
185.679	31.4
185.898	-54.61
186.118	-44.37
186.338	-5.46
186.557	2.73
186.777	-5.46
186.997	-68.95
187.216	-3.41
187.436	-19.8
187.655	39.59
187.875	15.02
188.095	41.64
188.314	39.59
188.534	47.79
188.753	58.03
188.973	58.03
189.192	-7.51
189.412	-75.09
189.631	-11.61
189.851	10.92
190.07	43.69
190.29	-7.51
190.509	37.55
190.729	35.5
190.948	12.97
191.168	62.12
191.387	10.92
191.607	-21.84
191.826	43.69
192.045	19.11
192.265	-34.13
192.484	-27.99
192.704	21.16
192.923	-42.32
193.142	-30.04
193.362	0.68
193.581	-62.8
193.8	-7.51
194.02	51.88
194.239	12.97
194.458	-3.41
194.678	10.92
194.897	31.4
195.116	-19.8
195.335	-1.37
195.555	29.35
195.774	-46.42
195.993	6.83
196.212	60.07
196.432	-5.46
196.651	6.83
196.87	8.87
197.089	-60.76
197.308	-11.61
197.528	15.02
197.747	-13.65
197.966	35.5
198.185	-7.51
198.404	55.98
198.623	10.92
198.842	10.92
199.062	21.16
199.281	47.79
199.5	2.73
199.719	-9.56
199.938	27.31
200.157	27.31
200.376	53.93
200.595	10.92
200.814	0.68
201.033	-38.23
201.252	-19.8
201.471	27.31
201.69	29.35
201.909	8.87
202.128	12.97
202.347	-7.51
202.566	45.74
202.785	0.68
203.004	41.64
203.223	25.26
203.442	-60.76
203.661	-15.7
203.879	51.88
204.098	39.59
204.317	-48.47
204.536	-13.65
204.755	43.69
204.974	41.64
205.193	-34.13
205.411	21.16
205.63	53.93
205.849	-40.28
206.068	-30.04
206.287	53.93
206.505	41.64
206.724	-36.18
206.943	-15.7
207.162	17.07
207.381	-30.04
207.599	21.16
207.818	-25.94
208.037	-3.41
208.255	-44.37
208.474	15.02
208.693	21.16
208.911	23.21
209.13	-7.51
209.349	23.21
209.567	-34.13
209.786	-52.56
210.005	15.02
210.223	-17.75
210.442	21.16
210.661	25.26
210.879	-15.7
211.098	19.11
211.316	31.4
211.535	70.31
211.753	-36.18
211.972	47.79
212.191	-36.18
212.409	-25.94
212.628	21.16
212.846	-13.65
213.065	23.21
213.283	10.92
213.502	-50.52
213.72	6.83
213.938	-36.18
214.157	-7.51
214.375	-11.61
214.594	39.59
214.812	-5.46
215.031	-21.84
215.249	21.16
215.467	19.11
215.686	-13.65
215.904	4.78
216.122	-27.99
216.341	29.35
216.559	-32.08
216.778	-5.46
216.996	-13.65
217.214	-23.89
217.432	-32.08
217.651	10.92
217.869	-60.76
218.087	-48.47
218.306	-1.37
218.524	15.02
218.742	-19.8
218.96	33.45
219.179	2.73
219.397	27.31
219.615	6.83
219.833	21.16
220.051	-89.43
220.27	10.92
220.488	-40.28
220.706	-32.08
220.924	-15.7
221.142	25.26
221.36	-40.28
221.578	39.59
221.796	0.68
222.015	-13.65
222.233	21.16
222.451	12.97
222.669	-58.71
222.887	41.64
223.105	4.78
223.323	23.21
223.541	-21.84
223.759	2.73
223.977	-42.32
224.195	-5.46
224.413	2.73
224.631	49.83
224.849	4.78
225.067	4.78
225.285	43.69
225.503	35.5
225.721	0.68
225.939	-56.66
226.157	8.87
226.375	-11.61
226.592	-15.7
226.81	45.74
227.028	-3.41
227.246	35.5
227.464	-13.65
227.682	10.92
227.9	66.22
228.117	90.79
228.335	6.83
228.553	39.59
228.771	-54.61
228.989	27.31
229.206	17.07
229.424	74.41
229.642	31.4
229.86	-21.84
230.077	-25.94
230.295	37.55
230.513	41.64
230.731	55.98
230.948	51.88
231.166	41.64
231.384	-25.94
231.601	-19.8
231.819	49.83
232.037	-15.7
232.254	37.55
232.472	-1.37
232.689	8.87
232.907	-17.75
233.125	29.35
233.342	6.83
233.56	25.26
233.777	12.97
233.995	92.84
234.213	31.4
234.43	-15.7
234.648	55.98
234.865	-46.42
235.083	-42.32
235.3	-15.7
235.518	27.31
235.735	66.22
235.953	58.03
236.17	-3.41
236.388	0.68
236.605	17.07
236.822	66.22
237.04	51.88
237.257	35.5
237.475	17.07
237.692	-11.61
237.909	17.07
238.127	27.31
238.344	66.22
238.562	-11.61
238.779	-38.23
238.996	29.35
239.214	-48.47
239.431	-27.99
239.648	19.11
239.865	19.11
240.083	41.64
240.3	27.31
240.517	8.87
240.735	72.36
240.952	8.87
241.169	-9.56
241.386	-32.08
241.603	-46.42
241.821	-1.37
242.038	-36.18
242.255	-56.66
242.472	-64.85
242.689	47.79
242.907	-13.65
243.124	-13.65
243.341	-85.33
243.558	10.92
243.775	78.51
243.992	-5.46
244.209	-34.13
244.426	10.92
244.643	2.73
244.86	4.78
245.078	17.07
245.295	-40.28
245.512	6.83
245.729	-17.75
245.946	21.16
246.163	10.92
246.38	8.87
246.597	-42.32
246.814	39.59
247.031	-38.23
247.248	49.83
247.464	27.31
247.681	25.26
247.898	-7.51
248.115	66.22
248.332	-34.13
248.549	41.64
248.766	33.45
248.983	35.5
249.2	2.73
249.417	-3.41
249.633	49.83
249.85	-36.18
250.067	19.11
250.284	-21.84
250.501	-73.04
250.717	37.55
250.934	29.35
251.151	-7.51
251.368	-19.8
251.585	53.93
251.801	-34.13
252.018	45.74
252.235	43.69
252.451	-17.75
252.668	-40.28
252.885	49.83
253.102	-30.04
253.318	0.68
253.535	-7.51
253.752	2.73
253.968	-5.46
254.185	0.68
254.401	-13.65
254.618	72.36
254.835	-30.04
255.051	62.12
255.268	2.73
255.484	82.6
255.701	107.18
255.917	10.92
256.134	10.92
256.351	55.98
256.567	41.64
256.784	-21.84
257	-79.19
257.217	-19.8
257.433	47.79
257.65	74.41
257.866	58.03
258.082	-40.28
258.299	-77.14
258.515	23.21
258.732	29.35
258.948	2.73
259.165	-13.65
259.381	25.26
259.597	-17.75
259.814	-23.89
260.03	-13.65
260.246	-40.28
260.463	-44.37
260.679	-1.37
260.895	19.11
261.112	41.64
261.328	-11.61
261.544	-5.46
261.761	-19.8
261.977	-56.66
262.193	19.11
262.409	-9.56
262.626	4.78
262.842	31.4
263.058	12.97
263.274	6.83
263.49	-30.04
263.707	58.03
263.923	-75.09
264.139	-44.37
264.355	-25.94
264.571	58.03
264.787	47.79
265.004	23.21
265.22	6.83
265.436	21.16
265.652	33.45
265.868	21.16
266.084	-19.8
266.3	-5.46
266.516	15.02
266.732	15.02
266.948	4.78
267.164	39.59
267.38	6.83
267.596	-62.8
267.812	-54.61
268.028	47.79
268.244	-1.37
268.46	-21.84
268.676	17.07
268.892	21.16
269.108	-44.37
269.324	27.31
269.54	15.02
269.756	-42.32
269.972	43.69
270.188	-38.23
270.403	-7.51
270.619	23.21
270.835	115.37
271.051	-3.41
271.267	-19.8
271.483	82.6
271.698	-19.8
271.914	-3.41
272.13	49.83
272.346	-19.8
272.562	19.11
272.777	17.07
272.993	37.55
273.209	19.11
273.425	17.07
273.64	33.45
273.856	33.45
274.072	41.64
274.287	-83.28
274.503	25.26
274.719	-23.89
274.934	51.88
275.15	2.73
275.366	8.87
275.581	-1.37
275.797	43.69
276.012	6.83
276.228	-11.61
276.444	51.88
276.659	-5.46
276.875	-27.99
277.09	19.11
277.306	2.73
277.521	-79.19
277.737	6.83
277.952	0.68
278.168	-7.51
278.383	-5.46
278.599	15.02
278.814	31.4
279.03	55.98
279.245	25.26
279.461	25.26
279.676	-97.62
279.892	-25.94
280.107	27.31
280.322	-15.7
280.538	-9.56
280.753	21.16
280.969	129.7
281.184	-7.51
281.399	-1.37
281.615	45.74
281.83	0.68
282.045	-25.94
282.26	45.74
282.476	-32.08
282.691	-89.43
282.906	8.87
283.122	-7.51
283.337	-3.41
283.552	-32.08
283.767	-5.46
283.983	-25.94
284.198	-32.08
284.413	55.98
284.628	55.98
284.843	51.88
285.058	25.26
285.274	-42.32
285.489	35.5
285.704	19.11
285.919	-46.42
286.134	21.16
286.349	-5.46
286.564	25.26
286.779	0.68
286.995	-1.37
287.21	23.21
287.425	-23.89
287.64	33.45
287.855	-40.28
288.07	27.31
288.285	2.73
288.5	15.02
288.715	-3.41
288.93	8.87
289.145	10.92
289.36	-42.32
289.575	-1.37
289.79	6.83
290.004	4.78
290.219	-30.04
290.434	29.35
290.649	35.5
290.864	-7.51
291.079	2.73
291.294	53.93
291.509	-15.7
291.724	-7.51
291.938	41.64
292.153	-7.51
292.368	-40.28
292.583	43.69
292.798	-9.56
293.012	27.31
293.227	35.5
293.442	-19.8
293.657	-25.94
293.871	37.55
294.086	84.65
294.301	15.02
294.516	31.4
294.73	-30.04
294.945	-38.23
295.16	62.12
295.374	74.41
295.589	-5.46
295.804	-21.84
296.018	10.92
296.233	2.73
296.447	-5.46
296.662	-64.85
296.877	15.02
297.091	82.6
297.306	21.16
297.52	15.02
297.735	17.07
297.949	-54.61
298.164	31.4
298.378	12.97
298.593	4.78
298.807	-23.89
299.022	17.07
299.236	23.21
299.451	23.21
299.665	-36.18
299.88	-5.46
300.094	-9.56
300.309	25.26
300.523	10.92
300.737	-5.46
300.952	27.31
301.166	47.79
301.381	-7.51
301.595	2.73
301.809	-19.8
302.024	27.31
302.238	-30.04
302.452	74.41
302.667	-1.37
302.881	84.65
303.095	78.51
303.309	-81.24
303.524	25.26
303.738	2.73
303.952	-42.32
304.166	-11.61
304.381	-7.51
304.595	-17.75
304.809	27.31
305.023	8.87
305.237	33.45
305.452	47.79
305.666	-7.51
305.88	25.26
306.094	41.64
306.308	-7.51
306.522	60.07
306.736	43.69
306.95	17.07
307.164	-56.66
307.379	-1.37
307.593	4.78
307.807	4.78
308.021	41.64
308.235	-25.94
308.449	8.87
308.663	-13.65
308.877	21.16
309.091	49.83
309.305	53.93
309.519	17.07
309.733	-23.89
309.947	25.26
310.161	-21.84
310.374	66.22
310.588	25.26
310.802	-5.46
311.016	-42.32
311.23	47.79
311.444	-13.65
311.658	-42.32
311.872	47.79
312.085	-5.46
312.299	41.64
312.513	-17.75
312.727	19.11
312.941	-52.56
313.154	-36.18
313.368	-21.84
313.582	0.68
313.796	45.74
314.009	29.35
314.223	53.93
314.437	10.92
314.651	25.26
314.864	25.26
315.078	-23.89
315.292	6.83
315.505	45.74
315.719	39.59
315.933	-1.37
316.146	33.45
316.36	15.02
316.573	-15.7
316.787	45.74
317.001	4.78
317.214	-15.7
317.428	45.74
317.641	-54.61
317.855	4.78
318.068	-5.46
318.282	17.07
318.495	-13.65
318.709	33.45
318.922	-15.7
319.136	-19.8
319.349	23.21
319.563	-9.56
319.776	-15.7
319.99	-1.37
320.203	-5.46
320.417	-7.51
320.63	23.21
320.843	33.45
321.057	60.07
321.27	62.12
321.483	-32.08
321.697	25.26
321.91	-42.32
322.124	33.45
322.337	-25.94
322.55	80.55
322.763	21.16
322.977	-7.51
323.19	23.21
323.403	-32.08
323.617	15.02
323.83	10.92
324.043	60.07
324.256	31.4
324.469	33.45
324.683	-15.7
324.896	-15.7
325.109	103.08
325.322	21.16
325.535	29.35
325.748	-3.41
325.962	33.45
326.175	12.97
326.388	2.73
326.601	-46.42
326.814	23.21
327.027	19.11
327.24	23.21
327.453	-5.46
327.666	-21.84
327.879	19.11
328.092	19.11
328.305	-17.75
328.518	-9.56
328.731	41.64
328.944	10.92
329.157	15.02
329.37	-21.84
329.583	6.83
329.796	-17.75
330.009	23.21
330.222	-38.23
330.435	2.73
330.648	37.55
330.861	41.64
331.073	33.45
331.286	-7.51
331.499	10.92
331.712	-5.46
331.925	-36.18
332.138	-32.08
332.35	37.55
332.563	-34.13
332.776	-23.89
332.989	86.7
333.202	23.21
333.414	29.35
333.627	31.4
333.84	35.5
334.053	53.93
334.265	6.83
334.478	86.7
334.691	70.31
334.903	17.07
335.116	84.65
335.329	15.02
335.541	0.68
335.754	-7.51
335.966	8.87
336.179	29.35
336.392	-32.08
336.604	27.31
336.817	17.07
337.029	19.11
337.242	21.16
337.454	53.93
337.667	27.31
337.88	17.07
338.092	29.35
338.305	-19.8
338.517	4.78
338.729	-15.7
338.942	19.11
339.154	-48.47
339.367	6.83
339.579	72.36
339.792	-9.56
340.004	35.5
340.217	12.97
340.429	-38.23
340.641	-9.56
340.854	8.87
341.066	-81.24
341.278	37.55
341.491	-11.61
341.703	-48.47
341.915	4.78
342.128	47.79
342.34	-9.56
342.552	-11.61
342.764	6.83
342.977	21.16
343.189	66.22
343.401	-3.41
343.613	-73.04
343.826	-32.08
344.038	8.87
344.25	-11.61
344.462	4.78
344.674	-15.7
344.886	-3.41
345.099	23.21
345.311	8.87
345.523	-5.46
345.735	-30.04
345.947	62.12
346.159	29.35
346.371	41.64
346.583	-40.28
346.795	49.83
347.007	23.21
347.219	-15.7
347.431	2.73
347.643	15.02
347.855	-7.51
348.067	-34.13
348.279	29.35
348.491	-5.46
348.703	27.31
348.915	80.55
349.127	27.31
349.339	-23.89
349.551	31.4
349.763	70.31
349.975	17.07
350.187	-3.41
350.399	-1.37
350.61	68.27
350.822	43.69
351.034	29.35
351.246	21.16
351.458	8.87
351.669	-27.99
351.881	33.45
352.093	6.83
352.305	-15.7
352.517	19.11
352.728	37.55
352.94	-13.65
353.152	8.87
353.363	-13.65
353.575	10.92
353.787	76.46
353.999	-32.08
354.21	49.83
354.422	37.55
354.633	58.03
354.845	10.92
355.057	-50.52
355.268	49.83
355.48	53.93
355.692	49.83
355.903	49.83
356.115	-7.51
356.326	-19.8
356.538	2.73
356.749	8.87
356.961	-21.84
357.172	2.73
357.384	47.79
357.595	-21.84
357.807	6.83
358.018	58.03
358.23	-36.18
358.441	41.64
358.653	90.79
358.864	-52.56
359.075	17.07
359.287	29.35
359.498	66.22
359.709	70.31
359.921	37.55
360.132	27.31
360.344	-25.94
360.555	8.87
360.766	43.69
360.977	-9.56
361.189	2.73
361.4	-1.37
361.611	8.87
361.823	17.07
362.034	-15.7
362.245	4.78
362.456	45.74
362.667	-75.09
362.879	51.88
363.09	-21.84
363.301	4.78
363.512	47.79
363.723	68.27
363.935	-46.42
364.146	25.26
364.357	-11.61
364.568	-30.04
364.779	49.83
364.99	-25.94
365.201	-3.41
365.412	53.93
365.623	-21.84
365.834	53.93
366.045	8.87
366.256	74.41
366.467	33.45
366.678	-1.37
366.889	51.88
367.1	41.64
367.311	-27.99
367.522	-34.13
367.733	8.87
367.944	15.02
368.155	-34.13
368.366	25.26
368.577	43.69
368.788	25.26
368.999	-15.7
369.209	60.07
369.42	6.83
369.631	66.22
369.842	-32.08
370.053	17.07
370.264	0.68
370.474	-19.8
370.685	0.68
370.896	-21.84
371.107	25.26
371.317	37.55
371.528	-32.08
371.739	43.69
371.95	15.02
372.16	0.68
372.371	6.83
372.582	-13.65
372.792	-19.8
373.003	-15.7
373.214	12.97
373.424	45.74
373.635	-17.75
373.846	29.35
374.056	-64.85
374.267	-19.8
374.477	27.31
374.688	17.07
374.898	-15.7
375.109	-40.28
375.319	72.36
375.53	-13.65
375.74	6.83
375.951	37.55
376.161	12.97
376.372	-7.51
376.582	-56.66
376.793	2.73
377.003	27.31
377.214	-17.75
377.424	33.45
377.635	19.11
377.845	-32.08
378.055	-7.51
378.266	86.7
378.476	17.07
378.686	2.73
378.897	2.73
379.107	74.41
379.317	0.68
379.528	23.21
379.738	51.88
379.948	-21.84
380.158	17.07
380.369	6.83
380.579	-1.37
380.789	23.21
380.999	64.17
381.21	-13.65
381.42	15.02
381.63	35.5
381.84	12.97
382.05	15.02
382.261	37.55
382.471	-7.51
382.681	31.4
382.891	-9.56
383.101	2.73
383.311	0.68
383.521	39.59
383.731	-38.23
383.941	55.98
384.151	-9.56
384.361	-11.61
384.571	21.16
384.781	49.83
384.991	27.31
385.201	37.55
385.411	17.07
385.621	23.21
385.831	21.16
386.041	2.73
386.251	29.35
386.461	70.31
386.671	4.78
386.881	41.64
387.091	-9.56
387.301	84.65
387.511	-32.08
387.72	-3.41
387.93	2.73
388.14	76.46
388.35	0.68
388.56	-25.94
388.769	31.4
388.979	10.92
389.189	17.07
389.399	-17.75
389.609	51.88
389.818	60.07
390.028	-27.99
390.238	43.69
390.447	45.74
390.657	45.74
390.867	2.73
391.076	15.02
391.286	8.87
391.496	47.79
391.705	-40.28
391.915	0.68
392.125	25.26
392.334	35.5
392.544	-40.28
392.753	49.83
392.963	-25.94
393.172	-23.89
393.382	-13.65
393.591	35.5
393.801	23.21
394.01	-48.47
394.22	103.08
394.429	43.69
394.639	41.64
394.848	60.07
395.058	19.11
395.267	19.11
395.477	12.97
395.686	0.68
395.895	43.69
396.105	60.07
396.314	-19.8
396.524	70.31
396.733	-13.65
396.942	23.21
397.152	68.27
397.361	51.88
397.57	49.83
397.78	58.03
397.989	17.07
398.198	15.02
398.407	-34.13
398.617	6.83
398.826	-5.46
399.035	70.31
399.244	70.31
399.453	66.22
399.663	64.17
399.872	31.4
400.081	19.11
400.29	-3.41
400.499	12.97
400.708	60.07
400.917	35.5
401.127	-5.46
401.336	-60.76
401.545	33.45
401.754	62.12
401.963	43.69
402.172	27.31
402.381	37.55
402.59	74.41
402.799	43.69
403.008	-7.51
403.217	21.16
403.426	6.83
403.635	29.35
403.844	94.89
404.053	94.89
404.262	41.64
404.471	94.89
404.68	47.79
404.888	74.41
405.097	39.59
405.306	45.74
405.515	58.03
405.724	19.11
405.933	-23.89
406.142	66.22
406.35	49.83
406.559	-5.46
406.768	66.22
406.977	-25.94
407.185	51.88
407.394	74.41
407.603	49.83
407.812	33.45
408.02	98.99
408.229	72.36
408.438	101.03
408.646	49.83
408.855	109.23
409.064	146.09
409.272	98.99
409.481	105.13
409.69	103.08
409.898	90.79
410.107	66.22
410.315	129.7
410.524	45.74
410.733	141.99
410.941	49.83
411.15	115.37
411.358	174.76
411.567	92.84
411.775	121.51
411.984	86.7
412.192	90.79
412.401	189.1
412.609	176.81
412.818	121.51
413.026	117.42
413.234	144.04
413.443	176.81
413.651	113.32
413.86	185
414.068	160.42
414.276	187.05
414.485	127.66
414.693	180.9
414.901	232.1
415.11	178.86
415.318	242.34
415.526	225.96
415.734	197.29
415.943	299.69
416.151	295.59
416.359	307.88
416.567	223.91
416.776	234.15
416.984	303.78
417.192	250.53
417.4	289.45
417.608	305.83
417.817	322.21
418.025	281.25
418.233	336.55
418.441	328.36
418.649	471.72
418.857	406.18
419.065	428.71
419.273	418.47
419.481	443.04
419.689	445.09
419.897	410.28
420.105	455.33
420.313	484
420.521	527.01
420.729	461.48
420.937	496.29
421.145	567.97
421.353	582.31
421.561	518.82
421.769	553.63
421.977	696.99
422.185	633.51
422.393	608.93
422.601	752.29
422.809	629.41
423.017	766.62
423.224	699.04
423.432	815.77
423.64	756.38
423.848	846.49
424.056	836.25
424.263	805.53
424.471	901.79
424.679	926.36
424.887	981.66
425.094	942.75
425.302	967.32
425.51	993.95
425.718	1036.95
425.925	1110.68
426.133	1067.67
426.341	1030.81
426.548	1223.32
426.756	1211.03
426.964	1223.32
427.171	1196.7
427.379	1284.76
427.586	1352.34
427.794	1383.06
428.001	1450.64
428.209	1391.25
428.417	1415.83
428.624	1630.87
428.832	1589.91
429.039	1467.03
429.247	1583.76
429.454	1704.59
429.662	1850
429.869	1780.37
430.076	1753.74
430.284	1708.69
430.491	1845.9
430.699	1872.53
430.906	1989.26
431.114	2007.69
431.321	2122.38
431.528	2105.99
431.736	2235.02
431.943	2337.41
432.15	2435.72
432.358	2300.55
432.565	2339.46
432.772	2450.05
432.979	2534.02
433.187	2685.57
433.394	2652.8
433.601	2740.86
433.808	2802.3
434.016	2718.34
434.223	2884.22
434.43	3052.16
434.637	3074.68
434.844	3252.86
435.052	3316.34
435.259	3283.58
435.466	3113.6
435.673	3320.44
435.88	3451.51
436.087	3594.87
436.294	3590.77
436.501	3502.71
436.708	3562.1
436.915	3848.82
437.122	3852.91
437.329	3951.21
437.537	4098.67
437.743	4125.29
437.95	4088.43
438.157	4299.37
438.364	4389.48
438.571	4414.06
438.778	4407.91
438.985	4964.96
439.192	4672.1
439.399	4737.63
439.606	4713.06
439.813	4942.43
440.02	5257.82
440.227	5235.29
440.433	5180
440.64	5360.22
440.847	5249.63
441.054	5411.42
441.261	5714.52
441.467	5708.37
441.674	5952.08
441.881	5954.13
442.088	5913.17
442.294	5974.61
442.501	6154.83
442.708	6494.79
442.914	6367.82
443.121	6842.95
443.328	6646.34
443.534	6890.05
443.741	6994.5
443.948	6701.64
444.154	7213.63
444.361	7424.57
444.568	7490.1
444.774	7412.28
444.981	7305.79
445.187	7574.07
445.394	7834.16
445.6	7764.53
445.807	8485.42
446.013	8151.6
446.22	8342.06
446.426	8622.63
446.633	8839.72
446.839	9038.37
447.046	8704.55
447.252	9286.17
447.459	9036.32
447.665	9196.06
447.871	9521.69
448.078	9980.43
448.284	9490.97
448.491	9603.61
448.697	10123.79
448.903	10246.67
449.11	10304.01
449.316	10144.27
449.522	10322.45
449.728	10746.37
449.935	10832.39
450.141	10635.78
450.347	10955.27
450.553	10537.48
450.76	10871.3
450.966	11092.48
451.172	11033.09
451.378	11260.41
451.584	10940.93
451.791	11352.57
451.997	11524.6
452.203	11307.52
452.409	11700.73
452.615	11440.64
452.821	10990.08
453.027	10844.68
453.233	11741.69
453.44	11104.77
453.646	11063.81
453.852	11264.51
454.058	11373.05
454.264	11049.47
454.47	11305.47
454.676	10922.5
454.882	11371.01
455.088	10441.23
455.294	10650.12
455.5	10631.69
455.705	10740.23
455.911	10381.84
456.117	10080.78
456.323	10162.7
456.529	9519.64
456.735	9781.78
456.941	9769.49
457.147	9515.55
457.352	9155.1
457.558	9130.53
457.764	9200.16
457.97	8923.68
458.176	8675.88
458.381	8835.62
458.587	8194.61
458.793	8346.16
458.999	8092.21
459.204	8309.29
459.41	8198.7
459.616	7746.1
459.821	7735.86
460.027	7703.09
460.233	7612.98
460.438	7230.01
460.644	7260.73
460.85	6918.72
461.055	6804.03
461.261	6758.98
461.466	6242.89
461.672	6115.92
461.878	6480.46
462.083	6144.59
462.289	5913.17
462.494	5837.39
462.7	5515.86
462.905	5366.36
463.111	5720.66
463.316	5796.43
463.522	5712.47
463.727	5532.25
463.932	5673.56
464.138	5509.72
464.343	5710.42
464.549	5364.31
464.754	5755.47
464.959	5399.13
465.165	5448.28
465.37	5304.92
465.575	5206.62
465.781	5292.63
465.986	5331.55
466.191	5106.27
466.397	5055.07
466.602	4788.83
466.807	5036.64
467.012	5022.3
467.218	4940.38
467.423	4872.8
467.628	4909.66
467.833	5077.6
468.038	4883.04
468.244	4878.94
468.449	4995.68
468.654	4862.56
468.859	4729.44
469.064	4799.07
469.269	4610.66
469.474	4754.02
469.679	4737.63
469.885	4401.77
470.09	4586.08
470.295	4663.91
470.5	4422.25
470.705	4616.8
470.91	4399.72
471.115	4432.49
471.32	4442.73
471.525	4543.08
471.73	4344.42
471.935	4440.68
472.139	4258.41
472.344	4190.83
472.549	4362.86
472.754	4026.99
472.959	3879.54
473.164	4002.41
473.369	4043.37
473.574	3977.84
473.778	4047.47
473.983	4051.56
474.188	3977.84
474.393	3756.66
474.598	3926.64
474.802	3842.67
475.007	3672.69
475.212	3797.62
475.417	3488.37
475.621	3566.2
475.826	3639.92
476.031	3531.38
476.235	3392.12
476.44	3549.81
476.645	3365.5
476.849	3545.72
477.054	3441.27
477.259	3461.75
477.463	3295.86
477.668	3340.92
477.872	3353.21
478.077	3273.34
478.282	3273.34
478.486	3156.6
478.691	3117.69
478.895	3224.19
479.1	3160.7
479.304	3050.11
479.509	2947.71
479.713	3168.89
479.918	2927.23
480.122	3019.39
480.326	2957.95
480.531	3121.79
480.735	3064.44
480.94	2912.89
481.144	3091.07
481.348	2986.62
481.553	2902.65
481.757	2835.07
481.961	2914.94
482.166	3005.05
482.37	2884.22
482.574	2859.65
482.778	2949.76
482.983	3070.59
483.187	2998.91
483.391	3078.78
483.595	2978.43
483.8	2886.27
484.004	2882.17
484.208	2886.27
484.412	3052.16
484.616	2808.45
484.821	2974.33
485.025	2861.69
485.229	2935.42
485.433	2968.19
485.637	2861.69
485.841	2871.93
486.045	2837.12
486.249	2964.09
486.453	2898.56
486.657	2943.61
486.861	2814.59
487.065	2873.98
487.269	2902.65
487.473	2845.31
487.677	3007.1
487.881	2923.13
488.085	2988.67
488.289	2857.6
488.493	2781.82
488.697	2886.27
488.901	2974.33
489.105	2933.37
489.309	2990.72
489.512	2970.24
489.716	3009.15
489.92	2984.57
490.124	2886.27
490.328	2990.72
490.531	3015.29
490.735	3089.02
490.939	2988.67
491.143	2871.93
491.346	2960
491.55	3060.35
491.754	3023.48
491.958	3154.55
492.161	2998.91
492.365	3066.49
492.569	3003
492.772	3111.55
492.976	3080.83
493.18	3121.79
493.383	3039.87
493.587	3205.75
493.79	3148.41
493.994	3170.94
494.197	3281.53
494.401	3252.86
494.605	3263.1
494.808	3359.35
495.012	3224.19
495.215	3181.18
495.419	3316.34
495.622	3252.86
495.825	3385.98
496.029	3349.11
496.232	3332.73
496.436	3357.3
496.639	3471.99
496.843	3504.76
497.046	3711.6
497.249	3607.16
497.453	3689.07
497.656	3633.78
497.859	3613.3
498.063	3834.48
498.266	3768.95
498.469	3697.27
498.673	3943.02
498.876	3793.52
499.079	3949.17
499.282	4170.35
499.485	3977.84
499.689	3883.63
499.892	4070
500.095	4151.92
500.298	4143.72
500.501	4178.54
500.705	4188.78
500.908	4362.86
501.111	4414.06
501.314	4473.45
501.517	4502.12
501.72	4514.41
501.923	4563.56
502.126	4446.82
502.329	4692.58
502.532	4670.05
502.735	4817.51
502.938	4682.34
503.141	4803.17
503.344	4979.29
503.547	4936.29
503.75	4956.77
503.953	5065.31
504.156	5261.91
504.359	5200.48
504.562	5194.33
504.765	5136.99
504.968	5397.08
505.17	5343.83
505.373	5319.26
505.576	5392.98
505.779	5663.32
505.982	5565.01
506.185	5605.97
506.387	5730.9
506.59	5806.67
506.793	5917.26
506.996	5755.47
507.198	6085.2
507.401	5874.26
507.604	6034
507.807	6120.01
508.009	6148.68
508.212	6134.35
508.415	6435.4
508.617	6423.11
508.82	6361.67
509.022	6564.42
509.225	6580.81
509.428	6660.68
509.63	6535.75
509.833	6844.99
510.035	6855.23
510.238	6810.18
510.44	7002.69
510.643	6969.92
510.845	7039.55
511.048	7125.57
511.25	7160.38
511.453	7201.34
511.655	7377.47
511.858	7543.35
512.06	7461.43
512.262	7672.37
512.465	7621.17
512.667	7834.16
512.87	7801.4
513.072	7805.49
513.274	8016.43
513.477	7854.64
513.679	8090.16
513.881	8264.24
514.084	8114.73
514.286	8210.99
514.488	8256.04
514.69	8557.1
514.893	8514.09
515.095	8639.01
515.297	8714.79
515.499	8886.82
515.701	8860.2
515.904	8841.76
516.106	8966.69
516.308	9013.79
516.51	9189.92
516.712	8987.17
516.914	9320.99
517.116	9331.23
517.318	9454.11
517.52	9429.53
517.722	9466.39
517.925	9681.43
518.127	9794.07
518.329	9665.05
518.531	9910.8
518.733	9921.04
518.935	10187.28
519.136	9966.1
519.338	10224.14
519.54	10189.33
519.742	10101.26
519.944	10271.25
520.146	10392.08
520.348	10545.67
520.55	10641.93
520.752	10715.66
520.954	10832.39
521.155	10891.78
521.357	10953.22
521.559	10889.73
521.761	11180.54
521.963	11106.82
522.164	10934.79
522.366	11221.5
522.568	11215.36
522.77	11381.24
522.971	11624.95
523.173	11387.39
523.375	11643.39
523.576	11487.74
523.778	11823.61
523.98	11551.23
524.181	11856.37
524.383	11901.43
524.584	12050.93
524.786	12038.64
524.988	11944.44
525.189	12190.19
525.391	12300.78
525.592	12165.62
525.794	11981.3
525.995	12354.03
526.197	12335.6
526.398	12403.18
526.6	12503.53
526.801	12691.94
527.003	12497.39
527.204	12370.41
527.406	12718.57
527.607	12624.36
527.808	12671.47
528.01	12534.25
528.211	12773.86
528.412	12761.58
528.614	12851.69
528.815	12726.76
529.016	12997.09
529.218	12872.17
529.419	13113.83
529.62	13134.31
529.822	12966.37
530.023	12954.08
530.224	13021.67
530.425	13093.35
530.626	13058.53
530.828	12849.64
531.029	13205.99
531.23	13392.35
531.431	13079.01
531.632	13117.92
531.833	13136.35
532.035	12984.8
532.236	13384.16
532.437	13205.99
532.638	13302.24
532.839	13214.18
533.04	13208.03
533.241	12894.69
533.442	13421.02
533.643	13212.13
533.844	13228.51
534.045	13351.39
534.246	13179.36
534.447	13558.24
534.648	13339.1
534.849	13316.58
535.05	13142.5
535.251	13337.06
535.451	13007.33
535.652	13398.49
535.853	13148.64
536.054	13378.01
536.255	13429.21
536.456	13240.8
536.657	13437.41
536.857	13382.11
537.058	13302.24
537.259	13386.21
537.46	13332.96
537.66	13292
537.861	13169.12
538.062	13238.75
538.263	13208.03
538.463	13332.96
538.664	13081.06
538.865	13380.06
539.065	13298.14
539.266	13197.79
539.466	13222.37
539.667	12993
539.868	13595.1
540.068	13095.39
540.269	13191.65
540.469	13382.11
540.67	13304.29
540.87	13464.03
541.071	13316.58
541.271	13267.42
541.472	13271.52
541.672	13109.73
541.873	13097.44
542.073	13369.82
542.274	13433.31
542.474	13369.82
542.675	13132.26
542.875	13322.72
543.075	13271.52
543.276	13314.53
543.476	13189.6
543.676	13210.08
543.877	13240.8
544.077	13216.23
544.277	13062.63
544.478	13177.31
544.678	13308.38
544.878	13017.57
545.078	13158.88
545.279	13044.2
545.479	13136.35
545.679	12993
545.879	13255.14
546.079	13273.57
546.28	13003.24
546.48	13140.45
546.68	13240.8
546.88	13097.44
547.08	13095.39
547.28	13220.32
547.48	13027.81
547.68	13265.38
547.88	13119.97
548.081	13238.75
548.281	13240.8
548.481	13083.11
548.681	13177.31
548.881	13044.2
549.081	13081.06
549.28	13099.49
549.48	13068.77
549.68	13134.31
549.88	13257.18
550.08	13060.58
550.28	12962.28
550.48	13177.31
550.68	13148.64
550.88	13119.97
551.08	13091.3
551.279	13091.3
551.479	12947.94
551.679	13023.72
551.879	13154.79
552.079	13083.11
552.278	13019.62
552.478	13105.63
552.678	12872.17
552.878	12911.08
553.077	13248.99
553.277	12927.46
553.477	13103.59
553.676	12915.17
553.876	12894.69
554.076	12794.34
554.275	12812.78
554.475	12810.73
554.674	13027.81
554.874	12847.59
555.074	12743.14
555.273	12923.37
555.473	12931.56
555.672	12499.44
555.872	12700.14
556.071	12863.97
556.271	12896.74
556.47	12839.4
556.67	12835.3
556.869	12683.75
557.068	13058.53
557.268	12669.42
557.467	12863.97
557.667	12515.82
557.866	12892.65
558.065	12634.6
558.265	12476.91
558.464	12536.3
558.663	12763.62
558.863	12605.93
559.062	12896.74
559.261	12554.73
559.461	12691.94
559.66	12478.96
559.859	12601.83
560.058	12413.42
560.258	12452.33
560.457	12478.96
560.656	12689.9
560.855	12354.03
561.054	12597.74
561.253	12483.05
561.453	12374.51
561.652	12628.46
561.851	12620.27
562.05	12407.28
562.249	12370.41
562.448	12409.33
562.647	12433.9
562.846	12497.39
563.045	12327.41
563.244	12278.26
563.443	12425.71
563.642	12276.21
563.841	12222.96
564.04	12132.85
564.239	11989.49
564.438	12276.21
564.637	12366.32
564.836	12263.92
565.035	12161.52
565.234	12167.66
565.432	12151.28
565.631	12233.2
565.83	12147.19
566.029	12026.36
566.228	11940.34
566.427	11944.44
566.625	11887.09
566.824	11782.65
567.023	12087.79
567.222	11682.3
567.42	12073.46
567.619	11809.27
567.818	11878.9
568.016	11966.96
568.215	11899.38
568.414	11731.45
568.612	11790.84
568.811	11756.02
569.01	11825.65
569.208	11575.8
569.407	11747.83
569.605	11739.64
569.804	11862.52
570.002	11481.6
570.201	11416.06
570.4	11409.92
570.598	11569.66
570.797	11401.72
570.995	11362.81
571.193	11366.91
571.392	11313.66
571.59	11274.75
571.789	11293.18
571.987	11231.74
572.186	11350.53
572.384	11141.63
572.582	11391.48
572.781	11203.07
572.979	11321.85
573.177	11346.43
573.376	11342.33
573.574	10801.67
573.772	11287.04
573.971	11053.57
574.169	11164.16
574.367	11076.1
574.565	11041.28
574.763	10947.08
574.962	10955.27
575.16	10912.26
575.358	11080.19
575.556	10775.05
575.754	11035.14
575.952	10787.33
576.151	10830.34
576.349	10715.66
576.547	10629.64
576.745	10801.67
576.943	10631.69
577.141	10562.06
577.339	10701.32
577.537	10525.19
577.735	10707.46
577.933	10662.41
578.131	10664.46
578.329	10459.66
578.527	10422.8
578.725	10416.65
578.923	10551.82
579.121	10543.63
579.319	10299.92
579.516	10230.29
579.714	10336.78
579.912	10435.08
580.11	10332.68
580.308	10316.3
580.506	10353.16
580.704	10111.5
580.901	10562.06
581.099	10347.02
581.297	10113.55
581.495	10113.55
581.692	10168.85
581.89	10197.52
582.088	10119.7
582.285	10091.02
582.483	10041.87
582.681	10043.92
582.878	9865.75
583.076	9939.48
583.274	10218
583.471	9935.38
583.669	9955.86
583.866	9853.46
584.064	9886.23
584.262	9454.11
584.459	9783.83
584.657	9714.2
584.854	10019.35
585.052	9576.98
585.249	9634.33
585.447	9736.73
585.644	9574.94
585.841	9802.26
586.039	9695.77
586.236	9476.63
586.434	9394.72
586.631	9720.34
586.828	9462.3
587.026	9357.85
587.223	9435.67
587.42	9585.18
587.618	9277.98
587.815	9210.4
588.012	9343.52
588.21	9423.39
588.407	9316.89
588.604	9398.81
588.801	9224.73
588.999	9306.65
589.196	9259.55
589.393	9472.54
589.59	9085.47
589.787	9179.68
589.984	9103.9
590.182	9157.15
590.379	9091.62
590.576	9036.32
590.773	8958.5
590.97	8860.2
591.167	9126.43
591.364	8788.52
591.561	9036.32
591.758	8874.53
591.955	8694.31
592.152	9034.27
592.349	8782.37
592.546	8784.42
592.743	8847.91
592.94	8704.55
593.137	8770.08
593.334	8737.32
593.531	8639.01
593.727	8673.83
593.924	8497.7
594.121	8542.76
594.318	8581.67
594.515	8397.35
594.712	8395.31
594.908	8448.55
595.105	8518.18
595.302	8579.62
595.499	8604.2
595.696	8266.28
595.892	8409.64
596.089	8526.38
596.286	8327.72
596.482	8368.68
596.679	8374.83
596.876	8356.4
597.072	8157.74
597.269	8356.4
597.466	8135.21
597.662	8124.97
597.859	8241.71
598.055	8210.99
598.252	8090.16
598.448	8233.52
598.645	7995.95
598.841	7948.85
599.038	8053.3
599.234	7942.71
599.431	7969.33
599.627	7840.31
599.824	8243.76
600.02	7868.98
600.217	7916.08
600.413	7793.2
600.609	7897.65
600.806	7672.37
601.002	8000.05
601.198	7762.48
601.395	7842.35
601.591	7701.05
601.787	7791.16
601.984	7705.14
602.18	7893.55
602.376	7629.37
602.572	7635.51
602.769	7653.94
602.965	7576.12
603.161	7680.57
603.357	7512.63
603.553	7612.98
603.75	7461.43
603.946	7416.38
604.142	7406.14
604.338	7236.16
604.534	7541.3
604.73	7299.64
604.926	7514.68
605.122	7209.53
605.318	7176.77
605.514	7447.1
605.71	7170.62
605.906	7264.83
606.102	7119.42
606.298	7162.43
606.494	7293.5
606.69	7250.49
606.886	7154.24
607.082	7012.93
607.278	7201.34
607.474	7062.08
607.67	7152.19
607.866	6994.5
608.062	7264.83
608.257	7033.41
608.453	6988.35
608.649	6867.52
608.845	6951.49
609.041	6996.54
609.236	6992.45
609.432	6888
609.628	6900.29
609.824	6943.3
610.019	6877.76
610.215	6974.02
610.411	6924.86
610.606	6830.66
610.802	6933.06
610.998	6779.46
611.193	6865.47
611.389	6855.23
611.584	6646.34
611.78	6591.05
611.976	6779.46
612.171	6781.51
612.367	6697.54
612.562	6597.19
612.758	6591.05
612.953	6675.01
613.149	6560.33
613.344	6554.18
613.539	6668.87
613.735	6687.3
613.93	6576.71
614.126	6591.05
614.321	6603.33
614.517	6629.96
614.712	6734.4
614.907	6427.21
615.103	6459.98
615.298	6670.92
615.493	6494.79
615.688	6324.81
615.884	6574.66
616.079	6478.41
616.274	6373.96
616.47	6382.15
616.665	6373.96
616.86	6376.01
617.055	6271.56
617.25	6392.39
617.445	6486.6
617.641	6357.58
617.836	6263.37
618.031	6363.72
618.226	6304.33
618.421	6261.32
618.616	6388.3
618.811	6277.71
619.006	6509.13
619.201	6087.25
619.396	6279.75
619.591	6062.67
619.786	6027.85
619.981	5956.18
620.176	6152.78
620.371	6228.56
620.566	5952.08
620.761	6070.86
620.956	5855.83
621.151	6122.06
621.346	5937.74
621.541	5898.83
621.735	5816.91
621.93	5677.65
622.125	5954.13
622.32	5694.04
622.515	5835.35
622.709	5704.28
622.904	5730.9
623.099	5632.6
623.294	5679.7
623.488	5577.3
623.683	5595.73
623.878	5476.95
624.072	5653.08
624.267	5499.48
624.462	5509.72
624.656	5368.41
624.851	5384.79
625.046	5321.31
625.24	5304.92
625.435	5266.01
625.629	5456.47
625.824	5161.56
626.018	5380.7
626.213	5241.43
626.407	5272.15
626.602	5093.98
626.796	5114.46
626.991	5208.67
627.185	5128.8
627.38	5071.45
627.574	5063.26
627.768	4960.86
627.963	4983.39
628.157	4960.86
628.352	4932.19
628.546	4840.03
628.74	4784.74
628.935	4743.78
629.129	4840.03
629.323	4735.59
629.517	4817.51
629.712	4819.55
629.906	4764.26
630.1	4735.59
630.294	4598.37
630.489	4565.61
630.683	4794.98
630.877	4522.6
631.071	4645.48
631.265	4446.82
631.459	4481.64
631.653	4448.87
631.848	4590.18
632.042	4473.45
632.236	4436.58
632.43	4489.83
632.624	4491.88
632.818	4407.91
633.012	4323.94
633.206	4473.45
633.4	4418.15
633.594	4432.49
633.788	4297.32
633.982	4215.4
634.176	4170.35
634.369	4256.36
634.563	4369
634.757	4031.09
634.951	4090.48
635.145	4186.73
635.339	4192.87
635.533	4170.35
635.726	4106.86
635.92	3981.93
636.114	4199.02
636.308	3955.31
636.501	3846.77
636.695	3994.22
636.889	3965.55
637.083	3891.82
637.276	4006.51
637.47	3875.44
637.664	3940.97
637.857	4024.94
638.051	3908.21
638.244	3783.28
638.438	3811.95
638.632	3795.57
638.825	3611.25
639.019	3789.42
639.212	3758.71
639.406	3609.2
639.599	3680.88
639.793	3711.6
639.986	3543.67
640.18	3744.37
640.373	3613.3
640.567	3711.6
640.76	3627.64
640.954	3631.73
641.147	3576.44
641.34	3613.3
641.534	3490.42
641.727	3428.98
641.92	3480.18
642.114	3590.77
642.307	3400.31
642.5	3510.9
642.694	3293.82
642.887	3324.54
643.08	3506.81
643.273	3187.32
643.467	3326.58
643.66	3342.97
643.853	3244.67
644.046	3091.07
644.239	3226.23
644.432	3224.19
644.626	3342.97
644.819	3316.34
645.012	3293.82
645.205	3236.47
645.398	3170.94
645.591	3285.62
645.784	3175.03
645.977	3158.65
646.17	3185.27
646.363	3031.68
646.556	2951.81
646.749	2925.18
646.942	3000.96
647.135	2931.33
647.328	3076.73
647.521	2853.5
647.714	2908.8
647.907	2884.22
648.099	2904.7
648.292	3025.53
648.485	2767.49
648.678	2777.73
648.871	3037.82
649.064	2878.08
649.256	2933.37
649.449	2908.8
649.642	2769.54
649.835	2783.87
650.027	2790.02
650.22	2843.26
650.413	2722.43
650.605	2728.58
650.798	2728.58
650.991	2710.15
651.183	2716.29
651.376	2679.43
651.568	2654.85
651.761	2740.86
651.954	2562.69
652.146	2601.6
652.339	2556.55
652.531	2615.94
652.724	2572.93
652.916	2548.36
653.109	2499.2
653.301	2574.98
653.494	2732.67
653.686	2566.79
653.879	2423.43
654.071	2536.07
654.263	2357.89
654.456	2458.25
654.648	2405
654.84	2394.76
655.033	2523.78
655.225	2376.33
655.417	2325.13
655.61	2472.58
655.802	2374.28
655.994	2417.29
656.186	2400.9
656.379	2302.6
656.571	2341.51
656.763	2265.74
656.955	2286.22
657.148	2273.93
657.34	2280.07
657.532	2318.98
657.724	2208.39
657.916	2259.59
658.108	2228.87
658.3	2212.49
658.492	2204.3
658.684	2165.39
658.876	2112.14
659.068	2134.67
659.26	2067.08
659.452	2298.5
659.644	2038.41
659.836	2058.89
660.028	2030.22
660.22	2110.09
660.412	2112.14
660.604	2114.19
660.796	2026.12
660.988	2058.89
661.18	1968.78
661.372	1995.4
661.563	2052.75
661.755	2036.36
661.947	1940.11
662.139	1999.5
662.331	1993.36
662.522	1956.49
662.714	1929.87
662.906	1882.77
663.097	1997.45
663.289	1897.1
663.481	1872.53
663.673	1987.21
663.864	1804.94
664.056	1850
664.247	1993.36
664.439	1768.08
664.631	1884.81
664.822	1858.19
665.014	1956.49
665.205	1890.96
665.397	1802.9
665.588	1839.76
665.78	1784.46
665.971	1733.26
666.163	1864.33
666.354	1936.01
666.546	1761.94
666.737	1819.28
666.929	1696.4
667.12	1753.74
667.311	1763.98
667.503	1682.07
667.694	1772.18
667.885	1626.77
668.077	1749.65
668.268	1647.25
668.459	1698.45
668.651	1690.26
668.842	1653.39
669.033	1620.63
669.224	1690.26
669.416	1753.74
669.607	1688.21
669.798	1675.92
669.989	1659.54
670.18	1534.61
670.371	1630.87
670.563	1542.8
670.754	1628.82
670.945	1538.71
671.136	1587.86
671.327	1548.95
671.518	1639.06
671.709	1442.45
671.9	1489.56
672.091	1637.01
672.282	1557.14
672.473	1489.56
672.664	1467.03
672.855	1505.94
673.046	1518.23
673.237	1667.73
673.428	1518.23
673.619	1493.65
673.809	1565.33
674	1452.69
674.191	1538.71
674.382	1553.04
674.573	1493.65
674.764	1559.19
674.954	1536.66
675.145	1499.8
675.336	1471.12
675.527	1383.06
675.717	1442.45
675.908	1411.73
676.099	1462.93
676.289	1393.3
676.48	1344.15
676.671	1378.97
676.861	1456.79
677.052	1401.49
677.243	1319.57
677.433	1368.73
677.624	1348.25
677.814	1426.07
678.005	1376.92
678.195	1317.53
678.386	1338.01
678.576	1356.44
678.767	1340.05
678.957	1450.64
679.148	1321.62
679.338	1301.14
679.529	1319.57
679.719	1335.96
679.909	1340.05
680.1	1389.21
680.29	1315.48
680.481	1393.3
680.671	1264.28
680.861	1364.63
681.052	1368.73
681.242	1362.58
681.432	1385.11
681.622	1276.57
681.813	1387.16
682.003	1368.73
682.193	1321.62
682.383	1315.48
682.573	1288.86
682.764	1338.01
682.954	1391.25
683.144	1342.1
683.334	1317.53
683.524	1295
683.714	1446.55
683.904	1295
684.094	1231.51
684.284	1370.77
684.474	1352.34
684.664	1321.62
684.854	1254.04
685.044	1231.51
685.234	1333.91
685.424	1262.23
685.614	1227.42
685.804	1227.42
685.994	1180.31
686.184	1262.23
686.374	1278.62
686.564	1311.38
686.753	1088.15
686.943	1270.42
687.133	1223.32
687.323	1241.75
687.513	1288.86
687.702	1186.46
687.892	1202.84
688.082	1098.39
688.272	1264.28
688.461	1200.79
688.651	1129.11
688.841	1186.46
689.03	1237.66
689.22	1082.01
689.41	1172.12
689.599	1221.27
689.789	1192.6
689.979	1178.26
690.168	1159.83
690.358	1112.73
690.547	1120.92
690.737	1165.98
690.926	1180.31
691.116	1104.54
691.305	1133.21
691.495	1039
691.684	1165.98
691.874	1122.97
692.063	1245.85
692.252	1157.79
692.442	1028.76
692.631	1159.83
692.82	1098.39
693.01	1034.91
693.199	1094.3
693.388	1008.28
693.578	1094.3
693.767	1041.05
693.956	1069.72
694.146	1100.44
694.335	1043.1
694.524	1024.67
694.713	1026.72
694.902	1012.38
695.092	1096.35
695.281	1006.24
695.47	967.32
695.659	1049.24
695.848	1000.09
696.037	1135.26
696.226	967.32
696.415	1086.11
696.604	1063.58
696.793	1024.67
696.982	1047.19
697.171	998.04
697.36	983.71
697.549	965.28
697.738	940.7
697.927	1000.09
698.116	959.13
698.305	979.61
698.494	987.8
698.683	1067.67
698.872	996
699.061	969.37
699.25	1002.14
699.438	1034.91
699.627	957.08
699.816	961.18
700.005	946.84
700.193	934.56
700.382	950.94
700.571	969.37
700.76	969.37
700.948	975.52
701.137	930.46
701.326	1032.86
701.514	967.32
701.703	987.8
701.892	832.16
702.08	1047.19
702.269	922.27
702.457	975.52
702.646	1024.67
702.834	975.52
703.023	928.41
703.212	907.93
703.4	944.8
703.589	952.99
703.777	967.32
703.965	844.45
704.154	969.37
704.342	926.36
704.531	844.45
704.719	922.27
704.907	1024.67
705.096	961.18
705.284	875.17
705.472	944.8
705.661	918.17
705.849	924.32
706.037	944.8
706.226	977.56
706.414	975.52
706.602	897.69
706.79	903.84
706.979	922.27
707.167	881.31
707.355	895.65
707.543	969.37
707.731	862.88
707.919	852.64
708.107	811.68
708.296	922.27
708.484	854.69
708.672	907.93
708.86	967.32
709.048	948.89
709.236	895.65
709.424	889.5
709.612	826.01
709.8	920.22
709.988	952.99
710.176	901.79
710.364	987.8
710.551	842.4
710.739	916.12
710.927	934.56
711.115	967.32
711.303	811.68
711.491	905.88
711.679	813.73
711.866	885.41
712.054	926.36
712.242	873.12
712.43	905.88
712.617	969.37
712.805	901.79
712.993	901.79
713.181	875.17
713.368	938.65
713.556	889.5
713.744	875.17
713.931	864.93
714.119	936.6
714.306	879.26
714.494	930.46
714.682	805.53
714.869	942.75
715.057	856.73
715.244	901.79
715.432	840.35
715.619	885.41
715.807	850.59
715.994	901.79
716.182	877.21
716.369	926.36
716.556	881.31
716.744	932.51
716.931	871.07
717.119	940.7
717.306	971.42
717.493	871.07
717.681	838.3
717.868	891.55
718.055	869.02
718.242	924.32
718.43	866.97
718.617	928.41
718.804	944.8
718.991	817.82
719.179	936.6
719.366	912.03
719.553	850.59
719.74	881.31
719.927	819.87
720.114	799.39
720.301	907.93
720.488	905.88
720.676	926.36
720.863	879.26
721.05	973.47
721.237	930.46
721.424	799.39
721.611	811.68
721.798	877.21
721.985	932.51
722.172	934.56
722.358	893.6
722.545	907.93
722.732	938.65
722.919	866.97
723.106	909.98
723.293	881.31
723.48	918.17
723.667	787.1
723.853	815.77
724.04	858.78
724.227	1014.43
724.414	891.55
724.6	809.63
724.787	901.79
724.974	926.36
725.161	920.22
725.347	856.73
725.534	1036.95
725.72	1041.05
725.907	877.21
726.094	879.26
726.28	866.97
726.467	883.36
726.653	881.31
726.84	955.04
727.027	899.74
727.213	856.73
727.4	948.89
727.586	928.41
727.773	836.25
727.959	957.08
728.145	918.17
728.332	912.03
728.518	852.64
728.705	803.49
728.891	973.47
729.077	942.75
729.264	891.55
729.45	887.45
729.636	961.18
729.823	934.56
730.009	961.18
730.195	909.98
730.382	842.4
730.568	893.6
730.754	811.68
730.94	940.7
731.126	942.75
731.313	866.97
731.499	891.55
731.685	936.6
731.871	973.47
732.057	920.22
732.243	875.17
732.429	905.88
732.615	961.18
732.801	899.74
732.987	993.95
733.173	952.99
733.359	950.94
733.545	903.84
733.731	940.7
733.917	879.26
734.103	897.69
734.289	905.88
734.475	981.66
734.661	920.22
734.847	889.5
735.033	944.8
735.219	963.23
735.404	879.26
735.59	948.89
735.776	944.8
735.962	836.25
736.148	916.12
736.333	887.45
736.519	909.98
736.705	934.56
736.89	873.12
737.076	918.17
737.262	862.88
737.447	952.99
737.633	1004.19
737.819	1012.38
738.004	950.94
738.19	899.74
738.375	862.88
738.561	1016.48
738.747	985.76
738.932	871.07
739.118	828.06
739.303	938.65
739.489	948.89
739.674	940.7
739.859	893.6
740.045	934.56
740.23	844.45
740.416	930.46
740.601	983.71
740.786	957.08
740.972	979.61
741.157	950.94
741.342	893.6
741.528	873.12
741.713	950.94
741.898	987.8
742.084	969.37
742.269	866.97
742.454	887.45
742.639	830.11
742.824	838.3
743.01	909.98
743.195	928.41
743.38	881.31
743.565	952.99
743.75	846.49
743.935	850.59
744.12	938.65
744.305	938.65
744.49	942.75
744.675	944.8
744.86	1004.19
745.045	819.87
745.23	936.6
745.415	858.78
745.6	907.93
745.785	832.16
745.97	813.73
746.155	860.83
746.34	805.53
746.525	881.31
746.71	778.91
746.895	895.65
747.079	907.93
747.264	840.35
747.449	819.87
747.634	819.87
747.819	877.21
748.003	815.77
748.188	758.43
748.373	791.2
748.557	705.18
748.742	770.72
748.927	830.11
749.111	811.68
749.296	780.96
749.481	797.34
749.665	821.92
749.85	848.54
750.034	768.67
750.219	803.49
750.404	731.81
750.588	801.44
750.773	799.39
750.957	705.18
751.141	797.34
751.326	682.66
751.51	705.18
751.695	649.89
751.879	723.62
752.064	793.25
752.248	696.99
752.432	799.39
752.617	803.49
752.801	793.25
752.985	662.18
753.17	692.9
753.354	701.09
753.538	725.66
753.722	688.8
753.907	699.04
754.091	682.66
754.275	729.76
754.459	629.41
754.643	651.94
754.828	666.27
755.012	600.74
755.196	639.65
755.38	666.27
755.564	608.93
755.748	549.54
755.932	594.59
756.116	656.03
756.3	617.12
756.484	610.98
756.668	682.66
756.852	625.31
757.036	619.17
757.22	617.12
757.404	586.4
757.588	684.7
757.772	610.98
757.956	594.59
758.14	631.46
758.323	592.55
758.507	586.4
758.691	561.83
758.875	524.96
759.059	494.24
759.242	578.21
759.426	518.82
759.61	510.63
759.794	608.93
759.977	498.34
760.161	576.16
760.345	594.59
760.528	600.74
760.712	494.24
760.895	606.88
761.079	451.24
761.263	557.73
761.446	512.67
761.63	531.11
761.813	416.42
761.997	492.2
762.18	559.78
762.364	631.46
762.547	432.8
762.731	557.73
762.914	496.29
763.098	565.92
763.281	553.63
763.464	524.96
763.648	451.24
763.831	518.82
764.015	504.48
764.198	520.87
764.381	463.52
764.564	502.44
764.748	438.95
764.931	475.81
765.114	524.96
765.297	502.44
765.481	438.95
765.664	508.58
765.847	508.58
766.03	547.49
766.213	457.38
766.397	543.39
766.58	516.77
766.763	514.72
766.946	496.29
767.129	463.52
767.312	379.56
767.495	467.62
767.678	436.9
767.861	449.19
768.044	426.66
768.227	514.72
768.41	424.61
768.593	432.8
768.776	406.18
768.959	430.76
769.142	467.62
769.324	512.67
769.507	436.9
769.69	498.34
769.873	430.76
770.056	520.87
770.239	455.33
770.421	449.19
770.604	445.09
770.787	414.37
770.97	428.71
771.152	430.76
771.335	377.51
771.518	406.18
771.7	385.7
771.883	418.47
772.066	432.8
772.248	424.61
772.431	361.13
772.613	391.84
772.796	361.13
772.978	486.05
773.161	418.47
773.343	328.36
773.526	393.89
773.708	385.7
773.891	305.83
774.073	426.66
774.256	402.08
774.438	361.13
774.621	406.18
774.803	410.28
774.985	434.85
775.168	350.89
775.35	303.78
775.532	385.7
775.715	330.41
775.897	338.6
776.079	334.5
776.261	309.93
776.444	367.27
776.626	367.27
776.808	295.59
776.99	311.97
777.173	338.6
777.355	340.65
777.537	348.84
777.719	350.89
777.901	299.69
778.083	311.97
778.265	324.26
778.447	328.36
778.629	264.87
778.811	332.45
778.993	311.97
779.175	285.35
779.357	320.17
779.539	320.17
779.721	273.06
779.903	322.21
780.085	332.45
780.267	365.22
780.449	271.01
780.631	332.45
780.812	309.93
780.994	232.1
781.176	385.7
781.358	236.2
781.54	340.65
781.721	258.73
781.903	242.34
782.085	242.34
782.267	328.36
782.448	185
782.63	213.67
782.812	205.48
782.993	281.25
783.175	303.78
783.357	207.53
783.538	287.4
783.72	283.3
783.901	354.98
784.083	205.48
784.264	299.69
784.446	205.48
784.627	293.54
784.809	209.58
784.99	262.82
785.172	238.25
785.353	195.24
785.535	205.48
785.716	281.25
785.897	207.53
786.079	148.14
786.26	266.92
786.441	205.48
786.623	217.77
786.804	217.77
786.985	182.95
787.167	209.58
787.348	144.04
787.529	203.43
787.71	256.68
787.891	205.48
788.073	236.2
788.254	164.52
788.435	158.38
788.616	197.29
788.797	178.86
788.978	195.24
789.159	252.58
789.34	170.66
789.522	201.38
789.703	174.76
789.884	168.62
790.065	234.15
790.246	264.87
790.427	242.34
790.607	223.91
790.788	260.77
790.969	170.66
791.15	254.63
791.331	203.43
791.512	168.62
791.693	170.66
791.874	166.57
792.054	125.61
792.235	201.38
792.416	174.76
792.597	191.14
792.778	178.86
792.958	201.38
793.139	148.14
793.32	123.56
793.5	187.05
793.681	119.46
793.862	117.42
794.042	195.24
794.223	146.09
794.404	199.34
794.584	174.76
794.765	131.75
794.945	101.03
795.126	115.37
795.306	158.38
795.487	148.14
795.667	105.13
795.848	174.76
796.028	139.94
796.209	139.94
796.389	107.18
796.57	162.47
796.75	193.19
796.93	172.71
797.111	82.6
797.291	160.42
797.471	111.27
797.652	156.33
797.832	135.85
798.012	152.23
798.192	94.89
798.373	144.04
798.553	111.27
798.733	150.18
798.913	82.6
799.093	62.12
799.274	86.7
799.454	125.61
799.634	105.13
799.814	164.52
799.994	74.41
800.174	111.27
800.354	146.09
800.534	92.84
800.714	109.23
800.894	101.03
801.074	98.99
801.254	90.79
801.434	162.47
801.614	131.75
801.794	60.07
801.974	305.83
802.154	133.8
802.334	160.42
802.514	162.47
802.693	144.04
802.873	37.55
803.053	111.27
803.233	127.66
803.413	154.28
803.592	98.99
803.772	187.05
803.952	103.08
804.131	55.98
804.311	101.03
804.491	174.76
804.67	107.18
804.85	98.99
805.03	148.14
805.209	121.51
805.389	86.7
805.568	96.94
805.748	60.07
805.928	82.6
806.107	86.7
806.287	90.79
806.466	107.18
806.646	47.79
806.825	64.17
807.004	90.79
807.184	135.85
807.363	86.7
807.543	51.88
807.722	115.37
807.901	127.66
808.081	90.79
808.26	105.13
808.439	43.69
808.619	53.93
808.798	176.81
808.977	27.31
809.156	25.26
809.336	141.99
809.515	144.04
809.694	117.42
809.873	137.9
810.052	150.18
810.231	76.46
810.411	70.31
810.59	129.7
810.769	41.64
810.948	45.74
811.127	74.41
811.306	86.7
811.485	70.31
811.664	144.04
811.843	70.31
812.022	82.6
812.201	76.46
812.38	131.75
812.559	55.98
812.737	152.23
812.916	82.6
813.095	33.45
813.274	88.75
813.453	58.03
813.632	51.88
813.811	29.35
813.989	60.07
814.168	90.79
814.347	66.22
814.526	82.6
814.704	76.46
814.883	141.99
815.062	58.03
815.24	68.27
815.419	51.88
815.598	60.07
815.776	35.5
815.955	2.73
816.133	-5.46
816.312	76.46
816.49	113.32
816.669	191.14
816.847	-15.7
817.026	49.83
817.204	37.55
817.383	74.41
817.561	-13.65
817.74	115.37
817.918	121.51
818.097	64.17
818.275	21.16
818.453	70.31
818.632	88.75
818.81	101.03
818.988	82.6
819.167	68.27
819.345	45.74
819.523	27.31
819.701	92.84
819.879	80.55
820.058	25.26
820.236	51.88
820.414	82.6
820.592	39.59
820.77	0.68
820.948	25.26
821.127	29.35
821.305	51.88
821.483	2.73
821.661	123.56
821.839	33.45
822.017	109.23
822.195	58.03
822.373	115.37
822.551	64.17
822.729	60.07
822.907	41.64
823.085	88.75
823.262	62.12
823.44	68.27
823.618	66.22
823.796	41.64
823.974	68.27
824.152	64.17
824.329	90.79
824.507	78.51
824.685	-13.65
824.863	125.61
825.04	43.69
825.218	-15.7
825.396	51.88
825.574	15.02
825.751	23.21
825.929	82.6
826.107	15.02
826.284	19.11
826.462	115.37
826.639	53.93
826.817	49.83
826.994	55.98
827.172	6.83
827.349	60.07
827.527	21.16
827.704	35.5
827.882	101.03
828.059	53.93
828.237	37.55
828.414	25.26
828.591	58.03
828.769	105.13
828.946	15.02
829.124	25.26
829.301	33.45
829.478	58.03
829.655	43.69
829.833	43.69
830.01	58.03
830.187	62.12
830.364	51.88
830.542	21.16
830.719	45.74
830.896	41.64
831.073	-66.9
831.25	0.68
831.427	23.21
831.604	41.64
831.782	4.78
831.959	8.87
832.136	21.16
832.313	55.98
832.49	41.64
832.667	0.68
832.844	31.4
833.021	109.23
833.198	27.31
833.374	133.8
833.551	-23.89
833.728	33.45
833.905	43.69
834.082	62.12
834.259	-36.18
834.436	51.88
834.612	-7.51
834.789	-7.51
834.966	8.87
835.143	0.68
835.319	-1.37
835.496	86.7
835.673	-9.56
835.85	15.02
836.026	49.83
836.203	60.07
836.38	-9.56
836.556	4.78
836.733	31.4
836.909	19.11
837.086	-11.61
837.262	55.98
837.439	-1.37
837.616	43.69
837.792	-44.37
837.968	37.55
838.145	19.11
838.321	43.69
838.498	-23.89
838.674	51.88
838.851	25.26
839.027	17.07
839.203	39.59
839.38	8.87
839.556	-13.65
839.732	6.83
839.909	45.74
840.085	66.22
840.261	74.41
840.437	10.92
840.614	51.88
840.79	55.98
840.966	-7.51
841.142	25.26
841.318	15.02
841.494	62.12
841.671	35.5
841.847	27.31
842.023	25.26
842.199	86.7
842.375	-40.28
842.551	-27.99
842.727	43.69
842.903	10.92
843.079	-19.8
843.255	86.7
843.431	-1.37
843.607	17.07
843.783	-17.75
843.959	35.5
844.134	17.07
844.31	8.87
844.486	-17.75
844.662	25.26
844.838	-46.42
845.013	45.74
845.189	25.26
845.365	10.92
845.541	29.35
845.716	21.16
845.892	15.02
846.068	-5.46
846.244	43.69
846.419	29.35
846.595	10.92
846.77	74.41
846.946	72.36
847.122	86.7
847.297	33.45
847.473	15.02
847.648	6.83
847.824	21.16
847.999	-21.84
848.175	-7.51
848.35	-25.94
848.526	53.93
848.701	35.5
848.876	35.5
849.052	4.78
849.227	10.92
849.403	2.73
849.578	10.92
849.753	-5.46
849.929	12.97
850.104	2.73
850.279	-5.46
850.454	-5.46
850.63	-36.18
850.805	33.45
850.98	-23.89
851.155	10.92
851.33	-25.94
851.505	-56.66
851.681	94.89
851.856	-58.71
852.031	-48.47
852.206	-36.18
852.381	68.27
852.556	6.83
852.731	-11.61
852.906	82.6
853.081	23.21
853.256	4.78
853.431	-42.32
853.606	-56.66
853.781	58.03
853.956	-21.84
854.131	-7.51
854.305	-11.61
854.48	-40.28
854.655	-71
854.83	-32.08
855.005	-17.75
855.18	84.65
855.354	-50.52
855.529	23.21
855.704	-15.7
855.879	-36.18
856.053	17.07
856.228	27.31
856.403	-40.28
856.577	55.98
856.752	-32.08
856.926	31.4
857.101	-3.41
857.276	-27.99
857.45	-36.18
857.625	78.51
857.799	10.92
857.974	0.68
858.148	-21.84
858.323	12.97
858.497	41.64
858.672	27.31
858.846	2.73
859.02	-1.37
859.195	43.69
859.369	-3.41
859.543	74.41
859.718	70.31
859.892	27.31
860.066	-19.8
860.241	0.68
860.415	19.11
860.589	10.92
860.763	66.22
860.938	-9.56
861.112	45.74
861.286	35.5
861.46	29.35
861.634	10.92
861.808	49.83
861.982	29.35
862.157	-5.46
862.331	15.02
862.505	53.93
862.679	-3.41
862.853	-5.46
863.027	-17.75
863.201	35.5
863.375	8.87
863.549	-21.84
863.722	-3.41
863.896	33.45
864.07	25.26
864.244	84.65
864.418	31.4
864.592	19.11
864.766	0.68
864.939	-19.8
865.113	33.45
865.287	31.4
865.461	15.02
865.634	-5.46
865.808	8.87
865.982	39.59
866.156	-3.41
866.329	2.73
866.503	8.87
866.676	-15.7
866.85	-23.89
867.024	33.45
867.197	29.35
867.371	29.35
867.544	0.68
867.718	-17.75
867.891	19.11
868.065	-66.9
868.238	-36.18
868.412	10.92
868.585	-11.61
868.759	-32.08
868.932	29.35
869.105	-25.94
869.279	-11.61
869.452	-32.08
869.625	45.74
869.799	76.46
869.972	70.31
870.145	33.45
870.319	-34.13
870.492	-19.8
870.665	49.83
870.838	-21.84
871.011	-25.94
871.185	-3.41
871.358	49.83
871.531	35.5
871.704	12.97
871.877	-68.95
872.05	-103.76
872.223	0.68
872.396	19.11
872.569	82.6
872.742	-27.99
872.915	39.59
873.088	27.31
873.261	-17.75
873.434	-27.99
873.607	51.88
873.78	21.16
873.953	27.31
874.126	-19.8
874.299	-68.95
874.471	-25.94
874.644	0.68
874.817	-64.85
874.99	4.78
875.163	27.31
875.335	-46.42
875.508	0.68
875.681	-30.04
875.853	-21.84
876.026	4.78
876.199	-13.65
876.371	-54.61
876.544	-75.09
876.717	10.92
876.889	35.5
877.062	33.45
877.234	-9.56
877.407	58.03
877.579	21.16
877.752	-120.15
877.924	-5.46
878.097	-52.56
878.269	-15.7
878.442	19.11
878.614	-32.08
878.786	29.35
878.959	8.87
879.131	15.02
879.303	-3.41
879.476	-15.7
879.648	-11.61
879.82	33.45
879.993	55.98
880.165	-7.51
880.337	41.64
880.509	17.07
880.681	37.55
880.854	-1.37
881.026	35.5
881.198	-21.84
881.37	-11.61
881.542	58.03
881.714	6.83
881.886	98.99
882.058	0.68
882.23	17.07
882.402	-44.37
882.574	-7.51
882.746	-21.84
882.918	-7.51
883.09	21.16
883.262	-9.56
883.434	-5.46
883.606	-48.47
883.778	23.21
883.95	21.16
884.122	-17.75
884.293	33.45
884.465	72.36
884.637	-23.89
884.809	-81.24
884.98	2.73
885.152	-114
885.324	37.55
885.496	-60.76
885.667	6.83
885.839	-40.28
886.011	-60.76
886.182	51.88
886.354	47.79
886.525	15.02
886.697	8.87
886.869	-27.99
887.04	4.78
887.212	45.74
887.383	-40.28
887.555	43.69
887.726	-11.61
887.897	15.02
888.069	19.11
888.24	35.5
888.412	19.11
888.583	12.97
888.754	27.31
888.926	41.64
889.097	-25.94
889.268	4.78
889.44	23.21
889.611	-5.46
889.782	-73.04
889.953	-23.89
890.125	2.73
890.296	-62.8
890.467	25.26
890.638	25.26
890.809	-54.61
890.98	68.27
891.151	92.84
891.323	-36.18
891.494	-25.94
891.665	-42.32
891.836	39.59
892.007	51.88
892.178	-60.76
892.349	-42.32
892.52	43.69
892.691	41.64
892.862	15.02
893.032	-27.99
893.203	29.35
893.374	-48.47
893.545	23.21
893.716	-13.65
893.887	125.61
894.057	-30.04
894.228	43.69
894.399	-27.99
894.57	17.07
894.74	37.55
894.911	17.07
895.082	-5.46
895.253	10.92
895.423	-7.51
895.594	33.45
895.764	51.88
895.935	-44.37
896.106	58.03
896.276	37.55
896.447	-44.37
896.617	58.03
896.788	35.5
896.958	2.73
897.129	43.69
897.299	49.83
897.47	27.31
897.64	-1.37
897.81	17.07
897.981	-19.8
898.151	8.87
898.322	-54.61
898.492	-13.65
898.662	-7.51
898.832	-27.99
899.003	-56.66
899.173	-38.23
899.343	49.83
899.513	-11.61
