Data from USB4F104151__5__12-53-04-929.txt Node

Date: Fri Mar 14 12:53:04 EDT 2025
User: louis
Spectrometer: USB4F10415
Trigger mode: 4
Integration Time (sec): 1.000000E-2
Scans to average: 1
Electric dark correction enabled: true
Nonlinearity correction enabled: false
Boxcar width: 0
XAxis mode: Wavelengths
Number of Pixels in Spectrum: 3648
>>>>>Begin Spectral Data<<<<<
178.204	-41.13
178.424	-41.13
178.644	-41.13
178.864	-22.7
179.084	-139.43
179.304	-6.31
179.524	-16.55
179.744	-30.89
179.964	40.79
180.184	42.84
180.404	22.36
180.624	85.84
180.844	-18.6
181.064	-57.51
181.283	-22.7
181.503	-43.18
181.723	3.93
181.943	-6.31
182.163	-12.46
182.383	-10.41
182.602	77.65
182.822	5.97
183.042	26.45
183.262	-41.13
183.482	3.93
183.701	-0.17
183.921	-16.55
184.141	-4.27
184.361	-16.55
184.58	24.4
184.8	30.55
185.02	34.64
185.239	-18.6
185.459	8.02
185.679	-4.27
185.898	-59.56
186.118	-41.13
186.338	-32.94
186.557	-69.8
186.777	-45.23
186.997	-65.71
187.216	-18.6
187.436	-37.03
187.655	5.97
187.875	-32.94
188.095	8.02
188.314	18.26
188.534	1.88
188.753	1.88
188.973	-45.23
189.192	20.31
189.412	67.41
189.631	-14.51
189.851	1.88
190.07	1.88
190.29	8.02
190.509	44.88
190.729	-45.23
190.948	12.12
191.168	57.17
191.387	46.93
191.607	-32.94
191.826	12.12
192.045	57.17
192.265	-28.84
192.484	-0.17
192.704	14.17
192.923	-67.75
193.142	69.46
193.362	8.02
193.581	-6.31
193.8	65.36
194.02	-0.17
194.239	59.22
194.458	16.21
194.678	-26.79
194.897	-14.51
195.116	-112.81
195.335	46.93
195.555	42.84
195.774	-4.27
195.993	-77.99
196.212	8.02
196.432	-8.36
196.651	-20.65
196.87	-28.84
197.089	40.79
197.308	24.4
197.528	-10.41
197.747	1.88
197.966	3.93
198.185	102.23
198.404	24.4
198.623	-24.75
198.842	-39.08
199.062	-49.32
199.281	10.07
199.5	20.31
199.719	-0.17
199.938	-0.17
200.157	-14.51
200.376	-26.79
200.595	14.17
200.814	44.88
201.033	20.31
201.252	-12.46
201.471	1.88
201.69	-8.36
201.909	-12.46
202.128	-30.89
202.347	-0.17
202.566	-34.99
202.785	44.88
203.004	1.88
203.223	42.84
203.442	30.55
203.661	-12.46
203.879	-63.66
204.098	36.69
204.317	12.12
204.536	-39.08
204.755	-88.23
204.974	-63.66
205.193	22.36
205.411	-53.42
205.63	10.07
205.849	14.17
206.068	28.5
206.287	75.6
206.505	1.88
206.724	10.07
206.943	-47.27
207.162	-16.55
207.381	-10.41
207.599	26.45
207.818	-10.41
208.037	-61.61
208.255	46.93
208.474	-6.31
208.693	-57.51
208.911	10.07
209.13	-12.46
209.349	12.12
209.567	-28.84
209.786	14.17
210.005	40.79
210.223	-14.51
210.442	-39.08
210.661	-2.22
210.879	-61.61
211.098	18.26
211.316	24.4
211.535	-24.75
211.753	-18.6
211.972	5.97
212.191	-8.36
212.409	-10.41
212.628	22.36
212.846	24.4
213.065	5.97
213.283	28.5
213.502	-22.7
213.72	71.51
213.938	-32.94
214.157	20.31
214.375	-10.41
214.594	-12.46
214.812	-39.08
215.031	55.12
215.249	34.64
215.467	79.7
215.686	34.64
215.904	30.55
216.122	28.5
216.341	-4.27
216.559	22.36
216.778	20.31
216.996	32.6
217.214	3.93
217.432	-51.37
217.651	-73.9
217.869	14.17
218.087	-43.18
218.306	-14.51
218.524	28.5
218.742	-0.17
218.96	12.12
219.179	-34.99
219.397	-4.27
219.615	40.79
219.833	-39.08
220.051	-30.89
220.27	-34.99
220.488	48.98
220.706	30.55
220.924	5.97
221.142	30.55
221.36	-59.56
221.578	-32.94
221.796	-6.31
222.015	18.26
222.233	42.84
222.451	-14.51
222.669	-34.99
222.887	36.69
223.105	42.84
223.323	-41.13
223.541	32.6
223.759	8.02
223.977	-4.27
224.195	48.98
224.413	20.31
224.631	-20.65
224.849	26.45
225.067	73.56
225.285	-20.65
225.503	22.36
225.721	-18.6
225.939	1.88
226.157	-34.99
226.375	59.22
226.592	18.26
226.81	-2.22
227.028	-22.7
227.246	-4.27
227.464	30.55
227.682	18.26
227.9	24.4
228.117	44.88
228.335	53.08
228.553	-4.27
228.771	28.5
228.989	20.31
229.206	-22.7
229.424	-55.47
229.642	-10.41
229.86	36.69
230.077	40.79
230.295	44.88
230.513	75.6
230.731	42.84
230.948	38.74
231.166	67.41
231.384	63.32
231.601	-55.47
231.819	36.69
232.037	-59.56
232.254	-28.84
232.472	-12.46
232.689	16.21
232.907	38.74
233.125	24.4
233.342	55.12
233.56	32.6
233.777	12.12
233.995	-4.27
234.213	34.64
234.43	3.93
234.648	30.55
234.865	-22.7
235.083	-12.46
235.3	77.65
235.518	-8.36
235.735	44.88
235.953	-4.27
236.17	-41.13
236.388	51.03
236.605	-39.08
236.822	28.5
237.04	-32.94
237.257	22.36
237.475	-22.7
237.692	16.21
237.909	24.4
238.127	53.08
238.344	61.27
238.562	-37.03
238.779	34.64
238.996	36.69
239.214	-26.79
239.431	28.5
239.648	-61.61
239.865	10.07
240.083	63.32
240.3	14.17
240.517	26.45
240.735	-47.27
240.952	36.69
241.169	53.08
241.386	-18.6
241.603	30.55
241.821	-28.84
242.038	1.88
242.255	65.36
242.472	-0.17
242.689	42.84
242.907	-6.31
243.124	32.6
243.341	-71.85
243.558	3.93
243.775	-96.43
243.992	18.26
244.209	55.12
244.426	83.8
244.643	18.26
244.86	51.03
245.078	-0.17
245.295	5.97
245.512	55.12
245.729	-28.84
245.946	-6.31
246.163	34.64
246.38	16.21
246.597	10.07
246.814	3.93
247.031	26.45
247.248	-6.31
247.464	8.02
247.681	-8.36
247.898	-20.65
248.115	5.97
248.332	-49.32
248.549	-24.75
248.766	-10.41
248.983	42.84
249.2	-63.66
249.417	-32.94
249.633	44.88
249.85	24.4
250.067	-18.6
250.284	-14.51
250.501	1.88
250.717	63.32
250.934	-8.36
251.151	-10.41
251.368	-30.89
251.585	3.93
251.801	-61.61
252.018	-18.6
252.235	67.41
252.451	12.12
252.668	-2.22
252.885	-37.03
253.102	30.55
253.318	-28.84
253.535	-51.37
253.752	10.07
253.968	-6.31
254.185	20.31
254.401	-43.18
254.618	-2.22
254.835	-80.04
255.051	-0.17
255.268	1.88
255.484	-2.22
255.701	-6.31
255.917	-45.23
256.134	-65.71
256.351	-37.03
256.567	-16.55
256.784	20.31
257	16.21
257.217	-32.94
257.433	30.55
257.65	20.31
257.866	-32.94
258.082	-12.46
258.299	-18.6
258.515	26.45
258.732	-34.99
258.948	-26.79
259.165	-47.27
259.381	40.79
259.597	-10.41
259.814	-24.75
260.03	18.26
260.246	18.26
260.463	3.93
260.679	-67.75
260.895	-6.31
261.112	20.31
261.328	-28.84
261.544	-12.46
261.761	-34.99
261.977	26.45
262.193	22.36
262.409	-12.46
262.626	-20.65
262.842	36.69
263.058	20.31
263.274	46.93
263.49	44.88
263.707	-24.75
263.923	42.84
264.139	-18.6
264.355	28.5
264.571	51.03
264.787	-20.65
265.004	-12.46
265.22	-4.27
265.436	-37.03
265.652	18.26
265.868	34.64
266.084	18.26
266.3	-22.7
266.516	-20.65
266.732	10.07
266.948	87.89
267.164	91.99
267.38	83.8
267.596	-39.08
267.812	42.84
268.028	12.12
268.244	8.02
268.46	-10.41
268.676	75.6
268.892	-53.42
269.108	-10.41
269.324	-39.08
269.54	-65.71
269.756	51.03
269.972	-34.99
270.188	10.07
270.403	44.88
270.619	-53.42
270.835	51.03
271.051	34.64
271.267	48.98
271.483	12.12
271.698	40.79
271.914	-6.31
272.13	28.5
272.346	-4.27
272.562	75.6
272.777	-10.41
272.993	34.64
273.209	-39.08
273.425	-43.18
273.64	-51.37
273.856	-6.31
274.072	30.55
274.287	34.64
274.503	-59.56
274.719	67.41
274.934	51.03
275.15	44.88
275.366	18.26
275.581	-63.66
275.797	-2.22
276.012	-41.13
276.228	75.6
276.444	30.55
276.659	-18.6
276.875	22.36
277.09	-45.23
277.306	1.88
277.521	8.02
277.737	63.32
277.952	-45.23
278.168	8.02
278.383	34.64
278.599	-26.79
278.814	126.8
279.03	53.08
279.245	-26.79
279.461	1.88
279.676	42.84
279.892	-18.6
280.107	-0.17
280.322	8.02
280.538	22.36
280.753	-10.41
280.969	75.6
281.184	-10.41
281.399	59.22
281.615	-69.8
281.83	32.6
282.045	-30.89
282.26	61.27
282.476	-0.17
282.691	-26.79
282.906	-30.89
283.122	-10.41
283.337	20.31
283.552	3.93
283.767	-22.7
283.983	-24.75
284.198	-61.61
284.413	20.31
284.628	-73.9
284.843	30.55
285.058	10.07
285.274	-30.89
285.489	-39.08
285.704	104.28
285.919	1.88
286.134	28.5
286.349	32.6
286.564	30.55
286.779	53.08
286.995	-26.79
287.21	-10.41
287.425	59.22
287.64	-26.79
287.855	8.02
288.07	51.03
288.285	20.31
288.5	-32.94
288.715	85.84
288.93	59.22
289.145	-57.51
289.36	42.84
289.575	-8.36
289.79	22.36
290.004	12.12
290.219	12.12
290.434	51.03
290.649	18.26
290.864	53.08
291.079	-37.03
291.294	53.08
291.509	36.69
291.724	10.07
291.938	30.55
292.153	-110.76
292.368	42.84
292.583	18.26
292.798	-24.75
293.012	-47.27
293.227	-8.36
293.442	44.88
293.657	14.17
293.871	-32.94
294.086	42.84
294.301	36.69
294.516	40.79
294.73	69.46
294.945	-20.65
295.16	10.07
295.374	1.88
295.589	28.5
295.804	30.55
296.018	-37.03
296.233	69.46
296.447	55.12
296.662	46.93
296.877	20.31
297.091	-49.32
297.306	-2.22
297.52	-10.41
297.735	-2.22
297.949	12.12
298.164	-28.84
298.378	-10.41
298.593	73.56
298.807	26.45
299.022	8.02
299.236	55.12
299.451	-14.51
299.665	53.08
299.88	36.69
300.094	-53.42
300.309	40.79
300.523	24.4
300.737	26.45
300.952	53.08
301.166	85.84
301.381	-4.27
301.595	-45.23
301.809	46.93
302.024	5.97
302.238	34.64
302.452	-28.84
302.667	14.17
302.881	-8.36
303.095	42.84
303.309	44.88
303.524	12.12
303.738	22.36
303.952	-6.31
304.166	20.31
304.381	-2.22
304.595	71.51
304.809	-28.84
305.023	1.88
305.237	-34.99
305.452	48.98
305.666	-10.41
305.88	34.64
306.094	24.4
306.308	-0.17
306.522	83.8
306.736	61.27
306.95	61.27
307.164	46.93
307.379	-0.17
307.593	26.45
307.807	-4.27
308.021	51.03
308.235	-20.65
308.449	79.7
308.663	42.84
308.877	106.32
309.091	-75.95
309.305	59.22
309.519	-57.51
309.733	-41.13
309.947	-10.41
310.161	-6.31
310.374	44.88
310.588	30.55
310.802	24.4
311.016	-28.84
311.23	-6.31
311.444	-32.94
311.658	36.69
311.872	51.03
312.085	-30.89
312.299	75.6
312.513	16.21
312.727	10.07
312.941	59.22
313.154	40.79
313.368	14.17
313.582	-43.18
313.796	44.88
314.009	40.79
314.223	30.55
314.437	22.36
314.651	3.93
314.864	36.69
315.078	12.12
315.292	-49.32
315.505	61.27
315.719	91.99
315.933	-94.38
316.146	16.21
316.36	-47.27
316.573	-24.75
316.787	-22.7
317.001	32.6
317.214	-12.46
317.428	-43.18
317.641	-10.41
317.855	20.31
318.068	8.02
318.282	-37.03
318.495	-18.6
318.709	10.07
318.922	1.88
319.136	28.5
319.349	10.07
319.563	24.4
319.776	38.74
319.99	34.64
320.203	-22.7
320.417	79.7
320.63	12.12
320.843	28.5
321.057	-41.13
321.27	12.12
321.483	63.32
321.697	16.21
321.91	18.26
322.124	42.84
322.337	28.5
322.55	40.79
322.763	61.27
322.977	-14.51
323.19	8.02
323.403	-6.31
323.617	24.4
323.83	36.69
324.043	-8.36
324.256	28.5
324.469	-6.31
324.683	102.23
324.896	26.45
325.109	51.03
325.322	36.69
325.535	106.32
325.748	14.17
325.962	-26.79
326.175	-51.37
326.388	24.4
326.601	-6.31
326.814	30.55
327.027	24.4
327.24	36.69
327.453	12.12
327.666	44.88
327.879	53.08
328.092	83.8
328.305	61.27
328.518	5.97
328.731	-63.66
328.944	69.46
329.157	20.31
329.37	38.74
329.583	79.7
329.796	-8.36
330.009	-80.04
330.222	-28.84
330.435	8.02
330.648	38.74
330.861	-34.99
331.073	26.45
331.286	-47.27
331.499	106.32
331.712	22.36
331.925	30.55
332.138	-4.27
332.35	46.93
332.563	8.02
332.776	26.45
332.989	-6.31
333.202	53.08
333.414	-28.84
333.627	32.6
333.84	-47.27
334.053	-4.27
334.265	24.4
334.478	12.12
334.691	-4.27
334.903	44.88
335.116	28.5
335.329	-0.17
335.541	1.88
335.754	-0.17
335.966	-39.08
336.179	5.97
336.392	-45.23
336.604	53.08
336.817	-4.27
337.029	20.31
337.242	-6.31
337.454	-8.36
337.667	69.46
337.88	36.69
338.092	26.45
338.305	-26.79
338.517	75.6
338.729	44.88
338.942	14.17
339.154	22.36
339.367	12.12
339.579	-28.84
339.792	-55.47
340.004	-0.17
340.217	26.45
340.429	26.45
340.641	10.07
340.854	36.69
341.066	-2.22
341.278	-30.89
341.491	16.21
341.703	30.55
341.915	3.93
342.128	20.31
342.34	-20.65
342.552	20.31
342.764	-16.55
342.977	-10.41
343.189	-2.22
343.401	69.46
343.613	-20.65
343.826	61.27
344.038	-2.22
344.25	67.41
344.462	26.45
344.674	5.97
344.886	36.69
345.099	1.88
345.311	67.41
345.523	53.08
345.735	57.17
345.947	-26.79
346.159	38.74
346.371	10.07
346.583	-28.84
346.795	63.32
347.007	24.4
347.219	83.8
347.431	-24.75
347.643	57.17
347.855	12.12
348.067	79.7
348.279	22.36
348.491	1.88
348.703	-20.65
348.915	32.6
349.127	14.17
349.339	14.17
349.551	-10.41
349.763	55.12
349.975	-53.42
350.187	14.17
350.399	1.88
350.61	-0.17
350.822	55.12
351.034	46.93
351.246	20.31
351.458	8.02
351.669	65.36
351.881	91.99
352.093	46.93
352.305	46.93
352.517	24.4
352.728	48.98
352.94	89.94
353.152	51.03
353.363	32.6
353.575	69.46
353.787	14.17
353.999	24.4
354.21	28.5
354.422	-26.79
354.633	-32.94
354.845	85.84
355.057	10.07
355.268	-47.27
355.48	3.93
355.692	-26.79
355.903	87.89
356.115	24.4
356.326	3.93
356.538	-6.31
356.749	28.5
356.961	-8.36
357.172	30.55
357.384	36.69
357.595	28.5
357.807	51.03
358.018	34.64
358.23	69.46
358.441	-20.65
358.653	53.08
358.864	67.41
359.075	55.12
359.287	5.97
359.498	69.46
359.709	44.88
359.921	20.31
360.132	-30.89
360.344	38.74
360.555	-49.32
360.766	-18.6
360.977	44.88
361.189	-37.03
361.4	-18.6
361.611	34.64
361.823	-32.94
362.034	28.5
362.245	34.64
362.456	10.07
362.667	1.88
362.879	26.45
363.09	1.88
363.301	-2.22
363.512	34.64
363.723	36.69
363.935	24.4
364.146	40.79
364.357	28.5
364.568	-12.46
364.779	-6.31
364.99	12.12
365.201	-34.99
365.412	57.17
365.623	1.88
365.834	44.88
366.045	20.31
366.256	-4.27
366.467	-6.31
366.678	-30.89
366.889	-30.89
367.1	-10.41
367.311	-26.79
367.522	14.17
367.733	28.5
367.944	22.36
368.155	-24.75
368.366	1.88
368.577	-26.79
368.788	12.12
368.999	67.41
369.209	59.22
369.42	16.21
369.631	77.65
369.842	61.27
370.053	-2.22
370.264	-30.89
370.474	14.17
370.685	-0.17
370.896	48.98
371.107	34.64
371.317	-2.22
371.528	18.26
371.739	30.55
371.95	42.84
372.16	26.45
372.371	-4.27
372.582	10.07
372.792	20.31
373.003	-22.7
373.214	-53.42
373.424	53.08
373.635	-18.6
373.846	28.5
374.056	-47.27
374.267	87.89
374.477	-30.89
374.688	-47.27
374.898	3.93
375.109	24.4
375.319	-30.89
375.53	-6.31
375.74	63.32
375.951	77.65
376.161	-8.36
376.372	85.84
376.582	24.4
376.793	8.02
377.003	48.98
377.214	-30.89
377.424	10.07
377.635	30.55
377.845	18.26
378.055	108.37
378.266	-8.36
378.476	48.98
378.686	16.21
378.897	8.02
379.107	61.27
379.317	-24.75
379.528	51.03
379.738	100.18
379.948	14.17
380.158	20.31
380.369	-26.79
380.579	18.26
380.789	18.26
380.999	3.93
381.21	-28.84
381.42	42.84
381.63	1.88
381.84	-6.31
382.05	65.36
382.261	48.98
382.471	46.93
382.681	-20.65
382.891	1.88
383.101	55.12
383.311	65.36
383.521	22.36
383.731	42.84
383.941	-6.31
384.151	34.64
384.361	12.12
384.571	36.69
384.781	73.56
384.991	53.08
385.201	32.6
385.411	10.07
385.621	10.07
385.831	34.64
386.041	38.74
386.251	-43.18
386.461	85.84
386.671	94.04
386.881	10.07
387.091	53.08
387.301	61.27
387.511	18.26
387.72	-2.22
387.93	-4.27
388.14	81.75
388.35	22.36
388.56	-12.46
388.769	71.51
388.979	102.23
389.189	30.55
389.399	30.55
389.609	38.74
389.818	63.32
390.028	18.26
390.238	-18.6
390.447	44.88
390.657	10.07
390.867	96.08
391.076	48.98
391.286	-4.27
391.496	53.08
391.705	-69.8
391.915	67.41
392.125	120.66
392.334	59.22
392.544	28.5
392.753	10.07
392.963	81.75
393.172	65.36
393.382	-4.27
393.591	75.6
393.801	-2.22
394.01	42.84
394.22	77.65
394.429	40.79
394.639	18.26
394.848	55.12
395.058	34.64
395.267	100.18
395.477	73.56
395.686	1.88
395.895	112.47
396.105	38.74
396.314	108.37
396.524	55.12
396.733	96.08
396.942	38.74
397.152	30.55
397.361	73.56
397.57	65.36
397.78	22.36
397.989	40.79
398.198	94.04
398.407	16.21
398.617	79.7
398.826	87.89
399.035	98.13
399.244	48.98
399.453	30.55
399.663	114.52
399.872	112.47
400.081	-2.22
400.29	55.12
400.499	73.56
400.708	114.52
400.917	30.55
401.127	53.08
401.336	110.42
401.545	24.4
401.754	53.08
401.963	94.04
402.172	77.65
402.381	42.84
402.59	-10.41
402.799	34.64
403.008	53.08
403.217	16.21
403.426	102.23
403.635	65.36
403.844	18.26
404.053	48.98
404.262	48.98
404.471	87.89
404.68	128.85
404.888	87.89
405.097	61.27
405.306	137.04
405.515	155.47
405.724	69.46
405.933	126.8
406.142	98.13
406.35	98.13
406.559	81.75
406.768	141.14
406.977	73.56
407.185	163.67
407.394	116.56
407.603	118.61
407.812	126.8
408.02	147.28
408.229	130.9
408.438	167.76
408.646	112.47
408.855	245.59
409.064	108.37
409.272	118.61
409.481	214.87
409.69	212.82
409.898	190.29
410.107	116.56
410.315	221.01
410.524	214.87
410.733	257.87
410.941	229.2
411.15	257.87
411.358	298.83
411.567	311.12
411.775	268.11
411.984	296.78
412.192	239.44
412.401	294.74
412.609	329.55
412.818	317.26
413.026	282.45
413.234	368.46
413.443	292.69
413.651	395.09
413.86	362.32
414.068	333.65
414.276	364.37
414.485	448.33
414.693	393.04
414.901	405.33
415.11	452.43
415.318	487.25
415.526	522.06
415.734	603.98
415.943	460.62
416.151	481.1
416.359	460.62
416.567	577.36
416.776	511.82
416.984	626.51
417.192	563.02
417.4	603.98
417.608	718.67
417.817	704.33
418.025	730.95
418.233	735.05
418.441	800.59
418.649	784.2
418.857	816.97
419.065	841.54
419.273	886.6
419.481	931.66
419.689	972.61
419.897	1025.86
420.105	1013.57
420.313	1079.11
420.521	1113.92
420.729	1183.56
420.937	1187.65
421.145	1171.27
421.353	1183.56
421.561	1271.62
421.769	1308.48
421.977	1394.5
422.185	1431.36
422.393	1503.04
422.601	1468.22
422.809	1507.13
423.017	1615.68
423.224	1603.39
423.432	1595.2
423.64	1779.51
423.848	1816.38
424.056	1836.86
424.263	1898.3
424.471	2074.42
424.679	2012.98
424.887	2090.81
425.094	2117.43
425.302	2275.12
425.51	2174.77
425.718	2369.33
425.925	2301.75
426.133	2510.64
426.341	2504.5
426.548	2668.33
426.756	2631.47
426.964	2641.71
427.171	2932.52
427.379	2852.65
427.586	2973.48
427.794	2979.62
428.001	3153.7
428.209	3254.05
428.417	3327.78
428.624	3532.58
428.832	3426.08
429.039	3493.66
429.247	3434.27
429.454	3938.07
429.662	4110.1
429.869	3854.11
430.076	4069.14
430.284	4187.93
430.491	4224.79
430.699	4407.06
430.906	4427.54
431.114	4574.99
431.321	4886.28
431.528	4716.3
431.736	5123.85
431.943	5209.86
432.15	5166.85
432.358	5390.08
432.565	5408.51
432.772	5584.64
432.979	5719.81
433.187	5807.87
433.394	5883.64
433.601	6313.72
433.808	6348.53
434.016	6434.55
434.223	6438.64
434.43	6950.64
434.637	6860.52
434.844	7468.77
435.052	7442.15
435.259	7487.2
435.466	7339.75
435.673	7380.71
435.88	7845.6
436.087	8312.53
436.294	8214.23
436.501	8163.03
436.708	8271.58
436.915	8457.94
437.122	8939.21
437.329	8849.1
437.537	9246.41
437.743	9293.51
437.95	9279.18
438.157	9899.71
438.364	9985.72
438.571	10004.16
438.778	10346.17
438.985	11171.5
439.192	10694.32
439.399	10956.46
439.606	10907.31
439.813	11337.38
440.02	12101.28
440.227	11984.54
440.433	11681.44
440.64	11939.49
440.847	12056.22
441.054	12494.49
441.261	12955.28
441.467	12994.19
441.674	13430.41
441.881	13700.74
442.088	13647.49
442.294	13588.1
442.501	13905.54
442.708	14388.86
442.914	14767.73
443.121	15687.27
443.328	15033.97
443.534	15945.31
443.741	15658.6
443.948	15531.62
444.154	16651.86
444.361	16281.18
444.568	16815.7
444.774	16725.59
444.981	16631.38
445.187	17765.96
445.394	17864.26
445.6	18042.43
445.807	19660.33
446.013	18572.86
446.22	19117.62
446.426	19787.3
446.633	20104.74
446.839	20469.28
447.046	19926.57
447.252	20991.51
447.459	21149.2
447.665	20946.45
447.871	21792.26
448.078	22912.5
448.284	21802.5
448.491	22226.43
448.697	23031.29
448.903	23680.49
449.11	23725.55
449.316	23309.81
449.522	23739.88
449.728	24278.5
449.935	24348.13
450.141	24665.56
450.347	25099.73
450.553	24315.36
450.76	24739.29
450.966	25552.34
451.172	25263.57
451.378	25916.87
451.584	25232.85
451.791	25933.26
451.997	25845.19
452.203	26217.93
452.409	26121.67
452.615	26205.64
452.821	25318.87
453.027	24698.33
453.233	26516.93
453.44	25515.47
453.646	25396.69
453.852	25742.8
454.058	25974.22
454.264	25058.77
454.47	25759.18
454.676	25114.07
454.882	26228.17
455.088	23913.96
455.294	23997.93
455.5	24831.45
455.705	24974.81
455.911	23983.59
456.117	23485.93
456.323	22865.4
456.529	21757.45
456.735	22756.86
456.941	22324.74
457.147	22124.04
457.352	21071.38
457.558	20995.6
457.764	21036.56
457.97	20635.16
458.176	20149.79
458.381	20125.22
458.587	19322.41
458.793	19252.78
458.999	18343.49
459.204	19394.09
459.41	19422.76
459.616	17745.48
459.821	17790.53
460.027	18026.05
460.233	17333.84
460.438	16584.28
460.644	17112.66
460.85	15881.83
461.055	15750.76
461.261	15863.4
461.466	14728.82
461.672	14188.16
461.878	15298.16
462.083	14282.36
462.289	13794.95
462.494	13788.8
462.7	13289.1
462.905	12891.79
463.111	13463.18
463.316	13254.28
463.522	13076.11
463.727	13127.31
463.932	13024.91
464.138	12793.49
464.343	13137.55
464.549	12746.39
464.754	13004.43
464.959	12918.42
465.165	12861.07
465.37	12351.13
465.575	12191.39
465.781	12643.99
465.986	12557.97
466.191	12074.65
466.397	12199.58
466.602	11386.54
466.807	11728.55
467.012	11931.3
467.218	11798.18
467.423	11726.5
467.628	11749.03
467.833	12117.66
468.038	11804.32
468.244	11427.49
468.449	11814.56
468.654	11445.93
468.859	11452.07
469.064	11402.92
469.269	10905.26
469.474	10946.22
469.679	11536.04
469.885	10872.5
470.09	10931.89
470.295	11054.76
470.5	10839.73
470.705	10766
470.91	10542.77
471.115	10323.64
471.32	10614.45
471.525	10505.91
471.73	10188.47
471.935	10096.32
472.139	9846.46
472.344	10133.18
472.549	9825.98
472.754	9760.45
472.959	9385.67
473.164	9270.98
473.369	9397.96
473.574	9549.51
473.778	9354.95
473.983	9154.25
474.188	9275.08
474.393	8732.37
474.598	9053.9
474.802	8924.88
475.007	8871.63
475.212	8726.22
475.417	8699.6
475.621	8496.85
475.826	8648.4
476.031	8322.77
476.235	8072.92
476.44	8525.52
476.645	8283.86
476.849	8136.41
477.054	8085.21
477.259	7960.28
477.463	7845.6
477.668	7692
477.872	7640.8
478.077	7544.55
478.282	7599.84
478.486	7405.28
478.691	7364.32
478.895	7485.16
479.1	7214.82
479.304	7313.13
479.509	7132.9
479.713	7169.77
479.918	7112.42
480.122	7046.89
480.326	7306.98
480.531	7151.34
480.735	6995.69
480.94	6874.86
481.144	7100.14
481.348	6776.56
481.553	6768.37
481.757	6776.56
481.961	6870.76
482.166	6942.44
482.37	6833.9
482.574	6878.96
482.778	6794.99
482.983	6883.05
483.187	6754.03
483.391	6930.16
483.595	6684.4
483.8	6711.02
484.004	6911.72
484.208	7014.12
484.412	7042.79
484.616	6842.09
484.821	6940.4
485.025	6733.55
485.229	6893.29
485.433	6815.47
485.637	6825.71
485.841	6895.34
486.045	6860.52
486.249	6932.2
486.453	6848.24
486.657	6754.03
486.861	6913.77
487.065	6860.52
487.269	6936.3
487.473	6848.24
487.677	7010.03
487.881	7284.45
488.085	6934.25
488.289	7010.03
488.493	6860.52
488.697	6958.83
488.901	7053.03
489.105	7112.42
489.309	7118.57
489.512	7141.1
489.716	7177.96
489.92	7268.07
490.124	7091.95
490.328	7288.55
490.531	7188.2
490.735	7306.98
490.939	7403.24
491.143	7270.12
491.346	7296.74
491.55	7421.67
491.754	7468.77
491.958	7347.94
492.161	7544.55
492.365	7585.51
492.569	7577.31
492.772	7522.02
492.976	7542.5
493.18	7730.91
493.383	7864.03
493.587	7847.65
493.79	7902.94
493.994	7745.25
494.197	8015.58
494.401	8017.63
494.605	8046.3
494.808	8292.05
495.012	8322.77
495.215	8097.5
495.419	8298.2
495.622	8326.87
495.825	8548.05
496.029	8701.65
496.232	8998.6
496.436	8961.74
496.639	8937.16
496.843	8904.4
497.046	9135.82
497.249	9111.24
497.453	9363.14
497.656	9402.05
497.859	9412.29
498.063	9629.38
498.266	9803.46
498.469	9889.47
498.673	9885.37
498.876	10026.68
499.079	10127.03
499.282	10264.25
499.485	10565.3
499.689	10630.84
499.892	10720.95
500.095	10835.63
500.298	10843.82
500.501	10921.65
500.705	11443.88
500.908	11533.99
501.111	11640.48
501.314	11706.02
501.517	11742.88
501.72	12058.27
501.923	12007.07
502.126	12365.46
502.329	12584.6
502.532	12557.97
502.735	12629.65
502.938	12732.05
503.141	12811.92
503.344	13217.42
503.547	13153.93
503.75	13301.39
503.953	13719.17
504.156	13737.6
504.359	14036.61
504.562	14061.18
504.765	14208.64
504.968	14538.36
505.17	14700.15
505.373	14861.94
505.576	15101.55
505.779	15332.97
505.982	15206
506.185	15560.3
506.387	15730.28
506.59	15924.83
506.793	16211.55
506.996	16391.77
507.198	16590.42
507.401	16817.75
507.604	16535.13
507.807	17307.21
508.009	17518.15
508.212	17626.7
508.415	17868.36
508.617	17978.95
508.82	18425.4
509.022	18050.63
509.225	18382.4
509.428	18904.63
509.63	19080.75
509.833	18935.35
510.035	19324.46
510.238	19525.16
510.44	19820.07
510.643	20084.26
510.845	20364.83
511.048	20420.13
511.25	20440.61
511.453	20743.7
511.655	21671.43
511.858	21450.25
512.06	21689.87
512.262	21935.62
512.465	21722.63
512.667	22550.01
512.87	22623.74
513.072	22588.92
513.274	23352.82
513.477	23426.54
513.679	23279.09
513.881	23842.28
514.084	24079.85
514.286	24102.37
514.488	24151.52
514.69	24905.18
514.893	25304.53
515.095	25343.44
515.297	25560.53
515.499	25789.9
515.701	25927.11
515.904	26533.31
516.106	25957.83
516.308	26654.14
516.51	27207.09
516.712	27207.09
516.914	27465.14
517.116	27698.61
517.318	28155.3
517.52	28145.06
517.722	28347.81
517.925	28980.64
518.127	28876.19
518.329	29556.11
518.531	29240.73
518.733	29498.77
518.935	29836.69
519.136	30055.82
519.338	30444.93
519.54	30954.88
519.742	30735.74
519.944	30913.92
520.146	31681.91
520.348	31999.34
520.55	31915.37
520.752	32359.78
520.954	32796
521.155	32456.04
521.357	32939.36
521.559	33367.38
521.761	33555.8
521.963	33635.67
522.164	33989.97
522.366	33838.42
522.568	34305.35
522.77	34473.29
522.971	34886.98
523.173	34655.56
523.375	35003.71
523.576	35157.31
523.778	35353.91
523.98	35720.5
524.181	35861.81
524.383	36166.96
524.584	36537.64
524.786	36097.33
524.988	36580.65
525.189	36611.37
525.391	36918.56
525.592	37154.08
525.794	37422.36
525.995	37299.48
526.197	37217.57
526.398	37764.37
526.6	38161.68
526.801	38202.64
527.003	38044.94
527.204	38219.02
527.406	38817.03
527.607	38266.13
527.808	39054.59
528.01	38710.53
528.211	38819.08
528.412	39277.82
528.614	39054.59
528.815	39322.88
529.016	39777.53
529.218	39318.78
529.419	39546.11
529.62	39814.39
529.822	39560.44
530.023	40113.39
530.224	39943.41
530.425	39939.32
530.626	39804.15
530.828	39763.19
531.029	40453.36
531.23	40037.62
531.431	39937.27
531.632	40504.56
531.833	40383.73
532.035	40748.26
532.236	40697.06
532.437	40836.33
532.638	40262.89
532.839	40609
533.04	41166.05
533.241	40492.27
533.442	41116.9
533.643	40807.65
533.844	40836.33
534.045	40901.86
534.246	40791.27
534.447	40942.82
534.648	41080.03
534.849	41209.06
535.05	41129.19
535.251	41280.74
535.451	41004.26
535.652	41037.03
535.853	41180.38
536.054	40940.77
536.255	41190.62
536.456	40756.46
536.657	41868.5
536.857	41313.5
537.058	41391.33
537.259	42073.3
537.46	41684.19
537.66	41338.08
537.861	41313.5
538.062	41784.54
538.263	41428.19
538.463	41534.68
538.664	41321.69
538.865	41602.27
539.065	42061.01
539.266	41532.64
539.466	41895.13
539.667	41000.16
539.868	42159.31
540.068	41880.79
540.269	41598.17
540.469	41518.3
540.67	41546.97
540.87	41780.44
541.071	41721.05
541.271	41942.23
541.472	41893.08
541.672	41669.85
541.873	41737.43
542.073	41116.9
542.274	41876.69
542.474	41862.36
542.675	41448.67
542.875	42228.94
543.075	41852.12
543.276	41637.08
543.476	41901.27
543.676	41704.66
543.877	42013.91
544.077	41911.51
544.277	41551.07
544.478	41497.82
544.678	41643.23
544.878	41977.04
545.078	42206.42
545.279	41843.93
545.479	41960.66
545.679	41845.97
545.879	41706.71
546.079	42134.74
546.28	42132.69
546.48	41618.65
546.68	42106.07
546.88	41917.65
547.08	41997.52
547.28	41809.11
547.48	41463
547.68	41669.85
547.88	41438.43
548.081	41944.28
548.281	41886.93
548.481	41860.31
548.681	42114.26
548.881	42095.83
549.081	41448.67
549.28	41983.19
549.48	42276.05
549.68	42046.68
549.88	42493.13
550.08	41772.25
550.28	42384.59
550.48	41540.83
550.68	42112.21
550.88	42015.96
551.08	41501.92
551.279	41831.64
551.479	41395.42
551.679	42009.81
551.879	41575.64
552.079	41706.71
552.278	41755.86
552.478	41714.9
552.678	41874.65
552.878	41952.47
553.077	41845.97
553.277	41311.45
553.477	41962.71
553.676	41344.22
553.876	41759.96
554.076	41925.85
554.275	41483.48
554.475	41403.61
554.674	41643.23
554.874	41626.84
555.074	41561.31
555.273	41583.83
555.473	41551.07
555.672	41192.67
555.872	41135.33
556.071	41432.29
556.271	41778.39
556.47	40916.2
556.67	41407.71
556.869	41264.35
557.068	41673.95
557.268	41329.89
557.467	41360.61
557.667	41315.55
557.866	41338.08
558.065	41059.55
558.265	40924.39
558.464	41092.32
558.663	41665.75
558.863	41006.31
559.062	41714.9
559.261	40887.53
559.461	41686.23
559.66	40649.96
559.859	41321.69
560.058	40842.47
560.258	40697.06
560.457	40752.36
560.656	41221.34
560.855	40957.16
561.054	41227.49
561.253	41082.08
561.453	40936.68
561.652	40932.58
561.851	40875.24
562.05	40576.23
562.249	40613.1
562.448	41139.43
562.647	40658.15
562.846	40789.22
563.045	40844.52
563.244	40574.19
563.443	41164
563.642	40443.12
563.841	40735.98
564.04	40289.52
564.239	41020.64
564.438	40559.85
564.637	40465.64
564.836	40951.01
565.035	40412.4
565.234	40805.61
565.432	40273.13
565.631	40193.26
565.83	40549.61
566.029	40400.11
566.228	40226.03
566.427	40150.26
566.625	39957.75
566.824	39957.75
567.023	40543.47
567.222	39525.63
567.42	40449.26
567.619	40183.02
567.818	39767.29
568.016	40240.37
568.215	40477.93
568.414	40037.62
568.612	40514.8
568.811	39687.42
569.01	40355.05
569.208	39646.46
569.407	40047.86
569.605	39773.43
569.804	39941.36
570.002	39609.59
570.201	39967.99
570.4	39523.58
570.598	39490.81
570.797	39288.06
570.995	39525.63
571.193	39189.76
571.392	39656.7
571.59	39326.97
571.789	39458.04
571.987	39054.59
572.186	38964.48
572.384	39167.23
572.582	39494.91
572.781	39515.39
572.979	38546.7
573.177	39111.94
573.376	39550.2
573.574	38737.16
573.772	38866.18
573.971	38264.08
574.169	38583.56
574.367	38681.86
574.565	38954.24
574.763	38563.08
574.962	38415.63
575.16	38073.62
575.358	38671.62
575.556	37840.15
575.754	38487.31
575.952	37903.63
576.151	38327.56
576.349	37729.56
576.547	38096.14
576.745	37768.47
576.943	37932.31
577.141	37754.13
577.339	37561.62
577.537	37559.58
577.735	37416.22
577.933	37358.88
578.131	37612.82
578.329	37487.9
578.527	37014.82
578.725	37309.72
578.923	37324.06
579.121	37295.39
579.319	37147.93
579.516	37299.48
579.714	36988.19
579.912	36992.29
580.11	36904.23
580.308	36955.43
580.506	37029.15
580.704	36279.6
580.901	36732.2
581.099	36554.02
581.297	36283.69
581.495	36478.25
581.692	36609.32
581.89	35857.71
582.088	36293.93
582.285	35829.04
582.483	36107.57
582.681	35865.91
582.878	36013.36
583.076	35503.42
583.274	35859.76
583.471	35124.54
583.669	35495.22
583.866	35149.12
584.064	35392.83
584.262	35226.94
584.459	35296.57
584.657	35276.09
584.854	35081.53
585.052	34420.04
585.249	34821.44
585.447	35011.9
585.644	34487.62
585.841	34874.69
586.039	34850.11
586.236	34520.39
586.434	34329.93
586.631	34254.15
586.828	34041.17
587.026	34536.77
587.223	34413.9
587.42	33772.88
587.618	33865.04
587.815	33633.62
588.012	33793.36
588.21	33426.78
588.407	33836.37
588.604	33334.62
588.801	33428.82
588.999	33344.86
589.196	32961.89
589.393	33629.52
589.59	33029.47
589.787	33170.78
589.984	32888.16
590.182	32449.89
590.379	32613.73
590.576	32392.55
590.773	32175.47
590.97	32388.46
591.167	32621.92
591.364	32030.06
591.561	32357.74
591.758	32079.21
591.955	32013.68
592.152	31855.98
592.349	31755.63
592.546	32075.12
592.743	32036.2
592.94	31419.77
593.137	31690.1
593.334	31694.19
593.531	31499.64
593.727	31550.84
593.924	31366.52
594.121	31026.56
594.318	31257.98
594.515	31008.12
594.712	31157.63
594.908	31034.75
595.105	30887.29
595.302	30510.47
595.499	30858.62
595.696	30383.49
595.892	30780.8
596.089	30690.69
596.286	30489.99
596.482	30154.12
596.679	30352.77
596.876	30156.17
597.072	30080.39
597.269	30045.58
597.466	29603.22
597.662	29635.99
597.859	30072.2
598.055	29244.82
598.252	29554.07
598.448	29556.11
598.645	29351.32
598.841	29072.79
599.038	29029.79
599.234	29406.61
599.431	28898.72
599.627	28902.81
599.824	29238.68
600.02	28642.72
600.217	28638.62
600.413	28589.47
600.609	28554.66
600.806	28294.57
601.002	28900.76
601.198	28399.01
601.395	28208.55
601.591	27917.74
601.787	28177.83
601.984	28411.3
602.18	27905.45
602.376	27725.23
602.572	27530.67
602.769	27913.64
602.965	27639.22
603.161	27708.85
603.357	27303.35
603.553	27342.26
603.75	27366.84
603.946	27096.5
604.142	27637.17
604.338	26953.15
604.534	27356.6
604.73	26695.1
604.926	26959.29
605.122	26877.37
605.318	26754.49
605.514	26547.65
605.71	26584.51
605.906	26381.76
606.102	26541.5
606.298	26389.95
606.494	26224.07
606.69	25994.7
606.886	26189.25
607.082	25613.77
607.278	26093
607.474	25576.91
607.67	26193.35
607.866	25380.31
608.062	26033.61
608.257	25763.28
608.453	25824.72
608.649	25855.43
608.845	25230.8
609.041	25642.45
609.236	25503.18
609.432	25492.94
609.628	25734.6
609.824	25464.27
610.019	25236.95
610.215	25071.06
610.411	25239
610.606	24831.45
610.802	24956.38
610.998	25095.64
611.193	25185.75
611.389	24839.64
611.584	24815.07
611.78	24790.49
611.976	24593.89
612.171	24645.09
612.367	24679.9
612.562	24638.94
612.758	24307.17
612.953	24554.97
613.149	24684
613.344	24274.4
613.539	24720.86
613.735	24438.24
613.93	24481.25
614.126	24143.33
614.321	24471.01
614.517	24192.48
614.712	24094.18
614.907	24176.1
615.103	24393.19
615.298	23815.66
615.493	24384.99
615.688	23862.76
615.884	24073.7
616.079	23719.4
616.274	23959.02
616.47	23662.06
616.665	23768.55
616.86	23533.04
617.055	23725.55
617.25	23502.32
617.445	23686.64
617.641	23082.49
617.836	23350.77
618.031	23025.14
618.226	23498.22
618.421	22910.46
618.616	23342.58
618.811	22785.53
619.006	23117.3
619.201	22570.49
619.396	22763
619.591	22365.7
619.786	22691.32
619.981	22361.6
620.176	22515.2
620.371	22158.85
620.566	22441.47
620.761	21767.69
620.956	22459.9
621.151	21859.85
621.346	22013.45
621.541	21526.03
621.735	21808.65
621.93	21308.94
622.125	21798.41
622.32	21030.42
622.515	21210.64
622.709	20966.93
622.904	21255.7
623.099	20913.69
623.294	21112.34
623.488	20547.1
623.683	20661.79
623.878	20446.75
624.072	20323.87
624.267	20327.97
624.462	20405.79
624.656	20033.06
624.851	19916.33
625.046	19899.94
625.24	19811.88
625.435	19791.4
625.629	19918.37
625.824	19496.49
626.018	19291.69
626.213	18953.78
626.407	19373.61
626.602	18689.59
626.796	19052.08
626.991	18843.19
627.185	18777.65
627.38	18595.39
627.574	18382.4
627.768	18394.68
627.963	18538.04
628.157	18138.69
628.352	18120.26
628.546	18034.24
628.74	18118.21
628.935	17978.95
629.129	17501.77
629.323	17598.02
629.517	17753.67
629.712	17671.75
629.906	17540.68
630.1	17362.51
630.294	17329.74
630.489	17243.73
630.683	17092.18
630.877	17018.45
631.071	16744.02
631.265	16997.97
631.459	16741.97
631.653	16438.87
631.848	16672.34
632.042	16516.7
632.236	16545.37
632.43	16223.84
632.624	16326.24
632.818	16238.17
633.012	15988.32
633.206	16074.34
633.4	16082.53
633.594	15621.73
633.788	15875.68
633.982	15926.88
634.176	15658.6
634.369	15459.95
634.563	15384.17
634.757	15255.15
634.951	15267.44
635.145	15249
635.339	15388.27
635.533	15113.84
635.726	14999.15
635.92	14794.36
636.114	14814.84
636.308	14823.03
636.501	14890.61
636.695	14726.77
636.889	14698.1
637.083	14540.41
637.276	14339.71
637.47	14538.36
637.664	14188.16
637.857	14319.23
638.051	14175.87
638.244	13815.43
638.438	14057.09
638.632	13788.8
638.825	13778.56
639.019	13840
639.212	13627.01
639.406	13479.56
639.599	13491.85
639.793	13567.62
639.986	13411.98
640.18	13500.04
640.373	13266.57
640.567	13174.41
640.76	13221.52
640.954	13192.84
641.147	12957.33
641.34	12938.9
641.534	12961.42
641.727	12584.6
641.92	12723.86
642.114	12437.14
642.307	12428.95
642.5	12531.35
642.694	12508.82
642.887	12351.13
643.08	12314.27
643.273	12197.53
643.467	12142.24
643.66	12175
643.853	12060.32
644.046	11929.25
644.239	11861.66
644.432	11923.1
644.626	11820.7
644.819	11697.83
645.012	11673.25
645.205	11744.93
645.398	11583.14
645.591	11587.24
645.784	11366.06
645.977	11433.64
646.17	11277.99
646.363	11058.86
646.556	10886.83
646.749	10901.17
646.942	11050.67
647.135	10966.7
647.328	11024.05
647.521	10892.98
647.714	10747.57
647.907	10632.88
648.099	10575.54
648.292	10698.42
648.485	10620.6
648.678	10356.41
648.871	10352.31
649.064	10249.91
649.256	10329.78
649.449	10342.07
649.642	10221.24
649.835	10045.12
650.027	9879.23
650.22	10041.02
650.413	9989.82
650.605	9998.01
650.798	9842.37
650.991	9504.45
651.183	9823.94
651.376	9518.79
651.568	9565.89
651.761	9565.89
651.954	9357
652.146	9344.71
652.339	9336.52
652.531	9453.25
652.724	9217.74
652.916	9021.13
653.109	9084.62
653.301	9242.31
653.494	9201.35
653.686	8881.87
653.879	8931.02
654.071	8734.42
654.263	8789.71
654.456	8875.73
654.648	8756.94
654.84	8652.5
655.033	8595.15
655.225	8720.08
655.417	8589.01
655.61	8533.72
655.802	8439.51
655.994	8457.94
656.186	8328.92
656.379	8310.49
656.571	8320.73
656.763	8126.17
656.955	8107.74
657.148	8185.56
657.34	8031.96
657.532	8005.34
657.724	7982.81
657.916	8085.21
658.108	7771.87
658.3	7851.74
658.492	7964.38
658.684	7773.92
658.876	7556.83
659.068	7618.27
659.26	7681.76
659.452	7626.46
659.644	7405.28
659.836	7532.26
660.028	7487.2
660.22	7333.61
660.412	7214.82
660.604	7317.22
660.796	7210.73
660.988	7048.94
661.18	6844.14
661.372	7042.79
661.563	6991.59
661.755	7091.95
661.947	6891.24
662.139	6813.42
662.331	6762.22
662.522	6606.58
662.714	6649.58
662.906	6741.74
663.097	6582
663.289	6442.74
663.481	6565.62
663.673	6489.84
663.864	6430.45
664.056	6399.73
664.247	6393.59
664.439	6293.24
664.631	6266.61
664.822	6285.05
665.014	6233.85
665.205	6190.84
665.397	6137.59
665.588	6074.1
665.78	6045.43
665.971	6059.77
666.163	5953.27
666.354	5811.96
666.546	5967.61
666.737	5779.2
666.929	5756.67
667.12	5912.32
667.311	5754.62
667.503	5803.77
667.694	5699.33
667.885	5467.91
668.077	5383.94
668.268	5549.82
668.459	5512.96
668.651	5396.23
668.842	5504.77
669.033	5213.96
669.224	5355.27
669.416	5265.16
669.607	5363.46
669.798	5232.39
669.989	5369.6
670.18	5213.96
670.371	5271.3
670.563	5138.18
670.754	5048.07
670.945	5048.07
671.136	5117.7
671.327	4943.63
671.518	5062.41
671.709	4876.04
671.9	4867.85
672.091	5060.36
672.282	4900.62
672.473	4804.36
672.664	4808.46
672.855	4914.95
673.046	4812.56
673.237	4851.47
673.428	4779.79
673.619	4665.1
673.809	4726.54
674	4728.59
674.191	4699.92
674.382	4681.49
674.573	4538.13
674.764	4507.41
674.954	4519.7
675.145	4499.22
675.336	4560.66
675.527	4484.88
675.717	4402.96
675.908	4308.76
676.099	4292.37
676.289	4378.39
676.48	4359.95
676.671	4198.17
676.861	4284.18
677.052	4278.04
677.243	4271.89
677.433	4208.41
677.624	4218.64
677.814	4282.13
678.005	4275.99
678.195	4253.46
678.386	4214.55
678.576	4142.87
678.767	4054.81
678.957	4126.49
679.148	4163.35
679.338	4093.72
679.529	4103.96
679.719	4103.96
679.909	4030.23
680.1	4017.94
680.29	3868.44
680.481	3985.18
680.671	3954.46
680.861	3893.02
681.052	3872.54
681.242	3929.88
681.432	3981.08
681.622	3747.61
681.813	3903.26
682.003	3704.6
682.193	3800.86
682.383	3772.19
682.573	3800.86
682.764	3653.41
682.954	3843.87
683.144	3813.15
683.334	3741.47
683.524	3737.37
683.714	3755.8
683.904	3745.56
684.094	3776.28
684.284	3716.89
684.474	3667.74
684.664	3759.9
684.854	3704.6
685.044	3657.5
685.234	3620.64
685.424	3614.49
685.614	3475.23
685.804	3614.49
685.994	3620.64
686.184	3481.38
686.374	3505.95
686.564	3510.05
686.753	3696.41
686.943	3610.4
687.133	3563.29
687.323	3532.58
687.513	3540.77
687.702	3430.18
687.892	3485.47
688.082	3458.85
688.272	3475.23
688.461	3632.93
688.651	3483.42
688.841	3489.57
689.03	3448.61
689.22	3462.94
689.41	3426.08
689.599	3460.9
689.789	3467.04
689.979	3469.09
690.168	3473.18
690.358	3391.27
690.547	3329.83
690.737	3362.59
690.926	3319.59
691.116	3254.05
691.305	3301.15
691.495	3340.07
691.684	3225.38
691.874	3307.3
692.063	3346.21
692.252	3346.21
692.442	3274.53
692.631	3202.85
692.82	3215.14
693.01	3206.95
693.199	3378.98
693.388	3211.04
693.578	3178.28
693.767	3231.52
693.956	3190.56
694.146	3182.37
694.335	3198.76
694.524	3204.9
694.713	3020.58
694.902	3165.99
695.092	3049.25
695.281	3036.97
695.47	3014.44
695.659	3041.06
695.848	2991.91
696.037	3151.65
696.226	3036.97
696.415	2871.08
696.604	2916.14
696.793	2912.04
696.982	3026.73
697.171	3057.45
697.36	3096.36
697.549	2944.81
697.738	2879.27
697.927	2836.27
698.116	2938.66
698.305	2819.88
698.494	2846.51
698.683	2854.7
698.872	2791.21
699.061	2688.81
699.25	2641.71
699.438	2817.83
699.627	2785.07
699.816	2719.53
700.005	2697
700.193	2772.78
700.382	2811.69
700.571	2770.73
700.76	2754.35
700.948	2682.67
701.137	2668.33
701.326	2711.34
701.514	2664.24
701.703	2576.17
701.892	2664.24
702.08	2674.48
702.269	2504.5
702.457	2600.75
702.646	2541.36
702.834	2502.45
703.023	2477.87
703.212	2543.41
703.4	2430.77
703.589	2477.87
703.777	2512.69
703.965	2443.06
704.154	2365.23
704.342	2387.76
704.531	2484.02
704.719	2393.9
704.907	2461.49
705.096	2326.32
705.284	2387.76
705.472	2359.09
705.661	2383.66
705.849	2352.95
706.037	2400.05
706.226	2322.23
706.414	2398
706.602	2203.44
706.79	2330.42
706.979	2266.93
707.167	2297.65
707.355	2199.35
707.543	2144.05
707.731	2221.88
707.919	2195.25
708.107	2191.16
708.296	2144.05
708.484	2123.57
708.672	2242.36
708.86	2154.29
709.048	2109.24
709.236	2092.85
709.424	2168.63
709.612	2158.39
709.8	2037.56
709.988	2162.48
710.176	2152.24
710.364	1996.6
710.551	2012.98
710.739	2049.85
710.927	2049.85
711.115	2043.7
711.303	1943.35
711.491	1908.54
711.679	1781.56
711.866	2033.46
712.054	2000.69
712.242	1982.26
712.43	1953.59
712.617	2031.41
712.805	1982.26
712.993	1951.54
713.181	1875.77
713.368	1843
713.556	1867.58
713.744	1785.66
713.931	1808.19
714.119	1804.09
714.306	1847.1
714.494	1886.01
714.682	1918.78
714.869	1765.18
715.057	1799.99
715.244	1795.9
715.432	1763.13
715.619	1705.79
715.807	1750.84
715.994	1724.22
716.182	1720.12
716.369	1775.42
716.556	1703.74
716.744	1736.51
716.931	1709.88
717.119	1738.55
717.306	1664.83
717.493	1716.03
717.681	1576.77
717.868	1617.72
718.055	1634.11
718.242	1550.14
718.43	1535.81
718.617	1582.91
718.804	1521.47
718.991	1648.44
719.179	1607.48
719.366	1523.52
719.553	1535.81
719.74	1548.09
719.927	1505.09
720.114	1478.46
720.301	1480.51
720.488	1433.41
720.676	1523.52
720.863	1460.03
721.05	1468.22
721.237	1527.61
721.424	1519.42
721.611	1429.31
721.798	1380.16
721.985	1402.69
722.172	1353.54
722.358	1400.64
722.545	1462.08
722.732	1412.93
722.919	1376.06
723.106	1404.74
723.293	1341.25
723.48	1392.45
723.667	1296.19
723.853	1378.11
724.04	1388.35
724.227	1339.2
724.414	1333.06
724.6	1400.64
724.787	1290.05
724.974	1259.33
725.161	1251.14
725.347	1189.7
725.534	1199.94
725.72	1324.87
725.907	1296.19
726.094	1226.56
726.28	1345.34
726.467	1265.47
726.653	1238.85
726.84	1218.37
727.027	1210.18
727.213	1273.67
727.4	1224.51
727.586	1294.15
727.773	1273.67
727.959	1189.7
728.145	1279.81
728.332	1099.59
728.518	1134.4
728.705	1244.99
728.891	1169.22
729.077	1255.23
729.264	1103.68
729.45	1040.2
729.636	1046.34
729.823	1152.84
730.009	1077.06
730.195	1095.49
730.382	1056.58
730.568	1118.02
730.754	1001.29
730.94	999.24
731.126	1083.2
731.313	1056.58
731.499	1044.29
731.685	1173.32
731.871	999.24
732.057	1032.01
732.243	945.99
732.429	1093.44
732.615	1056.58
732.801	980.81
732.987	997.19
733.173	1019.72
733.359	997.19
733.545	986.95
733.731	970.57
733.917	997.19
734.103	960.33
734.289	915.27
734.475	1011.53
734.661	968.52
734.847	974.66
735.033	960.33
735.219	960.33
735.404	1040.2
735.59	880.46
735.776	1034.05
735.962	884.55
736.148	913.22
736.333	919.37
736.519	984.9
736.705	966.47
736.89	880.46
737.076	888.65
737.262	966.47
737.447	905.03
737.633	878.41
737.819	921.42
738.004	892.74
738.19	812.87
738.375	857.93
738.561	804.68
738.747	896.84
738.932	849.74
739.118	888.65
739.303	862.02
739.489	845.64
739.674	823.11
739.859	839.5
740.045	831.3
740.23	802.63
740.416	802.63
740.601	866.12
740.786	784.2
740.972	776.01
741.157	884.55
741.342	866.12
741.528	771.91
741.713	841.54
741.898	786.25
742.084	784.2
742.269	812.87
742.454	724.81
742.639	874.31
742.824	806.73
743.01	804.68
743.195	720.71
743.38	724.81
743.565	735.05
743.75	743.24
743.935	673.61
744.12	730.95
744.305	724.81
744.49	733
744.675	761.67
744.86	638.8
745.045	720.71
745.23	741.19
745.415	675.66
745.6	655.18
745.785	747.34
745.97	655.18
746.155	685.9
746.34	665.42
746.525	780.11
746.71	704.33
746.895	681.8
747.079	626.51
747.264	675.66
747.449	730.95
747.634	608.08
747.819	599.88
748.003	685.9
748.188	765.77
748.373	614.22
748.557	550.73
748.742	573.26
748.927	550.73
749.111	671.56
749.296	622.41
749.481	608.08
749.665	577.36
749.85	558.92
750.034	603.98
750.219	651.08
750.404	493.39
750.588	524.11
750.773	540.49
750.957	554.83
751.141	552.78
751.326	702.28
751.51	556.88
751.695	567.12
751.879	632.65
752.064	534.35
752.248	470.86
752.432	520.01
752.617	532.3
752.801	505.68
752.985	554.83
753.17	628.56
753.354	579.4
753.538	509.77
753.722	581.45
753.907	462.67
754.091	499.53
754.275	513.87
754.459	444.24
754.643	454.48
754.828	509.77
755.012	462.67
755.196	464.72
755.38	460.62
755.564	460.62
755.748	462.67
755.932	507.73
756.116	542.54
756.3	397.14
756.484	479.05
756.668	411.47
756.852	438.09
757.036	452.43
757.22	499.53
757.404	427.85
757.588	423.76
757.772	429.9
757.956	411.47
758.14	493.39
758.323	405.33
758.507	503.63
758.691	423.76
758.875	491.34
759.059	464.72
759.242	395.09
759.426	429.9
759.61	397.14
759.794	450.38
759.977	470.86
760.161	347.98
760.345	362.32
760.528	405.33
760.712	452.43
760.895	395.09
761.079	434
761.263	399.18
761.446	407.38
761.63	397.14
761.813	436.05
761.997	390.99
762.18	395.09
762.364	395.09
762.547	378.7
762.731	421.71
762.914	438.09
763.098	390.99
763.281	411.47
763.464	442.19
763.648	384.85
763.831	313.17
764.015	325.46
764.198	401.23
764.381	419.66
764.564	364.37
764.748	325.46
764.931	384.85
765.114	337.74
765.297	368.46
765.481	382.8
765.664	337.74
765.847	296.78
766.03	376.66
766.213	323.41
766.397	296.78
766.58	395.09
766.763	356.18
766.946	313.17
767.129	354.13
767.312	390.99
767.495	282.45
767.678	417.61
767.861	298.83
768.044	354.13
768.227	450.38
768.41	333.65
768.593	372.56
768.776	354.13
768.959	337.74
769.142	368.46
769.324	311.12
769.507	364.37
769.69	345.94
769.873	378.7
770.056	401.23
770.239	302.93
770.421	415.57
770.604	264.02
770.787	307.02
770.97	307.02
771.152	352.08
771.335	311.12
771.518	292.69
771.7	405.33
771.883	319.31
772.066	296.78
772.248	372.56
772.431	360.27
772.613	335.7
772.796	304.98
772.978	307.02
773.161	343.89
773.343	325.46
773.526	284.5
773.708	374.61
773.891	282.45
774.073	331.6
774.256	323.41
774.438	294.74
774.621	243.54
774.803	288.59
774.985	280.4
775.168	241.49
775.35	276.31
775.532	290.64
775.715	266.07
775.897	382.8
776.079	329.55
776.261	323.41
776.444	231.25
776.626	309.07
776.808	261.97
776.99	212.82
777.173	245.59
777.355	241.49
777.537	288.59
777.719	218.96
777.901	274.26
778.083	345.94
778.265	178
778.447	274.26
778.629	272.21
778.811	321.36
778.993	255.83
779.175	247.63
779.357	239.44
779.539	216.91
779.721	159.57
779.903	313.17
780.085	186.19
780.267	286.54
780.449	216.91
780.631	165.71
780.812	290.64
780.994	227.15
781.176	192.34
781.358	233.3
781.54	221.01
781.721	235.35
781.903	261.97
782.085	184.15
782.267	192.34
782.448	266.07
782.63	147.28
782.812	165.71
782.993	225.11
783.175	206.67
783.357	206.67
783.538	143.19
783.72	200.53
783.901	264.02
784.083	212.82
784.264	249.68
784.446	171.86
784.627	184.15
784.809	188.24
784.99	200.53
785.172	173.91
785.353	229.2
785.535	182.1
785.716	202.58
785.897	145.24
786.079	149.33
786.26	212.82
786.441	155.47
786.623	233.3
786.804	104.28
786.985	198.48
787.167	122.71
787.348	188.24
787.529	143.19
787.71	192.34
787.891	192.34
788.073	163.67
788.254	198.48
788.435	214.87
788.616	194.39
788.797	167.76
788.978	223.06
789.159	112.47
789.34	178
789.522	243.54
789.703	114.52
789.884	190.29
790.065	167.76
790.246	135
790.427	124.76
790.607	167.76
790.788	257.87
790.969	110.42
791.15	178
791.331	175.95
791.512	91.99
791.693	48.98
791.874	200.53
792.054	126.8
792.235	223.06
792.416	147.28
792.597	147.28
792.778	159.57
792.958	210.77
793.139	169.81
793.32	108.37
793.5	112.47
793.681	173.91
793.862	173.91
794.042	118.61
794.223	157.52
794.404	161.62
794.584	145.24
794.765	184.15
794.945	139.09
795.126	114.52
795.306	114.52
795.487	184.15
795.667	122.71
795.848	102.23
796.028	130.9
796.209	135
796.389	102.23
796.57	104.28
796.75	145.24
796.93	122.71
797.111	110.42
797.291	112.47
797.471	173.91
797.652	132.95
797.832	91.99
798.012	210.77
798.192	112.47
798.373	116.56
798.553	87.89
798.733	143.19
798.913	85.84
799.093	85.84
799.274	110.42
799.454	91.99
799.634	87.89
799.814	108.37
799.994	77.65
800.174	151.38
800.354	120.66
800.534	112.47
800.714	67.41
800.894	69.46
801.074	75.6
801.254	143.19
801.434	63.32
801.614	114.52
801.794	126.8
801.974	313.17
802.154	48.98
802.334	108.37
802.514	63.32
802.693	91.99
802.873	69.46
803.053	75.6
803.233	65.36
803.413	91.99
803.592	77.65
803.772	106.32
803.952	77.65
804.131	130.9
804.311	61.27
804.491	126.8
804.67	85.84
804.85	34.64
805.03	100.18
805.209	91.99
805.389	75.6
805.568	67.41
805.748	112.47
805.928	38.74
806.107	85.84
806.287	38.74
806.466	94.04
806.646	59.22
806.825	141.14
807.004	65.36
807.184	98.13
807.363	75.6
807.543	-0.17
807.722	108.37
807.901	32.6
808.081	83.8
808.26	16.21
808.439	73.56
808.619	94.04
808.798	59.22
808.977	55.12
809.156	51.03
809.336	83.8
809.515	116.56
809.694	44.88
809.873	89.94
810.052	100.18
810.231	85.84
810.411	83.8
810.59	85.84
810.769	-59.56
810.948	87.89
811.127	20.31
811.306	87.89
811.485	-34.99
811.664	8.02
811.843	26.45
812.022	175.95
812.201	63.32
812.38	69.46
812.559	-6.31
812.737	69.46
812.916	57.17
813.095	42.84
813.274	48.98
813.453	98.13
813.632	116.56
813.811	42.84
813.989	-16.55
814.168	42.84
814.347	-0.17
814.526	55.12
814.704	108.37
814.883	57.17
815.062	34.64
815.24	79.7
815.419	18.26
815.598	83.8
815.776	116.56
815.955	85.84
816.133	67.41
816.312	36.69
816.49	77.65
816.669	71.51
816.847	44.88
817.026	87.89
817.204	-0.17
817.383	67.41
817.561	104.28
817.74	51.03
817.918	40.79
818.097	75.6
818.275	118.61
818.453	108.37
818.632	-26.79
818.81	26.45
818.988	51.03
819.167	61.27
819.345	48.98
819.523	10.07
819.701	46.93
819.879	67.41
820.058	26.45
820.236	79.7
820.414	55.12
820.592	20.31
820.77	10.07
820.948	12.12
821.127	3.93
821.305	48.98
821.483	65.36
821.661	38.74
821.839	53.08
822.017	83.8
822.195	10.07
822.373	59.22
822.551	61.27
822.729	53.08
822.907	-18.6
823.085	26.45
823.262	10.07
823.44	12.12
823.618	44.88
823.796	22.36
823.974	73.56
824.152	34.64
824.329	20.31
824.507	14.17
824.685	139.09
824.863	22.36
825.04	-75.95
825.218	114.52
825.396	12.12
825.574	-28.84
825.751	57.17
825.929	141.14
826.107	28.5
826.284	1.88
826.462	42.84
826.639	32.6
826.817	46.93
826.994	71.51
827.172	65.36
827.349	-10.41
827.527	18.26
827.704	18.26
827.882	79.7
828.059	-4.27
828.237	-16.55
828.414	30.55
828.591	20.31
828.769	14.17
828.946	-22.7
829.124	-28.84
829.301	-12.46
829.478	42.84
829.655	-14.51
829.833	28.5
830.01	10.07
830.187	20.31
830.364	91.99
830.542	-8.36
830.719	48.98
830.896	3.93
831.073	-0.17
831.25	5.97
831.427	14.17
831.604	14.17
831.782	16.21
831.959	-4.27
832.136	40.79
832.313	63.32
832.49	5.97
832.667	3.93
832.844	-34.99
833.021	42.84
833.198	28.5
833.374	3.93
833.551	-14.51
833.728	44.88
833.905	-26.79
834.082	36.69
834.259	8.02
834.436	-12.46
834.612	-12.46
834.789	-0.17
834.966	36.69
835.143	71.51
835.319	-10.41
835.496	57.17
835.673	10.07
835.85	155.47
836.026	18.26
836.203	16.21
836.38	-30.89
836.556	38.74
836.733	34.64
836.909	-12.46
837.086	30.55
837.262	-80.04
837.439	46.93
837.616	59.22
837.792	12.12
837.968	20.31
838.145	32.6
838.321	20.31
838.498	18.26
838.674	46.93
838.851	10.07
839.027	-12.46
839.203	3.93
839.38	46.93
839.556	-4.27
839.732	-0.17
839.909	18.26
840.085	-6.31
840.261	10.07
840.437	16.21
840.614	73.56
840.79	51.03
840.966	-28.84
841.142	5.97
841.318	-2.22
841.494	12.12
841.671	22.36
841.847	-2.22
842.023	42.84
842.199	-47.27
842.375	-4.27
842.551	18.26
842.727	-49.32
842.903	94.04
843.079	14.17
843.255	51.03
843.431	16.21
843.607	10.07
843.783	-37.03
843.959	34.64
844.134	-10.41
844.31	-14.51
844.486	-39.08
844.662	44.88
844.838	34.64
845.013	46.93
845.189	-8.36
845.365	59.22
845.541	10.07
845.716	-6.31
845.892	30.55
846.068	-4.27
846.244	32.6
846.419	10.07
846.595	1.88
846.77	34.64
846.946	51.03
847.122	-4.27
847.297	-12.46
847.473	-43.18
847.648	79.7
847.824	3.93
847.999	-6.31
848.175	-12.46
848.35	-22.7
848.526	-26.79
848.701	-10.41
848.876	40.79
849.052	-4.27
849.227	34.64
849.403	-10.41
849.578	1.88
849.753	30.55
849.929	8.02
850.104	-8.36
850.279	36.69
850.454	32.6
850.63	-4.27
850.805	83.8
850.98	69.46
851.155	-10.41
851.33	-47.27
851.505	3.93
851.681	40.79
851.856	57.17
852.031	-12.46
852.206	48.98
852.381	28.5
852.556	12.12
852.731	22.36
852.906	12.12
853.081	14.17
853.256	51.03
853.431	12.12
853.606	-71.85
853.781	-41.13
853.956	42.84
854.131	16.21
854.305	-18.6
854.48	69.46
854.655	-0.17
854.83	14.17
855.005	-2.22
855.18	67.41
855.354	3.93
855.529	-0.17
855.704	5.97
855.879	-24.75
856.053	3.93
856.228	100.18
856.403	-61.61
856.577	26.45
856.752	53.08
856.926	22.36
857.101	-67.75
857.276	-73.9
857.45	-14.51
857.625	-22.7
857.799	-49.32
857.974	-41.13
858.148	-32.94
858.323	28.5
858.497	-16.55
858.672	77.65
858.846	-18.6
859.02	59.22
859.195	3.93
859.369	-41.13
859.543	8.02
859.718	18.26
859.892	18.26
860.066	12.12
860.241	-28.84
860.415	40.79
860.589	16.21
860.763	-14.51
860.938	-55.47
861.112	51.03
861.286	3.93
861.46	-8.36
861.634	8.02
861.808	1.88
861.982	-45.23
862.157	-12.46
862.331	-24.75
862.505	-14.51
862.679	-24.75
862.853	-32.94
863.027	-0.17
863.201	-0.17
863.375	-26.79
863.549	3.93
863.722	12.12
863.896	10.07
864.07	38.74
864.244	-28.84
864.418	-34.99
864.592	-51.37
864.766	-22.7
864.939	-4.27
865.113	-57.51
865.287	-34.99
865.461	-22.7
865.634	-41.13
865.808	-2.22
865.982	40.79
866.156	-45.23
866.329	-8.36
866.503	-22.7
866.676	3.93
866.85	24.4
867.024	42.84
867.197	16.21
867.371	12.12
867.544	-24.75
867.718	-67.75
867.891	24.4
868.065	-57.51
868.238	63.32
868.412	28.5
868.585	-20.65
868.759	5.97
868.932	8.02
869.105	-20.65
869.279	3.93
869.452	16.21
869.625	44.88
869.799	20.31
869.972	1.88
870.145	63.32
870.319	-51.37
870.492	-55.47
870.665	42.84
870.838	8.02
871.011	-34.99
871.185	-16.55
871.358	-12.46
871.531	-6.31
871.704	-51.37
871.877	26.45
872.05	-49.32
872.223	20.31
872.396	-34.99
872.569	61.27
872.742	-34.99
872.915	-2.22
873.088	-47.27
873.261	-63.66
873.434	-20.65
873.607	-16.55
873.78	-8.36
873.953	-20.65
874.126	-26.79
874.299	18.26
874.471	18.26
874.644	3.93
874.817	-12.46
874.99	14.17
875.163	-6.31
875.335	44.88
875.508	-24.75
875.681	-49.32
875.853	-10.41
876.026	-22.7
876.199	44.88
876.371	30.55
876.544	8.02
876.717	36.69
876.889	-2.22
877.062	-14.51
877.234	-24.75
877.407	-18.6
877.579	-71.85
877.752	51.03
877.924	-20.65
878.097	-45.23
878.269	16.21
878.442	18.26
878.614	1.88
878.786	59.22
878.959	38.74
879.131	-49.32
879.303	-61.61
879.476	28.5
879.648	-43.18
879.82	-32.94
879.993	-55.47
880.165	-24.75
880.337	-39.08
880.509	-4.27
880.681	-65.71
880.854	40.79
881.026	5.97
881.198	36.69
881.37	32.6
881.542	-18.6
881.714	32.6
881.886	-4.27
882.058	-2.22
882.23	12.12
882.402	-12.46
882.574	3.93
882.746	14.17
882.918	10.07
883.09	57.17
883.262	14.17
883.434	-26.79
883.606	-37.03
883.778	22.36
883.95	-8.36
884.122	5.97
884.293	1.88
884.465	-39.08
884.637	28.5
884.809	-34.99
884.98	67.41
885.152	-10.41
885.324	-6.31
885.496	-16.55
885.667	-32.94
885.839	-0.17
886.011	-12.46
886.182	-32.94
886.354	20.31
886.525	-32.94
886.697	34.64
886.869	-22.7
887.04	59.22
887.212	-2.22
887.383	20.31
887.555	20.31
887.726	10.07
887.897	8.02
888.069	-12.46
888.24	-80.04
888.412	-24.75
888.583	-8.36
888.754	40.79
888.926	-34.99
889.097	3.93
889.268	-61.61
889.44	-61.61
889.611	-6.31
889.782	-24.75
889.953	-49.32
890.125	-2.22
890.296	-86.19
890.467	71.51
890.638	-43.18
890.809	-49.32
890.98	44.88
891.151	22.36
891.323	-108.71
891.494	-20.65
891.665	18.26
891.836	10.07
892.007	-18.6
892.178	-18.6
892.349	-24.75
892.52	-28.84
892.691	24.4
892.862	36.69
893.032	-22.7
893.203	-26.79
893.374	26.45
893.545	-75.95
893.716	-39.08
893.887	-16.55
894.057	10.07
894.228	-32.94
894.399	16.21
894.57	65.36
894.74	-22.7
894.911	-28.84
895.082	8.02
895.253	-4.27
895.423	-51.37
895.594	30.55
895.764	-32.94
895.935	-59.56
896.106	-18.6
896.276	-30.89
896.447	-30.89
896.617	-47.27
896.788	-63.66
896.958	-14.51
897.129	-67.75
897.299	-6.31
897.47	16.21
897.64	57.17
897.81	-10.41
897.981	-0.17
898.151	16.21
898.322	-4.27
898.492	-2.22
898.662	-30.89
898.832	12.12
899.003	-77.99
899.173	73.56
899.343	-57.51
899.513	12.12
