Data from USB4F104151__45__12-53-50-535.txt Node

Date: Fri Mar 14 12:53:50 EDT 2025
User: louis
Spectrometer: USB4F10415
Trigger mode: 4
Integration Time (sec): 1.000000E-2
Scans to average: 1
Electric dark correction enabled: true
Nonlinearity correction enabled: false
Boxcar width: 0
XAxis mode: Wavelengths
Number of Pixels in Spectrum: 3648
>>>>>Begin Spectral Data<<<<<
178.204	-29.35
178.424	-29.35
178.644	-29.35
178.864	-10.92
179.084	40.28
179.304	64.85
179.524	-62.12
179.744	32.08
179.964	-25.26
180.184	-4.78
180.404	-10.92
180.624	30.04
180.844	-4.78
181.064	-39.59
181.283	-0.68
181.503	-27.31
181.723	48.47
181.943	-0.68
182.163	58.71
182.383	-8.87
182.602	34.13
182.822	-31.4
183.042	-35.5
183.262	5.46
183.482	36.18
183.701	-43.69
183.921	-25.26
184.141	-35.5
184.361	73.04
184.58	-15.02
184.8	62.8
185.02	27.99
185.239	81.24
185.459	-15.02
185.679	7.51
185.898	17.75
186.118	58.71
186.338	-0.68
186.557	9.56
186.777	30.04
186.997	46.42
187.216	1.37
187.436	60.76
187.655	97.62
187.875	15.7
188.095	58.71
188.314	116.05
188.534	27.99
188.753	27.99
188.973	64.85
189.192	44.37
189.412	68.95
189.631	7.51
189.851	-2.73
190.07	-19.11
190.29	36.18
190.509	25.94
190.729	56.66
190.948	56.66
191.168	15.7
191.387	122.2
191.607	-2.73
191.826	34.13
192.045	68.95
192.265	52.56
192.484	-2.73
192.704	38.23
192.923	36.18
193.142	91.48
193.362	42.32
193.581	85.33
193.8	44.37
194.02	38.23
194.239	27.99
194.458	19.8
194.678	34.13
194.897	1.37
195.116	-27.31
195.335	11.61
195.555	27.99
195.774	30.04
195.993	-19.11
196.212	44.37
196.432	-10.92
196.651	11.61
196.87	-45.74
197.089	-2.73
197.308	48.47
197.528	38.23
197.747	-25.26
197.966	36.18
198.185	81.24
198.404	9.56
198.623	48.47
198.842	5.46
199.062	-25.26
199.281	5.46
199.5	38.23
199.719	-4.78
199.938	-72.36
200.157	-17.07
200.376	64.85
200.595	54.61
200.814	32.08
201.033	32.08
201.252	30.04
201.471	23.89
201.69	-17.07
201.909	46.42
202.128	36.18
202.347	17.75
202.566	27.99
202.785	1.37
203.004	34.13
203.223	54.61
203.442	68.95
203.661	3.41
203.879	3.41
204.098	54.61
204.317	17.75
204.536	38.23
204.755	-27.31
204.974	-15.02
205.193	56.66
205.411	46.42
205.63	68.95
205.849	17.75
206.068	56.66
206.287	36.18
206.505	30.04
206.724	19.8
206.943	-19.11
207.162	27.99
207.381	32.08
207.599	85.33
207.818	11.61
208.037	19.8
208.255	13.65
208.474	107.86
208.693	25.94
208.911	60.76
209.13	38.23
209.349	66.9
209.567	30.04
209.786	25.94
210.005	66.9
210.223	25.94
210.442	-35.5
210.661	17.75
210.879	-10.92
211.098	38.23
211.316	-49.83
211.535	27.99
211.753	-45.74
211.972	81.24
212.191	-6.83
212.409	36.18
212.628	36.18
212.846	11.61
213.065	25.94
213.283	107.86
213.502	73.04
213.72	64.85
213.938	42.32
214.157	-31.4
214.375	21.85
214.594	13.65
214.812	15.7
215.031	-2.73
215.249	95.57
215.467	-35.5
215.686	60.76
215.904	32.08
216.122	56.66
216.341	126.29
216.559	93.52
216.778	-41.64
216.996	-23.21
217.214	1.37
217.432	56.66
217.651	48.47
217.869	7.51
218.087	136.53
218.306	44.37
218.524	30.04
218.742	48.47
218.96	64.85
219.179	19.8
219.397	79.19
219.615	79.19
219.833	64.85
220.051	85.33
220.27	44.37
220.488	60.76
220.706	77.14
220.924	21.85
221.142	-17.07
221.36	68.95
221.578	52.56
221.796	23.89
222.015	40.28
222.233	-41.64
222.451	50.52
222.669	-2.73
222.887	50.52
223.105	-23.21
223.323	101.72
223.541	23.89
223.759	34.13
223.977	1.37
224.195	50.52
224.413	79.19
224.631	-2.73
224.849	-15.02
225.067	48.47
225.285	-19.11
225.503	99.67
225.721	56.66
225.939	52.56
226.157	114
226.375	81.24
226.592	19.8
226.81	71
227.028	56.66
227.246	62.8
227.464	-53.93
227.682	-33.45
227.9	-25.26
228.117	7.51
228.335	21.85
228.553	73.04
228.771	-8.87
228.989	-25.26
229.206	60.76
229.424	19.8
229.642	-0.68
229.86	40.28
230.077	19.8
230.295	60.76
230.513	75.09
230.731	-31.4
230.948	75.09
231.166	68.95
231.384	5.46
231.601	54.61
231.819	-25.26
232.037	19.8
232.254	38.23
232.472	83.28
232.689	68.95
232.907	52.56
233.125	19.8
233.342	85.33
233.56	15.7
233.777	30.04
233.995	81.24
234.213	62.8
234.43	27.99
234.648	11.61
234.865	71
235.083	101.72
235.3	-66.22
235.518	140.63
235.735	89.43
235.953	23.89
236.17	15.7
236.388	58.71
236.605	-25.26
236.822	13.65
237.04	95.57
237.257	79.19
237.475	56.66
237.692	52.56
237.909	56.66
238.127	36.18
238.344	38.23
238.562	21.85
238.779	73.04
238.996	-2.73
239.214	5.46
239.431	54.61
239.648	11.61
239.865	60.76
240.083	46.42
240.3	34.13
240.517	27.99
240.735	30.04
240.952	-35.5
241.169	73.04
241.386	77.14
241.603	56.66
241.821	42.32
242.038	9.56
242.255	9.56
242.472	34.13
242.689	30.04
242.907	91.48
243.124	44.37
243.341	32.08
243.558	77.14
243.775	56.66
243.992	171.35
244.209	27.99
244.426	60.76
244.643	44.37
244.86	-39.59
245.078	81.24
245.295	11.61
245.512	21.85
245.729	60.76
245.946	-41.64
246.163	89.43
246.38	5.46
246.597	9.56
246.814	25.94
247.031	85.33
247.248	77.14
247.464	25.94
247.681	-17.07
247.898	-4.78
248.115	17.75
248.332	-12.97
248.549	71
248.766	62.8
248.983	19.8
249.2	7.51
249.417	19.8
249.633	34.13
249.85	54.61
250.067	62.8
250.284	15.7
250.501	3.41
250.717	32.08
250.934	-10.92
251.151	-37.55
251.368	3.41
251.585	124.24
251.801	36.18
252.018	3.41
252.235	23.89
252.451	36.18
252.668	138.58
252.885	79.19
253.102	36.18
253.318	3.41
253.535	11.61
253.752	-8.87
253.968	23.89
254.185	32.08
254.401	-15.02
254.618	-27.31
254.835	46.42
255.051	48.47
255.268	21.85
255.484	42.32
255.701	9.56
255.917	77.14
256.134	-15.02
256.351	60.76
256.567	50.52
256.784	79.19
257	-47.79
257.217	85.33
257.433	71
257.65	36.18
257.866	38.23
258.082	48.47
258.299	-25.26
258.515	89.43
258.732	-31.4
258.948	-4.78
259.165	5.46
259.381	-4.78
259.597	27.99
259.814	64.85
260.03	-53.93
260.246	77.14
260.463	56.66
260.679	77.14
260.895	83.28
261.112	118.1
261.328	-0.68
261.544	-10.92
261.761	91.48
261.977	7.51
262.193	38.23
262.409	25.94
262.626	-29.35
262.842	36.18
263.058	30.04
263.274	-47.79
263.49	91.48
263.707	36.18
263.923	-12.97
264.139	101.72
264.355	46.42
264.571	46.42
264.787	11.61
265.004	-2.73
265.22	64.85
265.436	3.41
265.652	50.52
265.868	21.85
266.084	23.89
266.3	44.37
266.516	15.7
266.732	85.33
266.948	71
267.164	50.52
267.38	132.44
267.596	52.56
267.812	-0.68
268.028	64.85
268.244	9.56
268.46	36.18
268.676	36.18
268.892	-27.31
269.108	38.23
269.324	-43.69
269.54	-4.78
269.756	42.32
269.972	38.23
270.188	165.2
270.403	23.89
270.619	40.28
270.835	50.52
271.051	81.24
271.267	-12.97
271.483	93.52
271.698	13.65
271.914	36.18
272.13	27.99
272.346	118.1
272.562	34.13
272.777	27.99
272.993	7.51
273.209	25.94
273.425	11.61
273.64	3.41
273.856	42.32
274.072	77.14
274.287	27.99
274.503	-0.68
274.719	105.81
274.934	25.94
275.15	-12.97
275.366	68.95
275.581	62.8
275.797	40.28
276.012	23.89
276.228	81.24
276.444	66.9
276.659	71
276.875	56.66
277.09	44.37
277.306	75.09
277.521	68.95
277.737	44.37
277.952	7.51
278.168	77.14
278.383	15.7
278.599	23.89
278.814	38.23
279.03	75.09
279.245	58.71
279.461	21.85
279.676	48.47
279.892	-12.97
280.107	64.85
280.322	44.37
280.538	15.7
280.753	25.94
280.969	-37.55
281.184	-29.35
281.399	93.52
281.615	93.52
281.83	54.61
282.045	30.04
282.26	3.41
282.476	89.43
282.691	103.76
282.906	13.65
283.122	7.51
283.337	34.13
283.552	87.38
283.767	27.99
283.983	-31.4
284.198	40.28
284.413	40.28
284.628	-21.16
284.843	36.18
285.058	15.7
285.274	30.04
285.489	54.61
285.704	52.56
285.919	44.37
286.134	44.37
286.349	34.13
286.564	27.99
286.779	118.1
286.995	79.19
287.21	-8.87
287.425	56.66
287.64	21.85
287.855	87.38
288.07	1.37
288.285	5.46
288.5	11.61
288.715	116.05
288.93	-23.21
289.145	62.8
289.36	109.91
289.575	23.89
289.79	23.89
290.004	64.85
290.219	68.95
290.434	7.51
290.649	38.23
290.864	25.94
291.079	62.8
291.294	19.8
291.509	42.32
291.724	58.71
291.938	50.52
292.153	62.8
292.368	13.65
292.583	-29.35
292.798	-19.11
293.012	1.37
293.227	81.24
293.442	-15.02
293.657	30.04
293.871	109.91
294.086	46.42
294.301	44.37
294.516	52.56
294.73	68.95
294.945	-41.64
295.16	-25.26
295.374	38.23
295.589	-4.78
295.804	25.94
296.018	36.18
296.233	71
296.447	21.85
296.662	64.85
296.877	66.9
297.091	85.33
297.306	-25.26
297.52	1.37
297.735	27.99
297.949	87.38
298.164	58.71
298.378	71
298.593	40.28
298.807	21.85
299.022	99.67
299.236	-21.16
299.451	3.41
299.665	23.89
299.88	93.52
300.094	109.91
300.309	15.7
300.523	-2.73
300.737	58.71
300.952	-19.11
301.166	-45.74
301.381	7.51
301.595	38.23
301.809	52.56
302.024	58.71
302.238	87.38
302.452	93.52
302.667	27.99
302.881	5.46
303.095	30.04
303.309	101.72
303.524	32.08
303.738	44.37
303.952	11.61
304.166	-6.83
304.381	7.51
304.595	85.33
304.809	48.47
305.023	-2.73
305.237	-25.26
305.452	27.99
305.666	1.37
305.88	1.37
306.094	-39.59
306.308	23.89
306.522	81.24
306.736	21.85
306.95	19.8
307.164	52.56
307.379	52.56
307.593	38.23
307.807	-4.78
308.021	60.76
308.235	46.42
308.449	40.28
308.663	36.18
308.877	97.62
309.091	-0.68
309.305	54.61
309.519	25.94
309.733	89.43
309.947	-2.73
310.161	68.95
310.374	68.95
310.588	52.56
310.802	52.56
311.016	-49.83
311.23	-10.92
311.444	48.47
311.658	85.33
311.872	-25.26
312.085	71
312.299	-4.78
312.513	19.8
312.727	21.85
312.941	114
313.154	-23.21
313.368	-39.59
313.582	11.61
313.796	25.94
314.009	7.51
314.223	48.47
314.437	23.89
314.651	1.37
314.864	38.23
315.078	-0.68
315.292	83.28
315.505	7.51
315.719	-2.73
315.933	21.85
316.146	73.04
316.36	3.41
316.573	77.14
316.787	-6.83
317.001	93.52
317.214	105.81
317.428	60.76
317.641	36.18
317.855	11.61
318.068	40.28
318.282	-60.07
318.495	44.37
318.709	19.8
318.922	13.65
319.136	56.66
319.349	46.42
319.563	-4.78
319.776	85.33
319.99	109.91
320.203	83.28
320.417	21.85
320.63	-21.16
320.843	79.19
321.057	-4.78
321.27	52.56
321.483	75.09
321.697	15.7
321.91	64.85
322.124	75.09
322.337	23.89
322.55	3.41
322.763	13.65
322.977	44.37
323.19	60.76
323.403	-10.92
323.617	23.89
323.83	87.38
324.043	-29.35
324.256	9.56
324.469	44.37
324.683	62.8
324.896	44.37
325.109	-12.97
325.322	58.71
325.535	36.18
325.748	27.99
325.962	36.18
326.175	38.23
326.388	62.8
326.601	-17.07
326.814	62.8
327.027	122.2
327.24	46.42
327.453	54.61
327.666	48.47
327.879	19.8
328.092	79.19
328.305	17.75
328.518	40.28
328.731	89.43
328.944	79.19
329.157	23.89
329.37	-17.07
329.583	1.37
329.796	114
330.009	93.52
330.222	32.08
330.435	68.95
330.648	48.47
330.861	25.94
331.073	36.18
331.286	107.86
331.499	-12.97
331.712	13.65
331.925	48.47
332.138	32.08
332.35	27.99
332.563	75.09
332.776	21.85
332.989	38.23
333.202	68.95
333.414	66.9
333.627	81.24
333.84	44.37
334.053	5.46
334.265	66.9
334.478	40.28
334.691	73.04
334.903	-45.74
335.116	91.48
335.329	27.99
335.541	25.94
335.754	58.71
335.966	1.37
336.179	21.85
336.392	62.8
336.604	1.37
336.817	109.91
337.029	-0.68
337.242	38.23
337.454	109.91
337.667	9.56
337.88	97.62
338.092	85.33
338.305	83.28
338.517	27.99
338.729	68.95
338.942	-10.92
339.154	48.47
339.367	-10.92
339.579	56.66
339.792	13.65
340.004	32.08
340.217	-39.59
340.429	68.95
340.641	83.28
340.854	25.94
341.066	64.85
341.278	9.56
341.491	68.95
341.703	30.04
341.915	23.89
342.128	17.75
342.34	23.89
342.552	62.8
342.764	58.71
342.977	34.13
343.189	34.13
343.401	21.85
343.613	23.89
343.826	79.19
344.038	-21.16
344.25	62.8
344.462	32.08
344.674	5.46
344.886	23.89
345.099	111.96
345.311	83.28
345.523	11.61
345.735	38.23
345.947	38.23
346.159	34.13
346.371	50.52
346.583	13.65
346.795	120.15
347.007	64.85
347.219	44.37
347.431	68.95
347.643	60.76
347.855	144.72
348.067	23.89
348.279	64.85
348.491	118.1
348.703	34.13
348.915	103.76
349.127	-8.87
349.339	52.56
349.551	-10.92
349.763	136.53
349.975	-17.07
350.187	62.8
350.399	-47.79
350.61	17.75
350.822	32.08
351.034	44.37
351.246	58.71
351.458	77.14
351.669	93.52
351.881	-43.69
352.093	68.95
352.305	81.24
352.517	48.47
352.728	64.85
352.94	17.75
353.152	13.65
353.363	107.86
353.575	95.57
353.787	50.52
353.999	3.41
354.21	-2.73
354.422	93.52
354.633	40.28
354.845	64.85
355.057	93.52
355.268	132.44
355.48	38.23
355.692	79.19
355.903	109.91
356.115	-8.87
356.326	48.47
356.538	48.47
356.749	17.75
356.961	68.95
357.172	32.08
357.384	34.13
357.595	9.56
357.807	-6.83
358.018	93.52
358.23	114
358.441	138.58
358.653	71
358.864	83.28
359.075	-21.16
359.287	19.8
359.498	56.66
359.709	-12.97
359.921	56.66
360.132	54.61
360.344	34.13
360.555	48.47
360.766	101.72
360.977	7.51
361.189	11.61
361.4	7.51
361.611	38.23
361.823	36.18
362.034	34.13
362.245	38.23
362.456	36.18
362.667	40.28
362.879	38.23
363.09	-15.02
363.301	-25.26
363.512	89.43
363.723	56.66
363.935	81.24
364.146	60.76
364.357	44.37
364.568	75.09
364.779	73.04
364.99	30.04
365.201	38.23
365.412	132.44
365.623	62.8
365.834	36.18
366.045	99.67
366.256	54.61
366.467	34.13
366.678	25.94
366.889	81.24
367.1	56.66
367.311	25.94
367.522	87.38
367.733	79.19
367.944	27.99
368.155	42.32
368.366	99.67
368.577	97.62
368.788	42.32
368.999	99.67
369.209	-12.97
369.42	120.15
369.631	114
369.842	36.18
370.053	44.37
370.264	27.99
370.474	79.19
370.685	27.99
370.896	40.28
371.107	95.57
371.317	85.33
371.528	13.65
371.739	99.67
371.95	9.56
372.16	36.18
372.371	38.23
372.582	99.67
372.792	101.72
373.003	97.62
373.214	7.51
373.424	50.52
373.635	17.75
373.846	95.57
374.056	46.42
374.267	13.65
374.477	3.41
374.688	34.13
374.898	136.53
375.109	87.38
375.319	3.41
375.53	85.33
375.74	50.52
375.951	3.41
376.161	99.67
376.372	87.38
376.582	38.23
376.793	32.08
377.003	13.65
377.214	42.32
377.424	27.99
377.635	48.47
377.845	73.04
378.055	93.52
378.266	-8.87
378.476	38.23
378.686	79.19
378.897	36.18
379.107	62.8
379.317	15.7
379.528	103.76
379.738	71
379.948	122.2
380.158	73.04
380.369	97.62
380.579	3.41
380.789	34.13
380.999	60.76
381.21	66.9
381.42	42.32
381.63	52.56
381.84	85.33
382.05	52.56
382.261	97.62
382.471	64.85
382.681	56.66
382.891	128.34
383.101	71
383.311	42.32
383.521	146.77
383.731	36.18
383.941	130.39
384.151	77.14
384.361	75.09
384.571	15.7
384.781	54.61
384.991	132.44
385.201	73.04
385.411	111.96
385.621	62.8
385.831	114
386.041	44.37
386.251	77.14
386.461	111.96
386.671	34.13
386.881	13.65
387.091	83.28
387.301	40.28
387.511	95.57
387.72	19.8
387.93	44.37
388.14	46.42
388.35	42.32
388.56	-4.78
388.769	64.85
388.979	60.76
389.189	9.56
389.399	75.09
389.609	60.76
389.818	60.76
390.028	-15.02
390.238	111.96
390.447	11.61
390.657	38.23
390.867	3.41
391.076	25.94
391.286	50.52
391.496	50.52
391.705	34.13
391.915	44.37
392.125	101.72
392.334	79.19
392.544	25.94
392.753	30.04
392.963	77.14
393.172	83.28
393.382	89.43
393.591	32.08
393.801	23.89
394.01	146.77
394.22	36.18
394.429	116.05
394.639	105.81
394.848	144.72
395.058	132.44
395.267	105.81
395.477	75.09
395.686	109.91
395.895	50.52
396.105	136.53
396.314	93.52
396.524	132.44
396.733	77.14
396.942	77.14
397.152	60.76
397.361	101.72
397.57	132.44
397.78	165.2
397.989	27.99
398.198	107.86
398.407	19.8
398.617	21.85
398.826	34.13
399.035	52.56
399.244	66.9
399.453	95.57
399.663	75.09
399.872	66.9
400.081	101.72
400.29	171.35
400.499	-15.02
400.708	130.39
400.917	126.29
401.127	181.59
401.336	15.7
401.545	126.29
401.754	142.68
401.963	95.57
402.172	73.04
402.381	122.2
402.59	159.06
402.799	103.76
403.008	79.19
403.217	95.57
403.426	71
403.635	107.86
403.844	136.53
404.053	56.66
404.262	87.38
404.471	152.92
404.68	161.11
404.888	91.48
405.097	126.29
405.306	81.24
405.515	146.77
405.724	54.61
405.933	140.63
406.142	159.06
406.35	187.73
406.559	167.25
406.768	128.34
406.977	175.44
407.185	165.2
407.394	109.91
407.603	148.82
407.812	177.49
408.02	142.68
408.229	163.15
408.438	120.15
408.646	200.02
408.855	142.68
409.064	232.79
409.272	193.87
409.481	191.83
409.69	181.59
409.898	204.11
410.107	228.69
410.315	281.94
410.524	251.22
410.733	247.12
410.941	212.31
411.15	236.88
411.358	304.46
411.567	169.3
411.775	283.99
411.984	243.03
412.192	302.42
412.401	294.22
412.609	320.85
412.818	324.94
413.026	378.19
413.234	402.77
413.443	396.62
413.651	367.95
413.86	322.9
414.068	396.62
414.276	462.16
414.485	462.16
414.693	433.49
414.901	370
415.11	486.73
415.318	478.54
415.526	552.27
415.734	527.69
415.943	533.84
416.151	578.89
416.359	527.69
416.567	570.7
416.776	593.23
416.984	626
417.192	628.04
417.4	714.06
417.608	716.11
417.817	730.44
418.025	738.63
418.233	712.01
418.441	701.77
418.649	830.79
418.857	810.31
419.065	925
419.273	888.14
419.481	929.1
419.689	951.62
419.897	1013.06
420.105	974.15
420.313	1162.56
420.521	1047.88
420.729	1101.12
420.937	1150.28
421.145	1181
421.353	1191.24
421.561	1369.41
421.769	1250.63
421.977	1393.98
422.185	1402.18
422.393	1477.95
422.601	1527.1
422.809	1547.58
423.017	1543.49
423.224	1508.67
423.432	1629.5
423.64	1709.37
423.848	1875.26
424.056	1709.37
424.263	1844.54
424.471	1918.26
424.679	1832.25
424.887	2030.9
425.094	2051.38
425.302	2063.67
425.51	2217.27
425.718	2272.56
425.925	2164.02
426.133	2395.44
426.341	2254.13
426.548	2551.09
426.756	2688.3
426.964	2555.18
427.171	2678.06
427.379	2911.53
427.586	2856.23
427.794	2970.92
428.001	3130.66
428.209	3255.59
428.417	3163.43
428.624	3374.37
428.832	3347.75
429.039	3400.99
429.247	3476.77
429.454	3788.06
429.662	3990.81
429.869	3743
430.076	3786.01
430.284	3841.31
430.491	4097.3
430.699	4277.52
430.906	4312.34
431.114	4326.68
431.321	4525.33
431.528	4685.07
431.736	5080.33
431.943	4953.35
432.15	4994.31
432.358	5061.9
432.565	5291.27
432.772	5321.99
432.979	5549.31
433.187	5680.38
433.394	5731.58
433.601	6165.75
433.808	6171.9
434.016	6188.28
434.223	6317.3
434.43	6823.15
434.637	6634.74
434.844	7171.3
435.052	7261.41
435.259	7156.97
435.466	7224.55
435.673	7156.97
435.88	7613.67
436.087	8045.79
436.294	8039.64
436.501	7945.44
436.708	7898.33
436.915	8068.31
437.122	8508.63
437.329	8629.46
437.537	8957.13
437.743	8959.18
437.95	8887.5
438.157	9581.76
438.364	9735.36
438.571	9723.07
438.778	9866.43
438.985	10570.93
439.192	10329.27
439.399	10658.99
439.606	10380.47
439.813	11109.55
440.02	11515.05
440.227	11326.63
440.433	11261.1
440.64	11746.47
440.847	11719.84
441.054	11728.03
441.261	12778.64
441.467	12467.35
441.674	12948.62
441.881	13405.32
442.088	12999.82
442.294	13024.4
442.501	13368.46
442.708	13792.39
442.914	14236.8
443.121	15019.12
443.328	14478.46
443.534	15684.71
443.741	14924.91
443.948	14771.32
444.154	16100.45
444.361	15877.22
444.568	15934.56
444.774	16004.19
444.981	16196.7
445.187	16628.82
445.394	17505.35
445.6	17228.88
445.807	18588.73
446.013	17863.75
446.22	18531.39
446.426	19358.77
446.633	19086.39
446.839	19926.05
447.046	19323.95
447.252	20173.86
447.459	20468.76
447.665	20188.19
447.871	21048.34
448.078	22090.76
448.284	20909.08
448.491	21290
448.697	22330.37
448.903	22670.33
449.11	22969.33
449.316	22803.45
449.522	22537.21
449.728	23921.64
449.935	23862.25
450.141	23829.48
450.347	24366.05
450.553	23505.9
450.76	23954.41
450.966	24906.71
451.172	24632.29
451.378	25041.88
451.584	24320.99
451.791	25390.03
451.997	25037.78
452.203	25535.44
452.409	25846.73
452.615	25613.26
452.821	24622.05
453.027	24189.92
453.233	25439.19
453.44	24732.64
453.646	24841.18
453.852	24773.6
454.058	25340.88
454.264	24472.54
454.47	25240.53
454.676	24509.41
454.882	25170.9
455.088	23303.15
455.294	23833.58
455.5	23940.07
455.705	24245.22
455.911	23176.18
456.117	23038.97
456.323	22420.48
456.529	21232.66
456.735	22205.44
456.941	21922.82
457.147	21302.29
457.352	20700.19
457.558	20683.8
457.764	20681.75
457.97	20026.4
458.176	19586.09
458.381	19805.22
458.587	18779.19
458.793	18863.16
458.999	17830.98
459.204	18814.01
459.41	18414.65
459.616	17396.81
459.821	17417.29
460.027	17390.67
460.233	16819.28
460.438	16178.27
460.644	16229.47
460.85	15365.23
461.055	15447.15
461.261	15365.23
461.466	14367.87
461.672	13677.7
461.878	14550.14
462.083	13733
462.289	13423.75
462.494	13464.71
462.7	12956.82
462.905	12549.27
463.111	12827.79
463.316	12696.72
463.522	12747.92
463.727	12696.72
463.932	12827.79
464.138	12700.82
464.343	12752.02
464.549	12242.07
464.754	12899.47
464.959	12737.68
465.165	12668.05
465.37	11949.21
465.575	11793.57
465.781	12088.48
465.986	12252.31
466.191	11830.43
466.397	11934.88
466.602	10986.67
466.807	11547.81
467.012	11431.08
467.218	11426.98
467.423	11326.63
467.628	11267.24
467.833	11732.13
468.038	11306.15
468.244	11130.03
468.449	11445.41
468.654	11248.81
468.859	10986.67
469.064	10955.95
469.269	10691.76
469.474	10773.68
469.679	10833.07
469.885	10640.56
470.09	10867.89
470.295	10898.61
470.5	10439.86
470.705	10540.21
470.91	10226.87
471.115	10147
471.32	10284.22
471.525	10302.65
471.73	9993.4
471.935	9907.39
472.139	9528.52
472.344	9743.55
472.549	9794.75
472.754	9682.11
472.959	9303.24
473.164	9217.22
473.369	9104.59
473.574	9368.77
473.778	9237.7
473.983	9065.67
474.188	8991.95
474.393	8942.8
474.598	8725.71
474.802	8660.18
475.007	8539.35
475.212	8643.79
475.417	8211.67
475.621	8398.04
475.826	8248.54
476.031	7875.81
476.235	7935.2
476.44	8164.57
476.645	7791.84
476.849	8041.69
477.054	7662.82
477.259	7787.74
477.463	7666.91
477.668	7498.98
477.872	7490.79
478.077	7392.48
478.282	7400.68
478.486	7138.54
478.691	7376.1
478.895	7107.82
479.1	7163.11
479.304	7228.65
479.509	6991.08
479.713	7111.91
479.918	6907.12
480.122	6774
480.326	6968.55
480.531	7005.42
480.735	6943.98
480.94	6720.75
481.144	7021.8
481.348	6405.36
481.553	6644.98
481.757	6616.3
481.961	6554.87
482.166	6798.57
482.37	6839.53
482.574	6659.31
482.778	6522.1
482.983	6647.02
483.187	6681.84
483.391	6677.74
483.595	6515.95
483.8	6599.92
484.004	6661.36
484.208	6681.84
484.412	6493.43
484.616	6657.26
484.821	6622.45
485.025	6513.91
485.229	6540.53
485.433	6556.91
485.637	6626.54
485.841	6634.74
486.045	6696.18
486.249	6700.27
486.453	6495.47
486.657	6802.67
486.861	6837.48
487.065	6632.69
487.269	6677.74
487.473	6573.3
487.677	6892.78
487.881	6712.56
488.085	6663.41
488.289	7027.95
488.493	6909.16
488.697	6778.09
488.901	6755.57
489.105	6835.44
489.309	6849.77
489.512	6972.65
489.716	6919.4
489.92	6925.55
490.124	6956.27
490.328	7038.19
490.531	7081.19
490.735	7077.1
490.939	7066.86
491.143	7103.72
491.346	7163.11
491.55	7353.57
491.754	7251.17
491.958	7312.61
492.161	7236.84
492.365	7212.26
492.569	7263.46
492.772	7367.91
492.976	7546.08
493.18	7369.96
493.383	7646.43
493.587	7654.62
493.79	7591.14
493.994	7462.12
494.197	7867.61
494.401	7810.27
494.605	7822.56
494.808	8166.62
495.012	7935.2
495.215	7974.11
495.419	8066.27
495.622	8086.75
495.825	8322.26
496.029	8260.82
496.232	8465.62
496.436	8230.1
496.639	8641.75
496.843	8697.04
497.046	8852.69
497.249	9008.33
497.453	8912.08
497.656	9049.29
497.859	9135.31
498.063	9411.78
498.266	9542.85
498.469	9440.45
498.673	9534.66
498.876	9934.01
499.079	9862.33
499.282	10075.32
499.485	10214.59
499.689	10077.37
499.892	10372.28
500.095	10368.18
500.298	10771.63
500.501	10708.15
500.705	11087.02
500.908	11164.84
501.111	11037.87
501.314	11312.3
501.517	11340.97
501.72	11398.31
501.923	11611.3
502.126	11902.11
502.329	12037.28
502.532	12133.53
502.735	12348.57
502.938	12418.2
503.141	12539.03
503.344	12803.22
503.547	12829.84
503.75	13008.01
503.953	13102.22
504.156	13495.43
504.359	13694.08
504.562	13503.62
504.765	14034.05
504.968	14242.94
505.17	14300.28
505.373	14136.45
505.576	14554.23
505.779	14679.16
505.982	14986.35
506.185	15191.15
506.387	15469.67
506.59	15252.59
506.793	15746.15
506.996	15981.67
507.198	16237.66
507.401	16315.48
507.604	16370.78
507.807	16772.18
508.009	17048.66
508.212	16976.98
508.415	17249.36
508.617	17380.43
508.82	17892.42
509.022	17581.13
509.225	18297.92
509.428	18093.12
509.63	18418.75
509.833	18297.92
510.035	18977.84
510.238	18805.81
510.44	19260.46
510.643	19749.93
510.845	19616.81
511.048	19674.15
511.25	20128.8
511.453	20253.73
511.655	20886.55
511.858	20515.87
512.06	20941.85
512.262	21500.94
512.465	21068.82
512.667	21711.88
512.87	21791.75
513.072	22027.27
513.274	22625.28
513.477	22768.63
513.679	22848.5
513.881	23321.59
514.084	23229.43
514.286	23284.72
514.488	23514.09
514.69	24515.55
514.893	24079.33
515.095	24226.79
515.297	24779.74
515.499	25021.4
515.701	25048.02
515.904	25590.73
516.106	25662.41
516.308	25887.69
516.51	26371.01
516.712	26532.8
516.914	26678.21
517.116	27237.3
517.318	27462.58
517.52	27495.35
517.722	27462.58
517.925	27831.21
518.127	28314.53
518.329	28433.32
518.531	28572.58
518.733	28928.92
518.935	29123.48
519.136	29037.47
519.338	29768.59
519.54	29807.5
519.742	29991.82
519.944	30307.21
520.146	30536.58
520.348	30534.53
520.55	30907.26
520.752	31128.44
520.954	31968.11
521.155	31540.08
521.357	32203.63
521.559	32295.78
521.761	32787.3
521.963	32805.73
522.164	32691.04
522.366	32879.46
522.568	33293.15
522.77	33737.55
522.971	33831.76
523.173	33852.24
523.375	34284.36
523.576	34564.93
523.778	34577.22
523.98	34782.02
524.181	35212.09
524.383	34988.86
524.584	35554.1
524.786	35521.34
524.988	35523.38
525.189	35939.12
525.391	35746.61
525.592	36547.37
525.794	36399.91
525.995	36612.9
526.197	36494.12
526.398	36539.18
526.6	36983.58
526.801	37497.63
527.003	37493.53
527.204	37262.11
527.406	37618.46
527.607	37796.63
527.808	38208.27
528.01	37735.19
528.211	37987.09
528.412	38720.26
528.614	38949.64
528.815	38417.16
529.016	38882.05
529.218	38511.37
529.419	38591.24
529.62	38843.14
529.822	39035.65
530.023	39072.51
530.224	38980.35
530.425	39484.15
530.626	39105.28
530.828	38863.62
531.029	40252.14
531.23	39375.61
531.431	39545.59
531.632	39797.49
531.833	39983.86
532.035	39713.53
532.236	39572.22
532.437	40172.27
532.638	39793.4
532.839	40039.15
533.04	40508.14
533.241	39828.21
533.442	40559.34
533.643	40356.59
533.844	40407.79
534.045	40573.67
534.246	40069.87
534.447	40674.02
534.648	40612.59
534.849	40356.59
535.05	40176.37
535.251	41083.62
535.451	40614.63
535.652	40948.45
535.853	40684.26
536.054	40997.6
536.255	40692.46
536.456	40311.53
536.657	41202.4
536.857	40753.9
537.058	40848.1
537.259	41056.99
537.46	40792.81
537.66	40940.26
537.861	40708.84
538.062	41036.52
538.263	41298.66
538.463	40671.98
538.664	40835.81
538.865	41018.08
539.065	41679.58
539.266	40917.73
539.466	41403.1
539.667	40708.84
539.868	41689.82
540.068	41235.17
540.269	41130.72
540.469	41575.13
540.67	41407.2
540.87	41147.11
541.071	41396.96
541.271	41388.77
541.472	41542.36
541.672	40985.32
541.873	41192.16
542.073	40995.56
542.274	41550.56
542.474	41464.54
542.675	40882.92
542.875	41863.89
543.075	41319.13
543.276	40725.22
543.476	41593.56
543.676	41620.19
543.877	41759.45
544.077	41917.14
544.277	41341.66
544.478	41417.44
544.678	41499.36
544.878	41159.39
545.078	41917.14
545.279	41401.05
545.479	41392.86
545.679	41675.48
545.879	41548.51
546.079	41571.04
546.28	41650.91
546.48	41757.4
546.68	41734.87
546.88	41728.73
547.08	41704.15
547.28	41267.94
547.48	41351.9
547.68	41724.63
547.88	40934.12
548.081	42220.24
548.281	41702.11
548.481	41747.16
548.681	41978.58
548.881	41331.42
549.081	41853.65
549.28	41513.69
549.48	41978.58
549.68	41751.26
549.88	42058.45
550.08	41439.97
550.28	41884.37
550.48	41296.61
550.68	42201.81
550.88	41675.48
551.08	41667.29
551.279	41495.26
551.479	41585.37
551.679	41896.66
551.879	41468.64
552.079	41808.6
552.278	41679.58
552.478	41212.64
552.678	41816.79
552.878	41579.23
553.077	41728.73
553.277	41151.2
553.477	41835.22
553.676	41493.21
553.876	41468.64
554.076	40966.88
554.275	41437.92
554.475	41181.92
554.674	41347.81
554.874	41904.85
555.074	41188.06
555.273	41525.98
555.473	41640.67
555.672	41591.51
555.872	41308.9
556.071	41679.58
556.271	41585.37
556.47	41274.08
556.67	41444.06
556.869	41128.67
557.068	41384.67
557.268	41380.57
557.467	41388.77
557.667	41077.47
557.866	41181.92
558.065	41269.98
558.265	40841.96
558.464	40674.02
558.663	41446.11
558.863	40667.88
559.062	41435.87
559.261	40903.4
559.461	41587.42
559.66	40780.52
559.859	41319.13
560.058	41022.18
560.258	41290.46
560.457	40434.41
560.656	40676.07
560.855	40817.38
561.054	40864.49
561.253	40153.84
561.453	40364.78
561.652	40954.6
561.851	40973.03
562.05	41067.23
562.249	40327.92
562.448	41253.6
562.647	40981.22
562.846	40850.15
563.045	40778.47
563.244	40491.76
563.443	41161.44
563.642	40180.46
563.841	40502
564.04	40276.72
564.239	40942.31
564.438	40033.01
564.637	40700.65
564.836	40569.58
565.035	39877.36
565.234	40819.43
565.432	40485.61
565.631	40518.38
565.83	40561.39
566.029	39967.48
566.228	40284.91
566.427	40153.84
566.625	40180.46
566.824	39496.44
567.023	40684.26
567.222	39637.75
567.42	40080.11
567.619	40028.91
567.818	39836.41
568.016	39656.18
568.215	39748.34
568.414	39746.29
568.612	40162.03
568.811	40004.34
569.01	40084.21
569.208	39119.62
569.407	39928.56
569.605	39131.9
569.804	40028.91
570.002	39381.76
570.201	39826.17
570.4	39432.96
570.598	39127.81
570.797	39183.1
570.995	39398.14
571.193	38996.74
571.392	39625.46
571.59	39209.73
571.789	39170.82
571.987	38593.29
572.186	38685.45
572.384	38636.3
572.582	39011.07
572.781	39029.51
572.979	38742.79
573.177	38775.56
573.376	38595.34
573.574	38839.04
573.772	38793.99
573.971	38177.55
574.169	37954.32
574.367	38277.9
574.565	38738.69
574.763	38099.73
574.962	38585.1
575.16	37798.68
575.358	38230.8
575.556	37700.37
575.754	38460.17
575.952	37667.61
576.151	38271.76
576.349	36985.63
576.547	37276.44
576.745	37755.67
576.943	37378.84
577.141	37776.15
577.339	37765.91
577.537	36854.56
577.735	37538.58
577.933	36999.97
578.131	37112.61
578.329	36827.94
578.527	37108.51
578.725	37112.61
578.923	36641.57
579.121	36490.02
579.319	36494.12
579.516	37083.94
579.714	36516.65
579.912	36436.78
580.11	36367.15
580.308	36344.62
580.506	36444.97
580.704	35697.46
580.901	35881.78
581.099	36199.21
581.297	35691.32
581.495	35810.1
581.692	36281.13
581.89	35849.01
582.088	35959.6
582.285	35531.58
582.483	35496.76
582.681	35302.2
582.878	35216.19
583.076	34933.57
583.274	35384.12
583.471	35171.13
583.669	35205.95
583.866	34614.09
584.064	35316.54
584.262	34927.42
584.459	35085.12
584.657	34480.97
584.854	35183.42
585.052	33893.2
585.249	34474.82
585.447	34702.15
585.644	33827.67
585.841	34343.75
586.039	34437.96
586.236	33991.5
586.434	33823.57
586.631	33821.52
586.828	33784.66
587.026	33723.22
587.223	33760.08
587.42	33688.4
587.618	33540.95
587.815	33162.08
588.012	33135.45
588.21	32934.75
588.407	33534.81
588.604	33135.45
588.801	33078.11
588.999	32863.07
589.196	33082.2
589.393	32834.4
589.59	32451.43
589.787	32613.22
589.984	32379.75
590.182	31970.16
590.379	32539.49
590.576	31824.75
590.773	32369.51
590.97	32361.32
591.167	32217.96
591.364	31689.59
591.561	31841.14
591.758	31519.6
591.955	31523.7
592.152	31931.25
592.349	31529.84
592.546	31437.69
592.743	31654.77
592.94	31009.66
593.137	31314.81
593.334	31148.92
593.531	30608.26
593.727	30874.49
593.924	30835.58
594.121	30669.7
594.318	30675.84
594.515	30311.3
594.712	30778.24
594.908	30389.13
595.105	30616.45
595.302	29961.1
595.499	30213
595.696	29893.52
595.892	29866.89
596.089	30079.88
596.286	29827.98
596.482	29778.83
596.679	29830.03
596.876	29780.88
597.072	29297.56
597.269	29291.41
597.466	29049.75
597.662	29059.99
597.859	29334.42
598.055	29408.15
598.252	29209.5
598.448	28916.64
598.645	29387.67
598.841	28552.1
599.038	28672.93
599.234	28625.82
599.431	28255.14
599.627	28560.29
599.824	28322.73
600.02	28421.03
600.217	28613.54
600.413	28068.78
600.609	28056.49
600.806	27880.36
601.002	27892.65
601.198	27728.81
601.395	27601.84
601.591	27485.11
601.787	27863.98
601.984	27145.14
602.18	27610.03
602.376	27225.01
602.572	27245.49
602.769	27263.93
602.965	27061.18
603.161	27139
603.357	26833.85
603.553	27014.07
603.75	26614.72
603.946	26594.24
604.142	26815.42
604.338	26211.27
604.534	26751.93
604.73	26155.97
604.926	26241.99
605.122	26342.34
605.318	26237.89
605.514	26153.93
605.71	25746.38
605.906	26031.05
606.102	25781.2
606.298	26018.76
606.494	25828.3
606.69	25816.01
606.886	25588.69
607.082	25336.79
607.278	25795.53
607.474	25318.35
607.67	25291.73
607.866	25359.31
608.062	25613.26
608.257	25363.41
608.453	25197.52
608.649	25297.88
608.845	24976.34
609.041	25187.28
609.236	24966.1
609.432	25002.97
609.628	24832.99
609.824	24714.2
610.019	24808.41
610.215	24644.57
610.411	24497.12
610.606	24374.24
610.802	24642.53
610.998	24542.17
611.193	24480.74
611.389	24296.42
611.584	24118.25
611.78	24108.01
611.976	24189.92
612.171	24052.71
612.367	24050.66
612.562	23872.49
612.758	23847.91
612.953	23702.51
613.149	23944.17
613.344	23530.48
613.539	24124.39
613.735	23544.81
613.93	23966.7
614.126	23503.85
614.321	23712.75
614.517	23581.68
614.712	23559.15
614.907	23333.87
615.103	23682.03
615.298	22973.43
615.493	23811.05
615.688	22952.95
615.884	23596.01
616.079	23127.03
616.274	23225.33
616.47	22965.24
616.665	22936.57
616.86	23045.11
617.055	22979.57
617.25	22930.42
617.445	23135.22
617.641	22414.34
617.836	22735.87
618.031	22406.14
618.226	22719.48
618.421	22408.19
618.616	22668.28
618.811	21976.07
619.006	22512.64
619.201	22109.19
619.396	22115.33
619.591	21746.7
619.786	22107.14
619.981	21509.13
620.176	22076.42
620.371	21509.13
620.566	21621.77
620.761	21570.57
620.956	21492.75
621.151	21410.83
621.346	21480.46
621.541	20853.78
621.735	20984.85
621.93	20638.75
622.125	20605.98
622.32	20573.21
622.515	20542.49
622.709	20534.3
622.904	20464.67
623.099	20229.15
623.294	20128.8
623.488	20040.74
623.683	20130.85
623.878	19545.13
624.072	19579.95
624.267	19878.95
624.462	19534.89
624.656	19317.81
624.851	19563.56
625.046	19194.93
625.24	18951.22
625.435	19178.54
625.629	18861.11
625.824	18689.08
626.018	18732.09
626.213	18635.83
626.407	18652.22
626.602	18228.29
626.796	18650.17
626.991	18449.47
627.185	18123.84
627.38	18299.97
627.574	17857.6
627.768	18121.79
627.963	17691.72
628.157	17544.27
628.352	17685.58
628.546	17380.43
628.74	17536.07
628.935	17599.56
629.129	17220.69
629.323	17161.3
629.517	16997.46
629.712	16993.36
629.906	16911.44
630.1	16669.78
630.294	16819.28
630.489	16546.9
630.683	16608.34
630.877	16579.67
631.071	16233.57
631.265	16368.73
631.459	16032.86
631.653	16280.67
631.848	15955.04
632.042	15897.7
632.236	16104.54
632.43	15535.21
632.624	15934.56
632.818	15785.06
633.012	15326.32
633.206	15414.38
633.4	15447.15
633.594	15264.88
633.788	15174.77
633.982	15236.2
634.176	14898.29
634.369	15168.62
634.563	15101.04
634.757	15025.26
634.951	14720.12
635.145	14802.04
635.339	14865.52
635.533	14543.99
635.726	14515.32
635.92	14204.03
636.114	14457.98
636.308	14349.43
636.501	14218.36
636.695	14056.57
636.889	13966.46
637.083	13839.49
637.276	14070.91
637.47	13917.31
637.664	13730.95
637.857	13845.63
638.051	13644.93
638.244	13673.6
638.438	13347.98
638.632	13413.51
638.825	13511.82
639.019	13352.07
639.212	13221
639.406	13102.22
639.599	13214.86
639.793	12952.72
639.986	12901.52
640.18	12768.4
640.373	12813.46
640.567	12639.38
640.76	12618.9
640.954	12502.17
641.147	12371.1
641.34	12334.23
641.534	12340.38
641.727	12061.85
641.92	12235.93
642.114	12119.2
642.307	12037.28
642.5	12213.4
642.694	11732.13
642.887	11869.34
643.08	12002.46
643.273	11670.69
643.467	11553.96
643.66	11502.76
643.853	11322.54
644.046	11490.47
644.239	11375.78
644.432	11424.93
644.626	11099.31
644.819	11154.6
645.012	11226.28
645.205	11170.99
645.398	11062.44
645.591	10802.35
645.784	10882.22
645.977	10802.35
646.17	10697.91
646.363	10595.51
646.556	10415.29
646.749	10650.8
646.942	10548.4
647.135	10296.5
647.328	10509.49
647.521	10484.92
647.714	10056.89
647.907	10323.13
648.099	10089.66
648.292	9940.16
648.485	10054.84
648.678	9907.39
648.871	9952.45
649.064	10030.27
649.256	9964.73
649.449	9784.51
649.642	9682.11
649.835	9495.75
650.027	9698.5
650.22	9374.92
650.413	9428.17
650.605	9532.61
650.798	9194.7
650.991	9211.08
651.183	9436.36
651.376	9022.67
651.568	9200.84
651.761	9047.24
651.954	9037
652.146	8955.08
652.339	8785.1
652.531	8781.01
652.724	8815.82
652.916	8623.31
653.109	8668.37
653.301	8555.73
653.494	8748.24
653.686	8467.67
653.879	8522.96
654.071	8185.05
654.263	8244.44
654.456	8467.67
654.648	8377.56
654.84	8236.25
655.033	8324.31
655.225	8096.99
655.417	8035.55
655.61	8090.84
655.802	8033.5
655.994	7896.28
656.186	7894.24
656.379	7820.51
656.571	8035.55
656.763	7746.78
656.955	7593.19
657.148	7767.26
657.34	7531.75
657.532	7496.93
657.724	7537.89
657.916	7281.89
658.108	7527.65
658.3	7359.72
658.492	7224.55
658.684	7116.01
658.876	7210.22
659.068	7050.47
659.26	7083.24
659.452	7113.96
659.644	7136.49
659.836	6933.74
660.028	6886.64
660.22	6692.08
660.412	6800.62
660.604	6849.77
660.796	6769.9
660.988	6608.11
661.18	6474.99
661.372	6493.43
661.563	6644.98
661.755	6372.6
661.947	6470.9
662.139	6464.75
662.331	6313.2
662.522	6325.49
662.714	6249.72
662.906	6309.11
663.097	6089.98
663.289	6008.06
663.481	6290.68
663.673	5922.04
663.864	5932.28
664.056	5897.47
664.247	5960.95
664.439	5825.79
664.631	5758.21
664.822	5778.69
665.014	5811.45
665.205	5553.41
665.397	5643.52
665.588	5725.44
665.78	5623.04
665.971	5569.79
666.163	5526.78
666.354	5432.58
666.546	5367.04
666.737	5448.96
666.929	5356.8
667.12	5301.51
667.311	5209.35
667.503	5211.4
667.694	5217.54
667.885	5039.37
668.077	5098.76
668.268	5043.46
668.459	5043.46
668.651	4963.59
668.842	5049.61
669.033	5065.99
669.224	4949.26
669.416	4900.11
669.607	4939.02
669.798	4707.6
669.989	4836.62
670.18	4668.69
670.371	4777.23
670.563	4658.45
670.754	4629.77
670.945	4652.3
671.136	4582.67
671.327	4601.1
671.518	4496.66
671.709	4547.86
671.9	4564.24
672.091	4570.38
672.282	4314.39
672.473	4463.89
672.664	4463.89
672.855	4402.45
673.046	4416.79
673.237	4218.13
673.428	4459.79
673.619	4257.04
673.809	4355.35
674	4183.32
674.191	4177.17
674.382	4101.4
674.573	4023.58
674.764	4121.88
674.954	4123.93
675.145	4029.72
675.336	3984.66
675.527	4103.45
675.717	4134.17
675.908	3994.9
676.099	4003.1
676.289	3917.08
676.48	3945.75
676.671	3912.99
676.861	3904.79
677.052	3855.64
677.243	3849.5
677.433	3716.38
677.624	3941.66
677.814	3716.38
678.005	3810.59
678.195	3892.51
678.386	3792.16
678.576	3675.42
678.767	3833.11
678.957	3845.4
679.148	3790.11
679.338	3622.17
679.529	3700
679.719	3857.69
679.909	3667.23
680.1	3577.12
680.29	3573.02
680.481	3624.22
680.671	3536.16
680.861	3562.78
681.052	3609.89
681.242	3552.54
681.432	3632.41
681.622	3599.65
681.813	3564.83
682.003	3544.35
682.193	3312.93
682.383	3519.78
682.573	3527.97
682.764	3444
682.954	3405.09
683.144	3513.63
683.334	3446.05
683.524	3468.58
683.714	3380.51
683.904	3484.96
684.094	3521.82
684.284	3333.41
684.474	3370.27
684.664	3417.38
684.854	3417.38
685.044	3319.07
685.234	3464.48
685.424	3345.7
685.614	3300.64
685.804	3403.04
685.994	3280.16
686.184	3368.23
686.374	3304.74
686.564	3253.54
686.753	3329.31
686.943	3300.64
687.133	3259.68
687.323	3271.97
687.513	3271.97
687.702	3415.33
687.892	3243.3
688.082	3343.65
688.272	3261.73
688.461	3343.65
688.651	3323.17
688.841	3302.69
689.03	3181.86
689.22	3398.95
689.41	3298.6
689.599	3255.59
689.789	3200.29
689.979	3228.96
690.168	3263.78
690.358	3224.87
690.547	3147.05
690.737	3319.07
690.926	3218.72
691.116	3200.29
691.305	3237.16
691.495	3153.19
691.684	3237.16
691.874	3222.82
692.063	3265.83
692.252	3130.66
692.442	3085.61
692.631	3087.65
692.82	3208.48
693.01	3128.61
693.199	3050.79
693.388	3038.5
693.578	3108.13
693.767	3032.36
693.956	3114.28
694.146	3095.85
694.335	2968.87
694.524	3009.83
694.713	3089.7
694.902	3058.98
695.092	3120.42
695.281	3030.31
695.47	3050.79
695.659	2985.26
695.848	3069.22
696.037	3022.12
696.226	3097.89
696.415	2981.16
696.604	2940.2
696.793	2921.77
696.982	3034.41
697.171	2932.01
697.36	3001.64
697.549	2952.49
697.738	2997.54
697.927	2966.82
698.116	2868.52
698.305	2874.67
698.494	2880.81
698.683	2856.23
698.872	2960.68
699.061	2835.75
699.25	2835.75
699.438	2843.95
699.627	2788.65
699.816	2899.24
700.005	2721.07
700.193	2743.6
700.382	2805.03
700.571	2739.5
700.76	2651.44
700.948	2749.74
701.137	2608.43
701.326	2714.92
701.514	2602.29
701.703	2458.93
701.892	2555.18
702.08	2762.03
702.269	2680.11
702.457	2594.09
702.646	2602.29
702.834	2647.34
703.023	2575.66
703.212	2618.67
703.4	2530.61
703.589	2544.94
703.777	2569.52
703.965	2446.64
704.154	2483.5
704.342	2411.82
704.531	2467.12
704.719	2440.5
704.907	2575.66
705.096	2469.17
705.284	2366.77
705.472	2422.06
705.661	2426.16
705.849	2460.98
706.037	2415.92
706.226	2426.16
706.414	2372.91
706.602	2297.14
706.79	2350.39
706.979	2307.38
707.167	2352.43
707.355	2413.87
707.543	2223.41
707.731	2239.8
707.919	2241.84
708.107	2247.99
708.296	2182.45
708.484	2307.38
708.672	2307.38
708.86	2190.64
709.048	2159.92
709.236	2198.84
709.424	2182.45
709.612	2241.84
709.8	2143.54
709.988	2137.4
710.176	2065.72
710.364	2139.44
710.551	2213.17
710.739	2020.66
710.927	2088.25
711.115	2131.25
711.303	2131.25
711.491	2151.73
711.679	2086.2
711.866	2055.48
712.054	2041.14
712.242	1983.8
712.43	2149.68
712.617	2047.29
712.805	1938.74
712.993	1983.8
713.181	1948.98
713.368	1994.04
713.556	2004.28
713.744	1905.98
713.931	2022.71
714.119	1987.9
714.306	2000.18
714.494	1881.4
714.682	1971.51
714.869	1879.35
715.057	1822.01
715.244	1772.86
715.432	1901.88
715.619	1865.02
715.807	1770.81
715.994	1815.87
716.182	1832.25
716.369	1844.54
716.556	1838.39
716.744	1813.82
716.931	1721.66
717.119	1750.33
717.306	1752.38
717.493	1727.8
717.681	1779
717.868	1754.43
718.055	1752.38
718.242	1658.17
718.43	1756.47
718.617	1611.07
718.804	1676.6
718.991	1697.08
719.179	1756.47
719.366	1574.21
719.553	1625.4
719.74	1619.26
719.927	1713.47
720.114	1643.84
720.301	1566.01
720.488	1629.5
720.676	1486.14
720.863	1631.55
721.05	1586.49
721.237	1576.25
721.424	1580.35
721.611	1561.92
721.798	1498.43
721.985	1461.57
722.172	1531.2
722.358	1535.29
722.545	1486.14
722.732	1414.46
722.919	1496.38
723.106	1461.57
723.293	1488.19
723.48	1469.76
723.667	1453.38
723.853	1363.26
724.04	1353.02
724.227	1512.77
724.414	1447.23
724.6	1381.7
724.787	1416.51
724.974	1324.35
725.161	1416.51
725.347	1387.84
725.534	1355.07
725.72	1422.66
725.907	1402.18
726.094	1398.08
726.28	1297.73
726.467	1291.59
726.653	1213.76
726.84	1457.47
727.027	1289.54
727.213	1219.91
727.4	1301.83
727.586	1303.87
727.773	1228.1
727.959	1277.25
728.145	1262.91
728.332	1283.39
728.518	1166.66
728.705	1133.89
728.891	1133.89
729.077	1211.71
729.264	1217.86
729.45	1117.51
729.636	1230.15
729.823	1193.28
730.009	1191.24
730.195	1207.62
730.382	1236.29
730.568	1162.56
730.754	1230.15
730.94	1195.33
731.126	1105.22
731.313	1070.4
731.499	1060.17
731.685	1113.41
731.871	1002.82
732.057	1158.47
732.243	1060.17
732.429	1035.59
732.615	1111.36
732.801	1066.31
732.987	1099.08
733.173	974.15
733.359	957.77
733.545	1035.59
733.731	1043.78
733.917	1013.06
734.103	1039.69
734.289	1004.87
734.475	1045.83
734.661	988.49
734.847	1029.45
735.033	1027.4
735.219	978.25
735.404	951.62
735.59	957.77
735.776	1043.78
735.962	1035.59
736.148	986.44
736.333	916.81
736.519	943.43
736.705	1027.4
736.89	955.72
737.076	925
737.262	1013.06
737.447	1004.87
737.633	949.57
737.819	918.86
738.004	892.23
738.19	947.53
738.375	990.53
738.561	965.96
738.747	1002.82
738.932	914.76
739.118	818.5
739.303	943.43
739.489	912.71
739.674	910.66
739.859	847.18
740.045	843.08
740.23	879.94
740.416	888.14
740.601	898.38
740.786	922.95
740.972	906.57
741.157	886.09
741.342	902.47
741.528	931.14
741.713	806.22
741.898	855.37
742.084	892.23
742.269	810.31
742.454	832.84
742.639	748.87
742.824	734.54
743.01	785.74
743.195	789.83
743.38	752.97
743.565	793.93
743.75	795.98
743.935	812.36
744.12	793.93
744.305	761.16
744.49	679.24
744.675	761.16
744.86	728.39
745.045	914.76
745.23	783.69
745.415	744.78
745.6	697.67
745.785	705.87
745.97	757.07
746.155	771.4
746.34	775.5
746.525	732.49
746.71	740.68
746.895	597.32
747.079	630.09
747.264	703.82
747.449	693.58
747.634	656.72
747.819	709.96
748.003	658.76
748.188	703.82
748.373	724.3
748.557	644.43
748.742	539.98
748.927	730.44
749.111	681.29
749.296	597.32
749.481	752.97
749.665	703.82
749.85	705.87
750.034	638.28
750.219	652.62
750.404	689.48
750.588	648.52
750.773	599.37
750.957	619.85
751.141	550.22
751.326	646.48
751.51	599.37
751.695	652.62
751.879	599.37
752.064	591.18
752.248	568.65
752.432	695.63
752.617	636.24
752.801	652.62
752.985	484.69
753.17	568.65
753.354	505.17
753.538	619.85
753.722	527.69
753.907	515.41
754.091	542.03
754.275	509.26
754.459	499.02
754.643	556.36
754.828	576.84
755.012	578.89
755.196	554.32
755.38	539.98
755.564	544.08
755.748	546.13
755.932	527.69
756.116	546.13
756.3	580.94
756.484	513.36
756.668	482.64
756.852	484.69
757.036	529.74
757.22	462.16
757.404	470.35
757.588	478.54
757.772	468.3
757.956	437.58
758.14	558.41
758.323	478.54
758.507	456.01
758.691	509.26
758.875	390.48
759.059	572.75
759.242	509.26
759.426	478.54
759.61	488.78
759.794	464.21
759.977	458.06
760.161	535.89
760.345	386.38
760.528	437.58
760.712	478.54
760.895	400.72
761.079	359.76
761.263	402.77
761.446	476.49
761.63	453.97
761.813	486.73
761.997	439.63
762.18	386.38
762.364	402.77
762.547	466.25
762.731	456.01
762.914	376.14
763.098	441.68
763.281	437.58
763.464	396.62
763.648	410.96
763.831	396.62
764.015	415.06
764.198	443.73
764.381	390.48
764.564	392.53
764.748	462.16
764.931	357.71
765.114	410.96
765.297	423.25
765.481	390.48
765.664	355.66
765.847	413.01
766.03	427.34
766.213	355.66
766.397	367.95
766.58	404.82
766.763	331.09
766.946	347.47
767.129	413.01
767.312	367.95
767.495	382.29
767.678	316.75
767.861	396.62
768.044	363.86
768.227	374.1
768.41	447.82
768.593	367.95
768.776	437.58
768.959	410.96
769.142	353.62
769.324	388.43
769.507	363.86
769.69	374.1
769.873	445.77
770.056	394.58
770.239	372.05
770.421	484.69
770.604	374.1
770.787	363.86
770.97	417.1
771.152	456.01
771.335	425.29
771.518	429.39
771.7	367.95
771.883	431.44
772.066	376.14
772.248	365.9
772.431	413.01
772.613	408.91
772.796	374.1
772.978	372.05
773.161	320.85
773.343	382.29
773.526	337.23
773.708	357.71
773.891	343.38
774.073	322.9
774.256	359.76
774.438	431.44
774.621	353.62
774.803	333.14
774.985	296.27
775.168	306.51
775.35	329.04
775.532	406.86
775.715	265.55
775.897	421.2
776.079	292.18
776.261	376.14
776.444	359.76
776.626	410.96
776.808	308.56
776.99	259.41
777.173	396.62
777.355	376.14
777.537	326.99
777.719	292.18
777.901	320.85
778.083	240.98
778.265	372.05
778.447	357.71
778.629	372.05
778.811	267.6
778.993	220.5
779.175	243.03
779.357	230.74
779.539	335.18
779.721	343.38
779.903	298.32
780.085	298.32
780.267	249.17
780.449	236.88
780.631	329.04
780.812	281.94
780.994	255.31
781.176	335.18
781.358	220.5
781.54	308.56
781.721	247.12
781.903	267.6
782.085	204.11
782.267	261.46
782.448	316.75
782.63	240.98
782.812	210.26
782.993	140.63
783.175	185.68
783.357	220.5
783.538	298.32
783.72	243.03
783.901	249.17
784.083	273.75
784.264	179.54
784.446	208.21
784.627	208.21
784.809	177.49
784.99	275.79
785.172	267.6
785.353	339.28
785.535	240.98
785.716	197.97
785.897	189.78
786.079	261.46
786.26	142.68
786.441	224.59
786.623	195.92
786.804	224.59
786.985	243.03
787.167	259.41
787.348	216.4
787.529	189.78
787.71	189.78
787.891	193.87
788.073	195.92
788.254	214.35
788.435	296.27
788.616	251.22
788.797	163.15
788.978	230.74
789.159	187.73
789.34	208.21
789.522	163.15
789.703	132.44
789.884	206.16
790.065	197.97
790.246	265.55
790.427	167.25
790.607	234.83
790.788	245.07
790.969	167.25
791.15	191.83
791.331	177.49
791.512	136.53
791.693	159.06
791.874	148.82
792.054	159.06
792.235	122.2
792.416	222.55
792.597	218.45
792.778	224.59
792.958	185.68
793.139	163.15
793.32	175.44
793.5	114
793.681	161.11
793.862	222.55
794.042	152.92
794.223	165.2
794.404	167.25
794.584	177.49
794.765	175.44
794.945	89.43
795.126	202.07
795.306	114
795.487	159.06
795.667	163.15
795.848	138.58
796.028	60.76
796.209	189.78
796.389	93.52
796.57	177.49
796.75	130.39
796.93	116.05
797.111	126.29
797.291	120.15
797.471	163.15
797.652	191.83
797.832	52.56
798.012	140.63
798.192	60.76
798.373	136.53
798.553	150.87
798.733	93.52
798.913	177.49
799.093	185.68
799.274	120.15
799.454	120.15
799.634	136.53
799.814	193.87
799.994	81.24
800.174	101.72
800.354	109.91
800.534	185.68
800.714	136.53
800.894	93.52
801.074	95.57
801.254	116.05
801.434	109.91
801.614	136.53
801.794	167.25
801.974	290.13
802.154	17.75
802.334	75.09
802.514	136.53
802.693	134.48
802.873	120.15
803.053	120.15
803.233	107.86
803.413	103.76
803.592	132.44
803.772	146.77
803.952	44.37
804.131	150.87
804.311	73.04
804.491	95.57
804.67	64.85
804.85	114
805.03	105.81
805.209	218.45
805.389	85.33
805.568	159.06
805.748	136.53
805.928	40.28
806.107	126.29
806.287	75.09
806.466	81.24
806.646	68.95
806.825	75.09
807.004	107.86
807.184	93.52
807.363	132.44
807.543	64.85
807.722	75.09
807.901	114
808.081	83.28
808.26	136.53
808.439	107.86
808.619	-2.73
808.798	122.2
808.977	85.33
809.156	179.54
809.336	116.05
809.515	97.62
809.694	30.04
809.873	126.29
810.052	64.85
810.231	105.81
810.411	114
810.59	114
810.769	71
810.948	140.63
811.127	62.8
811.306	87.38
811.485	50.52
811.664	71
811.843	77.14
812.022	130.39
812.201	85.33
812.38	87.38
812.559	23.89
812.737	89.43
812.916	48.47
813.095	87.38
813.274	9.56
813.453	50.52
813.632	9.56
813.811	130.39
813.989	81.24
814.168	97.62
814.347	27.99
814.526	52.56
814.704	101.72
814.883	130.39
815.062	52.56
815.24	101.72
815.419	46.42
815.598	62.8
815.776	128.34
815.955	75.09
816.133	103.76
816.312	103.76
816.49	46.42
816.669	134.48
816.847	126.29
817.026	56.66
817.204	95.57
817.383	79.19
817.561	97.62
817.74	44.37
817.918	46.42
818.097	134.48
818.275	77.14
818.453	77.14
818.632	134.48
818.81	54.61
818.988	46.42
819.167	52.56
819.345	105.81
819.523	30.04
819.701	48.47
819.879	91.48
820.058	-8.87
820.236	87.38
820.414	48.47
820.592	111.96
820.77	15.7
820.948	30.04
821.127	25.94
821.305	75.09
821.483	122.2
821.661	75.09
821.839	81.24
822.017	40.28
822.195	126.29
822.373	101.72
822.551	68.95
822.729	25.94
822.907	46.42
823.085	105.81
823.262	77.14
823.44	83.28
823.618	142.68
823.796	13.65
823.974	111.96
824.152	-0.68
824.329	79.19
824.507	40.28
824.685	62.8
824.863	52.56
825.04	21.85
825.218	138.58
825.396	32.08
825.574	-0.68
825.751	89.43
825.929	81.24
826.107	11.61
826.284	79.19
826.462	71
826.639	60.76
826.817	50.52
826.994	58.71
827.172	132.44
827.349	107.86
827.527	58.71
827.704	89.43
827.882	107.86
828.059	93.52
828.237	30.04
828.414	9.56
828.591	21.85
828.769	25.94
828.946	73.04
829.124	36.18
829.301	36.18
829.478	81.24
829.655	77.14
829.833	23.89
830.01	60.76
830.187	79.19
830.364	-29.35
830.542	73.04
830.719	75.09
830.896	114
831.073	36.18
831.25	93.52
831.427	-15.02
831.604	44.37
831.782	95.57
831.959	66.9
832.136	75.09
832.313	-10.92
832.49	99.67
832.667	46.42
832.844	122.2
833.021	122.2
833.198	13.65
833.374	44.37
833.551	32.08
833.728	60.76
833.905	-37.55
834.082	60.76
834.259	11.61
834.436	134.48
834.612	1.37
834.789	13.65
834.966	81.24
835.143	15.7
835.319	40.28
835.496	19.8
835.673	91.48
835.85	130.39
836.026	68.95
836.203	7.51
836.38	54.61
836.556	77.14
836.733	30.04
836.909	71
837.086	101.72
837.262	40.28
837.439	79.19
837.616	71
837.792	-10.92
837.968	114
838.145	32.08
838.321	83.28
838.498	-62.12
838.674	5.46
838.851	68.95
839.027	118.1
839.203	3.41
839.38	-45.74
839.556	15.7
839.732	-4.78
839.909	60.76
840.085	-25.26
840.261	44.37
840.437	19.8
840.614	77.14
840.79	58.71
840.966	58.71
841.142	7.51
841.318	75.09
841.494	134.48
841.671	58.71
841.847	62.8
842.023	-31.4
842.199	79.19
842.375	75.09
842.551	3.41
842.727	101.72
842.903	15.7
843.079	40.28
843.255	3.41
843.431	36.18
843.607	13.65
843.783	32.08
843.959	27.99
844.134	48.47
844.31	44.37
844.486	-8.87
844.662	79.19
844.838	58.71
845.013	73.04
845.189	7.51
845.365	44.37
845.541	38.23
845.716	64.85
845.892	13.65
846.068	23.89
846.244	64.85
846.419	46.42
846.595	13.65
846.77	17.75
846.946	73.04
847.122	66.9
847.297	79.19
847.473	42.32
847.648	56.66
847.824	56.66
847.999	-21.16
848.175	30.04
848.35	34.13
848.526	66.9
848.701	38.23
848.876	30.04
849.052	42.32
849.227	23.89
849.403	46.42
849.578	-12.97
849.753	42.32
849.929	85.33
850.104	-6.83
850.279	58.71
850.454	-19.11
850.63	81.24
850.805	-12.97
850.98	-12.97
851.155	11.61
851.33	32.08
851.505	50.52
851.681	77.14
851.856	56.66
852.031	-4.78
852.206	44.37
852.381	73.04
852.556	-17.07
852.731	36.18
852.906	48.47
853.081	-4.78
853.256	122.2
853.431	60.76
853.606	44.37
853.781	44.37
853.956	3.41
854.131	68.95
854.305	19.8
854.48	3.41
854.655	19.8
854.83	-10.92
855.005	64.85
855.18	-17.07
855.354	15.7
855.529	1.37
855.704	-10.92
855.879	40.28
856.053	79.19
856.228	25.94
856.403	-15.02
856.577	54.61
856.752	38.23
856.926	30.04
857.101	40.28
857.276	-0.68
857.45	15.7
857.625	66.9
857.799	52.56
857.974	15.7
858.148	-12.97
858.323	30.04
858.497	-68.27
858.672	-4.78
858.846	44.37
859.02	48.47
859.195	36.18
859.369	5.46
859.543	17.75
859.718	42.32
859.892	15.7
860.066	-33.45
860.241	17.75
860.415	46.42
860.589	25.94
860.763	34.13
860.938	9.56
861.112	-21.16
861.286	-68.27
861.46	85.33
861.634	64.85
861.808	17.75
861.982	-19.11
862.157	32.08
862.331	54.61
862.505	36.18
862.679	11.61
862.853	62.8
863.027	27.99
863.201	46.42
863.375	3.41
863.549	21.85
863.722	-0.68
863.896	58.71
864.07	85.33
864.244	54.61
864.418	11.61
864.592	89.43
864.766	56.66
864.939	56.66
865.113	7.51
865.287	13.65
865.461	27.99
865.634	15.7
865.808	99.67
865.982	-0.68
866.156	17.75
866.329	7.51
866.503	1.37
866.676	89.43
866.85	73.04
867.024	38.23
867.197	-19.11
867.371	46.42
867.544	48.47
867.718	21.85
867.891	62.8
868.065	-68.27
868.238	13.65
868.412	42.32
868.585	23.89
868.759	21.85
868.932	1.37
869.105	17.75
869.279	19.8
869.452	27.99
869.625	-49.83
869.799	32.08
869.972	48.47
870.145	-4.78
870.319	54.61
870.492	9.56
870.665	27.99
870.838	32.08
871.011	5.46
871.185	87.38
871.358	46.42
871.531	60.76
871.704	-17.07
871.877	1.37
872.05	13.65
872.223	-23.21
872.396	7.51
872.569	-29.35
872.742	-4.78
872.915	-8.87
873.088	38.23
873.261	17.75
873.434	-12.97
873.607	56.66
873.78	54.61
873.953	23.89
874.126	-17.07
874.299	103.76
874.471	19.8
874.644	9.56
874.817	-0.68
874.99	27.99
875.163	5.46
875.335	40.28
875.508	17.75
875.681	-4.78
875.853	27.99
876.026	11.61
876.199	-27.31
876.371	52.56
876.544	34.13
876.717	-6.83
876.889	-80.55
877.062	83.28
877.234	36.18
877.407	-10.92
877.579	-19.11
877.752	52.56
877.924	15.7
878.097	71
878.269	60.76
878.442	68.95
878.614	46.42
878.786	-12.97
878.959	3.41
879.131	85.33
879.303	21.85
879.476	23.89
879.648	19.8
879.82	-0.68
879.993	13.65
880.165	34.13
880.337	46.42
880.509	-12.97
880.681	5.46
880.854	23.89
881.026	75.09
881.198	58.71
881.37	36.18
881.542	71
881.714	-19.11
881.886	-23.21
882.058	-6.83
882.23	85.33
882.402	46.42
882.574	23.89
882.746	-23.21
882.918	95.57
883.09	-4.78
883.262	-15.02
883.434	-0.68
883.606	56.66
883.778	46.42
883.95	-19.11
884.122	-10.92
884.293	85.33
884.465	25.94
884.637	-17.07
884.809	40.28
884.98	-2.73
885.152	-27.31
885.324	40.28
885.496	9.56
885.667	11.61
885.839	21.85
886.011	-31.4
886.182	83.28
886.354	25.94
886.525	48.47
886.697	79.19
886.869	27.99
887.04	19.8
887.212	19.8
887.383	38.23
887.555	58.71
887.726	42.32
887.897	27.99
888.069	-21.16
888.24	68.95
888.412	-53.93
888.583	1.37
888.754	5.46
888.926	-64.17
889.097	5.46
889.268	-23.21
889.44	64.85
889.611	34.13
889.782	-2.73
889.953	15.7
890.125	13.65
890.296	36.18
890.467	-21.16
890.638	-25.26
890.809	19.8
890.98	30.04
891.151	36.18
891.323	-21.16
891.494	5.46
891.665	44.37
891.836	15.7
892.007	27.99
892.178	27.99
892.349	64.85
892.52	-41.64
892.691	-4.78
892.862	5.46
893.032	32.08
893.203	3.41
893.374	36.18
893.545	7.51
893.716	60.76
893.887	60.76
894.057	50.52
894.228	25.94
894.399	-37.55
894.57	-10.92
894.74	-21.16
894.911	11.61
895.082	-17.07
895.253	27.99
895.423	32.08
895.594	3.41
895.764	19.8
895.935	23.89
896.106	-58.03
896.276	19.8
896.447	9.56
896.617	58.71
896.788	-64.17
896.958	25.94
897.129	-12.97
897.299	-23.21
897.47	15.7
897.64	93.52
897.81	56.66
897.981	48.47
898.151	42.32
898.322	21.85
898.492	-33.45
898.662	-76.46
898.832	7.51
899.003	58.71
899.173	23.89
899.343	118.1
899.513	36.18
