Data from USB4F104151__7__12-53-08-829.txt Node

Date: Fri Mar 14 12:53:08 EDT 2025
User: louis
Spectrometer: USB4F10415
Trigger mode: 4
Integration Time (sec): 1.000000E-2
Scans to average: 1
Electric dark correction enabled: true
Nonlinearity correction enabled: false
Boxcar width: 0
XAxis mode: Wavelengths
Number of Pixels in Spectrum: 3648
>>>>>Begin Spectral Data<<<<<
178.204	-68.61
178.424	-68.61
178.644	-68.61
178.864	-91.13
179.084	-29.7
179.304	19.46
179.524	7.17
179.744	-5.12
179.964	35.84
180.184	-37.89
180.404	50.18
180.624	64.51
180.844	-39.94
181.064	-27.65
181.283	-3.07
181.503	-52.22
181.723	-11.26
181.943	-5.12
182.163	5.12
182.383	-54.27
182.602	66.56
182.822	54.27
183.042	-21.5
183.262	27.65
183.482	41.98
183.701	9.22
183.921	-54.27
184.141	-39.94
184.361	7.17
184.58	29.7
184.8	31.74
185.02	1.02
185.239	46.08
185.459	5.12
185.679	19.46
185.898	64.51
186.118	44.03
186.338	31.74
186.557	50.18
186.777	17.41
186.997	-44.03
187.216	3.07
187.436	-17.41
187.655	-25.6
187.875	25.6
188.095	13.31
188.314	48.13
188.534	-29.7
188.753	5.12
188.973	-17.41
189.192	3.07
189.412	27.65
189.631	-7.17
189.851	78.85
190.07	5.12
190.29	41.98
190.509	52.22
190.729	15.36
190.948	-19.46
191.168	89.09
191.387	21.5
191.607	13.31
191.826	62.46
192.045	7.17
192.265	58.37
192.484	33.79
192.704	33.79
192.923	-5.12
193.142	91.13
193.362	-5.12
193.581	15.36
193.8	50.18
194.02	13.31
194.239	-15.36
194.458	-23.55
194.678	95.23
194.897	-1.02
195.116	3.07
195.335	33.79
195.555	9.22
195.774	56.32
195.993	17.41
196.212	25.6
196.432	33.79
196.651	5.12
196.87	33.79
197.089	11.26
197.308	-1.02
197.528	-7.17
197.747	1.02
197.966	29.7
198.185	60.42
198.404	41.98
198.623	62.46
198.842	23.55
199.062	11.26
199.281	48.13
199.5	-17.41
199.719	3.07
199.938	-15.36
200.157	-13.31
200.376	66.56
200.595	41.98
200.814	52.22
201.033	-9.22
201.252	25.6
201.471	74.75
201.69	-13.31
201.909	46.08
202.128	78.85
202.347	27.65
202.566	-13.31
202.785	25.6
203.004	44.03
203.223	29.7
203.442	13.31
203.661	19.46
203.879	37.89
204.098	46.08
204.317	54.27
204.536	17.41
204.755	99.33
204.974	-39.94
205.193	-15.36
205.411	15.36
205.63	64.51
205.849	56.32
206.068	23.55
206.287	87.04
206.505	82.94
206.724	23.55
206.943	74.75
207.162	21.5
207.381	-3.07
207.599	54.27
207.818	37.89
208.037	-17.41
208.255	70.65
208.474	21.5
208.693	-23.55
208.911	7.17
209.13	66.56
209.349	1.02
209.567	9.22
209.786	1.02
210.005	17.41
210.223	-19.46
210.442	-56.32
210.661	-27.65
210.879	-5.12
211.098	60.42
211.316	78.85
211.535	-29.7
211.753	-13.31
211.972	9.22
212.191	-66.56
212.409	23.55
212.628	11.26
212.846	87.04
213.065	13.31
213.283	74.75
213.502	31.74
213.72	-21.5
213.938	-21.5
214.157	52.22
214.375	62.46
214.594	21.5
214.812	5.12
215.031	-39.94
215.249	60.42
215.467	66.56
215.686	35.84
215.904	29.7
216.122	15.36
216.341	-19.46
216.559	37.89
216.778	15.36
216.996	41.98
217.214	7.17
217.432	54.27
217.651	-3.07
217.869	52.22
218.087	-23.55
218.306	76.8
218.524	21.5
218.742	13.31
218.96	95.23
219.179	44.03
219.397	23.55
219.615	21.5
219.833	74.75
220.051	-3.07
220.27	27.65
220.488	54.27
220.706	44.03
220.924	72.7
221.142	62.46
221.36	-13.31
221.578	23.55
221.796	-13.31
222.015	-31.74
222.233	-17.41
222.451	58.37
222.669	39.94
222.887	-56.32
223.105	62.46
223.323	76.8
223.541	99.33
223.759	27.65
223.977	19.46
224.195	7.17
224.413	97.28
224.631	-25.6
224.849	-5.12
225.067	5.12
225.285	48.13
225.503	-29.7
225.721	-31.74
225.939	-5.12
226.157	-27.65
226.375	91.13
226.592	54.27
226.81	56.32
227.028	13.31
227.246	70.65
227.464	15.36
227.682	60.42
227.9	13.31
228.117	11.26
228.335	11.26
228.553	-17.41
228.771	21.5
228.989	56.32
229.206	50.18
229.424	35.84
229.642	-3.07
229.86	19.46
230.077	11.26
230.295	5.12
230.513	39.94
230.731	19.46
230.948	15.36
231.166	82.94
231.384	15.36
231.601	-9.22
231.819	60.42
232.037	31.74
232.254	39.94
232.472	62.46
232.689	25.6
232.907	41.98
233.125	-5.12
233.342	29.7
233.56	64.51
233.777	68.61
233.995	-27.65
234.213	78.85
234.43	-27.65
234.648	62.46
234.865	93.18
235.083	23.55
235.3	-1.02
235.518	68.61
235.735	-1.02
235.953	56.32
236.17	9.22
236.388	23.55
236.605	21.5
236.822	76.8
237.04	11.26
237.257	29.7
237.475	-15.36
237.692	84.99
237.909	7.17
238.127	-44.03
238.344	33.79
238.562	29.7
238.779	50.18
238.996	13.31
239.214	39.94
239.431	-48.13
239.648	15.36
239.865	99.33
240.083	-39.94
240.3	48.13
240.517	-1.02
240.735	-39.94
240.952	13.31
241.169	44.03
241.386	23.55
241.603	68.61
241.821	-25.6
242.038	54.27
242.255	68.61
242.472	1.02
242.689	23.55
242.907	-19.46
243.124	48.13
243.341	-9.22
243.558	-50.18
243.775	64.51
243.992	15.36
244.209	3.07
244.426	68.61
244.643	21.5
244.86	-15.36
245.078	76.8
245.295	48.13
245.512	44.03
245.729	-125.95
245.946	72.7
246.163	62.46
246.38	60.42
246.597	-7.17
246.814	-19.46
247.031	7.17
247.248	15.36
247.464	15.36
247.681	-60.42
247.898	35.84
248.115	87.04
248.332	-56.32
248.549	101.37
248.766	-7.17
248.983	21.5
249.2	17.41
249.417	-13.31
249.633	-3.07
249.85	54.27
250.067	7.17
250.284	33.79
250.501	72.7
250.717	35.84
250.934	-25.6
251.151	74.75
251.368	72.7
251.585	52.22
251.801	-15.36
252.018	44.03
252.235	21.5
252.451	-15.36
252.668	-31.74
252.885	89.09
253.102	25.6
253.318	64.51
253.535	9.22
253.752	19.46
253.968	113.66
254.185	-9.22
254.401	50.18
254.618	29.7
254.835	39.94
255.051	3.07
255.268	60.42
255.484	29.7
255.701	1.02
255.917	46.08
256.134	-54.27
256.351	-27.65
256.567	33.79
256.784	13.31
257	35.84
257.217	23.55
257.433	5.12
257.65	19.46
257.866	21.5
258.082	62.46
258.299	25.6
258.515	62.46
258.732	21.5
258.948	-82.94
259.165	87.04
259.381	11.26
259.597	25.6
259.814	21.5
260.03	60.42
260.246	33.79
260.463	44.03
260.679	19.46
260.895	29.7
261.112	1.02
261.328	23.55
261.544	33.79
261.761	52.22
261.977	46.08
262.193	-27.65
262.409	-11.26
262.626	48.13
262.842	-1.02
263.058	-15.36
263.274	29.7
263.49	27.65
263.707	21.5
263.923	25.6
264.139	64.51
264.355	17.41
264.571	84.99
264.787	33.79
265.004	11.26
265.22	-13.31
265.436	-11.26
265.652	-7.17
265.868	-3.07
266.084	56.32
266.3	54.27
266.516	21.5
266.732	68.61
266.948	9.22
267.164	117.76
267.38	78.85
267.596	99.33
267.812	-1.02
268.028	13.31
268.244	97.28
268.46	56.32
268.676	-17.41
268.892	-23.55
269.108	33.79
269.324	-3.07
269.54	66.56
269.756	70.65
269.972	15.36
270.188	-46.08
270.403	-1.02
270.619	44.03
270.835	29.7
271.051	54.27
271.267	13.31
271.483	58.37
271.698	-1.02
271.914	33.79
272.13	52.22
272.346	-15.36
272.562	62.46
272.777	52.22
272.993	9.22
273.209	56.32
273.425	46.08
273.64	87.04
273.856	31.74
274.072	48.13
274.287	33.79
274.503	33.79
274.719	-17.41
274.934	-7.17
275.15	41.98
275.366	74.75
275.581	27.65
275.797	1.02
276.012	29.7
276.228	46.08
276.444	-17.41
276.659	109.57
276.875	70.65
277.09	91.13
277.306	5.12
277.521	41.98
277.737	19.46
277.952	37.89
278.168	11.26
278.383	-41.98
278.599	46.08
278.814	46.08
279.03	52.22
279.245	41.98
279.461	-35.84
279.676	-19.46
279.892	-76.8
280.107	111.61
280.322	19.46
280.538	19.46
280.753	80.89
280.969	48.13
281.184	29.7
281.399	50.18
281.615	35.84
281.83	78.85
282.045	-19.46
282.26	50.18
282.476	39.94
282.691	19.46
282.906	-1.02
283.122	-1.02
283.337	31.74
283.552	123.9
283.767	1.02
283.983	9.22
284.198	27.65
284.413	5.12
284.628	9.22
284.843	48.13
285.058	31.74
285.274	37.89
285.489	48.13
285.704	113.66
285.919	46.08
286.134	-41.98
286.349	54.27
286.564	89.09
286.779	72.7
286.995	31.74
287.21	48.13
287.425	27.65
287.64	35.84
287.855	21.5
288.07	60.42
288.285	48.13
288.5	21.5
288.715	29.7
288.93	3.07
289.145	52.22
289.36	44.03
289.575	-1.02
289.79	5.12
290.004	60.42
290.219	5.12
290.434	62.46
290.649	33.79
290.864	21.5
291.079	-52.22
291.294	35.84
291.509	72.7
291.724	39.94
291.938	-3.07
292.153	29.7
292.368	-1.02
292.583	50.18
292.798	99.33
293.012	91.13
293.227	54.27
293.442	-27.65
293.657	15.36
293.871	41.98
294.086	58.37
294.301	58.37
294.516	23.55
294.73	-44.03
294.945	-70.65
295.16	21.5
295.374	21.5
295.589	66.56
295.804	9.22
296.018	35.84
296.233	19.46
296.447	74.75
296.662	7.17
296.877	21.5
297.091	62.46
297.306	7.17
297.52	25.6
297.735	35.84
297.949	9.22
298.164	66.56
298.378	17.41
298.593	23.55
298.807	11.26
299.022	-13.31
299.236	82.94
299.451	-1.02
299.665	-39.94
299.88	64.51
300.094	27.65
300.309	41.98
300.523	-1.02
300.737	58.37
300.952	1.02
301.166	74.75
301.381	3.07
301.595	56.32
301.809	58.37
302.024	41.98
302.238	11.26
302.452	44.03
302.667	17.41
302.881	-50.18
303.095	29.7
303.309	13.31
303.524	5.12
303.738	46.08
303.952	41.98
304.166	44.03
304.381	-44.03
304.595	62.46
304.809	-54.27
305.023	19.46
305.237	-11.26
305.452	107.52
305.666	21.5
305.88	23.55
306.094	-39.94
306.308	23.55
306.522	103.42
306.736	46.08
306.95	-9.22
307.164	27.65
307.379	-21.5
307.593	48.13
307.807	9.22
308.021	87.04
308.235	9.22
308.449	21.5
308.663	41.98
308.877	-1.02
309.091	37.89
309.305	23.55
309.519	-21.5
309.733	82.94
309.947	23.55
310.161	29.7
310.374	80.89
310.588	48.13
310.802	44.03
311.016	52.22
311.23	95.23
311.444	54.27
311.658	60.42
311.872	-17.41
312.085	17.41
312.299	72.7
312.513	48.13
312.727	33.79
312.941	-29.7
313.154	76.8
313.368	33.79
313.582	-13.31
313.796	-25.6
314.009	41.98
314.223	3.07
314.437	29.7
314.651	27.65
314.864	54.27
315.078	37.89
315.292	23.55
315.505	25.6
315.719	7.17
315.933	13.31
316.146	44.03
316.36	7.17
316.573	52.22
316.787	82.94
317.001	17.41
317.214	1.02
317.428	115.71
317.641	74.75
317.855	3.07
318.068	58.37
318.282	64.51
318.495	-41.98
318.709	11.26
318.922	-21.5
319.136	-52.22
319.349	56.32
319.563	-1.02
319.776	7.17
319.99	13.31
320.203	97.28
320.417	17.41
320.63	56.32
320.843	31.74
321.057	29.7
321.27	101.37
321.483	-54.27
321.697	154.62
321.91	29.7
322.124	48.13
322.337	52.22
322.55	52.22
322.763	-9.22
322.977	39.94
323.19	-52.22
323.403	54.27
323.617	11.26
323.83	54.27
324.043	68.61
324.256	19.46
324.469	-19.46
324.683	27.65
324.896	-48.13
325.109	37.89
325.322	-3.07
325.535	41.98
325.748	72.7
325.962	23.55
326.175	-9.22
326.388	80.89
326.601	13.31
326.814	37.89
327.027	15.36
327.24	-1.02
327.453	48.13
327.666	54.27
327.879	33.79
328.092	13.31
328.305	74.75
328.518	58.37
328.731	64.51
328.944	33.79
329.157	19.46
329.37	29.7
329.583	52.22
329.796	-23.55
330.009	-60.42
330.222	97.28
330.435	5.12
330.648	66.56
330.861	7.17
331.073	37.89
331.286	21.5
331.499	15.36
331.712	-5.12
331.925	50.18
332.138	-23.55
332.35	80.89
332.563	3.07
332.776	25.6
332.989	-46.08
333.202	44.03
333.414	15.36
333.627	-3.07
333.84	68.61
334.053	33.79
334.265	17.41
334.478	3.07
334.691	31.74
334.903	37.89
335.116	19.46
335.329	58.37
335.541	27.65
335.754	50.18
335.966	41.98
336.179	48.13
336.392	64.51
336.604	9.22
336.817	56.32
337.029	23.55
337.242	5.12
337.454	89.09
337.667	25.6
337.88	64.51
338.092	-3.07
338.305	76.8
338.517	21.5
338.729	68.61
338.942	54.27
339.154	27.65
339.367	5.12
339.579	119.81
339.792	-48.13
340.004	27.65
340.217	-35.84
340.429	66.56
340.641	70.65
340.854	89.09
341.066	3.07
341.278	64.51
341.491	62.46
341.703	64.51
341.915	35.84
342.128	99.33
342.34	72.7
342.552	39.94
342.764	52.22
342.977	-9.22
343.189	19.46
343.401	70.65
343.613	111.61
343.826	37.89
344.038	70.65
344.25	-9.22
344.462	35.84
344.674	58.37
344.886	17.41
345.099	82.94
345.311	27.65
345.523	35.84
345.735	7.17
345.947	-13.31
346.159	-35.84
346.371	44.03
346.583	11.26
346.795	56.32
347.007	52.22
347.219	41.98
347.431	66.56
347.643	91.13
347.855	48.13
348.067	105.47
348.279	5.12
348.491	76.8
348.703	9.22
348.915	76.8
349.127	48.13
349.339	54.27
349.551	31.74
349.763	52.22
349.975	56.32
350.187	82.94
350.399	99.33
350.61	50.18
350.822	-23.55
351.034	39.94
351.246	21.5
351.458	39.94
351.669	54.27
351.881	11.26
352.093	62.46
352.305	97.28
352.517	15.36
352.728	37.89
352.94	50.18
353.152	78.85
353.363	66.56
353.575	74.75
353.787	41.98
353.999	-5.12
354.21	41.98
354.422	48.13
354.633	54.27
354.845	-13.31
355.057	3.07
355.268	31.74
355.48	39.94
355.692	41.98
355.903	44.03
356.115	21.5
356.326	35.84
356.538	29.7
356.749	74.75
356.961	74.75
357.172	82.94
357.384	78.85
357.595	27.65
357.807	87.04
358.018	76.8
358.23	50.18
358.441	78.85
358.653	37.89
358.864	-5.12
359.075	66.56
359.287	-1.02
359.498	62.46
359.709	62.46
359.921	66.56
360.132	66.56
360.344	62.46
360.555	66.56
360.766	103.42
360.977	7.17
361.189	21.5
361.4	-7.17
361.611	54.27
361.823	27.65
362.034	1.02
362.245	-7.17
362.456	84.99
362.667	50.18
362.879	74.75
363.09	54.27
363.301	39.94
363.512	46.08
363.723	48.13
363.935	89.09
364.146	35.84
364.357	82.94
364.568	21.5
364.779	107.52
364.99	70.65
365.201	-5.12
365.412	-13.31
365.623	-27.65
365.834	1.02
366.045	5.12
366.256	91.13
366.467	64.51
366.678	74.75
366.889	56.32
367.1	33.79
367.311	11.26
367.522	41.98
367.733	33.79
367.944	-27.65
368.155	-64.51
368.366	37.89
368.577	76.8
368.788	56.32
368.999	105.47
369.209	27.65
369.42	62.46
369.631	183.29
369.842	23.55
370.053	95.23
370.264	68.61
370.474	9.22
370.685	35.84
370.896	60.42
371.107	5.12
371.317	25.6
371.528	52.22
371.739	54.27
371.95	58.37
372.16	80.89
372.371	-3.07
372.582	1.02
372.792	11.26
373.003	41.98
373.214	-25.6
373.424	87.04
373.635	105.47
373.846	82.94
374.056	74.75
374.267	37.89
374.477	52.22
374.688	72.7
374.898	19.46
375.109	19.46
375.319	66.56
375.53	87.04
375.74	-13.31
375.951	1.02
376.161	27.65
376.372	54.27
376.582	56.32
376.793	62.46
377.003	15.36
377.214	46.08
377.424	25.6
377.635	93.18
377.845	37.89
378.055	5.12
378.266	-1.02
378.476	52.22
378.686	107.52
378.897	17.41
379.107	66.56
379.317	50.18
379.528	46.08
379.738	84.99
379.948	-50.18
380.158	25.6
380.369	44.03
380.579	64.51
380.789	37.89
380.999	95.23
381.21	19.46
381.42	-17.41
381.63	89.09
381.84	-35.84
382.05	50.18
382.261	128
382.471	50.18
382.681	46.08
382.891	23.55
383.101	7.17
383.311	35.84
383.521	25.6
383.731	33.79
383.941	66.56
384.151	125.95
384.361	37.89
384.571	-11.26
384.781	31.74
384.991	27.65
385.201	44.03
385.411	80.89
385.621	82.94
385.831	-48.13
386.041	66.56
386.251	72.7
386.461	82.94
386.671	17.41
386.881	60.42
387.091	82.94
387.301	31.74
387.511	56.32
387.72	3.07
387.93	33.79
388.14	72.7
388.35	23.55
388.56	70.65
388.769	50.18
388.979	5.12
389.189	44.03
389.399	78.85
389.609	27.65
389.818	31.74
390.028	52.22
390.238	74.75
390.447	41.98
390.657	31.74
390.867	37.89
391.076	62.46
391.286	39.94
391.496	5.12
391.705	13.31
391.915	44.03
392.125	89.09
392.334	50.18
392.544	-21.5
392.753	68.61
392.963	46.08
393.172	74.75
393.382	41.98
393.591	25.6
393.801	70.65
394.01	29.7
394.22	70.65
394.429	27.65
394.639	84.99
394.848	72.7
395.058	87.04
395.267	95.23
395.477	68.61
395.686	111.61
395.895	78.85
396.105	111.61
396.314	23.55
396.524	158.72
396.733	87.04
396.942	91.13
397.152	46.08
397.361	91.13
397.57	113.66
397.78	91.13
397.989	62.46
398.198	115.71
398.407	134.14
398.617	82.94
398.826	121.85
399.035	128
399.244	109.57
399.453	111.61
399.663	72.7
399.872	115.71
400.081	64.51
400.29	54.27
400.499	134.14
400.708	46.08
400.917	130.05
401.127	103.42
401.336	78.85
401.545	125.95
401.754	54.27
401.963	111.61
402.172	89.09
402.381	91.13
402.59	68.61
402.799	84.99
403.008	66.56
403.217	7.17
403.426	111.61
403.635	158.72
403.844	95.23
404.053	80.89
404.262	97.28
404.471	144.38
404.68	130.05
404.888	46.08
405.097	111.61
405.306	87.04
405.515	148.48
405.724	128
405.933	154.62
406.142	179.2
406.35	66.56
406.559	105.47
406.768	103.42
406.977	152.57
407.185	173.05
407.394	187.39
407.603	119.81
407.812	152.57
408.02	156.67
408.229	181.25
408.438	152.57
408.646	181.25
408.855	140.29
409.064	173.05
409.272	148.48
409.481	209.92
409.69	97.28
409.898	123.9
410.107	271.36
410.315	209.92
410.524	236.54
410.733	250.88
410.941	328.7
411.15	246.78
411.358	248.83
411.567	314.36
411.775	312.32
411.984	230.4
412.192	297.98
412.401	334.84
412.609	336.89
412.818	402.43
413.026	345.08
413.234	365.56
413.443	371.71
413.651	375.8
413.86	412.67
414.068	404.47
414.276	414.71
414.485	383.99
414.693	482.3
414.901	486.39
415.11	449.53
415.318	496.63
415.526	482.3
415.734	553.98
415.943	551.93
416.151	611.32
416.359	564.22
416.567	639.99
416.776	660.47
416.984	685.05
417.192	664.57
417.4	635.89
417.608	758.77
417.817	750.58
418.025	791.54
418.233	762.87
418.441	809.97
418.649	818.16
418.857	961.52
419.065	951.28
419.273	893.94
419.481	881.65
419.689	977.91
419.897	1059.82
420.105	1053.68
420.313	1035.25
420.521	1133.55
420.729	1031.15
420.937	1201.13
421.145	1276.91
421.353	1278.96
421.561	1401.83
421.769	1393.64
421.977	1389.55
422.185	1364.97
422.393	1530.86
422.601	1606.63
422.809	1571.82
423.017	1725.41
423.224	1741.8
423.432	1799.14
423.64	1829.86
423.848	1934.31
424.056	1866.72
424.263	1913.83
424.471	1960.93
424.679	2048.99
424.887	2182.11
425.094	2053.09
425.302	2196.45
425.51	2192.35
425.718	2411.48
425.925	2352.09
426.133	2409.44
426.341	2567.13
426.548	2757.59
426.756	2733.01
426.964	2874.32
427.171	2853.84
427.379	2997.2
427.586	3081.17
427.794	3115.98
428.001	3300.3
428.209	3488.71
428.417	3306.45
428.624	3584.97
428.832	3640.26
429.039	3668.94
429.247	3597.26
429.454	3865.54
429.662	4268.99
429.869	3922.88
430.076	4228.03
430.284	4146.11
430.491	4346.81
430.699	4363.2
430.906	4504.51
431.114	4869.05
431.321	4762.55
431.528	4903.86
431.736	5133.23
431.943	5313.45
432.15	5161.91
432.358	5276.59
432.565	5759.91
432.772	5653.42
432.979	5704.62
433.187	5993.38
433.394	6005.67
433.601	6607.77
433.808	6452.13
434.016	6525.85
434.223	6728.6
434.43	7345.04
434.637	7062.42
434.844	7400.34
435.052	7662.48
435.259	7492.49
435.466	7476.11
435.673	7541.64
435.88	8049.54
436.087	8500.09
436.294	8450.94
436.501	8334.21
436.708	8323.97
436.915	8913.78
437.122	9149.3
437.329	9067.38
437.537	9493.36
437.743	9519.98
437.95	9448.3
438.157	10130.28
438.364	10349.41
438.571	10236.77
438.778	10496.86
438.985	11305.81
439.192	10937.18
439.399	11111.25
439.606	11148.12
439.813	11615.05
440.02	12444.48
440.227	12211.01
440.433	12014.41
440.64	12381
440.847	12460.87
441.054	12550.98
441.261	13407.03
441.467	13257.53
441.674	13529.91
441.881	14330.66
442.088	14052.14
442.294	14086.95
442.501	14234.41
442.708	14459.68
442.914	15332.12
443.121	16048.91
443.328	15428.37
443.534	16536.32
443.741	15964.94
443.948	15786.77
444.154	17081.08
444.361	17044.22
444.568	17113.85
444.774	16947.97
444.981	17134.33
445.187	17531.64
445.394	18643.68
445.6	18471.65
445.807	20071.12
446.013	19090.14
446.22	19643.09
446.426	20177.61
446.633	20441.8
446.839	21363.39
447.046	20341.45
447.252	21586.61
447.459	21426.87
447.665	21488.31
447.871	22370.99
448.078	22973.09
448.284	22244.01
448.491	22645.41
448.697	23698.07
448.903	24384.14
449.11	24242.83
449.316	23863.96
449.522	24543.88
449.728	25025.15
449.935	25139.84
450.141	25109.12
450.347	25631.35
450.553	24859.27
450.76	25455.23
450.966	25959.03
451.172	25858.68
451.378	26561.13
451.584	25961.08
451.791	26636.91
451.997	26876.52
452.203	27191.91
452.409	27183.71
452.615	26923.62
452.821	25936.5
453.027	25690.74
453.233	26980.96
453.44	26219.12
453.646	26208.88
453.852	26305.13
454.058	26659.43
454.264	25864.82
454.47	26665.58
454.676	25856.63
454.882	26886.76
455.088	24560.27
455.294	24953.48
455.5	25406.08
455.705	25420.41
455.911	24613.51
456.117	24117.9
456.323	23765.65
456.529	22315.69
456.735	23556.76
456.941	22713
457.147	22424.23
457.352	21940.91
457.558	21549.75
457.764	21531.32
457.97	21197.5
458.176	20732.61
458.381	20974.27
458.587	19798.74
458.793	19708.63
458.999	19059.42
459.204	20095.69
459.41	19684.05
459.616	18232.04
459.821	18420.45
460.027	18121.45
460.233	17781.49
460.438	16745.22
460.644	17300.22
460.85	16372.49
461.055	16116.49
461.261	15977.23
461.466	15074.07
461.672	14486.31
461.878	15694.61
462.083	14545.7
462.289	14170.92
462.494	14054.19
462.7	13603.63
462.905	13368.12
463.111	13632.3
463.316	13771.57
463.522	13775.66
463.727	13355.83
463.932	13597.49
464.138	13323.06
464.343	13456.18
464.549	12942.14
464.754	13376.31
464.959	13411.12
465.165	13550.39
465.37	12702.53
465.575	12411.71
465.781	12956.47
465.986	12852.03
466.191	12381
466.397	12260.16
466.602	11600.72
466.807	11826
467.012	12299.08
467.218	11989.83
467.423	11873.1
467.628	11819.85
467.833	12444.48
468.038	12047.18
468.244	11674.45
468.449	12098.38
468.654	11557.71
468.859	11594.58
469.064	11637.58
469.269	11101.01
469.474	11148.12
469.679	11410.26
469.885	11252.56
470.09	11127.64
470.295	11174.74
470.5	10984.28
470.705	10920.79
470.91	10832.73
471.115	10728.28
471.32	10705.76
471.525	10888.03
471.73	10330.98
471.935	10369.89
472.139	10191.72
472.344	10177.38
472.549	10089.32
472.754	10027.88
472.959	9950.06
473.164	9741.16
473.369	9522.03
473.574	9821.03
473.778	9835.37
473.983	9759.6
474.188	9632.62
474.393	9163.64
474.598	9057.14
474.802	9051
475.007	9012.09
475.212	9251.7
475.417	8729.47
475.621	8571.77
475.826	8735.61
476.031	8643.45
476.235	8192.9
476.44	8688.51
476.645	8321.92
476.849	8348.54
477.054	8145.8
477.259	8024.97
477.463	8123.27
477.668	7912.33
477.872	8006.53
478.077	7893.9
478.282	7670.67
478.486	7445.39
478.691	7576.46
478.895	7453.58
479.1	7435.15
479.304	7623.56
479.509	7205.78
479.713	7506.83
479.918	7138.2
480.122	7084.95
480.326	7252.88
480.531	7252.88
480.735	7287.7
480.94	7078.8
481.144	7365.52
481.348	6996.89
481.553	7170.96
481.757	6882.2
481.961	7117.72
482.166	7089.04
482.37	7230.35
482.574	6939.54
482.778	7125.91
482.983	6847.38
483.187	6970.26
483.391	6951.83
483.595	6992.79
483.8	7021.46
484.004	6947.73
484.208	7007.13
484.412	6826.9
484.616	7043.99
484.821	7095.19
485.025	6992.79
485.229	7111.57
485.433	6929.3
485.637	7078.8
485.841	6943.64
486.045	7105.43
486.249	7148.43
486.453	7068.56
486.657	7011.22
486.861	7222.16
487.065	7005.08
487.269	6896.53
487.473	6816.66
487.677	7271.31
487.881	7154.58
488.085	7134.1
488.289	7101.33
488.493	7132.05
488.697	7158.67
488.901	7156.63
489.105	7187.35
489.309	7164.82
489.512	7494.54
489.716	7375.76
489.92	7347.09
490.124	7195.54
490.328	7517.07
490.531	7369.62
490.735	7388.05
490.939	7449.49
491.143	7449.49
491.346	7451.53
491.55	7617.42
491.754	7533.45
491.958	7558.03
492.161	7588.75
492.365	7646.09
492.569	7637.9
492.772	7709.58
492.976	7801.74
493.18	8010.63
493.383	7861.13
493.587	8000.39
493.79	8137.6
493.994	8127.36
494.197	8082.31
494.401	8055.69
494.605	8158.08
494.808	8446.85
495.012	8186.76
495.215	8371.07
495.419	8450.94
495.622	8557.44
495.825	8739.71
496.029	8702.84
496.232	8782.71
496.436	8969.08
496.639	9141.11
496.843	9040.76
497.046	9245.55
497.249	9315.19
497.453	9380.72
497.656	9618.29
497.859	9468.78
498.063	9601.9
498.266	9814.89
498.469	10009.45
498.673	10044.26
498.876	10269.54
499.079	10365.79
499.282	10240.87
499.485	10570.59
499.689	10599.26
499.892	10847.07
500.095	10742.62
500.298	11129.69
500.501	11131.73
500.705	11354.96
500.908	11535.18
501.111	11592.53
501.314	11551.57
501.517	12000.07
501.72	12069.7
501.923	11883.34
502.126	12538.69
502.329	12421.95
502.532	12653.37
502.735	12925.75
502.938	13110.07
503.141	13005.63
503.344	13445.94
503.547	13331.25
503.75	13394.74
503.953	13679.41
504.156	13978.41
504.359	14080.81
504.562	14121.77
504.765	14662.43
504.968	14713.63
505.17	14836.51
505.373	14996.25
505.576	15110.94
505.779	15401.75
505.982	15729.42
506.185	15790.86
506.387	15684.37
506.59	16110.35
506.793	16331.53
506.996	16364.29
507.198	16900.86
507.401	16943.87
507.604	16995.07
507.807	17341.18
508.009	17464.05
508.212	17564.4
508.415	18076.4
508.617	17892.08
508.82	18160.36
509.022	18211.56
509.225	18948.83
509.428	18957.02
509.63	19092.19
509.833	19133.15
510.035	19565.27
510.238	19602.13
510.44	19901.14
510.643	20200.14
510.845	20277.96
511.048	20243.15
511.25	20693.7
511.453	20984.51
511.655	21633.72
511.858	21519.03
512.06	21437.11
512.262	22026.93
512.465	21928.63
512.667	22424.23
512.87	22563.5
513.072	22620.84
513.274	22878.88
513.477	23161.5
513.679	23397.02
513.881	23732.89
514.084	23724.69
514.286	24085.14
514.488	24296.08
514.69	24910.47
514.893	25031.3
515.095	25301.63
515.297	25444.99
515.499	25535.1
515.701	25965.17
515.904	26423.92
516.106	26511.98
516.308	26894.95
516.51	26933.86
516.712	27069.03
516.914	27359.84
517.116	27947.61
517.318	27875.93
517.52	28125.78
517.722	28043.86
517.925	28834.38
518.127	29155.91
518.329	29217.35
518.531	28928.58
518.733	29555.26
518.935	30073.4
519.136	29905.46
519.338	30270
519.54	30630.44
519.742	30818.86
519.944	31177.25
520.146	31326.75
520.348	31513.12
520.55	31717.92
520.752	31961.62
520.954	32608.78
521.155	32559.63
521.357	32674.32
521.559	33174.02
521.761	33190.41
521.963	33534.46
522.164	33985.02
522.366	34028.02
522.568	34206.2
522.77	34228.73
522.971	34679.28
523.173	34480.63
523.375	34839.02
523.576	34918.89
523.778	35131.88
523.98	35602.91
524.181	35807.71
524.383	35891.68
524.584	36141.53
524.786	36039.13
524.988	36069.85
525.189	36825.55
525.391	36868.56
525.592	36700.62
525.794	37216.71
525.995	37495.24
526.197	37554.63
526.398	37202.38
526.6	37769.66
526.801	37603.78
527.003	38177.21
527.204	37956.03
527.406	38715.83
527.607	38074.81
527.808	38830.51
528.01	38074.81
528.211	38582.71
528.412	39172.52
528.614	39039.4
528.815	39322.02
529.016	39520.68
529.218	39102.89
529.419	39381.42
529.62	39653.79
529.822	39668.13
530.023	39397.8
530.224	39805.34
530.425	39631.27
530.626	39238.06
530.828	39518.63
531.029	40505.75
531.23	39586.21
531.431	39971.23
531.632	40413.59
531.833	40419.74
532.035	40278.43
532.236	40638.87
532.437	40853.9
532.638	40460.69
532.839	40755.6
533.04	40778.13
533.241	40472.98
533.442	41191.82
533.643	40784.27
533.844	41435.53
534.045	41191.82
534.246	40372.63
534.447	41109.9
534.648	41154.96
534.849	41218.44
535.05	40821.14
535.251	41286.03
535.451	41279.88
535.652	40913.3
535.853	41283.98
536.054	41111.95
536.255	41351.56
536.456	41034.13
536.657	41853.31
536.857	41279.88
537.058	41191.82
537.259	41726.34
537.46	41433.48
537.66	41286.03
537.861	41619.84
538.062	41140.62
538.263	41789.83
538.463	41290.12
538.664	41466.25
538.865	41736.58
539.065	42045.82
539.266	41357.7
539.466	41970.05
539.667	41576.84
539.868	41722.24
540.068	41693.57
540.269	41396.62
540.469	42082.69
540.67	41566.6
540.87	41724.29
541.071	41306.51
541.271	41853.31
541.472	41591.17
541.672	41302.41
541.873	41654.66
542.073	41120.14
542.274	42449.27
542.474	41718.15
542.675	41646.47
542.875	42011.01
543.075	41822.59
543.276	41341.32
543.476	42426.74
543.676	41718.15
543.877	41871.75
544.077	42123.65
544.277	41986.43
544.478	41687.43
544.678	41965.95
544.878	41845.12
545.078	41683.33
545.279	41726.34
545.479	42150.27
545.679	41904.51
545.879	41820.55
546.079	41816.45
546.28	41828.74
546.48	41609.61
546.68	41951.62
546.88	42201.47
547.08	41996.67
547.28	41898.37
547.48	41542.02
547.68	42152.32
547.88	41972.1
548.081	42240.38
548.281	41726.34
548.481	41894.27
548.681	42025.34
548.881	41949.57
549.081	41822.59
549.28	41771.39
549.48	42176.89
549.68	41978.24
549.88	42416.5
550.08	41787.78
550.28	42103.17
550.48	41748.87
550.68	42559.86
550.88	41795.97
551.08	42049.92
551.279	41873.79
551.479	41490.82
551.679	41779.59
551.879	41675.14
552.079	42015.1
552.278	42006.91
552.478	42013.05
552.678	41806.21
552.878	41945.47
553.077	41451.91
553.277	41220.49
553.477	41937.28
553.676	41582.98
553.876	41578.89
554.076	41646.47
554.275	41570.69
554.475	41054.61
554.674	41881.98
554.874	41886.08
555.074	41212.3
555.273	41396.62
555.473	41976.19
555.672	41247.11
555.872	41613.7
556.071	41658.76
556.271	41742.72
556.47	41390.47
556.67	41216.4
556.869	41394.57
557.068	41423.24
557.268	41095.56
557.467	41243.02
557.667	41396.62
557.866	41175.44
558.065	41253.26
558.265	40933.78
558.464	41367.94
558.663	41752.96
558.863	40626.58
559.062	41902.46
559.261	41073.04
559.461	41693.57
559.66	40759.7
559.859	41161.1
560.058	40587.67
560.258	41161.1
560.457	40675.73
560.656	41025.93
560.855	40743.31
561.054	40935.82
561.253	40583.57
561.453	40878.48
561.652	40810.9
561.851	41308.55
562.05	40755.6
562.249	40759.7
562.448	41314.7
562.647	41025.93
562.846	40556.95
563.045	40858
563.244	40348.06
563.443	41001.36
563.642	40530.33
563.841	40876.43
564.04	40259.99
564.239	40837.52
564.438	40524.18
564.637	40624.53
564.836	40708.5
565.035	40292.76
565.234	40612.24
565.432	40219.03
565.631	40673.68
565.83	40612.24
566.029	40360.34
566.228	40190.36
566.427	40135.07
566.625	40288.67
566.824	40169.88
567.023	40348.06
567.222	39442.85
567.42	40333.72
567.619	40094.11
567.818	40231.32
568.016	39858.59
568.215	40118.68
568.414	39915.93
568.612	40360.34
568.811	40083.87
569.01	39760.29
569.208	39543.2
569.407	39707.04
569.605	39334.31
569.804	39786.91
570.002	39502.25
570.201	40085.92
570.4	39715.23
570.598	39584.16
570.797	39152.04
570.995	39512.49
571.193	38818.22
571.392	39797.15
571.59	39045.55
571.789	39428.52
571.987	39084.46
572.186	38646.19
572.384	38894
572.582	38801.84
572.781	39182.76
572.979	38580.66
573.177	38857.14
573.376	38975.92
573.574	38367.67
573.772	38652.34
573.971	38357.43
574.169	38492.6
574.367	37982.65
574.565	38152.63
574.763	38318.52
574.962	38162.87
575.16	37900.73
575.358	38357.43
575.556	37708.22
575.754	38633.91
575.952	37579.2
576.151	37941.69
576.349	37306.82
576.547	37308.87
576.745	37571.01
576.943	37708.22
577.141	37716.42
577.339	37835.2
577.537	37226.95
577.735	37218.76
577.933	36999.63
578.131	37401.03
578.329	36983.24
578.527	36587.99
578.725	36874.7
578.923	36753.87
579.121	36862.41
579.319	36491.73
579.516	36905.42
579.714	36784.59
579.912	36567.51
580.11	36426.2
580.308	36301.27
580.506	36461.01
580.704	35895.77
580.901	36078.04
581.099	36272.6
581.297	35584.48
581.495	36018.65
581.692	35670.5
581.89	35690.98
582.088	35969.5
582.285	35543.52
582.483	35758.56
582.681	35713.5
582.878	35213.8
583.076	35074.54
583.274	35527.14
583.471	34777.58
583.669	35062.25
583.866	34580.98
584.064	35279.33
584.262	34523.63
584.459	35193.32
584.657	34722.29
584.854	34757.1
585.052	34152.95
585.249	34468.34
585.447	34505.2
585.644	34165.24
585.841	34222.58
586.039	34927.08
586.236	33843.71
586.434	33950.2
586.631	33718.78
586.828	33600
587.026	33907.19
587.223	33600
587.42	33399.3
587.618	33561.09
587.815	33053.19
588.012	33307.14
588.21	33423.87
588.407	33350.15
588.604	33176.07
588.801	33241.6
588.999	32825.87
589.196	33155.59
589.393	32950.79
589.59	32619.02
589.787	32864.78
589.984	32516.62
590.182	32066.07
590.379	32576.01
590.576	32330.26
590.773	32289.3
590.97	31986.2
591.167	32002.58
591.364	31877.66
591.561	31746.59
591.758	31654.43
591.955	31552.03
592.152	31797.79
592.349	31488.54
592.546	31744.54
592.743	31169.06
592.94	31068.71
593.137	31146.53
593.334	31128.1
593.531	30765.61
593.727	31316.51
593.924	31033.89
594.121	30325.3
594.318	30669.36
594.515	30464.56
594.712	30820.91
594.908	30683.69
595.105	30620.2
595.302	30376.5
595.499	30321.2
595.696	30218.8
595.892	29925.94
596.089	30265.91
596.286	30114.36
596.482	30052.92
596.679	29702.71
596.876	29856.31
597.072	29563.45
597.269	29579.84
597.466	29065.8
597.662	29315.65
597.859	29387.33
598.055	29268.55
598.252	29157.96
598.448	29375.04
598.645	28998.21
598.841	28562
599.038	28944.97
599.234	28879.43
599.431	28639.82
599.627	28631.63
599.824	28543.56
600.02	28314.19
600.217	28248.66
600.413	28197.46
600.609	28140.11
600.806	27855.45
601.002	28432.97
601.198	27877.97
601.395	27669.08
601.591	27785.82
601.787	27699.8
601.984	27779.67
602.18	27820.63
602.376	27232.86
602.572	27394.65
602.769	27142.75
602.965	26831.46
603.161	26767.98
603.357	27028.07
603.553	27077.22
603.75	26815.08
603.946	26727.02
604.142	26745.45
604.338	26303.09
604.534	26475.12
604.73	26184.3
604.926	26411.63
605.122	26536.56
605.318	26174.06
605.514	26409.58
605.71	25680.5
605.906	25883.25
606.102	26096.24
606.298	25889.4
606.494	26012.28
606.69	25997.94
606.886	25883.25
607.082	25821.81
607.278	25733.75
607.474	25221.76
607.67	25260.67
607.866	25311.87
608.062	25375.36
608.257	25125.5
608.453	25328.25
608.649	25526.91
608.845	25068.16
609.041	25035.39
609.236	25330.3
609.432	24881.8
609.628	24877.7
609.824	24810.12
610.019	24781.45
610.215	24595.08
610.411	24703.62
610.606	24539.79
610.802	24572.55
610.998	24461.96
611.193	24793.73
611.389	24187.53
611.584	24652.42
611.78	24199.82
611.976	24029.84
612.171	24212.11
612.367	24371.85
612.562	23937.68
612.758	23917.2
612.953	23882.39
613.149	24025.75
613.344	23759.51
613.539	24337.04
613.735	23868.05
613.93	24097.42
614.126	23507.61
614.321	23890.58
614.517	23823
614.712	23931.54
614.907	23063.2
615.103	23976.59
615.298	23626.39
615.493	23931.54
615.688	22952.61
615.884	23734.93
616.079	22930.08
616.274	23417.5
616.47	22946.47
616.665	23474.84
616.86	23038.62
617.055	23077.54
617.25	22987.43
617.445	23253.66
617.641	22504.1
617.836	22882.98
618.031	22454.95
618.226	22727.33
618.421	22385.32
618.616	22618.79
618.811	22536.87
619.006	22618.79
619.201	22106.8
619.396	22194.86
619.591	21969.58
619.786	22133.42
619.981	21703.35
620.176	21795.51
620.371	21498.55
620.566	21627.57
620.761	21625.53
620.956	21506.74
621.151	21457.59
621.346	21443.26
621.541	21187.26
621.735	21314.23
621.93	21052.09
622.125	20853.44
622.32	20716.23
622.515	20759.24
622.709	20249.29
622.904	20624.07
623.099	20423.37
623.294	20179.66
623.488	20114.13
623.683	20202.19
623.878	19671.76
624.072	19847.89
624.267	19804.88
624.462	19659.48
624.656	19450.58
624.851	19612.37
625.046	19268.31
625.24	19176.16
625.435	19366.62
625.629	19002.08
625.824	18928.35
626.018	18973.41
626.213	18535.14
626.407	18617.06
626.602	18508.52
626.796	18662.12
626.991	18510.57
627.185	18193.13
627.38	18281.19
627.574	18080.49
627.768	17967.85
627.963	17793.78
628.157	17545.97
628.352	17654.51
628.546	17560.31
628.74	17756.91
628.935	17289.98
629.129	17564.4
629.323	17083.13
629.517	17191.67
629.712	17212.15
629.906	17122.04
630.1	16599.81
630.294	16870.14
630.489	16687.87
630.683	16745.22
630.877	16509.7
631.071	16472.84
631.265	16587.52
631.459	16245.51
631.653	15999.76
631.848	16063.24
632.042	15975.18
632.236	16028.43
632.43	15909.65
632.624	15794.96
632.818	15717.14
633.012	15741.71
633.206	15514.39
633.4	15690.51
633.594	15211.29
633.788	15215.38
633.982	15391.51
634.176	15153.94
634.369	14949.15
634.563	14770.97
634.757	15211.29
634.951	14926.62
635.145	14955.29
635.339	14957.34
635.533	14652.19
635.726	14707.49
635.92	14510.88
636.114	14467.88
636.308	14183.21
636.501	14291.75
636.695	14279.46
636.889	14177.06
637.083	14021.42
637.276	14103.34
637.47	13982.51
637.664	13833
637.857	13753.13
638.051	13753.13
638.244	13517.62
638.438	13697.84
638.632	13296.44
638.825	13400.88
639.019	13456.18
639.212	13349.68
639.406	13267.77
639.599	13101.88
639.793	13167.42
639.986	12776.25
640.18	12960.57
640.373	12942.14
640.567	12854.08
640.76	12731.2
640.954	12706.62
641.147	12608.32
641.34	12491.59
641.534	12696.38
641.727	12458.82
641.92	12419.91
642.114	12284.74
642.307	12254.02
642.5	12030.79
642.694	12004.17
642.887	12223.3
643.08	11989.83
643.273	11801.42
643.467	11830.09
643.66	11531.09
643.853	11504.46
644.046	11305.81
644.239	11688.78
644.432	11543.38
644.626	11408.21
644.819	11240.28
645.012	11363.15
645.205	10998.62
645.398	11244.37
645.591	11006.81
645.784	10888.03
645.977	11035.48
646.17	10908.51
646.363	10957.66
646.556	10668.89
646.749	10881.88
646.942	10795.87
647.135	10556.25
647.328	10392.42
647.521	10818.39
647.714	10312.55
647.907	10505.06
648.099	10353.51
648.292	10261.35
648.485	10167.14
648.678	9925.48
648.871	10130.28
649.064	9911.14
649.256	9923.43
649.449	9763.69
649.642	9923.43
649.835	9614.19
650.027	9849.71
650.22	9503.6
650.413	9466.74
650.605	9569.13
650.798	9331.57
650.991	9268.08
651.183	9448.3
651.376	9249.65
651.568	9360.24
651.761	9206.64
651.954	9229.17
652.146	9237.36
652.339	9171.83
652.531	9034.61
652.724	8842.11
652.916	8811.39
653.109	8719.23
653.301	8926.07
653.494	8833.91
653.686	8565.63
653.879	8682.36
654.071	8422.27
654.263	8432.51
654.456	8520.57
654.648	8551.29
654.84	8422.27
655.033	8246.15
655.225	8180.61
655.417	8104.84
655.61	8190.85
655.802	8246.15
655.994	8117.12
656.186	8125.32
656.379	7811.98
656.571	8002.44
656.763	7764.87
656.955	7768.97
657.148	7861.13
657.34	7801.74
657.532	7584.65
657.724	7666.57
657.916	7613.32
658.108	7404.43
658.3	7469.97
658.492	7543.69
658.684	7435.15
658.876	7117.72
659.068	7412.62
659.26	7162.77
659.452	7263.12
659.644	7056.28
659.836	7226.26
660.028	7222.16
660.22	6933.4
660.412	7058.32
660.604	6972.31
660.796	6966.17
660.988	6869.91
661.18	6900.63
661.372	6718.36
661.563	6693.79
661.755	6648.73
661.947	6554.52
662.139	6470.56
662.331	6425.5
662.522	6394.78
662.714	6282.14
662.906	6435.74
663.097	6220.71
663.289	6292.38
663.481	6243.23
663.673	6114.21
663.864	6040.48
664.056	5927.85
664.247	6187.94
664.439	6026.15
664.631	6030.24
664.822	5872.55
665.014	5938.09
665.205	5774.25
665.397	5721
665.588	5831.59
665.78	5751.72
665.971	5757.86
666.163	5594.03
666.354	5673.9
666.546	5397.42
666.737	5583.79
666.929	5530.54
667.12	5540.78
667.311	5397.42
667.503	5370.8
667.694	5424.05
667.885	5284.78
668.077	5315.5
668.268	5084.08
668.459	5307.31
668.651	5295.02
668.842	5149.62
669.033	5077.94
669.224	5182.38
669.416	5053.36
669.607	4965.3
669.798	4901.81
669.989	5002.16
670.18	4961.2
670.371	4848.57
670.563	4905.91
670.754	4826.04
670.945	4780.98
671.136	4746.17
671.327	4838.33
671.518	4744.12
671.709	4733.88
671.9	4742.07
672.091	4656.06
672.282	4637.63
672.473	4686.78
672.664	4637.63
672.855	4567.99
673.046	4387.77
673.237	4510.65
673.428	4471.74
673.619	4586.43
673.809	4400.06
674	4305.85
674.191	4299.71
674.382	4197.31
674.573	4336.57
674.764	4346.81
674.954	4234.18
675.145	4129.73
675.336	4211.65
675.527	4225.98
675.717	4121.54
675.908	4094.91
676.099	4113.35
676.289	4086.72
676.48	4164.54
676.671	4125.63
676.861	4129.73
677.052	3963.84
677.243	3967.94
677.433	3961.8
677.624	3963.84
677.814	4060.1
678.005	3896.26
678.195	3961.8
678.386	3867.59
678.576	3963.84
678.767	3888.07
678.957	3734.47
679.148	3890.12
679.338	3826.63
679.529	3730.38
679.719	3867.59
679.909	3914.69
680.1	3814.34
680.29	3750.85
680.481	3795.91
680.671	3775.43
680.861	3744.71
681.052	3605.45
681.242	3767.24
681.432	3750.85
681.622	3615.69
681.813	3675.08
682.003	3507.15
682.193	3666.89
682.383	3462.09
682.573	3515.34
682.764	3599.31
682.954	3564.49
683.144	3464.14
683.334	3490.76
683.524	3490.76
683.714	3414.99
683.904	3494.86
684.094	3451.85
684.284	3480.52
684.474	3556.3
684.664	3449.8
684.854	3466.19
685.044	3388.36
685.234	3494.86
685.424	3501
685.614	3341.26
685.804	3339.21
685.994	3554.25
686.184	3361.74
686.374	3460.04
686.564	3419.08
686.753	3404.75
686.943	3349.45
687.133	3427.28
687.323	3257.29
687.513	3419.08
687.702	3398.6
687.892	3355.6
688.082	3322.83
688.272	3269.58
688.461	3308.49
688.651	3281.87
688.841	3257.29
689.03	3296.21
689.22	3472.33
689.41	3410.89
689.599	3136.46
689.789	3302.35
689.979	3277.77
690.168	3281.87
690.358	3279.82
690.547	3204.05
690.737	3212.24
690.926	3236.81
691.116	3179.47
691.305	3197.9
691.495	3087.31
691.684	3267.53
691.874	3226.57
692.063	3288.01
692.252	3130.32
692.442	3236.81
692.631	3105.74
692.82	3251.15
693.01	3066.83
693.199	3085.26
693.388	3025.87
693.578	3144.66
693.767	3199.95
693.956	3132.37
694.146	3036.11
694.335	3083.22
694.524	2929.62
694.713	2986.96
694.902	3075.03
695.092	3064.79
695.281	2997.2
695.47	3081.17
695.659	2956.24
695.848	2958.29
696.037	3036.11
696.226	2911.19
696.415	2980.82
696.604	2980.82
696.793	2948.05
696.982	3003.35
697.171	2903
697.36	2980.82
697.549	2866.13
697.738	2857.94
697.927	2872.28
698.116	2966.48
698.305	2905.04
698.494	2939.86
698.683	2796.5
698.872	2812.89
699.061	2743.25
699.25	2722.77
699.438	2814.93
699.627	2702.29
699.816	2763.73
700.005	2757.59
700.193	2866.13
700.382	2733.01
700.571	2696.15
700.76	2626.52
700.948	2698.2
701.137	2726.87
701.326	2730.97
701.514	2835.41
701.703	2614.23
701.892	2620.38
702.08	2651.1
702.269	2589.66
702.457	2497.5
702.646	2601.94
702.834	2577.37
703.023	2597.85
703.212	2503.64
703.4	2546.65
703.589	2458.59
703.777	2458.59
703.965	2481.11
704.154	2388.96
704.342	2413.53
704.531	2470.87
704.719	2550.75
704.907	2452.44
705.096	2470.87
705.284	2421.72
705.472	2360.28
705.661	2243.55
705.849	2335.71
706.037	2278.37
706.226	2317.28
706.414	2345.95
706.602	2335.71
706.79	2313.18
706.979	2251.74
707.167	2298.84
707.355	2345.95
707.543	2214.88
707.731	2212.83
707.919	2114.53
708.107	2190.3
708.296	2376.67
708.484	2210.78
708.672	2169.82
708.86	2335.71
709.048	2147.3
709.236	2194.4
709.424	2122.72
709.612	2218.97
709.8	2055.14
709.988	2173.92
710.176	2065.38
710.364	2096.1
710.551	2053.09
710.739	2048.99
710.927	2171.87
711.115	2051.04
711.303	2092
711.491	2036.7
711.679	1919.97
711.866	1956.83
712.054	2028.51
712.242	1942.5
712.43	2096.1
712.617	1958.88
712.805	1909.73
712.993	1969.12
713.181	2051.04
713.368	1930.21
713.556	1940.45
713.744	1831.91
713.931	1848.29
714.119	1883.11
714.306	1883.11
714.494	1768.42
714.682	1860.58
714.869	1766.37
715.057	1883.11
715.244	1883.11
715.432	1909.73
715.619	1838.05
715.807	1782.76
715.994	1831.91
716.182	1766.37
716.369	1745.89
716.556	1725.41
716.744	1782.76
716.931	1733.61
717.119	1702.89
717.306	1721.32
717.493	1721.32
717.681	1684.45
717.868	1686.5
718.055	1594.34
718.242	1680.36
718.43	1577.96
718.617	1625.06
718.804	1623.02
718.991	1627.11
719.179	1623.02
719.366	1616.87
719.553	1561.58
719.74	1577.96
719.927	1547.24
720.114	1563.62
720.301	1577.96
720.488	1575.91
720.676	1541.1
720.863	1543.14
721.05	1469.42
721.237	1612.78
721.424	1487.85
721.611	1526.76
721.798	1516.52
721.985	1489.9
722.172	1483.75
722.358	1399.79
722.545	1430.51
722.732	1375.21
722.919	1477.61
723.106	1352.68
723.293	1381.35
723.48	1434.6
723.667	1485.8
723.853	1444.84
724.04	1467.37
724.227	1360.88
724.414	1389.55
724.6	1346.54
724.787	1270.76
724.974	1281
725.161	1358.83
725.347	1332.2
725.534	1375.21
725.72	1352.68
725.907	1375.21
726.094	1285.1
726.28	1262.57
726.467	1248.24
726.653	1215.47
726.84	1313.77
727.027	1242.09
727.213	1219.57
727.4	1321.96
727.586	1223.66
727.773	1254.38
727.959	1233.9
728.145	1227.76
728.332	1190.89
728.518	1223.66
728.705	1231.85
728.891	1119.21
729.077	1223.66
729.264	1176.56
729.45	1203.18
729.636	1240.05
729.823	1164.27
730.009	1098.74
730.195	1188.85
730.382	1123.31
730.568	1145.84
730.754	1154.03
730.94	1111.02
731.126	1156.08
731.313	1094.64
731.499	1111.02
731.685	1125.36
731.871	1129.45
732.057	1068.02
732.243	1074.16
732.429	1096.69
732.615	1162.22
732.801	1106.93
732.987	1068.02
733.173	1084.4
733.359	1016.82
733.545	1135.6
733.731	1006.58
733.917	1078.26
734.103	967.67
734.289	1065.97
734.475	967.67
734.661	1037.3
734.847	1006.58
735.033	1045.49
735.219	924.66
735.404	1002.48
735.59	947.19
735.776	963.57
735.962	986.1
736.148	1004.53
736.333	967.67
736.519	941.04
736.705	1014.77
736.89	914.42
737.076	955.38
737.262	984.05
737.447	984.05
737.633	961.52
737.819	945.14
738.004	992.24
738.19	926.71
738.375	904.18
738.561	852.98
738.747	943.09
738.932	941.04
739.118	902.13
739.303	844.79
739.489	918.51
739.674	848.88
739.859	830.45
740.045	812.02
740.23	891.89
740.416	822.26
740.601	859.12
740.786	900.08
740.972	834.55
741.157	830.45
741.342	824.31
741.528	822.26
741.713	758.77
741.898	791.54
742.084	840.69
742.269	769.01
742.454	809.97
742.639	769.01
742.824	734.2
743.01	795.64
743.195	830.45
743.38	779.25
743.565	826.36
743.75	764.92
743.935	865.27
744.12	687.09
744.305	715.77
744.49	711.67
744.675	701.43
744.86	775.16
745.045	764.92
745.23	691.19
745.415	783.35
745.6	650.23
745.785	678.9
745.97	689.14
746.155	709.62
746.34	662.52
746.525	734.2
746.71	695.29
746.895	637.94
747.079	656.37
747.264	674.81
747.449	627.7
747.634	711.67
747.819	621.56
748.003	701.43
748.188	699.38
748.373	629.75
748.557	605.17
748.742	699.38
748.927	644.09
749.111	709.62
749.296	611.32
749.481	678.9
749.665	601.08
749.85	564.22
750.034	617.46
750.219	685.05
750.404	623.61
750.588	695.29
750.773	580.6
750.957	652.28
751.141	576.5
751.326	568.31
751.51	568.31
751.695	572.41
751.879	654.33
752.064	625.65
752.248	611.32
752.432	592.89
752.617	605.17
752.801	574.46
752.985	648.18
753.17	558.07
753.354	646.13
753.538	668.66
753.722	549.88
753.907	586.74
754.091	517.11
754.275	549.88
754.459	488.44
754.643	506.87
754.828	584.7
755.012	496.63
755.196	490.49
755.38	494.58
755.564	463.86
755.748	492.54
755.932	494.58
756.116	519.16
756.3	515.06
756.484	496.63
756.668	431.1
756.852	439.29
757.036	568.31
757.22	537.59
757.404	455.67
757.588	465.91
757.772	402.43
757.956	459.77
758.14	427
758.323	418.81
758.507	420.86
758.691	400.38
758.875	461.82
759.059	531.45
759.242	496.63
759.426	365.56
759.61	443.39
759.794	472.06
759.977	400.38
760.161	478.2
760.345	447.48
760.528	504.82
760.712	388.09
760.895	427
761.079	427
761.263	480.25
761.446	439.29
761.63	451.58
761.813	351.23
761.997	474.1
762.18	406.52
762.364	406.52
762.547	414.71
762.731	328.7
762.914	416.76
763.098	451.58
763.281	396.28
763.464	443.39
763.648	439.29
763.831	357.37
764.015	373.75
764.198	486.39
764.381	406.52
764.564	422.91
764.748	367.61
764.931	435.19
765.114	431.1
765.297	441.34
765.481	400.38
765.664	347.13
765.847	422.91
766.03	343.03
766.213	396.28
766.397	410.62
766.58	357.37
766.763	416.76
766.946	383.99
767.129	373.75
767.312	343.03
767.495	386.04
767.678	406.52
767.861	361.47
768.044	377.85
768.227	353.27
768.41	435.19
768.593	381.95
768.776	361.47
768.959	334.84
769.142	383.99
769.324	334.84
769.507	279.55
769.69	340.99
769.873	345.08
770.056	359.42
770.239	375.8
770.421	390.14
770.604	357.37
770.787	349.18
770.97	365.56
771.152	390.14
771.335	388.09
771.518	408.57
771.7	332.79
771.883	326.65
772.066	377.85
772.248	381.95
772.431	332.79
772.613	394.23
772.796	343.03
772.978	379.9
773.161	381.95
773.343	373.75
773.526	302.08
773.708	310.27
773.891	381.95
774.073	365.56
774.256	338.94
774.438	328.7
774.621	304.12
774.803	283.64
774.985	314.36
775.168	365.56
775.35	304.12
775.532	343.03
775.715	277.5
775.897	306.17
776.079	330.75
776.261	398.33
776.444	334.84
776.626	332.79
776.808	345.08
776.99	275.45
777.173	308.22
777.355	295.93
777.537	283.64
777.719	343.03
777.901	308.22
778.083	363.51
778.265	316.41
778.447	363.51
778.629	332.79
778.811	306.17
778.993	314.36
779.175	316.41
779.357	263.16
779.539	203.77
779.721	293.88
779.903	265.21
780.085	281.6
780.267	318.46
780.449	283.64
780.631	316.41
780.812	238.59
780.994	283.64
781.176	234.49
781.358	283.64
781.54	289.79
781.721	300.03
781.903	293.88
782.085	259.07
782.267	195.58
782.448	197.63
782.63	240.64
782.812	214.01
782.993	304.12
783.175	189.44
783.357	326.65
783.538	209.92
783.72	224.25
783.901	257.02
784.083	179.2
784.264	273.4
784.446	236.54
784.627	216.06
784.809	267.26
784.99	211.96
785.172	254.97
785.353	148.48
785.535	222.2
785.716	166.91
785.897	226.3
786.079	203.77
786.26	205.82
786.441	187.39
786.623	230.4
786.804	187.39
786.985	240.64
787.167	207.87
787.348	216.06
787.529	199.68
787.71	214.01
787.891	267.26
788.073	183.29
788.254	267.26
788.435	248.83
788.616	156.67
788.797	218.11
788.978	238.59
789.159	193.53
789.34	185.34
789.522	263.16
789.703	218.11
789.884	244.73
790.065	128
790.246	175.1
790.427	203.77
790.607	195.58
790.788	150.53
790.969	211.96
791.15	193.53
791.331	224.25
791.512	209.92
791.693	111.61
791.874	138.24
792.054	191.49
792.235	209.92
792.416	209.92
792.597	185.34
792.778	189.44
792.958	164.86
793.139	185.34
793.32	279.55
793.5	228.35
793.681	140.29
793.862	171.01
794.042	162.81
794.223	132.09
794.404	171.01
794.584	125.95
794.765	185.34
794.945	181.25
795.126	117.76
795.306	173.05
795.487	134.14
795.667	173.05
795.848	171.01
796.028	80.89
796.209	175.1
796.389	132.09
796.57	103.42
796.75	185.34
796.93	76.8
797.111	132.09
797.291	171.01
797.471	103.42
797.652	97.28
797.832	142.33
798.012	140.29
798.192	109.57
798.373	187.39
798.553	99.33
798.733	148.48
798.913	146.43
799.093	220.16
799.274	111.61
799.454	177.15
799.634	185.34
799.814	39.94
799.994	103.42
800.174	60.42
800.354	138.24
800.534	107.52
800.714	132.09
800.894	125.95
801.074	35.84
801.254	117.76
801.434	111.61
801.614	50.18
801.794	80.89
801.974	420.86
802.154	109.57
802.334	146.43
802.514	97.28
802.693	95.23
802.873	138.24
803.053	144.38
803.233	46.08
803.413	173.05
803.592	95.23
803.772	117.76
803.952	128
804.131	89.09
804.311	130.05
804.491	113.66
804.67	119.81
804.85	119.81
805.03	74.75
805.209	123.9
805.389	17.41
805.568	119.81
805.748	87.04
805.928	136.19
806.107	64.51
806.287	89.09
806.466	78.85
806.646	160.77
806.825	121.85
807.004	23.55
807.184	58.37
807.363	164.86
807.543	113.66
807.722	56.32
807.901	72.7
808.081	130.05
808.26	9.22
808.439	84.99
808.619	84.99
808.798	93.18
808.977	56.32
809.156	183.29
809.336	128
809.515	48.13
809.694	80.89
809.873	136.19
810.052	52.22
810.231	109.57
810.411	121.85
810.59	60.42
810.769	97.28
810.948	70.65
811.127	48.13
811.306	62.46
811.485	152.57
811.664	89.09
811.843	136.19
812.022	50.18
812.201	-13.31
812.38	142.33
812.559	113.66
812.737	64.51
812.916	181.25
813.095	13.31
813.274	68.61
813.453	48.13
813.632	87.04
813.811	136.19
813.989	97.28
814.168	37.89
814.347	-44.03
814.526	78.85
814.704	-3.07
814.883	105.47
815.062	130.05
815.24	97.28
815.419	95.23
815.598	78.85
815.776	70.65
815.955	23.55
816.133	41.98
816.312	66.56
816.49	80.89
816.669	84.99
816.847	84.99
817.026	72.7
817.204	80.89
817.383	44.03
817.561	50.18
817.74	99.33
817.918	68.61
818.097	115.71
818.275	46.08
818.453	78.85
818.632	37.89
818.81	56.32
818.988	91.13
819.167	56.32
819.345	119.81
819.523	105.47
819.701	52.22
819.879	72.7
820.058	70.65
820.236	87.04
820.414	56.32
820.592	66.56
820.77	-21.5
820.948	64.51
821.127	33.79
821.305	27.65
821.483	78.85
821.661	123.9
821.839	80.89
822.017	52.22
822.195	-7.17
822.373	39.94
822.551	72.7
822.729	78.85
822.907	-3.07
823.085	66.56
823.262	97.28
823.44	31.74
823.618	39.94
823.796	44.03
823.974	82.94
824.152	13.31
824.329	39.94
824.507	46.08
824.685	82.94
824.863	-15.36
825.04	62.46
825.218	72.7
825.396	62.46
825.574	19.46
825.751	23.55
825.929	46.08
826.107	66.56
826.284	60.42
826.462	62.46
826.639	23.55
826.817	66.56
826.994	80.89
827.172	11.26
827.349	132.09
827.527	33.79
827.704	37.89
827.882	87.04
828.059	70.65
828.237	41.98
828.414	-5.12
828.591	91.13
828.769	76.8
828.946	72.7
829.124	31.74
829.301	58.37
829.478	56.32
829.655	-39.94
829.833	46.08
830.01	27.65
830.187	115.71
830.364	105.47
830.542	9.22
830.719	82.94
830.896	68.61
831.073	37.89
831.25	-48.13
831.427	82.94
831.604	109.57
831.782	58.37
831.959	1.02
832.136	82.94
832.313	-9.22
832.49	37.89
832.667	7.17
832.844	19.46
833.021	111.61
833.198	50.18
833.374	25.6
833.551	-5.12
833.728	56.32
833.905	89.09
834.082	60.42
834.259	58.37
834.436	113.66
834.612	11.26
834.789	23.55
834.966	-7.17
835.143	113.66
835.319	46.08
835.496	-7.17
835.673	91.13
835.85	-33.79
836.026	33.79
836.203	76.8
836.38	50.18
836.556	29.7
836.733	35.84
836.909	93.18
837.086	-7.17
837.262	80.89
837.439	-17.41
837.616	41.98
837.792	76.8
837.968	37.89
838.145	41.98
838.321	103.42
838.498	23.55
838.674	3.07
838.851	31.74
839.027	80.89
839.203	54.27
839.38	80.89
839.556	15.36
839.732	70.65
839.909	70.65
840.085	68.61
840.261	-25.6
840.437	29.7
840.614	-13.31
840.79	99.33
840.966	78.85
841.142	72.7
841.318	13.31
841.494	11.26
841.671	25.6
841.847	-15.36
842.023	5.12
842.199	27.65
842.375	80.89
842.551	54.27
842.727	-5.12
842.903	62.46
843.079	23.55
843.255	107.52
843.431	50.18
843.607	29.7
843.783	-68.61
843.959	-60.42
844.134	97.28
844.31	89.09
844.486	37.89
844.662	25.6
844.838	58.37
845.013	84.99
845.189	-7.17
845.365	-25.6
845.541	84.99
845.716	25.6
845.892	52.22
846.068	13.31
846.244	37.89
846.419	27.65
846.595	21.5
846.77	41.98
846.946	-23.55
847.122	15.36
847.297	-3.07
847.473	35.84
847.648	-19.46
847.824	46.08
847.999	7.17
848.175	-21.5
848.35	-80.89
848.526	-11.26
848.701	9.22
848.876	-33.79
849.052	-1.02
849.227	41.98
849.403	-33.79
849.578	119.81
849.753	33.79
849.929	68.61
850.104	1.02
850.279	25.6
850.454	11.26
850.63	-5.12
850.805	13.31
850.98	-19.46
851.155	62.46
851.33	13.31
851.505	-39.94
851.681	7.17
851.856	56.32
852.031	29.7
852.206	11.26
852.381	37.89
852.556	44.03
852.731	7.17
852.906	-31.74
853.081	-1.02
853.256	62.46
853.431	-13.31
853.606	-50.18
853.781	7.17
853.956	-1.02
854.131	37.89
854.305	7.17
854.48	56.32
854.655	-25.6
854.83	-31.74
855.005	31.74
855.18	54.27
855.354	21.5
855.529	5.12
855.704	-56.32
855.879	39.94
856.053	33.79
856.228	-1.02
856.403	37.89
856.577	39.94
856.752	66.56
856.926	66.56
857.101	29.7
857.276	54.27
857.45	9.22
857.625	3.07
857.799	17.41
857.974	44.03
858.148	9.22
858.323	41.98
858.497	-9.22
858.672	29.7
858.846	7.17
859.02	74.75
859.195	48.13
859.369	11.26
859.543	-29.7
859.718	7.17
859.892	-48.13
860.066	23.55
860.241	33.79
860.415	21.5
860.589	15.36
860.763	-21.5
860.938	5.12
861.112	56.32
861.286	25.6
861.46	7.17
861.634	72.7
861.808	-11.26
861.982	9.22
862.157	-9.22
862.331	44.03
862.505	-3.07
862.679	89.09
862.853	-5.12
863.027	-11.26
863.201	99.33
863.375	89.09
863.549	9.22
863.722	68.61
863.896	76.8
864.07	19.46
864.244	-72.7
864.418	-44.03
864.592	15.36
864.766	37.89
864.939	-15.36
865.113	-7.17
865.287	62.46
865.461	-11.26
865.634	29.7
865.808	11.26
865.982	11.26
866.156	17.41
866.329	80.89
866.503	-21.5
866.676	23.55
866.85	-7.17
867.024	23.55
867.197	23.55
867.371	27.65
867.544	74.75
867.718	-7.17
867.891	-44.03
868.065	13.31
868.238	-76.8
868.412	23.55
868.585	-56.32
868.759	23.55
868.932	-64.51
869.105	21.5
869.279	54.27
869.452	3.07
869.625	-15.36
869.799	35.84
869.972	-11.26
870.145	27.65
870.319	-15.36
870.492	39.94
870.665	33.79
870.838	-7.17
871.011	70.65
871.185	13.31
871.358	5.12
871.531	50.18
871.704	-3.07
871.877	-52.22
872.05	-19.46
872.223	-27.65
872.396	52.22
872.569	23.55
872.742	25.6
872.915	9.22
873.088	-35.84
873.261	48.13
873.434	-29.7
873.607	-25.6
873.78	13.31
873.953	84.99
874.126	19.46
874.299	31.74
874.471	15.36
874.644	37.89
874.817	-23.55
874.99	-3.07
875.163	-11.26
875.335	13.31
875.508	21.5
875.681	-11.26
875.853	58.37
876.026	9.22
876.199	5.12
876.371	39.94
876.544	64.51
876.717	3.07
876.889	-3.07
877.062	23.55
877.234	58.37
877.407	23.55
877.579	-25.6
877.752	1.02
877.924	-9.22
878.097	44.03
878.269	-56.32
878.442	58.37
878.614	-1.02
878.786	-27.65
878.959	-5.12
879.131	101.37
879.303	-15.36
879.476	68.61
879.648	-70.65
879.82	19.46
879.993	23.55
880.165	7.17
880.337	-25.6
880.509	21.5
880.681	3.07
880.854	-1.02
881.026	1.02
881.198	82.94
881.37	-41.98
881.542	68.61
881.714	-44.03
881.886	64.51
882.058	-56.32
882.23	-39.94
882.402	23.55
882.574	60.42
882.746	15.36
882.918	44.03
883.09	17.41
883.262	23.55
883.434	37.89
883.606	-15.36
883.778	-21.5
883.95	62.46
884.122	82.94
884.293	5.12
884.465	-13.31
884.637	-52.22
884.809	-3.07
884.98	7.17
885.152	54.27
885.324	19.46
885.496	-5.12
885.667	-3.07
885.839	-29.7
886.011	9.22
886.182	31.74
886.354	-66.56
886.525	11.26
886.697	58.37
886.869	15.36
887.04	27.65
887.212	5.12
887.383	93.18
887.555	70.65
887.726	-70.65
887.897	-15.36
888.069	95.23
888.24	54.27
888.412	70.65
888.583	68.61
888.754	-5.12
888.926	-60.42
889.097	1.02
889.268	21.5
889.44	27.65
889.611	25.6
889.782	-17.41
889.953	25.6
890.125	84.99
890.296	1.02
890.467	31.74
890.638	-48.13
890.809	35.84
890.98	-1.02
891.151	13.31
891.323	15.36
891.494	7.17
891.665	7.17
891.836	62.46
892.007	-19.46
892.178	9.22
892.349	5.12
892.52	13.31
892.691	68.61
892.862	62.46
893.032	-48.13
893.203	-21.5
893.374	41.98
893.545	21.5
893.716	-7.17
893.887	91.13
894.057	11.26
894.228	54.27
894.399	-44.03
894.57	44.03
894.74	15.36
894.911	91.13
895.082	-19.46
895.253	21.5
895.423	-13.31
895.594	-1.02
895.764	11.26
895.935	-60.42
896.106	97.28
896.276	68.61
896.447	27.65
896.617	-33.79
896.788	-17.41
896.958	23.55
897.129	-29.7
897.299	-13.31
897.47	76.8
897.64	23.55
897.81	-29.7
897.981	46.08
898.151	39.94
898.322	41.98
898.492	-1.02
898.662	5.12
898.832	82.94
899.003	-15.36
899.173	37.89
899.343	-39.94
899.513	46.08
