Data from USB4F104151__33__12-53-40-006.txt Node

Date: Fri Mar 14 12:53:40 EDT 2025
User: louis
Spectrometer: USB4F10415
Trigger mode: 4
Integration Time (sec): 1.000000E-2
Scans to average: 1
Electric dark correction enabled: true
Nonlinearity correction enabled: false
Boxcar width: 0
XAxis mode: Wavelengths
Number of Pixels in Spectrum: 3648
>>>>>Begin Spectral Data<<<<<
178.204	-35.84
178.424	-35.84
178.644	-35.84
178.864	-41.98
179.084	-41.98
179.304	-33.79
179.524	72.7
179.744	-1.02
179.964	29.7
180.184	9.22
180.404	-9.22
180.624	58.37
180.844	-60.42
181.064	5.12
181.283	-13.31
181.503	-44.03
181.723	-13.31
181.943	19.46
182.163	-15.36
182.383	-11.26
182.602	72.7
182.822	-1.02
183.042	-23.55
183.262	56.32
183.482	46.08
183.701	39.94
183.921	-1.02
184.141	5.12
184.361	54.27
184.58	107.52
184.8	-1.02
185.02	-33.79
185.239	76.8
185.459	48.13
185.679	54.27
185.898	54.27
186.118	89.09
186.338	27.65
186.557	64.51
186.777	-3.07
186.997	37.89
187.216	9.22
187.436	97.28
187.655	48.13
187.875	29.7
188.095	48.13
188.314	128
188.534	84.99
188.753	74.75
188.973	-46.08
189.192	46.08
189.412	56.32
189.631	7.17
189.851	15.36
190.07	66.56
190.29	33.79
190.509	-19.46
190.729	23.55
190.948	41.98
191.168	60.42
191.387	35.84
191.607	17.41
191.826	-27.65
192.045	70.65
192.265	48.13
192.484	-21.5
192.704	31.74
192.923	-21.5
193.142	7.17
193.362	58.37
193.581	48.13
193.8	48.13
194.02	9.22
194.239	48.13
194.458	23.55
194.678	27.65
194.897	-7.17
195.116	46.08
195.335	11.26
195.555	58.37
195.774	39.94
195.993	-15.36
196.212	-11.26
196.432	95.23
196.651	27.65
196.87	56.32
197.089	17.41
197.308	56.32
197.528	21.5
197.747	15.36
197.966	37.89
198.185	29.7
198.404	50.18
198.623	27.65
198.842	66.56
199.062	-1.02
199.281	105.47
199.5	35.84
199.719	11.26
199.938	15.36
200.157	31.74
200.376	56.32
200.595	64.51
200.814	27.65
201.033	31.74
201.252	70.65
201.471	11.26
201.69	62.46
201.909	64.51
202.128	37.89
202.347	58.37
202.566	-11.26
202.785	-37.89
203.004	15.36
203.223	66.56
203.442	46.08
203.661	39.94
203.879	25.6
204.098	91.13
204.317	-33.79
204.536	66.56
204.755	-5.12
204.974	-1.02
205.193	-1.02
205.411	91.13
205.63	17.41
205.849	60.42
206.068	44.03
206.287	56.32
206.505	66.56
206.724	23.55
206.943	-39.94
207.162	3.07
207.381	44.03
207.599	-13.31
207.818	64.51
208.037	39.94
208.255	68.61
208.474	31.74
208.693	54.27
208.911	44.03
209.13	23.55
209.349	64.51
209.567	39.94
209.786	58.37
210.005	-1.02
210.223	89.09
210.442	9.22
210.661	27.65
210.879	-5.12
211.098	31.74
211.316	33.79
211.535	-5.12
211.753	17.41
211.972	89.09
212.191	74.75
212.409	97.28
212.628	-11.26
212.846	37.89
213.065	13.31
213.283	11.26
213.502	15.36
213.72	44.03
213.938	13.31
214.157	64.51
214.375	23.55
214.594	-21.5
214.812	35.84
215.031	72.7
215.249	-3.07
215.467	-54.27
215.686	48.13
215.904	-13.31
216.122	29.7
216.341	44.03
216.559	31.74
216.778	27.65
216.996	68.61
217.214	74.75
217.432	-11.26
217.651	68.61
217.869	-7.17
218.087	33.79
218.306	-23.55
218.524	-54.27
218.742	1.02
218.96	25.6
219.179	-29.7
219.397	109.57
219.615	41.98
219.833	58.37
220.051	68.61
220.27	25.6
220.488	7.17
220.706	-11.26
220.924	48.13
221.142	54.27
221.36	17.41
221.578	72.7
221.796	41.98
222.015	-35.84
222.233	46.08
222.451	39.94
222.669	-7.17
222.887	89.09
223.105	46.08
223.323	44.03
223.541	-15.36
223.759	74.75
223.977	-48.13
224.195	3.07
224.413	31.74
224.631	-9.22
224.849	89.09
225.067	-23.55
225.285	48.13
225.503	48.13
225.721	-17.41
225.939	17.41
226.157	15.36
226.375	-21.5
226.592	52.22
226.81	39.94
227.028	31.74
227.246	37.89
227.464	41.98
227.682	48.13
227.9	37.89
228.117	13.31
228.335	3.07
228.553	-17.41
228.771	54.27
228.989	-9.22
229.206	89.09
229.424	91.13
229.642	-3.07
229.86	48.13
230.077	76.8
230.295	7.17
230.513	13.31
230.731	33.79
230.948	50.18
231.166	44.03
231.384	-15.36
231.601	-21.5
231.819	62.46
232.037	37.89
232.254	-3.07
232.472	-11.26
232.689	84.99
232.907	3.07
233.125	19.46
233.342	58.37
233.56	37.89
233.777	48.13
233.995	9.22
234.213	33.79
234.43	31.74
234.648	48.13
234.865	33.79
235.083	87.04
235.3	78.85
235.518	66.56
235.735	46.08
235.953	50.18
236.17	82.94
236.388	23.55
236.605	7.17
236.822	33.79
237.04	80.89
237.257	33.79
237.475	11.26
237.692	17.41
237.909	33.79
238.127	58.37
238.344	25.6
238.562	44.03
238.779	17.41
238.996	101.37
239.214	56.32
239.431	21.5
239.648	-15.36
239.865	56.32
240.083	29.7
240.3	62.46
240.517	-39.94
240.735	-15.36
240.952	39.94
241.169	-19.46
241.386	33.79
241.603	27.65
241.821	21.5
242.038	-7.17
242.255	23.55
242.472	-1.02
242.689	-21.5
242.907	56.32
243.124	70.65
243.341	23.55
243.558	25.6
243.775	-25.6
243.992	33.79
244.209	9.22
244.426	58.37
244.643	23.55
244.86	39.94
245.078	56.32
245.295	103.42
245.512	93.18
245.729	-1.02
245.946	37.89
246.163	9.22
246.38	-7.17
246.597	48.13
246.814	17.41
247.031	17.41
247.248	41.98
247.464	50.18
247.681	80.89
247.898	44.03
248.115	3.07
248.332	13.31
248.549	15.36
248.766	62.46
248.983	64.51
249.2	9.22
249.417	87.04
249.633	52.22
249.85	-13.31
250.067	44.03
250.284	41.98
250.501	29.7
250.717	46.08
250.934	-9.22
251.151	7.17
251.368	-35.84
251.585	64.51
251.801	54.27
252.018	27.65
252.235	15.36
252.451	27.65
252.668	1.02
252.885	58.37
253.102	31.74
253.318	-7.17
253.535	-31.74
253.752	25.6
253.968	48.13
254.185	-19.46
254.401	101.37
254.618	72.7
254.835	9.22
255.051	80.89
255.268	58.37
255.484	33.79
255.701	19.46
255.917	-25.6
256.134	13.31
256.351	11.26
256.567	37.89
256.784	72.7
257	56.32
257.217	48.13
257.433	76.8
257.65	37.89
257.866	-19.46
258.082	46.08
258.299	1.02
258.515	-15.36
258.732	78.85
258.948	19.46
259.165	-66.56
259.381	37.89
259.597	41.98
259.814	56.32
260.03	101.37
260.246	29.7
260.463	1.02
260.679	23.55
260.895	3.07
261.112	50.18
261.328	50.18
261.544	-15.36
261.761	60.42
261.977	56.32
262.193	39.94
262.409	31.74
262.626	50.18
262.842	13.31
263.058	27.65
263.274	33.79
263.49	68.61
263.707	60.42
263.923	123.9
264.139	52.22
264.355	17.41
264.571	39.94
264.787	37.89
265.004	-25.6
265.22	7.17
265.436	82.94
265.652	1.02
265.868	58.37
266.084	3.07
266.3	56.32
266.516	58.37
266.732	33.79
266.948	-50.18
267.164	89.09
267.38	-27.65
267.596	70.65
267.812	150.53
268.028	82.94
268.244	58.37
268.46	58.37
268.676	31.74
268.892	58.37
269.108	21.5
269.324	-33.79
269.54	31.74
269.756	-41.98
269.972	-3.07
270.188	25.6
270.403	97.28
270.619	48.13
270.835	56.32
271.051	64.51
271.267	41.98
271.483	21.5
271.698	82.94
271.914	31.74
272.13	93.18
272.346	21.5
272.562	46.08
272.777	52.22
272.993	89.09
273.209	60.42
273.425	19.46
273.64	13.31
273.856	17.41
274.072	19.46
274.287	82.94
274.503	-19.46
274.719	31.74
274.934	91.13
275.15	-37.89
275.366	13.31
275.581	-23.55
275.797	60.42
276.012	11.26
276.228	70.65
276.444	15.36
276.659	-9.22
276.875	-31.74
277.09	89.09
277.306	-17.41
277.521	39.94
277.737	130.05
277.952	66.56
278.168	48.13
278.383	82.94
278.599	5.12
278.814	48.13
279.03	68.61
279.245	50.18
279.461	74.75
279.676	-31.74
279.892	52.22
280.107	-21.5
280.322	23.55
280.538	52.22
280.753	31.74
280.969	44.03
281.184	76.8
281.399	52.22
281.615	37.89
281.83	50.18
282.045	54.27
282.26	21.5
282.476	9.22
282.691	82.94
282.906	-11.26
283.122	46.08
283.337	27.65
283.552	-27.65
283.767	60.42
283.983	68.61
284.198	15.36
284.413	93.18
284.628	46.08
284.843	72.7
285.058	37.89
285.274	25.6
285.489	19.46
285.704	66.56
285.919	101.37
286.134	46.08
286.349	-5.12
286.564	72.7
286.779	23.55
286.995	5.12
287.21	-19.46
287.425	52.22
287.64	-1.02
287.855	60.42
288.07	11.26
288.285	52.22
288.5	-29.7
288.715	97.28
288.93	19.46
289.145	-31.74
289.36	66.56
289.575	109.57
289.79	48.13
290.004	48.13
290.219	9.22
290.434	44.03
290.649	58.37
290.864	50.18
291.079	101.37
291.294	41.98
291.509	39.94
291.724	103.42
291.938	27.65
292.153	13.31
292.368	60.42
292.583	33.79
292.798	52.22
293.012	9.22
293.227	37.89
293.442	15.36
293.657	64.51
293.871	39.94
294.086	46.08
294.301	-1.02
294.516	46.08
294.73	101.37
294.945	-54.27
295.16	7.17
295.374	-7.17
295.589	21.5
295.804	23.55
296.018	41.98
296.233	82.94
296.447	-21.5
296.662	54.27
296.877	46.08
297.091	39.94
297.306	123.9
297.52	82.94
297.735	105.47
297.949	46.08
298.164	39.94
298.378	48.13
298.593	41.98
298.807	23.55
299.022	144.38
299.236	7.17
299.451	-13.31
299.665	-1.02
299.88	52.22
300.094	46.08
300.309	56.32
300.523	44.03
300.737	-1.02
300.952	52.22
301.166	19.46
301.381	23.55
301.595	7.17
301.809	17.41
302.024	41.98
302.238	25.6
302.452	121.85
302.667	27.65
302.881	70.65
303.095	13.31
303.309	50.18
303.524	64.51
303.738	123.9
303.952	82.94
304.166	64.51
304.381	27.65
304.595	44.03
304.809	74.75
305.023	78.85
305.237	11.26
305.452	11.26
305.666	58.37
305.88	78.85
306.094	56.32
306.308	44.03
306.522	-41.98
306.736	48.13
306.95	-9.22
307.164	-7.17
307.379	31.74
307.593	70.65
307.807	-3.07
308.021	-1.02
308.235	84.99
308.449	-23.55
308.663	50.18
308.877	68.61
309.091	-23.55
309.305	15.36
309.519	93.18
309.733	52.22
309.947	-5.12
310.161	60.42
310.374	76.8
310.588	48.13
310.802	52.22
311.016	62.46
311.23	5.12
311.444	91.13
311.658	121.85
311.872	58.37
312.085	56.32
312.299	52.22
312.513	23.55
312.727	132.09
312.941	33.79
313.154	56.32
313.368	76.8
313.582	82.94
313.796	68.61
314.009	105.47
314.223	72.7
314.437	7.17
314.651	60.42
314.864	97.28
315.078	56.32
315.292	82.94
315.505	23.55
315.719	76.8
315.933	56.32
316.146	58.37
316.36	29.7
316.573	7.17
316.787	60.42
317.001	5.12
317.214	7.17
317.428	39.94
317.641	64.51
317.855	25.6
318.068	17.41
318.282	-33.79
318.495	54.27
318.709	29.7
318.922	15.36
319.136	62.46
319.349	15.36
319.563	29.7
319.776	11.26
319.99	52.22
320.203	-1.02
320.417	56.32
320.63	52.22
320.843	9.22
321.057	58.37
321.27	-7.17
321.483	52.22
321.697	82.94
321.91	-33.79
322.124	1.02
322.337	-25.6
322.55	64.51
322.763	35.84
322.977	68.61
323.19	-33.79
323.403	84.99
323.617	11.26
323.83	23.55
324.043	80.89
324.256	107.52
324.469	13.31
324.683	3.07
324.896	27.65
325.109	78.85
325.322	5.12
325.535	89.09
325.748	44.03
325.962	80.89
326.175	39.94
326.388	-15.36
326.601	46.08
326.814	19.46
327.027	1.02
327.24	119.81
327.453	52.22
327.666	50.18
327.879	11.26
328.092	72.7
328.305	39.94
328.518	13.31
328.731	62.46
328.944	3.07
329.157	7.17
329.37	48.13
329.583	62.46
329.796	44.03
330.009	95.23
330.222	97.28
330.435	37.89
330.648	58.37
330.861	103.42
331.073	91.13
331.286	-1.02
331.499	58.37
331.712	37.89
331.925	33.79
332.138	9.22
332.35	70.65
332.563	-29.7
332.776	93.18
332.989	17.41
333.202	23.55
333.414	62.46
333.627	52.22
333.84	76.8
334.053	48.13
334.265	39.94
334.478	5.12
334.691	37.89
334.903	7.17
335.116	19.46
335.329	74.75
335.541	9.22
335.754	27.65
335.966	-5.12
336.179	9.22
336.392	64.51
336.604	66.56
336.817	107.52
337.029	58.37
337.242	50.18
337.454	-7.17
337.667	105.47
337.88	13.31
338.092	31.74
338.305	62.46
338.517	19.46
338.729	60.42
338.942	82.94
339.154	56.32
339.367	-17.41
339.579	11.26
339.792	48.13
340.004	56.32
340.217	31.74
340.429	62.46
340.641	-3.07
340.854	25.6
341.066	-11.26
341.278	52.22
341.491	117.76
341.703	50.18
341.915	31.74
342.128	46.08
342.34	74.75
342.552	66.56
342.764	33.79
342.977	72.7
343.189	39.94
343.401	113.66
343.613	54.27
343.826	72.7
344.038	50.18
344.25	-3.07
344.462	35.84
344.674	48.13
344.886	-15.36
345.099	84.99
345.311	-33.79
345.523	115.71
345.735	13.31
345.947	19.46
346.159	13.31
346.371	35.84
346.583	64.51
346.795	23.55
347.007	97.28
347.219	101.37
347.431	-19.46
347.643	23.55
347.855	68.61
348.067	64.51
348.279	123.9
348.491	44.03
348.703	25.6
348.915	46.08
349.127	56.32
349.339	56.32
349.551	39.94
349.763	136.19
349.975	31.74
350.187	97.28
350.399	62.46
350.61	68.61
350.822	44.03
351.034	70.65
351.246	46.08
351.458	48.13
351.669	41.98
351.881	-15.36
352.093	11.26
352.305	64.51
352.517	23.55
352.728	31.74
352.94	58.37
353.152	101.37
353.363	-80.89
353.575	56.32
353.787	48.13
353.999	19.46
354.21	48.13
354.422	-13.31
354.633	74.75
354.845	7.17
355.057	29.7
355.268	-5.12
355.48	1.02
355.692	27.65
355.903	37.89
356.115	93.18
356.326	3.07
356.538	3.07
356.749	123.9
356.961	74.75
357.172	74.75
357.384	39.94
357.595	66.56
357.807	80.89
358.018	44.03
358.23	62.46
358.441	-7.17
358.653	58.37
358.864	111.61
359.075	1.02
359.287	52.22
359.498	41.98
359.709	66.56
359.921	15.36
360.132	-17.41
360.344	-29.7
360.555	11.26
360.766	1.02
360.977	48.13
361.189	5.12
361.4	-25.6
361.611	48.13
361.823	21.5
362.034	84.99
362.245	56.32
362.456	35.84
362.667	54.27
362.879	35.84
363.09	44.03
363.301	72.7
363.512	62.46
363.723	66.56
363.935	31.74
364.146	105.47
364.357	29.7
364.568	33.79
364.779	11.26
364.99	31.74
365.201	89.09
365.412	91.13
365.623	48.13
365.834	-33.79
366.045	62.46
366.256	109.57
366.467	60.42
366.678	39.94
366.889	15.36
367.1	87.04
367.311	23.55
367.522	54.27
367.733	89.09
367.944	19.46
368.155	46.08
368.366	58.37
368.577	84.99
368.788	72.7
368.999	17.41
369.209	54.27
369.42	107.52
369.631	50.18
369.842	27.65
370.053	89.09
370.264	107.52
370.474	91.13
370.685	13.31
370.896	39.94
371.107	-13.31
371.317	41.98
371.528	93.18
371.739	60.42
371.95	-3.07
372.16	68.61
372.371	15.36
372.582	70.65
372.792	37.89
373.003	44.03
373.214	91.13
373.424	74.75
373.635	91.13
373.846	66.56
374.056	62.46
374.267	39.94
374.477	74.75
374.688	62.46
374.898	82.94
375.109	46.08
375.319	91.13
375.53	84.99
375.74	41.98
375.951	64.51
376.161	-13.31
376.372	27.65
376.582	37.89
376.793	58.37
377.003	27.65
377.214	-3.07
377.424	25.6
377.635	76.8
377.845	60.42
378.055	48.13
378.266	29.7
378.476	1.02
378.686	93.18
378.897	19.46
379.107	91.13
379.317	107.52
379.528	15.36
379.738	7.17
379.948	25.6
380.158	78.85
380.369	66.56
380.579	48.13
380.789	91.13
380.999	33.79
381.21	46.08
381.42	132.09
381.63	70.65
381.84	87.04
382.05	46.08
382.261	50.18
382.471	-1.02
382.681	48.13
382.891	64.51
383.101	-9.22
383.311	-19.46
383.521	58.37
383.731	50.18
383.941	15.36
384.151	35.84
384.361	70.65
384.571	99.33
384.781	84.99
384.991	39.94
385.201	99.33
385.411	41.98
385.621	50.18
385.831	60.42
386.041	44.03
386.251	9.22
386.461	87.04
386.671	52.22
386.881	87.04
387.091	-46.08
387.301	66.56
387.511	121.85
387.72	146.43
387.93	60.42
388.14	54.27
388.35	93.18
388.56	60.42
388.769	37.89
388.979	68.61
389.189	-60.42
389.399	50.18
389.609	70.65
389.818	39.94
390.028	19.46
390.238	35.84
390.447	-5.12
390.657	87.04
390.867	-19.46
391.076	37.89
391.286	33.79
391.496	101.37
391.705	68.61
391.915	50.18
392.125	11.26
392.334	21.5
392.544	50.18
392.753	44.03
392.963	44.03
393.172	136.19
393.382	119.81
393.591	48.13
393.801	58.37
394.01	33.79
394.22	-68.61
394.429	84.99
394.639	72.7
394.848	148.48
395.058	41.98
395.267	46.08
395.477	27.65
395.686	80.89
395.895	107.52
396.105	91.13
396.314	91.13
396.524	113.66
396.733	78.85
396.942	101.37
397.152	52.22
397.361	76.8
397.57	-3.07
397.78	64.51
397.989	58.37
398.198	64.51
398.407	76.8
398.617	74.75
398.826	11.26
399.035	105.47
399.244	48.13
399.453	121.85
399.663	31.74
399.872	58.37
400.081	15.36
400.29	66.56
400.499	33.79
400.708	150.53
400.917	76.8
401.127	95.23
401.336	68.61
401.545	15.36
401.754	91.13
401.963	125.95
402.172	66.56
402.381	99.33
402.59	31.74
402.799	142.33
403.008	76.8
403.217	66.56
403.426	146.43
403.635	113.66
403.844	60.42
404.053	123.9
404.262	39.94
404.471	41.98
404.68	72.7
404.888	142.33
405.097	117.76
405.306	84.99
405.515	125.95
405.724	113.66
405.933	140.29
406.142	89.09
406.35	140.29
406.559	58.37
406.768	105.47
406.977	99.33
407.185	125.95
407.394	109.57
407.603	105.47
407.812	138.24
408.02	187.39
408.229	179.2
408.438	111.61
408.646	44.03
408.855	99.33
409.064	179.2
409.272	166.91
409.481	193.53
409.69	103.42
409.898	160.77
410.107	189.44
410.315	187.39
410.524	117.76
410.733	226.3
410.941	242.68
411.15	224.25
411.358	201.72
411.567	240.64
411.775	240.64
411.984	250.88
412.192	261.12
412.401	222.2
412.609	263.16
412.818	277.5
413.026	314.36
413.234	195.58
413.443	367.61
413.651	310.27
413.86	318.46
414.068	334.84
414.276	320.51
414.485	304.12
414.693	304.12
414.901	377.85
415.11	334.84
415.318	373.75
415.526	406.52
415.734	394.23
415.943	447.48
416.151	463.86
416.359	416.76
416.567	470.01
416.776	517.11
416.984	490.49
417.192	486.39
417.4	441.34
417.608	539.64
417.817	478.2
418.025	531.45
418.233	553.98
418.441	519.16
418.649	594.93
418.857	599.03
419.065	695.29
419.273	586.74
419.481	717.81
419.689	693.24
419.897	793.59
420.105	756.72
420.313	824.31
420.521	703.48
420.729	783.35
420.937	791.54
421.145	859.12
421.353	900.08
421.561	998.38
421.769	1086.45
421.977	949.23
422.185	1020.91
422.393	1133.55
422.601	1020.91
422.809	1201.13
423.017	1111.02
423.224	1098.74
423.432	1217.52
423.64	1293.29
423.848	1321.96
424.056	1260.52
424.263	1379.31
424.471	1473.51
424.679	1453.03
424.887	1498.09
425.094	1502.19
425.302	1537
425.51	1580.01
425.718	1623.02
425.925	1653.73
426.133	1672.17
426.341	1819.62
426.548	1848.29
426.756	1881.06
426.964	1907.68
427.171	1981.41
427.379	2016.23
427.586	2184.16
427.794	2210.78
428.001	2218.97
428.209	2315.23
428.417	2296.8
428.624	2483.16
428.832	2450.39
429.039	2505.69
429.247	2528.22
429.454	2737.11
429.662	2841.56
429.869	2741.21
430.076	2900.95
430.284	2808.79
430.491	2862.04
430.699	3175.38
430.906	3179.47
431.114	3238.86
431.321	3236.81
431.528	3363.79
431.736	3414.99
431.943	3625.93
432.15	3670.98
432.358	3531.72
432.565	3828.68
432.772	3904.45
432.979	4107.2
433.187	4176.83
433.394	4254.66
433.601	4524.99
433.808	4436.92
434.016	4461.5
434.223	4549.56
434.43	4875.19
434.637	4649.91
434.844	5061.55
435.052	5145.52
435.259	5249.97
435.466	5272.5
435.673	5223.34
435.88	5368.75
436.087	5872.55
436.294	5776.3
436.501	5716.9
436.708	5796.78
436.915	6011.81
437.122	6165.41
437.329	6300.58
437.537	6384.54
437.743	6511.52
437.95	6433.69
438.157	6826.9
438.364	7308.18
438.571	7058.32
438.778	7193.49
438.985	7846.79
439.192	7459.73
439.399	7670.67
439.606	7474.06
439.813	7959.43
440.02	8330.11
440.227	8102.79
440.433	8227.71
440.64	8516.48
440.847	8422.27
441.054	8534.91
441.261	9204.6
441.467	8993.65
441.674	9165.68
441.881	9546.61
442.088	9710.44
442.294	9487.22
442.501	9737.07
442.708	10089.32
442.914	10437.47
443.121	10914.65
443.328	10638.17
443.534	11201.37
443.741	10986.33
443.948	11010.9
444.154	11776.84
444.361	11623.25
444.568	11531.09
444.774	11666.25
444.981	12084.04
445.187	12133.19
445.394	12534.59
445.6	12444.48
445.807	13824.81
446.013	12888.89
446.22	13456.18
446.426	13923.12
446.633	14056.23
446.839	14424.87
447.046	13925.16
447.252	14699.3
447.459	14641.95
447.665	14670.62
447.871	15319.83
448.078	16005.9
448.284	15411.99
448.491	15522.58
448.697	16253.7
448.903	16775.94
449.11	16540.42
449.316	16294.66
449.522	16626.43
449.728	16980.73
449.935	17392.37
450.141	17193.72
450.347	17672.95
450.553	16964.35
450.76	17242.87
450.966	17953.52
451.172	17859.31
451.378	18299.62
451.584	17875.7
451.791	18213.61
451.997	18078.44
452.203	18502.37
452.409	18369.26
452.615	18365.16
452.821	17711.86
453.027	17572.6
453.233	18508.52
453.44	17787.63
453.646	18139.88
453.852	18070.25
454.058	18520.81
454.264	18277.1
454.47	18287.34
454.676	18088.68
454.882	18426.6
455.088	16829.18
455.294	16874.24
455.5	17269.5
455.705	17558.26
455.911	17056.51
456.117	16466.69
456.323	16356.1
456.529	15352.6
456.735	16222.98
456.941	15659.79
457.147	15266.58
457.352	14895.9
457.558	14654.24
457.764	14871.33
457.97	14727.97
458.176	14254.89
458.381	14023.47
458.587	13474.61
458.793	13658.93
458.999	12944.19
459.204	13792.05
459.41	13337.4
459.616	12467.01
459.821	12540.74
460.027	12499.78
460.233	12467.01
460.438	11598.67
460.644	11993.93
460.85	11176.79
461.055	11236.18
461.261	11205.46
461.466	10154.85
461.672	9905
461.878	10644.32
462.083	9778.03
462.289	9642.86
462.494	9821.03
462.7	9190.26
462.905	9145.2
463.111	9325.43
463.316	9350
463.522	9157.49
463.727	9288.56
463.932	9372.53
464.138	9143.16
464.343	9151.35
464.549	8870.78
464.754	9132.92
464.959	9155.44
465.165	9210.74
465.37	8782.71
465.575	8369.02
465.781	8921.98
465.986	8846.2
466.191	8528.77
466.397	8364.93
466.602	8207.23
466.807	8436.61
467.012	8360.83
467.218	8303.49
467.423	8162.18
467.628	8272.77
467.833	8653.69
468.038	8352.64
468.244	8119.17
468.449	8203.14
468.654	8262.53
468.859	8235.91
469.064	7930.76
469.269	7660.43
469.474	7740.3
469.679	7961.48
469.885	7707.53
470.09	7734.15
470.295	7721.87
470.5	7467.92
470.705	7633.8
470.91	7398.29
471.115	7412.62
471.32	7392.14
471.525	7429.01
471.73	7420.81
471.935	7087
472.139	6912.92
472.344	7113.62
472.549	7074.71
472.754	6980.5
472.959	6708.12
473.164	6769.56
473.369	6599.58
473.574	6761.37
473.778	6714.27
473.983	6667.16
474.188	6579.1
474.393	6476.7
474.598	6372.25
474.802	6308.77
475.007	6284.19
475.212	6136.74
475.417	5999.52
475.621	6171.55
475.826	6013.86
476.031	6030.24
476.235	5811.11
476.44	6065.06
476.645	5933.99
476.849	5901.22
477.054	5766.06
477.259	5542.83
477.463	5628.84
477.668	5407.66
477.872	5489.58
478.077	5657.51
478.282	5172.15
478.486	5227.44
478.691	5352.37
478.895	5129.14
479.1	5141.43
479.304	5194.67
479.509	4838.33
479.713	5385.13
479.918	4938.68
480.122	5059.51
480.326	5110.71
480.531	5069.75
480.735	4967.35
480.94	4975.54
481.144	5192.62
481.348	4803.51
481.553	4961.2
481.757	4682.68
481.961	4905.91
482.166	4981.68
482.37	4903.86
482.574	4703.16
482.778	4766.65
482.983	4797.37
483.187	4901.81
483.391	4916.15
483.595	4791.22
483.8	4807.61
484.004	4840.37
484.208	4871.09
484.412	4969.4
484.616	4799.41
484.821	4942.77
485.025	4768.7
485.229	4953.01
485.433	4797.37
485.637	4955.06
485.841	4709.3
486.045	4832.18
486.249	4926.39
486.453	4856.76
486.657	4871.09
486.861	4864.95
487.065	4836.28
487.269	4842.42
487.473	4828.09
487.677	4998.07
487.881	5034.93
488.085	4903.86
488.289	5000.12
488.493	4901.81
488.697	4914.1
488.901	4850.61
489.105	4903.86
489.309	5032.88
489.512	4996.02
489.716	4924.34
489.92	4889.53
490.124	5077.94
490.328	5166
490.531	5159.86
490.735	5254.06
490.939	5067.7
491.143	5079.99
491.346	5131.19
491.55	5409.71
491.754	5288.88
491.958	5243.82
492.161	5264.3
492.365	5221.3
492.569	5286.83
492.772	5325.74
492.976	5209.01
493.18	5409.71
493.383	5417.9
493.587	5495.72
493.79	5575.59
493.994	5514.16
494.197	5555.12
494.401	5702.57
494.605	5577.64
494.808	5684.14
495.012	5774.25
495.215	5843.88
495.419	5979.04
495.622	5962.66
495.825	5925.8
496.029	6122.4
496.232	6075.3
496.436	6220.71
496.639	6329.25
496.843	6400.93
497.046	6433.69
497.249	6585.24
497.453	6544.28
497.656	6753.18
497.859	6656.92
498.063	6755.22
498.266	6736.79
498.469	6820.76
498.673	7021.46
498.876	7123.86
499.079	7191.44
499.282	7162.77
499.485	7295.89
499.689	7488.4
499.892	7615.37
500.095	7687.05
500.298	7785.35
500.501	7725.96
500.705	8123.27
500.908	8051.59
501.111	7928.71
501.314	8295.3
501.517	8385.41
501.72	8553.34
501.923	8606.59
502.126	8653.69
502.329	8864.63
502.532	9051
502.735	8985.46
502.938	9251.7
503.141	9120.63
503.344	9350
503.547	9337.71
503.75	9571.18
503.953	9640.81
504.156	9870.19
504.359	10058.6
504.562	10117.99
504.765	10322.79
504.968	10597.21
505.17	10959.7
505.373	10670.94
505.576	10980.18
505.779	10937.18
505.982	11174.74
506.185	11369.3
506.387	11582.29
506.59	11516.75
506.793	11871.05
506.996	11633.49
507.198	12260.16
507.401	12184.39
507.604	12430.15
507.807	12766.01
508.009	12774.21
508.212	12895.04
508.415	13155.13
508.617	13253.43
508.82	13429.56
509.022	13204.28
509.225	13777.71
509.428	13855.53
509.63	14048.04
509.833	14117.67
510.035	14514.98
510.238	14490.4
510.44	14836.51
510.643	14777.12
510.845	15123.23
511.048	15184.66
511.25	15498
511.453	15598.35
511.655	16139.02
511.858	15958.8
512.06	16220.94
512.262	16372.49
512.465	16059.15
512.667	16734.98
512.87	16855.81
513.072	17124.09
513.274	17365.75
513.477	17617.65
513.679	17783.54
513.881	17910.51
514.084	18359.02
514.286	18402.02
514.488	18670.31
514.69	18973.41
514.893	19260.12
515.095	19014.37
515.297	19487.45
515.499	19598.04
515.701	19806.93
515.904	19917.52
516.106	20226.76
516.308	20357.83
516.51	20806.34
516.712	20818.63
516.914	20861.63
517.116	21344.95
517.318	21441.21
517.52	21224.12
517.722	22012.59
517.925	22379.18
518.127	22465.19
518.329	22719.14
518.531	22639.27
518.733	23050.91
518.935	23257.76
519.136	23435.93
519.338	23894.68
519.54	23818.9
519.742	24085.14
519.944	23960.21
520.146	24570.51
520.348	24857.22
520.55	24851.08
520.752	25043.59
520.954	25430.65
521.155	25510.52
521.357	26139.25
521.559	26063.47
521.761	25946.74
521.963	26542.7
522.164	26475.12
522.366	26731.11
522.568	27052.64
522.77	27046.5
522.971	27515.48
523.173	27611.74
523.375	27640.41
523.576	27834.97
523.778	27859.54
523.98	28613.2
524.181	28445.26
524.383	28246.61
524.584	28738.12
524.786	28731.98
524.988	29045.32
525.189	29127.24
525.391	29401.66
525.592	29553.21
525.794	30018.1
525.995	30239.28
526.197	29878.84
526.398	29956.66
526.6	30372.4
526.801	30612.01
527.003	30419.5
527.204	30540.33
527.406	31277.6
527.607	31093.29
527.808	31113.77
528.01	30868.01
528.211	31037.99
528.412	31920.66
528.614	31459.87
528.815	31732.25
529.016	32041.5
529.218	31631.9
529.419	32152.09
529.62	32098.84
529.822	32205.33
530.023	31990.3
530.224	32317.97
530.425	32104.98
530.626	32033.3
530.828	32053.78
531.029	32938.51
531.23	32442.9
531.431	32442.9
531.632	32750.09
531.833	32782.86
532.035	32858.63
532.236	33059.34
532.437	33085.96
532.638	32700.94
532.839	33325.57
533.04	33393.15
533.241	32862.73
533.442	33753.6
533.643	33552.9
533.844	33339.91
534.045	33405.44
534.246	33194.5
534.447	33546.75
534.648	33028.62
534.849	33575.42
535.05	33481.22
535.251	33360.39
535.451	33356.29
535.652	33778.17
535.853	33493.5
536.054	33645.05
536.255	34003.45
536.456	33556.99
536.657	34003.45
536.857	33778.17
537.058	33681.92
537.259	34044.41
537.46	33989.11
537.66	33796.6
537.861	34085.37
538.062	33825.28
538.263	34097.66
538.463	33905.15
538.664	33868.28
538.865	34281.97
539.065	34345.46
539.266	33933.82
539.466	34028.02
539.667	34122.23
539.868	34449.91
540.068	34273.78
540.269	34294.26
540.469	34484.72
540.67	34142.71
540.87	34253.3
541.071	34294.26
541.271	34085.37
541.472	34337.27
541.672	34341.36
541.873	34339.32
542.073	34048.5
542.274	34634.22
542.474	34544.11
542.675	34380.28
542.875	34699.76
543.075	34388.47
543.276	34185.72
543.476	34720.24
543.676	34484.72
543.877	34753.01
544.077	34443.76
544.277	34304.5
544.478	34163.19
544.678	34699.76
544.878	34443.76
545.078	34720.24
545.279	34114.04
545.479	34388.47
545.679	34353.65
545.879	34826.73
546.079	34597.36
546.28	34816.49
546.48	34509.3
546.68	34511.35
546.88	34701.81
547.08	34636.27
547.28	34423.28
547.48	34712.05
547.68	34359.8
547.88	34241.01
548.081	34638.32
548.281	34580.98
548.481	34540.02
548.681	34652.66
548.881	34820.59
549.081	34712.05
549.28	34710
549.48	34857.45
549.68	34607.6
549.88	35105.26
550.08	34400.76
550.28	34896.36
550.48	34759.15
550.68	34992.62
550.88	34623.98
551.08	34744.81
551.279	34683.37
551.479	34333.17
551.679	34726.38
551.879	34777.58
552.079	34998.76
552.278	34898.41
552.478	34671.09
552.678	34703.85
552.878	34583.02
553.077	34433.52
553.277	34632.18
553.477	35019.24
553.676	34589.17
553.876	34904.56
554.076	34621.94
554.275	34687.47
554.475	34249.21
554.674	34570.74
554.874	34347.51
555.074	34367.99
555.273	34724.33
555.473	34982.38
555.672	34390.52
555.872	34636.27
556.071	34763.25
556.271	34839.02
556.47	34519.54
556.67	34646.51
556.869	34435.57
557.068	34736.62
557.268	34193.91
557.467	34318.84
557.667	34513.39
557.866	34644.46
558.065	34224.63
558.265	33976.83
558.464	34226.68
558.663	34503.15
558.863	34122.23
559.062	34515.44
559.261	33901.05
559.461	34720.24
559.66	33960.44
559.859	33993.21
560.058	34150.9
560.258	34062.84
560.457	33530.37
560.656	34198.01
560.855	33956.35
561.054	34021.88
561.253	33544.7
561.453	34071.03
561.652	34152.95
561.851	33995.26
562.05	33718.78
562.249	33739.26
562.448	34093.56
562.647	34093.56
562.846	33896.95
563.045	33673.73
563.244	33776.12
563.443	34044.41
563.642	33538.56
563.841	33880.57
564.04	33980.92
564.239	33780.22
564.438	33677.82
564.637	33823.23
564.836	33765.88
565.035	33257.99
565.234	33829.37
565.432	33718.78
565.631	33552.9
565.83	33710.59
566.029	33417.73
566.228	33692.16
566.427	33190.41
566.625	33536.51
566.824	33165.83
567.023	33382.91
567.222	32983.56
567.42	33450.5
567.619	33391.11
567.818	33311.24
568.016	33102.34
568.215	33350.15
568.414	32848.39
568.612	33407.49
568.811	32815.63
569.01	33221.13
569.208	32430.61
569.407	32999.94
569.605	32473.62
569.804	32975.37
570.002	32518.67
570.201	32694.8
570.4	32442.9
570.598	32592.4
570.797	32381.46
570.995	32420.37
571.193	31969.82
571.392	32586.25
571.59	32186.9
571.789	32092.69
571.987	32178.71
572.186	32211.48
572.384	32057.88
572.582	31994.39
572.781	31959.58
572.979	31719.96
573.177	32031.26
573.376	31654.43
573.574	31560.22
573.772	32053.78
573.971	31568.41
574.169	31668.76
574.367	31181.35
574.565	31384.1
574.763	31463.97
574.962	31179.3
575.16	31083.05
575.358	31267.36
575.556	31269.41
575.754	31304.23
575.952	31052.33
576.151	31390.24
576.349	30935.59
576.547	31027.75
576.745	31033.89
576.943	30786.09
577.141	30669.36
577.339	30796.33
577.537	30644.78
577.735	30505.52
577.933	30202.42
578.131	30661.16
578.329	30464.56
578.527	29852.22
578.725	30188.08
578.923	30169.65
579.121	29942.33
579.319	29966.9
579.516	30378.54
579.714	29948.47
579.912	29768.25
580.11	29944.38
580.308	29776.44
580.506	29598.27
580.704	28883.53
580.901	29616.7
581.099	29741.63
581.297	29104.71
581.495	29248.07
581.692	29743.67
581.89	29020.74
582.088	29395.52
582.285	28975.69
582.483	29399.62
582.681	29063.75
582.878	28965.45
583.076	28654.15
583.274	28928.58
583.471	28631.63
583.669	28918.34
583.866	28592.72
584.064	28863.05
584.262	28203.6
584.459	28416.59
584.657	28265.04
584.854	28363.34
585.052	28127.83
585.249	28166.74
585.447	28244.56
585.644	27501.15
585.841	28219.99
586.039	27978.33
586.236	27613.79
586.434	27748.95
586.631	27712.09
586.828	27421.28
587.026	27759.19
587.223	27552.35
587.42	27351.65
587.618	27703.9
587.815	27202.14
588.012	26841.7
588.21	26853.99
588.407	26978.92
588.604	26995.3
588.801	26868.33
588.999	26663.53
589.196	26581.61
589.393	26602.09
589.59	26724.97
589.787	26557.03
589.984	26458.73
590.182	26069.62
590.379	26587.75
590.576	26157.68
590.773	25887.35
590.97	25977.46
591.167	26186.35
591.364	25692.79
591.561	25932.4
591.758	25752.18
591.955	25840.25
592.152	25617.02
592.349	25784.95
592.546	25516.67
592.743	25686.65
592.94	24806.02
593.137	25563.77
593.334	25522.81
593.531	25172.61
593.727	25154.18
593.924	24961.67
594.121	24898.18
594.318	25313.92
594.515	24677
594.712	24867.46
594.908	24523.4
595.105	24976
595.302	24406.67
595.499	24552.07
595.696	24324.75
595.892	24205.97
596.089	24306.32
596.286	24345.23
596.482	24165.01
596.679	24117.9
596.876	24226.45
597.072	23687.83
597.269	23802.52
597.466	23638.68
597.662	23691.93
597.859	23515.8
598.055	23833.24
598.252	23339.68
598.448	23489.18
598.645	23483.03
598.841	23091.87
599.038	23304.86
599.234	23403.16
599.431	23136.93
599.627	23116.45
599.824	23294.62
600.02	22905.51
600.217	22790.82
600.413	22725.29
600.609	22641.32
600.806	22555.3
601.002	22571.69
601.198	22577.83
601.395	22172.33
601.591	22319.79
601.787	22327.98
601.984	22035.12
602.18	22444.71
602.376	22158
602.572	22135.47
602.769	22147.76
602.965	21691.06
603.161	21729.97
603.357	21603
603.553	21658.29
603.75	21772.98
603.946	21500.6
604.142	21619.38
604.338	21150.4
604.534	21695.16
604.73	21416.63
604.926	21129.92
605.122	21416.63
605.318	20906.69
605.514	21217.98
605.71	20878.02
605.906	20873.92
606.102	20658.88
606.298	20679.36
606.494	20533.96
606.69	20873.92
606.886	20720.32
607.082	20546.25
607.278	20806.34
607.474	20222.67
607.67	20370.12
607.866	20243.15
608.062	20468.42
608.257	20275.91
608.453	20314.83
608.649	20185.8
608.845	20130.51
609.041	20060.88
609.236	20228.81
609.432	20144.84
609.628	20292.3
609.824	19792.59
610.019	19819.22
610.215	19755.73
610.411	19954.38
610.606	19835.6
610.802	19858.13
610.998	19829.46
611.193	19587.8
611.389	19528.41
611.584	19501.78
611.78	19630.8
611.976	19534.55
612.171	19393.24
612.367	19319.51
612.562	19251.93
612.758	19389.14
612.953	19030.75
613.149	19348.18
613.344	19043.04
613.539	19401.43
613.735	19241.69
613.93	19075.8
614.126	18815.71
614.321	19180.25
614.517	19108.57
614.712	19106.52
614.907	18789.09
615.103	19063.52
615.298	18445.03
615.493	18924.26
615.688	18553.57
615.884	18762.47
616.079	18655.97
616.274	18805.47
616.47	18629.35
616.665	18307.82
616.86	18367.21
617.055	18406.12
617.25	18201.32
617.445	18600.68
617.641	18051.82
617.836	18438.89
618.031	18191.08
618.226	17959.66
618.421	17869.55
618.616	18207.47
618.811	17890.03
619.006	18166.51
619.201	17781.49
619.396	17820.4
619.591	17464.05
619.786	17765.1
619.981	17435.38
620.176	17351.42
620.371	17330.94
620.566	17251.06
620.761	17505.01
620.956	17079.04
621.151	16990.97
621.346	17156.86
621.541	16941.82
621.735	16931.58
621.93	16591.62
622.125	16694.02
622.32	16116.49
622.515	16444.17
622.709	16405.25
622.904	16528.13
623.099	16274.18
623.294	16153.35
623.488	15969.04
623.683	15952.65
623.878	15876.88
624.072	15997.71
624.267	15713.04
624.462	15844.11
624.656	15549.2
624.851	15522.58
625.046	15502.1
625.24	15332.12
625.435	15426.32
625.629	15315.73
625.824	15162.14
626.018	15108.89
626.213	14789.41
626.407	15037.21
626.602	14687.01
626.796	14750.49
626.991	14840.61
627.185	14687.01
627.38	14621.47
627.574	14564.13
627.768	14160.68
627.963	14170.92
628.157	14230.31
628.352	14289.7
628.546	13986.6
628.74	13929.26
628.935	13931.31
629.129	13908.78
629.323	13835.05
629.517	13630.26
629.712	13744.94
629.906	13480.75
630.1	13179.7
630.294	13425.46
630.489	13212.47
630.683	13290.29
630.877	13310.77
631.071	13179.7
631.265	13095.74
631.459	13050.68
631.653	12997.43
631.848	12905.28
632.042	12641.09
632.236	12888.89
632.43	12718.91
632.624	12647.23
632.818	12720.96
633.012	12368.71
633.206	12477.25
633.4	12448.58
633.594	12229.45
633.788	12270.4
633.982	12266.31
634.176	12213.06
634.369	11944.78
634.563	11950.92
634.757	11680.59
634.951	11983.69
635.145	11981.64
635.339	11897.67
635.533	11744.08
635.726	11705.17
635.92	11592.53
636.114	11498.32
636.308	11338.58
636.501	11352.91
636.695	11518.8
636.889	11203.41
637.083	11262.8
637.276	11103.06
637.47	11002.71
637.664	10937.18
637.857	10955.61
638.051	10828.63
638.244	10457.95
638.438	10756.96
638.632	10847.07
638.825	10484.58
639.019	10689.37
639.212	10562.4
639.406	10296.16
639.599	10390.37
639.793	10468.19
639.986	10255.2
640.18	9958.25
640.373	10101.61
640.567	9952.1
640.76	10111.85
640.954	9823.08
641.147	9929.58
641.34	9845.61
641.534	9823.08
641.727	9784.17
641.92	9558.89
642.114	9495.41
642.307	9493.36
642.5	9263.99
642.694	9384.82
642.887	9288.56
643.08	9390.96
643.273	8950.65
643.467	9112.44
643.66	8909.69
643.853	8852.34
644.046	8655.74
644.239	8954.74
644.432	8665.98
644.626	8809.34
644.819	8635.26
645.012	8500.09
645.205	8358.78
645.398	8508.29
645.591	8582.01
645.784	8248.19
645.977	8172.42
646.17	8387.46
646.363	8297.35
646.556	8086.4
646.749	8004.49
646.942	8031.11
647.135	7959.43
647.328	7740.3
647.521	7826.31
647.714	7699.34
647.907	7791.5
648.099	7639.95
648.292	7539.6
648.485	7529.36
648.678	7506.83
648.871	7474.06
649.064	7304.08
649.256	7566.22
649.449	7443.34
649.642	7242.64
649.835	7218.07
650.027	7302.03
650.22	7033.75
650.413	7074.71
650.605	7050.13
650.798	7035.8
650.991	6986.65
651.183	6904.73
651.376	6747.03
651.568	6843.29
651.761	6722.46
651.954	6751.13
652.146	6779.8
652.339	6757.27
652.531	6757.27
652.724	6339.49
652.916	6427.55
653.109	6730.65
653.301	6495.13
653.494	6495.13
653.686	6255.52
653.879	6407.07
654.071	6366.11
654.263	6167.46
654.456	6257.57
654.648	6183.84
654.84	6292.38
655.033	6126.5
655.225	6138.79
655.417	6067.11
655.61	6142.88
655.802	6149.03
655.994	5874.6
656.186	5766.06
656.379	5850.02
656.571	5856.17
656.763	5819.3
656.955	5856.17
657.148	5811.11
657.34	5712.81
657.532	5602.22
657.724	5618.6
657.916	5596.07
658.108	5594.03
658.3	5471.15
658.492	5524.4
658.684	5417.9
658.876	5372.85
659.068	5397.42
659.26	5344.17
659.452	5424.05
659.644	5327.79
659.836	5266.35
660.028	5321.65
660.22	5127.09
660.412	5254.06
660.604	5051.31
660.796	5166
660.988	4998.07
661.18	4948.92
661.372	5057.46
661.563	4844.47
661.755	4856.76
661.947	4957.11
662.139	4656.06
662.331	4823.99
662.522	4778.94
662.714	4760.5
662.906	4670.39
663.097	4797.37
663.289	4531.13
663.481	4598.71
663.673	4537.27
663.864	4365.25
664.056	4539.32
664.247	4398.01
664.439	4443.07
664.631	4371.39
664.822	4228.03
665.014	4334.53
665.205	4383.68
665.397	4260.8
665.588	4275.13
665.78	4256.7
665.971	4185.02
666.163	4168.64
666.354	4201.41
666.546	4154.3
666.737	3933.12
666.929	3969.99
667.12	4113.35
667.311	3853.25
667.503	4047.81
667.694	3830.73
667.885	3867.59
668.077	3789.77
668.268	3955.65
668.459	3943.36
668.651	3711.94
668.842	3695.56
669.033	3697.61
669.224	3664.84
669.416	3662.79
669.607	3716.04
669.798	3664.84
669.989	3734.47
670.18	3505.1
670.371	3705.8
670.563	3621.83
670.754	3541.96
670.945	3521.48
671.136	3464.14
671.327	3425.23
671.518	3460.04
671.709	3474.38
671.9	3410.89
672.091	3548.11
672.282	3304.4
672.473	3361.74
672.664	3398.6
672.855	3306.45
673.046	3384.27
673.237	3318.73
673.428	3367.88
673.619	3212.24
673.809	3273.68
674	3277.77
674.191	3298.25
674.382	3247.05
674.573	3083.22
674.764	3240.91
674.954	3220.43
675.145	3111.89
675.336	3161.04
675.527	2993.11
675.717	3113.94
675.908	3156.94
676.099	3027.92
676.289	3136.46
676.48	3099.6
676.671	3124.18
676.861	3054.55
677.052	3054.55
677.243	2954.19
677.433	3056.59
677.624	2997.2
677.814	3036.11
678.005	3034.07
678.195	2905.04
678.386	3046.35
678.576	3044.31
678.767	2950.1
678.957	3044.31
679.148	2956.24
679.338	2925.52
679.529	2849.75
679.719	2997.2
679.909	3013.59
680.1	2812.89
680.29	2976.72
680.481	2931.67
680.671	2894.8
680.861	2876.37
681.052	2886.61
681.242	2839.51
681.432	2827.22
681.622	2800.6
681.813	2802.65
682.003	2862.04
682.193	2823.12
682.383	2954.19
682.573	2886.61
682.764	2859.99
682.954	2923.48
683.144	2843.6
683.334	2864.08
683.524	2884.56
683.714	2886.61
683.904	2831.32
684.094	2974.67
684.284	2862.04
684.474	2714.58
684.664	2890.71
684.854	2816.98
685.044	2859.99
685.234	2894.8
685.424	2915.28
685.614	2911.19
685.804	2948.05
685.994	2882.52
686.184	2913.24
686.374	2890.71
686.564	3001.3
686.753	2792.41
686.943	2980.82
687.133	2780.12
687.323	2937.81
687.513	2982.87
687.702	2761.69
687.892	2941.91
688.082	2874.32
688.272	2915.28
688.461	2880.47
688.651	2833.36
688.841	2829.27
689.03	2882.52
689.22	2859.99
689.41	3007.44
689.599	2941.91
689.789	2984.91
689.979	2802.65
690.168	2948.05
690.358	2964.43
690.547	2831.32
690.737	2825.17
690.926	2907.09
691.116	2841.56
691.305	2812.89
691.495	2782.17
691.684	2927.57
691.874	2839.51
692.063	2894.8
692.252	2929.62
692.442	2886.61
692.631	2878.42
692.82	2939.86
693.01	2866.13
693.199	2835.41
693.388	2907.09
693.578	2946
693.767	2874.32
693.956	2710.49
694.146	2878.42
694.335	2868.18
694.524	2763.73
694.713	2903
694.902	2794.45
695.092	2757.59
695.281	2835.41
695.47	2788.31
695.659	2837.46
695.848	2745.3
696.037	2778.07
696.226	2773.97
696.415	2761.69
696.604	2722.77
696.793	2704.34
696.982	2661.34
697.171	2630.62
697.36	2759.64
697.549	2593.75
697.738	2829.27
697.927	2595.8
698.116	2687.96
698.305	2587.61
698.494	2579.42
698.683	2612.18
698.872	2698.2
699.061	2696.15
699.25	2532.31
699.438	2589.66
699.627	2544.6
699.816	2534.36
700.005	2583.51
700.193	2493.4
700.382	2487.26
700.571	2448.35
700.76	2368.48
700.948	2612.18
701.137	2579.42
701.326	2395.1
701.514	2560.98
701.703	2565.08
701.892	2380.76
702.08	2468.83
702.269	2382.81
702.457	2417.63
702.646	2507.74
702.834	2409.44
703.023	2468.83
703.212	2393.05
703.4	2384.86
703.589	2366.43
703.777	2352.09
703.965	2270.17
704.154	2206.69
704.342	2268.13
704.531	2239.45
704.719	2188.25
704.907	2366.43
705.096	2223.07
705.284	2190.3
705.472	2274.27
705.661	2112.48
705.849	2218.97
706.037	2106.34
706.226	2171.87
706.414	2161.63
706.602	2147.3
706.79	2280.41
706.979	2178.01
707.167	2241.5
707.355	2145.25
707.543	2233.31
707.731	2048.99
707.919	2175.97
708.107	2003.94
708.296	2124.77
708.484	2048.99
708.672	2046.94
708.86	2051.04
709.048	2036.7
709.236	2065.38
709.424	2188.25
709.612	2096.1
709.8	1995.75
709.988	2040.8
710.176	2010.08
710.364	2010.08
710.551	1991.65
710.739	1979.36
710.927	1919.97
711.115	1942.5
711.303	1987.55
711.491	1885.16
711.679	1776.61
711.866	2024.42
712.054	1913.83
712.242	1872.87
712.43	1889.25
712.617	1907.68
712.805	1879.01
712.993	1889.25
713.181	1928.16
713.368	1854.44
713.556	1852.39
713.744	1696.74
713.931	1819.62
714.119	1819.62
714.306	1864.68
714.494	1811.43
714.682	1717.22
714.869	1696.74
715.057	1809.38
715.244	1709.03
715.432	1774.56
715.619	1770.47
715.807	1729.51
715.994	1747.94
716.182	1657.83
716.369	1680.36
716.556	1625.06
716.744	1598.44
716.931	1631.21
717.119	1680.36
717.306	1731.56
717.493	1760.23
717.681	1629.16
717.868	1555.43
718.055	1643.49
718.242	1504.23
718.43	1543.14
718.617	1623.02
718.804	1498.09
718.991	1432.55
719.179	1584.1
719.366	1506.28
719.553	1557.48
719.74	1389.55
719.927	1518.57
720.114	1580.01
720.301	1465.32
720.488	1539.05
720.676	1524.71
720.863	1524.71
721.05	1485.8
721.237	1412.07
721.424	1420.27
721.611	1442.79
721.798	1459.18
721.985	1426.41
722.172	1442.79
722.358	1293.29
722.545	1338.35
722.732	1459.18
722.919	1391.59
723.106	1326.06
723.293	1428.46
723.48	1342.44
723.667	1364.97
723.853	1336.3
724.04	1387.5
724.227	1268.72
724.414	1330.16
724.6	1313.77
724.787	1399.79
724.974	1336.3
725.161	1324.01
725.347	1295.34
725.534	1309.68
725.72	1291.24
725.907	1260.52
726.094	1324.01
726.28	1229.81
726.467	1225.71
726.653	1266.67
726.84	1293.29
727.027	1227.76
727.213	1213.42
727.4	1328.11
727.586	1227.76
727.773	1186.8
727.959	1213.42
728.145	1199.09
728.332	1199.09
728.518	1190.89
728.705	1178.61
728.891	1115.12
729.077	1272.81
729.264	1174.51
729.45	1151.98
729.636	1180.65
729.823	1037.3
730.009	1240.05
730.195	1174.51
730.382	1151.98
730.568	1262.57
730.754	1135.6
730.94	1180.65
731.126	1100.78
731.313	1162.22
731.499	1108.98
731.685	1094.64
731.871	1137.65
732.057	1004.53
732.243	1197.04
732.429	1088.5
732.615	1070.06
732.801	1088.5
732.987	1094.64
733.173	1043.44
733.359	1106.93
733.545	1045.49
733.731	1020.91
733.917	1016.82
734.103	973.81
734.289	1049.58
734.475	1000.43
734.661	1082.35
734.847	984.05
735.033	926.71
735.219	977.91
735.404	961.52
735.59	1053.68
735.776	982
735.962	979.95
736.148	1008.62
736.333	955.38
736.519	1012.72
736.705	879.6
736.89	1018.86
737.076	979.95
737.262	936.95
737.447	934.9
737.633	967.67
737.819	1020.91
738.004	945.14
738.19	953.33
738.375	842.74
738.561	916.47
738.747	986.1
738.932	834.55
739.118	887.79
739.303	928.75
739.489	934.9
739.674	938.99
739.859	842.74
740.045	924.66
740.23	812.02
740.416	795.64
740.601	850.93
740.786	887.79
740.972	910.32
741.157	848.88
741.342	867.31
741.528	824.31
741.713	848.88
741.898	859.12
742.084	797.68
742.269	814.07
742.454	859.12
742.639	859.12
742.824	744.44
743.01	816.12
743.195	795.64
743.38	830.45
743.565	756.72
743.75	781.3
743.935	803.83
744.12	773.11
744.305	678.9
744.49	746.48
744.675	732.15
744.86	750.58
745.045	683
745.23	773.11
745.415	738.29
745.6	650.23
745.785	713.72
745.97	721.91
746.155	754.68
746.34	642.04
746.525	707.57
746.71	705.53
746.895	680.95
747.079	691.19
747.264	752.63
747.449	748.53
747.634	728.05
747.819	637.94
748.003	728.05
748.188	670.71
748.373	562.17
748.557	695.29
748.742	693.24
748.927	633.85
749.111	715.77
749.296	599.03
749.481	613.37
749.665	578.55
749.85	742.39
750.034	668.66
750.219	613.37
750.404	689.14
750.588	652.28
750.773	617.46
750.957	646.13
751.141	646.13
751.326	594.93
751.51	558.07
751.695	574.46
751.879	656.37
752.064	607.22
752.248	674.81
752.432	621.56
752.617	613.37
752.801	605.17
752.985	590.84
753.17	619.51
753.354	545.78
753.538	611.32
753.722	564.22
753.907	533.5
754.091	623.61
754.275	535.54
754.459	496.63
754.643	599.03
754.828	574.46
755.012	478.2
755.196	572.41
755.38	619.51
755.564	484.34
755.748	558.07
755.932	455.67
756.116	527.35
756.3	519.16
756.484	517.11
756.668	531.45
756.852	529.4
757.036	508.92
757.22	449.53
757.404	510.97
757.588	517.11
757.772	519.16
757.956	529.4
758.14	447.48
758.323	527.35
758.507	437.24
758.691	441.34
758.875	472.06
759.059	422.91
759.242	441.34
759.426	478.2
759.61	451.58
759.794	435.19
759.977	498.68
760.161	488.44
760.345	484.34
760.528	441.34
760.712	453.63
760.895	478.2
761.079	367.61
761.263	404.47
761.446	422.91
761.63	447.48
761.813	523.26
761.997	431.1
762.18	527.35
762.364	338.94
762.547	433.15
762.731	451.58
762.914	424.95
763.098	476.15
763.281	445.43
763.464	402.43
763.648	400.38
763.831	406.52
764.015	408.57
764.198	353.27
764.381	388.09
764.564	394.23
764.748	433.15
764.931	367.61
765.114	386.04
765.297	404.47
765.481	357.37
765.664	420.86
765.847	359.42
766.03	410.62
766.213	392.19
766.397	422.91
766.58	340.99
766.763	424.95
766.946	367.61
767.129	427
767.312	359.42
767.495	402.43
767.678	390.14
767.861	390.14
768.044	349.18
768.227	355.32
768.41	396.28
768.593	367.61
768.776	400.38
768.959	414.71
769.142	390.14
769.324	388.09
769.507	398.33
769.69	383.99
769.873	318.46
770.056	347.13
770.239	304.12
770.421	365.56
770.604	390.14
770.787	414.71
770.97	310.27
771.152	351.23
771.335	418.81
771.518	375.8
771.7	359.42
771.883	447.48
772.066	347.13
772.248	373.75
772.431	322.56
772.613	340.99
772.796	386.04
772.978	334.84
773.161	371.71
773.343	357.37
773.526	312.32
773.708	363.51
773.891	418.81
774.073	359.42
774.256	383.99
774.438	345.08
774.621	340.99
774.803	271.36
774.985	379.9
775.168	226.3
775.35	293.88
775.532	277.5
775.715	306.17
775.897	310.27
776.079	312.32
776.261	351.23
776.444	300.03
776.626	269.31
776.808	318.46
776.99	279.55
777.173	222.2
777.355	332.79
777.537	304.12
777.719	336.89
777.901	300.03
778.083	308.22
778.265	295.93
778.447	326.65
778.629	338.94
778.811	240.64
778.993	265.21
779.175	310.27
779.357	293.88
779.539	304.12
779.721	295.93
779.903	281.6
780.085	234.49
780.267	353.27
780.449	259.07
780.631	289.79
780.812	257.02
780.994	285.69
781.176	238.59
781.358	222.2
781.54	189.44
781.721	236.54
781.903	300.03
782.085	207.87
782.267	168.96
782.448	203.77
782.63	197.63
782.812	289.79
782.993	203.77
783.175	254.97
783.357	246.78
783.538	300.03
783.72	238.59
783.901	203.77
784.083	240.64
784.264	191.49
784.446	271.36
784.627	228.35
784.809	220.16
784.99	168.96
785.172	261.12
785.353	201.72
785.535	162.81
785.716	201.72
785.897	205.82
786.079	308.22
786.26	220.16
786.441	183.29
786.623	207.87
786.804	250.88
786.985	199.68
787.167	209.92
787.348	240.64
787.529	195.58
787.71	232.44
787.891	150.53
788.073	187.39
788.254	162.81
788.435	191.49
788.616	236.54
788.797	236.54
788.978	234.49
789.159	269.31
789.34	113.66
789.522	181.25
789.703	156.67
789.884	179.2
790.065	162.81
790.246	103.42
790.427	142.33
790.607	242.68
790.788	156.67
790.969	95.23
791.15	150.53
791.331	97.28
791.512	138.24
791.693	162.81
791.874	203.77
792.054	162.81
792.235	203.77
792.416	160.77
792.597	171.01
792.778	175.1
792.958	220.16
793.139	99.33
793.32	175.1
793.5	146.43
793.681	97.28
793.862	142.33
794.042	91.13
794.223	95.23
794.404	173.05
794.584	216.06
794.765	64.51
794.945	138.24
795.126	175.1
795.306	197.63
795.487	158.72
795.667	140.29
795.848	234.49
796.028	154.62
796.209	199.68
796.389	156.67
796.57	175.1
796.75	97.28
796.93	68.61
797.111	95.23
797.291	162.81
797.471	158.72
797.652	84.99
797.832	72.7
798.012	146.43
798.192	158.72
798.373	168.96
798.553	185.34
798.733	107.52
798.913	50.18
799.093	189.44
799.274	58.37
799.454	177.15
799.634	111.61
799.814	183.29
799.994	64.51
800.174	107.52
800.354	103.42
800.534	113.66
800.714	136.19
800.894	82.94
801.074	72.7
801.254	134.14
801.434	158.72
801.614	130.05
801.794	103.42
801.974	355.32
802.154	89.09
802.334	95.23
802.514	99.33
802.693	171.01
802.873	107.52
803.053	156.67
803.233	115.71
803.413	168.96
803.592	50.18
803.772	119.81
803.952	109.57
804.131	101.37
804.311	95.23
804.491	138.24
804.67	115.71
804.85	60.42
805.03	56.32
805.209	189.44
805.389	87.04
805.568	152.57
805.748	89.09
805.928	146.43
806.107	68.61
806.287	60.42
806.466	113.66
806.646	68.61
806.825	64.51
807.004	48.13
807.184	111.61
807.363	105.47
807.543	52.22
807.722	97.28
807.901	121.85
808.081	35.84
808.26	60.42
808.439	173.05
808.619	84.99
808.798	82.94
808.977	123.9
809.156	35.84
809.336	101.37
809.515	99.33
809.694	82.94
809.873	101.37
810.052	101.37
810.231	80.89
810.411	50.18
810.59	91.13
810.769	72.7
810.948	84.99
811.127	25.6
811.306	72.7
811.485	128
811.664	103.42
811.843	70.65
812.022	146.43
812.201	68.61
812.38	46.08
812.559	95.23
812.737	101.37
812.916	56.32
813.095	80.89
813.274	62.46
813.453	103.42
813.632	99.33
813.811	158.72
813.989	27.65
814.168	70.65
814.347	64.51
814.526	50.18
814.704	125.95
814.883	132.09
815.062	99.33
815.24	44.03
815.419	46.08
815.598	66.56
815.776	60.42
815.955	95.23
816.133	25.6
816.312	130.05
816.49	50.18
816.669	89.09
816.847	9.22
817.026	95.23
817.204	74.75
817.383	93.18
817.561	64.51
817.74	123.9
817.918	62.46
818.097	152.57
818.275	41.98
818.453	91.13
818.632	41.98
818.81	91.13
818.988	117.76
819.167	125.95
819.345	113.66
819.523	64.51
819.701	93.18
819.879	113.66
820.058	80.89
820.236	54.27
820.414	70.65
820.592	128
820.77	9.22
820.948	76.8
821.127	17.41
821.305	82.94
821.483	62.46
821.661	27.65
821.839	37.89
822.017	58.37
822.195	-11.26
822.373	-33.79
822.551	107.52
822.729	54.27
822.907	105.47
823.085	109.57
823.262	134.14
823.44	25.6
823.618	48.13
823.796	-7.17
823.974	78.85
824.152	95.23
824.329	123.9
824.507	13.31
824.685	50.18
824.863	130.05
825.04	105.47
825.218	74.75
825.396	60.42
825.574	70.65
825.751	29.7
825.929	146.43
826.107	31.74
826.284	80.89
826.462	50.18
826.639	56.32
826.817	109.57
826.994	66.56
827.172	46.08
827.349	54.27
827.527	25.6
827.704	50.18
827.882	35.84
828.059	56.32
828.237	89.09
828.414	41.98
828.591	44.03
828.769	105.47
828.946	82.94
829.124	80.89
829.301	54.27
829.478	25.6
829.655	62.46
829.833	117.76
830.01	89.09
830.187	103.42
830.364	-9.22
830.542	29.7
830.719	66.56
830.896	37.89
831.073	33.79
831.25	52.22
831.427	39.94
831.604	41.98
831.782	9.22
831.959	132.09
832.136	7.17
832.313	72.7
832.49	-29.7
832.667	15.36
832.844	39.94
833.021	50.18
833.198	82.94
833.374	72.7
833.551	39.94
833.728	39.94
833.905	44.03
834.082	105.47
834.259	99.33
834.436	80.89
834.612	84.99
834.789	84.99
834.966	23.55
835.143	117.76
835.319	-5.12
835.496	7.17
835.673	7.17
835.85	107.52
836.026	54.27
836.203	35.84
836.38	56.32
836.556	115.71
836.733	41.98
836.909	119.81
837.086	107.52
837.262	52.22
837.439	-21.5
837.616	48.13
837.792	56.32
837.968	33.79
838.145	1.02
838.321	7.17
838.498	41.98
838.674	48.13
838.851	72.7
839.027	66.56
839.203	-1.02
839.38	27.65
839.556	-9.22
839.732	95.23
839.909	72.7
840.085	93.18
840.261	-13.31
840.437	89.09
840.614	13.31
840.79	50.18
840.966	9.22
841.142	-11.26
841.318	93.18
841.494	-1.02
841.671	64.51
841.847	25.6
842.023	25.6
842.199	11.26
842.375	56.32
842.551	99.33
842.727	-1.02
842.903	37.89
843.079	33.79
843.255	50.18
843.431	66.56
843.607	13.31
843.783	37.89
843.959	17.41
844.134	17.41
844.31	-7.17
844.486	-56.32
844.662	3.07
844.838	-27.65
845.013	29.7
845.189	107.52
845.365	39.94
845.541	44.03
845.716	39.94
845.892	39.94
846.068	48.13
846.244	1.02
846.419	27.65
846.595	23.55
846.77	58.37
846.946	-7.17
847.122	64.51
847.297	97.28
847.473	39.94
847.648	-1.02
847.824	29.7
847.999	-7.17
848.175	52.22
848.35	31.74
848.526	-50.18
848.701	70.65
848.876	80.89
849.052	78.85
849.227	-31.74
849.403	-39.94
849.578	-21.5
849.753	-21.5
849.929	-5.12
850.104	50.18
850.279	39.94
850.454	60.42
850.63	-19.46
850.805	17.41
850.98	74.75
851.155	-5.12
851.33	-1.02
851.505	48.13
851.681	11.26
851.856	91.13
852.031	87.04
852.206	31.74
852.381	-1.02
852.556	21.5
852.731	46.08
852.906	7.17
853.081	23.55
853.256	62.46
853.431	62.46
853.606	35.84
853.781	78.85
853.956	-13.31
854.131	5.12
854.305	7.17
854.48	76.8
854.655	41.98
854.83	33.79
855.005	-64.51
855.18	25.6
855.354	-1.02
855.529	-3.07
855.704	35.84
855.879	37.89
856.053	-5.12
856.228	31.74
856.403	48.13
856.577	48.13
856.752	1.02
856.926	52.22
857.101	9.22
857.276	39.94
857.45	31.74
857.625	27.65
857.799	3.07
857.974	66.56
858.148	-21.5
858.323	21.5
858.497	25.6
858.672	44.03
858.846	76.8
859.02	99.33
859.195	25.6
859.369	-35.84
859.543	7.17
859.718	13.31
859.892	-46.08
860.066	74.75
860.241	41.98
860.415	-15.36
860.589	37.89
860.763	109.57
860.938	52.22
861.112	41.98
861.286	3.07
861.46	31.74
861.634	31.74
861.808	-66.56
861.982	44.03
862.157	-25.6
862.331	-9.22
862.505	39.94
862.679	50.18
862.853	7.17
863.027	23.55
863.201	97.28
863.375	27.65
863.549	25.6
863.722	9.22
863.896	74.75
864.07	29.7
864.244	44.03
864.418	27.65
864.592	17.41
864.766	13.31
864.939	48.13
865.113	-11.26
865.287	66.56
865.461	5.12
865.634	39.94
865.808	48.13
865.982	27.65
866.156	54.27
866.329	21.5
866.503	33.79
866.676	-5.12
866.85	-25.6
867.024	17.41
867.197	27.65
867.371	33.79
867.544	-17.41
867.718	21.5
867.891	44.03
868.065	64.51
868.238	15.36
868.412	31.74
868.585	46.08
868.759	50.18
868.932	23.55
869.105	66.56
869.279	31.74
869.452	27.65
869.625	-78.85
869.799	82.94
869.972	7.17
870.145	-13.31
870.319	62.46
870.492	-11.26
870.665	134.14
870.838	-25.6
871.011	54.27
871.185	5.12
871.358	29.7
871.531	99.33
871.704	7.17
871.877	19.46
872.05	33.79
872.223	-7.17
872.396	33.79
872.569	62.46
872.742	27.65
872.915	48.13
873.088	89.09
873.261	-23.55
873.434	5.12
873.607	48.13
873.78	46.08
873.953	-11.26
874.126	37.89
874.299	60.42
874.471	1.02
874.644	7.17
874.817	54.27
874.99	93.18
875.163	41.98
875.335	48.13
875.508	35.84
875.681	60.42
875.853	-64.51
876.026	44.03
876.199	21.5
876.371	64.51
876.544	9.22
876.717	27.65
876.889	29.7
877.062	3.07
877.234	39.94
877.407	21.5
877.579	3.07
877.752	52.22
877.924	15.36
878.097	89.09
878.269	29.7
878.442	23.55
878.614	56.32
878.786	25.6
878.959	50.18
879.131	1.02
879.303	-5.12
879.476	-23.55
879.648	46.08
879.82	-23.55
879.993	23.55
880.165	-29.7
880.337	-15.36
880.509	68.61
880.681	44.03
880.854	56.32
881.026	72.7
881.198	7.17
881.37	-44.03
881.542	46.08
881.714	52.22
881.886	72.7
882.058	105.47
882.23	64.51
882.402	9.22
882.574	70.65
882.746	25.6
882.918	-7.17
883.09	23.55
883.262	-25.6
883.434	64.51
883.606	-7.17
883.778	-23.55
883.95	80.89
884.122	140.29
884.293	74.75
884.465	-11.26
884.637	80.89
884.809	-9.22
884.98	84.99
885.152	9.22
885.324	15.36
885.496	39.94
885.667	23.55
885.839	21.5
886.011	19.46
886.182	82.94
886.354	35.84
886.525	-15.36
886.697	17.41
886.869	21.5
887.04	23.55
887.212	33.79
887.383	48.13
887.555	-29.7
887.726	46.08
887.897	-1.02
888.069	44.03
888.24	54.27
888.412	25.6
888.583	37.89
888.754	48.13
888.926	-11.26
889.097	123.9
889.268	7.17
889.44	23.55
889.611	29.7
889.782	-25.6
889.953	25.6
890.125	3.07
890.296	-21.5
890.467	35.84
890.638	-3.07
890.809	84.99
890.98	84.99
891.151	39.94
891.323	35.84
891.494	-29.7
891.665	-3.07
891.836	-5.12
892.007	60.42
892.178	21.5
892.349	-9.22
892.52	-9.22
892.691	25.6
892.862	19.46
893.032	-29.7
893.203	1.02
893.374	33.79
893.545	74.75
893.716	-15.36
893.887	-15.36
894.057	-3.07
894.228	56.32
894.399	-13.31
894.57	11.26
894.74	-17.41
894.911	44.03
895.082	-48.13
895.253	11.26
895.423	50.18
895.594	107.52
895.764	-21.5
895.935	11.26
896.106	-37.89
896.276	15.36
896.447	31.74
896.617	-37.89
896.788	37.89
896.958	7.17
897.129	-5.12
897.299	19.46
897.47	-68.61
897.64	-1.02
897.81	44.03
897.981	64.51
898.151	41.98
898.322	31.74
898.492	13.31
898.662	17.41
898.832	31.74
899.003	5.12
899.173	1.02
899.343	31.74
899.513	15.36
