Data from USB4F104151__57__12-54-05-303.txt Node

Date: Fri Mar 14 12:54:05 EDT 2025
User: louis
Spectrometer: USB4F10415
Trigger mode: 4
Integration Time (sec): 1.000000E-2
Scans to average: 1
Electric dark correction enabled: true
Nonlinearity correction enabled: false
Boxcar width: 0
XAxis mode: Wavelengths
Number of Pixels in Spectrum: 3648
>>>>>Begin Spectral Data<<<<<
178.204	-39.94
178.424	-39.94
178.644	-39.94
178.864	15.36
179.084	-39.94
179.304	-56.32
179.524	13.31
179.744	23.55
179.964	-23.55
180.184	68.61
180.404	-17.41
180.624	-31.74
180.844	37.89
181.064	-1.02
181.283	-35.84
181.503	1.02
181.723	21.5
181.943	-35.84
182.163	91.13
182.383	-25.6
182.602	-54.27
182.822	-9.22
183.042	31.74
183.262	21.5
183.482	48.13
183.701	-21.5
183.921	9.22
184.141	15.36
184.361	54.27
184.58	9.22
184.8	66.56
185.02	35.84
185.239	23.55
185.459	48.13
185.679	3.07
185.898	46.08
186.118	-9.22
186.338	-9.22
186.557	7.17
186.777	-3.07
186.997	41.98
187.216	-5.12
187.436	23.55
187.655	80.89
187.875	31.74
188.095	-39.94
188.314	82.94
188.534	46.08
188.753	39.94
188.973	48.13
189.192	7.17
189.412	58.37
189.631	48.13
189.851	39.94
190.07	15.36
190.29	46.08
190.509	27.65
190.729	27.65
190.948	-23.55
191.168	41.98
191.387	82.94
191.607	1.02
191.826	66.56
192.045	19.46
192.265	41.98
192.484	72.7
192.704	56.32
192.923	31.74
193.142	27.65
193.362	29.7
193.581	72.7
193.8	7.17
194.02	15.36
194.239	56.32
194.458	58.37
194.678	-15.36
194.897	48.13
195.116	19.46
195.335	-15.36
195.555	33.79
195.774	23.55
195.993	72.7
196.212	-1.02
196.432	-9.22
196.651	15.36
196.87	60.42
197.089	9.22
197.308	70.65
197.528	48.13
197.747	-29.7
197.966	25.6
198.185	9.22
198.404	115.71
198.623	-1.02
198.842	56.32
199.062	54.27
199.281	5.12
199.5	27.65
199.719	15.36
199.938	29.7
200.157	11.26
200.376	33.79
200.595	39.94
200.814	9.22
201.033	68.61
201.252	-29.7
201.471	9.22
201.69	15.36
201.909	7.17
202.128	87.04
202.347	-17.41
202.566	23.55
202.785	31.74
203.004	-29.7
203.223	97.28
203.442	46.08
203.661	-35.84
203.879	17.41
204.098	35.84
204.317	48.13
204.536	11.26
204.755	91.13
204.974	39.94
205.193	52.22
205.411	68.61
205.63	68.61
205.849	-7.17
206.068	74.75
206.287	68.61
206.505	7.17
206.724	-3.07
206.943	66.56
207.162	48.13
207.381	115.71
207.599	41.98
207.818	15.36
208.037	-29.7
208.255	9.22
208.474	-9.22
208.693	-11.26
208.911	64.51
209.13	31.74
209.349	13.31
209.567	-41.98
209.786	-11.26
210.005	39.94
210.223	72.7
210.442	1.02
210.661	44.03
210.879	11.26
211.098	-21.5
211.316	-1.02
211.535	66.56
211.753	-9.22
211.972	17.41
212.191	62.46
212.409	56.32
212.628	37.89
212.846	9.22
213.065	35.84
213.283	31.74
213.502	1.02
213.72	41.98
213.938	13.31
214.157	41.98
214.375	27.65
214.594	11.26
214.812	44.03
215.031	-82.94
215.249	15.36
215.467	-7.17
215.686	74.75
215.904	66.56
216.122	105.47
216.341	-11.26
216.559	44.03
216.778	44.03
216.996	-3.07
217.214	5.12
217.432	25.6
217.651	7.17
217.869	-7.17
218.087	-1.02
218.306	-70.65
218.524	-1.02
218.742	-31.74
218.96	27.65
219.179	-37.89
219.397	56.32
219.615	33.79
219.833	56.32
220.051	19.46
220.27	89.09
220.488	-33.79
220.706	3.07
220.924	39.94
221.142	74.75
221.36	41.98
221.578	41.98
221.796	35.84
222.015	89.09
222.233	-7.17
222.451	48.13
222.669	3.07
222.887	-52.22
223.105	-5.12
223.323	74.75
223.541	58.37
223.759	82.94
223.977	58.37
224.195	29.7
224.413	-7.17
224.631	17.41
224.849	35.84
225.067	15.36
225.285	15.36
225.503	70.65
225.721	-3.07
225.939	39.94
226.157	9.22
226.375	64.51
226.592	23.55
226.81	37.89
227.028	11.26
227.246	52.22
227.464	11.26
227.682	39.94
227.9	66.56
228.117	15.36
228.335	-1.02
228.553	64.51
228.771	29.7
228.989	72.7
229.206	54.27
229.424	52.22
229.642	64.51
229.86	-1.02
230.077	-19.46
230.295	48.13
230.513	23.55
230.731	39.94
230.948	15.36
231.166	21.5
231.384	66.56
231.601	136.19
231.819	87.04
232.037	-13.31
232.254	-11.26
232.472	25.6
232.689	119.81
232.907	95.23
233.125	-9.22
233.342	-35.84
233.56	1.02
233.777	21.5
233.995	-27.65
234.213	-9.22
234.43	31.74
234.648	-46.08
234.865	56.32
235.083	1.02
235.3	66.56
235.518	66.56
235.735	82.94
235.953	105.47
236.17	50.18
236.388	70.65
236.605	-33.79
236.822	39.94
237.04	58.37
237.257	78.85
237.475	60.42
237.692	17.41
237.909	-31.74
238.127	29.7
238.344	9.22
238.562	52.22
238.779	-9.22
238.996	93.18
239.214	80.89
239.431	72.7
239.648	23.55
239.865	-1.02
240.083	31.74
240.3	25.6
240.517	39.94
240.735	-23.55
240.952	11.26
241.169	50.18
241.386	13.31
241.603	64.51
241.821	15.36
242.038	76.8
242.255	23.55
242.472	3.07
242.689	37.89
242.907	52.22
243.124	91.13
243.341	-58.37
243.558	44.03
243.775	-21.5
243.992	-46.08
244.209	7.17
244.426	1.02
244.643	60.42
244.86	35.84
245.078	-25.6
245.295	37.89
245.512	48.13
245.729	44.03
245.946	-13.31
246.163	62.46
246.38	25.6
246.597	-1.02
246.814	117.76
247.031	29.7
247.248	41.98
247.464	-23.55
247.681	56.32
247.898	-21.5
248.115	48.13
248.332	-37.89
248.549	44.03
248.766	74.75
248.983	11.26
249.2	46.08
249.417	-17.41
249.633	-9.22
249.85	-33.79
250.067	33.79
250.284	44.03
250.501	41.98
250.717	15.36
250.934	33.79
251.151	87.04
251.368	11.26
251.585	58.37
251.801	52.22
252.018	39.94
252.235	54.27
252.451	-37.89
252.668	-74.75
252.885	113.66
253.102	-21.5
253.318	-46.08
253.535	35.84
253.752	11.26
253.968	95.23
254.185	-17.41
254.401	50.18
254.618	39.94
254.835	11.26
255.051	41.98
255.268	-39.94
255.484	21.5
255.701	-5.12
255.917	60.42
256.134	25.6
256.351	123.9
256.567	54.27
256.784	44.03
257	-35.84
257.217	64.51
257.433	82.94
257.65	21.5
257.866	33.79
258.082	35.84
258.299	1.02
258.515	15.36
258.732	29.7
258.948	27.65
259.165	44.03
259.381	-37.89
259.597	19.46
259.814	25.6
260.03	46.08
260.246	44.03
260.463	48.13
260.679	3.07
260.895	15.36
261.112	89.09
261.328	66.56
261.544	-17.41
261.761	-13.31
261.977	56.32
262.193	-123.9
262.409	82.94
262.626	97.28
262.842	74.75
263.058	39.94
263.274	-7.17
263.49	5.12
263.707	56.32
263.923	33.79
264.139	64.51
264.355	74.75
264.571	52.22
264.787	29.7
265.004	-9.22
265.22	99.33
265.436	13.31
265.652	111.61
265.868	-5.12
266.084	48.13
266.3	15.36
266.516	66.56
266.732	3.07
266.948	76.8
267.164	-1.02
267.38	48.13
267.596	115.71
267.812	115.71
268.028	13.31
268.244	50.18
268.46	39.94
268.676	44.03
268.892	101.37
269.108	-17.41
269.324	9.22
269.54	17.41
269.756	76.8
269.972	52.22
270.188	56.32
270.403	7.17
270.619	78.85
270.835	62.46
271.051	62.46
271.267	54.27
271.483	64.51
271.698	68.61
271.914	19.46
272.13	64.51
272.346	91.13
272.562	-3.07
272.777	84.99
272.993	-11.26
273.209	54.27
273.425	52.22
273.64	-15.36
273.856	17.41
274.072	60.42
274.287	-29.7
274.503	97.28
274.719	60.42
274.934	41.98
275.15	48.13
275.366	-15.36
275.581	39.94
275.797	41.98
276.012	72.7
276.228	9.22
276.444	48.13
276.659	13.31
276.875	-7.17
277.09	21.5
277.306	-9.22
277.521	41.98
277.737	31.74
277.952	29.7
278.168	50.18
278.383	58.37
278.599	13.31
278.814	31.74
279.03	62.46
279.245	54.27
279.461	54.27
279.676	23.55
279.892	17.41
280.107	58.37
280.322	39.94
280.538	31.74
280.753	15.36
280.969	39.94
281.184	17.41
281.399	48.13
281.615	52.22
281.83	41.98
282.045	25.6
282.26	9.22
282.476	80.89
282.691	68.61
282.906	29.7
283.122	-50.18
283.337	1.02
283.552	-1.02
283.767	33.79
283.983	35.84
284.198	19.46
284.413	58.37
284.628	15.36
284.843	17.41
285.058	-1.02
285.274	48.13
285.489	31.74
285.704	27.65
285.919	23.55
286.134	62.46
286.349	27.65
286.564	68.61
286.779	5.12
286.995	91.13
287.21	39.94
287.425	91.13
287.64	-21.5
287.855	-7.17
288.07	46.08
288.285	80.89
288.5	19.46
288.715	35.84
288.93	7.17
289.145	54.27
289.36	62.46
289.575	41.98
289.79	62.46
290.004	17.41
290.219	15.36
290.434	23.55
290.649	66.56
290.864	27.65
291.079	-1.02
291.294	111.61
291.509	-23.55
291.724	25.6
291.938	25.6
292.153	25.6
292.368	52.22
292.583	60.42
292.798	50.18
293.012	33.79
293.227	64.51
293.442	66.56
293.657	50.18
293.871	82.94
294.086	44.03
294.301	101.37
294.516	3.07
294.73	48.13
294.945	48.13
295.16	62.46
295.374	70.65
295.589	-7.17
295.804	-37.89
296.018	17.41
296.233	80.89
296.447	70.65
296.662	21.5
296.877	33.79
297.091	58.37
297.306	50.18
297.52	54.27
297.735	35.84
297.949	41.98
298.164	117.76
298.378	-3.07
298.593	-37.89
298.807	56.32
299.022	99.33
299.236	54.27
299.451	56.32
299.665	23.55
299.88	82.94
300.094	80.89
300.309	23.55
300.523	74.75
300.737	7.17
300.952	-5.12
301.166	27.65
301.381	41.98
301.595	27.65
301.809	84.99
302.024	39.94
302.238	-56.32
302.452	56.32
302.667	58.37
302.881	119.81
303.095	-25.6
303.309	25.6
303.524	-19.46
303.738	-7.17
303.952	1.02
304.166	5.12
304.381	13.31
304.595	76.8
304.809	35.84
305.023	78.85
305.237	11.26
305.452	87.04
305.666	13.31
305.88	48.13
306.094	46.08
306.308	58.37
306.522	33.79
306.736	156.67
306.95	15.36
307.164	56.32
307.379	72.7
307.593	68.61
307.807	64.51
308.021	60.42
308.235	105.47
308.449	62.46
308.663	-23.55
308.877	60.42
309.091	35.84
309.305	103.42
309.519	80.89
309.733	93.18
309.947	19.46
310.161	1.02
310.374	103.42
310.588	19.46
310.802	31.74
311.016	-9.22
311.23	52.22
311.444	-46.08
311.658	-3.07
311.872	64.51
312.085	56.32
312.299	58.37
312.513	11.26
312.727	27.65
312.941	9.22
313.154	19.46
313.368	9.22
313.582	-9.22
313.796	15.36
314.009	80.89
314.223	25.6
314.437	11.26
314.651	7.17
314.864	-39.94
315.078	87.04
315.292	15.36
315.505	7.17
315.719	-19.46
315.933	5.12
316.146	9.22
316.36	11.26
316.573	74.75
316.787	91.13
317.001	78.85
317.214	7.17
317.428	9.22
317.641	33.79
317.855	23.55
318.068	3.07
318.282	82.94
318.495	48.13
318.709	52.22
318.922	17.41
319.136	35.84
319.349	56.32
319.563	-5.12
319.776	15.36
319.99	19.46
320.203	97.28
320.417	68.61
320.63	46.08
320.843	56.32
321.057	46.08
321.27	91.13
321.483	66.56
321.697	74.75
321.91	37.89
322.124	91.13
322.337	31.74
322.55	27.65
322.763	37.89
322.977	76.8
323.19	39.94
323.403	46.08
323.617	162.81
323.83	72.7
324.043	84.99
324.256	44.03
324.469	-23.55
324.683	60.42
324.896	-9.22
325.109	117.76
325.322	-17.41
325.535	70.65
325.748	82.94
325.962	39.94
326.175	80.89
326.388	27.65
326.601	25.6
326.814	56.32
327.027	33.79
327.24	84.99
327.453	-31.74
327.666	-29.7
327.879	9.22
328.092	80.89
328.305	128
328.518	66.56
328.731	95.23
328.944	58.37
329.157	41.98
329.37	17.41
329.583	50.18
329.796	52.22
330.009	39.94
330.222	70.65
330.435	84.99
330.648	-5.12
330.861	13.31
331.073	3.07
331.286	58.37
331.499	9.22
331.712	37.89
331.925	25.6
332.138	52.22
332.35	50.18
332.563	-50.18
332.776	33.79
332.989	46.08
333.202	58.37
333.414	-5.12
333.627	91.13
333.84	29.7
334.053	17.41
334.265	31.74
334.478	66.56
334.691	-3.07
334.903	52.22
335.116	41.98
335.329	68.61
335.541	25.6
335.754	41.98
335.966	15.36
336.179	87.04
336.392	27.65
336.604	29.7
336.817	33.79
337.029	21.5
337.242	27.65
337.454	39.94
337.667	60.42
337.88	193.53
338.092	31.74
338.305	-31.74
338.517	27.65
338.729	35.84
338.942	56.32
339.154	9.22
339.367	31.74
339.579	78.85
339.792	27.65
340.004	82.94
340.217	41.98
340.429	-21.5
340.641	35.84
340.854	48.13
341.066	25.6
341.278	56.32
341.491	31.74
341.703	99.33
341.915	80.89
342.128	52.22
342.34	35.84
342.552	76.8
342.764	-9.22
342.977	74.75
343.189	84.99
343.401	97.28
343.613	54.27
343.826	31.74
344.038	70.65
344.25	41.98
344.462	62.46
344.674	48.13
344.886	97.28
345.099	17.41
345.311	19.46
345.523	54.27
345.735	52.22
345.947	27.65
346.159	5.12
346.371	11.26
346.583	-11.26
346.795	60.42
347.007	13.31
347.219	23.55
347.431	101.37
347.643	72.7
347.855	84.99
348.067	101.37
348.279	13.31
348.491	15.36
348.703	99.33
348.915	35.84
349.127	17.41
349.339	54.27
349.551	35.84
349.763	37.89
349.975	3.07
350.187	54.27
350.399	15.36
350.61	27.65
350.822	-29.7
351.034	-21.5
351.246	7.17
351.458	82.94
351.669	29.7
351.881	56.32
352.093	-9.22
352.305	25.6
352.517	91.13
352.728	-37.89
352.94	48.13
353.152	44.03
353.363	82.94
353.575	23.55
353.787	70.65
353.999	31.74
354.21	11.26
354.422	31.74
354.633	-15.36
354.845	-1.02
355.057	41.98
355.268	31.74
355.48	-7.17
355.692	-13.31
355.903	23.55
356.115	27.65
356.326	13.31
356.538	70.65
356.749	52.22
356.961	41.98
357.172	-9.22
357.384	56.32
357.595	29.7
357.807	41.98
358.018	19.46
358.23	107.52
358.441	62.46
358.653	-7.17
358.864	52.22
359.075	1.02
359.287	78.85
359.498	52.22
359.709	60.42
359.921	44.03
360.132	19.46
360.344	46.08
360.555	3.07
360.766	105.47
360.977	52.22
361.189	35.84
361.4	39.94
361.611	91.13
361.823	3.07
362.034	48.13
362.245	56.32
362.456	25.6
362.667	84.99
362.879	91.13
363.09	62.46
363.301	78.85
363.512	48.13
363.723	91.13
363.935	39.94
364.146	107.52
364.357	56.32
364.568	64.51
364.779	37.89
364.99	35.84
365.201	9.22
365.412	87.04
365.623	46.08
365.834	37.89
366.045	46.08
366.256	93.18
366.467	48.13
366.678	87.04
366.889	41.98
367.1	37.89
367.311	44.03
367.522	74.75
367.733	66.56
367.944	117.76
368.155	52.22
368.366	23.55
368.577	60.42
368.788	105.47
368.999	-27.65
369.209	-11.26
369.42	48.13
369.631	58.37
369.842	74.75
370.053	23.55
370.264	9.22
370.474	64.51
370.685	37.89
370.896	15.36
371.107	70.65
371.317	82.94
371.528	44.03
371.739	19.46
371.95	84.99
372.16	109.57
372.371	39.94
372.582	58.37
372.792	70.65
373.003	41.98
373.214	-52.22
373.424	56.32
373.635	52.22
373.846	115.71
374.056	31.74
374.267	76.8
374.477	44.03
374.688	29.7
374.898	39.94
375.109	37.89
375.319	50.18
375.53	33.79
375.74	-1.02
375.951	66.56
376.161	54.27
376.372	72.7
376.582	66.56
376.793	60.42
377.003	80.89
377.214	39.94
377.424	68.61
377.635	82.94
377.845	35.84
378.055	50.18
378.266	15.36
378.476	25.6
378.686	-3.07
378.897	111.61
379.107	23.55
379.317	72.7
379.528	11.26
379.738	41.98
379.948	5.12
380.158	35.84
380.369	80.89
380.579	35.84
380.789	-35.84
380.999	13.31
381.21	62.46
381.42	66.56
381.63	80.89
381.84	1.02
382.05	39.94
382.261	58.37
382.471	25.6
382.681	107.52
382.891	74.75
383.101	23.55
383.311	19.46
383.521	87.04
383.731	-5.12
383.941	78.85
384.151	33.79
384.361	15.36
384.571	66.56
384.781	113.66
384.991	91.13
385.201	64.51
385.411	80.89
385.621	74.75
385.831	17.41
386.041	136.19
386.251	52.22
386.461	48.13
386.671	13.31
386.881	37.89
387.091	31.74
387.301	76.8
387.511	21.5
387.72	68.61
387.93	109.57
388.14	31.74
388.35	41.98
388.56	91.13
388.769	-13.31
388.979	136.19
389.189	37.89
389.399	70.65
389.609	29.7
389.818	41.98
390.028	58.37
390.238	29.7
390.447	148.48
390.657	107.52
390.867	91.13
391.076	7.17
391.286	74.75
391.496	121.85
391.705	27.65
391.915	119.81
392.125	58.37
392.334	21.5
392.544	-1.02
392.753	60.42
392.963	7.17
393.172	19.46
393.382	-25.6
393.591	160.77
393.801	64.51
394.01	105.47
394.22	21.5
394.429	37.89
394.639	25.6
394.848	121.85
395.058	56.32
395.267	89.09
395.477	3.07
395.686	150.53
395.895	68.61
396.105	56.32
396.314	97.28
396.524	70.65
396.733	111.61
396.942	99.33
397.152	72.7
397.361	80.89
397.57	76.8
397.78	64.51
397.989	91.13
398.198	-13.31
398.407	103.42
398.617	74.75
398.826	74.75
399.035	70.65
399.244	140.29
399.453	121.85
399.663	44.03
399.872	50.18
400.081	87.04
400.29	138.24
400.499	56.32
400.708	154.62
400.917	44.03
401.127	107.52
401.336	50.18
401.545	138.24
401.754	72.7
401.963	162.81
402.172	66.56
402.381	58.37
402.59	140.29
402.799	99.33
403.008	121.85
403.217	78.85
403.426	101.37
403.635	50.18
403.844	78.85
404.053	68.61
404.262	89.09
404.471	68.61
404.68	99.33
404.888	164.86
405.097	101.37
405.306	123.9
405.515	101.37
405.724	134.14
405.933	121.85
406.142	148.48
406.35	205.82
406.559	125.95
406.768	197.63
406.977	193.53
407.185	218.11
407.394	64.51
407.603	132.09
407.812	158.72
408.02	193.53
408.229	171.01
408.438	173.05
408.646	66.56
408.855	158.72
409.064	224.25
409.272	160.77
409.481	275.45
409.69	308.22
409.898	222.2
410.107	211.96
410.315	211.96
410.524	187.39
410.733	189.44
410.941	238.59
411.15	238.59
411.358	252.92
411.567	318.46
411.775	324.6
411.984	236.54
412.192	246.78
412.401	236.54
412.609	297.98
412.818	275.45
413.026	297.98
413.234	269.31
413.443	252.92
413.651	297.98
413.86	306.17
414.068	457.72
414.276	465.91
414.485	451.58
414.693	429.05
414.901	424.95
415.11	502.78
415.318	533.5
415.526	515.06
415.734	517.11
415.943	472.06
416.151	603.13
416.359	500.73
416.567	570.36
416.776	672.76
416.984	560.12
417.192	672.76
417.4	590.84
417.608	588.79
417.817	672.76
418.025	730.1
418.233	771.06
418.441	781.3
418.649	766.96
418.857	816.12
419.065	859.12
419.273	830.45
419.481	893.94
419.689	959.47
419.897	965.62
420.105	945.14
420.313	988.14
420.521	975.86
420.729	1000.43
420.937	1092.59
421.145	1061.87
421.353	1207.28
421.561	1219.57
421.769	1242.09
421.977	1354.73
422.185	1287.15
422.393	1276.91
422.601	1412.07
422.809	1385.45
423.017	1461.23
423.224	1502.19
423.432	1647.59
423.64	1598.44
423.848	1725.41
424.056	1618.92
424.263	1786.85
424.471	1813.48
424.679	1766.37
424.887	1926.11
425.094	1940.45
425.302	1899.49
425.51	2077.66
425.718	2173.92
425.925	2110.43
426.133	2163.68
426.341	2270.17
426.548	2421.72
426.756	2487.26
426.964	2472.92
427.171	2651.1
427.379	2737.11
427.586	2819.03
427.794	2866.13
428.001	2948.05
428.209	3048.4
428.417	3015.63
428.624	3267.53
428.832	3296.21
429.039	3208.14
429.247	3185.62
429.454	3632.07
429.662	3863.49
429.869	3578.83
430.076	3759.05
430.284	3849.16
430.491	3974.08
430.699	4146.11
430.906	3974.08
431.114	4133.82
431.321	4223.94
431.528	4471.74
431.736	4527.03
431.943	4803.51
432.15	4703.16
432.358	4787.13
432.565	5137.33
432.772	5030.84
432.979	5323.69
433.187	5424.05
433.394	5460.91
433.601	5833.64
433.808	5839.78
434.016	5858.21
434.223	6038.44
434.43	6329.25
434.637	6286.24
434.844	6736.79
435.052	6839.19
435.259	6847.38
435.466	6824.86
435.673	6740.89
435.88	7168.91
436.087	7512.97
436.294	7652.24
436.501	7355.28
436.708	7746.44
436.915	7871.37
437.122	8203.14
437.329	8024.97
437.537	8366.98
437.743	8670.08
437.95	8522.62
438.157	8973.18
438.364	9253.75
438.571	9374.58
438.778	9407.34
438.985	10122.09
439.192	9665.39
439.399	10013.54
439.606	9726.83
439.813	10494.82
440.02	11131.73
440.227	10720.09
440.433	10799.96
440.64	11170.65
440.847	10808.16
441.054	11481.94
441.261	12004.17
441.467	11965.26
441.674	12233.54
441.881	12657.47
442.088	12690.24
442.294	12581.7
442.501	12753.73
442.708	13026.11
442.914	13431.6
443.121	14308.13
443.328	13357.88
443.534	14476.07
443.741	14342.95
443.948	14060.33
444.154	15145.75
444.361	15026.97
444.568	15094.55
444.774	15289.11
444.981	15579.92
445.187	15645.46
445.394	16352.01
445.6	16216.84
445.807	17988.33
446.013	17042.17
446.22	17232.63
446.426	17887.98
446.633	18164.46
446.839	18952.93
447.046	17986.29
447.252	19127
447.459	19049.18
447.665	19153.63
447.871	19907.28
448.078	20617.93
448.284	19667.67
448.491	20210.38
448.697	21103.29
448.903	21289.66
449.11	21478.07
449.316	21357.24
449.522	21691.06
449.728	22047.41
449.935	22647.46
450.141	22555.3
450.347	22833.83
450.553	22254.25
450.76	22420.14
450.966	23208.61
451.172	22952.61
451.378	23460.51
451.584	23079.58
451.791	23552.66
451.997	23722.65
452.203	24150.67
452.409	24201.87
452.615	23857.81
452.821	23235.23
453.027	22631.08
453.233	24015.51
453.44	22930.08
453.646	23382.68
453.852	23497.37
454.058	23786.13
454.264	23165.6
454.47	23779.99
454.676	23138.97
454.882	23939.73
455.088	21908.15
455.294	22076.08
455.5	22397.61
455.705	22880.93
455.911	21754.55
456.117	21285.56
456.323	21066.43
456.529	19841.75
456.735	20798.15
456.941	20284.11
457.147	20169.42
457.352	19426.01
457.558	19233.5
457.764	19450.58
457.97	18864.86
458.176	18526.95
458.381	18741.99
458.587	17562.36
458.793	17525.49
458.999	16759.55
459.204	17900.27
459.41	17478.39
459.616	16380.68
459.821	16120.59
460.027	16411.4
460.233	15772.43
460.438	15108.89
460.644	15252.25
460.85	14338.85
461.055	14314.28
461.261	14385.96
461.466	13318.96
461.672	12997.43
461.878	13910.83
462.083	12960.57
462.289	12774.21
462.494	12802.88
462.7	11877.19
462.905	11813.71
463.111	12313.41
463.316	12178.25
463.522	11987.79
463.727	12096.33
463.932	11914.06
464.138	11862.86
464.343	11856.72
464.549	11522.9
464.754	11914.06
464.959	11739.98
465.165	11830.09
465.37	11424.59
465.575	11199.32
465.781	11430.74
465.986	11635.53
466.191	11299.67
466.397	10945.37
466.602	10515.3
466.807	10701.66
467.012	10879.83
467.218	10695.52
467.423	10619.74
467.628	10718.04
467.833	11133.78
468.038	10842.97
468.244	10408.8
468.449	10879.83
468.654	10556.25
468.859	10453.86
469.064	10419.04
469.269	10058.6
469.474	9984.87
469.679	10343.27
469.885	10226.53
470.09	9847.66
470.295	10206.05
470.5	9726.83
470.705	9837.42
470.91	9737.07
471.115	9468.78
471.32	9905
471.525	9587.57
471.73	9368.43
471.935	9489.26
472.139	9032.57
472.344	9116.53
472.549	8956.79
472.754	8977.27
472.959	8745.85
473.164	8475.52
473.369	8485.76
473.574	8649.6
473.778	8727.42
473.983	8553.34
474.188	8514.43
474.393	8244.1
474.598	8182.66
474.802	8027.01
475.007	8272.77
475.212	8108.93
475.417	7725.96
475.621	7914.38
475.826	7760.78
476.031	7631.76
476.235	7420.81
476.44	7644.04
476.645	7472.01
476.849	7564.17
477.054	7261.07
477.259	7283.6
477.463	7201.68
477.668	7005.08
477.872	7035.8
478.077	7099.28
478.282	6761.37
478.486	6812.57
478.691	6808.47
478.895	6828.95
479.1	6714.27
479.304	6781.85
479.509	6538.14
479.713	6538.14
479.918	6476.7
480.122	6284.19
480.326	6572.96
480.531	6421.41
480.735	6376.35
480.94	6249.38
481.144	6540.19
481.348	6210.47
481.553	6398.88
481.757	6261.66
481.961	6296.48
482.166	6433.69
482.37	6271.9
482.574	6128.55
482.778	6267.81
482.983	6445.98
483.187	6292.38
483.391	6222.75
483.595	6155.17
483.8	6110.11
484.004	6144.93
484.208	6237.09
484.412	6222.75
484.616	6169.51
484.821	6319.01
485.025	6130.59
485.229	6284.19
485.433	6239.14
485.637	6251.42
485.841	6298.53
486.045	6171.55
486.249	6232.99
486.453	6316.96
486.657	6407.07
486.861	6300.58
487.065	6226.85
487.269	6327.2
487.473	6079.4
487.677	6269.86
487.881	6394.78
488.085	6413.21
488.289	6364.06
488.493	6327.2
488.697	6382.49
488.901	6411.17
489.105	6353.82
489.309	6658.97
489.512	6462.37
489.716	6456.22
489.92	6390.69
490.124	6462.37
490.328	6677.4
490.531	6464.41
490.735	6914.97
490.939	6640.54
491.143	6871.96
491.346	6466.46
491.55	6921.11
491.754	6810.52
491.958	6839.19
492.161	6781.85
492.365	6857.62
492.569	7000.98
492.772	6884.25
492.976	7007.13
493.18	7076.76
493.383	7119.76
493.587	7170.96
493.79	7291.79
493.994	7175.06
494.197	7398.29
494.401	7555.98
494.605	7275.41
494.808	7656.33
495.012	7592.84
495.215	7740.3
495.419	7750.54
495.622	7601.04
495.825	7846.79
496.029	7979.91
496.232	8201.09
496.436	8041.35
496.639	8237.95
496.843	8141.7
497.046	8473.47
497.249	8409.98
497.453	8452.99
497.656	8661.88
497.859	8668.03
498.063	8801.15
498.266	8815.48
498.469	8977.27
498.673	8973.18
498.876	9063.29
499.079	9542.51
499.282	9259.89
499.485	9632.62
499.689	9741.16
499.892	9929.58
500.095	9827.18
500.298	10193.76
500.501	10156.9
500.705	10462.05
500.908	10597.21
501.111	10503.01
501.314	10693.47
501.517	10845.02
501.72	11144.02
501.923	10892.12
502.126	11203.41
502.329	11391.83
502.532	11539.28
502.735	11524.94
502.938	11858.76
503.141	12024.65
503.344	12301.12
503.547	12176.2
503.75	12487.49
503.953	12700.48
504.156	12657.47
504.359	12626.75
504.562	12915.51
504.765	13402.93
504.968	13398.84
505.17	13628.21
505.373	13507.38
505.576	14058.28
505.779	14179.11
505.982	14072.62
506.185	14615.33
506.387	14646.05
506.59	14797.6
506.793	15125.27
506.996	15024.92
507.198	15485.72
507.401	15588.11
507.604	15868.69
507.807	15921.93
508.009	16098.06
508.212	16192.26
508.415	16366.34
508.617	16790.27
508.82	16872.19
509.022	16915.2
509.225	17009.4
509.428	17621.75
509.63	17482.49
509.833	17711.86
510.035	18381.54
510.238	18336.49
510.44	18516.71
510.643	18809.57
510.845	19022.56
511.048	18840.29
511.25	19016.41
511.453	19323.61
511.655	20220.62
511.858	19962.58
512.06	20214.48
512.262	20308.68
512.465	20507.34
512.667	20890.31
512.87	21058.24
513.072	21344.95
513.274	21623.48
513.477	21875.38
513.679	22104.75
513.881	22031.02
514.084	22620.84
514.286	22620.84
514.488	22545.06
514.69	23433.88
514.893	23536.28
515.095	23343.77
515.297	23593.62
515.499	24066.7
515.701	24210.06
515.904	24515.21
516.106	24846.98
516.308	25039.49
516.51	25469.56
516.712	25363.07
516.914	26104.43
517.116	25852.53
517.318	26280.56
517.52	26305.13
517.722	26563.18
517.925	26645.1
518.127	26919.53
518.329	27132.51
518.531	27351.65
518.733	28144.21
518.935	28203.6
519.136	27916.89
519.338	28498.51
519.54	29106.76
519.742	28975.69
519.944	29102.66
520.146	29796.92
520.348	29801.02
520.55	29633.08
520.752	30177.84
520.954	30784.04
521.155	30820.91
521.357	31234.6
521.559	31146.53
521.761	31595.04
521.963	31646.24
522.164	31840.79
522.366	31898.14
522.568	32094.74
522.77	32324.11
522.971	32877.07
523.173	32645.65
523.375	32993.8
523.576	33335.81
523.778	33317.38
523.98	33651.2
524.181	34017.78
524.383	33980.92
524.584	34333.17
524.786	34552.3
524.988	34298.36
525.189	34630.13
525.391	35152.36
525.592	34992.62
525.794	35031.53
525.995	35457.51
526.197	35207.65
526.398	35373.54
526.6	36000.22
526.801	35951.07
527.003	36170.2
527.204	36198.87
527.406	36874.7
527.607	36551.12
527.808	36897.23
528.01	36418
528.211	36932.04
528.412	37370.31
528.614	37349.83
528.815	37038.54
529.016	37609.92
529.218	37251.53
529.419	37188.04
529.62	37652.93
529.822	37407.17
530.023	37663.17
530.224	37804.48
530.425	37814.72
530.626	37591.49
530.828	37704.13
531.029	38570.42
531.23	37654.98
531.431	37984.7
531.632	38384.05
531.833	38568.37
532.035	38238.65
532.236	38580.66
532.437	38717.87
532.638	38361.53
532.839	38832.56
533.04	38820.27
533.241	38308.28
533.442	39127.47
533.643	38775.22
533.844	39424.42
534.045	39039.4
534.246	38861.23
534.447	39481.77
534.648	39027.12
534.849	39057.84
535.05	39172.52
535.251	39322.02
535.451	39127.47
535.652	39489.96
535.853	39248.3
536.054	39436.71
536.255	39272.87
536.456	39295.4
536.657	40133.02
536.857	39346.6
537.058	39446.95
537.259	39922.08
537.46	39958.94
537.66	39328.17
537.861	39649.7
538.062	39704.99
538.263	40145.31
538.463	39737.76
538.664	39578.02
538.865	39803.3
539.065	40059.29
539.266	39721.38
539.466	40028.57
539.667	39823.78
539.868	40176.03
540.068	40004
540.269	40030.62
540.469	40221.08
540.67	39741.86
540.87	39661.99
541.071	39717.28
541.271	40300.95
541.472	39879.07
541.672	39737.76
541.873	39819.68
542.073	39575.97
542.274	40409.5
542.474	40092.06
542.675	39786.91
542.875	40321.43
543.075	40165.79
543.276	39809.44
543.476	40513.94
543.676	40335.77
543.877	40354.2
544.077	40454.55
544.277	39977.37
544.478	40034.72
544.678	40202.65
544.878	40126.88
545.078	40395.16
545.279	40090.01
545.479	40071.58
545.679	39702.95
545.879	40497.56
546.079	40192.41
546.28	40085.92
546.48	40137.12
546.68	40233.37
546.88	40511.89
547.08	40266.14
547.28	40542.61
547.48	39893.41
547.68	40298.91
547.88	39834.02
548.081	40655.25
548.281	40012.19
548.481	39934.37
548.681	40495.51
548.881	40327.58
549.081	40319.38
549.28	39731.62
549.48	40212.89
549.68	39926.17
549.88	40982.93
550.08	40128.92
550.28	40346.01
550.48	39879.07
550.68	40569.24
550.88	40282.52
551.08	40184.22
551.279	40118.68
551.479	39993.76
551.679	40173.98
551.879	40028.57
552.079	40475.03
552.278	40221.08
552.478	40124.83
552.678	40042.91
552.878	40317.34
553.077	40016.29
553.277	39958.94
553.477	40198.55
553.676	40247.71
553.876	39942.56
554.076	39739.81
554.275	39741.86
554.475	39657.89
554.674	39793.06
554.874	39895.46
555.074	40192.41
555.273	40130.97
555.473	39903.65
555.672	39815.58
555.872	39737.76
556.071	40034.72
556.271	40530.33
556.47	39743.91
556.67	39922.08
556.869	40049.05
557.068	40006.05
557.268	39707.04
557.467	39827.87
557.667	39629.22
557.866	39637.41
558.065	39774.63
558.265	39913.89
558.464	39324.07
558.663	39885.22
558.863	39459.24
559.062	39637.41
559.261	39367.08
559.461	40102.3
559.66	39649.7
559.859	39633.32
560.058	39387.56
560.258	39819.68
560.457	39266.73
560.656	39709.09
560.855	39369.13
561.054	39748
561.253	39420.33
561.453	39344.55
561.652	39539.11
561.851	39393.7
562.05	39467.43
562.249	39168.43
562.448	39606.69
562.647	39481.77
562.846	39561.64
563.045	39545.25
563.244	38824.37
563.443	39678.37
563.642	38760.88
563.841	39346.6
564.04	39360.94
564.239	39313.83
564.438	39098.8
564.637	39360.94
564.836	39225.77
565.035	38881.71
565.234	39010.73
565.432	39471.53
565.631	38969.77
565.83	39039.4
566.029	38984.11
566.228	39016.88
566.427	39039.4
566.625	39102.89
566.824	38349.24
567.023	39188.91
567.222	38132.15
567.42	39389.61
567.619	38717.87
567.818	38711.73
568.016	38349.24
568.215	38795.7
568.414	38627.76
568.612	39147.95
568.811	38672.82
569.01	38902.19
569.208	38279.61
569.407	38574.52
569.605	38347.19
569.804	38678.96
570.002	38046.14
570.201	38597.04
570.4	37882.3
570.598	38117.82
570.797	37921.21
570.995	38138.3
571.193	37523.91
571.392	38293.94
571.59	37872.06
571.789	37874.11
571.987	37687.74
572.186	37601.73
572.384	37462.47
572.582	37657.03
572.781	37777.86
572.979	37190.09
573.177	37618.11
573.376	37757.38
573.574	37521.86
573.772	37523.91
573.971	37427.65
574.169	37278.15
574.367	36899.28
574.565	37441.99
574.763	37353.93
574.962	36927.95
575.16	36602.32
575.358	36991.44
575.556	36626.9
575.754	37544.39
575.952	36491.73
576.151	36829.65
576.349	36119
576.547	36547.03
576.745	36274.65
576.943	36717.01
577.141	36727.25
577.339	36731.34
577.537	36213.21
577.735	36104.67
577.933	35858.91
578.131	36018.65
578.329	35830.24
578.527	35668.45
578.725	36047.32
578.923	35756.51
579.121	35799.52
579.319	35262.95
579.516	36000.22
579.714	35486.18
579.912	35408.36
580.11	35549.67
580.308	35138.02
580.506	35369.44
580.704	34673.13
580.901	35205.61
581.099	35504.61
581.297	35115.5
581.495	34853.36
581.692	34884.08
581.89	34591.22
582.088	35006.95
582.285	34572.78
582.483	34933.23
582.681	34617.84
582.878	34431.47
583.076	33964.54
583.274	34341.36
583.471	33821.18
583.669	34015.74
583.866	34005.5
584.064	34306.55
584.262	33534.46
584.459	33794.56
584.657	33475.07
584.854	34077.18
585.052	33393.15
585.249	33362.43
585.447	33460.74
585.644	33030.66
585.841	33307.14
586.039	33593.86
586.236	32887.31
586.434	32686.61
586.631	32930.31
586.828	32780.81
587.026	33178.12
587.223	32672.27
587.42	32487.95
587.618	32426.51
587.815	32446.99
588.012	32383.51
588.21	32207.38
588.407	32633.36
588.604	32369.17
588.801	31857.18
588.999	32287.25
589.196	32004.63
589.393	31789.59
589.59	31738.4
589.787	31562.27
589.984	31523.36
590.182	31408.67
590.379	31412.77
590.576	31089.19
590.773	31371.81
590.97	31230.5
591.167	31445.54
591.364	30566.96
591.561	31058.47
591.758	30720.56
591.955	30681.64
592.152	31142.44
592.349	30587.44
592.546	30505.52
592.743	30628.4
592.94	30243.38
593.137	30392.88
593.334	30411.31
593.531	29975.09
593.727	30200.37
593.924	30116.4
594.121	29882.94
594.318	30134.84
594.515	29416
594.712	30044.73
594.908	29502.01
595.105	29692.47
595.302	29438.53
595.499	29600.32
595.696	29448.77
595.892	29000.26
596.089	29461.05
596.286	29291.07
596.482	29196.87
596.679	28836.42
596.876	29260.35
597.072	28777.03
597.269	28764.75
597.466	28486.22
597.662	28498.51
597.859	28627.53
598.055	28566.09
598.252	28199.51
598.448	28404.3
598.645	28058.2
598.841	28201.55
599.038	27916.89
599.234	27785.82
599.431	27662.94
599.627	27722.33
599.824	27634.27
600.02	27730.52
600.217	28000.85
600.413	27474.52
600.609	27109.99
600.806	27433.57
601.002	27679.32
601.198	27339.36
601.395	27048.55
601.591	26804.84
601.787	27294.3
601.984	26759.78
602.18	26980.96
602.376	26845.8
602.572	26782.31
602.769	26655.34
602.965	26399.34
603.161	26335.85
603.357	26333.81
603.553	26268.27
603.75	26004.08
603.946	26008.18
604.142	26225.26
604.338	25840.25
604.534	25766.52
604.73	25588.35
604.926	25514.62
605.122	25725.56
605.318	25383.55
605.514	25457.28
605.71	25225.86
605.906	25500.28
606.102	25361.02
606.298	25039.49
606.494	25002.63
606.69	25369.21
606.886	25006.72
607.082	24820.36
607.278	24973.95
607.474	24568.46
607.67	24840.84
607.866	24644.23
608.062	24642.18
608.257	24705.67
608.453	24865.41
608.649	24439.44
608.845	24435.34
609.041	24457.87
609.236	24521.35
609.432	24281.74
609.628	24541.83
609.824	24341.13
610.019	24187.53
610.215	23911.06
610.411	24353.42
610.606	24111.76
610.802	24300.17
610.998	24023.7
611.193	23984.79
611.389	24081.04
611.584	23720.6
611.78	23419.55
611.976	23722.65
612.171	24042.13
612.367	23587.48
612.562	23268
612.758	23397.02
612.953	23186.08
613.149	23638.68
613.344	23304.86
613.539	23515.8
613.735	23378.59
613.93	23155.36
614.126	23294.62
614.321	23478.94
614.517	23210.65
614.712	23018.14
614.907	23126.69
615.103	23130.78
615.298	22659.75
615.493	23161.5
615.688	22729.38
615.884	23063.2
616.079	22706.85
616.274	22555.3
616.47	22602.41
616.665	22577.83
616.86	22684.33
617.055	22534.82
617.25	22346.41
617.445	22459.05
617.641	22389.42
617.836	22405.8
618.031	21818.04
618.226	21916.34
618.421	22067.89
618.616	22170.29
618.811	21756.6
619.006	22119.09
619.201	21461.69
619.396	21625.53
619.591	21283.52
619.786	21615.29
619.981	20964.03
620.176	21254.84
620.371	20970.18
620.566	21277.37
620.761	21084.86
620.956	21160.64
621.151	20550.34
621.346	20824.77
621.541	20568.77
621.735	20693.7
621.93	20335.31
622.125	20517.57
622.32	20138.7
622.515	20294.35
622.709	20067.02
622.904	20064.97
623.099	19983.06
623.294	19792.59
623.488	19557.08
623.683	19575.51
623.878	19507.93
624.072	19647.19
624.267	19493.59
624.462	19321.56
624.656	18959.07
624.851	19135.2
625.046	18975.45
625.24	18860.77
625.435	18701.03
625.629	18760.42
625.824	18600.68
626.018	18275.05
626.213	18238.19
626.407	18088.68
626.602	17822.45
626.796	18242.28
626.991	18088.68
627.185	17816.3
627.38	17492.73
627.574	17605.36
627.768	17416.95
627.963	17578.74
628.157	17185.53
628.352	17365.75
628.546	17163
628.74	17154.81
628.935	16796.42
629.129	17083.13
629.323	17015.55
629.517	16702.21
629.712	16622.34
629.906	16603.91
630.1	16499.46
630.294	16534.28
630.489	16288.52
630.683	16302.86
630.877	15983.37
631.071	15790.86
631.265	16157.45
631.459	15973.13
631.653	15905.55
631.848	15727.38
632.042	15741.71
632.236	15792.91
632.43	15457.04
632.624	15667.98
632.818	15209.24
633.012	15166.23
633.206	15293.21
633.4	15356.69
633.594	14926.62
633.788	15065.88
633.982	15115.03
634.176	15199
634.369	14533.41
634.563	14801.69
634.757	14627.62
634.951	14662.43
635.145	14490.4
635.339	14779.17
635.533	14273.32
635.726	14416.68
635.92	13949.74
636.114	13996.84
636.308	14099.24
636.501	13949.74
636.695	13970.22
636.889	13974.31
637.083	13773.61
637.276	13796.14
637.47	13433.65
637.664	13382.45
637.857	13640.5
638.051	13558.58
638.244	13450.03
638.438	13267.77
638.632	13183.8
638.825	13005.63
639.019	13189.94
639.212	12882.75
639.406	13050.68
639.599	12723.01
639.793	12886.84
639.986	12628.8
640.18	12698.43
640.373	12569.41
640.567	12264.26
640.76	12352.32
640.954	12747.58
641.147	12567.36
641.34	12190.53
641.534	12450.63
641.727	12063.56
641.92	11973.45
642.114	12120.9
642.307	11973.45
642.5	11836.24
642.694	11789.13
642.887	11864.91
643.08	11676.49
643.273	11465.55
643.467	11619.15
643.66	11322.2
643.853	11475.79
644.046	11283.28
644.239	11019.1
644.432	11350.87
644.626	11139.93
644.819	11027.29
645.012	11174.74
645.205	10845.02
645.398	11203.41
645.591	10701.66
645.784	10754.91
645.977	10470.24
646.17	10634.08
646.363	10855.26
646.556	10400.61
646.749	10380.13
646.942	10672.99
647.135	10132.33
647.328	10328.93
647.521	10138.47
647.714	10193.76
647.907	10036.07
648.099	10066.79
648.292	9976.68
648.485	10070.89
648.678	9829.23
648.871	9964.39
649.064	9601.9
649.256	9743.21
649.449	9624.43
649.642	9415.54
649.835	9659.24
650.027	9409.39
650.22	9276.27
650.413	9278.32
650.605	9390.96
650.798	9444.21
650.991	9188.21
651.183	9331.57
651.376	9132.92
651.568	9122.68
651.761	9067.38
651.954	8872.82
652.146	9007.99
652.339	8944.5
652.531	8721.27
652.724	8917.88
652.916	8592.25
653.109	8663.93
653.301	8475.52
653.494	8555.39
653.686	8346.5
653.879	8430.46
654.071	8291.2
654.263	8121.22
654.456	8369.02
654.648	8192.9
654.84	8188.8
655.033	7953.29
655.225	8145.8
655.417	7912.33
655.61	7947.14
655.802	8076.16
655.994	7883.66
656.186	7859.08
656.379	7490.45
656.571	7797.64
656.763	7721.87
656.955	7590.8
657.148	7578.51
657.34	7461.77
657.532	7349.14
657.724	7414.67
657.916	7451.53
658.108	7486.35
658.3	7349.14
658.492	7261.07
658.684	7191.44
658.876	7228.31
659.068	7117.72
659.26	6874.01
659.452	7084.95
659.644	7103.38
659.836	6855.58
660.028	6902.68
660.22	6742.94
660.412	6937.49
660.604	6667.16
660.796	6583.2
660.988	6515.61
661.18	6693.79
661.372	6532
661.563	6431.65
661.755	6265.76
661.947	6482.85
662.139	6243.23
662.331	6333.34
662.522	6251.42
662.714	6179.75
662.906	6103.97
663.097	6140.83
663.289	6089.64
663.481	5987.24
663.673	6083.49
663.864	5888.93
664.056	6001.57
664.247	5790.63
664.439	5874.6
664.631	5802.92
664.822	5792.68
665.014	5882.79
665.205	5706.66
665.397	5561.26
665.588	5657.51
665.78	5456.81
665.971	5446.57
666.163	5467.05
666.354	5534.64
666.546	5434.29
666.737	5503.92
666.929	5364.65
667.12	5340.08
667.311	5190.58
667.503	5346.22
667.694	5376.94
667.885	5049.27
668.077	5045.17
668.268	5024.69
668.459	5108.66
668.651	4924.34
668.842	5057.46
669.033	4946.87
669.224	4832.18
669.416	4834.23
669.607	4903.86
669.798	4752.31
669.989	4805.56
670.18	4723.64
670.371	4842.42
670.563	4793.27
670.754	4676.54
670.945	4602.81
671.136	4600.76
671.327	4611
671.518	4455.36
671.709	4635.58
671.9	4604.86
672.091	4475.84
672.282	4557.75
672.473	4494.27
672.664	4570.04
672.855	4328.38
673.046	4508.6
673.237	4398.01
673.428	4436.92
673.619	4248.51
673.809	4295.61
674	4164.54
674.191	4414.4
674.382	4115.39
674.573	4088.77
674.764	4084.67
674.954	4152.26
675.145	4062.15
675.336	4205.5
675.527	3972.04
675.717	4094.91
675.908	4099.01
676.099	3986.37
676.289	4041.67
676.48	3996.61
676.671	3922.88
676.861	3978.18
677.052	3982.28
677.243	3806.15
677.433	3883.97
677.624	3922.88
677.814	3877.83
678.005	4002.75
678.195	3707.85
678.386	3720.14
678.576	3732.42
678.767	3673.03
678.957	3699.66
679.148	3746.76
679.338	3845.06
679.529	3767.24
679.719	3613.64
679.909	3701.7
680.1	3539.91
680.29	3597.26
680.481	3529.67
680.671	3574.73
680.861	3521.48
681.052	3523.53
681.242	3546.06
681.432	3550.15
681.622	3462.09
681.813	3519.43
682.003	3429.32
682.193	3431.37
682.383	3531.72
682.573	3544.01
682.764	3404.75
682.954	3464.14
683.144	3337.17
683.334	3445.71
683.524	3337.17
683.714	3359.69
683.904	3300.3
684.094	3484.62
684.284	3328.97
684.474	3374.03
684.664	3453.9
684.854	3357.64
685.044	3496.91
685.234	3191.76
685.424	3285.97
685.614	3269.58
685.804	3314.64
685.994	3324.88
686.184	3300.3
686.374	3269.58
686.564	3236.81
686.753	3288.01
686.943	3218.38
687.133	3267.53
687.323	3292.11
687.513	3216.33
687.702	3191.76
687.892	3212.24
688.082	3242.96
688.272	3271.63
688.461	3144.66
688.651	3240.91
688.841	3144.66
689.03	3154.9
689.22	3179.47
689.41	3130.32
689.599	3255.25
689.789	3189.71
689.979	3156.94
690.168	3199.95
690.358	3085.26
690.547	3105.74
690.737	3058.64
690.926	3097.55
691.116	3148.75
691.305	3163.09
691.495	3081.17
691.684	3181.52
691.874	3058.64
692.063	3111.89
692.252	3075.03
692.442	3027.92
692.631	3130.32
692.82	3081.17
693.01	3091.41
693.199	3038.16
693.388	2939.86
693.578	3085.26
693.767	3009.49
693.956	3015.63
694.146	2948.05
694.335	3044.31
694.524	2989.01
694.713	2958.29
694.902	3005.39
695.092	2982.87
695.281	3054.55
695.47	2862.04
695.659	2972.63
695.848	2862.04
696.037	2796.5
696.226	2941.91
696.415	2931.67
696.604	2847.7
696.793	2843.6
696.982	2712.53
697.171	2939.86
697.36	2974.67
697.549	2696.15
697.738	2806.74
697.927	2743.25
698.116	2794.45
698.305	2733.01
698.494	2812.89
698.683	2804.69
698.872	2755.54
699.061	2782.17
699.25	2698.2
699.438	2698.2
699.627	2675.67
699.816	2591.7
700.005	2618.33
700.193	2685.91
700.382	2622.42
700.571	2575.32
700.76	2647
700.948	2610.14
701.137	2657.24
701.326	2573.27
701.514	2477.02
701.703	2464.73
701.892	2644.95
702.08	2460.63
702.269	2470.87
702.457	2534.36
702.646	2474.97
702.834	2378.72
703.023	2419.68
703.212	2483.16
703.4	2507.74
703.589	2421.72
703.777	2372.57
703.965	2458.59
704.154	2257.89
704.342	2333.66
704.531	2313.18
704.719	2278.37
704.907	2364.38
705.096	2296.8
705.284	2302.94
705.472	2413.53
705.661	2259.93
705.849	2313.18
706.037	2251.74
706.226	2237.41
706.414	2169.82
706.602	2284.51
706.79	2208.73
706.979	2376.67
707.167	2112.48
707.355	2141.15
707.543	2208.73
707.731	2235.36
707.919	1973.22
708.107	2094.05
708.296	2061.28
708.484	2053.09
708.672	2120.67
708.86	2114.53
709.048	2089.95
709.236	2098.14
709.424	2094.05
709.612	2046.94
709.8	1989.6
709.988	1950.69
710.176	1962.98
710.364	1903.59
710.551	1979.36
710.739	2012.13
710.927	2081.76
711.115	2001.89
711.303	1919.97
711.491	1924.07
711.679	1862.63
711.866	1965.03
712.054	1971.17
712.242	1846.24
712.43	1979.36
712.617	1840.1
712.805	1909.73
712.993	1846.24
713.181	1954.79
713.368	1752.04
713.556	1813.48
713.744	1772.52
713.931	1924.07
714.119	1809.38
714.306	1727.46
714.494	1743.85
714.682	1799.14
714.869	1696.74
715.057	1846.24
715.244	1706.98
715.432	1727.46
715.619	1784.8
715.807	1723.37
715.994	1745.89
716.182	1633.26
716.369	1696.74
716.556	1731.56
716.744	1651.69
716.931	1608.68
717.119	1666.02
717.306	1616.87
717.493	1598.44
717.681	1719.27
717.868	1608.68
718.055	1645.54
718.242	1668.07
718.43	1575.91
718.617	1571.82
718.804	1571.82
718.991	1498.09
719.179	1616.87
719.366	1424.36
719.553	1508.33
719.74	1502.19
719.927	1506.28
720.114	1467.37
720.301	1547.24
720.488	1393.64
720.676	1489.9
720.863	1367.02
721.05	1414.12
721.237	1500.14
721.424	1485.8
721.611	1442.79
721.798	1399.79
721.985	1498.09
722.172	1301.48
722.358	1395.69
722.545	1360.88
722.732	1356.78
722.919	1358.83
723.106	1317.87
723.293	1360.88
723.48	1342.44
723.667	1463.27
723.853	1287.15
724.04	1367.02
724.227	1240.05
724.414	1362.92
724.6	1248.24
724.787	1289.2
724.974	1313.77
725.161	1362.92
725.347	1186.8
725.534	1250.28
725.72	1317.87
725.907	1246.19
726.094	1260.52
726.28	1309.68
726.467	1274.86
726.653	1166.32
726.84	1154.03
727.027	1240.05
727.213	1154.03
727.4	1197.04
727.586	1186.8
727.773	1231.85
727.959	1268.72
728.145	1172.46
728.332	1078.26
728.518	1229.81
728.705	1082.35
728.891	1029.1
729.077	1154.03
729.264	1072.11
729.45	1072.11
729.636	1080.3
729.823	1158.13
730.009	1180.65
730.195	1041.39
730.382	1143.79
730.568	1043.44
730.754	1074.16
730.94	1033.2
731.126	1119.21
731.313	1084.4
731.499	1090.54
731.685	1076.21
731.871	1131.5
732.057	975.86
732.243	1033.2
732.429	1082.35
732.615	1139.69
732.801	1031.15
732.987	1090.54
733.173	990.19
733.359	984.05
733.545	1008.62
733.731	1037.3
733.917	984.05
734.103	988.14
734.289	992.24
734.475	924.66
734.661	1031.15
734.847	982
735.033	965.62
735.219	982
735.404	973.81
735.59	916.47
735.776	992.24
735.962	969.71
736.148	850.93
736.333	898.03
736.519	924.66
736.705	984.05
736.89	904.18
737.076	857.07
737.262	955.38
737.447	795.64
737.633	869.36
737.819	840.69
738.004	846.84
738.19	832.5
738.375	951.28
738.561	873.46
738.747	840.69
738.932	904.18
739.118	797.68
739.303	848.88
739.489	818.16
739.674	875.51
739.859	871.41
740.045	732.15
740.23	836.6
740.416	762.87
740.601	769.01
740.786	814.07
740.972	777.2
741.157	756.72
741.342	736.24
741.528	773.11
741.713	820.21
741.898	775.16
742.084	816.12
742.269	769.01
742.454	783.35
742.639	746.48
742.824	773.11
743.01	744.44
743.195	828.4
743.38	752.63
743.565	674.81
743.75	680.95
743.935	713.72
744.12	746.48
744.305	744.44
744.49	726
744.675	703.48
744.86	705.53
745.045	697.33
745.23	680.95
745.415	623.61
745.6	670.71
745.785	742.39
745.97	660.47
746.155	705.53
746.34	617.46
746.525	625.65
746.71	726
746.895	680.95
747.079	656.37
747.264	584.7
747.449	676.85
747.634	601.08
747.819	658.42
748.003	623.61
748.188	625.65
748.373	580.6
748.557	582.65
748.742	588.79
748.927	588.79
749.111	613.37
749.296	562.17
749.481	609.27
749.665	590.84
749.85	531.45
750.034	672.76
750.219	558.07
750.404	588.79
750.588	631.8
750.773	574.46
750.957	519.16
751.141	642.04
751.326	568.31
751.51	599.03
751.695	572.41
751.879	601.08
752.064	642.04
752.248	586.74
752.432	533.5
752.617	439.29
752.801	570.36
752.985	529.4
753.17	594.93
753.354	510.97
753.538	500.73
753.722	463.86
753.907	494.58
754.091	484.34
754.275	508.92
754.459	537.59
754.643	672.76
754.828	449.53
755.012	521.21
755.196	449.53
755.38	492.54
755.564	551.93
755.748	543.74
755.932	558.07
756.116	486.39
756.3	492.54
756.484	443.39
756.668	508.92
756.852	556.02
757.036	433.15
757.22	504.82
757.404	502.78
757.588	441.34
757.772	482.3
757.956	388.09
758.14	515.06
758.323	498.68
758.507	467.96
758.691	433.15
758.875	416.76
759.059	510.97
759.242	445.43
759.426	367.61
759.61	408.57
759.794	367.61
759.977	392.19
760.161	457.72
760.345	408.57
760.528	431.1
760.712	318.46
760.895	363.51
761.079	396.28
761.263	363.51
761.446	371.71
761.63	396.28
761.813	386.04
761.997	424.95
762.18	453.63
762.364	414.71
762.547	408.57
762.731	363.51
762.914	400.38
763.098	410.62
763.281	447.48
763.464	422.91
763.648	394.23
763.831	293.88
764.015	383.99
764.198	400.38
764.381	467.96
764.564	398.33
764.748	359.42
764.931	330.75
765.114	343.03
765.297	410.62
765.481	340.99
765.664	410.62
765.847	375.8
766.03	400.38
766.213	433.15
766.397	340.99
766.58	353.27
766.763	369.66
766.946	336.89
767.129	318.46
767.312	285.69
767.495	332.79
767.678	396.28
767.861	314.36
768.044	314.36
768.227	371.71
768.41	355.32
768.593	314.36
768.776	416.76
768.959	379.9
769.142	332.79
769.324	388.09
769.507	359.42
769.69	287.74
769.873	381.95
770.056	386.04
770.239	328.7
770.421	367.61
770.604	252.92
770.787	330.75
770.97	347.13
771.152	332.79
771.335	386.04
771.518	250.88
771.7	340.99
771.883	367.61
772.066	332.79
772.248	371.71
772.431	441.34
772.613	302.08
772.796	347.13
772.978	320.51
773.161	398.33
773.343	332.79
773.526	281.6
773.708	259.07
773.891	259.07
774.073	332.79
774.256	285.69
774.438	328.7
774.621	293.88
774.803	314.36
774.985	281.6
775.168	340.99
775.35	203.77
775.532	357.37
775.715	285.69
775.897	336.89
776.079	314.36
776.261	340.99
776.444	295.93
776.626	287.74
776.808	248.83
776.99	273.4
777.173	316.41
777.355	332.79
777.537	293.88
777.719	318.46
777.901	261.12
778.083	295.93
778.265	263.16
778.447	302.08
778.629	279.55
778.811	265.21
778.993	273.4
779.175	283.64
779.357	261.12
779.539	220.16
779.721	236.54
779.903	248.83
780.085	320.51
780.267	185.34
780.449	257.02
780.631	308.22
780.812	285.69
780.994	277.5
781.176	259.07
781.358	236.54
781.54	300.03
781.721	205.82
781.903	261.12
782.085	248.83
782.267	261.12
782.448	232.44
782.63	285.69
782.812	181.25
782.993	205.82
783.175	199.68
783.357	166.91
783.538	308.22
783.72	242.68
783.901	246.78
784.083	138.24
784.264	281.6
784.446	302.08
784.627	197.63
784.809	214.01
784.99	154.62
785.172	211.96
785.353	246.78
785.535	197.63
785.716	154.62
785.897	103.42
786.079	240.64
786.26	228.35
786.441	117.76
786.623	236.54
786.804	123.9
786.985	209.92
787.167	173.05
787.348	205.82
787.529	177.15
787.71	211.96
787.891	285.69
788.073	115.71
788.254	158.72
788.435	193.53
788.616	189.44
788.797	226.3
788.978	283.64
789.159	209.92
789.34	128
789.522	205.82
789.703	218.11
789.884	189.44
790.065	168.96
790.246	195.58
790.427	160.77
790.607	183.29
790.788	232.44
790.969	152.57
791.15	185.34
791.331	107.52
791.512	193.53
791.693	236.54
791.874	187.39
792.054	201.72
792.235	187.39
792.416	82.94
792.597	107.52
792.778	179.2
792.958	193.53
793.139	179.2
793.32	181.25
793.5	113.66
793.681	252.92
793.862	189.44
794.042	220.16
794.223	95.23
794.404	91.13
794.584	134.14
794.765	154.62
794.945	144.38
795.126	121.85
795.306	211.96
795.487	187.39
795.667	168.96
795.848	189.44
796.028	80.89
796.209	128
796.389	146.43
796.57	168.96
796.75	138.24
796.93	113.66
797.111	50.18
797.291	152.57
797.471	168.96
797.652	142.33
797.832	103.42
798.012	181.25
798.192	103.42
798.373	154.62
798.553	109.57
798.733	140.29
798.913	123.9
799.093	103.42
799.274	179.2
799.454	125.95
799.634	154.62
799.814	101.37
799.994	93.18
800.174	156.67
800.354	195.58
800.534	166.91
800.714	97.28
800.894	148.48
801.074	107.52
801.254	84.99
801.434	99.33
801.614	105.47
801.794	58.37
801.974	383.99
802.154	117.76
802.334	160.77
802.514	39.94
802.693	115.71
802.873	97.28
803.053	121.85
803.233	74.75
803.413	121.85
803.592	162.81
803.772	93.18
803.952	125.95
804.131	123.9
804.311	130.05
804.491	111.61
804.67	64.51
804.85	140.29
805.03	46.08
805.209	189.44
805.389	70.65
805.568	84.99
805.748	107.52
805.928	87.04
806.107	-15.36
806.287	160.77
806.466	128
806.646	173.05
806.825	66.56
807.004	113.66
807.184	68.61
807.363	150.53
807.543	62.46
807.722	148.48
807.901	74.75
808.081	123.9
808.26	105.47
808.439	125.95
808.619	166.91
808.798	107.52
808.977	201.72
809.156	117.76
809.336	107.52
809.515	156.67
809.694	78.85
809.873	154.62
810.052	52.22
810.231	91.13
810.411	89.09
810.59	87.04
810.769	74.75
810.948	74.75
811.127	62.46
811.306	107.52
811.485	64.51
811.664	46.08
811.843	109.57
812.022	3.07
812.201	74.75
812.38	84.99
812.559	50.18
812.737	115.71
812.916	82.94
813.095	70.65
813.274	37.89
813.453	58.37
813.632	111.61
813.811	154.62
813.989	54.27
814.168	91.13
814.347	78.85
814.526	97.28
814.704	33.79
814.883	128
815.062	121.85
815.24	171.01
815.419	97.28
815.598	52.22
815.776	97.28
815.955	1.02
816.133	-13.31
816.312	29.7
816.49	115.71
816.669	89.09
816.847	109.57
817.026	35.84
817.204	72.7
817.383	19.46
817.561	-3.07
817.74	91.13
817.918	33.79
818.097	72.7
818.275	33.79
818.453	66.56
818.632	103.42
818.81	140.29
818.988	70.65
819.167	74.75
819.345	64.51
819.523	125.95
819.701	27.65
819.879	82.94
820.058	64.51
820.236	64.51
820.414	52.22
820.592	166.91
820.77	1.02
820.948	29.7
821.127	56.32
821.305	41.98
821.483	31.74
821.661	70.65
821.839	60.42
822.017	58.37
822.195	107.52
822.373	72.7
822.551	21.5
822.729	17.41
822.907	29.7
823.085	76.8
823.262	35.84
823.44	33.79
823.618	21.5
823.796	19.46
823.974	76.8
824.152	39.94
824.329	54.27
824.507	48.13
824.685	5.12
824.863	39.94
825.04	60.42
825.218	91.13
825.396	113.66
825.574	48.13
825.751	50.18
825.929	17.41
826.107	54.27
826.284	48.13
826.462	72.7
826.639	93.18
826.817	60.42
826.994	31.74
827.172	35.84
827.349	128
827.527	31.74
827.704	64.51
827.882	68.61
828.059	101.37
828.237	27.65
828.414	76.8
828.591	7.17
828.769	99.33
828.946	31.74
829.124	80.89
829.301	52.22
829.478	-1.02
829.655	50.18
829.833	9.22
830.01	23.55
830.187	39.94
830.364	64.51
830.542	54.27
830.719	13.31
830.896	39.94
831.073	37.89
831.25	52.22
831.427	-17.41
831.604	64.51
831.782	-5.12
831.959	-9.22
832.136	33.79
832.313	60.42
832.49	62.46
832.667	21.5
832.844	48.13
833.021	39.94
833.198	-11.26
833.374	46.08
833.551	7.17
833.728	58.37
833.905	50.18
834.082	54.27
834.259	76.8
834.436	35.84
834.612	60.42
834.789	37.89
834.966	48.13
835.143	56.32
835.319	5.12
835.496	15.36
835.673	29.7
835.85	82.94
836.026	11.26
836.203	95.23
836.38	39.94
836.556	84.99
836.733	3.07
836.909	7.17
837.086	-9.22
837.262	-19.46
837.439	93.18
837.616	7.17
837.792	7.17
837.968	48.13
838.145	-3.07
838.321	13.31
838.498	-13.31
838.674	-89.09
838.851	7.17
839.027	-5.12
839.203	33.79
839.38	15.36
839.556	39.94
839.732	31.74
839.909	-3.07
840.085	119.81
840.261	68.61
840.437	70.65
840.614	54.27
840.79	44.03
840.966	-17.41
841.142	72.7
841.318	41.98
841.494	5.12
841.671	-44.03
841.847	84.99
842.023	-33.79
842.199	146.43
842.375	87.04
842.551	17.41
842.727	-27.65
842.903	74.75
843.079	-31.74
843.255	80.89
843.431	31.74
843.607	41.98
843.783	-21.5
843.959	58.37
844.134	56.32
844.31	52.22
844.486	-7.17
844.662	64.51
844.838	60.42
845.013	87.04
845.189	19.46
845.365	48.13
845.541	41.98
845.716	35.84
845.892	44.03
846.068	3.07
846.244	-11.26
846.419	33.79
846.595	46.08
846.77	-1.02
846.946	39.94
847.122	46.08
847.297	56.32
847.473	54.27
847.648	5.12
847.824	25.6
847.999	58.37
848.175	35.84
848.35	-9.22
848.526	17.41
848.701	35.84
848.876	25.6
849.052	64.51
849.227	11.26
849.403	-74.75
849.578	64.51
849.753	58.37
849.929	134.14
850.104	7.17
850.279	1.02
850.454	-21.5
850.63	70.65
850.805	60.42
850.98	27.65
851.155	-66.56
851.33	56.32
851.505	35.84
851.681	62.46
851.856	-5.12
852.031	9.22
852.206	31.74
852.381	23.55
852.556	13.31
852.731	5.12
852.906	3.07
853.081	56.32
853.256	52.22
853.431	60.42
853.606	44.03
853.781	29.7
853.956	64.51
854.131	54.27
854.305	72.7
854.48	48.13
854.655	21.5
854.83	48.13
855.005	-13.31
855.18	1.02
855.354	9.22
855.529	-1.02
855.704	-25.6
855.879	82.94
856.053	39.94
856.228	68.61
856.403	-15.36
856.577	39.94
856.752	-7.17
856.926	89.09
857.101	91.13
857.276	21.5
857.45	56.32
857.625	13.31
857.799	58.37
857.974	62.46
858.148	15.36
858.323	48.13
858.497	41.98
858.672	37.89
858.846	35.84
859.02	13.31
859.195	-5.12
859.369	-13.31
859.543	13.31
859.718	15.36
859.892	37.89
860.066	35.84
860.241	-31.74
860.415	29.7
860.589	-5.12
860.763	-3.07
860.938	29.7
861.112	48.13
861.286	41.98
861.46	103.42
861.634	-19.46
861.808	68.61
861.982	82.94
862.157	15.36
862.331	19.46
862.505	50.18
862.679	33.79
862.853	15.36
863.027	82.94
863.201	-13.31
863.375	21.5
863.549	15.36
863.722	37.89
863.896	35.84
864.07	-13.31
864.244	13.31
864.418	25.6
864.592	39.94
864.766	56.32
864.939	68.61
865.113	13.31
865.287	7.17
865.461	41.98
865.634	97.28
865.808	31.74
865.982	-48.13
866.156	64.51
866.329	31.74
866.503	72.7
866.676	11.26
866.85	19.46
867.024	23.55
867.197	-13.31
867.371	13.31
867.544	91.13
867.718	-7.17
867.891	19.46
868.065	31.74
868.238	17.41
868.412	-25.6
868.585	56.32
868.759	-21.5
868.932	25.6
869.105	58.37
869.279	33.79
869.452	15.36
869.625	31.74
869.799	39.94
869.972	-35.84
870.145	13.31
870.319	5.12
870.492	60.42
870.665	93.18
870.838	3.07
871.011	25.6
871.185	50.18
871.358	-21.5
871.531	54.27
871.704	-58.37
871.877	33.79
872.05	52.22
872.223	70.65
872.396	54.27
872.569	-7.17
872.742	-66.56
872.915	109.57
873.088	-5.12
873.261	62.46
873.434	89.09
873.607	60.42
873.78	15.36
873.953	76.8
874.126	48.13
874.299	44.03
874.471	-1.02
874.644	48.13
874.817	-1.02
874.99	99.33
875.163	-39.94
875.335	-27.65
875.508	54.27
875.681	-17.41
875.853	-5.12
876.026	21.5
876.199	39.94
876.371	31.74
876.544	25.6
876.717	39.94
876.889	3.07
877.062	54.27
877.234	31.74
877.407	52.22
877.579	19.46
877.752	19.46
877.924	-13.31
878.097	48.13
878.269	68.61
878.442	37.89
878.614	70.65
878.786	-41.98
878.959	-3.07
879.131	-9.22
879.303	-21.5
879.476	54.27
879.648	15.36
879.82	23.55
879.993	56.32
880.165	-5.12
880.337	-58.37
880.509	3.07
880.681	23.55
880.854	-46.08
881.026	7.17
881.198	44.03
881.37	33.79
881.542	17.41
881.714	21.5
881.886	21.5
882.058	9.22
882.23	-25.6
882.402	-11.26
882.574	60.42
882.746	-7.17
882.918	-29.7
883.09	74.75
883.262	-15.36
883.434	11.26
883.606	-9.22
883.778	46.08
883.95	29.7
884.122	7.17
884.293	-13.31
884.465	-9.22
884.637	-1.02
884.809	-39.94
884.98	-3.07
885.152	41.98
885.324	-1.02
885.496	11.26
885.667	-13.31
885.839	-9.22
886.011	17.41
886.182	5.12
886.354	62.46
886.525	9.22
886.697	-41.98
886.869	-17.41
887.04	31.74
887.212	-37.89
887.383	-1.02
887.555	-56.32
887.726	13.31
887.897	66.56
888.069	5.12
888.24	-13.31
888.412	1.02
888.583	68.61
888.754	25.6
888.926	27.65
889.097	41.98
889.268	-72.7
889.44	54.27
889.611	23.55
889.782	27.65
889.953	64.51
890.125	56.32
890.296	-66.56
890.467	5.12
890.638	7.17
890.809	-66.56
890.98	-13.31
891.151	23.55
891.323	13.31
891.494	17.41
891.665	89.09
891.836	-21.5
892.007	29.7
892.178	-11.26
892.349	-50.18
892.52	33.79
892.691	41.98
892.862	25.6
893.032	-15.36
893.203	-50.18
893.374	39.94
893.545	103.42
893.716	-17.41
893.887	23.55
894.057	-25.6
894.228	-1.02
894.399	-21.5
894.57	52.22
894.74	29.7
894.911	25.6
895.082	58.37
895.253	31.74
895.423	-33.79
895.594	-19.46
895.764	50.18
895.935	72.7
896.106	25.6
896.276	-35.84
896.447	7.17
896.617	80.89
896.788	-5.12
896.958	9.22
897.129	17.41
897.299	-25.6
897.47	48.13
897.64	56.32
897.81	-29.7
897.981	31.74
898.151	-7.17
898.322	72.7
898.492	-1.02
898.662	15.36
898.832	62.46
899.003	-21.5
899.173	-17.41
899.343	39.94
899.513	60.42
