Data from USB4F104151__82__12-54-47-358.txt Node

Date: Fri Mar 14 12:54:47 EDT 2025
User: louis
Spectrometer: USB4F10415
Trigger mode: 4
Integration Time (sec): 1.000000E-2
Scans to average: 1
Electric dark correction enabled: true
Nonlinearity correction enabled: false
Boxcar width: 0
XAxis mode: Wavelengths
Number of Pixels in Spectrum: 3648
>>>>>Begin Spectral Data<<<<<
178.204	-22.19
178.424	-22.19
178.644	-22.19
178.864	-44.71
179.084	-48.81
179.304	45.4
179.524	-38.57
179.744	-18.09
179.964	4.44
180.184	-3.75
180.404	-38.57
180.624	22.87
180.844	16.73
181.064	18.77
181.283	26.96
181.503	-42.67
181.723	6.49
181.943	-28.33
182.163	72.02
182.383	-1.71
182.602	31.06
182.822	12.63
183.042	-44.71
183.262	24.92
183.482	10.58
183.701	-28.33
183.921	12.63
184.141	6.49
184.361	26.96
184.58	55.64
184.8	26.96
185.02	-16.04
185.239	41.3
185.459	2.39
185.679	-7.85
185.898	59.73
186.118	51.54
186.338	-18.09
186.557	20.82
186.777	-3.75
186.997	-13.99
187.216	-28.33
187.436	29.01
187.655	-3.75
187.875	31.06
188.095	8.53
188.314	8.53
188.534	18.77
188.753	33.11
188.973	12.63
189.192	16.73
189.412	18.77
189.631	-11.95
189.851	-30.38
190.07	84.31
190.29	-32.43
190.509	-1.71
190.729	31.06
190.948	31.06
191.168	39.25
191.387	72.02
191.607	-36.52
191.826	26.96
192.045	41.3
192.265	-26.28
192.484	-16.04
192.704	33.11
192.923	6.49
193.142	-16.04
193.362	26.96
193.581	31.06
193.8	-18.09
194.02	47.44
194.239	61.78
194.458	-13.99
194.678	-1.71
194.897	8.53
195.116	-11.95
195.335	22.87
195.555	6.49
195.774	14.68
195.993	29.01
196.212	-3.75
196.432	86.36
196.651	-16.04
196.87	22.87
197.089	8.53
197.308	8.53
197.528	55.64
197.747	-61.1
197.966	45.4
198.185	20.82
198.404	-38.57
198.623	2.39
198.842	37.2
199.062	26.96
199.281	104.79
199.5	-42.67
199.719	-3.75
199.938	61.78
200.157	63.83
200.376	37.2
200.595	-1.71
200.814	-9.9
201.033	35.16
201.252	14.68
201.471	2.39
201.69	-44.71
201.909	-22.19
202.128	24.92
202.347	76.12
202.566	4.44
202.785	-20.14
203.004	14.68
203.223	29.01
203.442	14.68
203.661	45.4
203.879	41.3
204.098	-30.38
204.317	4.44
204.536	-48.81
204.755	-13.99
204.974	65.88
205.193	-28.33
205.411	12.63
205.63	16.73
205.849	8.53
206.068	20.82
206.287	26.96
206.505	4.44
206.724	-57
206.943	-3.75
207.162	18.77
207.381	47.44
207.599	-3.75
207.818	-16.04
208.037	29.01
208.255	41.3
208.474	69.97
208.693	-63.15
208.911	24.92
209.13	-77.48
209.349	31.06
209.567	29.01
209.786	47.44
210.005	22.87
210.223	35.16
210.442	45.4
210.661	-24.23
210.879	-44.71
211.098	6.49
211.316	-5.8
211.535	12.63
211.753	-42.67
211.972	22.87
212.191	-69.29
212.409	14.68
212.628	2.39
212.846	-1.71
213.065	47.44
213.283	-36.52
213.502	4.44
213.72	43.35
213.938	24.92
214.157	4.44
214.375	106.84
214.594	-77.48
214.812	12.63
215.031	-30.38
215.249	-7.85
215.467	-16.04
215.686	74.07
215.904	-1.71
216.122	18.77
216.341	35.16
216.559	41.3
216.778	69.97
216.996	8.53
217.214	4.44
217.432	35.16
217.651	59.73
217.869	10.58
218.087	8.53
218.306	12.63
218.524	55.64
218.742	-28.33
218.96	33.11
219.179	37.2
219.397	-20.14
219.615	16.73
219.833	-11.95
220.051	45.4
220.27	33.11
220.488	14.68
220.706	18.77
220.924	16.73
221.142	-22.19
221.36	24.92
221.578	39.25
221.796	24.92
222.015	-50.86
222.233	-18.09
222.451	22.87
222.669	-1.71
222.887	63.83
223.105	-1.71
223.323	-16.04
223.541	-63.15
223.759	-1.71
223.977	14.68
224.195	20.82
224.413	-28.33
224.631	61.78
224.849	41.3
225.067	20.82
225.285	26.96
225.503	31.06
225.721	20.82
225.939	39.25
226.157	14.68
226.375	104.79
226.592	-5.8
226.81	-22.19
227.028	57.68
227.246	6.49
227.464	-48.81
227.682	-18.09
227.9	-65.19
228.117	2.39
228.335	2.39
228.553	67.92
228.771	-16.04
228.989	104.79
229.206	-20.14
229.424	45.4
229.642	-32.43
229.86	-34.47
230.077	102.74
230.295	20.82
230.513	59.73
230.731	26.96
230.948	-5.8
231.166	65.88
231.384	49.49
231.601	-1.71
231.819	31.06
232.037	47.44
232.254	-26.28
232.472	-26.28
232.689	22.87
232.907	72.02
233.125	-1.71
233.342	43.35
233.56	-40.62
233.777	20.82
233.995	61.78
234.213	37.2
234.43	24.92
234.648	6.49
234.865	35.16
235.083	39.25
235.3	137.56
235.518	33.11
235.735	22.87
235.953	-11.95
236.17	12.63
236.388	-1.71
236.605	-54.95
236.822	-20.14
237.04	67.92
237.257	51.54
237.475	-42.67
237.692	-32.43
237.909	-54.95
238.127	35.16
238.344	61.78
238.562	-38.57
238.779	45.4
238.996	4.44
239.214	16.73
239.431	-5.8
239.648	47.44
239.865	59.73
240.083	14.68
240.3	-59.05
240.517	-50.86
240.735	29.01
240.952	22.87
241.169	-50.86
241.386	33.11
241.603	-22.19
241.821	24.92
242.038	10.58
242.255	69.97
242.472	-13.99
242.689	6.49
242.907	-36.52
243.124	-75.43
243.341	47.44
243.558	-26.28
243.775	47.44
243.992	-44.71
244.209	53.59
244.426	10.58
244.643	78.16
244.86	92.5
245.078	117.08
245.295	6.49
245.512	31.06
245.729	10.58
245.946	18.77
246.163	-7.85
246.38	35.16
246.597	51.54
246.814	-28.33
247.031	33.11
247.248	20.82
247.464	-22.19
247.681	96.6
247.898	65.88
248.115	74.07
248.332	6.49
248.549	-38.57
248.766	-36.52
248.983	8.53
249.2	-7.85
249.417	29.01
249.633	63.83
249.85	8.53
250.067	55.64
250.284	14.68
250.501	6.49
250.717	53.59
250.934	4.44
251.151	-9.9
251.368	16.73
251.585	8.53
251.801	12.63
252.018	22.87
252.235	0.34
252.451	2.39
252.668	31.06
252.885	2.39
253.102	4.44
253.318	57.68
253.535	14.68
253.752	-36.52
253.968	4.44
254.185	90.45
254.401	-24.23
254.618	-54.95
254.835	-9.9
255.051	76.12
255.268	-11.95
255.484	-20.14
255.701	37.2
255.917	61.78
256.134	-3.75
256.351	47.44
256.567	-28.33
256.784	74.07
257	-61.1
257.217	53.59
257.433	-7.85
257.65	67.92
257.866	-11.95
258.082	37.2
258.299	-42.67
258.515	0.34
258.732	20.82
258.948	45.4
259.165	37.2
259.381	26.96
259.597	-59.05
259.814	53.59
260.03	35.16
260.246	14.68
260.463	-18.09
260.679	20.82
260.895	57.68
261.112	20.82
261.328	59.73
261.544	90.45
261.761	8.53
261.977	29.01
262.193	-13.99
262.409	82.26
262.626	-24.23
262.842	-1.71
263.058	-28.33
263.274	22.87
263.49	45.4
263.707	20.82
263.923	-54.95
264.139	-3.75
264.355	-9.9
264.571	67.92
264.787	22.87
265.004	-30.38
265.22	-28.33
265.436	29.01
265.652	4.44
265.868	-1.71
266.084	-3.75
266.3	33.11
266.516	-38.57
266.732	45.4
266.948	10.58
267.164	-40.62
267.38	-24.23
267.596	78.16
267.812	26.96
268.028	-7.85
268.244	20.82
268.46	63.83
268.676	0.34
268.892	33.11
269.108	0.34
269.324	-5.8
269.54	-11.95
269.756	-48.81
269.972	-3.75
270.188	-38.57
270.403	-3.75
270.619	61.78
270.835	-18.09
271.051	-26.28
271.267	22.87
271.483	-36.52
271.698	-61.1
271.914	-9.9
272.13	69.97
272.346	22.87
272.562	-52.91
272.777	-1.71
272.993	18.77
273.209	63.83
273.425	-44.71
273.64	22.87
273.856	-13.99
274.072	-5.8
274.287	12.63
274.503	74.07
274.719	47.44
274.934	0.34
275.15	-44.71
275.366	14.68
275.581	24.92
275.797	-22.19
276.012	63.83
276.228	74.07
276.444	59.73
276.659	-34.47
276.875	47.44
277.09	-63.15
277.306	78.16
277.521	-24.23
277.737	-7.85
277.952	-50.86
278.168	-20.14
278.383	41.3
278.599	20.82
278.814	22.87
279.03	26.96
279.245	31.06
279.461	51.54
279.676	-30.38
279.892	-42.67
280.107	20.82
280.322	35.16
280.538	84.31
280.753	22.87
280.969	31.06
281.184	43.35
281.399	20.82
281.615	-24.23
281.83	59.73
282.045	18.77
282.26	41.3
282.476	53.59
282.691	33.11
282.906	-1.71
283.122	-18.09
283.337	-67.24
283.552	37.2
283.767	-32.43
283.983	29.01
284.198	37.2
284.413	39.25
284.628	33.11
284.843	10.58
285.058	22.87
285.274	65.88
285.489	39.25
285.704	82.26
285.919	-44.71
286.134	-13.99
286.349	2.39
286.564	76.12
286.779	37.2
286.995	20.82
287.21	-16.04
287.425	18.77
287.64	-18.09
287.855	59.73
288.07	0.34
288.285	-11.95
288.5	115.03
288.715	24.92
288.93	29.01
289.145	2.39
289.36	8.53
289.575	55.64
289.79	14.68
290.004	24.92
290.219	-1.71
290.434	29.01
290.649	22.87
290.864	26.96
291.079	6.49
291.294	108.88
291.509	59.73
291.724	31.06
291.938	33.11
292.153	39.25
292.368	-26.28
292.583	-38.57
292.798	45.4
293.012	-16.04
293.227	14.68
293.442	12.63
293.657	12.63
293.871	-36.52
294.086	-13.99
294.301	37.2
294.516	14.68
294.73	12.63
294.945	-13.99
295.16	-36.52
295.374	10.58
295.589	141.65
295.804	59.73
296.018	49.49
296.233	33.11
296.447	16.73
296.662	-50.86
296.877	37.2
297.091	18.77
297.306	-36.52
297.52	-1.71
297.735	-44.71
297.949	6.49
298.164	4.44
298.378	-22.19
298.593	16.73
298.807	67.92
299.022	29.01
299.236	55.64
299.451	-3.75
299.665	-13.99
299.88	39.25
300.094	-13.99
300.309	4.44
300.523	-59.05
300.737	74.07
300.952	31.06
301.166	29.01
301.381	-9.9
301.595	18.77
301.809	-61.1
302.024	12.63
302.238	2.39
302.452	57.68
302.667	74.07
302.881	-18.09
303.095	10.58
303.309	12.63
303.524	-36.52
303.738	43.35
303.952	-42.67
304.166	63.83
304.381	-44.71
304.595	-22.19
304.809	-34.47
305.023	-5.8
305.237	-26.28
305.452	35.16
305.666	4.44
305.88	168.27
306.094	8.53
306.308	33.11
306.522	18.77
306.736	-11.95
306.95	55.64
307.164	-26.28
307.379	-36.52
307.593	43.35
307.807	6.49
308.021	16.73
308.235	-11.95
308.449	45.4
308.663	4.44
308.877	18.77
309.091	-5.8
309.305	-3.75
309.519	-7.85
309.733	47.44
309.947	67.92
310.161	26.96
310.374	12.63
310.588	18.77
310.802	26.96
311.016	33.11
311.23	-28.33
311.444	18.77
311.658	22.87
311.872	-26.28
312.085	10.58
312.299	35.16
312.513	-18.09
312.727	37.2
312.941	-28.33
313.154	82.26
313.368	-13.99
313.582	24.92
313.796	8.53
314.009	-42.67
314.223	24.92
314.437	-7.85
314.651	47.44
314.864	45.4
315.078	-71.34
315.292	35.16
315.505	-3.75
315.719	33.11
315.933	14.68
316.146	16.73
316.36	-3.75
316.573	26.96
316.787	-34.47
317.001	112.98
317.214	-32.43
317.428	33.11
317.641	53.59
317.855	88.4
318.068	2.39
318.282	10.58
318.495	45.4
318.709	45.4
318.922	-28.33
319.136	29.01
319.349	55.64
319.563	-1.71
319.776	2.39
319.99	6.49
320.203	24.92
320.417	-36.52
320.63	92.5
320.843	69.97
321.057	84.31
321.27	65.88
321.483	-20.14
321.697	39.25
321.91	6.49
322.124	6.49
322.337	26.96
322.55	67.92
322.763	16.73
322.977	92.5
323.19	-26.28
323.403	4.44
323.617	45.4
323.83	37.2
324.043	39.25
324.256	12.63
324.469	41.3
324.683	8.53
324.896	10.58
325.109	41.3
325.322	-11.95
325.535	31.06
325.748	37.2
325.962	-57
326.175	4.44
326.388	24.92
326.601	37.2
326.814	41.3
327.027	55.64
327.24	-1.71
327.453	-3.75
327.666	14.68
327.879	45.4
328.092	26.96
328.305	37.2
328.518	-26.28
328.731	8.53
328.944	2.39
329.157	-7.85
329.37	14.68
329.583	37.2
329.796	88.4
330.009	-11.95
330.222	2.39
330.435	-7.85
330.648	26.96
330.861	26.96
331.073	37.2
331.286	24.92
331.499	8.53
331.712	10.58
331.925	-28.33
332.138	59.73
332.35	82.26
332.563	20.82
332.776	14.68
332.989	-22.19
333.202	76.12
333.414	2.39
333.627	53.59
333.84	-18.09
334.053	76.12
334.265	16.73
334.478	-73.39
334.691	31.06
334.903	-5.8
335.116	6.49
335.329	4.44
335.541	121.17
335.754	45.4
335.966	69.97
336.179	43.35
336.392	59.73
336.604	-11.95
336.817	-46.76
337.029	82.26
337.242	6.49
337.454	-3.75
337.667	49.49
337.88	22.87
338.092	-30.38
338.305	69.97
338.517	-16.04
338.729	67.92
338.942	4.44
339.154	78.16
339.367	-7.85
339.579	-1.71
339.792	-1.71
340.004	8.53
340.217	-9.9
340.429	55.64
340.641	-42.67
340.854	39.25
341.066	20.82
341.278	-20.14
341.491	-3.75
341.703	-24.23
341.915	0.34
342.128	47.44
342.34	22.87
342.552	33.11
342.764	16.73
342.977	4.44
343.189	39.25
343.401	29.01
343.613	-11.95
343.826	-44.71
344.038	12.63
344.25	41.3
344.462	86.36
344.674	24.92
344.886	26.96
345.099	14.68
345.311	-11.95
345.523	53.59
345.735	45.4
345.947	63.83
346.159	-9.9
346.371	100.69
346.583	2.39
346.795	69.97
347.007	47.44
347.219	65.88
347.431	12.63
347.643	-9.9
347.855	-42.67
348.067	39.25
348.279	4.44
348.491	53.59
348.703	14.68
348.915	14.68
349.127	-26.28
349.339	16.73
349.551	-46.76
349.763	53.59
349.975	-11.95
350.187	-16.04
350.399	26.96
350.61	8.53
350.822	14.68
351.034	35.16
351.246	0.34
351.458	-28.33
351.669	33.11
351.881	72.02
352.093	67.92
352.305	41.3
352.517	-38.57
352.728	35.16
352.94	78.16
353.152	0.34
353.363	69.97
353.575	29.01
353.787	96.6
353.999	20.82
354.21	-16.04
354.422	61.78
354.633	26.96
354.845	117.08
355.057	-30.38
355.268	45.4
355.48	41.3
355.692	-26.28
355.903	76.12
356.115	39.25
356.326	8.53
356.538	43.35
356.749	31.06
356.961	18.77
357.172	14.68
357.384	-34.47
357.595	4.44
357.807	104.79
358.018	-7.85
358.23	22.87
358.441	110.93
358.653	82.26
358.864	72.02
359.075	57.68
359.287	16.73
359.498	-26.28
359.709	37.2
359.921	43.35
360.132	6.49
360.344	-34.47
360.555	8.53
360.766	69.97
360.977	61.78
361.189	57.68
361.4	8.53
361.611	41.3
361.823	-26.28
362.034	22.87
362.245	4.44
362.456	-1.71
362.667	35.16
362.879	26.96
363.09	82.26
363.301	53.59
363.512	-3.75
363.723	24.92
363.935	35.16
364.146	29.01
364.357	-40.62
364.568	-7.85
364.779	-7.85
364.99	33.11
365.201	6.49
365.412	123.22
365.623	33.11
365.834	-3.75
366.045	59.73
366.256	37.2
366.467	10.58
366.678	59.73
366.889	14.68
367.1	41.3
367.311	78.16
367.522	90.45
367.733	-13.99
367.944	49.49
368.155	-16.04
368.366	-34.47
368.577	80.21
368.788	-20.14
368.999	53.59
369.209	6.49
369.42	43.35
369.631	39.25
369.842	-3.75
370.053	102.74
370.264	41.3
370.474	-13.99
370.685	4.44
370.896	29.01
371.107	31.06
371.317	-28.33
371.528	-9.9
371.739	31.06
371.95	31.06
372.16	49.49
372.371	78.16
372.582	8.53
372.792	4.44
373.003	14.68
373.214	20.82
373.424	102.74
373.635	43.35
373.846	24.92
374.056	-38.57
374.267	-3.75
374.477	43.35
374.688	29.01
374.898	43.35
375.109	14.68
375.319	8.53
375.53	4.44
375.74	-24.23
375.951	-7.85
376.161	-5.8
376.372	4.44
376.582	20.82
376.793	-40.62
377.003	-18.09
377.214	57.68
377.424	10.58
377.635	78.16
377.845	-36.52
378.055	63.83
378.266	49.49
378.476	-30.38
378.686	-1.71
378.897	63.83
379.107	10.58
379.317	-9.9
379.528	4.44
379.738	24.92
379.948	-13.99
380.158	47.44
380.369	-26.28
380.579	102.74
380.789	-20.14
380.999	8.53
381.21	45.4
381.42	67.92
381.63	29.01
381.84	0.34
382.05	61.78
382.261	33.11
382.471	49.49
382.681	-3.75
382.891	45.4
383.101	39.25
383.311	-65.19
383.521	43.35
383.731	63.83
383.941	-11.95
384.151	35.16
384.361	8.53
384.571	39.25
384.781	33.11
384.991	39.25
385.201	39.25
385.411	-34.47
385.621	18.77
385.831	-30.38
386.041	-26.28
386.251	29.01
386.461	-28.33
386.671	55.64
386.881	63.83
387.091	-18.09
387.301	-28.33
387.511	-9.9
387.72	74.07
387.93	20.82
388.14	47.44
388.35	-61.1
388.56	12.63
388.769	45.4
388.979	45.4
389.189	-34.47
389.399	37.2
389.609	-22.19
389.818	22.87
390.028	24.92
390.238	33.11
390.447	-24.23
390.657	53.59
390.867	84.31
391.076	37.2
391.286	63.83
391.496	16.73
391.705	14.68
391.915	92.5
392.125	14.68
392.334	98.64
392.544	-1.71
392.753	-3.75
392.963	55.64
393.172	18.77
393.382	-28.33
393.591	121.17
393.801	-38.57
394.01	37.2
394.22	67.92
394.429	47.44
394.639	33.11
394.848	33.11
395.058	88.4
395.267	69.97
395.477	55.64
395.686	43.35
395.895	69.97
396.105	41.3
396.314	63.83
396.524	24.92
396.733	65.88
396.942	24.92
397.152	53.59
397.361	61.78
397.57	82.26
397.78	96.6
397.989	72.02
398.198	92.5
398.407	29.01
398.617	43.35
398.826	57.68
399.035	39.25
399.244	61.78
399.453	2.39
399.663	41.3
399.872	39.25
400.081	112.98
400.29	18.77
400.499	94.55
400.708	82.26
400.917	41.3
401.127	26.96
401.336	6.49
401.545	35.16
401.754	20.82
401.963	76.12
402.172	65.88
402.381	51.54
402.59	26.96
402.799	78.16
403.008	16.73
403.217	45.4
403.426	88.4
403.635	45.4
403.844	41.3
404.053	110.93
404.262	55.64
404.471	26.96
404.68	96.6
404.888	141.65
405.097	59.73
405.306	69.97
405.515	2.39
405.724	80.21
405.933	76.12
406.142	47.44
406.35	39.25
406.559	90.45
406.768	84.31
406.977	90.45
407.185	67.92
407.394	94.55
407.603	86.36
407.812	74.07
408.02	104.79
408.229	88.4
408.438	131.41
408.646	123.22
408.855	129.36
409.064	112.98
409.272	108.88
409.481	110.93
409.69	76.12
409.898	98.64
410.107	158.03
410.315	76.12
410.524	164.18
410.733	162.13
410.941	98.64
411.15	170.32
411.358	207.19
411.567	233.81
411.775	170.32
411.984	221.52
412.192	147.8
412.401	268.63
412.609	192.85
412.818	180.56
413.026	229.71
413.234	209.23
413.443	225.62
413.651	205.14
413.86	282.96
414.068	270.67
414.276	276.82
414.485	278.87
414.693	270.67
414.901	315.73
415.11	299.34
415.318	293.2
415.526	379.22
415.734	338.26
415.943	356.69
416.151	368.98
416.359	409.94
416.567	399.7
416.776	383.31
416.984	479.57
417.192	428.37
417.4	422.22
417.608	426.32
417.817	397.65
418.025	459.09
418.233	481.61
418.441	471.37
418.649	577.87
418.857	489.81
419.065	592.2
419.273	581.96
419.481	600.4
419.689	680.27
419.897	637.26
420.105	612.68
420.313	659.79
420.521	700.75
420.729	684.36
420.937	764.23
421.145	862.54
421.353	833.86
421.561	911.69
421.769	866.63
421.977	862.54
422.185	903.5
422.393	981.32
422.601	950.6
422.809	1028.42
423.017	1065.29
423.224	1030.47
423.432	1100.1
423.64	1110.34
423.848	1196.36
424.056	1188.16
424.263	1261.89
424.471	1255.75
424.679	1243.46
424.887	1399.1
425.094	1403.2
425.302	1358.14
425.51	1485.12
425.718	1538.37
425.925	1581.37
426.133	1581.37
426.341	1646.91
426.548	1751.35
426.756	1683.77
426.964	1618.24
427.171	1790.27
427.379	2027.83
427.586	1904.95
427.794	1945.91
428.001	2111.8
428.209	2206
428.417	2093.37
428.624	2353.46
428.832	2371.89
429.039	2230.58
429.247	2316.59
429.454	2474.29
429.662	2541.87
429.869	2416.94
430.076	2703.66
430.284	2484.53
430.491	2689.32
430.699	2982.18
430.906	2871.59
431.114	2881.83
431.321	2984.23
431.528	3012.9
431.736	3240.23
431.943	3397.92
432.15	3322.15
432.358	3383.59
432.565	3602.72
432.772	3561.76
432.979	3868.95
433.187	3666.21
433.394	3891.48
433.601	4038.94
433.808	4163.86
434.016	3977.5
434.223	4335.89
434.43	4475.15
434.637	4395.28
434.844	4665.61
435.052	4780.3
435.259	4579.6
435.466	4944.14
435.673	4657.42
435.88	5083.4
436.087	5226.76
436.294	5222.66
436.501	5191.94
436.708	5255.43
436.915	5429.51
437.122	5742.85
437.329	5570.82
437.537	5757.18
437.743	5939.45
437.95	5927.16
438.157	6199.54
438.364	6461.68
438.571	6473.97
438.778	6322.42
438.985	6957.29
439.192	6815.98
439.399	7026.92
439.606	6732.01
439.813	7250.15
440.02	7678.18
440.227	7366.88
440.433	7282.92
440.64	7803.1
440.847	7704.8
441.054	7758.05
441.261	8325.33
441.467	8261.85
441.674	8474.84
441.881	8702.16
442.088	8784.08
442.294	8747.22
442.501	8947.92
442.708	9064.65
442.914	9515.2
443.121	9744.58
443.328	9568.45
443.534	10395.83
443.741	9828.54
443.948	10035.39
444.154	10545.33
444.361	10561.72
444.568	10580.15
444.774	10455.22
444.981	10711.22
445.187	11045.04
445.394	11522.21
445.6	11579.56
445.807	12333.21
446.013	12062.88
446.22	12138.65
446.426	12535.96
446.633	12603.54
446.839	13148.3
447.046	12587.16
447.252	13461.64
447.459	13344.91
447.665	13199.5
447.871	13947.01
448.078	14483.58
448.284	13783.17
448.491	14391.42
448.697	14692.47
448.903	15155.31
449.11	15102.06
449.316	15050.86
449.522	15026.29
449.728	15579.24
449.935	15534.18
450.141	15702.12
450.347	16052.32
450.553	15661.16
450.76	15947.87
450.966	16502.87
451.172	16193.63
451.378	16384.09
451.584	16136.29
451.791	16433.24
451.997	16595.03
452.203	17070.16
452.409	16742.49
452.615	16572.5
452.821	16054.37
453.027	15806.56
453.233	16824.4
453.44	16336.99
453.646	16199.77
453.852	16396.38
454.058	16629.85
454.264	16238.69
454.47	16535.64
454.676	15779.94
454.882	16803.92
455.088	15360.11
455.294	15276.14
455.5	15620.2
455.705	15673.45
455.911	15372.39
456.117	14993.52
456.323	14889.07
456.529	14137.47
456.735	14372.99
456.941	14504.06
457.147	13994.11
457.352	13533.32
457.558	13406.34
457.764	13404.3
457.97	13240.46
458.176	12767.38
458.381	12599.45
458.587	12150.94
458.793	12222.62
458.999	11575.46
459.204	12308.63
459.41	12122.27
459.616	11268.27
459.821	11208.87
460.027	11165.87
460.233	11151.53
460.438	10410.17
460.644	10547.38
460.85	10207.42
461.055	9769.15
461.261	9861.31
461.466	9066.7
461.672	8896.72
461.878	9504.96
462.083	8909.01
462.289	8812.75
462.494	8583.38
462.7	8354.01
462.905	8194.26
463.111	8075.48
463.316	8335.57
463.522	8175.83
463.727	8323.29
463.932	8188.12
464.138	8143.07
464.343	8272.09
464.549	7835.87
464.754	8016.09
464.959	7966.94
465.165	7921.88
465.37	7758.05
465.575	7573.73
465.781	7952.6
465.986	7880.93
466.191	7663.84
466.397	7325.93
466.602	7012.59
466.807	7602.4
467.012	7317.73
467.218	7321.83
467.423	7145.7
467.628	7203.05
467.833	7516.39
468.038	7186.66
468.244	7170.28
468.449	7192.81
468.654	7086.31
468.859	7104.74
469.064	6926.57
469.269	6648.05
469.474	6912.24
469.679	6820.08
469.885	6772.97
470.09	6750.45
470.295	6637.81
470.5	6570.23
470.705	6676.72
470.91	6469.87
471.115	6658.29
471.32	6484.21
471.525	6332.66
471.73	6377.72
471.935	6109.43
472.139	6164.73
472.344	6316.28
472.549	6039.8
472.754	6072.57
472.959	6074.62
473.164	5837.05
473.369	5839.1
473.574	6086.9
473.778	5792
473.983	5888.25
474.188	5904.64
474.393	5505.28
474.598	5718.27
474.802	5466.37
475.007	5478.66
475.212	5429.51
475.417	5359.88
475.621	5470.47
475.826	5349.64
476.031	5245.19
476.235	5050.63
476.44	5228.81
476.645	5046.54
476.849	5124.36
477.054	4813.07
477.259	4966.67
477.463	4997.39
477.668	4788.49
477.872	4974.86
478.077	4788.49
478.282	4739.34
478.486	4636.94
478.691	4555.02
478.895	4645.13
479.1	4493.58
479.304	4716.81
479.509	4419.86
479.713	4503.82
479.918	4493.58
480.122	4413.71
480.326	4428.05
480.531	4512.02
480.735	4409.62
480.94	4444.43
481.144	4428.05
481.348	4190.49
481.553	4426
481.757	4157.72
481.961	4274.45
482.166	4456.72
482.37	4356.37
482.574	4270.36
482.778	4256.02
482.983	4344.08
483.187	4393.23
483.391	4303.12
483.595	4331.8
483.8	4198.68
484.004	4329.75
484.208	4227.35
484.412	4223.25
484.616	4309.27
484.821	4251.92
485.025	4301.08
485.229	4198.68
485.433	4251.92
485.637	4350.23
485.841	4266.26
486.045	4413.71
486.249	4315.41
486.453	4272.4
486.657	4280.6
486.861	4280.6
487.065	4280.6
487.269	4215.06
487.473	4184.34
487.677	4385.04
487.881	4344.08
488.085	4442.39
488.289	4417.81
488.493	4223.25
488.697	4446.48
488.901	4364.56
489.105	4258.07
489.309	4339.99
489.512	4366.61
489.716	4380.95
489.92	4366.61
490.124	4237.59
490.328	4464.91
490.531	4333.84
490.735	4514.06
490.939	4440.34
491.143	4530.45
491.346	4348.18
491.55	4495.63
491.754	4458.77
491.958	4581.65
492.161	4423.95
492.365	4669.71
492.569	4516.11
492.772	4600.08
492.976	4641.04
493.18	4509.97
493.383	4499.73
493.587	4688.14
493.79	4749.58
493.994	4626.7
494.197	4716.81
494.401	4927.75
494.605	4706.57
494.808	4835.6
495.012	4960.52
495.215	4909.32
495.419	4933.9
495.622	4964.62
495.825	5005.58
496.029	5048.58
496.232	5251.33
496.436	5181.7
496.639	5388.55
496.843	5296.39
497.046	5265.67
497.249	5378.31
497.453	5363.97
497.656	5497.09
497.859	5320.96
498.063	5587.2
498.266	5605.63
498.469	5695.74
498.673	5779.71
498.876	5818.62
499.079	5906.68
499.282	5943.55
499.485	6031.61
499.689	5978.36
499.892	6281.46
500.095	6037.75
500.298	6232.31
500.501	6127.86
500.705	6396.15
500.908	6590.7
501.111	6521.07
501.314	6543.6
501.517	6639.86
501.72	6750.45
501.923	6666.48
502.126	6932.72
502.329	6961.39
502.532	6906.09
502.735	7135.46
502.938	7274.73
503.141	7399.65
503.344	7383.27
503.547	7401.7
503.75	7807.2
503.953	7835.87
504.156	7792.86
504.359	7899.36
504.562	7811.29
504.765	8052.95
504.968	7960.8
505.17	8290.52
505.373	8347.86
505.576	8517.84
505.779	8564.95
505.982	8483.03
506.185	8841.42
506.387	8736.98
506.59	9031.88
506.793	9070.79
506.996	9058.51
507.198	9066.7
507.401	9179.34
507.604	9316.55
507.807	9603.27
508.009	9259.21
508.212	9597.12
508.415	9789.63
508.617	9963.71
508.82	9818.3
509.022	9873.6
509.225	10191.03
509.428	10012.86
509.63	10311.86
509.833	10600.63
510.035	10711.22
510.238	10649.78
510.44	10883.25
510.643	10823.86
510.845	10973.36
511.048	11071.66
511.25	11417.77
511.453	11282.6
511.655	11514.02
511.858	11366.57
512.06	11532.45
512.262	11872.42
512.465	11825.31
512.667	11903.14
512.87	12196
513.072	12417.18
513.274	12511.38
513.477	12701.84
513.679	12681.36
513.881	12716.18
514.084	12941.46
514.286	12759.19
514.488	13054.09
514.69	13103.25
514.893	13293.71
515.095	13465.74
515.297	13750.4
515.499	13664.39
515.701	13963.39
515.904	13920.38
516.106	14067.84
516.308	14264.44
516.51	14438.52
516.712	14348.41
516.914	14565.5
517.116	14938.23
517.318	14780.53
517.52	14827.64
517.722	15124.59
517.925	15390.83
518.127	15728.74
518.329	15417.45
518.531	15437.93
518.733	15687.78
518.935	15634.53
519.136	15872.1
519.338	16181.34
519.54	16207.97
519.742	16515.16
519.944	16420.95
520.146	16769.11
520.348	16683.09
520.55	16943.19
520.752	16719.96
520.954	17492.04
521.155	17025.11
521.357	17231.95
521.559	17594.44
521.761	18042.95
521.963	17594.44
522.164	17877.06
522.366	17893.44
522.568	17934.4
522.77	18546.75
522.971	18430.01
523.173	18315.33
523.375	18397.24
523.576	18331.71
523.778	18686.01
523.98	18669.62
524.181	19050.55
524.383	19023.92
524.584	19464.24
524.786	19314.73
524.988	19224.62
525.189	19509.29
525.391	19361.84
525.592	19894.31
525.794	19486.76
525.995	19650.6
526.197	19843.11
526.398	19757.1
526.6	19859.49
526.801	20127.78
527.003	20232.22
527.204	20213.79
527.406	20332.58
527.607	20092.96
527.808	20400.16
528.01	20258.85
528.211	20420.64
528.412	20586.52
528.614	20699.16
528.815	20580.38
529.016	20924.44
529.218	20674.59
529.419	20668.44
529.62	20961.3
529.822	20611.1
530.023	21063.7
530.224	21202.96
530.425	21106.71
530.626	20719.64
530.828	20600.86
531.029	21217.3
531.23	21008.4
531.431	21000.21
531.632	21186.58
531.833	21260.3
532.035	21168.15
532.236	21071.89
532.437	21030.93
532.638	21010.45
532.839	21227.54
533.04	21438.48
533.241	21250.07
533.442	21461.01
533.643	21356.56
533.844	21155.86
534.045	21252.11
534.246	21110.8
534.447	21321.74
534.648	21016.6
534.849	21254.16
535.05	21057.56
535.251	21532.68
535.451	21104.66
535.652	21469.2
535.853	21162
536.054	21704.71
536.255	21418
536.456	21307.41
536.657	21450.77
536.857	21428.24
537.058	21221.39
537.259	21633.04
537.46	21485.58
537.66	21512.21
537.861	21483.53
538.062	21233.68
538.263	21497.87
538.463	21309.46
538.664	21313.55
538.865	21448.72
539.065	21626.89
539.266	21131.28
539.466	21254.16
539.667	20975.64
539.868	21563.4
540.068	21426.19
540.269	21155.86
540.469	21436.43
540.67	21123.09
540.87	21336.08
541.071	21524.49
541.271	21358.61
541.472	21495.82
541.672	21291.02
541.873	21209.11
542.073	21061.65
542.274	21561.36
542.474	21209.11
542.675	21336.08
542.875	21438.48
543.075	21317.65
543.276	20856.86
543.476	21145.62
543.676	21266.45
543.877	21366.8
544.077	20928.53
544.277	20807.7
544.478	21223.44
544.678	21600.27
544.878	21129.23
545.078	21143.57
545.279	21063.7
545.479	21094.42
545.679	21401.61
545.879	21078.04
546.079	21217.3
546.28	20865.05
546.48	21012.5
546.68	20940.82
546.88	21055.51
547.08	21125.14
547.28	21061.65
547.48	20906.01
547.68	20858.9
547.88	20877.33
548.081	21182.48
548.281	21086.23
548.481	20850.71
548.681	21362.7
548.881	21221.39
549.081	21112.85
549.28	21043.22
549.48	20969.49
549.68	20725.79
549.88	21286.93
550.08	20981.78
550.28	21217.3
550.48	21047.32
550.68	20942.87
550.88	20914.2
551.08	21051.41
551.279	21041.17
551.479	20656.15
551.679	20781.08
551.879	21147.67
552.079	20975.64
552.278	20897.81
552.478	20873.24
552.678	20840.47
552.878	20750.36
553.077	20971.54
553.277	20447.26
553.477	21143.57
553.676	20613.15
553.876	20727.83
554.076	20666.39
554.275	20736.02
554.475	20652.06
554.674	20891.67
554.874	20541.47
555.074	20727.83
555.273	20690.97
555.473	20998.16
555.672	20551.71
555.872	20662.3
556.071	20721.69
556.271	20750.36
556.47	20439.07
556.67	20193.31
556.869	20674.59
557.068	20670.49
557.268	20308
557.467	20539.42
557.667	20359.2
557.866	20516.89
558.065	20324.38
558.265	20074.53
558.464	20168.74
558.663	20217.89
558.863	20166.69
559.062	20607
559.261	20434.97
559.461	20473.88
559.66	20246.56
559.859	20254.75
560.058	19984.42
560.258	20342.81
560.457	19845.16
560.656	20338.72
560.855	20080.67
561.054	19902.5
561.253	19998.76
561.453	19943.46
561.652	19888.17
561.851	19804.2
562.05	19918.89
562.249	19779.62
562.448	19941.41
562.647	20121.63
562.846	19632.17
563.045	19599.4
563.244	19732.52
563.443	20060.2
563.642	19431.47
563.841	19748.9
564.04	19576.87
564.239	20049.96
564.438	19732.52
564.637	19900.45
564.836	19671.08
565.035	19497
565.234	19421.23
565.432	19431.47
565.631	19398.7
565.83	19611.69
566.029	19587.11
566.228	19224.62
566.427	19673.13
566.625	19097.65
566.824	19105.84
567.023	19408.94
567.222	18776.12
567.42	19220.53
567.619	19152.95
567.818	19132.47
568.016	18939.96
568.215	18958.39
568.414	18788.41
568.612	19107.89
568.811	18690.1
569.01	18982.96
569.208	18608.19
569.407	18831.41
569.605	18618.43
569.804	18905.14
570.002	18655.29
570.201	18663.48
570.4	18491.45
570.598	18311.23
570.797	18260.03
570.995	18284.61
571.193	18262.08
571.392	18427.96
571.59	18245.69
571.789	18163.78
571.987	18165.82
572.186	18194.5
572.384	18204.74
572.582	18255.93
572.781	18319.42
572.979	17961.03
573.177	18153.54
573.376	17956.93
573.574	17934.4
573.772	17934.4
573.971	17913.92
574.169	17586.25
574.367	17641.54
574.565	17987.65
574.763	17866.82
574.962	17551.43
575.16	17322.06
575.358	17600.58
575.556	17539.15
575.754	17664.07
575.952	17576.01
576.151	17422.41
576.349	17180.75
576.547	17156.18
576.745	17385.55
576.943	17260.62
577.141	17053.78
577.339	17387.6
577.537	17057.87
577.735	17234
577.933	16998.48
578.131	17371.21
578.329	16969.81
578.527	16699.48
578.725	17016.91
578.923	16879.7
579.121	16934.99
579.319	16748.63
579.516	16775.25
579.714	16885.84
579.912	16619.61
580.11	16343.13
580.308	16928.85
580.506	16351.32
580.704	16250.97
580.901	16423
581.099	16293.98
581.297	16377.95
581.495	16275.55
581.692	16398.43
581.89	16066.66
582.088	16336.99
582.285	16072.8
582.483	16351.32
582.681	16306.27
582.878	16070.75
583.076	15847.52
583.274	16150.62
583.471	15863.91
583.669	15956.07
583.866	15786.08
584.064	15929.44
584.262	15401.07
584.459	15720.55
584.657	15466.6
584.854	15808.61
585.052	15521.9
585.249	15468.65
585.447	15632.49
585.644	15417.45
585.841	15569
586.039	15345.77
586.236	15282.28
586.434	15226.99
586.631	15296.62
586.828	15226.99
587.026	15401.07
587.223	15339.63
587.42	15147.12
587.618	14977.14
587.815	14864.5
588.012	15157.36
588.21	14915.7
588.407	15085.68
588.604	14903.41
588.801	14798.96
588.999	14817.4
589.196	14887.03
589.393	14776.44
589.59	14493.82
589.787	14680.18
589.984	14557.3
590.182	14561.4
590.379	14510.2
590.576	14459
590.773	14389.37
590.97	14262.4
591.167	14250.11
591.364	14207.1
591.561	14309.5
591.758	14106.75
591.955	14002.3
592.152	14200.96
592.349	14205.05
592.546	14102.65
592.743	14067.84
592.94	13813.89
593.137	14098.56
593.334	13889.67
593.531	13580.42
593.727	13678.72
593.924	13715.59
594.121	13877.38
594.318	13516.94
594.515	13500.55
594.712	13774.98
594.908	13639.81
595.105	13602.95
595.302	13342.86
595.499	13658.24
595.696	13623.43
595.892	13639.81
596.089	13203.6
596.286	13394.06
596.482	13412.49
596.679	13199.5
596.876	13193.36
597.072	13105.29
597.269	13054.09
597.466	13219.98
597.662	13054.09
597.859	12923.02
598.055	12949.65
598.252	12808.34
598.448	12794
598.645	12720.28
598.841	12806.29
599.038	12845.2
599.234	12957.84
599.431	12716.18
599.627	12447.9
599.824	12591.25
600.02	12406.94
600.217	12779.67
600.413	12574.87
600.609	12578.97
600.806	12562.58
601.002	12341.4
601.198	12531.86
601.395	12163.23
601.591	12353.69
601.787	12077.21
601.984	12181.66
602.18	12511.38
602.376	12425.37
602.572	11919.52
602.769	12097.69
602.965	11925.66
603.161	12009.63
603.357	11972.77
603.553	11976.86
603.75	11774.11
603.946	11858.08
604.142	11774.11
604.338	11493.54
604.534	11786.4
604.73	11518.12
604.926	11874.46
605.122	11671.72
605.318	11514.02
605.514	11759.78
605.71	11475.11
605.906	11423.91
606.102	11692.19
606.298	11325.61
606.494	11647.14
606.69	11606.18
606.886	11264.17
607.082	11358.38
607.278	11362.47
607.474	11284.65
607.67	11270.31
607.866	11145.39
608.062	11219.11
608.257	11356.33
608.453	11167.91
608.649	11083.95
608.845	10977.45
609.041	10924.21
609.236	11083.95
609.432	10993.84
609.628	10977.45
609.824	10811.57
610.019	11014.32
610.215	10795.18
610.411	10973.36
610.606	10776.75
610.802	10870.96
610.998	10590.39
611.193	10735.79
611.389	10743.99
611.584	10768.56
611.78	10696.88
611.976	10567.86
612.171	10604.72
612.367	10746.03
612.562	10696.88
612.758	10602.68
612.953	10490.04
613.149	10653.87
613.344	10582.2
613.539	10717.36
613.735	10594.48
613.93	10606.77
614.126	10449.08
614.321	10463.41
614.517	10393.78
614.712	10309.82
614.907	10225.85
615.103	10305.72
615.298	10318.01
615.493	10342.58
615.688	10105.02
615.884	10350.78
616.079	9980.09
616.274	10309.82
616.47	10031.29
616.665	10246.33
616.86	10076.35
617.055	10074.3
617.25	10168.51
617.445	10270.9
617.641	9881.79
617.836	10211.51
618.031	9791.68
618.226	9900.22
618.421	9851.07
618.616	9959.61
618.811	9724.1
619.006	9892.03
619.201	9464
619.396	9765.06
619.591	9605.31
619.786	9554.12
619.981	9568.45
620.176	9699.52
620.371	9443.53
620.566	9427.14
620.761	9410.76
620.956	9447.62
621.151	9318.6
621.346	9386.18
621.541	9242.82
621.735	9453.77
621.93	9205.96
622.125	9097.42
622.32	9060.56
622.515	9148.62
622.709	9007.31
622.904	9099.47
623.099	8904.91
623.294	8900.81
623.488	8855.76
623.683	8855.76
623.878	8612.05
624.072	8837.33
624.267	8693.97
624.462	8546.51
624.656	8427.73
624.851	8411.35
625.046	8489.17
625.24	8419.54
625.435	8321.24
625.629	8245.46
625.824	8329.43
626.018	8345.81
626.213	8280.28
626.407	8042.71
626.602	8032.47
626.796	7925.98
626.991	8188.12
627.185	8069.34
627.38	7901.4
627.574	7844.06
627.768	7753.95
627.963	7944.41
628.157	7756
628.352	7819.49
628.546	7596.26
628.74	7817.44
628.935	7551.2
629.129	7592.16
629.323	7481.57
629.517	7438.56
629.712	7366.88
629.906	7198.95
630.1	7321.83
630.294	7446.76
630.489	7278.82
630.683	7151.85
630.877	7125.22
631.071	7153.9
631.265	7266.53
631.459	7074.03
631.653	6828.27
631.848	7024.87
632.042	7114.98
632.236	6906.09
632.43	7010.54
632.624	6979.82
632.818	6820.08
633.012	6873.32
633.206	6641.9
633.4	6906.09
633.594	6516.98
633.788	6836.46
633.982	6709.49
634.176	6592.75
634.369	6519.03
634.563	6742.25
634.757	6398.2
634.951	6656.24
635.145	6574.32
635.339	6445.3
635.533	6424.82
635.726	6205.69
635.92	6301.94
636.114	6236.41
636.308	6279.41
636.501	6244.6
636.695	6234.36
636.889	6179.06
637.083	6185.21
637.276	6021.37
637.47	6082.81
637.664	5961.98
637.857	5968.12
638.051	5886.2
638.244	5925.11
638.438	5906.68
638.632	5878.01
638.825	5957.88
639.019	5685.5
639.212	5669.12
639.406	5900.54
639.599	5654.78
639.793	5808.38
639.986	5667.07
640.18	5611.78
640.373	5673.21
640.567	5404.93
640.76	5558.53
640.954	5511.43
641.147	5380.36
641.34	5394.69
641.534	5366.02
641.727	5304.58
641.92	5400.83
642.114	5282.05
642.307	5368.07
642.5	5388.55
642.694	5122.31
642.887	5337.35
643.08	5226.76
643.273	5171.46
643.467	5069.06
643.66	5054.73
643.853	5038.34
644.046	5148.93
644.239	5112.07
644.432	5050.63
644.626	4987.15
644.819	4909.32
645.012	4985.1
645.205	4825.36
645.398	4845.84
645.591	4782.35
645.784	4737.29
645.977	4768.01
646.17	4825.36
646.363	4671.76
646.556	4710.67
646.749	4538.64
646.942	4626.7
647.135	4595.98
647.328	4587.79
647.521	4536.59
647.714	4530.45
647.907	4583.7
648.099	4421.91
648.292	4452.63
648.485	4419.86
648.678	4438.29
648.871	4454.67
649.064	4382.99
649.256	4284.69
649.449	4294.93
649.642	4303.12
649.835	4323.6
650.027	4116.76
650.22	4161.81
650.413	4225.3
650.605	4327.7
650.798	4153.62
650.991	4106.52
651.183	4069.66
651.376	4143.38
651.568	4024.6
651.761	3983.64
651.954	4079.9
652.146	3967.26
652.339	3963.16
652.531	3866.91
652.724	3959.06
652.916	3723.55
653.109	3760.41
653.301	3848.47
653.494	3848.47
653.686	3764.51
653.879	3658.01
654.071	3684.64
654.263	3768.6
654.456	3827.99
654.648	3756.32
654.84	3707.16
655.033	3631.39
655.225	3686.69
655.417	3705.12
655.61	3723.55
655.802	3608.86
655.994	3506.46
656.186	3668.25
656.379	3479.84
656.571	3615.01
656.763	3455.26
656.955	3508.51
657.148	3535.14
657.34	3420.45
657.532	3336.48
657.724	3363.11
657.916	3436.83
658.108	3246.37
658.3	3305.76
658.492	3322.15
658.684	3217.7
658.876	3254.56
659.068	3309.86
659.26	3182.88
659.452	3244.32
659.644	3162.41
659.836	3086.63
660.028	3223.84
660.22	3168.55
660.412	3229.99
660.604	3043.62
660.796	3215.65
660.988	3047.72
661.18	3109.16
661.372	2943.27
661.563	3135.78
661.755	3041.57
661.947	3019.05
662.139	2859.31
662.331	2990.38
662.522	2875.69
662.714	2973.99
662.906	2855.21
663.097	2857.26
663.289	2939.18
663.481	2742.57
663.673	2832.68
663.864	2728.24
664.056	2750.76
664.247	2767.15
664.439	2847.02
664.631	2836.78
664.822	2767.15
665.014	2769.2
665.205	2701.61
665.397	2761
665.588	2611.5
665.78	2525.49
665.971	2656.56
666.163	2730.28
666.354	2634.03
666.546	2617.65
666.737	2533.68
666.929	2586.93
667.12	2582.83
667.311	2574.64
667.503	2515.25
667.694	2541.87
667.885	2521.39
668.077	2570.54
668.268	2537.77
668.459	2451.76
668.651	2498.86
668.842	2459.95
669.033	2464.05
669.224	2339.12
669.416	2343.22
669.607	2402.61
669.798	2375.99
669.989	2343.22
670.18	2292.02
670.371	2296.11
670.563	2277.68
670.754	2375.99
670.945	2285.87
671.136	2343.22
671.327	2441.52
671.518	2314.55
671.709	2341.17
671.9	2292.02
672.091	2351.41
672.282	2226.48
672.473	2261.3
672.664	2136.37
672.855	2283.83
673.046	2246.96
673.237	2181.43
673.428	2175.28
673.619	2183.48
673.809	2181.43
674	2310.45
674.191	2154.8
674.382	2097.46
674.573	2132.28
674.764	2138.42
674.954	2111.8
675.145	2001.21
675.336	2091.32
675.527	2070.84
675.717	2124.08
675.908	2158.9
676.099	2027.83
676.289	1929.53
676.48	2062.65
676.671	1993.01
676.861	2009.4
677.052	2068.79
677.243	1984.82
677.433	1988.92
677.624	1931.58
677.814	1990.97
678.005	1941.82
678.195	2056.5
678.386	1995.06
678.576	2029.88
678.767	2050.36
678.957	1970.49
679.148	1993.01
679.338	1907
679.529	1902.9
679.719	1917.24
679.909	2029.88
680.1	1843.51
680.29	1874.23
680.481	2013.49
680.671	1839.42
680.861	1849.66
681.052	1913.14
681.242	1898.81
681.432	1890.62
681.622	1952.06
681.813	1849.66
682.003	1964.34
682.193	1861.94
682.383	1831.23
682.573	1896.76
682.764	1839.42
682.954	1866.04
683.144	1913.14
683.334	1847.61
683.524	1878.33
683.714	1917.24
683.904	1874.23
684.094	1847.61
684.284	1890.62
684.474	1876.28
684.664	1777.98
684.854	1831.23
685.044	1777.98
685.234	1761.59
685.424	1814.84
685.614	1796.41
685.804	1866.04
685.994	1833.27
686.184	1886.52
686.374	1730.87
686.564	1818.94
686.753	1802.55
686.943	1732.92
687.133	1800.51
687.323	1767.74
687.513	1857.85
687.702	1802.55
687.892	1659.2
688.082	1683.77
688.272	1777.98
688.461	1796.41
688.651	1679.68
688.841	1724.73
689.03	1683.77
689.22	1806.65
689.41	1630.52
689.599	1630.52
689.789	1702.2
689.979	1759.55
690.168	1603.9
690.358	1710.4
690.547	1653.05
690.737	1702.2
690.926	1642.81
691.116	1669.44
691.305	1734.97
691.495	1552.7
691.684	1591.61
691.874	1655.1
692.063	1712.44
692.252	1601.85
692.442	1599.8
692.631	1532.22
692.82	1540.41
693.01	1532.22
693.199	1581.37
693.388	1552.7
693.578	1528.13
693.767	1517.89
693.956	1593.66
694.146	1544.51
694.335	1519.93
694.524	1524.03
694.713	1743.16
694.902	1542.46
695.092	1581.37
695.281	1552.7
695.47	1577.28
695.659	1583.42
695.848	1483.07
696.037	1515.84
696.226	1470.78
696.415	1601.85
696.604	1595.71
696.793	1544.51
696.982	1620.28
697.171	1521.98
697.36	1452.35
697.549	1548.61
697.738	1405.25
697.927	1448.26
698.116	1489.21
698.305	1483.07
698.494	1456.45
698.683	1446.21
698.872	1448.26
699.061	1487.17
699.25	1444.16
699.438	1470.78
699.627	1349.95
699.816	1454.4
700.005	1372.48
700.193	1456.45
700.382	1538.37
700.571	1347.9
700.76	1388.86
700.948	1423.68
701.137	1423.68
701.326	1423.68
701.514	1423.68
701.703	1446.21
701.892	1241.41
702.08	1347.9
702.269	1368.38
702.457	1407.3
702.646	1352
702.834	1392.96
703.023	1364.29
703.212	1384.77
703.4	1325.38
703.589	1343.81
703.777	1292.61
703.965	1302.85
704.154	1356.1
704.342	1349.95
704.531	1284.42
704.719	1186.12
704.907	1388.86
705.096	1259.84
705.284	1419.58
705.472	1263.94
705.661	1294.66
705.849	1341.76
706.037	1276.23
706.226	1261.89
706.414	1284.42
706.602	1417.54
706.79	1290.56
706.979	1288.51
707.167	1274.18
707.355	1347.9
707.543	1274.18
707.731	1292.61
707.919	1239.36
708.107	1308.99
708.296	1274.18
708.484	1354.05
708.672	1364.29
708.86	1288.51
709.048	1325.38
709.236	1308.99
709.424	1235.27
709.612	1327.43
709.8	1399.1
709.988	1200.45
710.176	1204.55
710.364	1212.74
710.551	1233.22
710.739	1290.56
710.927	1317.19
711.115	1136.96
711.303	1274.18
711.491	1327.43
711.679	1239.36
711.866	1261.89
712.054	1227.07
712.242	1179.97
712.43	1206.59
712.617	1192.26
712.805	1163.59
712.993	1229.12
713.181	1167.68
713.368	1327.43
713.556	1179.97
713.744	1208.64
713.931	1214.79
714.119	1161.54
714.306	1177.92
714.494	1155.4
714.682	1274.18
714.869	1175.88
715.057	1169.73
715.244	1173.83
715.432	1165.64
715.619	1155.4
715.807	1134.92
715.994	1155.4
716.182	1249.6
716.369	1141.06
716.556	1155.4
716.744	1079.62
716.931	1126.72
717.119	1251.65
717.306	1159.49
717.493	1108.29
717.681	1163.59
717.868	1104.2
718.055	1196.36
718.242	1120.58
718.43	1073.48
718.617	1071.43
718.804	1079.62
718.991	1208.64
719.179	1190.21
719.366	1153.35
719.553	1093.96
719.74	1085.76
719.927	1192.26
720.114	1132.87
720.301	1073.48
720.488	1050.95
720.676	1055.05
720.863	1128.77
721.05	1175.88
721.237	1089.86
721.424	1104.2
721.611	1169.73
721.798	1134.92
721.985	1098.05
722.172	1134.92
722.358	1108.29
722.545	1079.62
722.732	1106.24
722.919	1042.76
723.106	1073.48
723.293	1071.43
723.48	993.61
723.667	1139.01
723.853	1040.71
724.04	1007.94
724.227	997.7
724.414	1020.23
724.6	1102.15
724.787	1089.86
724.974	1100.1
725.161	1085.76
725.347	1042.76
725.534	1091.91
725.72	1024.33
725.907	966.98
726.094	1067.33
726.28	1100.1
726.467	1036.61
726.653	1014.09
726.84	1110.34
727.027	1048.9
727.213	1026.37
727.4	999.75
727.586	989.51
727.773	1018.18
727.959	1050.95
728.145	1044.81
728.332	1091.91
728.518	1061.19
728.705	1126.72
728.891	989.51
729.077	1063.24
729.264	1044.81
729.45	997.7
729.636	1024.33
729.823	969.03
730.009	1087.81
730.195	1028.42
730.382	1018.18
730.568	1024.33
730.754	989.51
730.94	1071.43
731.126	1100.1
731.313	1053
731.499	995.65
731.685	1020.23
731.871	1206.59
732.057	1001.8
732.243	1093.96
732.429	987.46
732.615	991.56
732.801	1007.94
732.987	1024.33
733.173	1079.62
733.359	995.65
733.545	1022.28
733.731	1067.33
733.917	956.74
734.103	1020.23
734.289	964.93
734.475	930.12
734.661	1028.42
734.847	987.46
735.033	938.31
735.219	1018.18
735.404	971.08
735.59	1009.99
735.776	975.17
735.962	862.54
736.148	995.65
736.333	991.56
736.519	991.56
736.705	1003.85
736.89	954.69
737.076	1077.57
737.262	934.22
737.447	977.22
737.633	977.22
737.819	975.17
738.004	1022.28
738.19	999.75
738.375	954.69
738.561	1030.47
738.747	948.55
738.932	1032.52
739.118	1063.24
739.303	950.6
739.489	997.7
739.674	889.16
739.859	946.5
740.045	969.03
740.23	960.84
740.416	956.74
740.601	897.35
740.786	1022.28
740.972	915.78
741.157	930.12
741.342	962.89
741.528	940.36
741.713	940.36
741.898	926.02
742.084	932.17
742.269	991.56
742.454	905.54
742.639	1007.94
742.824	870.73
743.01	950.6
743.195	880.97
743.38	954.69
743.565	991.56
743.75	885.06
743.935	887.11
744.12	893.26
744.305	956.74
744.49	987.46
744.675	919.88
744.86	860.49
745.045	846.15
745.23	915.78
745.415	932.17
745.6	946.5
745.785	901.45
745.97	926.02
746.155	878.92
746.34	903.5
746.525	926.02
746.71	827.72
746.895	842.06
747.079	797
747.264	850.25
747.449	819.53
747.634	889.16
747.819	852.3
748.003	850.25
748.188	842.06
748.373	848.2
748.557	774.47
748.742	874.82
748.927	891.21
749.111	821.58
749.296	758.09
749.481	792.91
749.665	780.62
749.85	801.1
750.034	797
750.219	751.95
750.404	774.47
750.588	809.29
750.773	710.99
750.957	786.76
751.141	749.9
751.326	692.55
751.51	807.24
751.695	731.47
751.879	776.52
752.064	817.48
752.248	745.8
752.432	713.03
752.617	715.08
752.801	776.52
752.985	743.75
753.17	753.99
753.354	692.55
753.538	651.6
753.722	688.46
753.907	743.75
754.091	653.64
754.275	665.93
754.459	590.16
754.643	665.93
754.828	647.5
755.012	680.27
755.196	594.25
755.38	610.64
755.564	702.79
755.748	663.88
755.932	659.79
756.116	696.65
756.3	594.25
756.484	663.88
756.668	608.59
756.852	577.87
757.036	516.43
757.22	649.55
757.404	612.68
757.588	565.58
757.772	586.06
757.956	538.96
758.14	622.92
758.323	688.46
758.507	538.96
758.691	575.82
758.875	567.63
759.059	592.2
759.242	575.82
759.426	647.5
759.61	522.57
759.794	563.53
759.977	565.58
760.161	541.01
760.345	594.25
760.528	563.53
760.712	571.72
760.895	516.43
761.079	594.25
761.263	563.53
761.446	581.96
761.63	584.01
761.813	461.13
761.997	538.96
762.18	532.81
762.364	553.29
762.547	500.05
762.731	522.57
762.914	506.19
763.098	522.57
763.281	516.43
763.464	522.57
763.648	485.71
763.831	553.29
764.015	479.57
764.198	414.03
764.381	534.86
764.564	471.37
764.748	444.75
764.931	489.81
765.114	395.6
765.297	442.7
765.481	477.52
765.664	559.44
765.847	483.66
766.03	512.33
766.213	487.76
766.397	563.53
766.58	450.89
766.763	504.14
766.946	430.41
767.129	520.53
767.312	457.04
767.495	450.89
767.678	434.51
767.861	448.85
768.044	426.32
768.227	434.51
768.41	498
768.593	516.43
768.776	506.19
768.959	438.61
769.142	399.7
769.324	481.61
769.507	457.04
769.69	399.7
769.873	395.6
770.056	438.61
770.239	438.61
770.421	547.15
770.604	381.26
770.787	438.61
770.97	422.22
771.152	454.99
771.335	379.22
771.518	493.9
771.7	438.61
771.883	520.53
772.066	434.51
772.248	383.31
772.431	399.7
772.613	422.22
772.796	407.89
772.978	448.85
773.161	414.03
773.343	442.7
773.526	414.03
773.708	356.69
773.891	317.78
774.073	295.25
774.256	485.71
774.438	481.61
774.621	338.26
774.803	391.5
774.985	391.5
775.168	401.74
775.35	366.93
775.532	416.08
775.715	407.89
775.897	356.69
776.079	278.87
776.261	354.64
776.444	432.46
776.626	334.16
776.808	305.49
776.99	397.65
777.173	287.06
777.355	350.54
777.537	354.64
777.719	237.91
777.901	299.34
778.083	387.41
778.265	285.01
778.447	321.87
778.629	248.15
778.811	381.26
778.993	342.35
779.175	301.39
779.357	342.35
779.539	268.63
779.721	323.92
779.903	313.68
780.085	221.52
780.267	360.78
780.449	307.54
780.631	239.95
780.812	330.06
780.994	299.34
781.176	309.58
781.358	301.39
781.54	223.57
781.721	336.21
781.903	239.95
782.085	258.39
782.267	338.26
782.448	293.2
782.63	256.34
782.812	268.63
782.993	188.75
783.175	246.1
783.357	305.49
783.538	317.78
783.72	250.19
783.901	256.34
784.083	293.2
784.264	278.87
784.446	209.23
784.627	176.47
784.809	305.49
784.99	244.05
785.172	106.84
785.353	215.38
785.535	194.9
785.716	221.52
785.897	266.58
786.079	266.58
786.26	180.56
786.441	285.01
786.623	203.09
786.804	209.23
786.985	172.37
787.167	176.47
787.348	209.23
787.529	272.72
787.71	268.63
787.891	213.33
788.073	237.91
788.254	213.33
788.435	184.66
788.616	194.9
788.797	164.18
788.978	307.54
789.159	143.7
789.34	225.62
789.522	211.28
789.703	145.75
789.884	196.95
790.065	219.47
790.246	258.39
790.427	153.94
790.607	258.39
790.788	203.09
790.969	223.57
791.15	260.43
791.331	121.17
791.512	133.46
791.693	203.09
791.874	160.08
792.054	211.28
792.235	221.52
792.416	106.84
792.597	135.51
792.778	145.75
792.958	194.9
793.139	174.42
793.32	244.05
793.5	121.17
793.681	170.32
793.862	186.71
794.042	182.61
794.223	112.98
794.404	102.74
794.584	184.66
794.765	180.56
794.945	98.64
795.126	178.51
795.306	153.94
795.487	186.71
795.667	176.47
795.848	172.37
796.028	137.56
796.209	110.93
796.389	117.08
796.57	106.84
796.75	131.41
796.93	174.42
797.111	160.08
797.291	104.79
797.471	110.93
797.652	176.47
797.832	149.84
798.012	186.71
798.192	172.37
798.373	129.36
798.553	155.99
798.733	158.03
798.913	119.12
799.093	117.08
799.274	127.32
799.454	149.84
799.634	149.84
799.814	59.73
799.994	201.04
800.174	141.65
800.354	201.04
800.534	100.69
800.714	117.08
800.894	139.6
801.074	139.6
801.254	119.12
801.434	125.27
801.614	168.27
801.794	121.17
801.974	356.69
802.154	112.98
802.334	137.56
802.514	80.21
802.693	158.03
802.873	119.12
803.053	119.12
803.233	131.41
803.413	141.65
803.592	209.23
803.772	80.21
803.952	119.12
804.131	141.65
804.311	141.65
804.491	125.27
804.67	153.94
804.85	55.64
805.03	108.88
805.209	123.22
805.389	88.4
805.568	115.03
805.748	135.51
805.928	119.12
806.107	110.93
806.287	51.54
806.466	59.73
806.646	98.64
806.825	55.64
807.004	92.5
807.184	131.41
807.363	141.65
807.543	92.5
807.722	96.6
807.901	115.03
808.081	90.45
808.26	110.93
808.439	129.36
808.619	67.92
808.798	133.46
808.977	162.13
809.156	225.62
809.336	31.06
809.515	98.64
809.694	96.6
809.873	108.88
810.052	112.98
810.231	45.4
810.411	94.55
810.59	112.98
810.769	72.02
810.948	57.68
811.127	98.64
811.306	145.75
811.485	100.69
811.664	69.97
811.843	155.99
812.022	47.44
812.201	106.84
812.38	37.2
812.559	100.69
812.737	82.26
812.916	59.73
813.095	14.68
813.274	94.55
813.453	123.22
813.632	76.12
813.811	92.5
813.989	104.79
814.168	80.21
814.347	76.12
814.526	-11.95
814.704	94.55
814.883	57.68
815.062	61.78
815.24	78.16
815.419	106.84
815.598	86.36
815.776	74.07
815.955	45.4
816.133	20.82
816.312	139.6
816.49	162.13
816.669	137.56
816.847	110.93
817.026	31.06
817.204	112.98
817.383	94.55
817.561	-11.95
817.74	16.73
817.918	41.3
818.097	31.06
818.275	57.68
818.453	78.16
818.632	59.73
818.81	106.84
818.988	14.68
819.167	61.78
819.345	35.16
819.523	72.02
819.701	43.35
819.879	147.8
820.058	10.58
820.236	47.44
820.414	-9.9
820.592	55.64
820.77	37.2
820.948	86.36
821.127	41.3
821.305	100.69
821.483	125.27
821.661	90.45
821.839	74.07
822.017	49.49
822.195	20.82
822.373	102.74
822.551	8.53
822.729	51.54
822.907	47.44
823.085	55.64
823.262	63.83
823.44	-34.47
823.618	14.68
823.796	151.89
823.974	31.06
824.152	61.78
824.329	31.06
824.507	45.4
824.685	72.02
824.863	82.26
825.04	18.77
825.218	102.74
825.396	76.12
825.574	33.11
825.751	59.73
825.929	20.82
826.107	35.16
826.284	110.93
826.462	20.82
826.639	47.44
826.817	16.73
826.994	76.12
827.172	37.2
827.349	-9.9
827.527	53.59
827.704	125.27
827.882	63.83
828.059	84.31
828.237	35.16
828.414	67.92
828.591	-30.38
828.769	69.97
828.946	31.06
829.124	43.35
829.301	-3.75
829.478	20.82
829.655	74.07
829.833	18.77
830.01	74.07
830.187	67.92
830.364	86.36
830.542	39.25
830.719	74.07
830.896	41.3
831.073	-5.8
831.25	72.02
831.427	82.26
831.604	35.16
831.782	-18.09
831.959	110.93
832.136	78.16
832.313	20.82
832.49	100.69
832.667	84.31
832.844	12.63
833.021	57.68
833.198	43.35
833.374	76.12
833.551	43.35
833.728	74.07
833.905	88.4
834.082	12.63
834.259	16.73
834.436	16.73
834.612	37.2
834.789	76.12
834.966	57.68
835.143	8.53
835.319	-54.95
835.496	47.44
835.673	69.97
835.85	-11.95
836.026	18.77
836.203	59.73
836.38	-34.47
836.556	49.49
836.733	82.26
836.909	-3.75
837.086	31.06
837.262	0.34
837.439	-24.23
837.616	8.53
837.792	51.54
837.968	8.53
838.145	78.16
838.321	-26.28
838.498	10.58
838.674	37.2
838.851	-42.67
839.027	26.96
839.203	24.92
839.38	10.58
839.556	20.82
839.732	108.88
839.909	-65.19
840.085	-7.85
840.261	53.59
840.437	22.87
840.614	4.44
840.79	53.59
840.966	29.01
841.142	-1.71
841.318	-28.33
841.494	80.21
841.671	53.59
841.847	55.64
842.023	94.55
842.199	31.06
842.375	53.59
842.551	74.07
842.727	-1.71
842.903	61.78
843.079	-46.76
843.255	61.78
843.431	6.49
843.607	20.82
843.783	-40.62
843.959	43.35
844.134	65.88
844.31	12.63
844.486	6.49
844.662	8.53
844.838	59.73
845.013	47.44
845.189	31.06
845.365	8.53
845.541	37.2
845.716	78.16
845.892	45.4
846.068	72.02
846.244	22.87
846.419	-22.19
846.595	37.2
846.77	14.68
846.946	41.3
847.122	4.44
847.297	22.87
847.473	-22.19
847.648	-13.99
847.824	0.34
847.999	65.88
848.175	0.34
848.35	63.83
848.526	98.64
848.701	-9.9
848.876	-22.19
849.052	-11.95
849.227	90.45
849.403	-46.76
849.578	74.07
849.753	57.68
849.929	57.68
850.104	-91.82
850.279	33.11
850.454	41.3
850.63	33.11
850.805	14.68
850.98	41.3
851.155	-30.38
851.33	29.01
851.505	-7.85
851.681	47.44
851.856	-30.38
852.031	61.78
852.206	74.07
852.381	29.01
852.556	69.97
852.731	12.63
852.906	14.68
853.081	12.63
853.256	-1.71
853.431	20.82
853.606	-54.95
853.781	6.49
853.956	33.11
854.131	20.82
854.305	-11.95
854.48	-36.52
854.655	-5.8
854.83	69.97
855.005	-32.43
855.18	131.41
855.354	8.53
855.529	22.87
855.704	-28.33
855.879	57.68
856.053	-13.99
856.228	4.44
856.403	-11.95
856.577	14.68
856.752	-3.75
856.926	18.77
857.101	37.2
857.276	-38.57
857.45	-1.71
857.625	-22.19
857.799	-1.71
857.974	6.49
858.148	-1.71
858.323	-11.95
858.497	12.63
858.672	14.68
858.846	18.77
859.02	35.16
859.195	26.96
859.369	-24.23
859.543	0.34
859.718	6.49
859.892	-1.71
860.066	-16.04
860.241	8.53
860.415	6.49
860.589	33.11
860.763	2.39
860.938	33.11
861.112	29.01
861.286	-13.99
861.46	22.87
861.634	-5.8
861.808	14.68
861.982	78.16
862.157	-32.43
862.331	-9.9
862.505	49.49
862.679	49.49
862.853	-28.33
863.027	-9.9
863.201	8.53
863.375	43.35
863.549	4.44
863.722	-40.62
863.896	24.92
864.07	33.11
864.244	-48.81
864.418	26.96
864.592	-13.99
864.766	6.49
864.939	29.01
865.113	31.06
865.287	4.44
865.461	-28.33
865.634	26.96
865.808	-11.95
865.982	12.63
866.156	53.59
866.329	-32.43
866.503	-3.75
866.676	39.25
866.85	22.87
867.024	29.01
867.197	45.4
867.371	-28.33
867.544	-24.23
867.718	22.87
867.891	18.77
868.065	-13.99
868.238	4.44
868.412	-42.67
868.585	-48.81
868.759	-11.95
868.932	-46.76
869.105	-11.95
869.279	45.4
869.452	51.54
869.625	-28.33
869.799	4.44
869.972	-69.29
870.145	49.49
870.319	43.35
870.492	35.16
870.665	45.4
870.838	22.87
871.011	-65.19
871.185	-34.47
871.358	-26.28
871.531	8.53
871.704	49.49
871.877	-40.62
872.05	4.44
872.223	18.77
872.396	-59.05
872.569	41.3
872.742	24.92
872.915	41.3
873.088	-24.23
873.261	-9.9
873.434	29.01
873.607	94.55
873.78	6.49
873.953	-1.71
874.126	-26.28
874.299	24.92
874.471	47.44
874.644	41.3
874.817	2.39
874.99	22.87
875.163	14.68
875.335	35.16
875.508	-34.47
875.681	69.97
875.853	47.44
876.026	37.2
876.199	-24.23
876.371	26.96
876.544	-44.71
876.717	-1.71
876.889	35.16
877.062	20.82
877.234	-20.14
877.407	14.68
877.579	-1.71
877.752	-13.99
877.924	82.26
878.097	-1.71
878.269	6.49
878.442	8.53
878.614	20.82
878.786	20.82
878.959	-7.85
879.131	35.16
879.303	39.25
879.476	51.54
879.648	-1.71
879.82	110.93
879.993	4.44
880.165	53.59
880.337	4.44
880.509	-52.91
880.681	53.59
880.854	49.49
881.026	0.34
881.198	-26.28
881.37	-16.04
881.542	14.68
881.714	2.39
881.886	69.97
882.058	4.44
882.23	-42.67
882.402	53.59
882.574	-5.8
882.746	-9.9
882.918	-11.95
883.09	10.58
883.262	-24.23
883.434	67.92
883.606	8.53
883.778	10.58
883.95	-61.1
884.122	-52.91
884.293	80.21
884.465	-44.71
884.637	-11.95
884.809	-34.47
884.98	39.25
885.152	12.63
885.324	-28.33
885.496	29.01
885.667	-1.71
885.839	41.3
886.011	29.01
886.182	53.59
886.354	-5.8
886.525	8.53
886.697	33.11
886.869	-1.71
887.04	51.54
887.212	-7.85
887.383	12.63
887.555	20.82
887.726	-18.09
887.897	-20.14
888.069	102.74
888.24	10.58
888.412	16.73
888.583	-57
888.754	39.25
888.926	16.73
889.097	-16.04
889.268	20.82
889.44	43.35
889.611	6.49
889.782	-22.19
889.953	33.11
890.125	43.35
890.296	-20.14
890.467	31.06
890.638	14.68
890.809	0.34
890.98	6.49
891.151	-11.95
891.323	39.25
891.494	33.11
891.665	4.44
891.836	14.68
892.007	29.01
892.178	-24.23
892.349	-9.9
892.52	14.68
892.691	16.73
892.862	24.92
893.032	12.63
893.203	53.59
893.374	8.53
893.545	47.44
893.716	24.92
893.887	-52.91
894.057	59.73
894.228	-59.05
894.399	-3.75
894.57	-1.71
894.74	63.83
894.911	37.2
895.082	-7.85
895.253	22.87
895.423	35.16
895.594	-1.71
895.764	35.16
895.935	-5.8
896.106	-9.9
896.276	24.92
896.447	-28.33
896.617	-13.99
896.788	-61.1
896.958	-13.99
897.129	26.96
897.299	-36.52
897.47	33.11
897.64	96.6
897.81	-44.71
897.981	59.73
898.151	10.58
898.322	45.4
898.492	47.44
898.662	-11.95
898.832	47.44
899.003	-28.33
899.173	6.49
899.343	31.06
899.513	8.53
