Data from USB4F104151__35__12-53-40-486.txt Node

Date: Fri Mar 14 12:53:40 EDT 2025
User: louis
Spectrometer: USB4F10415
Trigger mode: 4
Integration Time (sec): 1.000000E-2
Scans to average: 1
Electric dark correction enabled: true
Nonlinearity correction enabled: false
Boxcar width: 0
XAxis mode: Wavelengths
Number of Pixels in Spectrum: 3648
>>>>>Begin Spectral Data<<<<<
178.204	28.33
178.424	28.33
178.644	28.33
178.864	-55.64
179.084	-12.63
179.304	-49.49
179.524	9.9
179.744	-4.44
179.964	1.71
180.184	30.38
180.404	-22.87
180.624	-10.58
180.844	-24.92
181.064	20.14
181.283	13.99
181.503	22.19
181.723	13.99
181.943	28.33
182.163	-2.39
182.383	46.76
182.602	44.71
182.822	-12.63
183.042	59.05
183.262	-53.59
183.482	-39.25
183.701	7.85
183.921	36.52
184.141	77.48
184.361	67.24
184.58	30.38
184.8	3.75
185.02	77.48
185.239	20.14
185.459	50.86
185.679	5.8
185.898	32.43
186.118	-18.77
186.338	13.99
186.557	40.62
186.777	30.38
186.997	87.72
187.216	46.76
187.436	52.91
187.655	13.99
187.875	63.15
188.095	-20.82
188.314	-6.49
188.534	59.05
188.753	77.48
188.973	73.39
189.192	-37.2
189.412	13.99
189.631	-39.25
189.851	-8.53
190.07	67.24
190.29	3.75
190.509	50.86
190.729	46.76
190.948	30.38
191.168	34.47
191.387	87.72
191.607	28.33
191.826	-20.82
192.045	-63.83
192.265	16.04
192.484	24.23
192.704	1.71
192.923	-4.44
193.142	-31.06
193.362	32.43
193.581	65.19
193.8	-39.25
194.02	16.04
194.239	18.09
194.458	20.14
194.678	-6.49
194.897	-53.59
195.116	28.33
195.335	57
195.555	-2.39
195.774	-0.34
195.993	40.62
196.212	26.28
196.432	-35.16
196.651	22.19
196.87	-24.92
197.089	-16.73
197.308	52.91
197.528	-29.01
197.747	18.09
197.966	52.91
198.185	-35.16
198.404	-10.58
198.623	-8.53
198.842	61.1
199.062	30.38
199.281	-39.25
199.5	-20.82
199.719	-18.77
199.938	5.8
200.157	57
200.376	18.09
200.595	61.1
200.814	-57.68
201.033	28.33
201.252	59.05
201.471	-6.49
201.69	3.75
201.909	32.43
202.128	34.47
202.347	36.52
202.566	42.67
202.785	89.77
203.004	-20.82
203.223	46.76
203.442	30.38
203.661	-35.16
203.879	3.75
204.098	57
204.317	-61.78
204.536	-2.39
204.755	40.62
204.974	36.52
205.193	-31.06
205.411	67.24
205.63	30.38
205.849	-14.68
206.068	83.63
206.287	52.91
206.505	20.14
206.724	26.28
206.943	-14.68
207.162	-6.49
207.381	-74.07
207.599	46.76
207.818	-57.68
208.037	16.04
208.255	-57.68
208.474	108.2
208.693	67.24
208.911	34.47
209.13	36.52
209.349	57
209.567	5.8
209.786	11.95
210.005	22.19
210.223	114.34
210.442	26.28
210.661	22.19
210.879	61.1
211.098	7.85
211.316	-41.3
211.535	-8.53
211.753	48.81
211.972	11.95
212.191	3.75
212.409	50.86
212.628	-2.39
212.846	71.34
213.065	3.75
213.283	93.87
213.502	-6.49
213.72	26.28
213.938	-10.58
214.157	13.99
214.375	40.62
214.594	1.71
214.812	42.67
215.031	-29.01
215.249	11.95
215.467	20.14
215.686	42.67
215.904	34.47
216.122	-6.49
216.341	83.63
216.559	91.82
216.778	75.43
216.996	-41.3
217.214	5.8
217.432	18.09
217.651	20.14
217.869	16.04
218.087	30.38
218.306	28.33
218.524	-20.82
218.742	24.23
218.96	-10.58
219.179	-12.63
219.397	44.71
219.615	89.77
219.833	34.47
220.051	-45.4
220.27	-8.53
220.488	30.38
220.706	28.33
220.924	9.9
221.142	59.05
221.36	-26.96
221.578	28.33
221.796	20.14
222.015	75.43
222.233	83.63
222.451	-6.49
222.669	36.52
222.887	42.67
223.105	-12.63
223.323	30.38
223.541	18.09
223.759	-57.68
223.977	22.19
224.195	44.71
224.413	50.86
224.631	-20.82
224.849	13.99
225.067	85.67
225.285	1.71
225.503	-24.92
225.721	1.71
225.939	-51.54
226.157	46.76
226.375	-16.73
226.592	-22.87
226.81	65.19
227.028	26.28
227.246	32.43
227.464	-4.44
227.682	59.05
227.9	63.15
228.117	32.43
228.335	-8.53
228.553	-10.58
228.771	7.85
228.989	81.58
229.206	120.49
229.424	-31.06
229.642	50.86
229.86	54.95
230.077	52.91
230.295	30.38
230.513	9.9
230.731	100.01
230.948	36.52
231.166	44.71
231.384	-6.49
231.601	7.85
231.819	-16.73
232.037	-35.16
232.254	-65.88
232.472	42.67
232.689	38.57
232.907	44.71
233.125	30.38
233.342	18.09
233.56	48.81
233.777	26.28
233.995	-12.63
234.213	38.57
234.43	34.47
234.648	13.99
234.865	-22.87
235.083	89.77
235.3	13.99
235.518	-49.49
235.735	34.47
235.953	40.62
236.17	42.67
236.388	42.67
236.605	42.67
236.822	91.82
237.04	79.53
237.257	-53.59
237.475	-16.73
237.692	-0.34
237.909	102.06
238.127	20.14
238.344	28.33
238.562	-45.4
238.779	-4.44
238.996	69.29
239.214	1.71
239.431	36.52
239.648	26.28
239.865	28.33
240.083	-6.49
240.3	-35.16
240.517	-6.49
240.735	-2.39
240.952	-33.11
241.169	13.99
241.386	22.19
241.603	18.09
241.821	-29.01
242.038	20.14
242.255	40.62
242.472	18.09
242.689	-4.44
242.907	-12.63
243.124	-57.68
243.341	24.23
243.558	9.9
243.775	24.23
243.992	83.63
244.209	59.05
244.426	-0.34
244.643	5.8
244.86	26.28
245.078	95.91
245.295	28.33
245.512	-0.34
245.729	-12.63
245.946	-20.82
246.163	13.99
246.38	69.29
246.597	13.99
246.814	34.47
247.031	18.09
247.248	46.76
247.464	-33.11
247.681	13.99
247.898	46.76
248.115	100.01
248.332	22.19
248.549	26.28
248.766	20.14
248.983	50.86
249.2	59.05
249.417	61.1
249.633	3.75
249.85	40.62
250.067	34.47
250.284	20.14
250.501	-10.58
250.717	-10.58
250.934	57
251.151	81.58
251.368	-22.87
251.585	54.95
251.801	-37.2
252.018	42.67
252.235	-6.49
252.451	26.28
252.668	3.75
252.885	36.52
253.102	13.99
253.318	13.99
253.535	3.75
253.752	-14.68
253.968	48.81
254.185	-16.73
254.401	61.1
254.618	-12.63
254.835	-10.58
255.051	-10.58
255.268	-16.73
255.484	-18.77
255.701	-18.77
255.917	52.91
256.134	38.57
256.351	48.81
256.567	13.99
256.784	-31.06
257	30.38
257.217	52.91
257.433	1.71
257.65	-31.06
257.866	16.04
258.082	-0.34
258.299	36.52
258.515	11.95
258.732	-49.49
258.948	-0.34
259.165	18.09
259.381	79.53
259.597	26.28
259.814	28.33
260.03	-29.01
260.246	59.05
260.463	63.15
260.679	22.19
260.895	83.63
261.112	40.62
261.328	3.75
261.544	24.23
261.761	87.72
261.977	73.39
262.193	9.9
262.409	46.76
262.626	54.95
262.842	-55.64
263.058	-86.36
263.274	79.53
263.49	26.28
263.707	-12.63
263.923	-16.73
264.139	-6.49
264.355	91.82
264.571	114.34
264.787	34.47
265.004	46.76
265.22	-26.96
265.436	11.95
265.652	-41.3
265.868	26.28
266.084	-2.39
266.3	36.52
266.516	18.09
266.732	69.29
266.948	20.14
267.164	-29.01
267.38	30.38
267.596	-12.63
267.812	54.95
268.028	110.25
268.244	-2.39
268.46	54.95
268.676	-29.01
268.892	59.05
269.108	50.86
269.324	67.24
269.54	-10.58
269.756	71.34
269.972	-41.3
270.188	79.53
270.403	9.9
270.619	44.71
270.835	34.47
271.051	50.86
271.267	16.04
271.483	7.85
271.698	34.47
271.914	26.28
272.13	-10.58
272.346	63.15
272.562	36.52
272.777	11.95
272.993	38.57
273.209	30.38
273.425	5.8
273.64	28.33
273.856	28.33
274.072	91.82
274.287	-22.87
274.503	24.23
274.719	9.9
274.934	50.86
275.15	-6.49
275.366	-18.77
275.581	32.43
275.797	32.43
276.012	3.75
276.228	36.52
276.444	-39.25
276.659	-65.88
276.875	52.91
277.09	42.67
277.306	16.04
277.521	18.09
277.737	-37.2
277.952	11.95
278.168	-12.63
278.383	46.76
278.599	13.99
278.814	7.85
279.03	-0.34
279.245	65.19
279.461	73.39
279.676	69.29
279.892	-6.49
280.107	40.62
280.322	40.62
280.538	102.06
280.753	-12.63
280.969	-29.01
281.184	-47.44
281.399	69.29
281.615	20.14
281.83	34.47
282.045	-41.3
282.26	40.62
282.476	30.38
282.691	-0.34
282.906	48.81
283.122	-39.25
283.337	26.28
283.552	48.81
283.767	13.99
283.983	-0.34
284.198	40.62
284.413	24.23
284.628	9.9
284.843	18.09
285.058	65.19
285.274	3.75
285.489	-12.63
285.704	-20.82
285.919	-22.87
286.134	57
286.349	54.95
286.564	-6.49
286.779	20.14
286.995	24.23
287.21	20.14
287.425	20.14
287.64	18.09
287.855	34.47
288.07	28.33
288.285	57
288.5	28.33
288.715	7.85
288.93	18.09
289.145	16.04
289.36	11.95
289.575	-29.01
289.79	20.14
290.004	30.38
290.219	59.05
290.434	50.86
290.649	52.91
290.864	54.95
291.079	79.53
291.294	120.49
291.509	36.52
291.724	67.24
291.938	26.28
292.153	13.99
292.368	71.34
292.583	40.62
292.798	28.33
293.012	22.19
293.227	-74.07
293.442	34.47
293.657	-20.82
293.871	69.29
294.086	-20.82
294.301	61.1
294.516	-63.83
294.73	30.38
294.945	1.71
295.16	-0.34
295.374	34.47
295.589	24.23
295.804	-24.92
296.018	-16.73
296.233	-33.11
296.447	75.43
296.662	95.91
296.877	54.95
297.091	-0.34
297.306	30.38
297.52	26.28
297.735	95.91
297.949	73.39
298.164	3.75
298.378	-10.58
298.593	81.58
298.807	22.19
299.022	9.9
299.236	52.91
299.451	52.91
299.665	91.82
299.88	32.43
300.094	71.34
300.309	-2.39
300.523	-4.44
300.737	18.09
300.952	44.71
301.166	30.38
301.381	36.52
301.595	32.43
301.809	13.99
302.024	42.67
302.238	-41.3
302.452	32.43
302.667	32.43
302.881	34.47
303.095	73.39
303.309	54.95
303.524	-67.92
303.738	-8.53
303.952	54.95
304.166	69.29
304.381	-29.01
304.595	67.24
304.809	54.95
305.023	5.8
305.237	71.34
305.452	20.14
305.666	-31.06
305.88	32.43
306.094	13.99
306.308	91.82
306.522	-0.34
306.736	36.52
306.95	87.72
307.164	32.43
307.379	20.14
307.593	13.99
307.807	63.15
308.021	63.15
308.235	67.24
308.449	36.52
308.663	-22.87
308.877	126.63
309.091	57
309.305	67.24
309.519	16.04
309.733	65.19
309.947	11.95
310.161	-51.54
310.374	38.57
310.588	16.04
310.802	-72.02
311.016	30.38
311.23	5.8
311.444	18.09
311.658	13.99
311.872	26.28
312.085	59.05
312.299	71.34
312.513	-4.44
312.727	32.43
312.941	-8.53
313.154	52.91
313.368	7.85
313.582	-12.63
313.796	50.86
314.009	1.71
314.223	-14.68
314.437	5.8
314.651	73.39
314.864	30.38
315.078	50.86
315.292	3.75
315.505	44.71
315.719	-0.34
315.933	-0.34
316.146	67.24
316.36	36.52
316.573	-20.82
316.787	26.28
317.001	16.04
317.214	-16.73
317.428	-29.01
317.641	-2.39
317.855	52.91
318.068	-33.11
318.282	-35.16
318.495	50.86
318.709	42.67
318.922	48.81
319.136	20.14
319.349	-0.34
319.563	67.24
319.776	24.23
319.99	-59.73
320.203	-31.06
320.417	46.76
320.63	-39.25
320.843	91.82
321.057	32.43
321.27	61.1
321.483	59.05
321.697	-49.49
321.91	-8.53
322.124	22.19
322.337	50.86
322.55	13.99
322.763	9.9
322.977	93.87
323.19	36.52
323.403	30.38
323.617	42.67
323.83	67.24
324.043	-88.4
324.256	30.38
324.469	50.86
324.683	85.67
324.896	32.43
325.109	71.34
325.322	-37.2
325.535	36.52
325.748	-39.25
325.962	42.67
326.175	-6.49
326.388	22.19
326.601	20.14
326.814	-20.82
327.027	46.76
327.24	89.77
327.453	-10.58
327.666	22.19
327.879	57
328.092	24.23
328.305	42.67
328.518	3.75
328.731	-33.11
328.944	20.14
329.157	-33.11
329.37	18.09
329.583	-12.63
329.796	52.91
330.009	22.19
330.222	91.82
330.435	75.43
330.648	20.14
330.861	18.09
331.073	3.75
331.286	-31.06
331.499	71.34
331.712	-53.59
331.925	52.91
332.138	-16.73
332.35	57
332.563	7.85
332.776	-20.82
332.989	65.19
333.202	83.63
333.414	16.04
333.627	28.33
333.84	13.99
334.053	65.19
334.265	16.04
334.478	7.85
334.691	28.33
334.903	61.1
335.116	24.23
335.329	-8.53
335.541	16.04
335.754	112.3
335.966	73.39
336.179	34.47
336.392	20.14
336.604	-37.2
336.817	16.04
337.029	42.67
337.242	22.19
337.454	81.58
337.667	22.19
337.88	32.43
338.092	20.14
338.305	-14.68
338.517	-29.01
338.729	95.91
338.942	126.63
339.154	26.28
339.367	-63.83
339.579	48.81
339.792	36.52
340.004	59.05
340.217	32.43
340.429	-12.63
340.641	18.09
340.854	38.57
341.066	42.67
341.278	59.05
341.491	1.71
341.703	-6.49
341.915	95.91
342.128	28.33
342.34	-33.11
342.552	91.82
342.764	54.95
342.977	34.47
343.189	20.14
343.401	38.57
343.613	-8.53
343.826	57
344.038	48.81
344.25	116.39
344.462	87.72
344.674	59.05
344.886	-45.4
345.099	65.19
345.311	-4.44
345.523	67.24
345.735	-18.77
345.947	32.43
346.159	40.62
346.371	-69.97
346.583	28.33
346.795	52.91
347.007	28.33
347.219	46.76
347.431	54.95
347.643	145.06
347.855	34.47
348.067	79.53
348.279	5.8
348.491	52.91
348.703	1.71
348.915	36.52
349.127	-65.88
349.339	-10.58
349.551	30.38
349.763	36.52
349.975	59.05
350.187	63.15
350.399	69.29
350.61	79.53
350.822	-53.59
351.034	38.57
351.246	30.38
351.458	38.57
351.669	-8.53
351.881	65.19
352.093	-2.39
352.305	79.53
352.517	22.19
352.728	100.01
352.94	36.52
353.152	-18.77
353.363	-16.73
353.575	42.67
353.787	42.67
353.999	9.9
354.21	77.48
354.422	16.04
354.633	-4.44
354.845	11.95
355.057	48.81
355.268	124.58
355.48	-12.63
355.692	13.99
355.903	61.1
356.115	52.91
356.326	-0.34
356.538	44.71
356.749	34.47
356.961	48.81
357.172	36.52
357.384	-2.39
357.595	87.72
357.807	-0.34
358.018	-0.34
358.23	22.19
358.441	59.05
358.653	-41.3
358.864	26.28
359.075	-10.58
359.287	81.58
359.498	87.72
359.709	18.09
359.921	81.58
360.132	-53.59
360.344	75.43
360.555	-47.44
360.766	77.48
360.977	-49.49
361.189	1.71
361.4	1.71
361.611	48.81
361.823	81.58
362.034	-22.87
362.245	26.28
362.456	52.91
362.667	5.8
362.879	36.52
363.09	16.04
363.301	-4.44
363.512	22.19
363.723	52.91
363.935	67.24
364.146	36.52
364.357	5.8
364.568	65.19
364.779	20.14
364.99	97.96
365.201	75.43
365.412	65.19
365.623	30.38
365.834	54.95
366.045	-29.01
366.256	7.85
366.467	-45.4
366.678	59.05
366.889	1.71
367.1	40.62
367.311	-10.58
367.522	77.48
367.733	61.1
367.944	50.86
368.155	-26.96
368.366	67.24
368.577	50.86
368.788	50.86
368.999	-16.73
369.209	30.38
369.42	7.85
369.631	52.91
369.842	7.85
370.053	42.67
370.264	13.99
370.474	-31.06
370.685	-55.64
370.896	42.67
371.107	50.86
371.317	18.09
371.528	46.76
371.739	40.62
371.95	30.38
372.16	69.29
372.371	3.75
372.582	20.14
372.792	61.1
373.003	-29.01
373.214	16.04
373.424	-6.49
373.635	9.9
373.846	106.15
374.056	22.19
374.267	52.91
374.477	24.23
374.688	59.05
374.898	-4.44
375.109	40.62
375.319	65.19
375.53	16.04
375.74	81.58
375.951	61.1
376.161	46.76
376.372	40.62
376.582	42.67
376.793	44.71
377.003	-18.77
377.214	-39.25
377.424	-22.87
377.635	59.05
377.845	48.81
378.055	42.67
378.266	-53.59
378.476	42.67
378.686	-0.34
378.897	54.95
379.107	-0.34
379.317	108.2
379.528	24.23
379.738	-12.63
379.948	13.99
380.158	-24.92
380.369	5.8
380.579	102.06
380.789	34.47
380.999	57
381.21	79.53
381.42	73.39
381.63	106.15
381.84	79.53
382.05	3.75
382.261	11.95
382.471	40.62
382.681	71.34
382.891	73.39
383.101	-6.49
383.311	13.99
383.521	61.1
383.731	54.95
383.941	3.75
384.151	-18.77
384.361	-33.11
384.571	38.57
384.781	52.91
384.991	85.67
385.201	65.19
385.411	61.1
385.621	36.52
385.831	22.19
386.041	44.71
386.251	50.86
386.461	40.62
386.671	16.04
386.881	7.85
387.091	50.86
387.301	67.24
387.511	50.86
387.72	16.04
387.93	61.1
388.14	67.24
388.35	-12.63
388.56	7.85
388.769	91.82
388.979	13.99
389.189	75.43
389.399	75.43
389.609	52.91
389.818	40.62
390.028	9.9
390.238	77.48
390.447	28.33
390.657	100.01
390.867	54.95
391.076	61.1
391.286	18.09
391.496	1.71
391.705	67.24
391.915	44.71
392.125	73.39
392.334	38.57
392.544	57
392.753	50.86
392.963	-29.01
393.172	40.62
393.382	42.67
393.591	52.91
393.801	24.23
394.01	171.69
394.22	20.14
394.429	73.39
394.639	-14.68
394.848	52.91
395.058	102.06
395.267	26.28
395.477	65.19
395.686	97.96
395.895	91.82
396.105	30.38
396.314	38.57
396.524	54.95
396.733	1.71
396.942	32.43
397.152	89.77
397.361	11.95
397.57	52.91
397.78	134.82
397.989	52.91
398.198	132.78
398.407	-6.49
398.617	36.52
398.826	93.87
399.035	69.29
399.244	61.1
399.453	65.19
399.663	63.15
399.872	151.21
400.081	52.91
400.29	1.71
400.499	44.71
400.708	87.72
400.917	100.01
401.127	-0.34
401.336	11.95
401.545	75.43
401.754	1.71
401.963	100.01
402.172	102.06
402.381	22.19
402.59	20.14
402.799	81.58
403.008	59.05
403.217	63.15
403.426	102.06
403.635	44.71
403.844	42.67
404.053	110.25
404.262	83.63
404.471	124.58
404.68	36.52
404.888	157.35
405.097	116.39
405.306	32.43
405.515	100.01
405.724	114.34
405.933	89.77
406.142	75.43
406.35	126.63
406.559	128.68
406.768	77.48
406.977	128.68
407.185	28.33
407.394	149.16
407.603	138.92
407.812	126.63
408.02	118.44
408.229	147.11
408.438	89.77
408.646	171.69
408.855	134.82
409.064	97.96
409.272	159.4
409.481	130.73
409.69	186.02
409.898	165.54
410.107	138.92
410.315	204.46
410.524	140.97
410.733	165.54
410.941	145.06
411.15	194.22
411.358	181.93
411.567	300.71
411.775	214.7
411.984	192.17
412.192	165.54
412.401	132.78
412.609	194.22
412.818	241.32
413.026	169.64
413.234	298.66
413.443	249.51
413.651	341.67
413.86	196.26
414.068	310.95
414.276	284.33
414.485	353.96
414.693	343.72
414.901	380.58
415.11	304.81
415.318	310.95
415.526	386.72
415.734	358.05
415.943	474.79
416.151	378.53
416.359	415.4
416.567	480.93
416.776	413.35
416.984	566.95
417.192	474.79
417.4	493.22
417.608	429.73
417.817	564.9
418.025	525.99
418.233	550.56
418.441	523.94
418.649	614.05
418.857	595.62
419.065	612
419.273	644.77
419.481	671.39
419.689	657.06
419.897	687.78
420.105	667.3
420.313	755.36
420.521	822.94
420.729	798.37
420.937	865.95
421.145	872.09
421.353	892.57
421.561	925.34
421.769	935.58
421.977	1074.84
422.185	935.58
422.393	1121.95
422.601	1160.86
422.809	1027.74
423.017	1109.66
423.224	1228.44
423.432	1136.28
423.64	1248.92
423.848	1298.07
424.056	1314.45
424.263	1386.13
424.471	1429.14
424.679	1367.7
424.887	1496.72
425.094	1492.63
425.302	1552.02
425.51	1701.52
425.718	1676.95
425.925	1541.78
426.133	1676.95
426.341	1795.73
426.548	1824.4
426.756	1859.21
426.964	1879.69
427.171	1992.33
427.379	2086.54
427.586	2057.87
427.794	2154.12
428.001	2270.86
428.209	2422.41
428.417	2346.63
428.624	2594.44
428.832	2510.47
429.039	2461.32
429.247	2397.83
429.454	2801.28
429.662	2901.63
429.869	2721.41
430.076	2985.6
430.284	2844.29
430.491	2963.07
430.699	3147.39
430.906	3071.61
431.114	3165.82
431.321	3266.17
431.528	3270.26
431.736	3636.85
431.943	3597.94
432.15	3647.09
432.358	3649.14
432.565	3798.64
432.772	3868.27
432.979	3991.15
433.187	4093.55
433.394	4179.56
433.601	4427.37
433.808	4441.7
434.016	4374.12
434.223	4695.65
434.43	4898.4
434.637	4752.99
434.844	5082.72
435.052	5164.64
435.259	5092.96
435.466	5299.8
435.673	5236.31
435.88	5596.76
436.087	5803.6
436.294	5967.44
436.501	5723.73
436.708	5922.38
436.915	5944.91
437.122	6327.88
437.329	6331.98
437.537	6340.17
437.743	6534.73
437.95	6585.93
438.157	6764.1
438.364	7044.67
438.571	6852.16
438.778	7075.39
438.985	7706.17
439.192	7482.94
439.399	7712.31
439.606	7568.95
439.813	7824.95
440.02	8437.29
440.227	8384.04
440.433	8031.79
440.64	8531.5
440.847	8345.13
441.054	8703.53
441.261	8992.29
441.467	9164.32
441.674	9367.07
441.881	9817.62
442.088	9461.27
442.294	9768.47
442.501	9889.3
442.708	10176.02
442.914	10266.13
443.121	10845.7
443.328	10581.51
443.534	11169.28
443.741	11107.84
443.948	10937.86
444.154	11517.43
444.361	11496.96
444.568	11685.37
444.774	11820.53
444.981	11838.97
445.187	12101.11
445.394	12670.44
445.6	12428.78
445.807	13987.29
446.013	13008.36
446.22	13180.39
446.426	13946.33
446.633	13938.13
446.839	14618.06
447.046	13766.1
447.252	14499.28
447.459	14788.04
447.665	14781.9
447.871	15424.96
448.078	16356.79
448.284	15029.7
448.491	15773.11
448.697	16496.05
448.903	16692.65
449.11	16586.16
449.316	16281.01
449.522	16952.74
449.728	17026.47
449.935	17065.38
450.141	17202.6
450.347	17622.43
450.553	17016.23
450.76	17343.91
450.966	17905.05
451.172	17884.57
451.378	18222.48
451.584	17692.06
451.791	18386.32
451.997	18015.64
452.203	18496.91
452.409	18398.61
452.615	18552.21
452.821	17868.19
453.027	17589.66
453.233	18521.49
453.44	17796.51
453.646	18040.22
453.852	18236.82
454.058	18146.71
454.264	17524.13
454.47	18333.07
454.676	17929.63
454.882	18222.48
455.088	16774.57
455.294	16729.52
455.5	17427.87
455.705	17546.65
455.911	16852.39
456.117	16448.94
456.323	16172.47
456.529	15517.12
456.735	16029.11
456.941	15818.17
457.147	15412.67
457.352	15001.03
457.558	14710.22
457.764	14853.58
457.97	14400.97
458.176	14132.69
458.381	14251.47
458.587	13522.4
458.793	13403.61
458.999	12887.53
459.204	13829.59
459.41	13413.85
459.616	12449.26
459.821	12774.89
460.027	12572.14
460.233	12107.25
460.438	11685.37
460.644	11808.25
460.85	11263.49
461.055	10876.42
461.261	11267.58
461.466	10159.63
461.672	9891.35
461.878	10722.82
462.083	9975.31
462.289	9711.13
462.494	9764.37
462.7	9217.57
462.905	8883.75
463.111	9256.48
463.316	9416.22
463.522	9178.65
463.727	9266.72
463.932	9205.28
464.138	9184.8
464.343	9133.6
464.549	8996.39
464.754	9111.07
464.959	8980
465.165	9137.7
465.37	8482.35
465.575	8263.21
465.781	8861.22
465.986	8873.51
466.191	8613.42
466.397	8304.17
466.602	8015.41
466.807	8076.85
467.012	8302.12
467.218	8470.06
467.423	8103.47
467.628	8351.28
467.833	8435.24
468.038	8269.36
468.244	8093.23
468.449	8341.04
468.654	7931.44
468.859	8123.95
469.064	8021.55
469.269	7636.53
469.474	7644.73
469.679	8087.09
469.885	7519.8
470.09	7751.22
470.295	7577.14
470.5	7519.8
470.705	7638.58
470.91	7452.22
471.115	7360.06
471.32	7392.83
471.525	7278.14
471.73	7280.19
471.935	7245.37
472.139	6817.35
472.344	7243.32
472.549	6886.98
472.754	7061.05
472.959	6760
473.164	6567.49
473.369	6643.27
473.574	6837.83
473.778	6760
473.983	6680.13
474.188	6530.63
474.393	6352.46
474.598	6499.91
474.802	6215.24
475.007	6428.23
475.212	6264.4
475.417	6108.75
475.621	5969.49
475.826	5969.49
476.031	5914.19
476.235	5916.24
476.44	5815.89
476.645	5883.47
476.849	5832.27
477.054	5686.87
477.259	5633.62
477.463	5699.16
477.668	5549.65
477.872	5629.52
478.077	5312.09
478.282	5246.55
478.486	5291.61
478.691	5209.69
478.895	5287.51
479.1	5254.75
479.304	5279.32
479.509	5070.43
479.713	5267.03
479.918	5021.28
480.122	4982.37
480.326	5226.07
480.531	4931.17
480.735	5125.72
480.94	4970.08
481.144	5002.85
481.348	4828.77
481.553	4781.67
481.757	4855.39
481.961	4742.75
482.166	5054.05
482.37	4941.41
482.574	4726.37
482.778	4812.39
482.983	4830.82
483.187	4849.25
483.391	4849.25
483.595	4826.72
483.8	4851.3
484.004	4972.13
484.208	5039.71
484.412	4826.72
484.616	4822.63
484.821	4806.24
485.025	4691.56
485.229	4912.74
485.433	4779.62
485.637	4830.82
485.841	4925.02
486.045	4892.26
486.249	4812.39
486.453	4699.75
486.657	4943.46
486.861	4793.95
487.065	4662.88
487.269	4902.5
487.473	4892.26
487.677	4988.51
487.881	4957.79
488.085	4802.15
488.289	4974.17
488.493	4820.58
488.697	4980.32
488.901	5045.85
489.105	4976.22
489.309	5187.16
489.512	4916.83
489.716	4816.48
489.92	5041.76
490.124	5004.89
490.328	5174.88
490.531	4976.22
490.735	5101.15
490.939	5236.31
491.143	5025.37
491.346	5133.92
491.55	5226.07
491.754	5207.64
491.958	5334.62
492.161	5267.03
492.365	5340.76
492.569	5226.07
492.772	5328.47
492.976	5527.13
493.18	5351
493.383	5514.84
493.587	5508.69
493.79	5559.89
493.994	5396.06
494.197	5457.5
494.401	5535.32
494.605	5713.49
494.808	5826.13
495.012	5803.6
495.215	5688.92
495.419	5979.73
495.622	5809.75
495.825	6008.4
496.029	6049.36
496.232	6127.18
496.436	6045.26
496.639	6344.27
496.843	6280.78
497.046	6354.51
497.249	6452.81
497.453	6456.9
497.656	6458.95
497.859	6794.82
498.063	6551.11
498.266	6829.63
498.469	6917.7
498.673	6895.17
498.876	6907.46
499.079	7245.37
499.282	7071.29
499.485	7487.03
499.689	7284.28
499.892	7466.55
500.095	7530.04
500.298	7970.35
500.501	7843.38
500.705	8048.18
500.908	8148.53
501.111	8134.19
501.314	8152.62
501.517	8459.82
501.72	8443.43
501.923	8226.35
502.126	8717.86
502.329	8965.67
502.532	8713.77
502.735	9033.25
502.938	9225.76
503.141	9317.92
503.344	9442.84
503.547	9438.75
503.75	9715.22
503.953	9772.57
504.156	9950.74
504.359	9891.35
504.562	10003.99
504.765	10153.49
504.968	10706.44
505.17	10591.75
505.373	10554.89
505.576	10765.83
505.779	11091.46
505.982	11044.35
506.185	11380.22
506.387	11400.7
506.59	11601.4
506.793	11822.58
506.996	11781.62
507.198	12056.05
507.401	12133.87
507.604	12414.45
507.807	12643.82
508.009	12609
508.212	12787.18
508.415	13147.62
508.617	13215.2
508.82	13286.88
509.022	13225.44
509.225	13663.71
509.428	13954.52
509.63	14126.55
509.833	13886.93
510.035	14616.01
510.238	14495.18
510.44	14640.59
510.643	14978.5
510.845	15254.98
511.048	14951.88
511.25	15345.09
511.453	15455.68
511.655	16033.21
511.858	15852.98
512.06	16164.28
512.262	16373.17
512.465	16297.39
512.667	16625.07
512.87	16917.93
513.072	17016.23
513.274	17391.01
513.477	17550.75
513.679	17558.94
513.881	17864.09
514.084	18105.75
514.286	18132.37
514.488	18392.47
514.69	19043.72
514.893	18949.51
515.095	19039.62
515.297	19563.9
515.499	19537.28
515.701	19830.14
515.904	19948.92
516.106	20077.94
516.308	20364.66
516.51	20899.18
516.712	20796.78
516.914	21155.18
517.116	21206.38
517.318	21624.16
517.52	21540.19
517.722	21751.13
517.925	22271.32
518.127	22269.27
518.329	22873.42
518.531	22541.65
518.733	23000.4
518.935	23285.06
519.136	23530.82
519.338	23760.19
519.54	24051
519.742	23997.76
519.944	24384.82
520.146	24575.28
520.348	24546.61
520.55	24921.39
520.752	25099.56
520.954	25527.59
521.155	25402.66
521.357	26113.31
521.559	26242.33
521.761	26135.84
521.963	26221.85
522.164	26395.93
522.366	26776.85
522.568	26873.1
522.77	27129.1
522.971	27637
523.173	27256.07
523.375	27632.9
523.576	27796.74
523.778	27557.13
523.98	28458.23
524.181	28366.07
524.383	28372.22
524.584	28747
524.786	29140.21
524.988	28773.62
525.189	29345
525.391	29621.48
525.592	29754.6
525.794	29580.52
525.995	29910.24
526.197	29936.87
526.398	30125.28
526.6	30254.3
526.801	30491.87
527.003	30848.21
527.204	30493.91
527.406	30852.31
527.607	30948.56
527.808	31241.42
528.01	30674.13
528.211	31163.6
528.412	31511.75
528.614	31683.78
528.815	31259.85
529.016	31937.73
529.218	31618.25
529.419	31976.64
529.62	31753.41
529.822	31734.98
530.023	31904.96
530.224	32015.55
530.425	32122.05
530.626	32089.28
530.828	32107.71
531.029	33359.02
531.23	32226.49
531.431	32363.71
531.632	32715.96
531.833	32828.6
532.035	32541.88
532.236	33068.21
532.437	32816.31
532.638	32961.72
532.839	33121.46
533.04	33250.48
533.241	32824.5
533.442	33584.3
533.643	33457.32
533.844	33492.14
534.045	33526.96
534.246	33371.31
534.447	33803.43
534.648	33428.65
534.849	33244.34
535.05	33641.64
535.251	33813.67
535.451	33254.58
535.652	33963.17
535.853	33705.13
536.054	33959.08
536.255	34110.63
536.456	33273.01
536.657	34079.91
536.857	33961.12
537.058	33899.69
537.259	34135.2
537.46	34092.19
537.66	33809.57
537.861	33979.56
538.062	33973.41
538.263	34286.75
538.463	34120.87
538.664	33801.38
538.865	34280.61
539.065	34340
539.266	34022.56
539.466	34497.69
539.667	33981.6
539.868	34583.71
540.068	34108.58
540.269	34251.94
540.469	34669.72
540.67	34104.48
540.87	34477.21
541.071	34038.95
541.271	34434.21
541.472	33959.08
541.672	34079.91
541.873	34200.74
542.073	33756.33
542.274	34624.67
542.474	34571.42
542.675	34065.57
542.875	34636.95
543.075	34460.83
543.276	34104.48
543.476	34567.32
543.676	34503.84
543.877	34612.38
544.077	34540.7
544.277	34376.86
544.478	34573.47
544.678	34438.3
544.878	34323.61
545.078	34575.52
545.279	34368.67
545.479	34301.09
545.679	34712.73
545.879	33989.8
546.079	34505.88
546.28	34237.6
546.48	34268.32
546.68	34716.82
546.88	34706.59
547.08	34751.64
547.28	34192.54
547.48	34366.62
547.68	34550.94
547.88	34585.75
548.081	34649.24
548.281	34669.72
548.481	34677.91
548.681	34540.7
548.881	34464.92
549.081	34653.34
549.28	34731.16
549.48	34911.38
549.68	34686.11
549.88	34960.53
550.08	34682.01
550.28	34677.91
550.48	34454.68
550.68	34962.58
550.88	34598.04
551.08	34610.33
551.279	34684.06
551.479	34225.31
551.679	34827.42
551.879	34626.71
552.079	34829.46
552.278	34413.73
552.478	34790.55
552.678	34737.3
552.878	35054.74
553.077	34595.99
553.277	34348.19
553.477	34802.84
553.676	34352.29
553.876	34780.31
554.076	34593.95
554.275	34245.79
554.475	34481.31
554.674	34614.43
554.874	34411.68
555.074	34495.64
555.273	34245.79
555.473	34694.3
555.672	34768.02
555.872	34595.99
556.071	34591.9
556.271	34641.05
556.47	34466.97
556.67	34419.87
556.869	34354.33
557.068	34403.49
557.268	34034.85
557.467	34186.4
557.667	34378.91
557.866	34108.58
558.065	34667.67
558.265	34294.94
558.464	33852.58
558.663	34507.93
558.863	33989.8
559.062	34620.57
559.261	34045.09
559.461	34593.95
559.66	33868.97
559.859	34157.73
560.058	34041
560.258	34235.55
560.457	34020.52
560.656	34124.96
560.855	33451.18
561.054	33995.94
561.253	33875.11
561.453	34120.87
561.652	33965.22
561.851	34137.25
562.05	34020.52
562.249	33707.18
562.448	33864.87
562.647	33940.64
562.846	34024.61
563.045	33981.6
563.244	33721.51
563.443	33817.77
563.642	32998.58
563.841	33713.32
564.04	33787.05
564.239	33897.64
564.438	33377.45
564.637	33631.4
564.836	33504.43
565.035	33326.25
565.234	33576.11
565.432	33612.97
565.631	33162.42
565.83	33901.73
566.029	33127.6
566.228	33408.17
566.427	33451.18
566.625	33297.58
566.824	33256.62
567.023	33133.75
567.222	32591.03
567.42	33373.36
567.619	33023.15
567.818	33037.49
568.016	33277.1
568.215	33232.05
568.414	33017.01
568.612	33246.38
568.811	32945.33
569.01	33000.63
569.208	32689.34
569.407	33191.09
569.605	32486.59
569.804	32441.53
570.002	32435.39
570.201	32718.01
570.4	32531.64
570.598	32699.58
570.797	32031.94
570.995	32369.85
571.193	31999.17
571.392	32666.81
571.59	32081.09
571.789	32058.56
571.987	32269.5
572.186	32240.83
572.384	31737.03
572.582	31745.22
572.781	32023.75
572.979	31749.32
573.177	31716.55
573.376	32285.89
573.574	31579.34
573.772	31777.99
573.971	31681.74
574.169	31478.99
574.367	31173.84
574.565	31634.63
574.763	31540.43
574.962	31634.63
575.16	31216.85
575.358	31298.77
575.556	30971.09
575.754	31462.6
575.952	30858.45
576.151	31380.68
576.349	30670.04
576.547	30541.02
576.745	31005.91
576.943	30555.35
577.141	30721.24
577.339	30844.12
577.537	30594.26
577.735	30504.15
577.933	30375.13
578.131	30303.45
578.329	30158.05
578.527	30332.12
578.725	30094.56
578.923	30207.2
579.121	30227.68
579.319	30112.99
579.516	30213.34
579.714	30166.24
579.912	29785.32
580.11	29664.49
580.308	30035.17
580.506	29740.26
580.704	29478.12
580.901	29533.42
581.099	29639.91
581.297	29320.43
581.495	29535.46
581.692	29238.51
581.89	29046
582.088	29281.52
582.285	28900.59
582.483	29078.77
582.681	28802.29
582.878	29201.65
583.076	28665.08
583.274	28943.6
583.471	28148.99
583.669	28431.61
583.866	28396.79
584.064	28505.34
584.262	28183.8
584.459	28622.07
584.657	28046.59
584.854	28411.13
585.052	27958.53
585.249	27739.4
585.447	28206.33
585.644	27516.17
585.841	28026.11
586.039	28386.55
586.236	27796.74
586.434	27696.39
586.631	27731.2
586.828	27745.54
587.026	27370.76
587.223	27680
587.42	27260.17
587.618	27116.81
587.815	27307.27
588.012	26604.82
588.21	26950.93
588.407	27161.87
588.604	26670.36
588.801	26803.47
588.999	26883.34
589.196	26846.48
589.393	26909.97
589.59	26242.33
589.787	26232.09
589.984	26492.18
590.182	26299.67
590.379	26359.06
590.576	26316.06
590.773	26244.38
590.97	25996.57
591.167	26160.41
591.364	25554.21
591.561	25761.06
591.758	25703.71
591.955	25548.07
592.152	25644.32
592.349	25599.27
592.546	25732.39
592.743	25480.49
592.94	25214.25
593.137	25158.95
593.334	25247.02
593.531	24859.95
593.727	25142.57
593.924	24976.69
594.121	24874.29
594.318	25240.87
594.515	24712.5
594.712	24792.37
594.908	24630.58
595.105	24788.27
595.302	24513.84
595.499	24425.78
595.696	24628.53
595.892	24655.15
596.089	24501.56
596.286	24347.96
596.482	24071.48
596.679	24304.95
596.876	24032.57
597.072	24083.77
597.269	23897.41
597.466	23569.73
597.662	23479.62
597.859	23688.51
598.055	23528.77
598.252	23209.29
598.448	23539.01
598.645	23375.17
598.841	23274.82
599.038	23366.98
599.234	23223.62
599.431	22824.27
599.627	22930.76
599.824	22973.77
600.02	22711.63
600.217	22963.53
600.413	22676.82
600.609	22560.08
600.806	22392.15
601.002	22748.5
601.198	22510.93
601.395	22222.17
601.591	22150.49
601.787	22408.53
601.984	22019.42
602.18	22580.56
602.376	22091.1
602.572	21734.75
602.769	21935.45
602.965	21894.49
603.161	21978.46
603.357	21908.83
603.553	21624.16
603.75	21779.81
603.946	21417.32
604.142	21245.29
604.338	21255.53
604.534	21456.23
604.73	21208.42
604.926	21185.9
605.122	21017.96
605.318	21208.42
605.514	20901.23
605.71	20911.47
605.906	20825.45
606.102	20913.52
606.298	20665.71
606.494	20751.73
606.69	20704.62
606.886	20741.49
607.082	20632.94
607.278	20716.91
607.474	20350.32
607.67	20301.17
607.866	20260.21
608.062	20667.76
608.257	20338.04
608.453	20321.65
608.649	20227.45
608.845	19903.87
609.041	20139.38
609.236	20143.48
609.432	20227.45
609.628	19719.55
609.824	19735.93
610.019	19996.03
610.215	19875.2
610.411	19926.39
610.606	19590.53
610.802	19639.68
610.998	19850.62
611.193	19674.49
611.389	19598.72
611.584	19395.97
611.78	19385.73
611.976	19330.44
612.171	19522.94
612.367	19561.86
612.562	19463.55
612.758	19090.82
612.953	18949.51
613.149	19279.24
613.344	19187.08
613.539	19424.64
613.735	19117.45
613.93	19174.79
614.126	19123.59
614.321	19326.34
614.517	18836.88
614.712	18849.16
614.907	18873.74
615.103	18730.38
615.298	18763.15
615.493	18830.73
615.688	18617.74
615.884	19434.88
616.079	18597.26
616.274	18607.5
616.47	18425.23
616.665	18720.14
616.86	18552.21
617.055	18429.33
617.25	18275.73
617.445	18664.85
617.641	18083.22
617.836	18335.12
618.031	17962.39
618.226	18146.71
618.421	17610.14
618.616	18118.04
618.811	17655.2
619.006	18019.74
619.201	17720.73
619.396	18001.3
619.591	17495.46
619.786	17511.84
619.981	17339.81
620.176	17509.79
620.371	17241.51
620.566	17405.35
620.761	17243.56
620.956	17239.46
621.151	17040.81
621.346	17036.71
621.541	16819.63
621.735	16958.89
621.93	16612.78
622.125	16510.38
622.32	16592.3
622.515	16250.29
622.709	16424.37
622.904	16362.93
623.099	16139.7
623.294	16307.63
623.488	15961.53
623.683	16012.73
623.878	15642.04
624.072	15902.14
624.267	16000.44
624.462	15648.19
624.656	15578.56
624.851	15400.38
625.046	15371.71
625.24	15680.96
625.435	15224.26
625.629	15050.18
625.824	15132.1
626.018	15048.13
626.213	14861.77
626.407	15130.05
626.602	14681.55
626.796	14677.45
626.991	14671.31
627.185	14687.69
627.38	14245.33
627.574	14243.28
627.768	14302.67
627.963	14411.21
628.157	14190.03
628.352	14163.41
628.546	13780.44
628.74	13850.07
628.935	13880.79
629.129	14165.46
629.323	13610.46
629.517	13516.25
629.712	13483.48
629.906	13620.7
630.1	13290.98
630.294	13317.6
630.489	13372.89
630.683	13149.67
630.877	13016.55
631.071	13225.44
631.265	12985.83
631.459	12877.29
631.653	12957.16
631.848	12875.24
632.042	12774.89
632.236	12985.83
632.43	12666.35
632.624	12510.7
632.818	12414.45
633.012	12465.64
633.206	12582.38
633.4	12404.21
633.594	12248.56
633.788	12283.38
633.982	12275.18
634.176	12123.63
634.369	12056.05
634.563	11834.87
634.757	12035.57
634.951	11939.32
635.145	11886.07
635.339	11714.04
635.533	11630.07
635.726	11687.42
635.92	11558.39
636.114	11376.13
636.308	11456
636.501	11429.37
636.695	11578.87
636.889	11238.91
637.083	11050.5
637.276	11163.14
637.47	11136.51
637.664	11046.4
637.857	10976.77
638.051	10878.47
638.244	10628.62
638.438	10505.74
638.632	10591.75
638.825	10589.71
639.019	10542.6
639.212	10321.42
639.406	10358.28
639.599	10208.78
639.793	10380.81
639.986	10194.45
640.18	10112.53
640.373	10096.14
640.567	9969.17
640.76	9971.22
640.954	9981.46
641.147	9838.1
641.34	9797.14
641.534	9623.06
641.727	9696.79
641.92	9600.54
642.114	9498.14
642.307	9618.97
642.5	9340.44
642.694	9178.65
642.887	9248.29
643.08	9045.54
643.273	9223.71
643.467	9131.55
643.66	9115.17
643.853	8885.8
644.046	8930.85
644.239	8785.44
644.432	8760.87
644.626	8576.55
644.819	8470.06
645.012	8582.7
645.205	8531.5
645.398	8660.52
645.591	8371.75
645.784	8392.23
645.977	8369.71
646.17	8166.96
646.363	8347.18
646.556	7908.91
646.749	8001.07
646.942	8150.57
647.135	7990.83
647.328	7837.24
647.521	7843.38
647.714	7654.97
647.907	7745.08
648.099	7740.98
648.292	7638.58
648.485	7618.1
648.678	7509.56
648.871	7439.93
649.064	7476.79
649.256	7345.72
649.449	7290.43
649.642	7302.72
649.835	7181.89
650.027	7169.6
650.22	6987.33
650.413	7028.29
650.605	7044.67
650.798	6983.23
650.991	6798.91
651.183	6925.89
651.376	6876.74
651.568	6915.65
651.761	6696.52
651.954	6630.98
652.146	6786.63
652.339	6692.42
652.531	6721.09
652.724	6579.78
652.916	6530.63
653.109	6495.82
653.301	6516.3
653.494	6557.25
653.686	6319.69
653.879	6440.52
654.071	6205
654.263	6186.57
654.456	6082.13
654.648	6311.5
654.84	6059.6
655.033	6133.33
655.225	6067.79
655.417	6092.37
655.61	5953.1
655.802	6006.35
655.994	5977.68
656.186	5983.82
656.379	5801.55
656.571	5656.15
656.763	5828.18
656.955	5652.05
657.148	5758.55
657.34	5557.85
657.532	5697.11
657.724	5533.27
657.916	5615.19
658.108	5461.59
658.3	5633.62
658.492	5457.5
658.684	5453.4
658.876	5357.14
659.068	5400.15
659.26	5236.31
659.452	5328.47
659.644	5275.23
659.836	5338.71
660.028	5365.34
660.22	5191.26
660.412	5076.57
660.604	5056.09
660.796	4994.65
660.988	4943.46
661.18	4968.03
661.372	4863.58
661.563	4843.1
661.755	4769.38
661.947	4949.6
662.139	4777.57
662.331	4662.88
662.522	4755.04
662.714	4595.3
662.906	4634.21
663.097	4587.11
663.289	4468.33
663.481	4511.33
663.673	4660.84
663.864	4390.5
664.056	4509.29
664.247	4308.58
664.439	4308.58
664.631	4367.98
664.822	4228.71
665.014	4288.11
665.205	4331.11
665.397	4271.72
665.588	4146.8
665.78	4193.9
665.971	4165.23
666.163	4068.97
666.354	4138.6
666.546	3989.1
666.737	3831.41
666.929	4087.4
667.12	3991.15
667.311	3993.2
667.503	3915.37
667.694	4157.04
667.885	3829.36
668.077	3743.35
668.268	3653.23
668.459	3751.54
668.651	3647.09
668.842	3761.78
669.033	3864.18
669.224	3786.35
669.416	3745.39
669.607	3581.56
669.798	3681.91
669.989	3696.24
670.18	3612.28
670.371	3559.03
670.563	3532.4
670.754	3466.87
670.945	3606.13
671.136	3544.69
671.327	3483.25
671.518	3468.92
671.709	3360.38
671.9	3382.9
672.091	3214.97
672.282	3454.58
672.473	3374.71
672.664	3337.85
672.855	3401.33
673.046	3491.45
673.237	3346.04
673.428	3257.98
673.619	3378.81
673.809	3278.46
674	3223.16
674.191	3171.96
674.382	3231.35
674.573	3118.72
674.764	3133.05
674.954	3221.11
675.145	3128.95
675.336	3065.47
675.527	3141.24
675.717	3194.49
675.908	3171.96
676.099	3116.67
676.289	3024.51
676.48	3108.48
676.671	2924.16
676.861	2989.69
677.052	3124.86
677.243	2975.36
677.433	3051.13
677.624	3083.9
677.814	2973.31
678.005	2961.02
678.195	2909.82
678.386	3018.36
678.576	3026.56
678.767	2926.21
678.957	2913.92
679.148	3022.46
679.338	3057.28
679.529	2838.14
679.719	2862.72
679.909	3010.17
680.1	2877.05
680.29	2948.73
680.481	2854.53
680.671	2858.62
680.861	2958.97
681.052	2920.06
681.242	2903.68
681.432	2852.48
681.622	2754.18
681.813	2950.78
682.003	2842.24
682.193	2819.71
682.383	2979.45
682.573	2897.53
682.764	2862.72
682.954	2754.18
683.144	2942.59
683.334	2776.7
683.524	2885.25
683.714	2817.66
683.904	2903.68
684.094	2930.3
684.284	2903.68
684.474	2909.82
684.664	2879.1
684.854	2897.53
685.044	2848.38
685.234	2811.52
685.424	2786.94
685.614	2881.15
685.804	2875.01
685.994	2762.37
686.184	2899.58
686.374	2852.48
686.564	2952.83
686.753	2920.06
686.943	2879.1
687.133	2856.58
687.323	2854.53
687.513	2926.21
687.702	2899.58
687.892	2866.81
688.082	2948.73
688.272	2938.49
688.461	2866.81
688.651	2967.17
688.841	2911.87
689.03	2748.03
689.22	2750.08
689.41	2885.25
689.599	2840.19
689.789	2934.4
689.979	2936.45
690.168	3047.04
690.358	2846.34
690.547	2987.65
690.737	2887.29
690.926	2850.43
691.116	2963.07
691.305	2909.82
691.495	2913.92
691.684	2823.81
691.874	2827.9
692.063	2864.77
692.252	3016.32
692.442	2745.98
692.631	2844.29
692.82	2838.14
693.01	2860.67
693.199	2909.82
693.388	2834.05
693.578	2762.37
693.767	2872.96
693.956	2756.22
694.146	2766.46
694.335	2846.34
694.524	2807.42
694.713	2791.04
694.902	2852.48
695.092	2743.94
695.281	2842.24
695.47	2829.95
695.659	2731.65
695.848	2723.46
696.037	2700.93
696.226	2709.12
696.415	2776.7
696.604	2733.7
696.793	2750.08
696.982	2631.3
697.171	2674.31
697.36	2578.05
697.549	2717.31
697.738	2619.01
697.927	2524.8
698.116	2530.95
698.305	2643.59
698.494	2668.16
698.683	2670.21
698.872	2662.02
699.061	2633.35
699.25	2465.41
699.438	2657.92
699.627	2428.55
699.816	2616.96
700.005	2543.24
700.193	2475.65
700.382	2528.9
700.571	2487.94
700.76	2543.24
700.948	2500.23
701.137	2477.7
701.326	2483.84
701.514	2489.99
701.703	2420.36
701.892	2444.93
702.08	2434.69
702.269	2446.98
702.457	2379.4
702.646	2358.92
702.834	2381.45
703.023	2305.67
703.212	2268.81
703.4	2356.87
703.589	2352.77
703.777	2320.01
703.965	2254.47
704.154	2408.07
704.342	2231.94
704.531	2178.7
704.719	2264.71
704.907	2256.52
705.096	2303.62
705.284	2182.79
705.472	2100.87
705.661	2154.12
705.849	2244.23
706.037	2313.86
706.226	2274.95
706.414	2215.56
706.602	2109.07
706.79	2160.27
706.979	2274.95
707.167	2229.9
707.355	2066.06
707.543	2236.04
707.731	2125.45
707.919	1926.8
708.107	1996.43
708.296	2066.06
708.484	2025.1
708.672	2084.49
708.86	2158.22
709.048	1984.14
709.236	2084.49
709.424	2002.57
709.612	1992.33
709.8	2021
709.988	1926.8
710.176	1988.24
710.364	2082.44
710.551	1959.56
710.739	1996.43
710.927	1963.66
711.115	1957.52
711.303	2025.1
711.491	2014.86
711.679	1891.98
711.866	1781.39
712.054	1947.28
712.242	1851.02
712.43	1949.32
712.617	1851.02
712.805	1828.49
712.993	1877.65
713.181	1846.93
713.368	1797.78
713.556	1885.84
713.744	1705.62
713.931	1914.51
714.119	1769.1
714.306	1805.97
714.494	1681.04
714.682	1697.42
714.869	1756.82
715.057	1726.1
715.244	1658.51
715.432	1750.67
715.619	1615.51
715.807	1715.86
715.994	1658.51
716.182	1615.51
716.369	1648.27
716.556	1693.33
716.744	1584.79
716.931	1676.95
717.119	1603.22
717.306	1631.89
717.493	1683.09
717.681	1609.36
717.868	1560.21
718.055	1689.23
718.242	1533.59
718.43	1531.54
718.617	1539.73
718.804	1566.35
718.991	1521.3
719.179	1568.4
719.366	1558.16
719.553	1613.46
719.74	1509.01
719.927	1509.01
720.114	1455.76
720.301	1535.64
720.488	1527.44
720.676	1521.3
720.863	1494.68
721.05	1443.48
721.237	1500.82
721.424	1437.33
721.611	1447.57
721.798	1472.15
721.985	1371.8
722.172	1388.18
722.358	1404.57
722.545	1363.61
722.732	1279.64
722.919	1435.28
723.106	1439.38
723.293	1357.46
723.48	1392.28
723.667	1390.23
723.853	1316.5
724.04	1310.36
724.227	1242.78
724.414	1302.17
724.6	1308.31
724.787	1263.26
724.974	1304.21
725.161	1293.97
725.347	1281.69
725.534	1277.59
725.72	1248.92
725.907	1316.5
726.094	1248.92
726.28	1244.82
726.467	1324.69
726.653	1210.01
726.84	1173.14
727.027	1220.25
727.213	1275.54
727.4	1158.81
727.586	1210.01
727.773	1189.53
727.959	1203.86
728.145	1207.96
728.332	1216.15
728.518	1193.62
728.705	1101.47
728.891	1130.14
729.077	1156.76
729.264	1156.76
729.45	1117.85
729.636	1150.62
729.823	1107.61
730.009	1101.47
730.195	1119.9
730.382	1212.06
730.568	1150.62
730.754	1078.94
730.94	1121.95
731.126	1130.14
731.313	1148.57
731.499	1052.31
731.685	1117.85
731.871	1103.51
732.057	997.02
732.243	990.88
732.429	1097.37
732.615	1048.22
732.801	994.97
732.987	1046.17
733.173	958.11
733.359	1017.5
733.545	1060.51
733.731	1017.5
733.917	1074.84
734.103	1029.79
734.289	1078.94
734.475	1029.79
734.661	1035.93
734.847	904.86
735.033	904.86
735.219	1019.55
735.404	964.25
735.59	886.43
735.776	1054.36
735.962	970.4
736.148	935.58
736.333	941.72
736.519	964.25
736.705	872.09
736.89	921.24
737.076	931.48
737.262	929.44
737.447	990.88
737.633	874.14
737.819	915.1
738.004	917.15
738.19	929.44
738.375	919.2
738.561	956.06
738.747	964.25
738.932	876.19
739.118	829.09
739.303	835.23
739.489	888.48
739.674	870.05
739.859	935.58
740.045	853.66
740.23	837.28
740.416	824.99
740.601	773.79
740.786	816.8
740.972	835.23
741.157	835.23
741.342	753.31
741.528	855.71
741.713	822.94
741.898	771.74
742.084	849.57
742.269	798.37
742.454	763.55
742.639	730.78
742.824	843.42
743.01	808.61
743.195	800.41
743.38	716.45
743.565	726.69
743.75	857.76
743.935	734.88
744.12	788.13
744.305	706.21
744.49	738.98
744.675	732.83
744.86	714.4
745.045	743.07
745.23	767.65
745.415	667.3
745.6	728.74
745.785	650.91
745.97	685.73
746.155	706.21
746.34	669.34
746.525	673.44
746.71	724.64
746.895	681.63
747.079	679.58
747.264	685.73
747.449	738.98
747.634	665.25
747.819	706.21
748.003	624.29
748.188	650.91
748.373	624.29
748.557	683.68
748.742	671.39
748.927	632.48
749.111	683.68
749.296	571.04
749.481	622.24
749.665	589.47
749.85	652.96
750.034	603.81
750.219	609.95
750.404	595.62
750.588	671.39
750.773	552.61
750.957	562.85
751.141	593.57
751.326	659.1
751.51	575.14
751.695	648.86
751.879	528.03
752.064	525.99
752.248	607.91
752.432	620.19
752.617	509.6
752.801	538.27
752.985	607.91
753.17	530.08
753.354	550.56
753.538	593.57
753.722	550.56
753.907	554.66
754.091	554.66
754.275	536.23
754.459	525.99
754.643	566.95
754.828	591.52
755.012	583.33
755.196	501.41
755.38	521.89
755.564	536.23
755.748	546.47
755.932	558.75
756.116	525.99
756.3	513.7
756.484	415.4
756.668	507.55
756.852	501.41
757.036	511.65
757.22	472.74
757.404	558.75
757.588	446.12
757.772	523.94
757.956	495.27
758.14	525.99
758.323	460.45
758.507	433.83
758.691	423.59
758.875	468.64
759.059	392.87
759.242	427.68
759.426	419.49
759.61	444.07
759.794	482.98
759.977	462.5
760.161	519.84
760.345	452.26
760.528	384.68
760.712	497.32
760.895	480.93
761.079	349.86
761.263	437.92
761.446	409.25
761.63	362.15
761.813	368.29
761.997	394.92
762.18	472.74
762.364	444.07
762.547	405.16
762.731	356.01
762.914	435.88
763.098	345.77
763.281	388.77
763.464	337.57
763.648	456.36
763.831	300.71
764.015	419.49
764.198	353.96
764.381	388.77
764.564	407.2
764.748	351.91
764.931	411.3
765.114	347.81
765.297	448.16
765.481	423.59
765.664	425.64
765.847	374.44
766.03	380.58
766.213	335.53
766.397	396.96
766.58	372.39
766.763	460.45
766.946	386.72
767.129	382.63
767.312	372.39
767.495	452.26
767.678	378.53
767.861	411.3
768.044	366.25
768.227	296.61
768.41	388.77
768.593	364.2
768.776	380.58
768.959	419.49
769.142	358.05
769.324	376.48
769.507	372.39
769.69	315.05
769.873	323.24
770.056	374.44
770.239	374.44
770.421	407.2
770.604	331.43
770.787	329.38
770.97	413.35
771.152	261.8
771.335	298.66
771.518	347.81
771.7	360.1
771.883	353.96
772.066	329.38
772.248	329.38
772.431	433.83
772.613	302.76
772.796	337.57
772.978	409.25
773.161	329.38
773.343	331.43
773.526	290.47
773.708	298.66
773.891	255.65
774.073	300.71
774.256	333.48
774.438	327.33
774.621	294.57
774.803	353.96
774.985	317.09
775.168	317.09
775.35	278.18
775.532	329.38
775.715	374.44
775.897	267.94
776.079	337.57
776.261	351.91
776.444	345.77
776.626	261.8
776.808	235.18
776.99	288.42
777.173	327.33
777.355	323.24
777.537	296.61
777.719	259.75
777.901	249.51
778.083	263.85
778.265	206.5
778.447	296.61
778.629	284.33
778.811	272.04
778.993	302.76
779.175	280.23
779.357	280.23
779.539	194.22
779.721	351.91
779.903	288.42
780.085	190.12
780.267	294.57
780.449	204.46
780.631	323.24
780.812	300.71
780.994	292.52
781.176	224.94
781.358	265.89
781.54	257.7
781.721	218.79
781.903	249.51
782.085	292.52
782.267	220.84
782.448	249.51
782.63	263.85
782.812	298.66
782.993	151.21
783.175	222.89
783.357	198.31
783.538	259.75
783.72	226.98
783.901	231.08
784.083	253.61
784.264	226.98
784.446	161.45
784.627	259.75
784.809	261.8
784.99	134.82
785.172	196.26
785.353	214.7
785.535	159.4
785.716	171.69
785.897	183.98
786.079	212.65
786.26	222.89
786.441	173.74
786.623	208.55
786.804	138.92
786.985	192.17
787.167	114.34
787.348	153.26
787.529	183.98
787.71	159.4
787.891	218.79
788.073	269.99
788.254	249.51
788.435	226.98
788.616	188.07
788.797	181.93
788.978	243.37
789.159	100.01
789.34	163.5
789.522	153.26
789.703	200.36
789.884	194.22
790.065	108.2
790.246	272.04
790.427	118.44
790.607	91.82
790.788	231.08
790.969	173.74
791.15	224.94
791.331	198.31
791.512	149.16
791.693	143.02
791.874	157.35
792.054	128.68
792.235	177.83
792.416	181.93
792.597	89.77
792.778	181.93
792.958	196.26
793.139	102.06
793.32	93.87
793.5	85.67
793.681	73.39
793.862	157.35
794.042	118.44
794.223	138.92
794.404	161.45
794.584	130.73
794.765	151.21
794.945	167.59
795.126	120.49
795.306	159.4
795.487	93.87
795.667	83.63
795.848	93.87
796.028	100.01
796.209	183.98
796.389	124.58
796.57	106.15
796.75	151.21
796.93	145.06
797.111	149.16
797.291	122.54
797.471	194.22
797.652	130.73
797.832	108.2
798.012	120.49
798.192	54.95
798.373	128.68
798.553	116.39
798.733	97.96
798.913	151.21
799.093	124.58
799.274	161.45
799.454	177.83
799.634	130.73
799.814	132.78
799.994	126.63
800.174	106.15
800.354	171.69
800.534	75.43
800.714	163.5
800.894	159.4
801.074	112.3
801.254	22.19
801.434	126.63
801.614	95.91
801.794	106.15
801.974	460.45
802.154	79.53
802.334	177.83
802.514	73.39
802.693	145.06
802.873	138.92
803.053	147.11
803.233	161.45
803.413	114.34
803.592	77.48
803.772	155.3
803.952	77.48
804.131	75.43
804.311	63.15
804.491	73.39
804.67	50.86
804.85	71.34
805.03	136.87
805.209	73.39
805.389	102.06
805.568	112.3
805.748	91.82
805.928	159.4
806.107	81.58
806.287	132.78
806.466	95.91
806.646	87.72
806.825	26.28
807.004	85.67
807.184	71.34
807.363	118.44
807.543	136.87
807.722	36.52
807.901	100.01
808.081	118.44
808.26	65.19
808.439	118.44
808.619	59.05
808.798	83.63
808.977	65.19
809.156	87.72
809.336	65.19
809.515	104.11
809.694	40.62
809.873	122.54
810.052	38.57
810.231	97.96
810.411	50.86
810.59	91.82
810.769	59.05
810.948	-8.53
811.127	34.47
811.306	81.58
811.485	67.24
811.664	104.11
811.843	116.39
812.022	28.33
812.201	65.19
812.38	110.25
812.559	34.47
812.737	69.29
812.916	16.04
813.095	28.33
813.274	106.15
813.453	89.77
813.632	50.86
813.811	130.73
813.989	40.62
814.168	1.71
814.347	46.76
814.526	63.15
814.704	106.15
814.883	132.78
815.062	11.95
815.24	93.87
815.419	32.43
815.598	83.63
815.776	30.38
815.955	67.24
816.133	97.96
816.312	73.39
816.49	106.15
816.669	42.67
816.847	73.39
817.026	-0.34
817.204	85.67
817.383	22.19
817.561	48.81
817.74	91.82
817.918	1.71
818.097	34.47
818.275	75.43
818.453	-2.39
818.632	104.11
818.81	22.19
818.988	50.86
819.167	63.15
819.345	73.39
819.523	116.39
819.701	91.82
819.879	57
820.058	-16.73
820.236	63.15
820.414	24.23
820.592	59.05
820.77	106.15
820.948	93.87
821.127	36.52
821.305	124.58
821.483	100.01
821.661	5.8
821.839	50.86
822.017	63.15
822.195	57
822.373	83.63
822.551	-12.63
822.729	20.14
822.907	71.34
823.085	108.2
823.262	114.34
823.44	40.62
823.618	30.38
823.796	100.01
823.974	30.38
824.152	63.15
824.329	132.78
824.507	83.63
824.685	65.19
824.863	30.38
825.04	108.2
825.218	42.67
825.396	42.67
825.574	-6.49
825.751	69.29
825.929	34.47
826.107	-0.34
826.284	91.82
826.462	71.34
826.639	-51.54
826.817	75.43
826.994	77.48
827.172	42.67
827.349	81.58
827.527	11.95
827.704	61.1
827.882	-45.4
828.059	42.67
828.237	81.58
828.414	57
828.591	85.67
828.769	11.95
828.946	48.81
829.124	9.9
829.301	83.63
829.478	9.9
829.655	34.47
829.833	57
830.01	18.09
830.187	28.33
830.364	89.77
830.542	57
830.719	95.91
830.896	1.71
831.073	7.85
831.25	69.29
831.427	5.8
831.604	-12.63
831.782	83.63
831.959	28.33
832.136	87.72
832.313	79.53
832.49	24.23
832.667	81.58
832.844	5.8
833.021	30.38
833.198	67.24
833.374	61.1
833.551	52.91
833.728	52.91
833.905	104.11
834.082	24.23
834.259	13.99
834.436	18.09
834.612	-29.01
834.789	46.76
834.966	50.86
835.143	18.09
835.319	69.29
835.496	3.75
835.673	38.57
835.85	75.43
836.026	1.71
836.203	34.47
836.38	13.99
836.556	79.53
836.733	42.67
836.909	69.29
837.086	16.04
837.262	52.91
837.439	18.09
837.616	-16.73
837.792	20.14
837.968	11.95
838.145	93.87
838.321	38.57
838.498	26.28
838.674	13.99
838.851	9.9
839.027	54.95
839.203	-2.39
839.38	3.75
839.556	-8.53
839.732	7.85
839.909	3.75
840.085	3.75
840.261	-4.44
840.437	48.81
840.614	34.47
840.79	-2.39
840.966	16.04
841.142	59.05
841.318	5.8
841.494	108.2
841.671	40.62
841.847	40.62
842.023	50.86
842.199	48.81
842.375	22.19
842.551	44.71
842.727	18.09
842.903	-22.87
843.079	-10.58
843.255	-20.82
843.431	46.76
843.607	44.71
843.783	3.75
843.959	1.71
844.134	95.91
844.31	-22.87
844.486	42.67
844.662	34.47
844.838	50.86
845.013	5.8
845.189	79.53
845.365	7.85
845.541	44.71
845.716	87.72
845.892	106.15
846.068	93.87
846.244	26.28
846.419	-2.39
846.595	5.8
846.77	-12.63
846.946	67.24
847.122	-49.49
847.297	-37.2
847.473	3.75
847.648	-26.96
847.824	7.85
847.999	-10.58
848.175	75.43
848.35	71.34
848.526	18.09
848.701	-6.49
848.876	9.9
849.052	59.05
849.227	-18.77
849.403	-45.4
849.578	-18.77
849.753	-45.4
849.929	3.75
850.104	18.09
850.279	46.76
850.454	61.1
850.63	42.67
850.805	-18.77
850.98	9.9
851.155	-16.73
851.33	59.05
851.505	5.8
851.681	34.47
851.856	-12.63
852.031	50.86
852.206	38.57
852.381	-0.34
852.556	38.57
852.731	38.57
852.906	20.14
853.081	-18.77
853.256	1.71
853.431	11.95
853.606	-43.35
853.781	-43.35
853.956	-0.34
854.131	9.9
854.305	-20.82
854.48	-12.63
854.655	18.09
854.83	54.95
855.005	44.71
855.18	11.95
855.354	40.62
855.529	59.05
855.704	-45.4
855.879	-14.68
856.053	22.19
856.228	22.19
856.403	-80.21
856.577	42.67
856.752	-33.11
856.926	75.43
857.101	61.1
857.276	20.14
857.45	7.85
857.625	-37.2
857.799	30.38
857.974	42.67
858.148	-31.06
858.323	11.95
858.497	1.71
858.672	-0.34
858.846	-18.77
859.02	34.47
859.195	11.95
859.369	1.71
859.543	36.52
859.718	89.77
859.892	24.23
860.066	-4.44
860.241	-74.07
860.415	-63.83
860.589	20.14
860.763	77.48
860.938	-4.44
861.112	36.52
861.286	30.38
861.46	-0.34
861.634	32.43
861.808	-29.01
861.982	50.86
862.157	36.52
862.331	-6.49
862.505	-12.63
862.679	-49.49
862.853	-2.39
863.027	5.8
863.201	59.05
863.375	-26.96
863.549	13.99
863.722	18.09
863.896	-49.49
864.07	34.47
864.244	-4.44
864.418	-24.92
864.592	28.33
864.766	67.24
864.939	30.38
865.113	20.14
865.287	57
865.461	57
865.634	34.47
865.808	18.09
865.982	11.95
866.156	59.05
866.329	-16.73
866.503	57
866.676	-14.68
866.85	16.04
867.024	-14.68
867.197	18.09
867.371	11.95
867.544	57
867.718	-20.82
867.891	-4.44
868.065	-55.64
868.238	20.14
868.412	54.95
868.585	-14.68
868.759	38.57
868.932	5.8
869.105	20.14
869.279	75.43
869.452	26.28
869.625	81.58
869.799	-53.59
869.972	69.29
870.145	-59.73
870.319	-6.49
870.492	5.8
870.665	1.71
870.838	42.67
871.011	28.33
871.185	42.67
871.358	46.76
871.531	79.53
871.704	13.99
871.877	50.86
872.05	9.9
872.223	34.47
872.396	85.67
872.569	36.52
872.742	48.81
872.915	-33.11
873.088	-0.34
873.261	100.01
873.434	36.52
873.607	46.76
873.78	20.14
873.953	9.9
874.126	5.8
874.299	-14.68
874.471	-6.49
874.644	18.09
874.817	-18.77
874.99	61.1
875.163	-26.96
875.335	-94.55
875.508	5.8
875.681	38.57
875.853	22.19
876.026	-33.11
876.199	20.14
876.371	-8.53
876.544	16.04
876.717	1.71
876.889	1.71
877.062	65.19
877.234	38.57
877.407	38.57
877.579	-8.53
877.752	9.9
877.924	13.99
878.097	89.77
878.269	20.14
878.442	34.47
878.614	46.76
878.786	9.9
878.959	22.19
879.131	30.38
879.303	-22.87
879.476	-20.82
879.648	-6.49
879.82	63.15
879.993	-26.96
880.165	-14.68
880.337	24.23
880.509	22.19
880.681	-16.73
880.854	71.34
881.026	-65.88
881.198	50.86
881.37	46.76
881.542	-26.96
881.714	-26.96
881.886	26.28
882.058	-61.78
882.23	-18.77
882.402	-8.53
882.574	40.62
882.746	3.75
882.918	-41.3
883.09	11.95
883.262	54.95
883.434	3.75
883.606	26.28
883.778	9.9
883.95	16.04
884.122	1.71
884.293	-29.01
884.465	28.33
884.637	-18.77
884.809	36.52
884.98	-4.44
885.152	26.28
885.324	1.71
885.496	46.76
885.667	9.9
885.839	-29.01
886.011	-12.63
886.182	-51.54
886.354	11.95
886.525	46.76
886.697	44.71
886.869	-78.16
887.04	-14.68
887.212	-2.39
887.383	20.14
887.555	42.67
887.726	26.28
887.897	1.71
888.069	-20.82
888.24	59.05
888.412	-16.73
888.583	28.33
888.754	63.15
888.926	59.05
889.097	40.62
889.268	42.67
889.44	18.09
889.611	87.72
889.782	-69.97
889.953	13.99
890.125	9.9
890.296	18.09
890.467	-12.63
890.638	13.99
890.809	-4.44
890.98	28.33
891.151	30.38
891.323	-78.16
891.494	-24.92
891.665	40.62
891.836	-35.16
892.007	-2.39
892.178	89.77
892.349	-45.4
892.52	-55.64
892.691	36.52
892.862	-18.77
893.032	5.8
893.203	65.19
893.374	-47.44
893.545	67.24
893.716	-53.59
893.887	-37.2
894.057	22.19
894.228	28.33
894.399	16.04
894.57	1.71
894.74	42.67
894.911	-10.58
895.082	-6.49
895.253	-4.44
895.423	7.85
895.594	40.62
895.764	91.82
895.935	34.47
896.106	48.81
896.276	61.1
896.447	40.62
896.617	16.04
896.788	20.14
896.958	-8.53
897.129	13.99
897.299	75.43
897.47	-37.2
897.64	30.38
897.81	-12.63
897.981	-20.82
898.151	-63.83
898.322	85.67
898.492	-6.49
898.662	28.33
898.832	42.67
899.003	5.8
899.173	67.24
899.343	61.1
899.513	40.62
