Data from USB4F104151__30__12-53-37-086.txt Node

Date: Fri Mar 14 12:53:37 EDT 2025
User: louis
Spectrometer: USB4F10415
Trigger mode: 4
Integration Time (sec): 1.000000E-2
Scans to average: 1
Electric dark correction enabled: true
Nonlinearity correction enabled: false
Boxcar width: 0
XAxis mode: Wavelengths
Number of Pixels in Spectrum: 3648
>>>>>Begin Spectral Data<<<<<
178.204	-23.89
178.424	-23.89
178.644	-23.89
178.864	-17.75
179.084	8.87
179.304	-38.23
179.524	-25.94
179.744	-30.04
179.964	-42.32
180.184	53.93
180.404	2.73
180.624	55.98
180.844	68.27
181.064	27.31
181.283	-11.61
181.503	-1.37
181.723	-58.71
181.943	-79.19
182.163	-19.8
182.383	-44.37
182.602	60.07
182.822	47.79
183.042	31.4
183.262	10.92
183.482	29.35
183.701	64.17
183.921	27.31
184.141	33.45
184.361	6.83
184.58	64.17
184.8	-11.61
185.02	6.83
185.239	55.98
185.459	76.46
185.679	37.55
185.898	60.07
186.118	-13.65
186.338	35.5
186.557	31.4
186.777	37.55
186.997	0.68
187.216	12.97
187.436	53.93
187.655	-17.75
187.875	27.31
188.095	4.78
188.314	23.21
188.534	47.79
188.753	6.83
188.973	6.83
189.192	60.07
189.412	47.79
189.631	-9.56
189.851	-25.94
190.07	92.84
190.29	29.35
190.509	-19.8
190.729	-5.46
190.948	-7.51
191.168	-13.65
191.387	84.65
191.607	-56.66
191.826	55.98
192.045	-30.04
192.265	27.31
192.484	12.97
192.704	-9.56
192.923	49.83
193.142	53.93
193.362	33.45
193.581	101.03
193.8	25.26
194.02	103.08
194.239	29.35
194.458	86.7
194.678	49.83
194.897	37.55
195.116	29.35
195.335	39.59
195.555	47.79
195.774	47.79
195.993	29.35
196.212	-42.32
196.432	-1.37
196.651	-3.41
196.87	6.83
197.089	125.61
197.308	-25.94
197.528	-9.56
197.747	45.74
197.966	-58.71
198.185	60.07
198.404	19.11
198.623	23.21
198.842	-30.04
199.062	35.5
199.281	-17.75
199.5	70.31
199.719	55.98
199.938	-17.75
200.157	66.22
200.376	62.12
200.595	70.31
200.814	-25.94
201.033	82.6
201.252	-9.56
201.471	31.4
201.69	0.68
201.909	35.5
202.128	60.07
202.347	0.68
202.566	-21.85
202.785	21.16
203.004	-19.8
203.223	35.5
203.442	-13.65
203.661	19.11
203.879	4.78
204.098	39.59
204.317	-15.7
204.536	15.02
204.755	-15.7
204.974	31.4
205.193	17.07
205.411	-27.99
205.63	45.74
205.849	-5.46
206.068	66.22
206.287	21.16
206.505	-44.37
206.724	-64.85
206.943	33.45
207.162	55.98
207.381	-11.61
207.599	-5.46
207.818	8.87
208.037	45.74
208.255	-21.85
208.474	25.26
208.693	-44.37
208.911	49.83
209.13	-15.7
209.349	37.55
209.567	17.07
209.786	68.27
210.005	-25.94
210.223	23.21
210.442	62.12
210.661	76.46
210.879	82.6
211.098	78.51
211.316	78.51
211.535	53.93
211.753	-73.04
211.972	-17.75
212.191	37.55
212.409	62.12
212.628	84.65
212.846	17.07
213.065	19.11
213.283	21.16
213.502	74.41
213.72	51.88
213.938	35.5
214.157	10.92
214.375	47.79
214.594	39.59
214.812	70.31
215.031	17.07
215.249	2.73
215.467	31.4
215.686	-5.46
215.904	115.37
216.122	23.21
216.341	8.87
216.559	-17.75
216.778	27.31
216.996	64.17
217.214	45.74
217.432	4.78
217.651	-11.61
217.869	15.02
218.087	49.83
218.306	27.31
218.524	53.93
218.742	6.83
218.96	-17.75
219.179	105.13
219.397	70.31
219.615	78.51
219.833	37.55
220.051	31.4
220.27	27.31
220.488	-15.7
220.706	15.02
220.924	33.45
221.142	-21.85
221.36	-30.04
221.578	35.5
221.796	70.31
222.015	25.26
222.233	-5.46
222.451	4.78
222.669	-64.85
222.887	4.78
223.105	66.22
223.323	94.89
223.541	-11.61
223.759	31.4
223.977	-27.99
224.195	39.59
224.413	47.79
224.631	27.31
224.849	51.88
225.067	15.02
225.285	19.11
225.503	60.07
225.721	12.97
225.939	49.83
226.157	8.87
226.375	66.22
226.592	64.17
226.81	47.79
227.028	17.07
227.246	15.02
227.464	-19.8
227.682	74.41
227.9	-1.37
228.117	10.92
228.335	-9.56
228.553	12.97
228.771	8.87
228.989	6.83
229.206	84.65
229.424	29.35
229.642	2.73
229.86	49.83
230.077	10.92
230.295	39.59
230.513	10.92
230.731	62.12
230.948	39.59
231.166	103.08
231.384	-15.7
231.601	-9.56
231.819	70.31
232.037	31.4
232.254	64.17
232.472	-15.7
232.689	-25.94
232.907	115.37
233.125	51.88
233.342	17.07
233.56	-42.32
233.777	53.93
233.995	41.64
234.213	17.07
234.43	-44.37
234.648	70.31
234.865	12.97
235.083	43.69
235.3	-50.52
235.518	-9.56
235.735	78.51
235.953	62.12
236.17	-15.7
236.388	-109.91
236.605	62.12
236.822	12.97
237.04	33.45
237.257	-13.65
237.475	33.45
237.692	27.31
237.909	70.31
238.127	-9.56
238.344	-1.37
238.562	37.55
238.779	-1.37
238.996	62.12
239.214	-21.85
239.431	29.35
239.648	-23.89
239.865	78.51
240.083	37.55
240.3	80.55
240.517	76.46
240.735	45.74
240.952	8.87
241.169	72.36
241.386	23.21
241.603	43.69
241.821	-11.61
242.038	58.03
242.255	-15.7
242.472	23.21
242.689	21.16
242.907	-68.95
243.124	39.59
243.341	33.45
243.558	-11.61
243.775	-19.8
243.992	-60.76
244.209	92.84
244.426	31.4
244.643	53.93
244.86	41.64
245.078	76.46
245.295	25.26
245.512	-9.56
245.729	35.5
245.946	-54.61
246.163	-15.7
246.38	-36.18
246.597	10.92
246.814	-11.61
247.031	-11.61
247.248	62.12
247.464	82.6
247.681	37.55
247.898	41.64
248.115	101.03
248.332	-36.18
248.549	41.64
248.766	-7.51
248.983	37.55
249.2	29.35
249.417	-36.18
249.633	15.02
249.85	15.02
250.067	-1.37
250.284	10.92
250.501	25.26
250.717	-30.04
250.934	0.68
251.151	12.97
251.368	43.69
251.585	6.83
251.801	27.31
252.018	-32.08
252.235	72.36
252.451	25.26
252.668	60.07
252.885	15.02
253.102	17.07
253.318	94.89
253.535	-3.41
253.752	39.59
253.968	-44.37
254.185	-1.37
254.401	51.88
254.618	2.73
254.835	23.21
255.051	76.46
255.268	-25.94
255.484	-5.46
255.701	8.87
255.917	-7.51
256.134	2.73
256.351	-9.56
256.567	19.11
256.784	45.74
257	2.73
257.217	47.79
257.433	-36.18
257.65	-21.85
257.866	64.17
258.082	21.16
258.299	-9.56
258.515	43.69
258.732	-58.71
258.948	4.78
259.165	15.02
259.381	-19.8
259.597	19.11
259.814	45.74
260.03	45.74
260.246	35.5
260.463	39.59
260.679	25.26
260.895	51.88
261.112	45.74
261.328	8.87
261.544	-23.89
261.761	43.69
261.977	-30.04
262.193	23.21
262.409	17.07
262.626	-3.41
262.842	64.17
263.058	17.07
263.274	17.07
263.49	66.22
263.707	64.17
263.923	33.45
264.139	-83.28
264.355	12.97
264.571	-7.51
264.787	-7.51
265.004	49.83
265.22	92.84
265.436	58.03
265.652	-21.85
265.868	58.03
266.084	78.51
266.3	-23.89
266.516	4.78
266.732	-7.51
266.948	55.98
267.164	33.45
267.38	-5.46
267.596	-9.56
267.812	-9.56
268.028	113.32
268.244	-1.37
268.46	-15.7
268.676	17.07
268.892	31.4
269.108	58.03
269.324	80.55
269.54	-42.32
269.756	17.07
269.972	-32.08
270.188	-5.46
270.403	33.45
270.619	0.68
270.835	-23.89
271.051	-27.99
271.267	-32.08
271.483	23.21
271.698	80.55
271.914	37.55
272.13	127.66
272.346	17.07
272.562	17.07
272.777	-36.18
272.993	39.59
273.209	-36.18
273.425	-44.37
273.64	53.93
273.856	21.16
274.072	-30.04
274.287	62.12
274.503	70.31
274.719	-42.32
274.934	-42.32
275.15	53.93
275.366	31.4
275.581	2.73
275.797	64.17
276.012	8.87
276.228	37.55
276.444	49.83
276.659	121.51
276.875	72.36
277.09	53.93
277.306	-17.75
277.521	78.51
277.737	-3.41
277.952	33.45
278.168	49.83
278.383	35.5
278.599	49.83
278.814	66.22
279.03	-13.65
279.245	41.64
279.461	2.73
279.676	33.45
279.892	-11.61
280.107	53.93
280.322	12.97
280.538	45.74
280.753	23.21
280.969	25.26
281.184	-1.37
281.399	43.69
281.615	47.79
281.83	0.68
282.045	33.45
282.26	31.4
282.476	55.98
282.691	53.93
282.906	17.07
283.122	-38.23
283.337	103.08
283.552	-5.46
283.767	21.16
283.983	17.07
284.198	74.41
284.413	19.11
284.628	-7.51
284.843	80.55
285.058	-5.46
285.274	-19.8
285.489	-1.37
285.704	12.97
285.919	98.99
286.134	43.69
286.349	19.11
286.564	66.22
286.779	47.79
286.995	39.59
287.21	45.74
287.425	15.02
287.64	2.73
287.855	41.64
288.07	-13.65
288.285	103.08
288.5	12.97
288.715	96.94
288.93	25.26
289.145	64.17
289.36	27.31
289.575	-1.37
289.79	2.73
290.004	8.87
290.219	-9.56
290.434	21.16
290.649	17.07
290.864	-48.47
291.079	-36.18
291.294	33.45
291.509	49.83
291.724	-11.61
291.938	8.87
292.153	-27.99
292.368	45.74
292.583	53.93
292.798	-11.61
293.012	-5.46
293.227	39.59
293.442	10.92
293.657	25.26
293.871	-9.56
294.086	-9.56
294.301	88.75
294.516	39.59
294.73	-3.41
294.945	2.73
295.16	64.17
295.374	10.92
295.589	60.07
295.804	-9.56
296.018	-15.7
296.233	2.73
296.447	15.02
296.662	10.92
296.877	-15.7
297.091	0.68
297.306	72.36
297.52	33.45
297.735	55.98
297.949	62.12
298.164	31.4
298.378	0.68
298.593	62.12
298.807	27.31
299.022	37.55
299.236	47.79
299.451	51.88
299.665	62.12
299.88	4.78
300.094	58.03
300.309	-25.94
300.523	-1.37
300.737	4.78
300.952	92.84
301.166	29.35
301.381	-3.41
301.595	70.31
301.809	39.59
302.024	-17.75
302.238	27.31
302.452	70.31
302.667	4.78
302.881	45.74
303.095	45.74
303.309	51.88
303.524	49.83
303.738	35.5
303.952	45.74
304.166	55.98
304.381	-19.8
304.595	25.26
304.809	39.59
305.023	0.68
305.237	31.4
305.452	58.03
305.666	60.07
305.88	19.11
306.094	-27.99
306.308	43.69
306.522	53.93
306.736	68.27
306.95	49.83
307.164	21.16
307.379	10.92
307.593	10.92
307.807	72.36
308.021	49.83
308.235	86.7
308.449	-11.61
308.663	23.21
308.877	-3.41
309.091	-5.46
309.305	115.37
309.519	39.59
309.733	4.78
309.947	-15.7
310.161	23.21
310.374	27.31
310.588	45.74
310.802	64.17
311.016	70.31
311.23	33.45
311.444	23.21
311.658	6.83
311.872	45.74
312.085	31.4
312.299	58.03
312.513	49.83
312.727	-25.94
312.941	21.16
313.154	-42.32
313.368	62.12
313.582	43.69
313.796	76.46
314.009	-3.41
314.223	70.31
314.437	-19.8
314.651	35.5
314.864	41.64
315.078	15.02
315.292	92.84
315.505	-11.61
315.719	58.03
315.933	6.83
316.146	-21.85
316.36	47.79
316.573	23.21
316.787	72.36
317.001	72.36
317.214	27.31
317.428	-5.46
317.641	21.16
317.855	37.55
318.068	98.99
318.282	6.83
318.495	103.08
318.709	21.16
318.922	33.45
319.136	72.36
319.349	49.83
319.563	12.97
319.776	35.5
319.99	10.92
320.203	43.69
320.417	12.97
320.63	8.87
320.843	21.16
321.057	66.22
321.27	55.98
321.483	19.11
321.697	76.46
321.91	88.75
322.124	15.02
322.337	-9.56
322.55	62.12
322.763	27.31
322.977	55.98
323.19	-27.99
323.403	6.83
323.617	51.88
323.83	-3.41
324.043	45.74
324.256	6.83
324.469	17.07
324.683	33.45
324.896	25.26
325.109	53.93
325.322	76.46
325.535	-19.8
325.748	12.97
325.962	4.78
326.175	2.73
326.388	92.84
326.601	53.93
326.814	17.07
327.027	62.12
327.24	45.74
327.453	41.64
327.666	8.87
327.879	31.4
328.092	68.27
328.305	-30.04
328.518	6.83
328.731	-1.37
328.944	6.83
329.157	-36.18
329.37	17.07
329.583	92.84
329.796	-23.89
330.009	37.55
330.222	86.7
330.435	23.21
330.648	25.26
330.861	25.26
331.073	25.26
331.286	41.64
331.499	15.02
331.712	19.11
331.925	15.02
332.138	-21.85
332.35	-9.56
332.563	29.35
332.776	88.75
332.989	62.12
333.202	80.55
333.414	29.35
333.627	33.45
333.84	62.12
334.053	2.73
334.265	72.36
334.478	45.74
334.691	49.83
334.903	23.21
335.116	55.98
335.329	41.64
335.541	-5.46
335.754	-5.46
335.966	29.35
336.179	55.98
336.392	45.74
336.604	113.32
336.817	4.78
337.029	-21.85
337.242	15.02
337.454	47.79
337.667	43.69
337.88	82.6
338.092	45.74
338.305	80.55
338.517	-1.37
338.729	19.11
338.942	19.11
339.154	45.74
339.367	12.97
339.579	15.02
339.792	2.73
340.004	51.88
340.217	45.74
340.429	70.31
340.641	55.98
340.854	45.74
341.066	25.26
341.278	35.5
341.491	-3.41
341.703	45.74
341.915	8.87
342.128	51.88
342.34	-27.99
342.552	51.88
342.764	98.99
342.977	23.21
343.189	31.4
343.401	53.93
343.613	4.78
343.826	74.41
344.038	78.51
344.25	6.83
344.462	-66.9
344.674	51.88
344.886	-27.99
345.099	66.22
345.311	53.93
345.523	-38.23
345.735	6.83
345.947	17.07
346.159	12.97
346.371	17.07
346.583	8.87
346.795	15.02
347.007	29.35
347.219	117.42
347.431	6.83
347.643	55.98
347.855	43.69
348.067	66.22
348.279	41.64
348.491	31.4
348.703	31.4
348.915	6.83
349.127	-11.61
349.339	10.92
349.551	-19.8
349.763	31.4
349.975	39.59
350.187	25.26
350.399	49.83
350.61	33.45
350.822	-38.23
351.034	41.64
351.246	-15.7
351.458	27.31
351.669	10.92
351.881	17.07
352.093	-3.41
352.305	0.68
352.517	37.55
352.728	47.79
352.94	98.99
353.152	17.07
353.363	86.7
353.575	131.75
353.787	12.97
353.999	-46.42
354.21	-34.13
354.422	-19.8
354.633	-7.51
354.845	45.74
355.057	84.65
355.268	49.83
355.48	94.89
355.692	19.11
355.903	15.02
356.115	-5.46
356.326	33.45
356.538	101.03
356.749	41.64
356.961	72.36
357.172	53.93
357.384	-3.41
357.595	51.88
357.807	55.98
358.018	15.02
358.23	101.03
358.441	12.97
358.653	45.74
358.864	19.11
359.075	60.07
359.287	17.07
359.498	62.12
359.709	10.92
359.921	27.31
360.132	19.11
360.344	53.93
360.555	103.08
360.766	53.93
360.977	55.98
361.189	53.93
361.4	4.78
361.611	19.11
361.823	33.45
362.034	27.31
362.245	39.59
362.456	64.17
362.667	-34.13
362.879	8.87
363.09	-1.37
363.301	31.4
363.512	72.36
363.723	-99.67
363.935	66.22
364.146	4.78
364.357	-13.65
364.568	-17.75
364.779	-32.08
364.99	6.83
365.201	-23.89
365.412	74.41
365.623	49.83
365.834	6.83
366.045	4.78
366.256	31.4
366.467	23.21
366.678	47.79
366.889	23.21
367.1	62.12
367.311	109.22
367.522	-9.56
367.733	-9.56
367.944	64.17
368.155	-7.51
368.366	-11.61
368.577	-34.13
368.788	53.93
368.999	43.69
369.209	-9.56
369.42	23.21
369.631	60.07
369.842	8.87
370.053	49.83
370.264	47.79
370.474	92.84
370.685	68.27
370.896	12.97
371.107	62.12
371.317	33.45
371.528	-36.18
371.739	60.07
371.95	55.98
372.16	90.79
372.371	31.4
372.582	-13.65
372.792	53.93
373.003	35.5
373.214	72.36
373.424	94.89
373.635	-32.08
373.846	0.68
374.056	53.93
374.267	96.94
374.477	58.03
374.688	90.79
374.898	-52.56
375.109	43.69
375.319	125.61
375.53	107.18
375.74	6.83
375.951	53.93
376.161	39.59
376.372	-1.37
376.582	-36.18
376.793	60.07
377.003	29.35
377.214	33.45
377.424	72.36
377.635	-19.8
377.845	62.12
378.055	6.83
378.266	88.75
378.476	174.76
378.686	105.13
378.897	49.83
379.107	68.27
379.317	33.45
379.528	78.51
379.738	43.69
379.948	29.35
380.158	43.69
380.369	107.18
380.579	25.26
380.789	23.21
380.999	55.98
381.21	6.83
381.42	98.99
381.63	2.73
381.84	21.16
382.05	39.59
382.261	35.5
382.471	92.84
382.681	19.11
382.891	15.02
383.101	55.98
383.311	12.97
383.521	66.22
383.731	-27.99
383.941	4.78
384.151	29.35
384.361	84.65
384.571	35.5
384.781	8.87
384.991	66.22
385.201	43.69
385.411	17.07
385.621	92.84
385.831	62.12
386.041	64.17
386.251	133.8
386.461	80.55
386.671	-23.89
386.881	45.74
387.091	53.93
387.301	53.93
387.511	35.5
387.72	86.7
387.93	53.93
388.14	37.55
388.35	49.83
388.56	35.5
388.769	35.5
388.979	55.98
389.189	2.73
389.399	27.31
389.609	64.17
389.818	45.74
390.028	84.65
390.238	47.79
390.447	17.07
390.657	43.69
390.867	8.87
391.076	98.99
391.286	39.59
391.496	174.76
391.705	76.46
391.915	47.79
392.125	6.83
392.334	78.51
392.544	29.35
392.753	31.4
392.963	33.45
393.172	107.18
393.382	45.74
393.591	-9.56
393.801	103.08
394.01	70.31
394.22	19.11
394.429	4.78
394.639	47.79
394.848	-3.41
395.058	29.35
395.267	35.5
395.477	55.98
395.686	66.22
395.895	139.94
396.105	45.74
396.314	27.31
396.524	68.27
396.733	80.55
396.942	66.22
397.152	29.35
397.361	103.08
397.57	72.36
397.78	115.37
397.989	72.36
398.198	68.27
398.407	72.36
398.617	105.13
398.826	58.03
399.035	70.31
399.244	125.61
399.453	88.75
399.663	86.7
399.872	88.75
400.081	31.4
400.29	111.27
400.499	101.03
400.708	8.87
400.917	98.99
401.127	58.03
401.336	80.55
401.545	82.6
401.754	55.98
401.963	53.93
402.172	90.79
402.381	62.12
402.59	35.5
402.799	62.12
403.008	17.07
403.217	146.09
403.426	37.55
403.635	129.7
403.844	-3.41
404.053	115.37
404.262	74.41
404.471	98.99
404.68	98.99
404.888	105.13
405.097	156.33
405.306	131.75
405.515	117.42
405.724	27.31
405.933	96.94
406.142	101.03
406.35	66.22
406.559	123.56
406.768	129.7
406.977	139.94
407.185	141.99
407.394	133.8
407.603	45.74
407.812	72.36
408.02	148.14
408.229	137.9
408.438	164.52
408.646	162.47
408.855	111.27
409.064	119.46
409.272	156.33
409.481	164.52
409.69	199.34
409.898	207.53
410.107	268.97
410.315	228.01
410.524	158.38
410.733	234.15
410.941	199.34
411.15	266.92
411.358	318.12
411.567	252.58
411.775	215.72
411.984	307.88
412.192	277.16
412.401	201.38
412.609	191.14
412.818	277.16
413.026	244.39
413.234	305.83
413.443	297.64
413.651	258.73
413.86	354.98
414.068	359.08
414.276	402.08
414.485	363.17
414.693	365.22
414.901	430.76
415.11	418.47
415.318	350.89
415.526	492.2
415.734	547.49
415.943	436.9
416.151	504.48
416.359	434.85
416.567	510.63
416.776	527.01
416.984	557.73
417.192	520.87
417.4	565.92
417.608	610.98
417.817	672.42
418.025	621.22
418.233	670.37
418.441	610.98
418.649	656.03
418.857	692.9
419.065	758.43
419.273	733.86
419.481	701.09
419.689	793.25
419.897	805.53
420.105	873.12
420.313	826.01
420.521	934.56
420.729	993.95
420.937	944.8
421.145	979.61
421.353	940.7
421.561	1120.92
421.769	1071.77
421.977	1245.85
422.185	1133.21
422.393	1251.99
422.601	1303.19
422.809	1301.14
423.017	1295
423.224	1309.33
423.432	1407.64
423.64	1413.78
423.848	1473.17
424.056	1442.45
424.263	1610.39
424.471	1510.04
424.679	1577.62
424.887	1704.59
425.094	1772.18
425.302	1675.92
425.51	1809.04
425.718	2022.03
425.925	1880.72
426.133	2040.46
426.341	2112.14
426.548	2144.91
426.756	2134.67
426.964	2257.54
427.171	2450.05
427.379	2292.36
427.586	2429.57
427.794	2564.74
428.001	2587.27
428.209	2820.74
428.417	2697.86
428.624	2990.72
428.832	2835.07
429.039	3035.77
429.247	2851.46
429.454	3213.95
429.662	3271.29
429.869	3181.18
430.076	3363.45
430.284	3312.25
430.491	3480.18
430.699	3641.97
430.906	3652.21
431.114	3732.08
431.321	3807.86
431.528	3848.82
431.736	4108.91
431.943	4375.14
432.15	4231.79
432.358	4203.11
432.565	4463.21
432.772	4551.27
432.979	4721.25
433.187	4921.95
433.394	4723.3
433.601	5202.52
433.808	5233.24
434.016	5042.78
434.223	5292.63
434.43	5827.15
434.637	5534.29
434.844	5929.55
435.052	5997.14
435.259	6060.62
435.466	6085.2
435.673	5872.21
435.88	6242.89
436.087	6664.77
436.294	6920.77
436.501	6611.53
436.708	6591.05
436.915	6910.53
437.122	7389.75
437.329	7103.04
437.537	7395.9
437.743	7604.79
437.95	7531.06
438.157	7844.4
438.364	8092.21
438.571	8258.09
438.778	8313.39
438.985	9101.86
439.192	8663.59
439.399	8847.91
439.606	8516.14
439.813	9239.07
440.02	9953.81
440.227	9415.19
440.433	9427.48
440.64	9777.69
440.847	10088.98
441.054	10005.01
441.261	10574.35
441.467	10553.87
441.674	10789.38
441.881	11100.67
442.088	11313.66
442.294	10936.84
442.501	11416.06
442.708	11719.16
442.914	11923.96
443.121	12239.34
443.328	12261.87
443.534	13101.54
443.741	12800.49
443.948	12567.02
444.154	13433.31
444.361	13541.85
444.568	13695.45
444.774	13341.15
444.981	13513.18
445.187	14070.23
445.394	14643.66
445.6	14569.93
445.807	15792.57
446.013	15108.55
446.22	15557.05
446.426	16232.88
446.633	16175.54
446.839	16820.65
447.046	15997.37
447.252	16961.96
447.459	16906.66
447.665	17117.61
447.871	17891.74
448.078	18477.46
448.284	17682.84
448.491	17998.23
448.697	18735.5
448.903	19143.05
449.11	19401.09
449.316	18919.82
449.522	19472.77
449.728	19980.67
449.935	19757.44
450.141	19962.23
450.347	20461.94
450.553	20068.73
450.76	20062.58
450.966	20722.03
451.172	20193.65
451.378	21113.19
451.584	20744.56
451.791	20922.73
451.997	21148.01
452.203	21518.69
452.409	21479.78
452.615	21330.28
452.821	20623.73
453.027	20351.35
453.233	21463.4
453.44	20470.13
453.646	20830.57
453.852	20894.06
454.058	21248.36
454.264	20568.43
454.47	21377.38
454.676	20853.1
454.882	21021.03
455.088	19411.33
455.294	19943.8
455.5	20124.02
455.705	20218.23
455.911	19534.21
456.117	19073.42
456.323	18966.92
456.529	17889.69
456.735	18616.72
456.941	18092.44
457.147	18055.58
457.352	17375.65
457.558	17119.65
457.764	17269.16
457.97	16765.35
458.176	16710.06
458.381	16376.24
458.587	15591.87
458.793	15555.01
458.999	15165.89
459.204	16007.61
459.41	15622.59
459.616	14547.4
459.821	14467.53
460.027	14602.7
460.233	14234.07
460.438	13576.67
460.644	13672.92
460.85	13021.67
461.055	12845.54
461.261	13101.54
461.466	11921.91
461.672	11649.53
461.878	12526.06
462.083	11590.14
462.289	11274.75
462.494	11151.87
462.7	10867.2
462.905	10471.95
463.111	10727.94
463.316	10942.98
463.522	10701.32
463.727	10498.57
463.932	10662.41
464.138	10398.22
464.343	10701.32
464.549	10269.2
464.754	10578.44
464.959	10582.54
465.165	10373.64
465.37	10064.4
465.575	9656.86
465.781	10363.4
465.986	10330.64
466.191	9828.88
466.397	9753.11
466.602	9382.43
466.807	9550.36
467.012	9603.61
467.218	9624.09
467.423	9310.75
467.628	9656.86
467.833	10052.11
468.038	9433.63
468.244	9267.74
468.449	9701.91
468.654	9349.66
468.859	9329.18
469.064	9179.68
469.269	8942.11
469.474	9058.85
469.679	9357.85
469.885	8942.11
470.09	9093.66
470.295	8884.77
470.5	8729.13
470.705	8806.95
470.91	8540.71
471.115	8495.66
471.32	8628.77
471.525	8696.36
471.73	8393.26
471.935	8393.26
472.139	8098.35
472.344	8122.93
472.549	7916.08
472.754	8151.6
472.959	7916.08
473.164	7842.36
473.369	7608.89
473.574	7879.22
473.778	7903.79
473.983	7699
474.188	7699
474.393	7410.23
474.598	7363.13
474.802	7187.01
475.007	7381.56
475.212	7217.72
475.417	7027.26
475.621	6965.82
475.826	6974.02
476.031	6799.94
476.235	6718.02
476.44	6793.79
476.645	6613.57
476.849	6726.21
477.054	6548.04
477.259	6502.98
477.463	6433.35
477.668	6373.96
477.872	6347.34
478.077	6216.27
478.282	6099.53
478.486	6199.88
478.691	6185.55
478.895	6062.67
479.1	6011.47
479.304	6077.01
479.509	5780.05
479.713	5943.89
479.918	5802.58
480.122	5741.14
480.326	5786.19
480.531	5780.05
480.735	5864.02
480.94	5843.54
481.144	5892.69
481.348	5747.28
481.553	5522.01
481.757	5474.9
481.961	5618.26
482.166	5802.58
482.37	5587.54
482.574	5542.49
482.778	5685.84
482.983	5718.61
483.187	5487.19
483.391	5669.46
483.595	5526.1
483.8	5634.64
484.004	5612.12
484.208	5628.5
484.412	5620.31
484.616	5626.45
484.821	5472.86
485.025	5528.15
485.229	5683.8
485.433	5620.31
485.637	5542.49
485.841	5493.33
486.045	5517.91
486.249	5630.55
486.453	5450.33
486.657	5608.02
486.861	5829.2
487.065	5540.44
487.269	5538.39
487.473	5517.91
487.677	5769.81
487.881	5794.39
488.085	5569.11
488.289	5798.48
488.493	5589.59
488.697	5675.6
488.901	5792.34
489.105	5681.75
489.309	5849.68
489.512	5892.69
489.716	5730.9
489.92	5829.2
490.124	5796.43
490.328	5980.75
490.531	5892.69
490.735	5825.11
490.939	5790.29
491.143	5904.98
491.346	5874.26
491.55	5993.04
491.754	6169.16
491.958	6052.43
492.161	6040.14
492.365	6111.82
492.569	5941.84
492.772	5986.9
492.976	6120.01
493.18	6296.14
493.383	6357.58
493.587	6310.47
493.79	6462.02
493.994	6447.69
494.197	6498.89
494.401	6543.94
494.605	6564.42
494.808	6750.79
495.012	6664.77
495.215	6795.84
495.419	6851.14
495.622	6789.7
495.825	6978.11
496.029	7096.89
496.232	7117.37
496.436	7057.98
496.639	7221.82
496.843	7092.8
497.046	7422.52
497.249	7475.77
497.453	7682.61
497.656	7733.81
497.859	7592.5
498.063	7797.3
498.266	8051.25
498.469	7971.38
498.673	7938.61
498.876	8106.54
499.079	8299.05
499.282	8290.86
499.485	8452.65
499.689	8319.53
499.892	8702.5
500.095	8878.63
500.298	9013.79
500.501	8854.05
500.705	9208.35
500.908	9185.82
501.111	9312.8
501.314	9378.33
501.517	9466.39
501.72	9601.56
501.923	9826.84
502.126	9949.71
502.329	10129.94
502.532	10226.19
502.735	10293.77
502.938	10656.26
503.141	10459.66
503.344	10865.16
503.547	10629.64
503.75	11155.97
503.953	11180.54
504.156	11405.82
504.359	11502.08
504.562	11364.86
504.765	11698.68
504.968	11846.13
505.17	11926
505.373	12026.36
505.576	12341.74
505.779	12302.83
505.982	12720.62
506.185	12827.11
506.387	12970.47
506.59	13345.25
506.793	13558.24
506.996	13335.01
507.198	13681.11
507.401	13588.96
507.604	14002.64
507.807	14029.27
508.009	14109.14
508.212	14512.59
508.415	14780.87
508.617	15069.64
508.82	15210.95
509.022	15143.36
509.225	15309.25
509.428	15585.72
509.63	15829.43
509.833	15651.26
510.035	16255.41
510.238	16161.2
510.44	16568.75
510.643	16818.6
510.845	16996.78
511.048	16802.22
511.25	17254.82
511.453	17095.08
511.655	18117.01
511.858	17887.64
512.06	18076.05
512.262	18424.21
512.465	18241.94
512.667	18846.09
512.87	19014.02
513.072	18649.49
513.274	19491.2
513.477	19351.94
513.679	19562.88
513.881	19986.81
514.084	19898.75
514.286	20255.09
514.488	20406.64
514.69	20857.2
514.893	21025.13
515.095	21293.41
515.297	21268.84
515.499	21307.75
515.701	21789.02
515.904	21959
516.106	21997.92
516.308	22593.87
516.51	22667.6
516.712	22923.6
516.914	22878.54
517.116	23431.49
517.318	23515.46
517.52	23888.19
517.722	23673.15
517.925	24199.48
518.127	24451.38
518.329	24641.84
518.531	24555.83
518.733	25014.57
518.935	25006.38
519.136	25047.34
519.338	25538.85
519.54	25717.03
519.742	26140.96
519.944	26198.3
520.146	26636.56
520.348	26794.26
520.55	26597.65
520.752	26908.94
520.954	27799.81
521.155	27230.48
521.357	27916.54
521.559	28037.37
521.761	28514.55
521.963	28201.21
522.164	28582.13
522.366	28848.37
522.568	28915.95
522.77	29067.5
522.971	29429.99
523.173	29393.13
523.375	29575.4
523.576	29958.37
523.778	30060.77
523.98	30478.55
524.181	30421.21
524.383	30413.02
524.584	31099.09
524.786	30728.41
524.988	31123.66
525.189	31273.17
525.391	31445.19
525.592	31772.87
525.794	31801.54
525.995	31776.97
526.197	31791.3
526.398	32096.45
526.6	32442.56
526.801	32456.89
527.003	32745.66
527.204	32471.23
527.406	33114.29
527.607	32942.26
527.808	33220.78
528.01	32997.56
528.211	32811.19
528.412	33714.34
528.614	33697.96
528.815	33390.77
529.016	34027.68
529.218	33845.41
529.419	33788.07
529.62	33949.86
529.822	33906.85
530.023	34064.55
530.224	34371.74
530.425	34306.21
530.626	34197.66
530.828	34044.07
531.029	35016.85
531.23	34181.28
531.431	34617.5
531.632	34752.66
531.833	35000.47
532.035	34967.7
532.236	34898.07
532.437	35106.96
532.638	35285.14
532.839	35383.44
533.04	35434.64
533.241	34775.19
533.442	35664.01
533.643	35016.85
533.844	35444.88
534.045	35717.26
534.246	34877.59
534.447	35809.42
534.648	35326.1
534.849	35723.4
535.05	35729.55
535.251	35643.53
535.451	35592.33
535.652	35862.66
535.853	35567.76
536.054	35999.88
536.255	36116.61
536.456	35735.69
536.657	36223.11
536.857	35721.35
537.058	35985.54
537.259	35856.52
537.46	36208.77
537.66	35745.93
537.861	36114.56
538.062	36096.13
538.263	36145.28
538.463	35786.89
538.664	35846.28
538.865	36085.89
539.065	36446.33
539.266	35676.3
539.466	36270.21
539.667	36163.71
539.868	36503.68
540.068	36532.35
540.269	36182.15
540.469	36292.74
540.67	36374.66
540.87	36354.18
541.071	36444.29
541.271	36110.47
541.472	36534.4
541.672	36348.03
541.873	36391.04
542.073	35893.38
542.274	37034.1
542.474	36593.79
542.675	36008.07
542.875	36849.78
543.075	36540.54
543.276	36266.11
543.476	36827.26
543.676	37249.14
543.877	36917.37
544.077	36800.63
544.277	36835.45
544.478	36159.62
544.678	36419.71
544.878	36483.2
545.078	36657.28
545.279	36407.42
545.479	36429.95
545.679	36905.08
545.879	36763.77
546.079	36466.81
546.28	36372.61
546.48	36855.93
546.68	36601.98
546.88	36679.8
547.08	36356.22
547.28	36575.36
547.48	36341.89
547.68	36282.5
547.88	36542.59
548.081	36681.85
548.281	36479.1
548.481	36761.72
548.681	37236.85
548.881	36841.59
549.081	36665.47
549.28	36700.28
549.48	37042.29
549.68	36278.4
549.88	37027.96
550.08	36692.09
550.28	37109.88
550.48	36307.07
550.68	37183.6
550.88	36190.34
551.08	36630.65
551.279	36941.94
551.479	36716.67
551.679	36612.22
551.879	36860.02
552.079	36913.27
552.278	36647.04
552.478	36417.66
552.678	36747.39
552.878	36814.97
553.077	36628.6
553.277	36337.79
553.477	37365.87
553.676	36464.77
553.876	36935.8
554.076	36491.39
554.275	36155.52
554.475	36130.95
554.674	36432
554.874	36669.56
555.074	36577.4
555.273	36767.87
555.473	36728.95
555.672	36257.92
555.872	36677.75
556.071	36745.34
556.271	36685.95
556.47	36495.49
556.67	36126.85
556.869	36257.92
557.068	36704.38
557.268	35950.73
557.467	36423.81
557.667	36573.31
557.866	36292.74
558.065	36112.52
558.265	36391.04
558.464	36104.32
558.663	36710.52
558.863	35770.5
559.062	36294.78
559.261	35913.86
559.461	36561.02
559.66	35952.77
559.859	36059.27
560.058	35870.86
560.258	36145.28
560.457	35752.07
560.656	36487.29
560.855	35713.16
561.054	36042.88
561.253	35678.35
561.453	36083.84
561.652	36001.93
561.851	36124.8
562.05	35956.87
562.249	35848.33
562.448	36362.37
562.647	35641.48
562.846	35872.9
563.045	35817.61
563.244	35678.35
563.443	36053.12
563.642	35831.94
563.841	35725.45
564.04	35649.67
564.239	35856.52
564.438	35508.36
564.637	35610.76
564.836	35709.07
565.035	35655.82
565.234	35684.49
565.432	35561.61
565.631	35432.59
565.83	35973.25
566.029	35635.34
566.228	35442.83
566.427	35881.1
566.625	35209.36
566.824	35098.77
567.023	35362.96
567.222	35213.46
567.42	35561.61
567.619	35262.61
567.818	35248.27
568.016	34853.01
568.215	35457.17
568.414	35061.91
568.612	35836.04
568.811	34762.9
569.01	35322
569.208	34941.08
569.407	34986.13
569.605	34435.23
569.804	35549.32
570.002	34408.61
570.201	35059.86
570.4	34734.23
570.598	34664.6
570.797	34936.98
570.995	34777.24
571.193	33913
571.392	34814.1
571.59	33949.86
571.789	34353.31
571.987	34156.71
572.186	34248.86
572.384	34185.38
572.582	34308.26
572.781	34050.21
572.979	34029.73
573.177	33886.37
573.376	34074.79
573.574	33775.78
573.772	34369.69
573.971	33679.53
574.169	33845.41
574.367	33497.26
574.565	33712.3
574.763	33276.08
574.962	33521.84
575.16	33386.67
575.358	33433.77
575.556	33151.15
575.754	33548.46
575.952	33073.33
576.151	33087.67
576.349	33255.6
576.547	32829.62
576.745	32913.59
576.943	33233.07
577.141	33218.74
577.339	33048.75
577.537	32843.96
577.735	32661.69
577.933	32538.81
578.131	32622.78
578.329	32684.22
578.527	31924.42
578.725	32260.29
578.923	32547
579.121	32383.16
579.319	31981.76
579.516	32577.72
579.714	31996.1
579.912	31916.23
580.11	31942.85
580.308	32059.59
580.506	31621.32
580.704	31181.01
580.901	31615.18
581.099	32186.56
581.297	31451.34
581.495	31590.6
581.692	31779.01
581.89	31572.17
582.088	31506.63
582.285	30673.11
582.483	31598.79
582.681	30953.68
582.878	31045.84
583.076	30775.51
583.274	31264.97
583.471	30363.87
583.669	31002.83
583.866	30499.03
584.064	30822.61
584.262	30415.07
584.459	30673.11
584.657	30439.64
584.854	30490.84
585.052	29978.85
585.249	30447.83
585.447	30298.33
585.644	29712.61
585.841	30138.59
586.039	30288.09
586.236	29774.05
586.434	29941.99
586.631	29544.68
586.828	29790.44
587.026	30093.54
587.223	29286.64
587.42	29559.02
587.618	29442.28
587.815	29272.3
588.012	29018.35
588.21	28879.09
588.407	29260.01
588.604	29034.74
588.801	29077.74
588.999	29051.12
589.196	28565.75
589.393	28692.72
589.59	28623.09
589.787	28508.41
589.984	28434.68
590.182	28248.32
590.379	28338.43
590.576	28315.9
590.773	28248.32
590.97	28301.56
591.167	27992.32
591.364	27816.19
591.561	28051.71
591.758	27552.01
591.955	27879.68
592.152	27951.36
592.349	27220.24
592.546	27683.08
592.743	27543.81
592.94	27070.73
593.137	27386.12
593.334	27334.92
593.531	26843.41
593.727	27029.77
593.924	27314.44
594.121	26765.59
594.318	27121.93
594.515	26693.91
594.712	27111.69
594.908	26573.08
595.105	26579.22
595.302	26554.65
595.499	26949.9
595.696	26265.88
595.892	26194.2
596.089	26421.53
596.286	26155.29
596.482	26165.53
596.679	26247.45
596.876	25712.93
597.072	25727.27
597.269	25870.62
597.466	25626.92
597.662	25452.84
597.859	25778.47
598.055	25446.69
598.252	25424.17
598.448	25323.82
598.645	25266.47
598.841	24961.33
599.038	25194.79
599.234	24969.52
599.431	25016.62
599.627	24961.33
599.824	25131.31
600.02	24660.27
600.217	24869.17
600.413	24604.98
600.609	24541.49
600.806	24424.76
601.002	24600.88
601.198	24404.28
601.395	24131.9
601.591	24117.56
601.787	24324.41
601.984	24133.95
602.18	24518.96
602.376	24090.94
602.572	24183.1
602.769	23818.56
602.965	23826.75
603.161	23621.95
603.357	23591.23
603.553	23126.35
603.75	23402.82
603.946	23447.88
604.142	23671.11
604.338	23238.98
604.534	23095.63
604.73	23140.68
604.926	23032.14
605.122	22874.45
605.318	23077.19
605.514	22561.11
605.71	22770
605.906	22724.94
606.102	22696.27
606.298	22751.57
606.494	22753.62
606.69	22487.38
606.886	22399.32
607.082	22432.08
607.278	22567.25
607.474	21954.91
607.67	22358.36
607.866	22071.64
608.062	22167.9
608.257	22163.8
608.453	21784.93
608.649	21825.89
608.845	21940.57
609.041	21764.45
609.236	21905.76
609.432	21918.04
609.628	21840.22
609.824	21838.17
610.019	21508.45
610.215	21506.4
610.411	21805.41
610.606	21369.19
610.802	21358.95
610.998	21317.99
611.193	21479.78
611.389	20869.48
611.584	21229.93
611.78	21240.17
611.976	21031.27
612.171	21205.35
612.367	20967.79
612.562	20935.02
612.758	20490.61
612.953	20742.51
613.149	21000.55
613.344	20619.63
613.539	21262.69
613.735	20625.78
613.93	20951.4
614.126	20617.58
614.321	20834.67
614.517	20445.55
614.712	20685.17
614.907	20441.46
615.103	20349.3
615.298	20453.75
615.493	20509.04
615.688	20273.53
615.884	20484.47
616.079	20081.02
616.274	20361.59
616.47	20148.6
616.665	20193.65
616.86	20105.59
617.055	19898.75
617.25	19696
617.445	20214.13
617.641	19497.35
617.836	19986.81
618.031	19648.89
618.226	19571.07
618.421	19788.16
618.616	19677.57
618.811	19493.25
619.006	19599.74
619.201	19149.19
619.396	19509.63
619.591	18844.04
619.786	19409.28
619.981	18868.62
620.176	19265.92
620.371	18981.26
620.566	18872.71
620.761	18801.04
620.956	18745.74
621.151	18551.18
621.346	18575.76
621.541	18362.77
621.735	18624.91
621.93	18094.49
622.125	18325.91
622.32	17736.09
622.515	18188.69
622.709	17828.25
622.904	17848.73
623.099	17570.21
623.294	17588.64
623.488	17537.44
623.683	17523.1
623.878	17193.38
624.072	17437.09
624.267	17291.68
624.462	17121.7
624.656	16957.86
624.851	17037.73
625.046	16540.08
625.24	16714.16
625.435	16480.69
625.629	16572.85
625.824	16560.56
626.018	16482.74
626.213	15911.35
626.407	16198.07
626.602	15843.77
626.796	16077.24
626.991	16032.18
627.185	16034.23
627.38	15839.67
627.574	15868.34
627.768	15368.64
627.963	15567.29
628.157	15417.79
628.352	15348.16
628.546	15141.32
628.74	15100.36
628.935	15114.69
629.129	15217.09
629.323	14858.7
629.517	14805.45
629.712	14795.21
629.906	14891.46
630.1	14592.46
630.294	14567.88
630.489	14399.95
630.683	14348.75
630.877	14195.15
631.071	14109.14
631.265	14393.81
631.459	14279.12
631.653	14162.39
631.848	14152.15
632.042	13853.14
632.236	13994.45
632.43	13611.48
632.624	13742.55
632.818	13689.31
633.012	13504.99
633.206	13453.79
633.4	13464.03
633.594	13257.18
633.788	13138.4
633.982	13416.93
634.176	13113.83
634.369	13081.06
634.563	12993
634.757	12933.61
634.951	13050.34
635.145	12818.92
635.339	12949.99
635.533	12904.93
635.726	12720.62
635.92	12650.99
636.114	12562.92
636.308	12433.9
636.501	12444.14
636.695	12216.82
636.889	12259.82
637.083	12290.54
637.276	12026.36
637.47	11991.54
637.664	12231.15
637.857	12188.14
638.051	11835.89
638.244	11688.44
638.438	11801.08
638.632	11794.93
638.825	11737.59
639.019	11588.09
639.212	11373.05
639.406	11581.95
639.599	11182.59
639.793	11332.09
639.986	11168.26
640.18	11207.17
640.373	11153.92
640.567	10820.1
640.76	11014.66
640.954	10893.83
641.147	10887.68
641.34	10875.4
641.534	10623.5
641.727	10596.87
641.92	10686.98
642.114	10467.85
642.307	10537.48
642.5	10433.04
642.694	10117.65
642.887	10222.09
643.08	10146.32
643.273	10312.21
643.467	10258.96
643.66	9951.76
643.853	10101.26
644.046	10023.44
644.239	9775.64
644.432	9742.87
644.626	9589.27
644.819	9536.03
645.012	9792.02
645.205	9716.25
645.398	9554.46
645.591	9538.07
645.784	9382.43
645.977	9433.63
646.17	9423.39
646.363	9294.36
646.556	9069.09
646.749	9093.66
646.942	9052.7
647.135	9024.03
647.328	9064.99
647.521	8905.25
647.714	8858.15
647.907	8782.37
648.099	8485.42
648.292	8755.75
648.485	8741.41
648.678	8542.76
648.871	8524.33
649.064	8426.03
649.256	8475.18
649.449	8319.53
649.642	8501.8
649.835	8210.99
650.027	8245.8
650.22	7979.57
650.413	8043.06
650.605	8075.82
650.798	8061.49
650.991	7987.76
651.183	7909.94
651.376	7809.59
651.568	7830.07
651.761	7903.79
651.954	7674.42
652.146	7651.89
652.339	7529.02
652.531	7655.99
652.724	7535.16
652.916	7406.14
653.109	7510.58
653.301	7467.58
653.494	7459.38
653.686	7053.89
653.879	7336.51
654.071	7332.41
654.263	7281.21
654.456	7221.82
654.648	7260.73
654.84	6851.14
655.033	6961.73
655.225	6931.01
655.417	7084.61
655.61	6896.19
655.802	6746.69
655.994	6904.39
656.186	6974.02
656.379	6648.39
656.571	6771.27
656.763	6511.18
656.955	6482.5
657.148	6500.94
657.34	6578.76
657.532	6390.35
657.724	6435.4
657.916	6345.29
658.108	6322.76
658.3	6511.18
658.492	6347.34
658.684	6283.85
658.876	6142.54
659.068	6206.03
659.26	5993.04
659.452	6126.16
659.644	6169.16
659.836	5857.87
660.028	5993.04
660.22	5808.72
660.412	5741.14
660.604	5685.84
660.796	5694.04
660.988	5679.7
661.18	5661.27
661.372	5565.01
661.563	5587.54
661.755	5403.22
661.947	5603.93
662.139	5583.45
662.331	5470.81
662.522	5444.18
662.714	5440.09
662.906	5309.02
663.097	5331.55
663.289	5331.55
663.481	5059.17
663.673	5104.22
663.864	5024.35
664.056	4905.57
664.247	5089.89
664.439	4999.77
664.631	5061.21
664.822	4928.1
665.014	5104.22
665.205	4915.81
665.397	4727.39
665.588	4915.81
665.78	4690.53
665.971	4831.84
666.163	4665.96
666.354	4520.55
666.546	4639.33
666.737	4504.17
666.929	4618.85
667.12	4325.99
667.311	4569.7
667.503	4403.82
667.694	4563.56
667.885	4371.05
668.077	4371.05
668.268	4428.39
668.459	4405.86
668.651	4434.53
668.842	4301.42
669.033	4254.31
669.224	4096.62
669.416	4135.53
669.607	4199.02
669.798	4031.09
669.989	4174.44
670.18	4014.7
670.371	4061.8
670.563	3846.77
670.754	3822.19
670.945	3758.71
671.136	3938.93
671.327	3879.54
671.518	3893.87
671.709	3832.43
671.9	3992.17
672.091	3814
672.282	3801.71
672.473	3656.31
672.664	3781.23
672.855	3750.51
673.046	3725.94
673.237	3850.86
673.428	3742.32
673.619	3707.51
673.809	3601.01
674	3529.33
674.191	3523.19
674.382	3631.73
674.573	3418.74
674.764	3539.57
674.954	3484.28
675.145	3512.95
675.336	3406.45
675.527	3342.97
675.717	3453.56
675.908	3330.68
676.099	3367.54
676.289	3369.59
676.48	3365.5
676.671	3334.78
676.861	3365.5
677.052	3187.32
677.243	3152.51
677.433	3283.58
677.624	3203.71
677.814	3209.85
678.005	3207.8
678.195	3113.6
678.386	3080.83
678.576	3191.42
678.767	3201.66
678.957	3115.64
679.148	3164.79
679.338	3099.26
679.529	3134.07
679.719	3080.83
679.909	3160.7
680.1	3066.49
680.29	3050.11
680.481	3056.25
680.671	3033.72
680.861	2892.41
681.052	2988.67
681.242	3023.48
681.432	3113.6
681.622	3134.07
681.813	2914.94
682.003	2869.89
682.193	2835.07
682.383	2880.13
682.573	2916.99
682.764	2843.26
682.954	2923.13
683.144	2914.94
683.334	2984.57
683.524	2962.05
683.714	2890.37
683.904	2947.71
684.094	2914.94
684.284	2951.81
684.474	2990.72
684.664	2972.29
684.854	2980.48
685.044	2800.26
685.234	2679.43
685.424	2888.32
685.614	2677.38
685.804	2839.17
685.994	2738.82
686.184	2730.62
686.374	2710.15
686.564	2904.7
686.753	2873.98
686.943	2849.41
687.133	2732.67
687.323	2761.34
687.513	2888.32
687.702	2855.55
687.892	2908.8
688.082	2808.45
688.272	2833.02
688.461	2833.02
688.651	2972.29
688.841	2785.92
689.03	2970.24
689.22	2785.92
689.41	2841.22
689.599	2775.68
689.789	2822.78
689.979	2757.25
690.168	2761.34
690.358	2806.4
690.547	2779.78
690.737	2820.74
690.926	2841.22
691.116	2751.1
691.305	2914.94
691.495	2714.24
691.684	2781.82
691.874	2753.15
692.063	2878.08
692.252	2814.59
692.442	2835.07
692.631	2759.3
692.82	2865.79
693.01	2777.73
693.199	2806.4
693.388	2790.02
693.578	2744.96
693.767	2806.4
693.956	2841.22
694.146	2714.24
694.335	2620.03
694.524	2769.54
694.713	2626.18
694.902	2726.53
695.092	2751.1
695.281	2767.49
695.47	2548.36
695.659	2681.47
695.848	2536.07
696.037	2724.48
696.226	2552.45
696.415	2652.8
696.604	2540.16
696.793	2663.04
696.982	2728.58
697.171	2527.88
697.36	2650.75
697.549	2513.54
697.738	2556.55
697.927	2597.51
698.116	2624.13
698.305	2536.07
698.494	2493.06
698.683	2587.27
698.872	2544.26
699.061	2464.39
699.25	2552.45
699.438	2579.08
699.627	2509.44
699.816	2493.06
700.005	2448.01
700.193	2452.1
700.382	2493.06
700.571	2419.33
700.76	2423.43
700.948	2359.94
701.137	2419.33
701.326	2366.09
701.514	2382.47
701.703	2349.7
701.892	2382.47
702.08	2321.03
702.269	2355.85
702.457	2306.7
702.646	2269.83
702.834	2366.09
703.023	2300.55
703.212	2187.91
703.4	2321.03
703.589	2210.44
703.777	2210.44
703.965	2224.78
704.154	2208.39
704.342	2151.05
704.531	2095.75
704.719	2120.33
704.907	2175.63
705.096	2263.69
705.284	2204.3
705.472	2120.33
705.661	2302.6
705.849	2196.11
706.037	2122.38
706.226	2005.64
706.414	2175.63
706.602	2052.75
706.79	2048.65
706.979	2034.32
707.167	2136.71
707.355	2038.41
707.543	1948.3
707.731	2179.72
707.919	2060.94
708.107	2022.03
708.296	2054.8
708.484	2046.6
708.672	2026.12
708.86	1876.62
709.048	1974.92
709.236	1931.92
709.424	1968.78
709.612	1893.01
709.8	2022.03
709.988	1913.49
710.176	1854.09
710.364	1833.61
710.551	1860.24
710.739	1989.26
710.927	1985.16
711.115	1964.68
711.303	1786.51
711.491	1761.94
711.679	1827.47
711.866	1790.61
712.054	1847.95
712.242	1786.51
712.43	1763.98
712.617	1866.38
712.805	1761.94
712.993	1720.98
713.181	1725.07
713.368	1815.18
713.556	1809.04
713.744	1641.11
713.931	1766.03
714.119	1708.69
714.306	1710.74
714.494	1686.16
714.682	1690.26
714.869	1630.87
715.057	1704.59
715.244	1712.78
715.432	1583.76
715.619	1708.69
715.807	1567.38
715.994	1634.96
716.182	1575.57
716.369	1634.96
716.556	1643.15
716.744	1659.54
716.931	1708.69
717.119	1606.29
717.306	1569.43
717.493	1614.48
717.681	1534.61
717.868	1448.6
718.055	1456.79
718.242	1538.71
718.43	1413.78
718.617	1417.88
718.804	1518.23
718.991	1510.04
719.179	1438.36
719.366	1372.82
719.553	1434.26
719.74	1491.6
719.927	1413.78
720.114	1401.49
720.301	1399.45
720.488	1432.21
720.676	1360.53
720.863	1524.37
721.05	1344.15
721.237	1323.67
721.424	1370.77
721.611	1397.4
721.798	1331.86
721.985	1370.77
722.172	1299.09
722.358	1327.77
722.545	1315.48
722.732	1319.57
722.919	1266.33
723.106	1360.53
723.293	1229.46
723.48	1249.94
723.667	1270.42
723.853	1239.7
724.04	1251.99
724.227	1321.62
724.414	1340.05
724.6	1206.94
724.787	1213.08
724.974	1276.57
725.161	1313.43
725.347	1188.5
725.534	1190.55
725.72	1215.13
725.907	1190.55
726.094	1211.03
726.28	1155.74
726.467	1180.31
726.653	1266.33
726.84	1194.65
727.027	1104.54
727.213	1094.3
727.4	1262.23
727.586	1026.71
727.773	1079.96
727.959	1110.68
728.145	1161.88
728.332	1059.48
728.518	1131.16
728.705	1155.74
728.891	1024.67
729.077	1088.15
729.264	1075.87
729.45	985.76
729.636	1129.11
729.823	1096.35
730.009	1012.38
730.195	1063.58
730.382	1055.39
730.568	1092.25
730.754	977.56
730.94	1106.59
731.126	1012.38
731.313	1043.1
731.499	1014.43
731.685	1079.96
731.871	993.95
732.057	1034.91
732.243	1002.14
732.429	1014.43
732.615	1077.91
732.801	1047.19
732.987	948.89
733.173	1000.09
733.359	952.99
733.545	918.17
733.731	1032.86
733.917	1004.19
734.103	918.17
734.289	959.13
734.475	914.08
734.661	957.08
734.847	881.31
735.033	932.51
735.219	987.8
735.404	885.41
735.59	834.21
735.776	871.07
735.962	893.6
736.148	789.15
736.333	840.35
736.519	807.58
736.705	860.83
736.89	852.64
737.076	885.41
737.262	844.45
737.447	866.97
737.633	852.64
737.819	778.91
738.004	844.45
738.19	860.83
738.375	821.92
738.561	793.25
738.747	848.54
738.932	778.91
739.118	793.25
739.303	793.25
739.489	778.91
739.674	744.1
739.859	774.81
740.045	780.96
740.23	817.82
740.416	766.62
740.601	803.49
740.786	756.38
740.972	795.29
741.157	762.53
741.342	760.48
741.528	696.99
741.713	797.34
741.898	703.14
742.084	758.43
742.269	787.1
742.454	694.94
742.639	744.1
742.824	672.42
743.01	658.08
743.195	721.57
743.38	793.25
743.565	653.98
743.75	719.52
743.935	768.67
744.12	643.74
744.305	596.64
744.49	684.7
744.675	647.84
744.86	717.47
745.045	735.9
745.23	770.72
745.415	610.98
745.6	617.12
745.785	596.64
745.97	647.84
746.155	688.8
746.34	613.03
746.525	680.61
746.71	658.08
746.895	670.37
747.079	549.54
747.264	563.87
747.449	596.64
747.634	617.12
747.819	598.69
748.003	637.6
748.188	617.12
748.373	598.69
748.557	496.29
748.742	555.68
748.927	561.83
749.111	623.27
749.296	541.35
749.481	537.25
749.665	590.5
749.85	572.07
750.034	600.74
750.219	613.03
750.404	596.64
750.588	563.87
750.773	565.92
750.957	586.4
751.141	529.06
751.326	551.59
751.51	563.87
751.695	514.72
751.879	588.45
752.064	524.96
752.248	563.87
752.432	498.34
752.617	559.78
752.801	490.15
752.985	594.59
753.17	584.35
753.354	506.53
753.538	502.43
753.722	488.1
753.907	467.62
754.091	529.06
754.275	484
754.459	436.9
754.643	504.48
754.828	524.96
755.012	481.96
755.196	486.05
755.38	443.04
755.564	498.34
755.748	479.91
755.932	486.05
756.116	467.62
756.3	492.2
756.484	457.38
756.668	514.72
756.852	438.95
757.036	357.03
757.22	527.01
757.404	500.39
757.588	416.42
757.772	438.95
757.956	434.85
758.14	414.37
758.323	432.8
758.507	443.04
758.691	379.56
758.875	430.76
759.059	389.8
759.242	416.42
759.426	496.29
759.61	436.9
759.794	447.14
759.977	420.52
760.161	406.18
760.345	402.08
760.528	447.14
760.712	332.45
760.895	430.76
761.079	381.6
761.263	391.84
761.446	369.32
761.63	445.09
761.813	455.33
761.997	389.8
762.18	397.99
762.364	387.75
762.547	408.23
762.731	395.94
762.914	332.45
763.098	350.89
763.281	369.32
763.464	348.84
763.648	365.22
763.831	350.89
764.015	365.22
764.198	377.51
764.381	408.23
764.564	320.17
764.748	307.88
764.931	352.93
765.114	387.75
765.297	383.65
765.481	330.41
765.664	375.46
765.847	311.97
766.03	373.41
766.213	299.69
766.397	418.47
766.58	295.59
766.763	381.6
766.946	268.97
767.129	348.84
767.312	365.22
767.495	350.89
767.678	357.03
767.861	430.76
768.044	299.69
768.227	412.32
768.41	381.6
768.593	307.88
768.776	344.74
768.959	404.13
769.142	322.21
769.324	330.41
769.507	307.88
769.69	342.69
769.873	242.34
770.056	340.65
770.239	357.03
770.421	334.5
770.604	359.08
770.787	414.37
770.97	397.99
771.152	291.49
771.335	381.6
771.518	334.5
771.7	316.07
771.883	410.28
772.066	350.89
772.248	305.83
772.431	316.07
772.613	336.55
772.796	285.35
772.978	314.02
773.161	340.65
773.343	332.45
773.526	273.06
773.708	322.21
773.891	375.46
774.073	291.49
774.256	301.73
774.438	328.36
774.621	336.55
774.803	314.02
774.985	260.77
775.168	309.93
775.35	342.69
775.532	324.26
775.715	299.69
775.897	397.99
776.079	248.49
776.261	283.3
776.444	283.3
776.626	291.49
776.808	244.39
776.99	330.41
777.173	301.73
777.355	305.83
777.537	291.49
777.719	219.82
777.901	279.21
778.083	256.68
778.265	230.06
778.447	283.3
778.629	221.86
778.811	273.06
778.993	221.86
779.175	295.59
779.357	250.53
779.539	187.05
779.721	316.07
779.903	242.34
780.085	199.34
780.267	324.26
780.449	195.24
780.631	258.73
780.812	266.92
780.994	156.33
781.176	219.82
781.358	250.53
781.54	230.06
781.721	248.49
781.903	187.05
782.085	215.72
782.267	232.1
782.448	197.29
782.63	326.31
782.812	203.43
782.993	221.86
783.175	121.51
783.357	121.51
783.538	287.4
783.72	242.34
783.901	215.72
784.083	225.96
784.264	262.82
784.446	264.87
784.627	283.3
784.809	131.75
784.99	162.47
785.172	174.76
785.353	215.72
785.535	172.71
785.716	236.2
785.897	178.86
786.079	248.49
786.26	213.67
786.441	193.19
786.623	160.42
786.804	275.11
786.985	144.04
787.167	223.91
787.348	242.34
787.529	168.62
787.71	187.05
787.891	197.29
788.073	129.7
788.254	203.43
788.435	248.49
788.616	148.14
788.797	207.53
788.978	197.29
789.159	182.95
789.34	238.25
789.522	152.23
789.703	189.1
789.884	182.95
790.065	201.38
790.246	195.24
790.427	211.62
790.607	152.23
790.788	232.1
790.969	146.09
791.15	187.05
791.331	123.56
791.512	137.9
791.693	133.8
791.874	144.04
792.054	185
792.235	154.28
792.416	185
792.597	49.83
792.778	144.04
792.958	166.57
793.139	166.57
793.32	123.56
793.5	266.92
793.681	191.14
793.862	164.52
794.042	230.06
794.223	76.46
794.404	160.42
794.584	154.28
794.765	45.74
794.945	148.14
795.126	109.22
795.306	94.89
795.487	219.82
795.667	109.22
795.848	105.13
796.028	129.7
796.209	121.51
796.389	98.99
796.57	137.9
796.75	86.7
796.93	160.42
797.111	117.42
797.291	193.19
797.471	162.47
797.652	113.32
797.832	189.1
798.012	119.46
798.192	55.98
798.373	101.03
798.553	123.56
798.733	88.75
798.913	152.23
799.093	55.98
799.274	158.38
799.454	148.14
799.634	82.6
799.814	68.27
799.994	103.08
800.174	146.09
800.354	123.56
800.534	66.22
800.714	150.18
800.894	62.12
801.074	92.84
801.254	129.7
801.434	92.84
801.614	92.84
801.794	74.41
801.974	357.03
802.154	203.43
802.334	111.27
802.514	125.61
802.693	80.55
802.873	152.23
803.053	103.08
803.233	182.95
803.413	96.94
803.592	90.79
803.772	62.12
803.952	105.13
804.131	121.51
804.311	119.46
804.491	178.86
804.67	109.22
804.85	39.59
805.03	2.73
805.209	107.18
805.389	62.12
805.568	117.42
805.748	133.8
805.928	84.65
806.107	94.89
806.287	72.36
806.466	88.75
806.646	105.13
806.825	84.65
807.004	94.89
807.184	72.36
807.363	137.9
807.543	88.75
807.722	82.6
807.901	51.88
808.081	94.89
808.26	55.98
808.439	29.35
808.619	70.31
808.798	152.23
808.977	107.18
809.156	101.03
809.336	72.36
809.515	76.46
809.694	47.79
809.873	47.79
810.052	60.07
810.231	62.12
810.411	135.85
810.59	82.6
810.769	74.41
810.948	37.55
811.127	111.27
811.306	117.42
811.485	76.46
811.664	144.04
811.843	76.46
812.022	64.17
812.201	45.74
812.38	135.85
812.559	41.64
812.737	76.46
812.916	123.56
813.095	49.83
813.274	10.92
813.453	19.11
813.632	66.22
813.811	113.32
813.989	76.46
814.168	45.74
814.347	119.46
814.526	45.74
814.704	45.74
814.883	62.12
815.062	64.17
815.24	111.27
815.419	21.16
815.598	88.75
815.776	72.36
815.955	90.79
816.133	82.6
816.312	-3.41
816.49	105.13
816.669	33.45
816.847	43.69
817.026	-7.51
817.204	2.73
817.383	78.51
817.561	68.27
817.74	47.79
817.918	53.93
818.097	60.07
818.275	35.5
818.453	39.59
818.632	33.45
818.81	51.88
818.988	55.98
819.167	84.65
819.345	6.83
819.523	146.09
819.701	45.74
819.879	111.27
820.058	15.02
820.236	51.88
820.414	-64.85
820.592	-13.65
820.77	58.03
820.948	-15.7
821.127	-11.61
821.305	78.51
821.483	88.75
821.661	51.88
821.839	47.79
822.017	45.74
822.195	98.99
822.373	117.42
822.551	53.93
822.729	88.75
822.907	86.7
823.085	70.31
823.262	53.93
823.44	37.55
823.618	-9.56
823.796	43.69
823.974	58.03
824.152	64.17
824.329	27.31
824.507	43.69
824.685	8.87
824.863	35.5
825.04	8.87
825.218	70.31
825.396	58.03
825.574	96.94
825.751	70.31
825.929	90.79
826.107	94.89
826.284	53.93
826.462	6.83
826.639	103.08
826.817	45.74
826.994	-1.37
827.172	88.75
827.349	41.64
827.527	-42.32
827.704	76.46
827.882	-66.9
828.059	27.31
828.237	29.35
828.414	37.55
828.591	-7.51
828.769	88.75
828.946	37.55
829.124	23.21
829.301	80.55
829.478	43.69
829.655	4.78
829.833	15.02
830.01	72.36
830.187	115.37
830.364	70.31
830.542	127.66
830.719	35.5
830.896	82.6
831.073	39.59
831.25	70.31
831.427	41.64
831.604	62.12
831.782	76.46
831.959	53.93
832.136	25.26
832.313	25.26
832.49	17.07
832.667	58.03
832.844	17.07
833.021	-11.61
833.198	31.4
833.374	21.16
833.551	49.83
833.728	47.79
833.905	107.18
834.082	12.97
834.259	62.12
834.436	45.74
834.612	21.16
834.789	29.35
834.966	60.07
835.143	49.83
835.319	103.08
835.496	64.17
835.673	58.03
835.85	25.26
836.026	47.79
836.203	72.36
836.38	25.26
836.556	19.11
836.733	55.98
836.909	78.51
837.086	25.26
837.262	41.64
837.439	0.68
837.616	33.45
837.792	12.97
837.968	12.97
838.145	-19.8
838.321	0.68
838.498	29.35
838.674	6.83
838.851	12.97
839.027	12.97
839.203	55.98
839.38	68.27
839.556	33.45
839.732	64.17
839.909	8.87
840.085	45.74
840.261	29.35
840.437	45.74
840.614	12.97
840.79	86.7
840.966	33.45
841.142	35.5
841.318	33.45
841.494	35.5
841.671	62.12
841.847	-15.7
842.023	39.59
842.199	23.21
842.375	51.88
842.551	8.87
842.727	58.03
842.903	58.03
843.079	21.16
843.255	43.69
843.431	23.21
843.607	10.92
843.783	2.73
843.959	-27.99
844.134	-66.9
844.31	17.07
844.486	37.55
844.662	8.87
844.838	58.03
845.013	84.65
845.189	98.99
845.365	74.41
845.541	-34.13
845.716	33.45
845.892	74.41
846.068	-23.89
846.244	37.55
846.419	2.73
846.595	-25.94
846.77	23.21
846.946	90.79
847.122	33.45
847.297	-54.61
847.473	88.75
847.648	86.7
847.824	2.73
847.999	-11.61
848.175	31.4
848.35	60.07
848.526	88.75
848.701	80.55
848.876	-15.7
849.052	66.22
849.227	58.03
849.403	41.64
849.578	41.64
849.753	-3.41
849.929	105.13
850.104	55.98
850.279	12.97
850.454	49.83
850.63	15.02
850.805	82.6
850.98	51.88
851.155	66.22
851.33	12.97
851.505	4.78
851.681	49.83
851.856	49.83
852.031	15.02
852.206	49.83
852.381	29.35
852.556	-5.46
852.731	-17.75
852.906	45.74
853.081	33.45
853.256	98.99
853.431	94.89
853.606	4.78
853.781	15.02
853.956	103.08
854.131	66.22
854.305	-42.32
854.48	33.45
854.655	0.68
854.83	111.27
855.005	-21.85
855.18	53.93
855.354	33.45
855.529	-71
855.704	45.74
855.879	88.75
856.053	23.21
856.228	33.45
856.403	17.07
856.577	-21.85
856.752	-38.23
856.926	107.18
857.101	127.66
857.276	39.59
857.45	-19.8
857.625	37.55
857.799	-60.76
857.974	10.92
858.148	84.65
858.323	-19.8
858.497	-9.56
858.672	35.5
858.846	-40.28
859.02	8.87
859.195	-11.61
859.369	-36.18
859.543	29.35
859.718	6.83
859.892	-21.85
860.066	-23.89
860.241	4.78
860.415	15.02
860.589	-19.8
860.763	49.83
860.938	8.87
861.112	-11.61
861.286	-1.37
861.46	60.07
861.634	21.16
861.808	17.07
861.982	-9.56
862.157	29.35
862.331	-25.94
862.505	37.55
862.679	-19.8
862.853	0.68
863.027	29.35
863.201	6.83
863.375	-3.41
863.549	-27.99
863.722	45.74
863.896	-66.9
864.07	19.11
864.244	-13.65
864.418	-17.75
864.592	4.78
864.766	17.07
864.939	45.74
865.113	21.16
865.287	-87.38
865.461	-32.08
865.634	51.88
865.808	-1.37
865.982	-38.23
866.156	19.11
866.329	-19.8
866.503	19.11
866.676	-25.94
866.85	37.55
867.024	25.26
867.197	33.45
867.371	21.16
867.544	33.45
867.718	10.92
867.891	21.16
868.065	12.97
868.238	60.07
868.412	-48.47
868.585	-58.71
868.759	2.73
868.932	33.45
869.105	-34.13
869.279	-13.65
869.452	62.12
869.625	47.79
869.799	45.74
869.972	19.11
870.145	45.74
870.319	35.5
870.492	41.64
870.665	10.92
870.838	4.78
871.011	27.31
871.185	-7.51
871.358	2.73
871.531	-17.75
871.704	-23.89
871.877	-36.18
872.05	-54.61
872.223	27.31
872.396	-19.8
872.569	-17.75
872.742	51.88
872.915	6.83
873.088	2.73
873.261	-30.04
873.434	19.11
873.607	8.87
873.78	-15.7
873.953	41.64
874.126	12.97
874.299	82.6
874.471	17.07
874.644	53.93
874.817	78.51
874.99	15.02
875.163	-13.65
875.335	-17.75
875.508	-52.56
875.681	21.16
875.853	-50.52
876.026	105.13
876.199	-7.51
876.371	25.26
876.544	70.31
876.717	17.07
876.889	-60.76
877.062	12.97
877.234	21.16
877.407	0.68
877.579	-1.37
877.752	2.73
877.924	-1.37
878.097	45.74
878.269	39.59
878.442	-48.47
878.614	115.37
878.786	-1.37
878.959	-3.41
879.131	6.83
879.303	-11.61
879.476	25.26
879.648	-21.85
879.82	31.4
879.993	-23.89
880.165	2.73
880.337	-3.41
880.509	17.07
880.681	-7.51
880.854	21.16
881.026	-48.47
881.198	94.89
881.37	25.26
881.542	15.02
881.714	-21.85
881.886	-25.94
882.058	17.07
882.23	0.68
882.402	21.16
882.574	23.21
882.746	53.93
882.918	51.88
883.09	25.26
883.262	-19.8
883.434	-3.41
883.606	8.87
883.778	-27.99
883.95	12.97
884.122	23.21
884.293	72.36
884.465	-34.13
884.637	-32.08
884.809	-15.7
884.98	8.87
885.152	76.46
885.324	-7.51
885.496	25.26
885.667	-7.51
885.839	-7.51
886.011	21.16
886.182	-58.71
886.354	53.93
886.525	-11.61
886.697	25.26
886.869	-11.61
887.04	-50.52
887.212	60.07
887.383	31.4
887.555	12.97
887.726	74.41
887.897	60.07
888.069	8.87
888.24	33.45
888.412	8.87
888.583	51.88
888.754	78.51
888.926	-58.71
889.097	35.5
889.268	17.07
889.44	27.31
889.611	-25.94
889.782	41.64
889.953	64.17
890.125	-21.85
890.296	-15.7
890.467	31.4
890.638	21.16
890.809	17.07
890.98	17.07
891.151	68.27
891.323	-32.08
891.494	-32.08
891.665	-30.04
891.836	15.02
892.007	-36.18
892.178	-50.52
892.349	4.78
892.52	17.07
892.691	-15.7
892.862	-30.04
893.032	-9.56
893.203	88.75
893.374	70.31
893.545	10.92
893.716	-3.41
893.887	6.83
894.057	17.07
894.228	-9.56
894.399	15.02
894.57	4.78
894.74	-9.56
894.911	47.79
895.082	17.07
895.253	-11.61
895.423	-9.56
895.594	-9.56
895.764	55.98
895.935	27.31
896.106	0.68
896.276	-27.99
896.447	-58.71
896.617	21.16
896.788	-19.8
896.958	-25.94
897.129	15.02
897.299	6.83
897.47	33.45
897.64	45.74
897.81	-40.28
897.981	31.4
898.151	49.83
898.322	62.12
898.492	29.35
898.662	74.41
898.832	10.92
899.003	84.65
899.173	-32.08
899.343	-25.94
899.513	45.74
