Data from USB4F104151__90__12-54-51-817.txt Node

Date: Fri Mar 14 12:54:51 EDT 2025
User: louis
Spectrometer: USB4F10415
Trigger mode: 4
Integration Time (sec): 1.000000E-2
Scans to average: 1
Electric dark correction enabled: true
Nonlinearity correction enabled: false
Boxcar width: 0
XAxis mode: Wavelengths
Number of Pixels in Spectrum: 3648
>>>>>Begin Spectral Data<<<<<
178.204	17.41
178.424	17.41
178.644	17.41
178.864	-9.22
179.084	-74.75
179.304	-31.74
179.524	46.08
179.744	-15.36
179.964	48.13
180.184	-23.55
180.404	-62.46
180.624	21.5
180.844	-19.46
181.064	-17.41
181.283	11.26
181.503	-21.5
181.723	64.51
181.943	-31.74
182.163	78.85
182.383	33.79
182.602	72.7
182.822	56.32
183.042	3.07
183.262	-13.31
183.482	35.84
183.701	-31.74
183.921	31.74
184.141	56.32
184.361	-33.79
184.58	1.02
184.8	146.43
185.02	-31.74
185.239	95.23
185.459	52.22
185.679	76.8
185.898	52.22
186.118	23.55
186.338	-17.41
186.557	48.13
186.777	-23.55
186.997	84.99
187.216	-27.65
187.436	-9.22
187.655	109.57
187.875	-1.02
188.095	25.6
188.314	58.37
188.534	50.18
188.753	44.03
188.973	-13.31
189.192	-7.17
189.412	35.84
189.631	35.84
189.851	82.94
190.07	64.51
190.29	21.5
190.509	3.07
190.729	-11.26
190.948	29.7
191.168	89.09
191.387	-5.12
191.607	74.75
191.826	7.17
192.045	29.7
192.265	46.08
192.484	-7.17
192.704	74.75
192.923	3.07
193.142	105.47
193.362	-37.89
193.581	46.08
193.8	-7.17
194.02	87.04
194.239	-76.8
194.458	33.79
194.678	62.46
194.897	68.61
195.116	-1.02
195.335	64.51
195.555	41.98
195.774	27.65
195.993	-25.6
196.212	11.26
196.432	31.74
196.651	101.37
196.87	7.17
197.089	37.89
197.308	44.03
197.528	46.08
197.747	41.98
197.966	82.94
198.185	39.94
198.404	37.89
198.623	23.55
198.842	41.98
199.062	3.07
199.281	74.75
199.5	23.55
199.719	27.65
199.938	37.89
200.157	31.74
200.376	72.7
200.595	56.32
200.814	5.12
201.033	54.27
201.252	33.79
201.471	31.74
201.69	93.18
201.909	3.07
202.128	54.27
202.347	58.37
202.566	46.08
202.785	46.08
203.004	41.98
203.223	72.7
203.442	5.12
203.661	-35.84
203.879	52.22
204.098	31.74
204.317	23.55
204.536	25.6
204.755	64.51
204.974	-37.89
205.193	66.56
205.411	54.27
205.63	9.22
205.849	-1.02
206.068	-3.07
206.287	-9.22
206.505	15.36
206.724	37.89
206.943	54.27
207.162	29.7
207.381	-13.31
207.599	1.02
207.818	23.55
208.037	-15.36
208.255	3.07
208.474	103.42
208.693	19.46
208.911	27.65
209.13	74.75
209.349	5.12
209.567	-31.74
209.786	17.41
210.005	-21.5
210.223	58.37
210.442	-15.36
210.661	-1.02
210.879	9.22
211.098	64.51
211.316	-1.02
211.535	-25.6
211.753	-1.02
211.972	68.61
212.191	-58.37
212.409	84.99
212.628	19.46
212.846	58.37
213.065	119.81
213.283	17.41
213.502	35.84
213.72	-3.07
213.938	25.6
214.157	125.95
214.375	25.6
214.594	115.71
214.812	91.13
215.031	21.5
215.249	62.46
215.467	91.13
215.686	48.13
215.904	89.09
216.122	60.42
216.341	44.03
216.559	17.41
216.778	84.99
216.996	56.32
217.214	-29.7
217.432	9.22
217.651	64.51
217.869	-31.74
218.087	5.12
218.306	44.03
218.524	50.18
218.742	78.85
218.96	66.56
219.179	-15.36
219.397	15.36
219.615	52.22
219.833	25.6
220.051	11.26
220.27	44.03
220.488	31.74
220.706	3.07
220.924	72.7
221.142	27.65
221.36	11.26
221.578	19.46
221.796	64.51
222.015	46.08
222.233	33.79
222.451	64.51
222.669	29.7
222.887	58.37
223.105	-33.79
223.323	50.18
223.541	105.47
223.759	5.12
223.977	66.56
224.195	50.18
224.413	35.84
224.631	109.57
224.849	27.65
225.067	74.75
225.285	7.17
225.503	58.37
225.721	76.8
225.939	50.18
226.157	25.6
226.375	31.74
226.592	93.18
226.81	23.55
227.028	91.13
227.246	25.6
227.464	31.74
227.682	48.13
227.9	29.7
228.117	66.56
228.335	-9.22
228.553	89.09
228.771	80.89
228.989	82.94
229.206	17.41
229.424	39.94
229.642	-5.12
229.86	17.41
230.077	-17.41
230.295	29.7
230.513	39.94
230.731	17.41
230.948	109.57
231.166	-1.02
231.384	29.7
231.601	-23.55
231.819	-1.02
232.037	-19.46
232.254	117.76
232.472	35.84
232.689	80.89
232.907	-19.46
233.125	66.56
233.342	31.74
233.56	41.98
233.777	33.79
233.995	31.74
234.213	70.65
234.43	46.08
234.648	39.94
234.865	-1.02
235.083	1.02
235.3	39.94
235.518	-5.12
235.735	7.17
235.953	52.22
236.17	111.61
236.388	9.22
236.605	-21.5
236.822	58.37
237.04	66.56
237.257	84.99
237.475	50.18
237.692	66.56
237.909	9.22
238.127	35.84
238.344	54.27
238.562	52.22
238.779	-39.94
238.996	35.84
239.214	21.5
239.431	29.7
239.648	-39.94
239.865	-3.07
240.083	-3.07
240.3	9.22
240.517	3.07
240.735	-41.98
240.952	48.13
241.169	-54.27
241.386	54.27
241.603	-39.94
241.821	33.79
242.038	7.17
242.255	5.12
242.472	52.22
242.689	7.17
242.907	66.56
243.124	80.89
243.341	-15.36
243.558	5.12
243.775	37.89
243.992	23.55
244.209	31.74
244.426	48.13
244.643	48.13
244.86	76.8
245.078	78.85
245.295	58.37
245.512	74.75
245.729	48.13
245.946	37.89
246.163	39.94
246.38	33.79
246.597	-19.46
246.814	23.55
247.031	31.74
247.248	17.41
247.464	76.8
247.681	39.94
247.898	54.27
248.115	95.23
248.332	33.79
248.549	68.61
248.766	39.94
248.983	37.89
249.2	87.04
249.417	48.13
249.633	13.31
249.85	9.22
250.067	52.22
250.284	15.36
250.501	-48.13
250.717	-25.6
250.934	-46.08
251.151	103.42
251.368	23.55
251.585	25.6
251.801	103.42
252.018	66.56
252.235	3.07
252.451	-15.36
252.668	7.17
252.885	37.89
253.102	27.65
253.318	56.32
253.535	17.41
253.752	17.41
253.968	11.26
254.185	44.03
254.401	23.55
254.618	3.07
254.835	25.6
255.051	37.89
255.268	-7.17
255.484	46.08
255.701	44.03
255.917	93.18
256.134	93.18
256.351	-21.5
256.567	11.26
256.784	78.85
257	33.79
257.217	-37.89
257.433	-5.12
257.65	29.7
257.866	82.94
258.082	11.26
258.299	50.18
258.515	44.03
258.732	50.18
258.948	-7.17
259.165	-5.12
259.381	72.7
259.597	5.12
259.814	-15.36
260.03	66.56
260.246	56.32
260.463	29.7
260.679	39.94
260.895	3.07
261.112	119.81
261.328	11.26
261.544	58.37
261.761	56.32
261.977	1.02
262.193	-3.07
262.409	66.56
262.626	48.13
262.842	-9.22
263.058	-1.02
263.274	78.85
263.49	130.05
263.707	95.23
263.923	54.27
264.139	-1.02
264.355	17.41
264.571	19.46
264.787	31.74
265.004	60.42
265.22	109.57
265.436	44.03
265.652	46.08
265.868	60.42
266.084	-11.26
266.3	60.42
266.516	82.94
266.732	19.46
266.948	66.56
267.164	35.84
267.38	39.94
267.596	50.18
267.812	-17.41
268.028	66.56
268.244	5.12
268.46	144.38
268.676	19.46
268.892	54.27
269.108	19.46
269.324	99.33
269.54	7.17
269.756	-9.22
269.972	33.79
270.188	72.7
270.403	15.36
270.619	-9.22
270.835	44.03
271.051	80.89
271.267	-7.17
271.483	25.6
271.698	33.79
271.914	9.22
272.13	33.79
272.346	62.46
272.562	5.12
272.777	105.47
272.993	-25.6
273.209	11.26
273.425	29.7
273.64	-17.41
273.856	52.22
274.072	-13.31
274.287	89.09
274.503	48.13
274.719	7.17
274.934	23.55
275.15	41.98
275.366	74.75
275.581	-11.26
275.797	78.85
276.012	27.65
276.228	74.75
276.444	35.84
276.659	39.94
276.875	-7.17
277.09	15.36
277.306	-46.08
277.521	99.33
277.737	-9.22
277.952	109.57
278.168	-17.41
278.383	-58.37
278.599	13.31
278.814	11.26
279.03	23.55
279.245	17.41
279.461	72.7
279.676	33.79
279.892	1.02
280.107	82.94
280.322	15.36
280.538	66.56
280.753	17.41
280.969	3.07
281.184	-1.02
281.399	31.74
281.615	29.7
281.83	23.55
282.045	-62.46
282.26	33.79
282.476	-31.74
282.691	91.13
282.906	162.81
283.122	9.22
283.337	13.31
283.552	-17.41
283.767	-21.5
283.983	33.79
284.198	13.31
284.413	84.99
284.628	39.94
284.843	-1.02
285.058	115.71
285.274	-39.94
285.489	11.26
285.704	80.89
285.919	46.08
286.134	19.46
286.349	33.79
286.564	13.31
286.779	3.07
286.995	64.51
287.21	58.37
287.425	-1.02
287.64	15.36
287.855	105.47
288.07	19.46
288.285	-33.79
288.5	37.89
288.715	56.32
288.93	103.42
289.145	78.85
289.36	128
289.575	35.84
289.79	15.36
290.004	35.84
290.219	70.65
290.434	58.37
290.649	25.6
290.864	-29.7
291.079	54.27
291.294	-41.98
291.509	66.56
291.724	68.61
291.938	82.94
292.153	52.22
292.368	3.07
292.583	23.55
292.798	33.79
293.012	62.46
293.227	68.61
293.442	9.22
293.657	25.6
293.871	48.13
294.086	17.41
294.301	84.99
294.516	37.89
294.73	50.18
294.945	23.55
295.16	27.65
295.374	27.65
295.589	82.94
295.804	31.74
296.018	54.27
296.233	15.36
296.447	-9.22
296.662	-27.65
296.877	11.26
297.091	132.09
297.306	68.61
297.52	-13.31
297.735	125.95
297.949	33.79
298.164	48.13
298.378	19.46
298.593	46.08
298.807	54.27
299.022	-9.22
299.236	78.85
299.451	21.5
299.665	23.55
299.88	-27.65
300.094	68.61
300.309	11.26
300.523	58.37
300.737	3.07
300.952	31.74
301.166	35.84
301.381	-19.46
301.595	115.71
301.809	93.18
302.024	54.27
302.238	-7.17
302.452	136.19
302.667	72.7
302.881	-37.89
303.095	146.43
303.309	29.7
303.524	33.79
303.738	-25.6
303.952	95.23
304.166	97.28
304.381	9.22
304.595	23.55
304.809	68.61
305.023	17.41
305.237	21.5
305.452	33.79
305.666	21.5
305.88	93.18
306.094	144.38
306.308	37.89
306.522	44.03
306.736	35.84
306.95	37.89
307.164	33.79
307.379	-1.02
307.593	128
307.807	60.42
308.021	25.6
308.235	23.55
308.449	54.27
308.663	-7.17
308.877	97.28
309.091	76.8
309.305	5.12
309.519	101.37
309.733	46.08
309.947	27.65
310.161	37.89
310.374	58.37
310.588	82.94
310.802	-21.5
311.016	-1.02
311.23	46.08
311.444	31.74
311.658	52.22
311.872	50.18
312.085	27.65
312.299	19.46
312.513	15.36
312.727	70.65
312.941	39.94
313.154	27.65
313.368	-13.31
313.582	62.46
313.796	-3.07
314.009	64.51
314.223	95.23
314.437	31.74
314.651	111.61
314.864	68.61
315.078	60.42
315.292	52.22
315.505	93.18
315.719	54.27
315.933	23.55
316.146	109.57
316.36	60.42
316.573	68.61
316.787	-21.5
317.001	91.13
317.214	25.6
317.428	27.65
317.641	95.23
317.855	66.56
318.068	29.7
318.282	78.85
318.495	99.33
318.709	78.85
318.922	-54.27
319.136	48.13
319.349	68.61
319.563	11.26
319.776	3.07
319.99	13.31
320.203	19.46
320.417	82.94
320.63	66.56
320.843	29.7
321.057	39.94
321.27	52.22
321.483	103.42
321.697	52.22
321.91	66.56
322.124	-13.31
322.337	-21.5
322.55	50.18
322.763	109.57
322.977	128
323.19	-7.17
323.403	15.36
323.617	68.61
323.83	44.03
324.043	-19.46
324.256	109.57
324.469	15.36
324.683	7.17
324.896	21.5
325.109	35.84
325.322	1.02
325.535	64.51
325.748	-1.02
325.962	21.5
326.175	29.7
326.388	33.79
326.601	-1.02
326.814	123.9
327.027	46.08
327.24	50.18
327.453	-13.31
327.666	68.61
327.879	-3.07
328.092	64.51
328.305	7.17
328.518	80.89
328.731	-13.31
328.944	-17.41
329.157	-3.07
329.37	-15.36
329.583	-33.79
329.796	39.94
330.009	-41.98
330.222	31.74
330.435	87.04
330.648	-5.12
330.861	31.74
331.073	89.09
331.286	54.27
331.499	80.89
331.712	101.37
331.925	91.13
332.138	25.6
332.35	39.94
332.563	-25.6
332.776	17.41
332.989	19.46
333.202	72.7
333.414	-19.46
333.627	1.02
333.84	15.36
334.053	89.09
334.265	23.55
334.478	113.66
334.691	27.65
334.903	87.04
335.116	-7.17
335.329	84.99
335.541	95.23
335.754	41.98
335.966	-27.65
336.179	89.09
336.392	11.26
336.604	56.32
336.817	56.32
337.029	56.32
337.242	-5.12
337.454	56.32
337.667	13.31
337.88	109.57
338.092	5.12
338.305	72.7
338.517	50.18
338.729	5.12
338.942	113.66
339.154	56.32
339.367	25.6
339.579	66.56
339.792	-35.84
340.004	123.9
340.217	62.46
340.429	107.52
340.641	-13.31
340.854	-5.12
341.066	82.94
341.278	132.09
341.491	50.18
341.703	58.37
341.915	89.09
342.128	19.46
342.34	19.46
342.552	44.03
342.764	-9.22
342.977	50.18
343.189	115.71
343.401	117.76
343.613	-9.22
343.826	58.37
344.038	-21.5
344.25	52.22
344.462	-37.89
344.674	64.51
344.886	89.09
345.099	33.79
345.311	56.32
345.523	39.94
345.735	56.32
345.947	101.37
346.159	1.02
346.371	62.46
346.583	21.5
346.795	41.98
347.007	93.18
347.219	19.46
347.431	27.65
347.643	44.03
347.855	121.85
348.067	23.55
348.279	89.09
348.491	27.65
348.703	64.51
348.915	39.94
349.127	64.51
349.339	66.56
349.551	29.7
349.763	48.13
349.975	-58.37
350.187	50.18
350.399	52.22
350.61	-15.36
350.822	72.7
351.034	46.08
351.246	109.57
351.458	80.89
351.669	-3.07
351.881	54.27
352.093	138.24
352.305	107.52
352.517	33.79
352.728	9.22
352.94	44.03
353.152	37.89
353.363	1.02
353.575	99.33
353.787	31.74
353.999	103.42
354.21	74.75
354.422	82.94
354.633	1.02
354.845	17.41
355.057	-15.36
355.268	74.75
355.48	60.42
355.692	58.37
355.903	115.71
356.115	54.27
356.326	-5.12
356.538	60.42
356.749	37.89
356.961	132.09
357.172	70.65
357.384	-3.07
357.595	33.79
357.807	-33.79
358.018	29.7
358.23	101.37
358.441	25.6
358.653	56.32
358.864	17.41
359.075	23.55
359.287	44.03
359.498	80.89
359.709	-1.02
359.921	84.99
360.132	84.99
360.344	31.74
360.555	54.27
360.766	58.37
360.977	-15.36
361.189	80.89
361.4	115.71
361.611	39.94
361.823	60.42
362.034	58.37
362.245	76.8
362.456	11.26
362.667	27.65
362.879	5.12
363.09	56.32
363.301	105.47
363.512	25.6
363.723	52.22
363.935	109.57
364.146	33.79
364.357	64.51
364.568	44.03
364.779	70.65
364.99	76.8
365.201	64.51
365.412	134.14
365.623	66.56
365.834	23.55
366.045	62.46
366.256	3.07
366.467	13.31
366.678	-25.6
366.889	-17.41
367.1	39.94
367.311	60.42
367.522	1.02
367.733	25.6
367.944	87.04
368.155	66.56
368.366	-25.6
368.577	68.61
368.788	97.28
368.999	48.13
369.209	52.22
369.42	84.99
369.631	80.89
369.842	99.33
370.053	130.05
370.264	17.41
370.474	50.18
370.685	3.07
370.896	17.41
371.107	7.17
371.317	111.61
371.528	113.66
371.739	50.18
371.95	3.07
372.16	64.51
372.371	17.41
372.582	7.17
372.792	-13.31
373.003	1.02
373.214	1.02
373.424	44.03
373.635	84.99
373.846	33.79
374.056	68.61
374.267	70.65
374.477	15.36
374.688	74.75
374.898	-11.26
375.109	82.94
375.319	52.22
375.53	87.04
375.74	11.26
375.951	31.74
376.161	68.61
376.372	39.94
376.582	48.13
376.793	-1.02
377.003	23.55
377.214	52.22
377.424	99.33
377.635	41.98
377.845	-23.55
378.055	21.5
378.266	19.46
378.476	76.8
378.686	54.27
378.897	-21.5
379.107	46.08
379.317	76.8
379.528	52.22
379.738	39.94
379.948	171.01
380.158	93.18
380.369	-25.6
380.579	13.31
380.789	72.7
380.999	76.8
381.21	121.85
381.42	74.75
381.63	27.65
381.84	72.7
382.05	80.89
382.261	74.75
382.471	115.71
382.681	-3.07
382.891	56.32
383.101	35.84
383.311	9.22
383.521	-21.5
383.731	89.09
383.941	128
384.151	9.22
384.361	50.18
384.571	44.03
384.781	80.89
384.991	84.99
385.201	68.61
385.411	117.76
385.621	9.22
385.831	56.32
386.041	23.55
386.251	23.55
386.461	48.13
386.671	72.7
386.881	70.65
387.091	78.85
387.301	99.33
387.511	58.37
387.72	111.61
387.93	27.65
388.14	3.07
388.35	-9.22
388.56	50.18
388.769	52.22
388.979	80.89
389.189	41.98
389.399	54.27
389.609	70.65
389.818	27.65
390.028	9.22
390.238	37.89
390.447	46.08
390.657	54.27
390.867	76.8
391.076	-9.22
391.286	3.07
391.496	142.33
391.705	-1.02
391.915	-31.74
392.125	17.41
392.334	33.79
392.544	27.65
392.753	101.37
392.963	17.41
393.172	3.07
393.382	70.65
393.591	99.33
393.801	74.75
394.01	56.32
394.22	82.94
394.429	15.36
394.639	64.51
394.848	13.31
395.058	89.09
395.267	109.57
395.477	27.65
395.686	48.13
395.895	72.7
396.105	72.7
396.314	74.75
396.524	35.84
396.733	121.85
396.942	72.7
397.152	-11.26
397.361	82.94
397.57	66.56
397.78	93.18
397.989	91.13
398.198	130.05
398.407	27.65
398.617	56.32
398.826	80.89
399.035	72.7
399.244	48.13
399.453	1.02
399.663	91.13
399.872	39.94
400.081	37.89
400.29	130.05
400.499	74.75
400.708	99.33
400.917	23.55
401.127	80.89
401.336	93.18
401.545	50.18
401.754	74.75
401.963	95.23
402.172	44.03
402.381	121.85
402.59	125.95
402.799	91.13
403.008	105.47
403.217	134.14
403.426	140.29
403.635	117.76
403.844	23.55
404.053	134.14
404.262	123.9
404.471	80.89
404.68	52.22
404.888	87.04
405.097	117.76
405.306	138.24
405.515	209.92
405.724	62.46
405.933	31.74
406.142	193.53
406.35	142.33
406.559	93.18
406.768	97.28
406.977	152.57
407.185	76.8
407.394	99.33
407.603	109.57
407.812	146.43
408.02	136.19
408.229	132.09
408.438	236.54
408.646	138.24
408.855	111.61
409.064	82.94
409.272	111.61
409.481	216.06
409.69	156.67
409.898	164.86
410.107	105.47
410.315	171.01
410.524	207.87
410.733	211.96
410.941	181.25
411.15	181.25
411.358	230.4
411.567	214.01
411.775	207.87
411.984	191.49
412.192	257.02
412.401	306.17
412.609	211.96
412.818	205.82
413.026	279.55
413.234	318.46
413.443	254.97
413.651	248.83
413.86	293.88
414.068	369.66
414.276	261.12
414.485	322.56
414.693	377.85
414.901	289.79
415.11	332.79
415.318	459.77
415.526	353.27
415.734	404.47
415.943	463.86
416.151	465.91
416.359	377.85
416.567	398.33
416.776	488.44
416.984	400.38
417.192	504.82
417.4	527.35
417.608	496.63
417.817	492.54
418.025	586.74
418.233	592.89
418.441	601.08
418.649	558.07
418.857	689.14
419.065	654.33
419.273	713.72
419.481	730.1
419.689	754.68
419.897	795.64
420.105	779.25
420.313	834.55
420.521	836.6
420.729	885.75
420.937	850.93
421.145	918.51
421.353	1000.43
421.561	967.67
421.769	1086.45
421.977	1133.55
422.185	1070.06
422.393	1188.85
422.601	1100.78
422.809	1131.5
423.017	1106.93
423.224	1260.52
423.432	1235.95
423.64	1315.82
423.848	1369.07
424.056	1385.45
424.263	1463.27
424.471	1438.7
424.679	1461.23
424.887	1530.86
425.094	1633.26
425.302	1559.53
425.51	1696.74
425.718	1678.31
425.925	1758.18
426.133	1786.85
426.341	1942.5
426.548	1985.51
426.756	1983.46
426.964	2030.56
427.171	2102.24
427.379	2178.01
427.586	2130.91
427.794	2296.8
428.001	2290.65
428.209	2487.26
428.417	2368.48
428.624	2681.82
428.832	2653.14
429.039	2595.8
429.247	2575.32
429.454	2851.8
429.662	2966.48
429.869	2767.83
430.076	3064.79
430.284	2956.24
430.491	3052.5
430.699	3242.96
430.906	3132.37
431.114	3357.64
431.321	3414.99
431.528	3480.52
431.736	3673.03
431.943	3904.45
432.15	3777.48
432.358	3777.48
432.565	3982.28
432.772	3965.89
432.979	4101.06
433.187	4166.59
433.394	4287.42
433.601	4496.32
433.808	4625.34
434.016	4596.67
434.223	4772.79
434.43	5131.19
434.637	4946.87
434.844	5276.59
435.052	5286.83
435.259	5274.54
435.466	5440.43
435.673	5405.61
435.88	5647.27
436.087	5778.34
436.294	5946.28
436.501	5782.44
436.708	5950.37
436.915	6175.65
437.122	6417.31
437.329	6454.17
437.537	6738.84
437.743	6800.28
437.95	6628.25
438.157	7035.8
438.364	7316.37
438.571	7205.78
438.778	7263.12
438.985	7922.57
439.192	7590.8
439.399	7775.11
439.606	7709.58
439.813	8366.98
440.02	8618.88
440.227	8610.68
440.433	8383.36
440.64	8731.51
440.847	8739.71
441.054	8780.67
441.261	9399.15
441.467	9327.47
441.674	9720.68
441.881	10001.26
442.088	9923.43
442.294	9720.68
442.501	9974.63
442.708	10296.16
442.914	10677.09
443.121	11070.3
443.328	10697.56
443.534	11660.11
443.741	11156.31
443.948	11146.07
444.154	11987.79
444.361	11977.55
444.568	11928.39
444.774	11971.4
444.981	12063.56
445.187	12440.39
445.394	12999.48
445.6	12866.36
445.807	13992.75
446.013	13617.97
446.22	13517.62
446.426	14175.02
446.633	14375.72
446.839	15024.92
447.046	14238.5
447.252	15188.76
447.459	14967.58
447.665	15231.77
447.871	15807.25
448.078	16626.43
448.284	15455
448.491	15973.13
448.697	16847.61
448.903	16939.77
449.11	17033.98
449.316	17046.27
449.522	17111.8
449.728	17494.77
449.935	17869.55
450.141	17853.17
450.347	18057.96
450.553	17523.44
450.76	17906.41
450.966	18576.1
451.172	18227.95
451.378	18686.69
451.584	18164.46
451.791	18852.58
451.997	18758.37
452.203	19104.48
452.409	19104.48
452.615	19137.24
452.821	18508.52
453.027	18217.71
453.233	19276.51
453.44	18744.03
453.646	18535.14
453.852	18516.71
454.058	19055.33
454.264	18318.06
454.47	18840.29
454.676	18338.54
454.882	18989.79
455.088	17763.06
455.294	17642.23
455.5	17916.65
455.705	17761.01
455.911	17023.74
456.117	17001.21
456.323	16583.43
456.529	15954.7
456.735	16718.59
456.941	16220.94
457.147	15997.71
457.352	15350.55
457.558	15217.43
457.764	15158.04
457.97	14875.42
458.176	14572.32
458.381	14684.96
458.587	14201.64
458.793	13734.7
458.999	13327.16
459.204	14324.52
459.41	13906.73
459.616	12682.05
459.821	12858.17
460.027	12757.82
460.233	12477.25
460.438	11854.67
460.644	12157.77
460.85	11582.29
461.055	11260.76
461.261	11144.02
461.466	10505.06
461.672	10226.53
461.878	10761.05
462.083	10333.03
462.289	9814.89
462.494	9894.76
462.7	9337.71
462.905	9220.98
463.111	9481.07
463.316	9675.63
463.522	9419.63
463.727	9458.54
463.932	9284.47
464.138	9247.6
464.343	9407.34
464.549	9094.01
464.754	9134.96
464.959	9270.13
465.165	9159.54
465.37	8807.29
465.575	8604.54
465.781	8942.46
465.986	8692.6
466.191	8498.05
466.397	8598.4
466.602	8057.73
466.807	8395.65
467.012	8321.92
467.218	8270.72
467.423	8350.59
467.628	8137.6
467.833	8764.28
468.038	8346.5
468.244	8084.36
468.449	8336.26
468.654	8006.53
468.859	8010.63
469.064	8084.36
469.269	7758.73
469.474	7758.73
469.679	7844.74
469.885	7680.91
470.09	7795.59
470.295	7672.71
470.5	7453.58
470.705	7758.73
470.91	7699.34
471.115	7506.83
471.32	7510.93
471.525	7451.53
471.73	7285.65
471.935	7254.93
472.139	7031.7
472.344	7134.1
472.549	6923.16
472.754	6953.88
472.959	6732.7
473.164	6826.9
473.369	6607.77
473.574	6898.58
473.778	6837.14
473.983	6667.16
474.188	6663.07
474.393	6357.92
474.598	6460.32
474.802	6357.92
475.007	6245.28
475.212	6376.35
475.417	6196.13
475.621	6122.4
475.826	6110.11
476.031	5915.56
476.235	5831.59
476.44	5897.13
476.645	5837.73
476.849	6071.2
477.054	5634.99
477.259	5710.76
477.463	5632.94
477.668	5471.15
477.872	5653.42
478.077	5606.31
478.282	5342.13
478.486	5469.1
478.691	5424.05
478.895	5432.24
479.1	5307.31
479.304	5168.05
479.509	5131.19
479.713	5311.41
479.918	5147.57
480.122	5008.31
480.326	5104.56
480.531	5329.84
480.735	5020.6
480.94	5028.79
481.144	5100.47
481.348	4955.06
481.553	4897.72
481.757	4965.3
481.961	4832.18
482.166	4914.1
482.37	4989.88
482.574	5008.31
482.778	4936.63
482.983	4987.83
483.187	4924.34
483.391	4981.68
483.595	4922.29
483.8	4703.16
484.004	4957.11
484.208	4991.92
484.412	4754.36
484.616	4838.33
484.821	4801.46
485.025	4864.95
485.229	5004.21
485.433	4789.17
485.637	4979.64
485.841	4922.29
486.045	4764.6
486.249	4840.37
486.453	4862.9
486.657	4756.41
486.861	4895.67
487.065	4840.37
487.269	4979.64
487.473	4953.01
487.677	4922.29
487.881	4936.63
488.085	4920.24
488.289	4897.72
488.493	4998.07
488.697	4942.77
488.901	5079.99
489.105	5006.26
489.309	5039.03
489.512	4950.96
489.716	4932.53
489.92	4922.29
490.124	4938.68
490.328	5118.9
490.531	5118.9
490.735	5202.86
490.939	5127.09
491.143	4948.92
491.346	5012.4
491.55	5182.38
491.754	5135.28
491.958	5180.34
492.161	5002.16
492.365	5284.78
492.569	5366.7
492.772	5321.65
492.976	5264.3
493.18	5282.74
493.383	5297.07
493.587	5405.61
493.79	5655.47
493.994	5374.89
494.197	5530.54
494.401	5503.92
494.605	5544.88
494.808	5639.08
495.012	5716.9
495.215	5831.59
495.419	5628.84
495.622	5669.8
495.825	5821.35
496.029	5845.93
496.232	5993.38
496.436	5905.32
496.639	5962.66
496.843	6030.24
497.046	6230.94
497.249	6192.03
497.453	6222.75
497.656	6351.78
497.859	6353.82
498.063	6437.79
498.266	6441.89
498.469	6439.84
498.673	6564.76
498.876	6718.36
499.079	6806.42
499.282	6851.48
499.485	6964.12
499.689	6968.21
499.892	7152.53
500.095	7177.11
500.298	7273.36
500.501	7263.12
500.705	7533.45
500.908	7457.68
501.111	7670.67
501.314	7603.08
501.517	7787.4
501.72	7945.09
501.923	7873.42
502.126	8084.36
502.329	8004.49
502.532	8209.28
502.735	8334.21
502.938	8409.98
503.141	8602.49
503.344	8829.82
503.547	8645.5
503.75	8883.06
503.953	8858.49
504.156	8985.46
504.359	9229.17
504.562	9210.74
504.765	9302.9
504.968	9399.15
505.17	9583.47
505.373	9575.28
505.576	9827.18
505.779	9816.94
505.982	9927.53
506.185	10287.97
506.387	10042.21
506.59	10451.81
506.793	10460
506.996	10713.95
507.198	10830.68
507.401	10806.11
507.604	10855.26
507.807	11205.46
508.009	11295.57
508.212	11227.99
508.415	11418.45
508.617	11406.16
508.82	11631.44
509.022	11670.35
509.225	12088.14
509.428	12178.25
509.63	12378.95
509.833	12329.8
510.035	12647.23
510.238	12675.9
510.44	12712.77
510.643	12718.91
510.845	12897.08
511.048	13052.73
511.25	13251.38
511.453	13339.44
511.655	13824.81
511.858	13550.39
512.06	13826.86
512.262	14033.71
512.465	13646.64
512.667	14238.5
512.87	14582.56
513.072	14162.73
513.274	14754.59
513.477	14887.71
513.679	14940.96
513.881	15115.03
514.084	15080.22
514.286	15072.03
514.488	15348.5
514.69	15846.16
514.893	15637.27
515.095	16106.25
515.297	16200.46
515.499	16212.74
515.701	16378.63
515.904	16362.25
516.106	16759.55
516.308	16941.82
516.51	16898.81
516.712	17201.91
516.914	17263.35
517.116	17664.75
517.318	17513.2
517.52	17918.7
517.722	17789.68
517.925	18414.31
518.127	18348.78
518.329	18408.17
518.531	18643.68
518.733	18811.62
518.935	18819.81
519.136	19104.48
519.338	19092.19
519.54	19096.28
519.742	19530.45
519.944	19614.42
520.146	19946.19
520.348	20259.53
520.55	20261.58
520.752	20173.52
520.954	20665.03
521.155	20507.34
521.357	20929.22
521.559	20955.84
521.761	21181.12
521.963	21035.71
522.164	21568.18
522.366	21531.32
522.568	21656.25
522.77	21603
522.971	21983.92
523.173	21844.66
523.375	22094.51
523.576	21971.63
523.778	22028.98
523.98	22620.84
524.181	22561.45
524.383	22805.16
524.584	22764.2
524.786	23069.34
524.988	22620.84
525.189	23249.57
525.391	23157.41
525.592	23622.3
525.794	23495.32
525.995	23775.89
526.197	23532.18
526.398	23573.14
526.6	24101.52
526.801	23882.39
527.003	23947.92
527.204	24150.67
527.406	24138.38
527.607	24472.2
527.808	24543.88
528.01	24246.93
528.211	24177.3
528.412	24851.08
528.614	24693.38
528.815	24631.94
529.016	25070.21
529.218	24664.71
529.419	24902.28
529.62	25195.14
529.822	24904.32
530.023	25158.27
530.224	25033.35
530.425	25078.4
530.626	24595.08
530.828	24910.47
531.029	25479.8
531.23	25268.86
531.431	25281.15
531.632	25283.2
531.833	25412.22
532.035	25107.07
532.236	25391.74
532.437	25567.87
532.638	25352.83
532.839	25576.06
533.04	25653.88
533.241	25168.51
533.442	25743.99
533.643	25627.26
533.844	25715.32
534.045	25750.14
534.246	25178.75
534.447	25809.53
534.648	25369.21
534.849	25674.36
535.05	25547.39
535.251	25647.74
535.451	25260.67
535.652	25612.92
535.853	25635.45
536.054	25614.97
536.255	25821.81
536.456	25606.78
536.657	25582.2
536.857	25555.58
537.058	25440.89
537.259	25973.36
537.46	25651.83
537.66	25809.53
537.861	25856.63
538.062	25457.28
538.263	25717.37
538.463	25682.55
538.664	25582.2
538.865	25719.42
539.065	25682.55
539.266	25694.84
539.466	25819.77
539.667	24885.89
539.868	25959.03
540.068	25676.41
540.269	25346.69
540.469	25719.42
540.67	25315.97
540.87	25627.26
541.071	25782.9
541.271	25463.42
541.472	25758.33
541.672	25520.76
541.873	25707.13
542.073	25412.22
542.274	25592.44
542.474	25504.38
542.675	25451.13
542.875	25735.8
543.075	25817.72
543.276	25666.17
543.476	25721.46
543.676	25557.63
543.877	25723.51
544.077	25385.6
544.277	25627.26
544.478	25508.47
544.678	25326.21
544.878	25571.96
545.078	25741.94
545.279	25453.18
545.479	25207.42
545.679	25614.97
545.879	25461.37
546.079	25600.63
546.28	25494.14
546.48	25275.01
546.68	25629.3
546.88	25877.11
547.08	25563.77
547.28	25283.2
547.48	25238.14
547.68	25344.64
547.88	24941.19
548.081	25510.52
548.281	25508.47
548.481	25299.58
548.681	25578.11
548.881	25471.61
549.081	25272.96
549.28	25080.45
549.48	25377.4
549.68	25358.97
549.88	25694.84
550.08	25322.11
550.28	25287.29
550.48	25062.02
550.68	25453.18
550.88	25350.78
551.08	25186.94
551.279	25563.77
551.479	25098.88
551.679	24996.48
551.879	25236.09
552.079	25420.41
552.278	24933
552.478	25311.87
552.678	25324.16
552.878	25492.09
553.077	25299.58
553.277	24650.38
553.477	25406.08
553.676	25285.25
553.876	25102.98
554.076	25156.22
554.275	24789.64
554.475	24943.24
554.674	25014.91
554.874	24855.17
555.074	25201.28
555.273	24846.98
555.473	25240.19
555.672	24879.75
555.872	24908.42
556.071	24791.69
556.271	25084.55
556.47	24763.01
556.67	24554.12
556.869	24461.96
557.068	24883.84
557.268	24822.41
557.467	24611.46
557.667	24871.56
557.866	24736.39
558.065	24611.46
558.265	24378
558.464	24748.68
558.663	25076.35
558.863	24216.21
559.062	24933
559.261	24232.59
559.461	24525.45
559.66	24515.21
559.859	24597.13
560.058	24187.53
560.258	24513.16
560.457	24003.22
560.656	24414.86
560.855	24259.21
561.054	24498.83
561.253	23915.16
561.453	24181.39
561.652	24312.46
561.851	24124.05
562.05	24156.82
562.249	23984.79
562.448	23904.92
562.647	23941.78
562.846	24210.06
563.045	23868.05
563.244	23571.1
563.443	24214.16
563.642	23767.7
563.841	24175.25
564.04	23616.15
564.239	24019.6
564.438	23601.82
564.637	23847.57
564.836	23863.96
565.035	23669.4
565.234	23552.66
565.432	23714.45
565.631	23268
565.83	23691.93
566.029	23483.03
566.228	23390.88
566.427	23231.13
566.625	23220.89
566.824	23040.67
567.023	23364.25
567.222	22919.84
567.42	23216.8
567.619	23163.55
567.818	22925.99
568.016	23026.34
568.215	23173.79
568.414	22854.31
568.612	23546.52
568.811	22872.74
569.01	22932.13
569.208	22602.41
569.407	22921.89
569.605	22575.78
569.804	22862.5
570.002	22598.31
570.201	22901.41
570.4	22504.1
570.598	22463.15
570.797	22266.54
570.995	22356.65
571.193	21832.37
571.392	22440.62
571.59	22158
571.789	22043.31
571.987	22112.94
572.186	22190.77
572.384	21922.48
572.582	21977.78
572.781	22211.25
572.979	22024.88
573.177	21639.86
573.376	21920.43
573.574	21721.78
573.772	22014.64
573.971	21611.19
574.169	21547.7
574.367	21594.81
574.565	21521.08
574.763	21420.73
574.962	21582.52
575.16	21150.4
575.358	21271.23
575.556	21011.14
575.754	21203.64
575.952	21111.49
576.151	21256.89
576.349	20818.63
576.547	20705.99
576.745	21004.99
576.943	21011.14
577.141	20800.19
577.339	20964.03
577.537	20869.83
577.735	20851.39
577.933	20241.1
578.131	20400.84
578.329	20529.86
578.527	20284.11
578.725	20327.11
578.923	20300.49
579.121	20126.41
579.319	20366.03
579.516	20150.99
579.714	20445.9
579.912	20183.76
580.11	20187.85
580.308	20327.11
580.506	19792.59
580.704	19610.32
580.901	19837.65
581.099	19768.02
581.297	19415.77
581.495	19831.51
581.692	19716.82
581.89	19389.14
582.088	19839.7
582.285	19344.09
582.483	19434.2
582.681	19344.09
582.878	19096.28
583.076	19282.65
583.274	19442.39
583.471	19194.59
583.669	19200.73
583.866	19127
584.064	18926.3
584.262	18828
584.459	19237.59
584.657	18891.49
584.854	19184.35
585.052	18801.38
585.249	18631.4
585.447	18961.12
585.644	18713.31
585.841	18541.29
586.039	18803.43
586.236	18651.88
586.434	18596.58
586.631	18225.9
586.828	18254.57
587.026	18199.27
587.223	18344.68
587.42	18270.95
587.618	18199.27
587.815	18156.27
588.012	18037.48
588.21	17963.76
588.407	18152.17
588.604	17777.39
588.801	17660.66
588.999	17998.57
589.196	17724.15
589.393	17935.09
589.59	17746.67
589.787	17763.06
589.984	17588.98
590.182	17462.01
590.379	17838.83
590.576	17564.4
590.773	17631.99
590.97	17328.89
591.167	17468.15
591.364	17228.54
591.561	17230.59
591.758	17187.58
591.955	17201.91
592.152	17007.36
592.349	16962.3
592.546	16911.1
592.743	17226.49
592.94	16771.84
593.137	16708.35
593.334	16816.9
593.531	16620.29
593.727	16786.18
593.924	16612.1
594.121	16663.3
594.318	16890.62
594.515	16300.81
594.712	16634.63
594.908	16497.41
595.105	16433.93
595.302	16415.49
595.499	16235.27
595.696	16085.77
595.892	16128.78
596.089	16435.97
596.286	16288.52
596.482	16087.82
596.679	16163.59
596.876	15960.84
597.072	15541.01
597.269	15948.56
597.466	15727.38
597.662	15813.39
597.859	15606.55
598.055	15647.51
598.252	15698.7
598.448	15543.06
598.645	15598.35
598.841	15311.64
599.038	15510.29
599.234	15393.56
599.431	15405.84
599.627	15305.49
599.824	15248.15
600.02	15108.89
600.217	15141.66
600.413	15096.6
600.609	15069.98
600.806	14766.88
601.002	14973.72
601.198	14824.22
601.395	14678.82
601.591	14842.65
601.787	14856.99
601.984	14644
602.18	14662.43
602.376	14701.34
602.572	14719.78
602.769	14680.86
602.965	14529.31
603.161	14394.15
603.357	14291.75
603.553	14293.8
603.75	14299.94
603.946	14052.14
604.142	14304.04
604.338	14320.42
604.534	14293.8
604.73	14000.94
604.926	13982.51
605.122	13990.7
605.318	13847.34
605.514	13812.53
605.71	13810.48
605.906	13759.28
606.102	13724.46
606.298	13816.62
606.494	14086.95
606.69	13730.61
606.886	13624.11
607.082	13648.69
607.278	13577.01
607.474	13490.99
607.67	13517.62
607.866	13314.87
608.062	13646.64
608.257	13202.23
608.453	13456.18
608.649	13239.09
608.845	13525.81
609.041	13271.86
609.236	13443.89
609.432	13114.17
609.628	13003.58
609.824	13038.39
610.019	13155.13
610.215	13054.78
610.411	13316.92
610.606	12835.64
610.802	13056.82
610.998	12946.23
611.193	13071.16
611.389	12917.56
611.584	12733.25
611.78	12890.94
611.976	12870.46
612.171	12766.01
612.367	12690.24
612.562	12712.77
612.758	12649.28
612.953	12663.61
613.149	12780.35
613.344	12514.11
613.539	12673.85
613.735	12542.78
613.93	12501.83
614.126	12426.05
614.321	12626.75
614.517	12536.64
614.712	12421.95
614.907	12452.67
615.103	12661.57
615.298	12137.29
615.493	12270.4
615.688	12262.21
615.884	12608.32
616.079	12075.85
616.274	12356.42
616.47	12251.97
616.665	12063.56
616.86	11924.3
617.055	12075.85
617.25	12057.42
617.445	12237.64
617.641	11764.56
617.836	11936.59
618.031	11780.94
618.226	11883.34
618.421	11748.17
618.616	11905.87
618.811	11869
619.006	11912.01
619.201	11518.8
619.396	11526.99
619.591	11381.59
619.786	11658.06
619.981	11289.43
620.176	11490.13
620.371	11383.63
620.566	11447.12
620.761	11215.7
620.956	11168.6
621.151	10863.45
621.346	11303.76
621.541	11010.9
621.735	10969.94
621.93	10783.58
622.125	11035.48
622.32	10814.3
622.515	11094.87
622.709	10687.32
622.904	10677.09
623.099	10664.8
623.294	10640.22
623.488	10406.75
623.683	10513.25
623.878	10369.89
624.072	10529.63
624.267	10326.88
624.462	10222.44
624.656	10263.4
624.851	10062.69
625.046	10187.62
625.24	9880.43
625.435	10201.96
625.629	9825.13
625.824	10072.93
626.018	9767.79
626.213	9681.77
626.407	9927.53
626.602	9628.53
626.796	9771.88
626.991	9679.72
627.185	9548.65
627.38	9452.4
627.574	9448.3
627.768	9370.48
627.963	9388.91
628.157	9317.23
628.352	9333.62
628.546	9075.57
628.74	9290.61
628.935	8893.3
629.129	9063.29
629.323	8829.82
629.517	9026.42
629.712	8928.12
629.906	9083.77
630.1	8629.12
630.294	8635.26
630.489	8780.67
630.683	8766.33
630.877	8561.53
631.071	8600.44
631.265	8520.57
631.459	8473.47
631.653	8336.26
631.848	8362.88
632.042	8573.82
632.236	8371.07
632.43	8176.52
632.624	8317.83
632.818	8336.26
633.012	8260.48
633.206	8133.51
633.4	8162.18
633.594	7930.76
633.788	7842.7
633.982	7900.04
634.176	7865.22
634.369	7955.33
634.563	7859.08
634.757	7736.2
634.951	7805.83
635.145	7701.39
635.339	7682.95
635.533	7715.72
635.726	7594.89
635.92	7467.92
636.114	7383.95
636.308	7406.48
636.501	7365.52
636.695	7508.88
636.889	7328.66
637.083	7367.57
637.276	7166.87
637.47	7023.51
637.664	7216.02
637.857	7134.1
638.051	6964.12
638.244	7173.01
638.438	6974.36
638.632	7138.2
638.825	6806.42
639.019	7035.8
639.212	6833.05
639.406	6982.55
639.599	6828.95
639.793	6792.09
639.986	6734.75
640.18	6757.27
640.373	6779.8
640.567	6681.5
640.76	6710.17
640.954	6656.92
641.147	6595.48
641.34	6499.23
641.534	6433.69
641.727	6595.48
641.92	6388.64
642.114	6384.54
642.307	6286.24
642.5	6282.14
642.694	6130.59
642.887	5979.04
643.08	6232.99
643.273	6306.72
643.467	5925.8
643.66	6185.89
643.853	5960.61
644.046	5991.33
644.239	5913.51
644.432	6038.44
644.626	5925.8
644.819	5710.76
645.012	5852.07
645.205	5858.21
645.398	5778.34
645.591	5770.15
645.784	5692.33
645.977	5454.76
646.17	5761.96
646.363	5651.37
646.556	5573.55
646.749	5616.55
646.942	5534.64
647.135	5401.52
647.328	5503.92
647.521	5522.35
647.714	5487.53
647.907	5309.36
648.099	5350.32
648.292	5313.45
648.485	5313.45
648.678	5071.79
648.871	5264.3
649.064	5217.2
649.256	5325.74
649.449	5041.08
649.642	5116.85
649.835	5118.9
650.027	5196.72
650.22	4938.68
650.413	4854.71
650.605	4848.57
650.798	4875.19
650.991	4932.53
651.183	4912.05
651.376	4754.36
651.568	4838.33
651.761	4864.95
651.954	4666.3
652.146	4758.46
652.339	4725.69
652.531	4748.22
652.724	4676.54
652.916	4486.08
653.109	4606.91
653.301	4611
653.494	4582.33
653.686	4447.16
653.879	4559.8
654.071	4512.7
654.263	4481.98
654.456	4332.48
654.648	4438.97
654.84	4408.25
655.033	4342.72
655.225	4342.72
655.417	4225.98
655.61	4305.85
655.802	4113.35
655.994	4213.7
656.186	4113.35
656.379	4285.37
656.571	4287.42
656.763	4170.69
656.955	4123.59
657.148	4277.18
657.34	4043.71
657.532	4010.95
657.724	3978.18
657.916	3969.99
658.108	4004.8
658.3	3877.83
658.492	3824.58
658.684	3826.63
658.876	3873.73
659.068	3855.3
659.26	3748.81
659.452	3783.62
659.644	3828.68
659.836	3593.16
660.028	3816.39
660.22	3613.64
660.412	3640.26
660.604	3595.21
660.796	3724.23
660.988	3584.97
661.18	3580.87
661.372	3605.45
661.563	3670.98
661.755	3511.24
661.947	3593.16
662.139	3591.11
662.331	3474.38
662.522	3369.93
662.714	3365.84
662.906	3509.19
663.097	3425.23
663.289	3384.27
663.481	3365.84
663.673	3283.92
663.864	3314.64
664.056	3032.02
664.247	3263.44
664.439	3195.86
664.631	3228.62
664.822	3179.47
665.014	3204.05
665.205	3208.14
665.397	3224.53
665.588	3255.25
665.78	3056.59
665.971	3032.02
666.163	3066.83
666.354	2966.48
666.546	3105.74
666.737	3062.74
666.929	2999.25
667.12	3054.55
667.311	2884.56
667.503	3038.16
667.694	2814.93
667.885	2931.67
668.077	2866.13
668.268	2931.67
668.459	2687.96
668.651	2948.05
668.842	2829.27
669.033	2878.42
669.224	2851.8
669.416	2792.41
669.607	2843.6
669.798	2776.02
669.989	2773.97
670.18	2759.64
670.371	2726.87
670.563	2681.82
670.754	2681.82
670.945	2603.99
671.136	2739.16
671.327	2599.9
671.518	2626.52
671.709	2579.42
671.9	2667.48
672.091	2571.22
672.282	2626.52
672.473	2491.35
672.664	2644.95
672.855	2599.9
673.046	2534.36
673.237	2655.19
673.428	2483.16
673.619	2556.89
673.809	2558.94
674	2522.07
674.191	2468.83
674.382	2409.44
674.573	2575.32
674.764	2399.2
674.954	2399.2
675.145	2345.95
675.336	2448.35
675.527	2491.35
675.717	2415.58
675.908	2343.9
676.099	2376.67
676.289	2452.44
676.48	2362.33
676.671	2317.28
676.861	2257.89
677.052	2358.24
677.243	2309.08
677.433	2352.09
677.624	2362.33
677.814	2358.24
678.005	2259.93
678.195	2294.75
678.386	2218.97
678.576	2126.82
678.767	2223.07
678.957	2286.56
679.148	2237.41
679.338	2259.93
679.529	2206.69
679.719	2272.22
679.909	2309.08
680.1	2319.32
680.29	2145.25
680.481	2202.59
680.671	2221.02
680.861	2067.42
681.052	2274.27
681.242	2214.88
681.432	2315.23
681.622	2135.01
681.813	2075.62
682.003	2161.63
682.193	2145.25
682.383	2227.17
682.573	2290.65
682.764	2098.14
682.954	2151.39
683.144	2157.54
683.334	2040.8
683.524	2075.62
683.714	2038.75
683.904	2038.75
684.094	2032.61
684.284	1975.27
684.474	2137.06
684.664	2055.14
684.854	2085.86
685.044	2051.04
685.234	2032.61
685.424	2071.52
685.614	2081.76
685.804	2130.91
685.994	2124.77
686.184	2135.01
686.374	2067.42
686.564	2030.56
686.753	1866.72
686.943	2020.32
687.133	1985.51
687.323	2057.18
687.513	2048.99
687.702	2079.71
687.892	2022.37
688.082	2112.48
688.272	1930.21
688.461	2073.57
688.651	2034.66
688.841	1993.7
689.03	1958.88
689.22	1913.83
689.41	1915.87
689.599	1860.58
689.789	1993.7
689.979	1944.55
690.168	2014.18
690.358	1952.74
690.547	1928.16
690.737	1979.36
690.926	1864.68
691.116	1883.11
691.305	1936.35
691.495	1885.16
691.684	1934.31
691.874	1948.64
692.063	1862.63
692.252	1917.92
692.442	1891.3
692.631	1919.97
692.82	1897.44
693.01	1954.79
693.199	1813.48
693.388	1821.67
693.578	1833.96
693.767	1883.11
693.956	1799.14
694.146	1795.04
694.335	1784.8
694.524	1856.48
694.713	1721.32
694.902	1844.2
695.092	1780.71
695.281	1790.95
695.47	1772.52
695.659	1768.42
695.848	1827.81
696.037	1766.37
696.226	1805.28
696.415	1782.76
696.604	1854.44
696.793	1803.24
696.982	1766.37
697.171	1790.95
697.36	1580.01
697.549	1741.8
697.738	1774.56
697.927	1684.45
698.116	1704.93
698.305	1694.69
698.494	1698.79
698.683	1674.21
698.872	1711.08
699.061	1676.26
699.25	1725.41
699.438	1772.52
699.627	1602.54
699.816	1655.78
700.005	1727.46
700.193	1721.32
700.382	1692.65
700.571	1616.87
700.76	1670.12
700.948	1754.09
701.137	1635.3
701.326	1582.06
701.514	1741.8
701.703	1678.31
701.892	1655.78
702.08	1596.39
702.269	1735.65
702.457	1610.73
702.646	1680.36
702.834	1602.54
703.023	1571.82
703.212	1721.32
703.4	1643.49
703.589	1666.02
703.777	1606.63
703.965	1496.04
704.154	1506.28
704.342	1557.48
704.531	1580.01
704.719	1620.97
704.907	1580.01
705.096	1532.9
705.284	1561.58
705.472	1545.19
705.661	1467.37
705.849	1442.79
706.037	1526.76
706.226	1541.1
706.414	1498.09
706.602	1438.7
706.79	1561.58
706.979	1436.65
707.167	1506.28
707.355	1479.66
707.543	1606.63
707.731	1491.95
707.919	1483.75
708.107	1485.8
708.296	1565.67
708.484	1442.79
708.672	1491.95
708.86	1491.95
709.048	1461.23
709.236	1465.32
709.424	1473.51
709.612	1524.71
709.8	1520.62
709.988	1448.94
710.176	1395.69
710.364	1407.98
710.551	1420.27
710.739	1426.41
710.927	1362.92
711.115	1385.45
711.303	1539.05
711.491	1418.22
711.679	1457.13
711.866	1453.03
712.054	1457.13
712.242	1401.83
712.43	1537
712.617	1375.21
712.805	1317.87
712.993	1373.16
713.181	1405.93
713.368	1340.4
713.556	1276.91
713.744	1420.27
713.931	1350.64
714.119	1301.48
714.306	1332.2
714.494	1393.64
714.682	1412.07
714.869	1348.59
715.057	1293.29
715.244	1385.45
715.432	1266.67
715.619	1203.18
715.807	1311.72
715.994	1270.76
716.182	1344.49
716.369	1346.54
716.556	1319.92
716.744	1301.48
716.931	1258.48
717.119	1338.35
717.306	1291.24
717.493	1301.48
717.681	1262.57
717.868	1305.58
718.055	1192.94
718.242	1238
718.43	1297.39
718.617	1360.88
718.804	1190.89
718.991	1139.69
719.179	1281
719.366	1213.42
719.553	1281
719.74	1235.95
719.927	1235.95
720.114	1285.1
720.301	1168.37
720.488	1254.38
720.676	1166.32
720.863	1250.28
721.05	1254.38
721.237	1238
721.424	1252.33
721.611	1256.43
721.798	1205.23
721.985	1233.9
722.172	1129.45
722.358	1242.09
722.545	1070.06
722.732	1235.95
722.919	1137.65
723.106	1135.6
723.293	1176.56
723.48	1104.88
723.667	1184.75
723.853	1166.32
724.04	1203.18
724.227	1102.83
724.414	1197.04
724.6	1139.69
724.787	1184.75
724.974	1149.93
725.161	1072.11
725.347	1197.04
725.534	1125.36
725.72	1057.78
725.907	1123.31
726.094	1182.7
726.28	1113.07
726.467	1166.32
726.653	1188.85
726.84	1133.55
727.027	1096.69
727.213	1168.37
727.4	1035.25
727.586	1145.84
727.773	1096.69
727.959	1063.92
728.145	1098.74
728.332	1176.56
728.518	1065.97
728.705	1098.74
728.891	1070.06
729.077	1072.11
729.264	1086.45
729.45	1106.93
729.636	1219.57
729.823	1039.34
730.009	1131.5
730.195	1004.53
730.382	1078.26
730.568	1041.39
730.754	1012.72
730.94	1127.41
731.126	1070.06
731.313	1108.98
731.499	1168.37
731.685	1154.03
731.871	1061.87
732.057	1100.78
732.243	1074.16
732.429	1049.58
732.615	1025.01
732.801	1059.82
732.987	1063.92
733.173	1070.06
733.359	951.28
733.545	1096.69
733.731	992.24
733.917	1094.64
734.103	1045.49
734.289	1051.63
734.475	994.29
734.661	1076.21
734.847	1113.07
735.033	1057.78
735.219	941.04
735.404	1004.53
735.59	1065.97
735.776	973.81
735.962	1098.74
736.148	979.95
736.333	1031.15
736.519	1055.73
736.705	1012.72
736.89	1068.02
737.076	979.95
737.262	982
737.447	1033.2
737.633	1070.06
737.819	955.38
738.004	1084.4
738.19	1008.62
738.375	998.38
738.561	949.23
738.747	990.19
738.932	994.29
739.118	1022.96
739.303	955.38
739.489	961.52
739.674	957.43
739.859	969.71
740.045	988.14
740.23	992.24
740.416	949.23
740.601	1106.93
740.786	971.76
740.972	924.66
741.157	1020.91
741.342	904.18
741.528	900.08
741.713	951.28
741.898	973.81
742.084	912.37
742.269	863.22
742.454	971.76
742.639	930.8
742.824	930.8
743.01	1033.2
743.195	932.85
743.38	943.09
743.565	967.67
743.75	949.23
743.935	883.7
744.12	941.04
744.305	844.79
744.49	885.75
744.675	912.37
744.86	863.22
745.045	967.67
745.23	842.74
745.415	836.6
745.6	912.37
745.785	926.71
745.97	766.96
746.155	918.51
746.34	842.74
746.525	818.16
746.71	926.71
746.895	885.75
747.079	855.03
747.264	900.08
747.449	844.79
747.634	893.94
747.819	814.07
748.003	838.64
748.188	846.84
748.373	744.44
748.557	777.2
748.742	785.4
748.927	852.98
749.111	771.06
749.296	801.78
749.481	799.73
749.665	840.69
749.85	818.16
750.034	779.25
750.219	820.21
750.404	764.92
750.588	801.78
750.773	719.86
750.957	818.16
751.141	773.11
751.326	818.16
751.51	715.77
751.695	676.85
751.879	703.48
752.064	621.56
752.248	707.57
752.432	699.38
752.617	701.43
752.801	695.29
752.985	771.06
753.17	707.57
753.354	629.75
753.538	740.34
753.722	599.03
753.907	660.47
754.091	697.33
754.275	637.94
754.459	691.19
754.643	705.53
754.828	646.13
755.012	699.38
755.196	680.95
755.38	617.46
755.564	652.28
755.748	695.29
755.932	666.61
756.116	689.14
756.3	609.27
756.484	637.94
756.668	619.51
756.852	619.51
757.036	617.46
757.22	639.99
757.404	592.89
757.588	680.95
757.772	566.26
757.956	613.37
758.14	535.54
758.323	658.42
758.507	609.27
758.691	664.57
758.875	570.36
759.059	627.7
759.242	543.74
759.426	482.3
759.61	502.78
759.794	621.56
759.977	617.46
760.161	621.56
760.345	584.7
760.528	553.98
760.712	613.37
760.895	545.78
761.079	568.31
761.263	562.17
761.446	623.61
761.63	594.93
761.813	588.79
761.997	590.84
762.18	627.7
762.364	531.45
762.547	580.6
762.731	490.49
762.914	461.82
763.098	519.16
763.281	474.1
763.464	564.22
763.648	506.87
763.831	537.59
764.015	500.73
764.198	523.26
764.381	541.69
764.564	445.43
764.748	519.16
764.931	515.06
765.114	459.77
765.297	465.91
765.481	508.92
765.664	498.68
765.847	494.58
766.03	414.71
766.213	510.97
766.397	449.53
766.58	545.78
766.763	531.45
766.946	500.73
767.129	472.06
767.312	400.38
767.495	547.83
767.678	424.95
767.861	427
768.044	449.53
768.227	500.73
768.41	467.96
768.593	416.76
768.776	508.92
768.959	443.39
769.142	367.61
769.324	439.29
769.507	437.24
769.69	459.77
769.873	414.71
770.056	484.34
770.239	381.95
770.421	478.2
770.604	480.25
770.787	513.02
770.97	381.95
771.152	437.24
771.335	453.63
771.518	388.09
771.7	449.53
771.883	470.01
772.066	429.05
772.248	408.57
772.431	420.86
772.613	418.81
772.796	414.71
772.978	422.91
773.161	502.78
773.343	396.28
773.526	396.28
773.708	398.33
773.891	361.47
774.073	410.62
774.256	367.61
774.438	386.04
774.621	412.67
774.803	390.14
774.985	398.33
775.168	383.99
775.35	297.98
775.532	334.84
775.715	410.62
775.897	328.7
776.079	396.28
776.261	336.89
776.444	332.79
776.626	386.04
776.808	381.95
776.99	314.36
777.173	349.18
777.355	332.79
777.537	338.94
777.719	357.37
777.901	414.71
778.083	386.04
778.265	361.47
778.447	345.08
778.629	390.14
778.811	394.23
778.993	314.36
779.175	277.5
779.357	355.32
779.539	334.84
779.721	279.55
779.903	369.66
780.085	361.47
780.267	295.93
780.449	390.14
780.631	254.97
780.812	308.22
780.994	291.84
781.176	414.71
781.358	273.4
781.54	224.25
781.721	302.08
781.903	297.98
782.085	195.58
782.267	273.4
782.448	263.16
782.63	240.64
782.812	281.6
782.993	312.32
783.175	332.79
783.357	287.74
783.538	263.16
783.72	302.08
783.901	279.55
784.083	244.73
784.264	304.12
784.446	308.22
784.627	226.3
784.809	289.79
784.99	218.11
785.172	265.21
785.353	281.6
785.535	220.16
785.716	263.16
785.897	252.92
786.079	211.96
786.26	250.88
786.441	308.22
786.623	222.2
786.804	281.6
786.985	125.95
787.167	240.64
787.348	283.64
787.529	242.68
787.71	222.2
787.891	265.21
788.073	183.29
788.254	166.91
788.435	185.34
788.616	238.59
788.797	211.96
788.978	171.01
789.159	191.49
789.34	173.05
789.522	228.35
789.703	224.25
789.884	236.54
790.065	240.64
790.246	164.86
790.427	152.57
790.607	142.33
790.788	209.92
790.969	173.05
791.15	154.62
791.331	187.39
791.512	252.92
791.693	175.1
791.874	224.25
792.054	265.21
792.235	209.92
792.416	191.49
792.597	160.77
792.778	164.86
792.958	115.71
793.139	113.66
793.32	207.87
793.5	164.86
793.681	220.16
793.862	193.53
794.042	199.68
794.223	211.96
794.404	166.91
794.584	95.23
794.765	181.25
794.945	181.25
795.126	138.24
795.306	132.09
795.487	191.49
795.667	162.81
795.848	171.01
796.028	203.77
796.209	199.68
796.389	191.49
796.57	164.86
796.75	130.05
796.93	168.96
797.111	199.68
797.291	148.48
797.471	191.49
797.652	97.28
797.832	140.29
798.012	142.33
798.192	177.15
798.373	136.19
798.553	99.33
798.733	150.53
798.913	166.91
799.093	175.1
799.274	162.81
799.454	171.01
799.634	189.44
799.814	158.72
799.994	166.91
800.174	173.05
800.354	138.24
800.534	156.67
800.714	138.24
800.894	164.86
801.074	160.77
801.254	162.81
801.434	166.91
801.614	171.01
801.794	123.9
801.974	416.76
802.154	164.86
802.334	99.33
802.514	107.52
802.693	144.38
802.873	128
803.053	87.04
803.233	97.28
803.413	171.01
803.592	130.05
803.772	97.28
803.952	128
804.131	183.29
804.311	99.33
804.491	78.85
804.67	72.7
804.85	84.99
805.03	140.29
805.209	97.28
805.389	101.37
805.568	136.19
805.748	123.9
805.928	103.42
806.107	113.66
806.287	179.2
806.466	107.52
806.646	117.76
806.825	101.37
807.004	142.33
807.184	162.81
807.363	58.37
807.543	177.15
807.722	95.23
807.901	123.9
808.081	134.14
808.26	82.94
808.439	109.57
808.619	111.61
808.798	82.94
808.977	130.05
809.156	130.05
809.336	62.46
809.515	179.2
809.694	136.19
809.873	84.99
810.052	66.56
810.231	164.86
810.411	111.61
810.59	142.33
810.769	52.22
810.948	80.89
811.127	113.66
811.306	48.13
811.485	142.33
811.664	99.33
811.843	97.28
812.022	150.53
812.201	130.05
812.38	84.99
812.559	156.67
812.737	134.14
812.916	64.51
813.095	148.48
813.274	72.7
813.453	33.79
813.632	117.76
813.811	160.77
813.989	95.23
814.168	58.37
814.347	66.56
814.526	134.14
814.704	128
814.883	162.81
815.062	7.17
815.24	150.53
815.419	87.04
815.598	76.8
815.776	84.99
815.955	97.28
816.133	-9.22
816.312	123.9
816.49	62.46
816.669	62.46
816.847	72.7
817.026	74.75
817.204	119.81
817.383	39.94
817.561	74.75
817.74	3.07
817.918	48.13
818.097	91.13
818.275	58.37
818.453	91.13
818.632	87.04
818.81	-31.74
818.988	93.18
819.167	113.66
819.345	97.28
819.523	56.32
819.701	111.61
819.879	111.61
820.058	74.75
820.236	115.71
820.414	80.89
820.592	117.76
820.77	109.57
820.948	48.13
821.127	17.41
821.305	15.36
821.483	7.17
821.661	105.47
821.839	117.76
822.017	60.42
822.195	113.66
822.373	142.33
822.551	80.89
822.729	134.14
822.907	58.37
823.085	107.52
823.262	91.13
823.44	111.61
823.618	56.32
823.796	17.41
823.974	66.56
824.152	19.46
824.329	29.7
824.507	56.32
824.685	113.66
824.863	56.32
825.04	105.47
825.218	105.47
825.396	37.89
825.574	87.04
825.751	60.42
825.929	82.94
826.107	107.52
826.284	105.47
826.462	46.08
826.639	68.61
826.817	87.04
826.994	39.94
827.172	35.84
827.349	95.23
827.527	48.13
827.704	39.94
827.882	93.18
828.059	105.47
828.237	80.89
828.414	113.66
828.591	27.65
828.769	76.8
828.946	113.66
829.124	156.67
829.301	107.52
829.478	56.32
829.655	-3.07
829.833	58.37
830.01	80.89
830.187	138.24
830.364	13.31
830.542	89.09
830.719	48.13
830.896	115.71
831.073	15.36
831.25	134.14
831.427	97.28
831.604	82.94
831.782	107.52
831.959	44.03
832.136	60.42
832.313	89.09
832.49	31.74
832.667	3.07
832.844	105.47
833.021	105.47
833.198	111.61
833.374	56.32
833.551	91.13
833.728	52.22
833.905	64.51
834.082	95.23
834.259	27.65
834.436	78.85
834.612	27.65
834.789	103.42
834.966	-5.12
835.143	72.7
835.319	-17.41
835.496	25.6
835.673	-11.26
835.85	44.03
836.026	48.13
836.203	64.51
836.38	1.02
836.556	13.31
836.733	66.56
836.909	91.13
837.086	60.42
837.262	25.6
837.439	99.33
837.616	91.13
837.792	60.42
837.968	48.13
838.145	-11.26
838.321	72.7
838.498	70.65
838.674	68.61
838.851	33.79
839.027	68.61
839.203	29.7
839.38	70.65
839.556	52.22
839.732	41.98
839.909	19.46
840.085	117.76
840.261	54.27
840.437	15.36
840.614	93.18
840.79	125.95
840.966	13.31
841.142	162.81
841.318	62.46
841.494	82.94
841.671	48.13
841.847	89.09
842.023	97.28
842.199	117.76
842.375	70.65
842.551	19.46
842.727	-3.07
842.903	60.42
843.079	35.84
843.255	52.22
843.431	99.33
843.607	64.51
843.783	3.07
843.959	82.94
844.134	-11.26
844.31	25.6
844.486	41.98
844.662	56.32
844.838	31.74
845.013	62.46
845.189	9.22
845.365	5.12
845.541	62.46
845.716	21.5
845.892	31.74
846.068	39.94
846.244	68.61
846.419	-31.74
846.595	-29.7
846.77	91.13
846.946	11.26
847.122	50.18
847.297	37.89
847.473	97.28
847.648	107.52
847.824	25.6
847.999	23.55
848.175	-5.12
848.35	56.32
848.526	107.52
848.701	-35.84
848.876	44.03
849.052	115.71
849.227	41.98
849.403	60.42
849.578	101.37
849.753	52.22
849.929	33.79
850.104	117.76
850.279	50.18
850.454	-17.41
850.63	84.99
850.805	25.6
850.98	-21.5
851.155	-1.02
851.33	33.79
851.505	54.27
851.681	138.24
851.856	44.03
852.031	7.17
852.206	62.46
852.381	33.79
852.556	7.17
852.731	48.13
852.906	64.51
853.081	107.52
853.256	23.55
853.431	41.98
853.606	56.32
853.781	-7.17
853.956	-25.6
854.131	64.51
854.305	1.02
854.48	-31.74
854.655	-39.94
854.83	15.36
855.005	25.6
855.18	-25.6
855.354	-23.55
855.529	136.19
855.704	17.41
855.879	115.71
856.053	46.08
856.228	35.84
856.403	13.31
856.577	5.12
856.752	-15.36
856.926	1.02
857.101	-23.55
857.276	15.36
857.45	27.65
857.625	-7.17
857.799	44.03
857.974	82.94
858.148	25.6
858.323	1.02
858.497	52.22
858.672	35.84
858.846	-23.55
859.02	97.28
859.195	35.84
859.369	15.36
859.543	-17.41
859.718	15.36
859.892	13.31
860.066	64.51
860.241	17.41
860.415	27.65
860.589	-1.02
860.763	60.42
860.938	70.65
861.112	21.5
861.286	37.89
861.46	-9.22
861.634	-44.03
861.808	89.09
861.982	-19.46
862.157	-41.98
862.331	60.42
862.505	9.22
862.679	29.7
862.853	50.18
863.027	31.74
863.201	-9.22
863.375	72.7
863.549	-39.94
863.722	56.32
863.896	-39.94
864.07	50.18
864.244	-23.55
864.418	46.08
864.592	11.26
864.766	60.42
864.939	74.75
865.113	-56.32
865.287	87.04
865.461	-5.12
865.634	91.13
865.808	-15.36
865.982	33.79
866.156	1.02
866.329	27.65
866.503	5.12
866.676	5.12
866.85	1.02
867.024	52.22
867.197	-9.22
867.371	91.13
867.544	15.36
867.718	-11.26
867.891	21.5
868.065	60.42
868.238	-11.26
868.412	17.41
868.585	5.12
868.759	52.22
868.932	-44.03
869.105	66.56
869.279	21.5
869.452	-17.41
869.625	52.22
869.799	-39.94
869.972	-3.07
870.145	11.26
870.319	-72.7
870.492	17.41
870.665	44.03
870.838	-23.55
871.011	52.22
871.185	11.26
871.358	76.8
871.531	54.27
871.704	60.42
871.877	5.12
872.05	-5.12
872.223	23.55
872.396	72.7
872.569	37.89
872.742	-15.36
872.915	19.46
873.088	68.61
873.261	5.12
873.434	-21.5
873.607	103.42
873.78	-19.46
873.953	15.36
874.126	-13.31
874.299	93.18
874.471	99.33
874.644	21.5
874.817	50.18
874.99	19.46
875.163	87.04
875.335	107.52
875.508	21.5
875.681	50.18
875.853	39.94
876.026	27.65
876.199	13.31
876.371	23.55
876.544	5.12
876.717	31.74
876.889	52.22
877.062	1.02
877.234	9.22
877.407	7.17
877.579	41.98
877.752	27.65
877.924	31.74
878.097	23.55
878.269	29.7
878.442	-25.6
878.614	31.74
878.786	39.94
878.959	82.94
879.131	23.55
879.303	-37.89
879.476	13.31
879.648	15.36
879.82	93.18
879.993	37.89
880.165	82.94
880.337	56.32
880.509	15.36
880.681	1.02
880.854	-41.98
881.026	33.79
881.198	89.09
881.37	19.46
881.542	31.74
881.714	-17.41
881.886	31.74
882.058	31.74
882.23	39.94
882.402	99.33
882.574	27.65
882.746	93.18
882.918	39.94
883.09	46.08
883.262	31.74
883.434	31.74
883.606	11.26
883.778	7.17
883.95	48.13
884.122	21.5
884.293	19.46
884.465	-19.46
884.637	-3.07
884.809	101.37
884.98	21.5
885.152	-5.12
885.324	17.41
885.496	-21.5
885.667	7.17
885.839	41.98
886.011	44.03
886.182	70.65
886.354	89.09
886.525	9.22
886.697	25.6
886.869	-27.65
887.04	62.46
887.212	-23.55
887.383	48.13
887.555	9.22
887.726	54.27
887.897	-37.89
888.069	44.03
888.24	3.07
888.412	52.22
888.583	-60.42
888.754	37.89
888.926	27.65
889.097	66.56
889.268	-13.31
889.44	3.07
889.611	21.5
889.782	15.36
889.953	113.66
890.125	115.71
890.296	17.41
890.467	7.17
890.638	46.08
890.809	66.56
890.98	-23.55
891.151	-9.22
891.323	37.89
891.494	95.23
891.665	54.27
891.836	-3.07
892.007	-93.18
892.178	15.36
892.349	31.74
892.52	37.89
892.691	-9.22
892.862	-25.6
893.032	7.17
893.203	76.8
893.374	54.27
893.545	93.18
893.716	50.18
893.887	-39.94
894.057	-15.36
894.228	82.94
894.399	7.17
894.57	134.14
894.74	25.6
894.911	56.32
895.082	35.84
895.253	-11.26
895.423	64.51
895.594	15.36
895.764	9.22
895.935	-13.31
896.106	19.46
896.276	76.8
896.447	132.09
896.617	33.79
896.788	-33.79
896.958	48.13
897.129	21.5
897.299	3.07
897.47	64.51
897.64	44.03
897.81	-9.22
897.981	31.74
898.151	-68.61
898.322	128
898.492	-54.27
898.662	46.08
898.832	5.12
899.003	23.55
899.173	19.46
899.343	50.18
899.513	41.98
