Data from USB4F104151__100__12-54-59-767.txt Node

Date: Fri Mar 14 12:54:59 EDT 2025
User: louis
Spectrometer: USB4F10415
Trigger mode: 4
Integration Time (sec): 1.000000E-2
Scans to average: 1
Electric dark correction enabled: true
Nonlinearity correction enabled: false
Boxcar width: 0
XAxis mode: Wavelengths
Number of Pixels in Spectrum: 3648
>>>>>Begin Spectral Data<<<<<
178.204	-78.33
178.424	-78.33
178.644	-78.33
178.864	-31.23
179.084	-41.47
179.304	-4.61
179.524	-35.33
179.744	17.92
179.964	44.54
180.184	-18.94
180.404	-8.7
180.624	-43.52
180.844	83.45
181.064	-29.18
181.283	-8.7
181.503	-10.75
181.723	13.82
181.943	-8.7
182.163	13.82
182.383	15.87
182.602	-39.42
182.822	3.58
183.042	-37.38
183.262	-10.75
183.482	36.35
183.701	-20.99
183.921	28.16
184.141	-27.14
184.361	-6.66
184.58	-45.57
184.8	65.02
185.02	58.88
185.239	-27.14
185.459	15.87
185.679	-27.14
185.898	-47.62
186.118	-0.51
186.338	3.58
186.557	24.06
186.777	-6.66
186.997	48.64
187.216	-2.56
187.436	-18.94
187.655	-49.66
187.875	-29.18
188.095	-29.18
188.314	71.17
188.534	32.26
188.753	9.73
188.973	-10.75
189.192	13.82
189.412	42.5
189.631	83.45
189.851	-8.7
190.07	75.26
190.29	-33.28
190.509	1.54
190.729	-2.56
190.948	-0.51
191.168	-0.51
191.387	9.73
191.607	28.16
191.826	-4.61
192.045	77.31
192.265	46.59
192.484	24.06
192.704	-33.28
192.923	-76.29
193.142	9.73
193.362	7.68
193.581	87.55
193.8	58.88
194.02	81.41
194.239	17.92
194.458	52.74
194.678	1.54
194.897	-31.23
195.116	24.06
195.335	-29.18
195.555	-29.18
195.774	-29.18
195.993	32.26
196.212	-55.81
196.432	-78.33
196.651	-6.66
196.87	44.54
197.089	-33.28
197.308	-16.9
197.528	1.54
197.747	-6.66
197.966	32.26
198.185	-20.99
198.404	-23.04
198.623	-20.99
198.842	5.63
199.062	-45.57
199.281	-27.14
199.5	-29.18
199.719	5.63
199.938	19.97
200.157	9.73
200.376	-16.9
200.595	30.21
200.814	5.63
201.033	-29.18
201.252	28.16
201.471	24.06
201.69	46.59
201.909	-6.66
202.128	-16.9
202.347	97.79
202.566	-8.7
202.785	52.74
203.004	-31.23
203.223	-29.18
203.442	24.06
203.661	42.5
203.879	-12.8
204.098	26.11
204.317	-4.61
204.536	32.26
204.755	-41.47
204.974	1.54
205.193	62.98
205.411	-8.7
205.63	69.12
205.849	-31.23
206.068	-2.56
206.287	-33.28
206.505	67.07
206.724	-66.05
206.943	-25.09
207.162	-20.99
207.381	-0.51
207.599	81.41
207.818	1.54
208.037	-10.75
208.255	-6.66
208.474	-29.18
208.693	-0.51
208.911	-20.99
209.13	-18.94
209.349	77.31
209.567	-12.8
209.786	-14.85
210.005	95.74
210.223	-33.28
210.442	-41.47
210.661	-10.75
210.879	-43.52
211.098	-18.94
211.316	-20.99
211.535	-82.43
211.753	50.69
211.972	15.87
212.191	13.82
212.409	-4.61
212.628	13.82
212.846	1.54
213.065	-12.8
213.283	-39.42
213.502	17.92
213.72	5.63
213.938	17.92
214.157	15.87
214.375	15.87
214.594	-12.8
214.812	-2.56
215.031	62.98
215.249	-18.94
215.467	-92.67
215.686	-8.7
215.904	-23.04
216.122	-27.14
216.341	-51.71
216.559	-41.47
216.778	28.16
216.996	-0.51
217.214	3.58
217.432	3.58
217.651	44.54
217.869	-47.62
218.087	-12.8
218.306	9.73
218.524	17.92
218.742	-51.71
218.96	52.74
219.179	36.35
219.397	11.78
219.615	-18.94
219.833	-61.95
220.051	30.21
220.27	-39.42
220.488	-18.94
220.706	54.78
220.924	5.63
221.142	34.3
221.36	15.87
221.578	19.97
221.796	-33.28
222.015	-10.75
222.233	-18.94
222.451	-10.75
222.669	-14.85
222.887	-8.7
223.105	-10.75
223.323	-6.66
223.541	7.68
223.759	30.21
223.977	15.87
224.195	-31.23
224.413	56.83
224.631	9.73
224.849	3.58
225.067	32.26
225.285	67.07
225.503	15.87
225.721	13.82
225.939	28.16
226.157	50.69
226.375	13.82
226.592	-4.61
226.81	-6.66
227.028	30.21
227.246	89.6
227.464	-59.9
227.682	-0.51
227.9	-6.66
228.117	17.92
228.335	-35.33
228.553	26.11
228.771	-16.9
228.989	17.92
229.206	-18.94
229.424	-33.28
229.642	26.11
229.86	26.11
230.077	-57.86
230.295	40.45
230.513	7.68
230.731	13.82
230.948	48.64
231.166	60.93
231.384	44.54
231.601	-31.23
231.819	1.54
232.037	15.87
232.254	-16.9
232.472	-0.51
232.689	-59.9
232.907	9.73
233.125	-39.42
233.342	-2.56
233.56	28.16
233.777	42.5
233.995	-0.51
234.213	42.5
234.43	1.54
234.648	24.06
234.865	-4.61
235.083	24.06
235.3	-64
235.518	28.16
235.735	54.78
235.953	58.88
236.17	15.87
236.388	3.58
236.605	-35.33
236.822	36.35
237.04	36.35
237.257	-35.33
237.475	-68.09
237.692	-8.7
237.909	-10.75
238.127	15.87
238.344	13.82
238.562	-25.09
238.779	-43.52
238.996	-31.23
239.214	-2.56
239.431	36.35
239.648	-31.23
239.865	32.26
240.083	13.82
240.3	32.26
240.517	75.26
240.735	-20.99
240.952	34.3
241.169	9.73
241.386	24.06
241.603	73.21
241.821	-20.99
242.038	48.64
242.255	-53.76
242.472	7.68
242.689	89.6
242.907	-35.33
243.124	1.54
243.341	3.58
243.558	38.4
243.775	116.22
243.992	-14.85
244.209	-6.66
244.426	-8.7
244.643	22.02
244.86	3.58
245.078	110.08
245.295	30.21
245.512	52.74
245.729	5.63
245.946	-23.04
246.163	-72.19
246.38	-2.56
246.597	24.06
246.814	69.12
247.031	54.78
247.248	-8.7
247.464	50.69
247.681	-4.61
247.898	36.35
248.115	13.82
248.332	-20.99
248.549	83.45
248.766	3.58
248.983	52.74
249.2	75.26
249.417	30.21
249.633	42.5
249.85	3.58
250.067	-61.95
250.284	3.58
250.501	-18.94
250.717	24.06
250.934	13.82
251.151	7.68
251.368	7.68
251.585	32.26
251.801	30.21
252.018	-61.95
252.235	28.16
252.451	40.45
252.668	-12.8
252.885	-2.56
253.102	13.82
253.318	17.92
253.535	-4.61
253.752	28.16
253.968	-25.09
254.185	19.97
254.401	-39.42
254.618	-59.9
254.835	26.11
255.051	50.69
255.268	-12.8
255.484	24.06
255.701	28.16
255.917	-35.33
256.134	-43.52
256.351	-12.8
256.567	-66.05
256.784	15.87
257	24.06
257.217	34.3
257.433	-14.85
257.65	19.97
257.866	36.35
258.082	-20.99
258.299	3.58
258.515	22.02
258.732	5.63
258.948	-6.66
259.165	1.54
259.381	24.06
259.597	22.02
259.814	-2.56
260.03	-0.51
260.246	15.87
260.463	-47.62
260.679	5.63
260.895	34.3
261.112	-35.33
261.328	17.92
261.544	-25.09
261.761	65.02
261.977	3.58
262.193	19.97
262.409	7.68
262.626	50.69
262.842	-37.38
263.058	-20.99
263.274	-18.94
263.49	38.4
263.707	-66.05
263.923	11.78
264.139	-55.81
264.355	44.54
264.571	36.35
264.787	-4.61
265.004	65.02
265.22	-12.8
265.436	9.73
265.652	42.5
265.868	7.68
266.084	65.02
266.3	54.78
266.516	-55.81
266.732	54.78
266.948	26.11
267.164	-4.61
267.38	19.97
267.596	73.21
267.812	50.69
268.028	-14.85
268.244	-47.62
268.46	-72.19
268.676	62.98
268.892	26.11
269.108	-35.33
269.324	-35.33
269.54	52.74
269.756	17.92
269.972	-49.66
270.188	-0.51
270.403	-8.7
270.619	-16.9
270.835	30.21
271.051	-47.62
271.267	-25.09
271.483	91.65
271.698	28.16
271.914	46.59
272.13	-18.94
272.346	-33.28
272.562	26.11
272.777	-53.76
272.993	-29.18
273.209	-20.99
273.425	-31.23
273.64	40.45
273.856	32.26
274.072	-39.42
274.287	-4.61
274.503	-2.56
274.719	24.06
274.934	-14.85
275.15	-37.38
275.366	-16.9
275.581	24.06
275.797	7.68
276.012	42.5
276.228	-74.24
276.444	32.26
276.659	26.11
276.875	-25.09
277.09	15.87
277.306	-12.8
277.521	-12.8
277.737	65.02
277.952	-6.66
278.168	9.73
278.383	-12.8
278.599	85.5
278.814	-8.7
279.03	-49.66
279.245	-33.28
279.461	69.12
279.676	19.97
279.892	38.4
280.107	3.58
280.322	1.54
280.538	36.35
280.753	-70.14
280.969	15.87
281.184	22.02
281.399	38.4
281.615	-18.94
281.83	-16.9
282.045	-8.7
282.26	32.26
282.476	-51.71
282.691	7.68
282.906	24.06
283.122	11.78
283.337	5.63
283.552	46.59
283.767	-8.7
283.983	46.59
284.198	22.02
284.413	32.26
284.628	-41.47
284.843	42.5
285.058	-43.52
285.274	-10.75
285.489	38.4
285.704	60.93
285.919	-8.7
286.134	54.78
286.349	7.68
286.564	22.02
286.779	26.11
286.995	-2.56
287.21	-8.7
287.425	28.16
287.64	-12.8
287.855	3.58
288.07	28.16
288.285	34.3
288.5	-10.75
288.715	-33.28
288.93	11.78
289.145	-45.57
289.36	9.73
289.575	-16.9
289.79	9.73
290.004	42.5
290.219	7.68
290.434	36.35
290.649	19.97
290.864	-43.52
291.079	-41.47
291.294	71.17
291.509	-35.33
291.724	26.11
291.938	5.63
292.153	-14.85
292.368	5.63
292.583	30.21
292.798	3.58
293.012	62.98
293.227	73.21
293.442	40.45
293.657	-10.75
293.871	9.73
294.086	30.21
294.301	-4.61
294.516	-2.56
294.73	-12.8
294.945	-8.7
295.16	7.68
295.374	7.68
295.589	-8.7
295.804	32.26
296.018	-64
296.233	-2.56
296.447	40.45
296.662	-90.62
296.877	32.26
297.091	36.35
297.306	-41.47
297.52	1.54
297.735	46.59
297.949	-29.18
298.164	-12.8
298.378	-41.47
298.593	-16.9
298.807	24.06
299.022	-68.09
299.236	-23.04
299.451	28.16
299.665	-43.52
299.88	38.4
300.094	-18.94
300.309	26.11
300.523	54.78
300.737	32.26
300.952	-45.57
301.166	44.54
301.381	-18.94
301.595	-0.51
301.809	36.35
302.024	11.78
302.238	-49.66
302.452	34.3
302.667	-10.75
302.881	28.16
303.095	7.68
303.309	71.17
303.524	-41.47
303.738	-25.09
303.952	-16.9
304.166	-64
304.381	-64
304.595	65.02
304.809	46.59
305.023	22.02
305.237	-16.9
305.452	-41.47
305.666	3.58
305.88	38.4
306.094	-41.47
306.308	3.58
306.522	44.54
306.736	40.45
306.95	-31.23
307.164	56.83
307.379	67.07
307.593	77.31
307.807	24.06
308.021	13.82
308.235	-43.52
308.449	-0.51
308.663	40.45
308.877	112.13
309.091	15.87
309.305	-0.51
309.519	71.17
309.733	-27.14
309.947	9.73
310.161	-12.8
310.374	3.58
310.588	44.54
310.802	22.02
311.016	26.11
311.23	17.92
311.444	-25.09
311.658	62.98
311.872	58.88
312.085	7.68
312.299	32.26
312.513	26.11
312.727	56.83
312.941	-70.14
313.154	58.88
313.368	-39.42
313.582	3.58
313.796	-27.14
314.009	44.54
314.223	22.02
314.437	3.58
314.651	15.87
314.864	-74.24
315.078	1.54
315.292	-16.9
315.505	9.73
315.719	-16.9
315.933	34.3
316.146	17.92
316.36	15.87
316.573	112.13
316.787	42.5
317.001	19.97
317.214	-0.51
317.428	42.5
317.641	-82.43
317.855	9.73
318.068	-66.05
318.282	-8.7
318.495	26.11
318.709	81.41
318.922	30.21
319.136	-45.57
319.349	71.17
319.563	-12.8
319.776	32.26
319.99	-64
320.203	19.97
320.417	-4.61
320.63	-4.61
320.843	60.93
321.057	-18.94
321.27	-27.14
321.483	5.63
321.697	50.69
321.91	3.58
322.124	-20.99
322.337	-14.85
322.55	-45.57
322.763	34.3
322.977	-72.19
323.19	-4.61
323.403	-6.66
323.617	54.78
323.83	-12.8
324.043	-61.95
324.256	17.92
324.469	17.92
324.683	-66.05
324.896	-43.52
325.109	-6.66
325.322	-88.57
325.535	32.26
325.748	-20.99
325.962	-0.51
326.175	-35.33
326.388	56.83
326.601	11.78
326.814	99.84
327.027	-47.62
327.24	56.83
327.453	44.54
327.666	-53.76
327.879	34.3
328.092	-2.56
328.305	9.73
328.518	-10.75
328.731	-18.94
328.944	-41.47
329.157	28.16
329.37	48.64
329.583	24.06
329.796	42.5
330.009	3.58
330.222	9.73
330.435	75.26
330.648	-14.85
330.861	71.17
331.073	38.4
331.286	56.83
331.499	30.21
331.712	15.87
331.925	87.55
332.138	54.78
332.35	24.06
332.563	-43.52
332.776	19.97
332.989	26.11
333.202	-16.9
333.414	22.02
333.627	54.78
333.84	-4.61
334.053	-0.51
334.265	24.06
334.478	24.06
334.691	9.73
334.903	-41.47
335.116	-20.99
335.329	3.58
335.541	-10.75
335.754	1.54
335.966	-0.51
336.179	65.02
336.392	17.92
336.604	-16.9
336.817	24.06
337.029	62.98
337.242	-49.66
337.454	-33.28
337.667	-0.51
337.88	-45.57
338.092	-41.47
338.305	26.11
338.517	-31.23
338.729	13.82
338.942	-4.61
339.154	36.35
339.367	9.73
339.579	17.92
339.792	3.58
340.004	15.87
340.217	15.87
340.429	-51.71
340.641	-20.99
340.854	-20.99
341.066	26.11
341.278	-6.66
341.491	50.69
341.703	-6.66
341.915	-25.09
342.128	7.68
342.34	-27.14
342.552	19.97
342.764	-33.28
342.977	-31.23
343.189	-10.75
343.401	65.02
343.613	-43.52
343.826	32.26
344.038	-0.51
344.25	11.78
344.462	7.68
344.674	7.68
344.886	36.35
345.099	13.82
345.311	22.02
345.523	50.69
345.735	-12.8
345.947	11.78
346.159	24.06
346.371	-10.75
346.583	-2.56
346.795	54.78
347.007	-29.18
347.219	34.3
347.431	-16.9
347.643	69.12
347.855	52.74
348.067	62.98
348.279	-18.94
348.491	9.73
348.703	13.82
348.915	30.21
349.127	19.97
349.339	7.68
349.551	-18.94
349.763	97.79
349.975	54.78
350.187	44.54
350.399	-10.75
350.61	22.02
350.822	38.4
351.034	-27.14
351.246	-8.7
351.458	40.45
351.669	-4.61
351.881	19.97
352.093	67.07
352.305	5.63
352.517	-18.94
352.728	24.06
352.94	-2.56
353.152	38.4
353.363	-37.38
353.575	30.21
353.787	34.3
353.999	-55.81
354.21	13.82
354.422	-41.47
354.633	-35.33
354.845	19.97
355.057	58.88
355.268	103.93
355.48	5.63
355.692	-35.33
355.903	-35.33
356.115	-113.15
356.326	-35.33
356.538	19.97
356.749	-12.8
356.961	81.41
357.172	36.35
357.384	-6.66
357.595	13.82
357.807	-4.61
358.018	-45.57
358.23	99.84
358.441	34.3
358.653	19.97
358.864	19.97
359.075	40.45
359.287	28.16
359.498	46.59
359.709	73.21
359.921	34.3
360.132	19.97
360.344	79.36
360.555	30.21
360.766	17.92
360.977	5.63
361.189	52.74
361.4	-6.66
361.611	87.55
361.823	7.68
362.034	-6.66
362.245	-25.09
362.456	5.63
362.667	5.63
362.879	7.68
363.09	-14.85
363.301	22.02
363.512	-23.04
363.723	24.06
363.935	32.26
364.146	-12.8
364.357	15.87
364.568	-29.18
364.779	34.3
364.99	32.26
365.201	-31.23
365.412	42.5
365.623	-127.49
365.834	36.35
366.045	24.06
366.256	58.88
366.467	54.78
366.678	-31.23
366.889	30.21
367.1	58.88
367.311	36.35
367.522	-29.18
367.733	40.45
367.944	-47.62
368.155	40.45
368.366	-55.81
368.577	-55.81
368.788	38.4
368.999	-47.62
369.209	19.97
369.42	34.3
369.631	-14.85
369.842	17.92
370.053	56.83
370.264	54.78
370.474	36.35
370.685	52.74
370.896	-4.61
371.107	-31.23
371.317	28.16
371.528	30.21
371.739	7.68
371.95	-74.24
372.16	40.45
372.371	24.06
372.582	-72.19
372.792	-84.48
373.003	9.73
373.214	-8.7
373.424	5.63
373.635	32.26
373.846	46.59
374.056	11.78
374.267	60.93
374.477	40.45
374.688	-12.8
374.898	108.03
375.109	-8.7
375.319	13.82
375.53	-14.85
375.74	-2.56
375.951	-10.75
376.161	9.73
376.372	65.02
376.582	42.5
376.793	38.4
377.003	-29.18
377.214	44.54
377.424	15.87
377.635	-14.85
377.845	67.07
378.055	22.02
378.266	32.26
378.476	99.84
378.686	13.82
378.897	-104.96
379.107	11.78
379.317	85.5
379.528	-20.99
379.738	13.82
379.948	34.3
380.158	26.11
380.369	85.5
380.579	114.17
380.789	-6.66
380.999	50.69
381.21	22.02
381.42	36.35
381.63	-8.7
381.84	48.64
382.05	28.16
382.261	5.63
382.471	-10.75
382.681	79.36
382.891	7.68
383.101	-25.09
383.311	-8.7
383.521	26.11
383.731	-64
383.941	9.73
384.151	15.87
384.361	46.59
384.571	11.78
384.781	-2.56
384.991	-0.51
385.201	85.5
385.411	17.92
385.621	26.11
385.831	-16.9
386.041	-8.7
386.251	1.54
386.461	40.45
386.671	-6.66
386.881	-43.52
387.091	17.92
387.301	73.21
387.511	-2.56
387.72	40.45
387.93	5.63
388.14	26.11
388.35	-16.9
388.56	9.73
388.769	34.3
388.979	-0.51
389.189	-8.7
389.399	28.16
389.609	-27.14
389.818	42.5
390.028	97.79
390.238	120.32
390.447	62.98
390.657	9.73
390.867	-31.23
391.076	9.73
391.286	-53.76
391.496	1.54
391.705	17.92
391.915	26.11
392.125	11.78
392.334	89.6
392.544	83.45
392.753	56.83
392.963	-0.51
393.172	65.02
393.382	-12.8
393.591	-12.8
393.801	46.59
394.01	17.92
394.22	-27.14
394.429	40.45
394.639	54.78
394.848	77.31
395.058	79.36
395.267	-0.51
395.477	11.78
395.686	48.64
395.895	32.26
396.105	30.21
396.314	19.97
396.524	52.74
396.733	-0.51
396.942	81.41
397.152	-14.85
397.361	26.11
397.57	-6.66
397.78	58.88
397.989	34.3
398.198	114.17
398.407	-33.28
398.617	58.88
398.826	40.45
399.035	46.59
399.244	5.63
399.453	128.51
399.663	112.13
399.872	9.73
400.081	36.35
400.29	28.16
400.499	54.78
400.708	30.21
400.917	22.02
401.127	28.16
401.336	15.87
401.545	34.3
401.754	19.97
401.963	65.02
402.172	-2.56
402.381	7.68
402.59	46.59
402.799	44.54
403.008	-20.99
403.217	-16.9
403.426	118.27
403.635	40.45
403.844	9.73
404.053	19.97
404.262	58.88
404.471	69.12
404.68	48.64
404.888	62.98
405.097	-0.51
405.306	65.02
405.515	32.26
405.724	50.69
405.933	3.58
406.142	67.07
406.35	5.63
406.559	36.35
406.768	34.3
406.977	89.6
407.185	89.6
407.394	101.89
407.603	69.12
407.812	112.13
408.02	132.61
408.229	26.11
408.438	79.36
408.646	67.07
408.855	99.84
409.064	75.26
409.272	54.78
409.481	105.98
409.69	65.02
409.898	157.18
410.107	75.26
410.315	142.85
410.524	73.21
410.733	85.5
410.941	122.37
411.15	124.41
411.358	122.37
411.567	114.17
411.775	198.14
411.984	163.33
412.192	105.98
412.401	93.69
412.609	187.9
412.818	105.98
413.026	134.65
413.234	128.51
413.443	140.8
413.651	132.61
413.86	185.85
414.068	130.56
414.276	155.13
414.485	165.37
414.693	204.28
414.901	163.33
415.11	148.99
415.318	196.09
415.526	198.14
415.734	255.48
415.943	288.25
416.151	302.59
416.359	235
416.567	347.64
416.776	337.4
416.984	269.82
417.192	306.68
417.4	247.29
417.608	282.11
417.817	323.07
418.025	327.16
418.233	308.73
418.441	261.63
418.649	425.47
418.857	433.66
419.065	425.47
419.273	376.31
419.481	456.19
419.689	441.85
419.897	454.14
420.105	474.62
420.313	468.47
420.521	462.33
420.729	515.58
420.937	552.44
421.145	568.82
421.353	523.77
421.561	636.41
421.769	679.41
421.977	611.83
422.185	679.41
422.393	730.61
422.601	753.14
422.809	632.31
423.017	761.33
423.224	753.14
423.432	681.46
423.64	734.71
423.848	828.92
424.056	765.43
424.263	902.64
424.471	886.26
424.679	945.65
424.887	933.36
425.094	914.93
425.302	988.66
425.51	1074.67
425.718	1089.01
425.925	1070.58
426.133	1115.63
426.341	1117.68
426.548	1269.23
426.756	1199.6
426.964	1269.23
427.171	1359.34
427.379	1369.58
427.586	1426.92
427.794	1474.03
428.001	1418.73
428.209	1547.75
428.417	1598.95
428.624	1629.67
428.832	1625.58
429.039	1557.99
429.247	1578.47
429.454	1785.32
429.662	1820.13
429.869	1826.28
430.076	1879.52
430.284	1852.9
430.491	1857
430.699	2020.83
430.906	2112.99
431.114	1977.83
431.321	2076.13
431.528	2110.94
431.736	2211.29
431.943	2436.57
432.15	2387.42
432.358	2266.59
432.565	2412
432.772	2432.47
432.979	2616.79
433.187	2655.7
433.394	2645.46
433.601	2827.73
433.808	2934.23
434.016	2926.04
434.223	2887.12
434.43	3216.85
434.637	2964.95
434.844	3356.11
435.052	3366.35
435.259	3333.58
435.466	3423.69
435.673	3329.49
435.88	3597.77
436.087	3665.35
436.294	3773.89
436.501	3638.73
436.708	3757.51
436.915	3925.44
437.122	4054.47
437.329	3894.72
437.537	4193.73
437.743	4285.89
437.95	4050.37
438.157	4269.5
438.364	4560.31
438.571	4545.98
438.778	4601.27
438.985	4976.05
439.192	4709.82
439.399	4900.28
439.606	4877.75
439.813	5135.79
440.02	5363.12
440.227	5275.06
440.433	5211.57
440.64	5520.81
440.847	5344.69
441.054	5676.46
441.261	5840.29
441.467	5891.49
441.674	6018.47
441.881	6249.89
442.088	6296.99
442.294	6188.45
442.501	6407.58
442.708	6458.78
442.914	6677.91
443.121	6946.2
443.328	6811.03
443.534	7171.47
443.741	7058.84
443.948	7083.41
444.154	7415.18
444.361	7316.88
444.568	7443.85
444.774	7320.98
444.981	7468.43
445.187	7695.75
445.394	8048.01
445.6	8015.24
445.807	8799.61
446.013	8355.2
446.22	8631.68
446.426	8768.89
446.633	9059.7
446.839	9293.17
447.046	8836.47
447.252	9592.17
447.459	9414
447.665	9446.77
447.871	9868.65
448.078	10360.16
448.284	9772.39
448.491	10106.21
448.697	10206.56
448.903	10448.22
449.11	10706.27
449.316	10380.64
449.522	10511.71
449.728	10964.31
449.935	11140.44
450.141	11148.63
450.347	11353.43
450.553	10833.24
450.76	11072.86
450.966	11447.63
451.172	11375.95
451.378	11523.41
451.584	11410.77
451.791	11746.64
451.997	11664.72
452.203	11803.98
452.409	12051.78
452.615	11875.66
452.821	11402.58
453.027	11173.21
453.233	11789.64
453.44	11361.62
453.646	11453.78
453.852	11621.71
454.058	11760.97
454.264	11445.59
454.47	11572.56
454.676	11345.23
454.882	11681.1
455.088	10642.78
455.294	10843.48
455.5	11058.52
455.705	11015.51
455.911	10665.31
456.117	10409.31
456.323	10325.35
456.529	9911.66
456.735	10331.49
456.941	10059.11
457.147	9839.98
457.352	9407.86
457.558	9407.86
457.764	9438.58
457.97	9225.59
458.176	9108.85
458.381	8861.05
458.587	8740.22
458.793	8502.65
458.999	8074.63
459.204	8887.67
459.41	8412.54
459.616	7961.99
459.821	7863.69
460.027	7972.23
460.233	7554.44
460.438	7509.39
460.644	7509.39
460.85	7087.51
461.055	7021.97
461.261	7081.36
461.466	6399.39
461.672	6296.99
461.878	6577.56
462.083	6258.08
462.289	6196.64
462.494	6041
462.7	5799.34
462.905	5520.81
463.111	6071.72
463.316	5903.78
463.522	5762.47
463.727	5813.67
463.932	5629.35
464.138	5729.7
464.343	5709.22
464.549	5627.31
464.754	5660.07
464.959	5514.67
465.165	5766.57
465.37	5500.33
465.575	5230
465.781	5447.08
465.986	5584.3
466.191	5520.81
466.397	5094.83
466.602	5014.96
466.807	5293.49
467.012	5164.47
467.218	5154.23
467.423	5094.83
467.628	5111.22
467.833	5373.36
468.038	5053.87
468.244	4875.7
468.449	5270.96
468.654	5045.68
468.859	5037.49
469.064	4955.57
469.269	4744.63
469.474	4861.37
469.679	4836.79
469.885	4734.39
470.09	4775.35
470.295	4834.74
470.5	4507.07
470.705	4627.9
470.91	4636.09
471.115	4588.99
471.32	4562.36
471.525	4531.64
471.73	4582.84
471.935	4476.35
472.139	4320.7
472.344	4443.58
472.549	4310.46
472.754	4320.7
472.959	4228.54
473.164	4144.58
473.369	4113.86
473.574	4203.97
473.778	4214.21
473.983	3988.93
474.188	4191.68
474.393	3794.37
474.598	3880.39
474.802	3892.68
475.007	3847.62
475.212	3861.96
475.417	3724.74
475.621	3786.18
475.826	3608.01
476.031	3753.41
476.235	3603.91
476.44	3759.56
476.645	3536.33
476.849	3646.92
477.054	3567.05
477.259	3495.37
477.463	3491.27
477.668	3315.15
477.872	3534.28
478.077	3263.95
478.282	3278.29
478.486	3325.39
478.691	3288.53
478.895	3239.37
479.1	3276.24
479.304	3278.29
479.509	3118.54
479.713	3253.71
479.918	3096.02
480.122	3034.58
480.326	3130.83
480.531	3108.3
480.735	3122.64
480.94	3071.44
481.144	3237.33
481.348	2973.14
481.553	3034.58
481.757	3147.22
481.961	3003.86
482.166	2985.43
482.37	3112.4
482.574	2946.52
482.778	3028.43
482.983	3136.98
483.187	3071.44
483.391	3108.3
483.595	3116.5
483.8	3038.67
484.004	3042.77
484.208	2794.97
484.412	3120.59
484.616	3067.35
484.821	2989.52
485.025	2885.08
485.229	3153.36
485.433	2942.42
485.637	2917.84
485.841	2807.25
486.045	3055.06
486.249	3014.1
486.453	2969.04
486.657	2915.8
486.861	3071.44
487.065	2911.7
487.269	3010
487.473	3063.25
487.677	3155.41
487.881	3042.77
488.085	2999.76
488.289	3136.98
488.493	3038.67
488.697	3005.91
488.901	3155.41
489.105	3061.2
489.309	3096.02
489.512	3069.39
489.716	2952.66
489.92	3173.84
490.124	2993.62
490.328	3139.02
490.531	3061.2
490.735	3120.59
490.939	3194.32
491.143	3155.41
491.346	3136.98
491.55	3194.32
491.754	3149.26
491.958	3186.13
492.161	3186.13
492.365	3161.55
492.569	3136.98
492.772	3306.96
492.976	3259.85
493.18	3194.32
493.383	3304.91
493.587	3329.49
493.79	3333.58
493.994	3229.13
494.197	3313.1
494.401	3333.58
494.605	3300.81
494.808	3431.88
495.012	3345.87
495.215	3360.2
495.419	3499.47
495.622	3417.55
495.825	3626.44
496.029	3532.23
496.232	3575.24
496.436	3659.21
496.639	3728.84
496.843	3808.71
497.046	3767.75
497.249	3958.21
497.453	3859.91
497.656	3886.53
497.859	4003.27
498.063	3861.96
498.266	3935.68
498.469	3827.14
498.673	3888.58
498.876	4154.82
499.079	4089.28
499.282	4175.3
499.485	4255.17
499.689	4300.22
499.892	4382.14
500.095	4451.77
500.298	4363.71
500.501	4390.33
500.705	4496.83
500.908	4619.71
501.111	4609.47
501.314	4660.66
501.517	4652.47
501.72	4832.69
501.923	4718.01
502.126	4806.07
502.329	4924.85
502.532	4871.61
502.735	4971.96
502.938	5092.79
503.141	5127.6
503.344	5168.56
503.547	5260.72
503.75	5227.95
503.953	5203.38
504.156	5307.82
504.359	5502.38
504.562	5481.9
504.765	5594.54
504.968	5606.83
505.17	5729.7
505.373	5774.76
505.576	5770.66
505.779	6041
505.982	5787.05
506.185	6038.95
506.387	6088.1
506.59	6129.06
506.793	6196.64
506.996	6116.77
507.198	6454.69
507.401	6327.71
507.604	6303.14
507.807	6639
508.009	6440.35
508.212	6600.09
508.415	6542.75
508.617	6808.98
508.82	6929.81
509.022	6749.59
509.225	7079.32
509.428	7093.65
509.63	6972.82
509.833	7144.85
510.035	7380.37
510.238	7202.19
510.44	7470.48
510.643	7632.27
510.845	7626.12
511.048	7566.73
511.25	7843.21
511.453	7679.37
511.655	7957.89
511.858	8002.95
512.06	8105.35
512.262	8189.32
512.465	8125.83
512.667	8244.61
512.87	8375.68
513.072	8484.22
513.274	8410.5
513.477	8627.58
513.679	8779.13
513.881	8813.95
514.084	8877.43
514.286	8908.15
514.488	8879.48
514.69	9110.9
514.893	9182.58
515.095	9139.57
515.297	9348.47
515.499	9487.73
515.701	9487.73
515.904	9682.28
516.106	9616.75
516.308	9762.16
516.51	9962.86
516.712	9723.24
516.914	9878.89
517.116	10093.93
517.318	9971.05
517.52	10192.23
517.722	10464.61
517.925	10311.01
518.127	10589.53
518.329	10392.93
518.531	10491.23
518.733	10755.42
518.935	10755.42
519.136	10945.88
519.338	11081.05
519.54	11156.82
519.742	11109.72
519.944	11267.41
520.146	11418.96
520.348	11488.59
520.55	11490.64
520.752	11500.88
520.954	11734.35
521.155	11459.92
521.357	11887.95
521.559	11984.2
521.761	12045.64
521.963	12006.73
522.164	12246.34
522.366	12098.89
522.568	12574.02
522.77	12406.08
522.971	12541.25
523.173	12625.22
523.375	12635.46
523.576	12574.02
523.778	12518.72
523.98	12535.1
524.181	12938.55
524.383	12870.97
524.584	12832.06
524.786	13083.96
524.988	12700.99
525.189	13137.21
525.391	13024.57
525.592	13303.09
525.794	13462.83
525.995	13321.52
526.197	13153.59
526.398	13571.38
526.6	13323.57
526.801	13487.41
527.003	13575.47
527.204	13636.91
527.406	13620.53
527.607	13622.58
527.808	13790.51
528.01	13821.23
528.211	13616.43
528.412	14054.7
528.614	13767.98
528.815	14073.13
529.016	13978.92
529.218	13993.26
529.419	13931.82
529.62	14042.41
529.822	14196.01
530.023	14279.97
530.224	14208.3
530.425	13944.11
530.626	14105.9
530.828	13960.49
531.029	14202.15
531.23	14347.56
531.431	14245.16
531.632	14370.08
531.833	14263.59
532.035	14222.63
532.236	14363.94
532.437	14349.61
532.638	14294.31
532.839	14368.04
533.04	14429.48
533.241	14300.45
533.442	14646.56
533.643	14589.22
533.844	14314.79
534.045	14468.39
534.246	14159.14
534.447	14708
534.648	14449.96
534.849	14646.56
535.05	14191.91
535.251	14347.56
535.451	14497.06
535.652	14587.17
535.853	14529.83
536.054	14396.71
536.255	14560.55
536.456	14443.81
536.657	14720.29
536.857	14480.68
537.058	14198.06
537.259	14368.04
537.46	14400.8
537.66	14478.63
537.861	14527.78
538.062	14337.32
538.263	14376.23
538.463	14288.17
538.664	14153
538.865	14468.39
539.065	14482.72
539.266	14374.18
539.466	14546.21
539.667	14359.84
539.868	14478.63
540.068	14484.77
540.269	14441.76
540.469	14589.22
540.67	14456.1
540.87	14458.15
541.071	14380.32
541.271	14490.91
541.472	14507.3
541.672	14210.34
541.873	14161.19
542.073	14249.25
542.274	14576.93
542.474	14396.71
542.675	14488.87
542.875	14302.5
543.075	14509.35
543.276	14157.1
543.476	14335.27
543.676	14351.65
543.877	14142.76
544.077	14206.25
544.277	14509.35
544.478	14236.97
544.678	14363.94
544.878	14361.89
545.078	14464.29
545.279	14087.47
545.479	14404.9
545.679	14425.38
545.879	14120.23
546.079	14279.97
546.28	14511.39
546.48	14210.34
546.68	14255.4
546.88	14370.08
547.08	14466.34
547.28	14286.12
547.48	14257.45
547.68	14421.28
547.88	14069.03
548.081	14417.19
548.281	14069.03
548.481	14167.34
548.681	14095.66
548.881	14361.89
549.081	14077.23
549.28	14271.78
549.48	14327.08
549.68	14249.25
549.88	14382.37
550.08	14169.38
550.28	14163.24
550.48	14267.69
550.68	14294.31
550.88	13997.35
551.08	14140.71
551.279	14224.68
551.479	13845.8
551.679	14298.41
551.879	13978.92
552.079	14290.21
552.278	14009.64
552.478	14071.08
552.678	14150.95
552.878	13878.57
553.077	14083.37
553.277	14017.83
553.477	14388.52
553.676	14138.66
553.876	14046.51
554.076	14075.18
554.275	14052.65
554.475	14026.03
554.674	13888.81
554.874	14136.62
555.074	14146.86
555.273	13993.26
555.473	14073.13
555.672	14046.51
555.872	14056.75
556.071	13978.92
556.271	13675.82
556.47	13964.59
556.67	13894.96
556.869	13911.34
557.068	13866.28
557.268	14034.22
557.467	13874.48
557.667	13749.55
557.866	13851.95
558.065	13827.37
558.265	13798.7
558.464	13677.87
558.663	13810.99
558.863	13669.68
559.062	14062.89
559.261	13278.52
559.461	13583.66
559.66	13610.29
559.859	13839.66
560.058	13600.05
560.258	13679.92
560.457	13542.71
560.656	13731.12
560.855	13468.98
561.054	13538.61
561.253	13479.22
561.453	13554.99
561.652	13466.93
561.851	13724.97
562.05	13339.96
562.249	13448.5
562.448	13493.55
562.647	13368.63
562.846	13319.48
563.045	13593.9
563.244	13612.34
563.443	13255.99
563.642	13188.41
563.841	13552.95
564.04	13327.67
564.239	13485.36
564.438	13114.68
564.637	13385.01
564.836	13094.2
565.035	13417.78
565.234	13278.52
565.432	13327.67
565.631	12817.72
565.83	13143.35
566.029	13153.59
566.228	13067.58
566.427	13151.54
566.625	12901.69
566.824	13079.86
567.023	12676.41
567.222	12946.75
567.42	13014.33
567.619	12977.47
567.818	12956.99
568.016	12756.29
568.215	12971.32
568.414	12832.06
568.612	13008.19
568.811	12842.3
569.01	12662.08
569.208	12641.6
569.407	12821.82
569.605	12596.54
569.804	12782.91
570.002	12565.82
570.201	12612.93
570.4	12565.82
570.598	12457.28
570.797	12469.57
570.995	12512.58
571.193	12408.13
571.392	12447.04
571.59	12475.71
571.789	12432.71
571.987	12395.84
572.186	12387.65
572.384	12414.27
572.582	12270.92
572.781	12193.09
572.979	12109.13
573.177	12246.34
573.376	12340.55
573.574	12246.34
573.772	12195.14
573.971	12219.72
574.169	11992.39
574.367	11928.91
574.565	12012.87
574.763	12082.5
574.962	11787.6
575.16	12012.87
575.358	11863.37
575.556	11576.66
575.754	11824.46
575.952	11679.05
576.151	11906.38
576.349	11687.25
576.547	11750.73
576.745	11584.85
576.943	11728.21
577.141	11683.15
577.339	11879.75
577.537	11507.02
577.735	11611.47
577.933	11257.17
578.131	11564.37
578.329	11609.42
578.527	11359.57
578.725	11361.62
578.923	11474.26
579.121	11431.25
579.319	11609.42
579.516	11328.85
579.714	11179.35
579.912	11291.99
580.11	11343.19
580.308	11208.02
580.506	11330.9
580.704	11109.72
580.901	11312.47
581.099	10964.31
581.297	11259.22
581.495	11079
581.692	10902.87
581.89	11103.57
582.088	11068.76
582.285	11046.23
582.483	11027.8
582.681	11062.62
582.878	11087.19
583.076	10894.68
583.274	10933.59
583.471	10702.17
583.669	10849.63
583.866	10894.68
584.064	10812.76
584.262	10782.04
584.459	10835.29
584.657	10681.69
584.854	10771.8
585.052	10644.83
585.249	10661.21
585.447	10558.81
585.644	10464.61
585.841	10638.69
586.039	10554.72
586.236	10421.6
586.434	10216.8
586.631	10075.49
586.828	10272.1
587.026	10245.48
587.223	10425.7
587.42	10286.44
587.618	10399.07
587.815	10091.88
588.012	10128.74
588.21	10216.8
588.407	10339.68
588.604	10222.95
588.801	10024.3
588.999	10057.06
589.196	9938.28
589.393	10153.32
589.59	10132.84
589.787	9837.93
589.984	9794.92
590.182	9848.17
590.379	9805.16
590.576	9805.16
590.773	9839.98
590.97	9770.35
591.167	9819.5
591.364	9772.39
591.561	9782.63
591.758	9592.17
591.955	9483.63
592.152	9614.7
592.349	9442.67
592.546	9559.41
592.743	9422.19
592.94	9530.73
593.137	9586.03
593.334	9528.69
593.531	9422.19
593.727	9624.94
593.924	9416.05
594.121	9373.04
594.318	9330.03
594.515	9287.03
594.712	9485.68
594.908	9459.06
595.105	9151.86
595.302	9147.76
595.499	9620.85
595.696	9241.97
595.892	9039.22
596.089	9115
596.286	9074.04
596.482	8996.21
596.679	9043.32
596.876	8822.14
597.072	8889.72
597.269	8889.72
597.466	9039.22
597.662	8832.38
597.859	9014.65
598.055	8787.32
598.252	8818.04
598.448	8789.37
598.645	8719.74
598.841	8639.87
599.038	8701.31
599.234	8719.74
599.431	8516.99
599.627	8691.07
599.824	8674.68
600.02	8803.71
600.217	8758.65
600.413	8510.85
600.609	8447.36
600.806	8426.88
601.002	8467.84
601.198	8279.43
601.395	8424.83
601.591	8351.1
601.787	8353.15
601.984	8410.5
602.18	8480.13
602.376	8279.43
602.572	8330.62
602.769	8289.67
602.965	8258.95
603.161	8328.58
603.357	7986.57
603.553	8195.46
603.75	8056.2
603.946	8131.97
604.142	8220.03
604.338	7980.42
604.534	8002.95
604.73	7988.61
604.926	7841.16
605.122	7949.7
605.318	7880.07
605.514	7855.5
605.71	7830.92
605.906	7749
606.102	7728.52
606.298	7759.24
606.494	7861.64
606.69	7978.37
606.886	7818.63
607.082	7744.91
607.278	7710.09
607.474	7613.84
607.67	7587.21
607.866	7595.4
608.062	7761.29
608.257	7507.34
608.453	7593.36
608.649	7632.27
608.845	7646.6
609.041	7531.92
609.236	7648.65
609.432	7429.52
609.628	7493.01
609.824	7667.08
610.019	7552.4
610.215	7411.09
610.411	7368.08
610.606	7468.43
610.802	7388.56
610.998	7527.82
611.193	7501.2
611.389	7183.76
611.584	7255.44
611.78	7333.26
611.976	7286.16
612.171	7171.47
612.367	7269.78
612.562	7214.48
612.758	7169.43
612.953	7138.71
613.149	7189.91
613.344	7140.76
613.539	7232.91
613.735	7177.62
613.93	7202.19
614.126	7105.94
614.321	7255.44
614.517	7181.71
614.712	7196.05
614.907	6991.25
615.103	7079.32
615.298	7099.8
615.493	7167.38
615.688	6978.97
615.884	7095.7
616.079	6909.33
616.274	6991.25
616.47	6938.01
616.665	6999.45
616.86	6987.16
617.055	6827.42
617.25	6780.31
617.445	6895
617.641	6862.23
617.836	6851.99
618.031	6741.4
618.226	6868.38
618.421	6765.98
618.616	6849.94
618.811	6815.13
619.006	6684.06
619.201	6542.75
619.396	6718.87
619.591	6563.23
619.786	6505.88
619.981	6536.6
620.176	6593.95
620.371	6397.34
620.566	6561.18
620.761	6608.28
620.956	6591.9
621.151	6340
621.346	6544.8
621.541	6317.47
621.735	6516.12
621.93	6129.06
622.125	6315.42
622.32	6116.77
622.515	6143.39
622.709	6157.73
622.904	6337.95
623.099	6077.86
623.294	6026.66
623.488	6092.2
623.683	6081.96
623.878	5897.64
624.072	6041
624.267	6086.05
624.462	5776.81
624.656	6002.08
624.851	5856.68
625.046	5868.97
625.24	5846.44
625.435	5649.83
625.629	5705.13
625.824	5694.89
626.018	5703.08
626.213	5586.35
626.407	5641.64
626.602	5555.63
626.796	5717.42
626.991	5449.13
627.185	5414.32
627.38	5440.94
627.574	5483.95
627.768	5350.83
627.963	5225.9
628.157	5303.73
628.352	5381.55
628.546	5273.01
628.74	5375.41
628.935	5186.99
629.129	5238.19
629.323	5195.18
629.517	5209.52
629.712	5135.79
629.906	5029.3
630.1	4984.24
630.294	5062.07
630.489	4998.58
630.683	5119.41
630.877	4933.04
631.071	4959.67
631.265	4863.41
631.459	5033.4
631.653	4883.89
631.848	4752.82
632.042	4740.54
632.236	4740.54
632.43	4619.71
632.624	4765.11
632.818	4746.68
633.012	4746.68
633.206	4595.13
633.4	4668.86
633.594	4715.96
633.788	4648.38
633.982	4474.3
634.176	4660.66
634.369	4605.37
634.563	4500.92
634.757	4496.83
634.951	4498.88
635.145	4416.96
635.339	4435.39
635.533	4400.57
635.726	4365.76
635.92	4265.41
636.114	4351.42
636.308	4337.09
636.501	4263.36
636.695	4341.18
636.889	4408.76
637.083	4335.04
637.276	4285.89
637.47	4115.91
637.664	4099.52
637.857	4236.74
638.051	3956.16
638.244	4152.77
638.438	4165.06
638.632	4099.52
638.825	3839.43
639.019	4038.08
639.212	3978.69
639.406	3870.15
639.599	3970.5
639.793	4044.23
639.986	3886.53
640.18	3886.53
640.373	3888.58
640.567	3827.14
640.76	3853.77
640.954	3706.31
641.147	3696.07
641.34	3849.67
641.534	3737.03
641.727	3655.11
641.92	3704.26
642.114	3737.03
642.307	3618.25
642.5	3663.3
642.694	3544.52
642.887	3587.53
643.08	3612.1
643.273	3558.86
643.467	3581.39
643.66	3632.58
643.853	3333.58
644.046	3349.96
644.239	3466.7
644.432	3442.12
644.626	3462.6
644.819	3448.27
645.012	3343.82
645.205	3390.92
645.398	3403.21
645.591	3290.57
645.784	3251.66
645.977	3302.86
646.17	3311.05
646.363	3288.53
646.556	3235.28
646.749	3249.61
646.942	3253.71
647.135	3241.42
647.328	3206.61
647.521	3128.78
647.714	3145.17
647.907	3067.35
648.099	3243.47
648.292	3149.26
648.485	2973.14
648.678	3120.59
648.871	3081.68
649.064	2987.47
649.256	2958.8
649.449	3005.91
649.642	3026.39
649.835	3030.48
650.027	2907.6
650.22	2880.98
650.413	2909.65
650.605	2964.95
650.798	2903.51
650.991	2907.6
651.183	2909.65
651.376	2794.97
651.568	2778.58
651.761	2684.38
651.954	2715.09
652.146	2825.68
652.339	2790.87
652.531	2686.42
652.724	2747.86
652.916	2721.24
653.109	2711
653.301	2670.04
653.494	2629.08
653.686	2639.32
653.879	2639.32
654.071	2663.9
654.263	2645.46
654.456	2622.94
654.648	2739.67
654.84	2459.1
655.033	2600.41
655.225	2711
655.417	2565.59
655.61	2541.02
655.802	2629.08
655.994	2465.24
656.186	2358.75
656.379	2516.44
656.571	2412
656.763	2606.55
656.955	2409.95
657.148	2518.49
657.34	2356.7
657.532	2266.59
657.724	2354.65
657.916	2409.95
658.108	2368.99
658.3	2252.25
658.492	2348.51
658.684	2338.27
658.876	2289.12
659.068	2323.93
659.26	2399.71
659.452	2223.58
659.644	2145.76
659.836	2178.53
660.028	2176.48
660.22	2254.3
660.412	2151.9
660.604	2180.57
660.796	2137.57
660.988	2237.92
661.18	2065.89
661.372	2080.22
661.563	2108.9
661.755	2160.1
661.947	1996.26
662.139	1988.07
662.331	2063.84
662.522	2147.81
662.714	2031.07
662.906	2125.28
663.097	2092.51
663.289	2049.5
663.481	2016.74
663.673	2082.27
663.864	2002.4
664.056	1811.94
664.247	2039.26
664.439	1902.05
664.631	1957.35
664.822	1930.72
665.014	2026.98
665.205	2014.69
665.397	1936.87
665.588	1900
665.78	1840.61
665.971	1820.13
666.163	1904.1
666.354	1852.9
666.546	1830.37
666.737	1762.79
666.929	1768.93
667.12	1830.37
667.311	1789.41
667.503	1705.45
667.694	1934.82
667.885	1770.98
668.077	1783.27
668.268	1777.12
668.459	1756.65
668.651	1648.1
668.842	1809.89
669.033	1703.4
669.224	1752.55
669.416	1760.74
669.607	1646.05
669.798	1744.36
669.989	1664.49
670.18	1646.05
670.371	1715.69
670.563	1717.73
670.754	1695.21
670.945	1711.59
671.136	1687.01
671.327	1547.75
671.518	1641.96
671.709	1629.67
671.9	1615.34
672.091	1617.38
672.282	1574.38
672.473	1668.58
672.664	1553.9
672.855	1633.77
673.046	1570.28
673.237	1695.21
673.428	1531.37
673.619	1512.94
673.809	1592.81
674	1545.7
674.191	1476.07
674.382	1549.8
674.573	1457.64
674.764	1590.76
674.954	1590.76
675.145	1486.31
675.336	1498.6
675.527	1572.33
675.717	1390.06
675.908	1519.08
676.099	1500.65
676.289	1443.31
676.48	1459.69
676.671	1496.55
676.861	1480.17
677.052	1471.98
677.243	1433.07
677.433	1383.91
677.624	1441.26
677.814	1375.72
678.005	1486.31
678.195	1379.82
678.386	1433.07
678.576	1304.04
678.767	1398.25
678.957	1394.15
679.148	1379.82
679.338	1385.96
679.529	1396.2
679.719	1476.07
679.909	1351.15
680.1	1367.53
680.29	1369.58
680.481	1418.73
680.671	1340.91
680.861	1385.96
681.052	1379.82
681.242	1383.91
681.432	1373.68
681.622	1345
681.813	1369.58
682.003	1414.63
682.193	1363.44
682.383	1467.88
682.573	1328.62
682.764	1385.96
682.954	1314.28
683.144	1334.76
683.334	1306.09
683.524	1426.92
683.714	1394.15
683.904	1334.76
684.094	1248.75
684.284	1328.62
684.474	1222.13
684.664	1302
684.854	1375.72
685.044	1334.76
685.234	1308.14
685.424	1338.86
685.614	1218.03
685.804	1275.37
685.994	1365.48
686.184	1277.42
686.374	1250.8
686.564	1234.41
686.753	1267.18
686.943	1304.04
687.133	1242.61
687.323	1230.32
687.513	1332.72
687.702	1195.5
687.892	1261.04
688.082	1297.9
688.272	1193.45
688.461	1283.56
688.651	1228.27
688.841	1228.27
689.03	1166.83
689.22	1164.78
689.41	1215.98
689.599	1140.21
689.789	1267.18
689.979	1242.61
690.168	1152.49
690.358	1170.93
690.547	1234.41
690.737	1132.01
690.926	1150.45
691.116	1119.73
691.305	1236.46
691.495	1150.45
691.684	1162.73
691.874	1177.07
692.063	1236.46
692.252	1121.77
692.442	1205.74
692.631	1189.36
692.82	1142.25
693.01	1142.25
693.199	1189.36
693.388	1142.25
693.578	1197.55
693.767	1172.97
693.956	1111.54
694.146	1121.77
694.335	1062.38
694.524	1127.92
694.713	1152.49
694.902	982.51
695.092	1132.01
695.281	1082.86
695.47	1084.91
695.659	1132.01
695.848	1021.42
696.037	1121.77
696.226	1089.01
696.415	1007.09
696.604	1148.4
696.793	1091.06
696.982	1080.82
697.171	1002.99
697.36	1011.18
697.549	1097.2
697.738	1033.71
697.927	1043.95
698.116	1072.62
698.305	1086.96
698.494	959.99
698.683	1000.94
698.872	1093.1
699.061	1041.9
699.25	1080.82
699.438	966.13
699.627	1023.47
699.816	1052.14
700.005	953.84
700.193	1007.09
700.382	982.51
700.571	1013.23
700.76	986.61
700.948	974.32
701.137	1033.71
701.326	1111.54
701.514	951.79
701.703	1076.72
701.892	986.61
702.08	898.55
702.269	974.32
702.457	1002.99
702.646	955.89
702.834	982.51
703.023	1035.76
703.212	935.41
703.4	914.93
703.589	1037.81
703.777	873.97
703.965	898.55
704.154	988.66
704.342	1002.99
704.531	867.83
704.719	1002.99
704.907	1029.62
705.096	988.66
705.284	880.11
705.472	914.93
705.661	1007.09
705.849	953.84
706.037	902.64
706.226	949.75
706.414	935.41
706.602	894.45
706.79	859.63
706.979	886.26
707.167	890.35
707.355	933.36
707.543	962.03
707.731	935.41
707.919	849.4
708.107	976.37
708.296	955.89
708.484	892.4
708.672	912.88
708.86	912.88
709.048	970.23
709.236	884.21
709.424	880.11
709.612	1002.99
709.8	880.11
709.988	925.17
710.176	878.07
710.364	921.07
710.551	921.07
710.739	863.73
710.927	974.32
711.115	908.79
711.303	921.07
711.491	902.64
711.679	851.44
711.866	845.3
712.054	910.83
712.242	845.3
712.43	943.6
712.617	919.03
712.805	925.17
712.993	859.63
713.181	859.63
713.368	955.89
713.556	843.25
713.744	849.4
713.931	898.55
714.119	888.31
714.306	853.49
714.494	837.11
714.682	818.68
714.869	820.72
715.057	833.01
715.244	816.63
715.432	861.68
715.619	802.29
715.807	853.49
715.994	839.16
716.182	851.44
716.369	912.88
716.556	921.07
716.744	822.77
716.931	810.48
717.119	867.83
717.306	830.96
717.493	804.34
717.681	804.34
717.868	816.63
718.055	886.26
718.242	861.68
718.43	902.64
718.617	919.03
718.804	790
718.991	822.77
719.179	914.93
719.366	953.84
719.553	845.3
719.74	853.49
719.927	757.24
720.114	835.06
720.301	837.11
720.488	898.55
720.676	849.4
720.863	816.63
721.05	806.39
721.237	867.83
721.424	871.92
721.611	814.58
721.798	806.39
721.985	790
722.172	790
722.358	859.63
722.545	822.77
722.732	835.06
722.919	886.26
723.106	925.17
723.293	847.35
723.48	769.52
723.667	787.96
723.853	749.04
724.04	814.58
724.227	835.06
724.414	771.57
724.6	845.3
724.787	810.48
724.974	777.72
725.161	847.35
725.347	841.2
725.534	912.88
725.72	687.61
725.907	863.73
726.094	812.53
726.28	787.96
726.467	810.48
726.653	716.28
726.84	843.25
727.027	783.86
727.213	830.96
727.4	863.73
727.586	763.38
727.773	810.48
727.959	830.96
728.145	796.15
728.332	820.72
728.518	798.2
728.705	779.76
728.891	728.56
729.077	796.15
729.264	849.4
729.45	847.35
729.636	853.49
729.823	869.87
730.009	798.2
730.195	761.33
730.382	867.83
730.568	820.72
730.754	763.38
730.94	749.04
731.126	855.54
731.313	884.21
731.499	865.78
731.685	882.16
731.871	769.52
732.057	849.4
732.243	865.78
732.429	826.87
732.615	765.43
732.801	822.77
732.987	777.72
733.173	765.43
733.359	894.45
733.545	753.14
733.731	863.73
733.917	706.04
734.103	964.08
734.289	779.76
734.475	806.39
734.661	871.92
734.847	808.44
735.033	820.72
735.219	816.63
735.404	818.68
735.59	826.87
735.776	822.77
735.962	775.67
736.148	734.71
736.333	769.52
736.519	804.34
736.705	896.5
736.89	773.62
737.076	747
737.262	826.87
737.447	747
737.633	800.24
737.819	794.1
738.004	853.49
738.19	732.66
738.375	773.62
738.561	808.44
738.747	824.82
738.932	796.15
739.118	833.01
739.303	777.72
739.489	773.62
739.674	816.63
739.859	816.63
740.045	822.77
740.23	824.82
740.416	759.28
740.601	867.83
740.786	796.15
740.972	851.44
741.157	828.92
741.342	822.77
741.528	767.48
741.713	763.38
741.898	738.8
742.084	777.72
742.269	800.24
742.454	785.91
742.639	755.19
742.824	816.63
743.01	773.62
743.195	744.95
743.38	742.9
743.565	753.14
743.75	736.76
743.935	818.68
744.12	765.43
744.305	718.33
744.49	691.7
744.675	736.76
744.86	812.53
745.045	732.66
745.23	683.51
745.415	755.19
745.6	738.8
745.785	749.04
745.97	699.89
746.155	728.56
746.34	710.13
746.525	699.89
746.71	703.99
746.895	689.65
747.079	673.27
747.264	630.26
747.449	679.41
747.634	710.13
747.819	724.47
748.003	732.66
748.188	728.56
748.373	695.8
748.557	703.99
748.742	638.45
748.927	652.79
749.111	550.39
749.296	691.7
749.481	708.09
749.665	646.65
749.85	675.32
750.034	679.41
750.219	689.65
750.404	658.93
750.588	656.89
750.773	591.35
750.957	534.01
751.141	658.93
751.326	630.26
751.51	587.26
751.695	591.35
751.879	695.8
752.064	663.03
752.248	628.21
752.432	663.03
752.617	581.11
752.801	534.01
752.985	595.45
753.17	546.3
753.354	613.88
753.538	587.26
753.722	579.06
753.907	566.78
754.091	560.63
754.275	617.97
754.459	525.82
754.643	517.62
754.828	595.45
755.012	634.36
755.196	529.91
755.38	450.04
755.564	556.54
755.748	542.2
755.932	554.49
756.116	595.45
756.3	562.68
756.484	544.25
756.668	556.54
756.852	474.62
757.036	577.02
757.22	544.25
757.404	445.95
757.588	564.73
757.772	486.9
757.956	511.48
758.14	486.9
758.323	527.86
758.507	497.14
758.691	542.2
758.875	511.48
759.059	445.95
759.242	460.28
759.426	519.67
759.61	534.01
759.794	478.71
759.977	441.85
760.161	478.71
760.345	515.58
760.528	460.28
760.712	572.92
760.895	525.82
761.079	437.75
761.263	413.18
761.446	544.25
761.63	435.71
761.813	474.62
761.997	493.05
762.18	439.8
762.364	470.52
762.547	525.82
762.731	509.43
762.914	441.85
763.098	421.37
763.281	456.19
763.464	427.51
763.648	415.23
763.831	472.57
764.015	402.94
764.198	458.23
764.381	433.66
764.564	325.12
764.748	435.71
764.931	474.62
765.114	447.99
765.297	415.23
765.481	452.09
765.664	486.9
765.847	404.99
766.03	478.71
766.213	429.56
766.397	392.7
766.58	310.78
766.763	474.62
766.946	419.32
767.129	413.18
767.312	392.7
767.495	402.94
767.678	353.79
767.861	388.6
768.044	355.83
768.227	427.51
768.41	400.89
768.593	359.93
768.776	380.41
768.959	466.42
769.142	402.94
769.324	372.22
769.507	386.55
769.69	384.51
769.873	335.35
770.056	364.03
770.239	310.78
770.421	327.16
770.604	390.65
770.787	376.31
770.97	368.12
771.152	345.59
771.335	331.26
771.518	441.85
771.7	411.13
771.883	361.98
772.066	331.26
772.248	318.97
772.431	370.17
772.613	376.31
772.796	359.93
772.978	366.07
773.161	355.83
773.343	318.97
773.526	368.12
773.708	306.68
773.891	239.1
774.073	257.53
774.256	280.06
774.438	333.31
774.621	298.49
774.803	296.44
774.985	290.3
775.168	298.49
775.35	218.62
775.532	345.59
775.715	318.97
775.897	288.25
776.079	335.35
776.261	306.68
776.444	298.49
776.626	251.39
776.808	296.44
776.99	265.72
777.173	302.59
777.355	257.53
777.537	275.96
777.719	259.58
777.901	298.49
778.083	333.31
778.265	230.91
778.447	214.52
778.629	224.76
778.811	280.06
778.993	235
779.175	288.25
779.357	251.39
779.539	312.83
779.721	286.2
779.903	351.74
780.085	228.86
780.267	265.72
780.449	265.72
780.631	292.35
780.812	263.68
780.994	239.1
781.176	181.76
781.358	280.06
781.54	245.24
781.721	155.13
781.903	292.35
782.085	284.16
782.267	282.11
782.448	179.71
782.63	253.44
782.812	220.67
782.993	237.05
783.175	212.48
783.357	255.48
783.538	265.72
783.72	214.52
783.901	189.95
784.083	200.19
784.264	202.24
784.446	208.38
784.627	228.86
784.809	321.02
784.99	269.82
785.172	140.8
785.353	200.19
785.535	153.09
785.716	284.16
785.897	101.89
786.079	132.61
786.26	212.48
786.441	224.76
786.623	60.93
786.804	136.7
786.985	157.18
787.167	216.57
787.348	173.57
787.529	169.47
787.71	267.77
787.891	206.33
788.073	241.15
788.254	194.05
788.435	181.76
788.616	155.13
788.797	173.57
788.978	103.93
789.159	71.17
789.34	114.17
789.522	81.41
789.703	169.47
789.884	249.34
790.065	161.28
790.246	228.86
790.427	140.8
790.607	116.22
790.788	187.9
790.969	140.8
791.15	232.96
791.331	159.23
791.512	200.19
791.693	148.99
791.874	202.24
792.054	122.37
792.235	216.57
792.416	126.46
792.597	194.05
792.778	198.14
792.958	79.36
793.139	116.22
793.32	163.33
793.5	71.17
793.681	148.99
793.862	165.37
794.042	140.8
794.223	122.37
794.404	194.05
794.584	95.74
794.765	73.21
794.945	124.41
795.126	198.14
795.306	116.22
795.487	132.61
795.667	116.22
795.848	132.61
796.028	181.76
796.209	69.12
796.389	138.75
796.57	101.89
796.75	87.55
796.93	151.04
797.111	116.22
797.291	126.46
797.471	171.52
797.652	89.6
797.832	105.98
798.012	116.22
798.192	144.89
798.373	167.42
798.553	155.13
798.733	155.13
798.913	83.45
799.093	91.65
799.274	136.7
799.454	118.27
799.634	130.56
799.814	73.21
799.994	108.03
800.174	126.46
800.354	110.08
800.534	91.65
800.714	42.5
800.894	157.18
801.074	15.87
801.254	130.56
801.434	79.36
801.614	93.69
801.794	48.64
801.974	323.07
802.154	116.22
802.334	85.5
802.514	95.74
802.693	97.79
802.873	26.11
803.053	91.65
803.233	128.51
803.413	146.94
803.592	81.41
803.772	103.93
803.952	15.87
804.131	110.08
804.311	95.74
804.491	97.79
804.67	67.07
804.85	151.04
805.03	95.74
805.209	77.31
805.389	28.16
805.568	79.36
805.748	87.55
805.928	116.22
806.107	114.17
806.287	114.17
806.466	48.64
806.646	62.98
806.825	112.13
807.004	83.45
807.184	62.98
807.363	56.83
807.543	32.26
807.722	50.69
807.901	46.59
808.081	110.08
808.26	-12.8
808.439	3.58
808.619	42.5
808.798	42.5
808.977	65.02
809.156	114.17
809.336	124.41
809.515	118.27
809.694	54.78
809.873	89.6
810.052	46.59
810.231	79.36
810.411	-16.9
810.59	91.65
810.769	99.84
810.948	28.16
811.127	75.26
811.306	60.93
811.485	83.45
811.664	42.5
811.843	75.26
812.022	93.69
812.201	34.3
812.38	73.21
812.559	1.54
812.737	155.13
812.916	89.6
813.095	15.87
813.274	114.17
813.453	56.83
813.632	118.27
813.811	52.74
813.989	69.12
814.168	26.11
814.347	73.21
814.526	-8.7
814.704	34.3
814.883	32.26
815.062	42.5
815.24	148.99
815.419	36.35
815.598	91.65
815.776	9.73
815.955	5.63
816.133	58.88
816.312	71.17
816.49	46.59
816.669	40.45
816.847	83.45
817.026	91.65
817.204	71.17
817.383	52.74
817.561	-20.99
817.74	42.5
817.918	54.78
818.097	60.93
818.275	24.06
818.453	56.83
818.632	19.97
818.81	99.84
818.988	81.41
819.167	42.5
819.345	50.69
819.523	91.65
819.701	75.26
819.879	5.63
820.058	85.5
820.236	105.98
820.414	44.54
820.592	52.74
820.77	15.87
820.948	-80.38
821.127	50.69
821.305	56.83
821.483	112.13
821.661	26.11
821.839	65.02
822.017	7.68
822.195	136.7
822.373	60.93
822.551	28.16
822.729	-25.09
822.907	69.12
823.085	97.79
823.262	93.69
823.44	-27.14
823.618	-41.47
823.796	24.06
823.974	5.63
824.152	34.3
824.329	-90.62
824.507	34.3
824.685	62.98
824.863	7.68
825.04	73.21
825.218	140.8
825.396	-2.56
825.574	9.73
825.751	69.12
825.929	52.74
826.107	24.06
826.284	69.12
826.462	30.21
826.639	-20.99
826.817	-16.9
826.994	7.68
827.172	-2.56
827.349	97.79
827.527	32.26
827.704	30.21
827.882	124.41
828.059	108.03
828.237	-47.62
828.414	9.73
828.591	15.87
828.769	36.35
828.946	56.83
829.124	-55.81
829.301	-10.75
829.478	69.12
829.655	-8.7
829.833	77.31
830.01	65.02
830.187	52.74
830.364	40.45
830.542	26.11
830.719	40.45
830.896	-8.7
831.073	34.3
831.25	58.88
831.427	52.74
831.604	52.74
831.782	67.07
831.959	89.6
832.136	9.73
832.313	62.98
832.49	54.78
832.667	32.26
832.844	9.73
833.021	1.54
833.198	58.88
833.374	-6.66
833.551	-4.61
833.728	60.93
833.905	22.02
834.082	79.36
834.259	-64
834.436	3.58
834.612	-6.66
834.789	36.35
834.966	-20.99
835.143	24.06
835.319	15.87
835.496	17.92
835.673	22.02
835.85	19.97
836.026	-8.7
836.203	5.63
836.38	-8.7
836.556	56.83
836.733	-49.66
836.909	17.92
837.086	56.83
837.262	32.26
837.439	3.58
837.616	32.26
837.792	-33.28
837.968	-6.66
838.145	-31.23
838.321	-14.85
838.498	22.02
838.674	9.73
838.851	26.11
839.027	7.68
839.203	34.3
839.38	52.74
839.556	38.4
839.732	38.4
839.909	-33.28
840.085	9.73
840.261	-49.66
840.437	11.78
840.614	46.59
840.79	-6.66
840.966	13.82
841.142	81.41
841.318	38.4
841.494	-14.85
841.671	-41.47
841.847	-0.51
842.023	24.06
842.199	48.64
842.375	32.26
842.551	122.37
842.727	52.74
842.903	26.11
843.079	-23.04
843.255	-16.9
843.431	-53.76
843.607	52.74
843.783	40.45
843.959	24.06
844.134	46.59
844.31	81.41
844.486	77.31
844.662	58.88
844.838	13.82
845.013	34.3
845.189	17.92
845.365	38.4
845.541	-2.56
845.716	9.73
845.892	-29.18
846.068	50.69
846.244	-31.23
846.419	-8.7
846.595	-14.85
846.77	56.83
846.946	-23.04
847.122	24.06
847.297	-20.99
847.473	101.89
847.648	42.5
847.824	-12.8
847.999	40.45
848.175	108.03
848.35	1.54
848.526	101.89
848.701	-31.23
848.876	36.35
849.052	19.97
849.227	5.63
849.403	-16.9
849.578	24.06
849.753	52.74
849.929	26.11
850.104	-55.81
850.279	13.82
850.454	46.59
850.63	56.83
850.805	77.31
850.98	-33.28
851.155	42.5
851.33	9.73
851.505	15.87
851.681	97.79
851.856	36.35
852.031	19.97
852.206	-43.52
852.381	34.3
852.556	7.68
852.731	-0.51
852.906	24.06
853.081	46.59
853.256	19.97
853.431	-18.94
853.606	-88.57
853.781	-57.86
853.956	-29.18
854.131	30.21
854.305	28.16
854.48	28.16
854.655	15.87
854.83	9.73
855.005	-4.61
855.18	-18.94
855.354	-2.56
855.529	-55.81
855.704	5.63
855.879	-53.76
856.053	-2.56
856.228	-14.85
856.403	-25.09
856.577	75.26
856.752	-16.9
856.926	19.97
857.101	-14.85
857.276	-6.66
857.45	-31.23
857.625	-20.99
857.799	9.73
857.974	22.02
858.148	7.68
858.323	9.73
858.497	-49.66
858.672	40.45
858.846	56.83
859.02	-18.94
859.195	52.74
859.369	48.64
859.543	-6.66
859.718	9.73
859.892	3.58
860.066	-53.76
860.241	34.3
860.415	7.68
860.589	-0.51
860.763	1.54
860.938	-8.7
861.112	32.26
861.286	48.64
861.46	62.98
861.634	26.11
861.808	1.54
861.982	48.64
862.157	54.78
862.331	30.21
862.505	65.02
862.679	-72.19
862.853	-35.33
863.027	-39.42
863.201	19.97
863.375	-51.71
863.549	26.11
863.722	-49.66
863.896	46.59
864.07	26.11
864.244	9.73
864.418	-12.8
864.592	-23.04
864.766	11.78
864.939	-10.75
865.113	-23.04
865.287	-12.8
865.461	15.87
865.634	-18.94
865.808	56.83
865.982	-74.24
866.156	22.02
866.329	3.58
866.503	30.21
866.676	-18.94
866.85	-20.99
867.024	-8.7
867.197	-33.28
867.371	26.11
867.544	-29.18
867.718	-0.51
867.891	-16.9
868.065	-31.23
868.238	-20.99
868.412	81.41
868.585	56.83
868.759	38.4
868.932	1.54
869.105	48.64
869.279	-20.99
869.452	48.64
869.625	-23.04
869.799	24.06
869.972	56.83
870.145	7.68
870.319	-37.38
870.492	40.45
870.665	-39.42
870.838	24.06
871.011	42.5
871.185	7.68
871.358	46.59
871.531	73.21
871.704	24.06
871.877	5.63
872.05	-18.94
872.223	38.4
872.396	-47.62
872.569	-8.7
872.742	-10.75
872.915	75.26
873.088	-51.71
873.261	-8.7
873.434	26.11
873.607	58.88
873.78	30.21
873.953	7.68
874.126	-4.61
874.299	54.78
874.471	-43.52
874.644	-35.33
874.817	-20.99
874.99	-12.8
875.163	-37.38
875.335	38.4
875.508	24.06
875.681	13.82
875.853	3.58
876.026	15.87
876.199	-37.38
876.371	11.78
876.544	-0.51
876.717	42.5
876.889	-35.33
877.062	1.54
877.234	-45.57
877.407	7.68
877.579	17.92
877.752	40.45
877.924	22.02
878.097	19.97
878.269	-49.66
878.442	-66.05
878.614	-35.33
878.786	-33.28
878.959	-2.56
879.131	-12.8
879.303	13.82
879.476	7.68
879.648	24.06
879.82	-98.81
879.993	-14.85
880.165	32.26
880.337	-8.7
880.509	-14.85
880.681	7.68
880.854	9.73
881.026	-47.62
881.198	58.88
881.37	-0.51
881.542	-2.56
881.714	24.06
881.886	50.69
882.058	34.3
882.23	48.64
882.402	-45.57
882.574	15.87
882.746	-27.14
882.918	44.54
883.09	-49.66
883.262	-14.85
883.434	28.16
883.606	3.58
883.778	-0.51
883.95	73.21
884.122	-20.99
884.293	-25.09
884.465	17.92
884.637	28.16
884.809	-20.99
884.98	-27.14
885.152	15.87
885.324	-16.9
885.496	-35.33
885.667	-31.23
885.839	-66.05
886.011	26.11
886.182	-23.04
886.354	-4.61
886.525	-43.52
886.697	-6.66
886.869	-23.04
887.04	-33.28
887.212	48.64
887.383	28.16
887.555	-10.75
887.726	-8.7
887.897	34.3
888.069	24.06
888.24	-12.8
888.412	-16.9
888.583	-8.7
888.754	69.12
888.926	-41.47
889.097	-12.8
889.268	-41.47
889.44	-6.66
889.611	-49.66
889.782	-14.85
889.953	-14.85
890.125	9.73
890.296	-14.85
890.467	-20.99
890.638	-27.14
890.809	42.5
890.98	62.98
891.151	19.97
891.323	9.73
891.494	-6.66
891.665	11.78
891.836	5.63
892.007	-82.43
892.178	-6.66
892.349	-39.42
892.52	-66.05
892.691	17.92
892.862	52.74
893.032	-57.86
893.203	30.21
893.374	5.63
893.545	67.07
893.716	22.02
893.887	42.5
894.057	-47.62
894.228	11.78
894.399	-47.62
894.57	32.26
894.74	-12.8
894.911	-8.7
895.082	-61.95
895.253	36.35
895.423	-16.9
895.594	56.83
895.764	-14.85
895.935	-37.38
896.106	-35.33
896.276	-23.04
896.447	3.58
896.617	26.11
896.788	81.41
896.958	-8.7
897.129	-8.7
897.299	40.45
897.47	-18.94
897.64	-37.38
897.81	-31.23
897.981	32.26
898.151	5.63
898.322	32.26
898.492	-10.75
898.662	-25.09
898.832	24.06
899.003	11.78
899.173	3.58
899.343	48.64
899.513	-14.85
