Data from USB4F104151__2__12-53-04-110.txt Node

Date: Fri Mar 14 12:53:04 EDT 2025
User: louis
Spectrometer: USB4F10415
Trigger mode: 4
Integration Time (sec): 1.000000E-2
Scans to average: 1
Electric dark correction enabled: true
Nonlinearity correction enabled: false
Boxcar width: 0
XAxis mode: Wavelengths
Number of Pixels in Spectrum: 3648
>>>>>Begin Spectral Data<<<<<
178.204	-16.9
178.424	-16.9
178.644	-16.9
178.864	17.92
179.084	9.73
179.304	-76.29
179.524	5.63
179.744	-31.23
179.964	50.69
180.184	-66.05
180.404	7.68
180.624	26.11
180.844	-0.51
181.064	7.68
181.283	73.21
181.503	1.54
181.723	1.54
181.943	-20.99
182.163	36.35
182.383	26.11
182.602	-12.8
182.822	-16.9
183.042	11.78
183.262	-6.66
183.482	17.92
183.701	73.21
183.921	26.11
184.141	40.45
184.361	65.02
184.58	50.69
184.8	34.3
185.02	22.02
185.239	-0.51
185.459	-20.99
185.679	17.92
185.898	-39.42
186.118	-6.66
186.338	-49.66
186.557	28.16
186.777	11.78
186.997	46.59
187.216	-59.9
187.436	56.83
187.655	-18.94
187.875	81.41
188.095	9.73
188.314	-23.04
188.534	81.41
188.753	42.5
188.973	-10.75
189.192	5.63
189.412	-29.18
189.631	69.12
189.851	79.36
190.07	-2.56
190.29	9.73
190.509	7.68
190.729	24.06
190.948	-14.85
191.168	22.02
191.387	46.59
191.607	-33.28
191.826	75.26
192.045	9.73
192.265	-29.18
192.484	26.11
192.704	81.41
192.923	52.74
193.142	73.21
193.362	44.54
193.581	7.68
193.8	1.54
194.02	32.26
194.239	-25.09
194.458	-10.75
194.678	-45.57
194.897	-80.38
195.116	-0.51
195.335	1.54
195.555	19.97
195.774	24.06
195.993	-2.56
196.212	9.73
196.432	13.82
196.651	-4.61
196.87	-29.18
197.089	-18.94
197.308	-0.51
197.528	-12.8
197.747	34.3
197.966	124.41
198.185	40.45
198.404	-68.09
198.623	-8.7
198.842	-25.09
199.062	-0.51
199.281	-23.04
199.5	-2.56
199.719	32.26
199.938	62.98
200.157	38.4
200.376	-37.38
200.595	1.54
200.814	44.54
201.033	-16.9
201.252	46.59
201.471	38.4
201.69	-20.99
201.909	30.21
202.128	15.87
202.347	62.98
202.566	22.02
202.785	30.21
203.004	15.87
203.223	9.73
203.442	56.83
203.661	46.59
203.879	-0.51
204.098	42.5
204.317	30.21
204.536	40.45
204.755	19.97
204.974	81.41
205.193	44.54
205.411	38.4
205.63	-16.9
205.849	56.83
206.068	50.69
206.287	13.82
206.505	67.07
206.724	44.54
206.943	77.31
207.162	-4.61
207.381	120.32
207.599	36.35
207.818	-2.56
208.037	17.92
208.255	38.4
208.474	-25.09
208.693	-2.56
208.911	-4.61
209.13	19.97
209.349	-47.62
209.567	-0.51
209.786	83.45
210.005	34.3
210.223	1.54
210.442	54.78
210.661	15.87
210.879	-70.14
211.098	7.68
211.316	19.97
211.535	93.69
211.753	48.64
211.972	50.69
212.191	-6.66
212.409	40.45
212.628	-37.38
212.846	15.87
213.065	-49.66
213.283	24.06
213.502	38.4
213.72	-20.99
213.938	-94.72
214.157	-10.75
214.375	50.69
214.594	-70.14
214.812	24.06
215.031	34.3
215.249	50.69
215.467	-23.04
215.686	32.26
215.904	-25.09
216.122	-12.8
216.341	44.54
216.559	24.06
216.778	-18.94
216.996	9.73
217.214	-12.8
217.432	-31.23
217.651	-43.52
217.869	-4.61
218.087	-16.9
218.306	11.78
218.524	120.32
218.742	-16.9
218.96	38.4
219.179	3.58
219.397	81.41
219.615	69.12
219.833	19.97
220.051	30.21
220.27	9.73
220.488	-33.28
220.706	-33.28
220.924	26.11
221.142	81.41
221.36	-4.61
221.578	36.35
221.796	30.21
222.015	-6.66
222.233	-25.09
222.451	79.36
222.669	32.26
222.887	79.36
223.105	-8.7
223.323	34.3
223.541	7.68
223.759	-25.09
223.977	-92.67
224.195	32.26
224.413	79.36
224.631	24.06
224.849	-66.05
225.067	65.02
225.285	1.54
225.503	13.82
225.721	-20.99
225.939	56.83
226.157	32.26
226.375	69.12
226.592	-10.75
226.81	24.06
227.028	58.88
227.246	-29.18
227.464	15.87
227.682	60.93
227.9	9.73
228.117	-16.9
228.335	42.5
228.553	44.54
228.771	9.73
228.989	1.54
229.206	11.78
229.424	97.79
229.642	89.6
229.86	7.68
230.077	65.02
230.295	48.64
230.513	-8.7
230.731	-68.09
230.948	13.82
231.166	32.26
231.384	-0.51
231.601	-68.09
231.819	58.88
232.037	38.4
232.254	38.4
232.472	40.45
232.689	7.68
232.907	54.78
233.125	32.26
233.342	30.21
233.56	3.58
233.777	-14.85
233.995	19.97
234.213	19.97
234.43	56.83
234.648	-0.51
234.865	69.12
235.083	44.54
235.3	58.88
235.518	5.63
235.735	-2.56
235.953	46.59
236.17	40.45
236.388	-0.51
236.605	-4.61
236.822	-6.66
237.04	22.02
237.257	42.5
237.475	-66.05
237.692	52.74
237.909	62.98
238.127	7.68
238.344	-0.51
238.562	-31.23
238.779	-59.9
238.996	-41.47
239.214	67.07
239.431	19.97
239.648	3.58
239.865	69.12
240.083	-2.56
240.3	-57.86
240.517	-12.8
240.735	38.4
240.952	56.83
241.169	48.64
241.386	93.69
241.603	22.02
241.821	28.16
242.038	40.45
242.255	-27.14
242.472	77.31
242.689	77.31
242.907	54.78
243.124	15.87
243.341	19.97
243.558	44.54
243.775	13.82
243.992	-64
244.209	-29.18
244.426	-51.71
244.643	-33.28
244.86	34.3
245.078	50.69
245.295	-49.66
245.512	44.54
245.729	-39.42
245.946	19.97
246.163	24.06
246.38	-6.66
246.597	26.11
246.814	1.54
247.031	-16.9
247.248	5.63
247.464	7.68
247.681	24.06
247.898	87.55
248.115	-33.28
248.332	46.59
248.549	65.02
248.766	34.3
248.983	85.5
249.2	-31.23
249.417	-74.24
249.633	15.87
249.85	-27.14
250.067	24.06
250.284	75.26
250.501	52.74
250.717	9.73
250.934	13.82
251.151	46.59
251.368	62.98
251.585	30.21
251.801	-0.51
252.018	60.93
252.235	13.82
252.451	52.74
252.668	54.78
252.885	3.58
253.102	17.92
253.318	-33.28
253.535	24.06
253.752	-37.38
253.968	-41.47
254.185	-4.61
254.401	-0.51
254.618	69.12
254.835	46.59
255.051	28.16
255.268	15.87
255.484	-10.75
255.701	87.55
255.917	56.83
256.134	52.74
256.351	42.5
256.567	42.5
256.784	50.69
257	11.78
257.217	22.02
257.433	19.97
257.65	-10.75
257.866	69.12
258.082	62.98
258.299	9.73
258.515	28.16
258.732	9.73
258.948	60.93
259.165	13.82
259.381	-59.9
259.597	36.35
259.814	7.68
260.03	34.3
260.246	11.78
260.463	-6.66
260.679	48.64
260.895	36.35
261.112	81.41
261.328	-33.28
261.544	40.45
261.761	85.5
261.977	38.4
262.193	-20.99
262.409	24.06
262.626	83.45
262.842	52.74
263.058	38.4
263.274	7.68
263.49	1.54
263.707	58.88
263.923	19.97
264.139	-4.61
264.355	24.06
264.571	73.21
264.787	36.35
265.004	91.65
265.22	-29.18
265.436	-6.66
265.652	17.92
265.868	15.87
266.084	69.12
266.3	-45.57
266.516	105.98
266.732	15.87
266.948	52.74
267.164	15.87
267.38	44.54
267.596	1.54
267.812	38.4
268.028	38.4
268.244	1.54
268.46	85.5
268.676	26.11
268.892	34.3
269.108	-2.56
269.324	50.69
269.54	32.26
269.756	60.93
269.972	-64
270.188	34.3
270.403	17.92
270.619	-6.66
270.835	-12.8
271.051	-29.18
271.267	93.69
271.483	91.65
271.698	79.36
271.914	30.21
272.13	-14.85
272.346	42.5
272.562	97.79
272.777	9.73
272.993	3.58
273.209	-33.28
273.425	1.54
273.64	-66.05
273.856	-20.99
274.072	73.21
274.287	50.69
274.503	26.11
274.719	-14.85
274.934	30.21
275.15	75.26
275.366	42.5
275.581	-39.42
275.797	7.68
276.012	-18.94
276.228	42.5
276.444	-0.51
276.659	1.54
276.875	85.5
277.09	-18.94
277.306	34.3
277.521	17.92
277.737	22.02
277.952	-8.7
278.168	89.6
278.383	50.69
278.599	1.54
278.814	73.21
279.03	3.58
279.245	85.5
279.461	42.5
279.676	95.74
279.892	-20.99
280.107	48.64
280.322	71.17
280.538	22.02
280.753	30.21
280.969	9.73
281.184	3.58
281.399	73.21
281.615	50.69
281.83	46.59
282.045	11.78
282.26	7.68
282.476	-0.51
282.691	36.35
282.906	19.97
283.122	62.98
283.337	1.54
283.552	-37.38
283.767	9.73
283.983	101.89
284.198	-14.85
284.413	7.68
284.628	-10.75
284.843	-16.9
285.058	60.93
285.274	40.45
285.489	15.87
285.704	1.54
285.919	22.02
286.134	46.59
286.349	28.16
286.564	-0.51
286.779	1.54
286.995	7.68
287.21	42.5
287.425	-45.57
287.64	15.87
287.855	56.83
288.07	-37.38
288.285	-8.7
288.5	5.63
288.715	-16.9
288.93	50.69
289.145	56.83
289.36	95.74
289.575	38.4
289.79	-14.85
290.004	-4.61
290.219	-4.61
290.434	9.73
290.649	34.3
290.864	32.26
291.079	13.82
291.294	-10.75
291.509	15.87
291.724	-14.85
291.938	-16.9
292.153	50.69
292.368	40.45
292.583	-8.7
292.798	46.59
293.012	42.5
293.227	5.63
293.442	91.65
293.657	97.79
293.871	40.45
294.086	-2.56
294.301	-2.56
294.516	67.07
294.73	58.88
294.945	-96.77
295.16	50.69
295.374	15.87
295.589	1.54
295.804	-47.62
296.018	54.78
296.233	56.83
296.447	-0.51
296.662	67.07
296.877	17.92
297.091	1.54
297.306	34.3
297.52	28.16
297.735	71.17
297.949	26.11
298.164	95.74
298.378	19.97
298.593	-0.51
298.807	-18.94
299.022	7.68
299.236	34.3
299.451	9.73
299.665	36.35
299.88	40.45
300.094	-16.9
300.309	40.45
300.523	-10.75
300.737	108.03
300.952	24.06
301.166	99.84
301.381	22.02
301.595	-45.57
301.809	-12.8
302.024	75.26
302.238	30.21
302.452	44.54
302.667	11.78
302.881	50.69
303.095	26.11
303.309	28.16
303.524	65.02
303.738	58.88
303.952	32.26
304.166	48.64
304.381	32.26
304.595	22.02
304.809	-49.66
305.023	-0.51
305.237	11.78
305.452	5.63
305.666	22.02
305.88	79.36
306.094	50.69
306.308	30.21
306.522	91.65
306.736	24.06
306.95	58.88
307.164	50.69
307.379	26.11
307.593	58.88
307.807	15.87
308.021	48.64
308.235	60.93
308.449	50.69
308.663	28.16
308.877	52.74
309.091	-35.33
309.305	-0.51
309.519	11.78
309.733	32.26
309.947	-76.29
310.161	40.45
310.374	24.06
310.588	-18.94
310.802	-8.7
311.016	44.54
311.23	73.21
311.444	44.54
311.658	5.63
311.872	9.73
312.085	-4.61
312.299	48.64
312.513	42.5
312.727	46.59
312.941	50.69
313.154	-37.38
313.368	42.5
313.582	-31.23
313.796	91.65
314.009	42.5
314.223	-35.33
314.437	44.54
314.651	11.78
314.864	83.45
315.078	-104.96
315.292	9.73
315.505	-33.28
315.719	-39.42
315.933	67.07
316.146	1.54
316.36	73.21
316.573	-47.62
316.787	93.69
317.001	11.78
317.214	-2.56
317.428	85.5
317.641	62.98
317.855	1.54
318.068	-16.9
318.282	-53.76
318.495	-39.42
318.709	93.69
318.922	7.68
319.136	128.51
319.349	-0.51
319.563	15.87
319.776	38.4
319.99	-59.9
320.203	1.54
320.417	34.3
320.63	105.98
320.843	19.97
321.057	46.59
321.27	17.92
321.483	26.11
321.697	-25.09
321.91	67.07
322.124	40.45
322.337	42.5
322.55	71.17
322.763	69.12
322.977	-49.66
323.19	-12.8
323.403	32.26
323.617	50.69
323.83	60.93
324.043	58.88
324.256	15.87
324.469	38.4
324.683	40.45
324.896	50.69
325.109	-14.85
325.322	-10.75
325.535	48.64
325.748	22.02
325.962	89.6
326.175	62.98
326.388	73.21
326.601	38.4
326.814	-51.71
327.027	9.73
327.24	40.45
327.453	-39.42
327.666	32.26
327.879	60.93
328.092	50.69
328.305	-16.9
328.518	28.16
328.731	48.64
328.944	44.54
329.157	52.74
329.37	50.69
329.583	17.92
329.796	19.97
330.009	71.17
330.222	-12.8
330.435	-4.61
330.648	11.78
330.861	-8.7
331.073	19.97
331.286	22.02
331.499	46.59
331.712	-6.66
331.925	46.59
332.138	-12.8
332.35	62.98
332.563	-31.23
332.776	-41.47
332.989	-6.66
333.202	58.88
333.414	-18.94
333.627	89.6
333.84	-10.75
334.053	17.92
334.265	48.64
334.478	38.4
334.691	-39.42
334.903	42.5
335.116	54.78
335.329	-27.14
335.541	46.59
335.754	79.36
335.966	-53.76
336.179	58.88
336.392	-0.51
336.604	-74.24
336.817	40.45
337.029	19.97
337.242	22.02
337.454	89.6
337.667	103.93
337.88	73.21
338.092	11.78
338.305	-35.33
338.517	26.11
338.729	38.4
338.942	-14.85
339.154	-4.61
339.367	79.36
339.579	83.45
339.792	40.45
340.004	48.64
340.217	48.64
340.429	58.88
340.641	-14.85
340.854	-51.71
341.066	-25.09
341.278	17.92
341.491	44.54
341.703	62.98
341.915	34.3
342.128	71.17
342.34	-20.99
342.552	44.54
342.764	-12.8
342.977	75.26
343.189	13.82
343.401	97.79
343.613	87.55
343.826	22.02
344.038	36.35
344.25	40.45
344.462	9.73
344.674	-23.04
344.886	44.54
345.099	17.92
345.311	19.97
345.523	36.35
345.735	101.89
345.947	42.5
346.159	40.45
346.371	48.64
346.583	28.16
346.795	60.93
347.007	-41.47
347.219	-25.09
347.431	48.64
347.643	148.99
347.855	89.6
348.067	15.87
348.279	36.35
348.491	46.59
348.703	-80.38
348.915	-59.9
349.127	69.12
349.339	56.83
349.551	-43.52
349.763	83.45
349.975	3.58
350.187	67.07
350.399	17.92
350.61	114.17
350.822	15.87
351.034	73.21
351.246	50.69
351.458	60.93
351.669	-6.66
351.881	-0.51
352.093	11.78
352.305	-55.81
352.517	67.07
352.728	50.69
352.94	-12.8
353.152	77.31
353.363	36.35
353.575	1.54
353.787	62.98
353.999	48.64
354.21	50.69
354.422	85.5
354.633	95.74
354.845	-20.99
355.057	-23.04
355.268	103.93
355.48	42.5
355.692	44.54
355.903	81.41
356.115	19.97
356.326	71.17
356.538	50.69
356.749	101.89
356.961	101.89
357.172	19.97
357.384	9.73
357.595	-4.61
357.807	58.88
358.018	19.97
358.23	7.68
358.441	34.3
358.653	69.12
358.864	54.78
359.075	-0.51
359.287	36.35
359.498	67.07
359.709	73.21
359.921	89.6
360.132	34.3
360.344	50.69
360.555	22.02
360.766	17.92
360.977	-39.42
361.189	71.17
361.4	-16.9
361.611	24.06
361.823	19.97
362.034	-20.99
362.245	52.74
362.456	69.12
362.667	38.4
362.879	105.98
363.09	91.65
363.301	75.26
363.512	40.45
363.723	26.11
363.935	-12.8
364.146	32.26
364.357	42.5
364.568	44.54
364.779	48.64
364.99	67.07
365.201	93.69
365.412	34.3
365.623	67.07
365.834	46.59
366.045	28.16
366.256	-8.7
366.467	28.16
366.678	24.06
366.889	-45.57
367.1	1.54
367.311	19.97
367.522	77.31
367.733	11.78
367.944	87.55
368.155	11.78
368.366	-8.7
368.577	48.64
368.788	67.07
368.999	50.69
369.209	48.64
369.42	-18.94
369.631	56.83
369.842	-31.23
370.053	34.3
370.264	40.45
370.474	22.02
370.685	50.69
370.896	26.11
371.107	91.65
371.317	22.02
371.528	-25.09
371.739	30.21
371.95	97.79
372.16	56.83
372.371	30.21
372.582	77.31
372.792	28.16
373.003	69.12
373.214	99.84
373.424	17.92
373.635	142.85
373.846	42.5
374.056	34.3
374.267	-23.04
374.477	75.26
374.688	-4.61
374.898	97.79
375.109	54.78
375.319	3.58
375.53	7.68
375.74	69.12
375.951	69.12
376.161	71.17
376.372	50.69
376.582	58.88
376.793	81.41
377.003	-20.99
377.214	11.78
377.424	17.92
377.635	58.88
377.845	26.11
378.055	58.88
378.266	-0.51
378.476	11.78
378.686	-20.99
378.897	105.98
379.107	26.11
379.317	-0.51
379.528	54.78
379.738	34.3
379.948	-33.28
380.158	28.16
380.369	40.45
380.579	13.82
380.789	24.06
380.999	32.26
381.21	95.74
381.42	32.26
381.63	-49.66
381.84	-4.61
382.05	79.36
382.261	-39.42
382.471	-18.94
382.681	-27.14
382.891	50.69
383.101	5.63
383.311	69.12
383.521	-18.94
383.731	-6.66
383.941	32.26
384.151	-16.9
384.361	42.5
384.571	54.78
384.781	-49.66
384.991	-0.51
385.201	91.65
385.411	120.32
385.621	32.26
385.831	1.54
386.041	7.68
386.251	77.31
386.461	81.41
386.671	83.45
386.881	103.93
387.091	54.78
387.301	36.35
387.511	36.35
387.72	38.4
387.93	-18.94
388.14	13.82
388.35	34.3
388.56	89.6
388.769	32.26
388.979	19.97
389.189	67.07
389.399	22.02
389.609	62.98
389.818	81.41
390.028	32.26
390.238	40.45
390.447	-37.38
390.657	-31.23
390.867	19.97
391.076	28.16
391.286	56.83
391.496	56.83
391.705	22.02
391.915	95.74
392.125	77.31
392.334	56.83
392.544	32.26
392.753	42.5
392.963	-6.66
393.172	-12.8
393.382	32.26
393.591	65.02
393.801	85.5
394.01	50.69
394.22	81.41
394.429	73.21
394.639	-4.61
394.848	89.6
395.058	67.07
395.267	26.11
395.477	56.83
395.686	48.64
395.895	54.78
396.105	151.04
396.314	46.59
396.524	77.31
396.733	146.94
396.942	73.21
397.152	-16.9
397.361	62.98
397.57	44.54
397.78	134.65
397.989	28.16
398.198	148.99
398.407	60.93
398.617	103.93
398.826	-0.51
399.035	130.56
399.244	62.98
399.453	11.78
399.663	38.4
399.872	44.54
400.081	9.73
400.29	120.32
400.499	36.35
400.708	148.99
400.917	69.12
401.127	60.93
401.336	110.08
401.545	58.88
401.754	138.75
401.963	87.55
402.172	50.69
402.381	73.21
402.59	99.84
402.799	60.93
403.008	155.13
403.217	103.93
403.426	28.16
403.635	89.6
403.844	58.88
404.053	181.76
404.262	124.41
404.471	89.6
404.68	132.61
404.888	54.78
405.097	122.37
405.306	93.69
405.515	97.79
405.724	50.69
405.933	138.75
406.142	194.05
406.35	116.22
406.559	73.21
406.768	95.74
406.977	165.37
407.185	124.41
407.394	108.03
407.603	126.46
407.812	142.85
408.02	105.98
408.229	179.71
408.438	224.76
408.646	198.14
408.855	202.24
409.064	134.65
409.272	120.32
409.481	183.81
409.69	204.28
409.898	118.27
410.107	239.1
410.315	265.72
410.524	200.19
410.733	263.68
410.941	179.71
411.15	241.15
411.358	335.35
411.567	271.87
411.775	212.48
411.984	323.07
412.192	296.44
412.401	323.07
412.609	349.69
412.818	380.41
413.026	376.31
413.234	341.5
413.443	298.49
413.651	402.94
413.86	380.41
414.068	359.93
414.276	452.09
414.485	396.79
414.693	421.37
414.901	476.66
415.11	466.42
415.318	437.75
415.526	474.62
415.734	531.96
415.943	538.1
416.151	488.95
416.359	536.06
416.567	548.34
416.776	652.79
416.984	552.44
417.192	708.09
417.4	699.89
417.608	638.45
417.817	706.04
418.025	687.61
418.233	783.86
418.441	771.57
418.649	765.43
418.857	957.94
419.065	843.25
419.273	882.16
419.481	951.79
419.689	1050.1
419.897	1048.05
420.105	1025.52
420.313	1056.24
420.521	1119.73
420.729	1123.82
420.937	1119.73
421.145	1228.27
421.353	1209.84
421.561	1287.66
421.769	1428.97
421.977	1359.34
422.185	1328.62
422.393	1492.46
422.601	1557.99
422.809	1471.98
423.017	1506.79
423.224	1740.26
423.432	1721.83
423.64	1695.21
423.848	1926.63
424.056	1809.89
424.263	1947.11
424.471	1902.05
424.679	2076.13
424.887	2057.7
425.094	2203.1
425.302	2131.42
425.51	2235.87
425.718	2223.58
425.925	2412
426.133	2534.87
426.341	2504.15
426.548	2680.28
426.756	2639.32
426.964	2809.3
427.171	3007.95
427.379	2934.23
427.586	3096.02
427.794	3063.25
428.001	3292.62
428.209	3392.97
428.417	3313.1
428.624	3587.53
428.832	3540.43
429.039	3634.63
429.247	3528.14
429.454	3913.16
429.662	4124.1
429.869	3868.1
430.076	4226.5
430.284	3849.67
430.491	4249.02
430.699	4408.76
430.906	4421.05
431.114	4462.01
431.321	4644.28
431.528	4715.96
431.736	5152.18
431.943	5299.63
432.15	5107.12
432.358	5154.23
432.565	5584.3
432.772	5461.42
432.979	5766.57
433.187	5825.96
433.394	5893.54
433.601	6307.23
433.808	6389.15
434.016	6335.9
434.223	6579.61
434.43	7015.83
434.637	6956.44
434.844	7304.59
435.052	7624.08
435.259	7361.94
435.466	7312.78
435.673	7509.39
435.88	7726.47
436.087	8344.96
436.294	8347.01
436.501	8066.44
436.708	8271.23
436.915	8729.98
437.122	8887.67
437.329	9151.86
437.537	9215.35
437.743	9299.31
437.95	9192.82
438.157	9874.79
438.364	10218.85
438.571	10159.46
438.778	10077.54
438.985	11068.76
439.192	10655.07
439.399	11042.14
439.606	10843.48
439.813	11519.31
440.02	12160.33
440.227	12008.78
440.433	11787.6
440.64	12324.16
440.847	11980.11
441.054	12373.32
441.261	13114.68
441.467	13014.33
441.674	13385.01
441.881	13747.5
442.088	13829.42
442.294	13665.58
442.501	14054.7
442.708	14476.58
442.914	14519.59
443.121	15404.31
443.328	15107.35
443.534	16248.07
443.741	15811.85
443.948	15510.8
444.154	16657.67
444.361	16526.6
444.568	16686.34
444.774	16909.57
444.981	17059.07
445.187	17503.48
445.394	17939.69
445.6	17771.76
445.807	19666.13
446.013	18662.63
446.22	19236.06
446.426	19809.49
446.633	20081.87
446.839	20796.61
447.046	19934.42
447.252	20956.35
447.459	21089.47
447.665	21003.46
447.871	21974.19
448.078	23030.94
448.284	21906.61
448.491	22209.71
448.697	23375
448.903	23925.91
449.11	23725.21
449.316	23245.98
449.522	23825.56
449.728	24290.45
449.935	24609.93
450.141	24374.41
450.347	25121.92
450.553	24190.09
450.76	24814.73
450.966	25611.39
451.172	25330.81
451.378	25904.24
451.584	25459.84
451.791	26141.81
451.997	25957.49
452.203	26338.41
452.409	26451.05
452.615	26229.87
452.821	25320.57
453.027	25062.53
453.233	26317.93
453.44	25476.22
453.646	25646.2
453.852	25316.48
454.058	26063.99
454.264	25312.38
454.47	25894
454.676	25302.14
454.882	26027.12
455.088	23964.82
455.294	24206.48
455.5	24853.64
455.705	24962.18
455.911	23882.9
456.117	23415.96
456.323	23041.18
456.529	21966
456.735	22748.32
456.941	22467.75
457.147	21867.7
457.352	21142.72
457.558	21062.85
457.764	21107.9
457.97	20901.06
458.176	20206.8
458.381	20399.3
458.587	19596.5
458.793	19332.31
458.999	18267.37
459.204	19528.92
459.41	19045.6
459.616	17761.52
459.821	17796.34
460.027	17782
460.233	17468.66
460.438	16721.15
460.644	16956.67
460.85	15777.04
461.055	16008.46
461.261	15719.7
461.466	14607.65
461.672	14206.25
461.878	15250.71
462.083	14486.82
462.289	14136.62
462.494	13595.95
462.7	13096.25
462.905	12733.76
463.111	13260.09
463.316	13493.55
463.522	12975.42
463.727	13043
463.932	13311.28
464.138	13153.59
464.343	13172.02
464.549	12655.93
464.754	12901.69
464.959	13012.28
465.165	12967.23
465.37	12305.73
465.575	12049.74
465.781	12461.38
465.986	12684.61
466.191	12141.89
466.397	12088.65
466.602	11421.01
466.807	11949.39
467.012	11908.43
467.218	11863.37
467.423	11711.82
467.628	11799.88
467.833	12244.29
468.038	11889.99
468.244	11347.28
468.449	11896.14
468.654	11447.63
468.859	11554.13
469.064	11339.09
469.269	10935.64
469.474	11050.33
469.679	11156.82
469.885	10970.46
470.09	11181.4
470.295	10794.33
470.5	10820.95
470.705	11005.27
470.91	10661.21
471.115	10456.42
471.32	10841.43
471.525	10564.96
471.73	10437.98
471.935	10366.31
472.139	10009.96
472.344	9979.24
472.549	9643.37
472.754	9854.31
472.959	9676.14
473.164	9409.9
473.369	9162.1
473.574	9633.13
473.778	9534.83
473.983	9381.23
474.188	9350.51
474.393	8895.86
474.598	9153.91
474.802	8797.56
475.007	8885.62
475.212	8760.7
475.417	8476.03
475.621	8445.31
475.826	8498.56
476.031	8326.53
476.235	8402.3
476.44	8322.43
476.645	8064.39
476.849	8172.93
477.054	8078.72
477.259	8033.67
477.463	7853.45
477.668	7562.64
477.872	7886.22
478.077	7548.3
478.282	7542.16
478.486	7329.17
478.691	7529.87
478.895	7591.31
479.1	7277.97
479.304	7331.22
479.509	7196.05
479.713	7245.2
479.918	7185.81
480.122	7077.27
480.326	7294.35
480.531	7026.07
480.735	7099.8
480.94	7067.03
481.144	7103.89
481.348	6989.21
481.553	7040.4
481.757	6682.01
481.961	6946.2
482.166	6880.66
482.37	6938.01
482.574	6774.17
482.778	6901.14
482.983	6966.68
483.187	6929.81
483.391	6964.63
483.595	6823.32
483.8	6690.2
484.004	6835.61
484.208	7064.98
484.412	6921.62
484.616	6864.28
484.821	7069.08
485.025	6796.7
485.229	7026.07
485.433	6927.77
485.637	6819.22
485.841	6813.08
486.045	6817.18
486.249	6907.29
486.453	6821.27
486.657	7157.14
486.861	6854.04
487.065	6817.18
487.269	6899.09
487.473	6903.19
487.677	7048.6
487.881	7126.42
488.085	6911.38
488.289	7005.59
488.493	7032.21
488.697	7021.97
488.901	7067.03
489.105	7071.12
489.309	7185.81
489.512	7185.81
489.716	7153.04
489.92	7036.31
490.124	7239.06
490.328	7382.42
490.531	7204.24
490.735	7273.87
490.939	7349.65
491.143	7392.66
491.346	7376.27
491.55	7495.05
491.754	7435.66
491.958	7447.95
492.161	7527.82
492.365	7615.88
492.569	7648.65
492.772	7667.08
492.976	7644.56
493.18	7654.8
493.383	7810.44
493.587	7902.6
493.79	7871.88
493.994	8019.33
494.197	8009.09
494.401	8195.46
494.605	8109.44
494.808	8166.79
495.012	8367.49
495.215	8301.95
495.419	8510.85
495.622	8406.4
495.825	8570.24
496.029	8527.23
496.232	8852.86
496.436	8750.46
496.639	9078.13
496.843	8926.58
497.046	9194.87
497.249	9078.13
497.453	9397.62
497.656	9516.4
497.859	9604.46
498.063	9479.54
498.266	10032.49
498.469	9942.38
498.673	10046.82
498.876	10151.27
499.079	10161.51
499.282	10245.48
499.485	10440.03
499.689	10601.82
499.892	10575.2
500.095	10767.71
500.298	11038.04
500.501	10960.22
500.705	11201.88
500.908	11527.5
501.111	11576.66
501.314	11857.23
501.517	11693.39
501.72	12113.22
501.923	12123.46
502.126	12553.54
502.329	12627.26
502.532	12590.4
502.735	12838.2
502.938	12746.05
503.141	13024.57
503.344	13245.75
503.547	13106.49
503.75	13507.89
503.953	13790.51
504.156	13770.03
504.359	13901.1
504.562	14337.32
504.765	14261.54
504.968	14497.06
505.17	14689.57
505.373	14804.25
505.576	15066.39
505.779	15273.24
505.982	15285.53
506.185	15858.96
506.387	15813.9
506.59	16186.63
506.793	16289.03
506.996	16430.34
507.198	16782.59
507.401	16700.67
507.604	16864.51
507.807	17143.03
508.009	17444.09
508.212	17390.84
508.415	17874.16
508.617	18070.76
508.82	17982.7
509.022	18038
509.225	18914.53
509.428	18865.38
509.63	19049.69
509.833	19440.86
510.035	19412.18
510.238	19309.79
510.44	19895.5
510.643	20311.24
510.845	20399.3
511.048	20518.09
511.25	20778.18
511.453	20989.12
511.655	21683.38
511.858	21562.55
512.06	21587.13
512.262	22066.35
512.465	22027.44
512.667	22203.57
512.87	22615.21
513.072	22559.91
513.274	23291.04
513.477	23379.1
513.679	23159.97
513.881	24001.68
514.084	23958.67
514.286	24349.84
514.488	24401.04
514.69	25222.27
514.893	25009.28
515.095	25568.38
515.297	25504.89
515.499	25513.08
515.701	26049.65
515.904	26268.78
516.106	26616.94
516.308	26731.62
516.51	27161.7
516.712	27096.16
516.914	27618.39
517.116	27749.46
517.318	27991.12
517.52	28533.84
517.722	28324.94
517.925	28750.92
518.127	29137.99
518.329	29408.32
518.531	29160.52
518.733	29756.47
518.935	30002.23
519.136	30088.24
519.338	30624.81
519.54	30297.14
519.742	31228.96
519.944	31157.28
520.146	31540.25
520.348	31665.18
520.55	31714.33
520.752	31900.7
520.954	32349.2
521.155	32357.39
521.357	33004.55
521.559	33508.35
521.761	33903.61
521.963	33668.09
522.164	33782.78
522.366	34311.16
522.568	34184.18
522.77	34407.41
522.971	34941.93
523.173	34634.74
523.375	35038.19
523.576	35359.72
523.778	35429.35
523.98	35701.73
524.181	36051.93
524.383	36023.26
524.584	36482
524.786	36543.44
524.988	36504.53
525.189	37133.26
525.391	36998.09
525.592	37131.21
525.794	37542.85
525.995	37215.18
526.197	37374.92
526.398	37647.3
526.6	37882.81
526.801	38167.48
527.003	38341.56
527.204	38511.54
527.406	38818.74
527.607	38634.42
527.808	38966.19
528.01	38456.25
528.211	39193.51
528.412	39388.07
528.614	39039.92
528.815	39136.17
529.016	40000.41
529.218	39762.85
529.419	39613.35
529.62	39791.52
529.822	39355.3
530.023	40027.04
530.224	40065.95
530.425	39959.45
530.626	39660.45
530.828	39611.3
531.029	40995.73
531.23	39984.03
531.431	40207.26
531.632	40328.09
531.833	40752.02
532.035	40881.04
532.236	40666
532.437	40323.99
532.638	40471.45
532.839	40733.59
533.04	41192.33
533.241	40616.85
533.442	41122.7
533.643	40866.7
533.844	40842.13
534.045	41184.14
534.246	40616.85
534.447	41403.27
534.648	41139.08
534.849	41249.67
535.05	40954.77
535.251	41468.81
535.451	40997.77
535.652	41393.03
535.853	41464.71
536.054	41796.48
536.255	41122.7
536.456	41214.86
536.657	42023.81
536.857	41614.21
537.058	40975.25
537.259	41479.05
537.46	41935.74
537.66	41773.95
537.861	41823.11
538.062	41579.4
538.263	41821.06
538.463	41466.76
538.664	41364.36
538.865	41675.65
539.065	42083.2
539.266	41511.81
539.466	41900.93
539.667	41606.02
539.868	41767.81
540.068	41626.5
540.269	42097.53
540.469	42302.33
540.67	41517.96
540.87	41814.91
541.071	41827.2
541.271	42058.62
541.472	41642.88
541.672	41511.81
541.873	41864.07
542.073	41477
542.274	42173.31
542.474	41655.17
542.675	41454.47
542.875	42244.99
543.075	42136.45
543.276	41700.23
543.476	42034.05
543.676	41565.06
543.877	41962.37
544.077	41999.23
544.277	41929.6
544.478	42081.15
544.678	42097.53
544.878	42044.29
545.078	42195.84
545.279	41929.6
545.479	41724.8
545.679	42007.42
545.879	41866.11
546.079	41839.49
546.28	41862.02
546.48	41649.03
546.68	42175.36
546.88	42138.49
547.08	41874.31
547.28	41515.91
547.48	41399.18
547.68	41714.56
547.88	41589.64
548.081	42197.88
548.281	41745.28
548.481	41812.87
548.681	42146.68
548.881	42062.72
549.081	41804.67
549.28	41689.99
549.48	41945.98
549.68	42011.52
549.88	42775.41
550.08	41859.97
550.28	42251.13
550.48	41798.53
550.68	42419.06
550.88	41968.51
551.08	41737.09
551.279	41673.6
551.479	41603.97
551.679	41704.32
551.879	41661.32
552.079	42204.03
552.278	41421.7
552.478	41745.28
552.678	41835.39
552.878	41833.35
553.077	41855.87
553.277	41399.18
553.477	42398.59
553.676	41628.55
553.876	41868.16
554.076	41868.16
554.275	41941.89
554.475	41509.77
554.674	41657.22
554.874	41640.84
555.074	41255.82
555.273	41776
555.473	41442.18
555.672	41323.4
555.872	41313.16
556.071	41894.78
556.271	41773.95
556.47	41401.22
556.67	41323.4
556.869	41411.46
557.068	41634.69
557.268	41036.69
557.467	41362.31
557.667	41843.59
557.866	41485.19
558.065	41421.7
558.265	40983.44
558.464	41436.04
558.663	41499.53
558.863	40727.44
559.062	41304.97
559.261	40453.01
559.461	41448.33
559.66	40780.69
559.859	41261.96
560.058	41010.06
560.258	41347.98
560.457	40663.96
560.656	40995.73
560.855	40803.22
561.054	41259.91
561.253	40508.31
561.453	40960.91
561.652	40897.42
561.851	41563.01
562.05	40625.04
562.249	40981.39
562.448	41128.84
562.647	40764.31
562.846	40905.62
563.045	40807.31
563.244	40471.45
563.443	40946.58
563.642	40199.07
563.841	40536.98
564.04	40496.02
564.239	40768.4
564.438	40573.84
564.637	40647.57
564.836	41028.49
565.035	40381.34
565.234	40907.66
565.432	40405.91
565.631	40643.48
565.83	40539.03
566.029	40315.8
566.228	40569.75
566.427	40356.76
566.625	40412.06
566.824	40190.87
567.023	40690.58
567.222	39580.58
567.42	40719.25
567.619	40487.83
567.818	39918.49
568.016	39828.38
568.215	40797.07
568.414	40000.41
568.612	40438.68
568.811	39990.17
569.01	40379.29
569.208	39619.49
569.407	39799.71
569.605	39586.72
569.804	40215.45
570.002	40082.33
570.201	39781.28
570.4	39740.32
570.598	39713.7
570.797	39187.37
570.995	39306.15
571.193	39449.51
571.392	39859.1
571.59	39424.93
571.789	39420.84
571.987	39240.62
572.186	39486.37
572.384	39216.04
572.582	39570.34
572.781	39127.98
572.979	39111.6
573.177	38964.14
573.376	39308.2
573.574	38855.6
573.772	39099.31
573.971	38816.69
574.169	38728.63
574.367	38339.51
574.565	38933.42
574.763	38773.68
574.962	38349.75
575.16	38241.21
575.358	38546.36
575.556	38175.67
575.754	38540.21
575.952	37587.91
576.151	38337.46
576.349	37802.94
576.547	38441.91
576.745	38218.68
576.943	38038.46
577.141	37821.37
577.339	38060.99
577.537	37542.85
577.735	37473.22
577.933	37282.76
578.131	37761.98
578.329	37213.13
578.527	37139.4
578.725	37221.32
578.923	37157.83
579.121	37018.57
579.319	37116.87
579.516	37243.85
579.714	36877.26
579.912	36959.18
580.11	36807.63
580.308	36629.46
580.506	36664.27
580.704	35961.82
580.901	36787.15
581.099	36709.33
581.297	36144.09
581.495	36244.44
581.692	36420.56
581.89	36031.45
582.088	36463.57
582.285	36180.95
582.483	36451.28
582.681	35853.28
582.878	35736.54
583.076	35767.26
583.274	35797.98
583.471	35638.24
583.669	35390.44
583.866	35314.66
584.064	35466.21
584.262	34898.92
584.459	35460.07
584.657	34882.54
584.854	35537.89
585.052	34421.75
585.249	34997.23
585.447	35085.29
585.644	34372.6
585.841	34743.28
586.039	34855.92
586.236	34243.57
586.434	33993.72
586.631	34223.09
586.828	34601.97
587.026	34282.48
587.223	34315.25
587.42	34173.94
587.618	34192.37
587.815	33807.36
588.012	33500.16
588.21	33698.81
588.407	33913.85
588.604	33494.02
588.801	33428.48
588.999	33270.79
589.196	33428.48
589.393	33285.12
589.59	32824.33
589.787	32941.07
589.984	33164.29
590.182	32955.4
590.379	33121.29
590.576	32631.82
590.773	32570.38
590.97	32521.23
591.167	32631.82
591.364	31955.99
591.561	32537.62
591.758	31968.28
591.955	31902.75
592.152	32179.22
592.349	31663.13
592.546	31943.7
592.743	31929.37
592.94	31362.08
593.137	31681.56
593.334	31603.74
593.531	31343.65
593.727	31337.51
593.924	31278.11
594.121	30932.01
594.318	31290.4
594.515	30647.34
594.712	31517.73
594.908	30880.81
595.105	30952.49
595.302	30260.27
595.499	30891.05
595.696	30628.91
595.892	30225.46
596.089	30530.61
596.286	30624.81
596.482	30518.32
596.679	30260.27
596.876	30379.06
597.072	29611.07
597.269	30241.84
597.466	29893.69
597.662	29699.13
597.859	29557.82
598.055	29654.08
598.252	29436.99
598.448	29776.95
598.645	29346.88
598.841	29242.43
599.038	29412.42
599.234	29178.95
599.431	28687.43
599.627	28970.05
599.824	29002.82
600.02	28937.29
600.217	28886.09
600.413	28580.94
600.609	28691.53
600.806	28503.12
601.002	28769.35
601.198	28308.56
601.395	28191.83
601.591	28197.97
601.787	28255.31
601.984	28187.73
602.18	28214.35
602.376	27747.42
602.572	27925.59
602.769	27845.72
602.965	27372.64
603.161	27657.31
603.357	27636.83
603.553	27341.92
603.75	27339.87
603.946	27139.17
604.142	27137.12
604.338	26844.26
604.534	27104.35
604.73	26623.08
604.926	26698.86
605.122	26915.94
605.318	26664.04
605.514	26377.33
605.71	26506.35
605.906	26494.06
606.102	26522.73
606.298	26539.12
606.494	26420.33
606.69	26188.91
606.886	26311.79
607.082	26000.5
607.278	26078.32
607.474	25754.74
607.67	26248.3
607.866	25697.4
608.062	26098.8
608.257	25654.39
608.453	25726.07
608.649	25672.82
608.845	25267.33
609.041	25799.8
609.236	25707.64
609.432	25427.07
609.628	25551.99
609.824	25465.98
610.019	25257.09
610.215	25418.88
610.411	25169.02
610.606	25142.4
610.802	25488.51
610.998	25162.88
611.193	25128.06
611.389	24927.36
611.584	24927.36
611.78	24485
611.976	24697.99
612.171	24996.99
612.367	24611.98
612.562	24589.45
612.758	24396.94
612.953	24761.48
613.149	24513.67
613.344	24220.81
613.539	24689.8
613.735	24269.97
613.93	24628.36
614.126	24347.79
614.321	24429.71
614.517	24241.29
614.712	24226.96
614.907	24110.22
615.103	24417.42
615.298	23837.84
615.493	24333.45
615.688	23860.37
615.884	24224.91
616.079	23461.02
616.274	23692.44
616.47	23743.64
616.665	23983.25
616.86	23809.17
617.055	23788.69
617.25	23487.64
617.445	23870.61
617.641	23119.01
617.836	23409.82
618.031	22766.76
618.226	23565.46
618.421	22940.83
618.616	23325.85
618.811	22809.76
619.006	23217.31
619.201	22768.8
619.396	22822.05
619.591	22619.3
619.786	22709.41
619.981	22385.83
620.176	22279.34
620.371	22570.15
620.566	22279.34
620.761	22287.53
620.956	22248.62
621.151	21873.84
621.346	21892.27
621.541	21890.23
621.735	22052.02
621.93	21398.71
622.125	21603.51
622.32	21183.68
622.515	21224.64
622.709	20950.21
622.904	21097.66
623.099	20827.33
623.294	21175.48
623.488	20794.56
623.683	20815.04
623.878	20534.47
624.072	20436.17
624.267	20466.89
624.462	20214.99
624.656	20159.69
624.851	20090.06
625.046	19866.83
625.24	19881.17
625.435	19588.31
625.629	19600.6
625.824	19442.9
626.018	19524.82
626.213	19057.89
626.407	19313.88
626.602	19059.93
626.796	19205.34
626.991	18883.81
627.185	18805.99
627.38	18736.35
627.574	18566.37
627.768	18414.82
627.963	18248.94
628.157	18212.07
628.352	18244.84
628.546	18013.42
628.74	18220.27
628.935	17591.54
629.129	17720.56
629.323	17579.25
629.517	17841.39
629.712	17534.2
629.906	17587.44
630.1	17487.09
630.294	17550.58
630.489	17167.61
630.683	17153.27
630.877	17165.56
631.071	16864.51
631.265	17130.75
631.459	16846.08
631.653	16473.35
631.848	16573.7
632.042	16418.05
632.236	16579.84
632.43	16518.4
632.624	16551.17
632.818	16256.26
633.012	16149.77
633.206	15949.07
633.4	16229.64
633.594	15719.7
633.788	15793.42
633.982	15553.81
634.176	15590.67
634.369	15473.94
634.563	15406.36
634.757	15183.13
634.951	15256.86
635.145	15607.06
635.339	15297.81
635.533	15133.98
635.726	15027.48
635.92	14773.53
636.114	15043.87
636.308	14974.24
636.501	14648.61
636.695	14769.44
636.889	14646.56
637.083	14585.12
637.276	14568.74
637.47	14279.97
637.664	14382.37
637.857	14499.11
638.051	14200.1
638.244	14001.45
638.438	14060.84
638.632	13942.06
638.825	13696.3
639.019	13602.1
639.212	13628.72
639.406	13604.14
639.599	13630.77
639.793	13409.59
639.986	13432.12
640.18	13399.35
640.373	13565.23
640.567	13186.36
640.76	13196.6
640.954	13081.91
641.147	12881.21
641.34	12934.46
641.534	12811.58
641.727	12817.72
641.92	12780.86
642.114	12754.24
642.307	12637.5
642.5	12531.01
642.694	12346.69
642.887	12401.99
643.08	12498.24
643.273	12127.56
643.467	12225.86
643.66	12156.23
643.853	12090.7
644.046	11912.52
644.239	12027.21
644.432	12193.09
644.626	11763.02
644.819	11832.65
645.012	11664.72
645.205	11656.53
645.398	11554.13
645.591	11509.07
645.784	11558.22
645.977	11369.81
646.17	11150.68
646.363	11189.59
646.556	11056.47
646.749	11136.34
646.942	11160.92
647.135	11066.71
647.328	10732.89
647.521	11113.81
647.714	10632.54
647.907	10673.5
648.099	10505.57
648.292	10704.22
648.485	10550.62
648.678	10585.44
648.871	10534.24
649.064	10214.76
649.256	10464.61
649.449	10421.6
649.642	10241.38
649.835	10253.67
650.027	9971.05
650.22	10034.53
650.413	9903.46
650.605	9713
650.798	9555.31
650.991	9694.57
651.183	9905.51
651.376	9590.13
651.568	9604.46
651.761	9383.28
651.954	9543.02
652.146	9635.18
652.339	9317.75
652.531	9332.08
652.724	9180.53
652.916	9168.24
653.109	8899.96
653.301	9110.9
653.494	9100.66
653.686	8861.05
653.879	9096.57
654.071	8930.68
654.263	8705.4
654.456	8805.75
654.648	9002.36
654.84	8570.24
655.033	8846.71
655.225	8639.87
655.417	8514.94
655.61	8547.71
655.802	8535.42
655.994	8328.58
656.186	8441.22
656.379	8494.46
656.571	8213.89
656.763	8310.15
656.955	8340.86
657.148	8285.57
657.34	7986.57
657.532	7980.42
657.724	7865.74
657.916	7880.07
658.108	7904.65
658.3	7847.3
658.492	7865.74
658.684	7642.51
658.876	7550.35
659.068	7531.92
659.26	7505.29
659.452	7447.95
659.644	7493.01
659.836	7316.88
660.028	7417.23
660.22	7150.99
660.412	7454.09
660.604	7116.18
660.796	7243.15
660.988	7196.05
661.18	7114.13
661.372	7077.27
661.563	7042.45
661.755	7048.6
661.947	6972.82
662.139	6882.71
662.331	6770.07
662.522	6645.15
662.714	6679.96
662.906	6585.76
663.097	6788.5
663.289	6585.76
663.481	6606.24
663.673	6528.41
663.864	6469.02
664.056	6360.48
664.247	6303.14
664.439	6360.48
664.631	6288.8
664.822	6362.53
665.014	6299.04
665.205	6098.34
665.397	6139.3
665.588	6026.66
665.78	6038.95
665.971	5983.65
666.163	5936.55
666.354	6127.01
666.546	5817.77
666.737	5688.75
666.929	5911.97
667.12	5809.58
667.311	5678.51
667.503	5770.66
667.694	5633.45
667.885	5647.79
668.077	5703.08
668.268	5524.91
668.459	5436.85
668.651	5479.85
668.842	5377.45
669.033	5496.24
669.224	5326.25
669.416	5453.23
669.607	5506.48
669.798	5344.69
669.989	5352.88
670.18	5232.05
670.371	5238.19
670.563	5125.55
670.754	5014.96
670.945	5090.74
671.136	5002.68
671.327	5178.8
671.518	4922.8
671.709	4810.17
671.9	4928.95
672.091	4974
672.282	4785.59
672.473	4883.89
672.664	4879.8
672.855	4877.75
673.046	4904.37
673.237	4787.64
673.428	4701.62
673.619	4636.09
673.809	4697.53
674	4601.27
674.191	4605.37
674.382	4656.57
674.573	4636.09
674.764	4718.01
674.954	4584.89
675.145	4464.06
675.336	4517.31
675.527	4492.73
675.717	4451.77
675.908	4468.16
676.099	4304.32
676.289	4414.91
676.48	4394.43
676.671	4425.15
676.861	4292.03
677.052	4089.28
677.243	4177.34
677.433	4296.13
677.624	4265.41
677.814	4173.25
678.005	4193.73
678.195	4136.38
678.386	4136.38
678.576	4179.39
678.767	4093.38
678.957	4027.84
679.148	4189.63
679.338	3999.17
679.529	3894.72
679.719	3972.55
679.909	4074.95
680.1	3958.21
680.29	4083.14
680.481	3997.12
680.671	3925.44
680.861	3929.54
681.052	3947.97
681.242	3950.02
681.432	3941.83
681.622	3917.25
681.813	3861.96
682.003	3763.65
682.193	3882.44
682.383	3821
682.573	3866.05
682.764	3886.53
682.954	3788.23
683.144	3722.7
683.334	3737.03
683.524	3687.88
683.714	3765.7
683.904	3691.98
684.094	3739.08
684.284	3741.13
684.474	3808.71
684.664	3628.49
684.854	3790.28
685.044	3700.17
685.234	3622.34
685.424	3571.15
685.614	3739.08
685.804	3567.05
685.994	3519.95
686.184	3632.58
686.374	3612.1
686.564	3403.21
686.753	3595.72
686.943	3599.82
687.133	3587.53
687.323	3558.86
687.513	3474.89
687.702	3517.9
687.892	3481.03
688.082	3499.47
688.272	3360.2
688.461	3532.23
688.651	3481.03
688.841	3429.84
689.03	3478.99
689.22	3407.31
689.41	3472.84
689.599	3415.5
689.789	3528.14
689.979	3300.81
690.168	3368.4
690.358	3399.12
690.547	3358.16
690.737	3349.96
690.926	3427.79
691.116	3333.58
691.305	3229.13
691.495	3395.02
691.684	3249.61
691.874	3306.96
692.063	3386.83
692.252	3284.43
692.442	3429.84
692.631	3225.04
692.82	3241.42
693.01	3241.42
693.199	3304.91
693.388	3186.13
693.578	3257.81
693.767	3126.74
693.956	3141.07
694.146	3179.98
694.335	3124.69
694.524	3061.2
694.713	3165.65
694.902	3124.69
695.092	3089.87
695.281	3161.55
695.47	3022.29
695.659	3104.21
695.848	3048.91
696.037	3044.82
696.226	3003.86
696.415	2999.76
696.604	2856.4
696.793	3067.35
696.982	2989.52
697.171	2915.8
697.36	2932.18
697.549	2938.32
697.738	2868.69
697.927	2903.51
698.116	2864.6
698.305	2799.06
698.494	2825.68
698.683	2854.36
698.872	2928.08
699.061	2837.97
699.25	2661.85
699.438	2719.19
699.627	2878.93
699.816	2850.26
700.005	2727.38
700.193	2794.97
700.382	2803.16
700.571	2837.97
700.76	2778.58
700.948	2627.03
701.137	2577.88
701.326	2680.28
701.514	2604.5
701.703	2696.66
701.892	2536.92
702.08	2637.27
702.269	2520.54
702.457	2635.22
702.646	2518.49
702.834	2579.93
703.023	2596.31
703.212	2543.07
703.4	2526.68
703.589	2457.05
703.777	2590.17
703.965	2473.43
704.154	2487.77
704.342	2471.39
704.531	2594.26
704.719	2428.38
704.907	2483.67
705.096	2432.47
705.284	2389.47
705.472	2325.98
705.661	2430.43
705.849	2319.84
706.037	2254.3
706.226	2356.7
706.414	2270.69
706.602	2344.41
706.79	2328.03
706.979	2237.92
707.167	2319.84
707.355	2252.25
707.543	2237.92
707.731	2162.14
707.919	2162.14
708.107	2182.62
708.296	2260.45
708.484	2201.05
708.672	2156
708.86	2256.35
709.048	2106.85
709.236	2205.15
709.424	2065.89
709.612	2188.77
709.8	2092.51
709.988	2104.8
710.176	2006.5
710.364	2147.81
710.551	2041.31
710.739	2053.6
710.927	2031.07
711.115	2035.17
711.303	2108.9
711.491	1947.11
711.679	1949.15
711.866	1992.16
712.054	2012.64
712.242	1930.72
712.43	1932.77
712.617	1936.87
712.805	2055.65
712.993	1945.06
713.181	1877.48
713.368	1807.84
713.556	1945.06
713.744	1871.33
713.931	1912.29
714.119	1918.43
714.306	1883.62
714.494	1867.24
714.682	1869.28
714.869	1787.36
715.057	1838.56
715.244	1807.84
715.432	1867.24
715.619	1768.93
715.807	1803.75
715.994	1676.77
716.182	1670.63
716.369	1832.42
716.556	1738.21
716.744	1748.45
716.931	1682.92
717.119	1738.21
717.306	1693.16
717.493	1756.65
717.681	1691.11
717.868	1682.92
718.055	1676.77
718.242	1521.13
718.43	1707.49
718.617	1580.52
718.804	1574.38
718.991	1670.63
719.179	1598.95
719.366	1580.52
719.553	1555.94
719.74	1644.01
719.927	1453.55
720.114	1500.65
720.301	1582.57
720.488	1457.64
720.676	1486.31
720.863	1504.75
721.05	1508.84
721.237	1469.93
721.424	1447.4
721.611	1476.07
721.798	1461.74
721.985	1506.79
722.172	1431.02
722.358	1400.3
722.545	1392.11
722.732	1514.98
722.919	1361.39
723.106	1467.88
723.293	1494.51
723.48	1396.2
723.667	1385.96
723.853	1295.85
724.04	1322.48
724.227	1281.52
724.414	1299.95
724.6	1383.91
724.787	1367.53
724.974	1361.39
725.161	1326.57
725.347	1263.08
725.534	1314.28
725.72	1281.52
725.907	1322.48
726.094	1209.84
726.28	1236.46
726.467	1220.08
726.653	1256.94
726.84	1246.7
727.027	1297.9
727.213	1293.8
727.4	1238.51
727.586	1271.28
727.773	1295.85
727.959	1154.54
728.145	1224.17
728.332	1172.97
728.518	1203.69
728.705	1189.36
728.891	1246.7
729.077	1203.69
729.264	1193.45
729.45	1089.01
729.636	1172.97
729.823	1035.76
730.009	1097.2
730.195	1181.17
730.382	1113.58
730.568	1099.25
730.754	1127.92
730.94	1050.1
731.126	1084.91
731.313	1105.39
731.499	1109.49
731.685	1039.86
731.871	1058.29
732.057	1082.86
732.243	1080.82
732.429	1136.11
732.615	1041.9
732.801	1023.47
732.987	1113.58
733.173	988.66
733.359	996.85
733.545	923.12
733.731	1013.23
733.917	986.61
734.103	925.17
734.289	1041.9
734.475	998.9
734.661	1054.19
734.847	1048.05
735.033	953.84
735.219	998.9
735.404	949.75
735.59	1031.66
735.776	955.89
735.962	892.4
736.148	953.84
736.333	933.36
736.519	937.46
736.705	976.37
736.89	949.75
737.076	1043.95
737.262	886.26
737.447	957.94
737.633	859.63
737.819	822.77
738.004	902.64
738.19	781.81
738.375	953.84
738.561	884.21
738.747	876.02
738.932	861.68
739.118	886.26
739.303	896.5
739.489	898.55
739.674	876.02
739.859	779.76
740.045	878.07
740.23	814.58
740.416	919.03
740.601	785.91
740.786	884.21
740.972	855.54
741.157	816.63
741.342	785.91
741.528	798.2
741.713	814.58
741.898	769.52
742.084	744.95
742.269	763.38
742.454	781.81
742.639	753.14
742.824	787.96
743.01	800.24
743.195	796.15
743.38	660.98
743.565	767.48
743.75	740.85
743.935	755.19
744.12	763.38
744.305	695.8
744.49	777.72
744.675	720.37
744.86	775.67
745.045	783.86
745.23	749.04
745.415	773.62
745.6	691.7
745.785	751.09
745.97	640.5
746.155	716.28
746.34	683.51
746.525	763.38
746.71	708.09
746.895	642.55
747.079	660.98
747.264	638.45
747.449	761.33
747.634	693.75
747.819	589.3
748.003	697.85
748.188	607.73
748.373	599.54
748.557	706.04
748.742	656.89
748.927	681.46
749.111	634.36
749.296	579.06
749.481	638.45
749.665	609.78
749.85	585.21
750.034	577.02
750.219	581.11
750.404	581.11
750.588	552.44
750.773	589.3
750.957	548.34
751.141	540.15
751.326	617.97
751.51	591.35
751.695	605.69
751.879	652.79
752.064	622.07
752.248	495.1
752.432	511.48
752.617	548.34
752.801	656.89
752.985	603.64
753.17	531.96
753.354	581.11
753.538	529.91
753.722	452.09
753.907	517.62
754.091	560.63
754.275	566.78
754.459	536.06
754.643	534.01
754.828	495.1
755.012	513.53
755.196	511.48
755.38	488.95
755.564	513.53
755.748	447.99
755.932	456.19
756.116	519.67
756.3	544.25
756.484	478.71
756.668	515.58
756.852	443.9
757.036	445.95
757.22	466.42
757.404	480.76
757.588	472.57
757.772	505.34
757.956	521.72
758.14	462.33
758.323	480.76
758.507	437.75
758.691	417.27
758.875	421.37
759.059	439.8
759.242	472.57
759.426	544.25
759.61	437.75
759.794	439.8
759.977	378.36
760.161	400.89
760.345	445.95
760.528	384.51
760.712	452.09
760.895	435.71
761.079	509.43
761.263	368.12
761.446	407.03
761.63	409.08
761.813	425.47
761.997	458.23
762.18	396.79
762.364	402.94
762.547	390.65
762.731	404.99
762.914	384.51
763.098	302.59
763.281	447.99
763.464	450.04
763.648	361.98
763.831	361.98
764.015	355.83
764.198	470.52
764.381	445.95
764.564	421.37
764.748	376.31
764.931	450.04
765.114	355.83
765.297	429.56
765.481	384.51
765.664	370.17
765.847	433.66
766.03	462.33
766.213	269.82
766.397	398.84
766.58	341.5
766.763	355.83
766.946	351.74
767.129	423.42
767.312	378.36
767.495	380.41
767.678	364.03
767.861	398.84
768.044	357.88
768.227	376.31
768.41	407.03
768.593	357.88
768.776	355.83
768.959	347.64
769.142	378.36
769.324	306.68
769.507	388.6
769.69	294.4
769.873	388.6
770.056	361.98
770.239	366.07
770.421	378.36
770.604	325.12
770.787	378.36
770.97	364.03
771.152	327.16
771.335	374.27
771.518	304.64
771.7	341.5
771.883	351.74
772.066	316.92
772.248	337.4
772.431	374.27
772.613	294.4
772.796	394.75
772.978	335.35
773.161	308.73
773.343	329.21
773.526	292.35
773.708	372.22
773.891	345.59
774.073	347.64
774.256	241.15
774.438	357.88
774.621	368.12
774.803	353.79
774.985	302.59
775.168	378.36
775.35	245.24
775.532	286.2
775.715	341.5
775.897	343.55
776.079	314.88
776.261	294.4
776.444	318.97
776.626	282.11
776.808	435.71
776.99	347.64
777.173	351.74
777.355	290.3
777.537	269.82
777.719	359.93
777.901	288.25
778.083	271.87
778.265	245.24
778.447	282.11
778.629	292.35
778.811	267.77
778.993	220.67
779.175	216.57
779.357	275.96
779.539	288.25
779.721	321.02
779.903	339.45
780.085	239.1
780.267	253.44
780.449	216.57
780.631	247.29
780.812	294.4
780.994	257.53
781.176	275.96
781.358	278.01
781.54	228.86
781.721	226.81
781.903	245.24
782.085	228.86
782.267	296.44
782.448	275.96
782.63	247.29
782.812	226.81
782.993	316.92
783.175	212.48
783.357	206.33
783.538	241.15
783.72	228.86
783.901	237.05
784.083	204.28
784.264	275.96
784.446	179.71
784.627	218.62
784.809	189.95
784.99	220.67
785.172	257.53
785.353	165.37
785.535	257.53
785.716	163.33
785.897	204.28
786.079	214.52
786.26	198.14
786.441	249.34
786.623	192
786.804	142.85
786.985	210.43
787.167	196.09
787.348	138.75
787.529	194.05
787.71	185.85
787.891	202.24
788.073	179.71
788.254	181.76
788.435	185.85
788.616	185.85
788.797	200.19
788.978	159.23
789.159	175.61
789.34	214.52
789.522	148.99
789.703	130.56
789.884	177.66
790.065	183.81
790.246	212.48
790.427	126.46
790.607	118.27
790.788	159.23
790.969	177.66
791.15	187.9
791.331	148.99
791.512	171.52
791.693	161.28
791.874	155.13
792.054	200.19
792.235	165.37
792.416	179.71
792.597	159.23
792.778	112.13
792.958	169.47
793.139	161.28
793.32	120.32
793.5	142.85
793.681	155.13
793.862	91.65
794.042	222.72
794.223	146.94
794.404	128.51
794.584	93.69
794.765	95.74
794.945	65.02
795.126	173.57
795.306	155.13
795.487	173.57
795.667	103.93
795.848	138.75
796.028	122.37
796.209	108.03
796.389	116.22
796.57	81.41
796.75	118.27
796.93	208.38
797.111	171.52
797.291	165.37
797.471	124.41
797.652	112.13
797.832	130.56
798.012	159.23
798.192	60.93
798.373	114.17
798.553	71.17
798.733	142.85
798.913	114.17
799.093	140.8
799.274	163.33
799.454	122.37
799.634	136.7
799.814	89.6
799.994	173.57
800.174	144.89
800.354	46.59
800.534	132.61
800.714	210.43
800.894	116.22
801.074	114.17
801.254	95.74
801.434	75.26
801.614	112.13
801.794	126.46
801.974	333.31
802.154	97.79
802.334	101.89
802.514	146.94
802.693	138.75
802.873	108.03
803.053	87.55
803.233	95.74
803.413	163.33
803.592	105.98
803.772	136.7
803.952	132.61
804.131	65.02
804.311	75.26
804.491	30.21
804.67	97.79
804.85	83.45
805.03	122.37
805.209	161.28
805.389	89.6
805.568	83.45
805.748	91.65
805.928	171.52
806.107	1.54
806.287	112.13
806.466	110.08
806.646	103.93
806.825	15.87
807.004	62.98
807.184	108.03
807.363	155.13
807.543	101.89
807.722	60.93
807.901	58.88
808.081	153.09
808.26	67.07
808.439	118.27
808.619	134.65
808.798	46.59
808.977	103.93
809.156	56.83
809.336	134.65
809.515	87.55
809.694	40.45
809.873	75.26
810.052	77.31
810.231	167.42
810.411	-12.8
810.59	110.08
810.769	89.6
810.948	116.22
811.127	93.69
811.306	85.5
811.485	91.65
811.664	112.13
811.843	56.83
812.022	83.45
812.201	124.41
812.38	36.35
812.559	34.3
812.737	118.27
812.916	58.88
813.095	148.99
813.274	132.61
813.453	73.21
813.632	32.26
813.811	93.69
813.989	28.16
814.168	15.87
814.347	22.02
814.526	81.41
814.704	97.79
814.883	89.6
815.062	73.21
815.24	75.26
815.419	114.17
815.598	87.55
815.776	101.89
815.955	50.69
816.133	91.65
816.312	48.64
816.49	73.21
816.669	81.41
816.847	32.26
817.026	103.93
817.204	28.16
817.383	81.41
817.561	-27.14
817.74	73.21
817.918	46.59
818.097	91.65
818.275	38.4
818.453	34.3
818.632	42.5
818.81	85.5
818.988	48.64
819.167	1.54
819.345	34.3
819.523	22.02
819.701	3.58
819.879	-29.18
820.058	99.84
820.236	112.13
820.414	-18.94
820.592	67.07
820.77	58.88
820.948	73.21
821.127	42.5
821.305	-8.7
821.483	9.73
821.661	-18.94
821.839	69.12
822.017	54.78
822.195	62.98
822.373	71.17
822.551	40.45
822.729	58.88
822.907	40.45
823.085	7.68
823.262	132.61
823.44	46.59
823.618	46.59
823.796	69.12
823.974	108.03
824.152	71.17
824.329	67.07
824.507	44.54
824.685	34.3
824.863	11.78
825.04	28.16
825.218	40.45
825.396	44.54
825.574	54.78
825.751	120.32
825.929	77.31
826.107	17.92
826.284	-12.8
826.462	48.64
826.639	26.11
826.817	69.12
826.994	42.5
827.172	36.35
827.349	65.02
827.527	46.59
827.704	67.07
827.882	19.97
828.059	65.02
828.237	-8.7
828.414	110.08
828.591	40.45
828.769	81.41
828.946	30.21
829.124	-41.47
829.301	24.06
829.478	89.6
829.655	-51.71
829.833	60.93
830.01	9.73
830.187	77.31
830.364	40.45
830.542	9.73
830.719	99.84
830.896	65.02
831.073	13.82
831.25	-0.51
831.427	42.5
831.604	77.31
831.782	56.83
831.959	50.69
832.136	32.26
832.313	30.21
832.49	67.07
832.667	28.16
832.844	3.58
833.021	52.74
833.198	-4.61
833.374	44.54
833.551	46.59
833.728	32.26
833.905	69.12
834.082	11.78
834.259	30.21
834.436	30.21
834.612	50.69
834.789	77.31
834.966	-6.66
835.143	71.17
835.319	-20.99
835.496	44.54
835.673	52.74
835.85	50.69
836.026	-37.38
836.203	58.88
836.38	48.64
836.556	11.78
836.733	11.78
836.909	56.83
837.086	56.83
837.262	30.21
837.439	42.5
837.616	46.59
837.792	-29.18
837.968	3.58
838.145	24.06
838.321	-10.75
838.498	19.97
838.674	24.06
838.851	7.68
839.027	28.16
839.203	-4.61
839.38	79.36
839.556	19.97
839.732	-8.7
839.909	73.21
840.085	62.98
840.261	34.3
840.437	-0.51
840.614	-4.61
840.79	42.5
840.966	-59.9
841.142	26.11
841.318	13.82
841.494	-35.33
841.671	42.5
841.847	-4.61
842.023	50.69
842.199	22.02
842.375	15.87
842.551	60.93
842.727	-2.56
842.903	17.92
843.079	65.02
843.255	19.97
843.431	-14.85
843.607	56.83
843.783	-43.52
843.959	75.26
844.134	-18.94
844.31	60.93
844.486	28.16
844.662	-2.56
844.838	22.02
845.013	-29.18
845.189	5.63
845.365	40.45
845.541	62.98
845.716	81.41
845.892	77.31
846.068	13.82
846.244	46.59
846.419	-6.66
846.595	34.3
846.77	91.65
846.946	5.63
847.122	40.45
847.297	58.88
847.473	13.82
847.648	36.35
847.824	-18.94
847.999	24.06
848.175	46.59
848.35	71.17
848.526	15.87
848.701	-4.61
848.876	19.97
849.052	46.59
849.227	9.73
849.403	5.63
849.578	95.74
849.753	50.69
849.929	46.59
850.104	24.06
850.279	-0.51
850.454	13.82
850.63	-18.94
850.805	19.97
850.98	-8.7
851.155	-20.99
851.33	30.21
851.505	-74.24
851.681	-41.47
851.856	103.93
852.031	42.5
852.206	-6.66
852.381	48.64
852.556	-6.66
852.731	73.21
852.906	-12.8
853.081	9.73
853.256	-43.52
853.431	24.06
853.606	-39.42
853.781	-6.66
853.956	-33.28
854.131	9.73
854.305	58.88
854.48	56.83
854.655	46.59
854.83	-6.66
855.005	-20.99
855.18	1.54
855.354	-8.7
855.529	40.45
855.704	-35.33
855.879	17.92
856.053	-18.94
856.228	40.45
856.403	-33.28
856.577	42.5
856.752	11.78
856.926	-10.75
857.101	24.06
857.276	-16.9
857.45	-23.04
857.625	34.3
857.799	24.06
857.974	-10.75
858.148	-74.24
858.323	99.84
858.497	-6.66
858.672	-37.38
858.846	83.45
859.02	13.82
859.195	-45.57
859.369	-16.9
859.543	81.41
859.718	-16.9
859.892	44.54
860.066	26.11
860.241	-31.23
860.415	28.16
860.589	-68.09
860.763	-8.7
860.938	-14.85
861.112	77.31
861.286	-53.76
861.46	30.21
861.634	11.78
861.808	62.98
861.982	24.06
862.157	17.92
862.331	46.59
862.505	34.3
862.679	36.35
862.853	67.07
863.027	52.74
863.201	56.83
863.375	95.74
863.549	48.64
863.722	-12.8
863.896	15.87
864.07	42.5
864.244	28.16
864.418	56.83
864.592	26.11
864.766	87.55
864.939	77.31
865.113	-49.66
865.287	-0.51
865.461	-55.81
865.634	9.73
865.808	99.84
865.982	3.58
866.156	34.3
866.329	-10.75
866.503	-4.61
866.676	42.5
866.85	17.92
867.024	42.5
867.197	28.16
867.371	50.69
867.544	50.69
867.718	-6.66
867.891	-41.47
868.065	24.06
868.238	-12.8
868.412	-33.28
868.585	-31.23
868.759	30.21
868.932	28.16
869.105	83.45
869.279	3.58
869.452	99.84
869.625	13.82
869.799	-8.7
869.972	-16.9
870.145	11.78
870.319	15.87
870.492	22.02
870.665	1.54
870.838	-0.51
871.011	36.35
871.185	40.45
871.358	81.41
871.531	9.73
871.704	-14.85
871.877	17.92
872.05	22.02
872.223	15.87
872.396	-41.47
872.569	56.83
872.742	1.54
872.915	-4.61
873.088	-76.29
873.261	-14.85
873.434	11.78
873.607	62.98
873.78	30.21
873.953	40.45
874.126	-27.14
874.299	13.82
874.471	30.21
874.644	48.64
874.817	-45.57
874.99	56.83
875.163	60.93
875.335	34.3
875.508	-59.9
875.681	-18.94
875.853	26.11
876.026	5.63
876.199	-64
876.371	-43.52
876.544	-27.14
876.717	-16.9
876.889	3.58
877.062	7.68
877.234	-70.14
877.407	15.87
877.579	3.58
877.752	7.68
877.924	3.58
878.097	93.69
878.269	-53.76
878.442	44.54
878.614	122.37
878.786	28.16
878.959	-0.51
879.131	24.06
879.303	-39.42
879.476	36.35
879.648	-25.09
879.82	17.92
879.993	17.92
880.165	62.98
880.337	3.58
880.509	65.02
880.681	-55.81
880.854	-20.99
881.026	-64
881.198	26.11
881.37	-16.9
881.542	15.87
881.714	-23.04
881.886	-2.56
882.058	-41.47
882.23	15.87
882.402	1.54
882.574	-6.66
882.746	85.5
882.918	-37.38
883.09	-18.94
883.262	-41.47
883.434	-29.18
883.606	1.54
883.778	-43.52
883.95	-0.51
884.122	26.11
884.293	24.06
884.465	-47.62
884.637	38.4
884.809	-18.94
884.98	30.21
885.152	-4.61
885.324	26.11
885.496	-16.9
885.667	-33.28
885.839	3.58
886.011	15.87
886.182	22.02
886.354	26.11
886.525	-27.14
886.697	-2.56
886.869	-18.94
887.04	-55.81
887.212	7.68
887.383	1.54
887.555	58.88
887.726	5.63
887.897	19.97
888.069	9.73
888.24	38.4
888.412	-16.9
888.583	-39.42
888.754	17.92
888.926	-33.28
889.097	-18.94
889.268	5.63
889.44	58.88
889.611	48.64
889.782	-25.09
889.953	13.82
890.125	83.45
890.296	-55.81
890.467	42.5
890.638	-39.42
890.809	-37.38
890.98	62.98
891.151	-16.9
891.323	-49.66
891.494	44.54
891.665	-92.67
891.836	-6.66
892.007	22.02
892.178	34.3
892.349	19.97
892.52	-4.61
892.691	56.83
892.862	-16.9
893.032	-12.8
893.203	-49.66
893.374	-12.8
893.545	30.21
893.716	56.83
893.887	26.11
894.057	5.63
894.228	34.3
894.399	-2.56
894.57	71.17
894.74	30.21
894.911	75.26
895.082	-14.85
895.253	24.06
895.423	-14.85
895.594	7.68
895.764	1.54
895.935	-88.57
896.106	-2.56
896.276	9.73
896.447	52.74
896.617	9.73
896.788	28.16
896.958	-8.7
897.129	42.5
897.299	34.3
897.47	5.63
897.64	46.59
897.81	-39.42
897.981	-74.24
898.151	42.5
898.322	-25.09
898.492	26.11
898.662	32.26
898.832	-90.62
899.003	13.82
899.173	-31.23
899.343	-0.51
899.513	-10.75
