Data from USB4F104151__83__12-54-48-018.txt Node

Date: Fri Mar 14 12:54:48 EDT 2025
User: louis
Spectrometer: USB4F10415
Trigger mode: 4
Integration Time (sec): 1.000000E-2
Scans to average: 1
Electric dark correction enabled: true
Nonlinearity correction enabled: false
Boxcar width: 0
XAxis mode: Wavelengths
Number of Pixels in Spectrum: 3648
>>>>>Begin Spectral Data<<<<<
178.204	-41.81
178.424	-41.81
178.644	-41.81
178.864	-19.29
179.084	-72.53
179.304	27.82
179.524	-41.81
179.744	-39.76
179.964	76.97
180.184	1.19
180.404	11.43
180.624	-41.81
180.844	19.63
181.064	7.34
181.283	-0.85
181.503	-11.09
181.723	-9.05
181.943	-0.85
182.163	52.39
182.383	19.63
182.602	109.74
182.822	-66.39
183.042	83.11
183.262	31.91
183.482	40.11
183.701	23.72
183.921	9.39
184.141	29.87
184.361	29.87
184.58	21.67
184.8	9.39
185.02	68.78
185.239	40.11
185.459	56.49
185.679	79.02
185.898	5.29
186.118	44.2
186.338	23.72
186.557	-50
186.777	29.87
186.997	33.96
187.216	-52.05
187.436	-11.09
187.655	13.48
187.875	5.29
188.095	74.92
188.314	103.59
188.534	56.49
188.753	-33.62
188.973	-27.48
189.192	29.87
189.412	-56.15
189.631	-19.29
189.851	60.59
190.07	103.59
190.29	-50
190.509	3.24
190.729	9.39
190.948	5.29
191.168	54.44
191.387	91.31
191.607	-29.52
191.826	95.4
192.045	-7
192.265	-21.33
192.484	19.63
192.704	-13.14
192.923	11.43
193.142	52.39
193.362	89.26
193.581	76.97
193.8	-47.96
194.02	50.35
194.239	11.43
194.458	36.01
194.678	76.97
194.897	-0.85
195.116	-35.67
195.335	11.43
195.555	-17.24
195.774	23.72
195.993	27.82
196.212	33.96
196.432	19.63
196.651	40.11
196.87	25.77
197.089	99.5
197.308	13.48
197.528	79.02
197.747	29.87
197.966	76.97
198.185	42.15
198.404	13.48
198.623	7.34
198.842	19.63
199.062	40.11
199.281	19.63
199.5	-13.14
199.719	68.78
199.938	13.48
200.157	13.48
200.376	-27.48
200.595	19.63
200.814	46.25
201.033	-25.43
201.252	54.44
201.471	31.91
201.69	-0.85
201.909	-0.85
202.128	-13.14
202.347	-19.29
202.566	-50
202.785	46.25
203.004	25.77
203.223	42.15
203.442	-2.9
203.661	19.63
203.879	-2.9
204.098	19.63
204.317	15.53
204.536	-47.96
204.755	60.59
204.974	62.63
205.193	17.58
205.411	-21.33
205.63	56.49
205.849	13.48
206.068	93.35
206.287	46.25
206.505	1.19
206.724	-39.76
206.943	-11.09
207.162	-54.1
207.381	13.48
207.599	64.68
207.818	27.82
208.037	23.72
208.255	29.87
208.474	-4.95
208.693	17.58
208.911	46.25
209.13	42.15
209.349	31.91
209.567	46.25
209.786	44.2
210.005	29.87
210.223	-4.95
210.442	-17.24
210.661	5.29
210.879	-21.33
211.098	40.11
211.316	11.43
211.535	62.63
211.753	70.83
211.972	29.87
212.191	62.63
212.409	25.77
212.628	-39.76
212.846	66.73
213.065	-80.72
213.283	54.44
213.502	58.54
213.72	19.63
213.938	33.96
214.157	72.87
214.375	7.34
214.594	44.2
214.812	19.63
215.031	40.11
215.249	52.39
215.467	23.72
215.686	52.39
215.904	74.92
216.122	-15.19
216.341	52.39
216.559	-0.85
216.778	-11.09
216.996	56.49
217.214	-11.09
217.432	40.11
217.651	19.63
217.869	7.34
218.087	50.35
218.306	89.26
218.524	9.39
218.742	17.58
218.96	91.31
219.179	-9.05
219.397	-52.05
219.615	74.92
219.833	11.43
220.051	99.5
220.27	70.83
220.488	-2.9
220.706	-13.14
220.924	-62.29
221.142	27.82
221.36	36.01
221.578	54.44
221.796	44.2
222.015	48.3
222.233	1.19
222.451	58.54
222.669	21.67
222.887	38.06
223.105	11.43
223.323	-54.1
223.541	33.96
223.759	101.55
223.977	40.11
224.195	79.02
224.413	21.67
224.631	25.77
224.849	5.29
225.067	13.48
225.285	-52.05
225.503	66.73
225.721	52.39
225.939	1.19
226.157	46.25
226.375	40.11
226.592	-60.24
226.81	5.29
227.028	56.49
227.246	-4.95
227.464	23.72
227.682	36.01
227.9	-25.43
228.117	115.88
228.335	40.11
228.553	46.25
228.771	27.82
228.989	103.59
229.206	52.39
229.424	66.73
229.642	40.11
229.86	38.06
230.077	97.45
230.295	38.06
230.513	-35.67
230.731	11.43
230.948	44.2
231.166	150.7
231.384	64.68
231.601	3.24
231.819	19.63
232.037	44.2
232.254	19.63
232.472	50.35
232.689	21.67
232.907	44.2
233.125	-45.91
233.342	89.26
233.56	5.29
233.777	17.58
233.995	-35.67
234.213	19.63
234.43	21.67
234.648	-15.19
234.865	29.87
235.083	64.68
235.3	40.11
235.518	56.49
235.735	44.2
235.953	60.59
236.17	33.96
236.388	9.39
236.605	66.73
236.822	58.54
237.04	52.39
237.257	17.58
237.475	-78.68
237.692	15.53
237.909	68.78
238.127	3.24
238.344	19.63
238.562	7.34
238.779	17.58
238.996	117.93
239.214	7.34
239.431	38.06
239.648	33.96
239.865	54.44
240.083	-25.43
240.3	-13.14
240.517	17.58
240.735	11.43
240.952	-13.14
241.169	87.21
241.386	48.3
241.603	93.35
241.821	-29.52
242.038	33.96
242.255	52.39
242.472	29.87
242.689	66.73
242.907	38.06
243.124	62.63
243.341	74.92
243.558	17.58
243.775	13.48
243.992	-50
244.209	83.11
244.426	54.44
244.643	46.25
244.86	-19.29
245.078	48.3
245.295	81.07
245.512	19.63
245.729	-31.57
245.946	66.73
246.163	17.58
246.38	1.19
246.597	-2.9
246.814	27.82
247.031	-70.48
247.248	62.63
247.464	9.39
247.681	66.73
247.898	60.59
248.115	-50
248.332	13.48
248.549	38.06
248.766	48.3
248.983	38.06
249.2	-2.9
249.417	-4.95
249.633	79.02
249.85	-0.85
250.067	1.19
250.284	31.91
250.501	27.82
250.717	21.67
250.934	-70.48
251.151	-74.58
251.368	29.87
251.585	-31.57
251.801	48.3
252.018	29.87
252.235	13.48
252.451	-29.52
252.668	25.77
252.885	3.24
253.102	31.91
253.318	29.87
253.535	29.87
253.752	62.63
253.968	15.53
254.185	-47.96
254.401	-17.24
254.618	105.64
254.835	60.59
255.051	-52.05
255.268	-21.33
255.484	5.29
255.701	83.11
255.917	-0.85
256.134	9.39
256.351	60.59
256.567	13.48
256.784	52.39
257	33.96
257.217	48.3
257.433	38.06
257.65	48.3
257.866	9.39
258.082	40.11
258.299	-4.95
258.515	44.2
258.732	85.16
258.948	-35.67
259.165	64.68
259.381	-2.9
259.597	1.19
259.814	19.63
260.03	36.01
260.246	-33.62
260.463	7.34
260.679	58.54
260.895	74.92
261.112	-0.85
261.328	19.63
261.544	5.29
261.761	60.59
261.977	101.55
262.193	-13.14
262.409	40.11
262.626	66.73
262.842	79.02
263.058	13.48
263.274	33.96
263.49	72.87
263.707	81.07
263.923	17.58
264.139	-68.44
264.355	68.78
264.571	29.87
264.787	56.49
265.004	-35.67
265.22	29.87
265.436	-0.85
265.652	-17.24
265.868	17.58
266.084	13.48
266.3	-25.43
266.516	5.29
266.732	40.11
266.948	15.53
267.164	60.59
267.38	11.43
267.596	48.3
267.812	7.34
268.028	54.44
268.244	-50
268.46	44.2
268.676	58.54
268.892	21.67
269.108	-0.85
269.324	66.73
269.54	38.06
269.756	-4.95
269.972	36.01
270.188	29.87
270.403	-66.39
270.619	85.16
270.835	40.11
271.051	40.11
271.267	-39.76
271.483	36.01
271.698	23.72
271.914	-62.29
272.13	-7
272.346	46.25
272.562	81.07
272.777	23.72
272.993	48.3
273.209	89.26
273.425	83.11
273.64	38.06
273.856	46.25
274.072	74.92
274.287	33.96
274.503	23.72
274.719	83.11
274.934	62.63
275.15	40.11
275.366	60.59
275.581	134.31
275.797	38.06
276.012	66.73
276.228	-45.91
276.444	38.06
276.659	95.4
276.875	-9.05
277.09	-60.24
277.306	3.24
277.521	58.54
277.737	-0.85
277.952	19.63
278.168	33.96
278.383	-39.76
278.599	72.87
278.814	66.73
279.03	-17.24
279.245	-7
279.461	79.02
279.676	27.82
279.892	-45.91
280.107	44.2
280.322	27.82
280.538	-2.9
280.753	3.24
280.969	-13.14
281.184	87.21
281.399	85.16
281.615	46.25
281.83	-21.33
282.045	21.67
282.26	13.48
282.476	29.87
282.691	83.11
282.906	19.63
283.122	76.97
283.337	-25.43
283.552	-4.95
283.767	36.01
283.983	70.83
284.198	-9.05
284.413	44.2
284.628	-29.52
284.843	7.34
285.058	40.11
285.274	-27.48
285.489	46.25
285.704	9.39
285.919	23.72
286.134	42.15
286.349	-9.05
286.564	5.29
286.779	85.16
286.995	13.48
287.21	-41.81
287.425	95.4
287.64	-33.62
287.855	33.96
288.07	-50
288.285	50.35
288.5	-7
288.715	58.54
288.93	40.11
289.145	-29.52
289.36	-23.38
289.575	-15.19
289.79	70.83
290.004	97.45
290.219	15.53
290.434	23.72
290.649	5.29
290.864	-2.9
291.079	-13.14
291.294	38.06
291.509	122.02
291.724	-19.29
291.938	1.19
292.153	-2.9
292.368	33.96
292.583	25.77
292.798	7.34
293.012	19.63
293.227	70.83
293.442	81.07
293.657	76.97
293.871	23.72
294.086	-7
294.301	29.87
294.516	11.43
294.73	105.64
294.945	60.59
295.16	119.98
295.374	-13.14
295.589	-29.52
295.804	-45.91
296.018	3.24
296.233	33.96
296.447	-2.9
296.662	40.11
296.877	11.43
297.091	81.07
297.306	72.87
297.52	50.35
297.735	-0.85
297.949	17.58
298.164	-0.85
298.378	-29.52
298.593	64.68
298.807	-15.19
299.022	33.96
299.236	74.92
299.451	46.25
299.665	87.21
299.88	-9.05
300.094	3.24
300.309	40.11
300.523	3.24
300.737	-2.9
300.952	-13.14
301.166	40.11
301.381	42.15
301.595	56.49
301.809	36.01
302.024	99.5
302.238	-50
302.452	-29.52
302.667	23.72
302.881	72.87
303.095	11.43
303.309	46.25
303.524	31.91
303.738	27.82
303.952	31.91
304.166	15.53
304.381	-9.05
304.595	97.45
304.809	29.87
305.023	62.63
305.237	9.39
305.452	25.77
305.666	74.92
305.88	93.35
306.094	38.06
306.308	5.29
306.522	-41.81
306.736	54.44
306.95	27.82
307.164	-0.85
307.379	-11.09
307.593	54.44
307.807	46.25
308.021	21.67
308.235	23.72
308.449	44.2
308.663	54.44
308.877	54.44
309.091	5.29
309.305	83.11
309.519	33.96
309.733	-9.05
309.947	-43.86
310.161	21.67
310.374	44.2
310.588	68.78
310.802	-35.67
311.016	76.97
311.23	27.82
311.444	44.2
311.658	-17.24
311.872	5.29
312.085	70.83
312.299	60.59
312.513	-27.48
312.727	-21.33
312.941	3.24
313.154	109.74
313.368	29.87
313.582	60.59
313.796	-35.67
314.009	11.43
314.223	68.78
314.437	5.29
314.651	83.11
314.864	87.21
315.078	-11.09
315.292	5.29
315.505	48.3
315.719	15.53
315.933	40.11
316.146	17.58
316.36	11.43
316.573	-2.9
316.787	25.77
317.001	-43.86
317.214	107.69
317.428	54.44
317.641	29.87
317.855	60.59
318.068	40.11
318.282	85.16
318.495	58.54
318.709	19.63
318.922	-27.48
319.136	36.01
319.349	-11.09
319.563	3.24
319.776	27.82
319.99	-58.2
320.203	60.59
320.417	42.15
320.63	40.11
320.843	66.73
321.057	58.54
321.27	85.16
321.483	42.15
321.697	-41.81
321.91	19.63
322.124	29.87
322.337	117.93
322.55	-9.05
322.763	-9.05
322.977	44.2
323.19	-2.9
323.403	44.2
323.617	93.35
323.83	52.39
324.043	74.92
324.256	27.82
324.469	3.24
324.683	58.54
324.896	17.58
325.109	83.11
325.322	1.19
325.535	54.44
325.748	52.39
325.962	79.02
326.175	25.77
326.388	52.39
326.601	105.64
326.814	31.91
327.027	-43.86
327.24	25.77
327.453	44.2
327.666	87.21
327.879	-37.72
328.092	89.26
328.305	21.67
328.518	-0.85
328.731	9.39
328.944	17.58
329.157	85.16
329.37	124.07
329.583	19.63
329.796	56.49
330.009	19.63
330.222	17.58
330.435	119.98
330.648	36.01
330.861	3.24
331.073	54.44
331.286	13.48
331.499	91.31
331.712	-0.85
331.925	38.06
332.138	33.96
332.35	50.35
332.563	-7
332.776	74.92
332.989	7.34
333.202	44.2
333.414	27.82
333.627	40.11
333.84	95.4
334.053	15.53
334.265	-11.09
334.478	74.92
334.691	3.24
334.903	103.59
335.116	13.48
335.329	27.82
335.541	-2.9
335.754	66.73
335.966	68.78
336.179	50.35
336.392	-15.19
336.604	36.01
336.817	74.92
337.029	-4.95
337.242	74.92
337.454	46.25
337.667	21.67
337.88	19.63
338.092	-7
338.305	5.29
338.517	42.15
338.729	21.67
338.942	13.48
339.154	64.68
339.367	27.82
339.579	50.35
339.792	15.53
340.004	44.2
340.217	93.35
340.429	40.11
340.641	-21.33
340.854	48.3
341.066	111.78
341.278	3.24
341.491	-4.95
341.703	70.83
341.915	93.35
342.128	-21.33
342.34	25.77
342.552	17.58
342.764	81.07
342.977	60.59
343.189	-13.14
343.401	1.19
343.613	-25.43
343.826	42.15
344.038	-4.95
344.25	83.11
344.462	50.35
344.674	9.39
344.886	-27.48
345.099	13.48
345.311	50.35
345.523	27.82
345.735	15.53
345.947	-0.85
346.159	81.07
346.371	107.69
346.583	27.82
346.795	128.17
347.007	44.2
347.219	68.78
347.431	64.68
347.643	42.15
347.855	33.96
348.067	74.92
348.279	17.58
348.491	-21.33
348.703	11.43
348.915	-13.14
349.127	46.25
349.339	9.39
349.551	11.43
349.763	33.96
349.975	-13.14
350.187	79.02
350.399	17.58
350.61	-21.33
350.822	7.34
351.034	17.58
351.246	68.78
351.458	68.78
351.669	-9.05
351.881	95.4
352.093	27.82
352.305	64.68
352.517	56.49
352.728	7.34
352.94	-19.29
353.152	83.11
353.363	58.54
353.575	54.44
353.787	33.96
353.999	13.48
354.21	50.35
354.422	91.31
354.633	-21.33
354.845	124.07
355.057	-78.68
355.268	44.2
355.48	-39.76
355.692	25.77
355.903	91.31
356.115	42.15
356.326	-9.05
356.538	19.63
356.749	60.59
356.961	99.5
357.172	3.24
357.384	19.63
357.595	-2.9
357.807	58.54
358.018	13.48
358.23	3.24
358.441	66.73
358.653	46.25
358.864	40.11
359.075	48.3
359.287	-2.9
359.498	68.78
359.709	15.53
359.921	13.48
360.132	7.34
360.344	44.2
360.555	11.43
360.766	5.29
360.977	27.82
361.189	7.34
361.4	23.72
361.611	64.68
361.823	-27.48
362.034	54.44
362.245	-0.85
362.456	19.63
362.667	42.15
362.879	44.2
363.09	40.11
363.301	19.63
363.512	-15.19
363.723	62.63
363.935	48.3
364.146	124.07
364.357	15.53
364.568	36.01
364.779	5.29
364.99	60.59
365.201	31.91
365.412	76.97
365.623	99.5
365.834	56.49
366.045	130.22
366.256	21.67
366.467	15.53
366.678	79.02
366.889	-33.62
367.1	-29.52
367.311	-52.05
367.522	29.87
367.733	95.4
367.944	66.73
368.155	-0.85
368.366	89.26
368.577	62.63
368.788	23.72
368.999	-29.52
369.209	-43.86
369.42	66.73
369.631	91.31
369.842	21.67
370.053	23.72
370.264	44.2
370.474	107.69
370.685	21.67
370.896	-11.09
371.107	46.25
371.317	-13.14
371.528	19.63
371.739	97.45
371.95	50.35
372.16	-33.62
372.371	-13.14
372.582	52.39
372.792	1.19
373.003	27.82
373.214	64.68
373.424	-29.52
373.635	36.01
373.846	60.59
374.056	52.39
374.267	66.73
374.477	29.87
374.688	7.34
374.898	64.68
375.109	29.87
375.319	58.54
375.53	52.39
375.74	-19.29
375.951	29.87
376.161	9.39
376.372	140.46
376.582	42.15
376.793	23.72
377.003	48.3
377.214	21.67
377.424	9.39
377.635	89.26
377.845	76.97
378.055	126.12
378.266	62.63
378.476	-0.85
378.686	38.06
378.897	25.77
379.107	-0.85
379.317	44.2
379.528	44.2
379.738	17.58
379.948	3.24
380.158	-35.67
380.369	93.35
380.579	68.78
380.789	19.63
380.999	81.07
381.21	19.63
381.42	99.5
381.63	40.11
381.84	64.68
382.05	27.82
382.261	54.44
382.471	17.58
382.681	33.96
382.891	-0.85
383.101	62.63
383.311	70.83
383.521	31.91
383.731	1.19
383.941	64.68
384.151	-4.95
384.361	66.73
384.571	74.92
384.781	97.45
384.991	74.92
385.201	154.79
385.411	27.82
385.621	105.64
385.831	95.4
386.041	11.43
386.251	66.73
386.461	1.19
386.671	79.02
386.881	111.78
387.091	68.78
387.301	62.63
387.511	85.16
387.72	56.49
387.93	89.26
388.14	25.77
388.35	-2.9
388.56	122.02
388.769	-64.34
388.979	11.43
389.189	40.11
389.399	76.97
389.609	66.73
389.818	-2.9
390.028	54.44
390.238	27.82
390.447	-25.43
390.657	29.87
390.867	93.35
391.076	126.12
391.286	-4.95
391.496	64.68
391.705	31.91
391.915	-19.29
392.125	60.59
392.334	15.53
392.544	-9.05
392.753	9.39
392.963	42.15
393.172	46.25
393.382	29.87
393.591	107.69
393.801	50.35
394.01	52.39
394.22	7.34
394.429	87.21
394.639	56.49
394.848	68.78
395.058	17.58
395.267	62.63
395.477	40.11
395.686	29.87
395.895	46.25
396.105	56.49
396.314	36.01
396.524	154.79
396.733	9.39
396.942	33.96
397.152	23.72
397.361	62.63
397.57	-17.24
397.78	25.77
397.989	36.01
398.198	70.83
398.407	105.64
398.617	148.65
398.826	52.39
399.035	134.31
399.244	36.01
399.453	79.02
399.663	103.59
399.872	70.83
400.081	27.82
400.29	27.82
400.499	38.06
400.708	113.83
400.917	83.11
401.127	33.96
401.336	5.29
401.545	50.35
401.754	76.97
401.963	70.83
402.172	64.68
402.381	113.83
402.59	44.2
402.799	42.15
403.008	52.39
403.217	21.67
403.426	76.97
403.635	-0.85
403.844	85.16
404.053	111.78
404.262	91.31
404.471	85.16
404.68	83.11
404.888	97.45
405.097	-74.58
405.306	54.44
405.515	99.5
405.724	60.59
405.933	130.22
406.142	140.46
406.35	142.5
406.559	76.97
406.768	165.03
406.977	101.55
407.185	115.88
407.394	85.16
407.603	79.02
407.812	105.64
408.02	87.21
408.229	101.55
408.438	91.31
408.646	103.59
408.855	87.21
409.064	132.26
409.272	74.92
409.481	128.17
409.69	85.16
409.898	175.27
410.107	173.22
410.315	158.89
410.524	62.63
410.733	232.62
410.941	152.74
411.15	238.76
411.358	138.41
411.567	261.29
411.775	205.99
411.984	257.19
412.192	220.33
412.401	130.22
412.609	228.52
412.818	193.7
413.026	226.47
413.234	279.72
413.443	261.29
413.651	224.42
413.86	171.18
414.068	330.92
414.276	300.2
414.485	289.96
414.693	316.58
414.901	378.02
415.11	296.1
415.318	308.39
415.526	328.87
415.734	382.12
415.943	406.69
416.151	367.78
416.359	386.21
416.567	375.97
416.776	357.54
416.984	482.47
417.192	472.23
417.4	502.95
417.608	482.47
417.817	435.36
418.025	404.64
418.233	568.48
418.441	560.29
418.649	584.87
418.857	507.04
419.065	539.81
419.273	543.91
419.481	654.5
419.689	634.02
419.897	642.21
420.105	586.91
420.313	724.13
420.521	638.11
420.729	687.26
420.937	687.26
421.145	793.76
421.353	785.57
421.561	871.58
421.769	939.16
421.977	879.77
422.185	953.5
422.393	912.54
422.601	1074.33
422.809	1119.39
423.017	1010.84
423.224	1107.1
423.432	1209.5
423.64	1078.43
423.848	1234.07
424.056	1170.58
424.263	1244.31
424.471	1176.73
424.679	1342.61
424.887	1363.09
425.094	1445.01
425.302	1334.42
425.51	1449.11
425.718	1547.41
425.925	1502.36
426.133	1598.61
426.341	1682.58
426.548	1721.49
426.756	1707.15
426.964	1819.79
427.171	1856.65
427.379	1977.48
427.586	2036.88
427.794	1987.72
428.001	2012.3
428.209	2155.66
428.417	2102.41
428.624	2364.55
428.832	2268.3
429.039	2292.87
429.247	2292.87
429.454	2548.87
429.662	2565.25
429.869	2514.05
430.076	2657.41
430.284	2575.49
430.491	2780.29
430.699	2985.09
430.906	2862.21
431.114	2882.69
431.321	2962.56
431.528	3173.5
431.736	3232.89
431.943	3427.45
432.15	3288.18
432.358	3484.79
432.565	3570.8
432.772	3572.85
432.979	3538.04
433.187	3855.47
433.394	3787.89
433.601	4086.89
433.808	3994.73
434.016	4113.52
434.223	4226.15
434.43	4365.42
434.637	4353.13
434.844	4643.94
435.052	4689
435.259	4693.09
435.466	4746.34
435.673	4621.41
435.88	4973.66
436.087	5456.98
436.294	5225.56
436.501	5205.08
436.708	5229.66
436.915	5409.88
437.122	5526.61
437.329	5641.3
437.537	5815.38
437.743	5885.01
437.95	5745.75
438.157	6069.33
438.364	6476.87
438.571	6462.54
438.778	6351.95
438.985	6999.1
439.192	6892.61
439.399	7185.47
439.606	6820.93
439.813	7326.78
440.02	7568.44
440.227	7609.4
440.433	7457.85
440.64	7717.94
440.847	7851.06
441.054	7949.36
441.261	8274.99
441.467	8164.4
441.674	8444.97
441.881	8660.01
442.088	8592.42
442.294	8711.21
442.501	9116.7
442.708	8969.25
442.914	9350.17
443.121	9884.69
443.328	9530.39
443.534	10300.43
443.741	9870.36
443.948	9647.13
444.154	10548.23
444.361	10435.6
444.568	10621.96
444.774	10408.97
444.981	10769.41
445.187	10857.48
445.394	11338.75
445.6	11310.08
445.807	12289.01
446.013	11813.88
446.22	12141.55
446.426	12530.67
446.633	12649.45
446.839	13022.18
447.046	12669.93
447.252	13245.41
447.459	13399.01
447.665	13452.25
447.871	13913.05
448.078	14328.78
448.284	13724.63
448.491	14019.54
448.697	14797.77
448.903	15092.68
449.11	15107.01
449.316	14760.91
449.522	15037.38
449.728	15324.1
449.935	15793.08
450.141	15516.61
450.347	15885.24
450.553	15573.95
450.76	16004.02
450.966	16077.75
451.172	15989.69
451.378	16493.49
451.584	16307.12
451.791	16673.71
451.997	16708.52
452.203	16534.45
452.409	16935.85
452.615	16774.06
452.821	16075.7
453.027	15764.41
453.233	16815.02
453.44	16411.57
453.646	16233.39
453.852	16196.53
454.058	16546.73
454.264	15866.81
454.47	16401.33
454.676	15950.78
454.882	16937.9
455.088	15408.06
455.294	15381.44
455.5	15627.2
455.705	15840.18
455.911	15162.31
456.117	15115.2
456.323	14517.2
456.529	13732.83
456.735	14156.75
456.941	14074.84
457.147	13681.63
457.352	13542.36
457.558	13302.75
457.764	13308.9
457.97	13153.25
458.176	12782.57
458.381	12862.44
458.587	12102.64
458.793	12098.55
458.999	11455.48
459.204	12215.28
459.41	11987.96
459.616	11205.63
459.821	11140.1
460.027	11469.82
460.233	10984.45
460.438	10505.23
460.644	10654.73
460.85	9987.09
461.055	9776.15
461.261	9878.55
461.466	9063.46
461.672	8887.33
461.878	9452.57
462.083	8748.07
462.289	8653.86
462.494	8629.29
462.7	8264.75
462.905	7986.22
463.111	8305.71
463.316	8088.62
463.522	8041.52
463.727	8227.89
463.932	8205.36
464.138	8031.28
464.343	8145.97
464.549	7871.54
464.754	8133.68
464.959	8006.7
465.165	7849.01
465.37	7492.66
465.575	7607.35
465.781	7828.53
465.986	7869.49
466.191	7580.73
466.397	7466.04
466.602	7025.73
466.807	7390.27
467.012	7349.31
467.218	7281.72
467.423	7216.19
467.628	7283.77
467.833	7623.73
468.038	7457.85
468.244	6972.48
468.449	7396.41
468.654	7056.45
468.859	7011.39
469.064	6880.32
469.269	6720.58
469.474	6827.07
469.679	6868.03
469.885	6698.05
470.09	6769.73
470.295	6884.42
470.5	6558.79
470.705	6673.48
470.91	6499.4
471.115	6583.37
471.32	6663.24
471.525	6747.2
471.73	6337.61
471.935	6151.24
472.139	6063.18
472.344	6233.16
472.549	6110.29
472.754	5872.72
472.959	5809.23
473.164	5950.54
473.369	5901.39
473.574	5958.74
473.778	6052.94
473.983	5825.62
474.188	5891.15
474.393	5641.3
474.598	5753.94
474.802	5665.88
475.007	5442.65
475.212	5557.33
475.417	5409.88
475.621	5305.43
475.826	5250.14
476.031	5200.99
476.235	5002.33
476.44	5069.92
476.645	5008.48
476.849	5139.55
477.054	4920.42
477.259	4957.28
477.463	5014.62
477.668	4805.73
477.872	4992.09
478.077	4834.4
478.282	4740.19
478.486	4605.03
478.691	4783.2
478.895	4631.65
479.1	4525.16
479.304	4637.8
479.509	4535.4
479.713	4559.97
479.918	4445.29
480.122	4258.92
480.326	4430.95
480.531	4314.22
480.735	4471.91
480.94	4363.37
481.144	4519.01
481.348	4306.02
481.553	4324.46
481.757	4336.74
481.961	4406.38
482.166	4271.21
482.37	4334.7
482.574	4306.02
482.778	4287.59
482.983	4342.89
483.187	4318.31
483.391	4299.88
483.595	4232.3
483.8	4217.96
484.004	4256.87
484.208	4252.78
484.412	4271.21
484.616	4201.58
484.821	4351.08
485.025	4199.53
485.229	4433
485.433	4355.18
485.637	4240.49
485.841	4258.92
486.045	4297.83
486.249	4344.94
486.453	4324.46
486.657	4273.26
486.861	4324.46
487.065	4240.49
487.269	4293.74
487.473	4371.56
487.677	4281.45
487.881	4242.54
488.085	4205.67
488.289	4185.19
488.493	4193.39
488.697	4232.3
488.901	4222.06
489.105	4357.22
489.309	4410.47
489.512	4332.65
489.716	4422.76
489.92	4355.18
490.124	4316.26
490.328	4539.49
490.531	4420.71
490.735	4435.05
490.939	4445.29
491.143	4324.46
491.346	4312.17
491.55	4562.02
491.754	4482.15
491.958	4402.28
492.161	4590.69
492.365	4600.93
492.569	4629.6
492.772	4478.05
492.976	4557.93
493.18	4498.53
493.383	4576.36
493.587	4781.15
493.79	4723.81
493.994	4598.88
494.197	4795.49
494.401	4666.47
494.605	4811.87
494.808	4846.69
495.012	4967.52
495.215	4844.64
495.419	4871.26
495.622	4992.09
495.825	4901.98
496.029	4922.46
496.232	5078.11
496.436	5190.75
496.639	5223.51
496.843	5338.2
497.046	5315.67
497.249	5317.72
497.453	5276.76
497.656	5502.04
497.859	5338.2
498.063	5452.89
498.266	5543
498.469	5631.06
498.673	5690.45
498.876	5805.14
499.079	5778.51
499.282	5796.95
499.485	5952.59
499.689	5987.41
499.892	6216.78
500.095	6136.91
500.298	6556.74
500.501	6364.23
500.705	6454.34
500.908	6609.99
501.111	6394.95
501.314	6614.09
501.517	6763.59
501.72	6894.66
501.923	6736.96
502.126	6919.23
502.329	7085.12
502.532	7040.06
502.735	7103.55
502.938	7255.1
503.141	7306.3
503.344	7431.23
503.547	7427.13
503.75	7613.49
503.953	7818.29
504.156	7674.93
504.359	7842.87
504.562	7873.59
504.765	8188.97
504.968	8008.75
505.17	8272.94
505.373	8162.35
505.576	8412.2
505.779	8530.98
505.982	8666.15
506.185	8696.87
506.387	8660.01
506.59	8776.74
506.793	9006.11
506.996	8932.39
507.198	9243.68
507.401	9128.99
507.604	9272.35
507.807	9528.35
508.009	9538.59
508.212	9616.41
508.415	9618.46
508.617	9993.23
508.82	9899.03
509.022	9952.27
509.225	10130.45
509.428	10224.65
509.63	10380.3
509.833	10308.62
510.035	10748.93
510.238	10775.56
510.44	10806.28
510.643	10839.05
510.845	10978.31
511.048	11107.33
511.25	10957.83
511.453	11232.26
511.655	11637.75
511.858	11721.72
512.06	11805.69
512.262	11846.65
512.465	11774.97
512.667	11926.52
512.87	12143.6
513.072	11985.91
513.274	12387.31
513.477	12446.7
513.679	12772.33
513.881	12704.74
514.084	12823.53
514.286	13038.56
514.488	12876.77
514.69	13241.31
514.893	13200.35
515.095	13253.6
515.297	13630.43
515.499	13751.26
515.701	14052.31
515.904	13896.66
516.106	14017.49
516.308	14418.89
516.51	14468.05
516.712	14468.05
516.914	14724.04
517.116	14617.55
517.318	14885.83
517.52	14922.69
517.722	15000.52
517.925	15182.79
518.127	15547.33
518.329	15537.09
518.531	15502.27
518.733	15733.69
518.935	15729.59
519.136	15891.38
519.338	16251.83
519.54	15920.06
519.742	16423.86
519.944	16501.68
520.146	16849.83
520.348	16849.83
520.55	16993.19
520.752	17204.13
520.954	17189.8
521.155	17138.6
521.357	17460.13
521.559	17347.49
521.761	17626.01
521.963	17517.47
522.164	17644.45
522.366	17851.29
522.568	18150.29
522.77	17925.02
522.971	18394
523.173	18095
523.375	18441.11
523.576	18451.35
523.778	18582.42
523.98	18752.4
524.181	19051.4
524.383	18789.26
524.584	19053.45
524.786	19205
524.988	19178.37
525.189	19245.96
525.391	19583.87
525.592	19796.86
525.794	19565.44
525.995	19700.61
526.197	19934.07
526.398	19852.16
526.6	19874.68
526.801	19991.42
527.003	20095.86
527.204	20034.42
527.406	20298.61
527.607	20145.02
527.808	20530.03
528.01	19987.32
528.211	20087.67
528.412	20847.47
528.614	20622.19
528.815	20378.48
529.016	20822.89
529.218	20614
529.419	20642.67
529.62	21080.94
529.822	21011.31
530.023	20818.8
530.224	20843.37
530.425	20714.35
530.626	20687.73
530.828	20777.84
531.029	21308.26
531.23	20743.02
531.431	21066.6
531.632	21177.19
531.833	20865.9
532.035	21066.6
532.236	20990.83
532.437	21160.81
532.638	20859.76
532.839	21375.84
533.04	21070.7
533.241	21267.3
533.442	21398.37
533.643	21265.25
533.844	21541.73
534.045	21240.68
534.246	21236.58
534.447	21371.75
534.648	21316.45
534.849	21345.12
535.05	21136.23
535.251	21457.76
535.451	21316.45
535.652	21361.51
535.853	21371.75
536.054	21474.15
536.255	21425
536.456	21048.17
536.657	21646.18
536.857	21582.69
537.058	21363.56
537.259	21244.77
537.46	21594.98
537.66	21279.59
537.861	21261.16
538.062	21097.32
538.263	21347.17
538.463	21283.69
538.664	21234.53
538.865	21470.05
539.065	21416.8
539.266	21248.87
539.466	21271.4
539.667	21050.22
539.868	21142.38
540.068	21394.28
540.269	21214.05
540.469	21623.65
540.67	20910.96
540.87	21207.91
541.071	21285.73
541.271	21431.14
541.472	21138.28
541.672	21087.08
541.873	21267.3
542.073	20980.59
542.274	21545.83
542.474	21400.42
542.675	20945.77
542.875	21169
543.075	20976.49
543.276	20728.69
543.476	21181.29
543.676	20951.91
543.877	21230.44
544.077	21207.91
544.277	20966.25
544.478	21095.27
544.678	21373.8
544.878	21005.16
545.078	21113.7
545.279	20964.2
545.479	20984.68
545.679	21121.9
545.879	21091.18
546.079	21054.31
546.28	21007.21
546.48	20859.76
546.68	20943.72
546.88	21205.86
547.08	21146.47
547.28	21085.03
547.48	20939.63
547.68	21150.57
547.88	20984.68
548.081	21048.17
548.281	21111.66
548.481	20935.53
548.681	21021.55
548.881	20982.63
549.081	20906.86
549.28	20884.33
549.48	21169
549.68	20972.39
549.88	21046.12
550.08	20894.57
550.28	20978.54
550.48	20837.23
550.68	20974.44
550.88	20679.54
551.08	21003.11
551.279	21023.59
551.479	20607.86
551.679	20808.56
551.879	20808.56
552.079	20972.39
552.278	21050.22
552.478	20786.03
552.678	20788.08
552.878	20747.12
553.077	20976.49
553.277	20638.58
553.477	20872.04
553.676	20712.3
553.876	20857.71
554.076	20816.75
554.275	20878.19
554.475	20697.97
554.674	20583.28
554.874	20882.28
555.074	20599.66
555.273	20904.81
555.473	20792.17
555.672	20738.93
555.872	20765.55
556.071	20646.77
556.271	20521.84
556.47	20507.51
556.67	20714.35
556.869	20605.81
557.068	20343.67
557.268	20274.04
557.467	20372.34
557.667	20255.61
557.866	20452.21
558.065	20233.08
558.265	20515.7
558.464	19942.27
558.663	20339.57
558.863	20274.04
559.062	20388.72
559.261	19975.03
559.461	20239.22
559.66	20183.93
559.859	20239.22
560.058	20018.04
560.258	20241.27
560.457	19891.07
560.656	20257.65
560.855	20407.16
561.054	20364.15
561.253	19942.27
561.453	20065.14
561.652	19889.02
561.851	19784.57
562.05	19919.74
562.249	19700.61
562.448	19772.28
562.647	19970.94
562.846	19878.78
563.045	19727.23
563.244	19553.15
563.443	19864.44
563.642	19598.21
563.841	19590.02
564.04	19540.86
564.239	19790.72
564.438	19415.94
564.637	19600.26
564.836	19725.18
565.035	19487.62
565.234	19538.82
565.432	19497.86
565.631	19217.29
565.83	19467.14
566.029	19164.04
566.228	19313.54
566.427	19198.85
566.625	19323.78
566.824	18877.32
567.023	19370.88
567.222	18754.44
567.42	19090.31
567.619	19172.23
567.818	18817.93
568.016	18940.81
568.215	19311.49
568.414	19028.87
568.612	19090.31
568.811	18822.03
569.01	18860.94
569.208	18779.02
569.407	19012.49
569.605	18629.52
569.804	18944.91
570.002	18760.59
570.201	18400.15
570.4	18469.78
570.598	18598.8
570.797	18230.16
570.995	18480.02
571.193	18463.63
571.392	18400.15
571.59	18140.05
571.789	18361.23
571.987	18455.44
572.186	18299.8
572.384	18262.93
572.582	18256.79
572.781	18107.29
572.979	17703.84
573.177	18326.42
573.376	18082.71
573.574	17916.83
573.772	18174.87
573.971	17783.71
574.169	17578.91
574.367	17621.92
574.565	17914.78
574.763	17505.18
574.962	17537.95
575.16	17445.79
575.358	17540
575.556	17503.14
575.754	17482.66
575.952	17324.96
576.151	17789.85
576.349	17294.24
576.547	17218.47
576.745	17236.9
576.943	17245.09
577.141	17267.62
577.339	17245.09
577.537	17017.77
577.735	16915.37
577.933	17003.43
578.131	16987.05
578.329	17075.11
578.527	16706.48
578.725	16741.29
578.923	16769.96
579.121	16657.32
579.319	16765.87
579.516	16985
579.714	16724.91
579.912	16620.46
580.11	16542.64
580.308	16800.68
580.506	16434.1
580.704	16591.79
580.901	16272.31
581.099	16513.97
581.297	16395.18
581.495	16165.81
581.692	16538.54
581.89	16192.44
582.088	16331.7
582.285	16141.24
582.483	16225.2
582.681	16028.6
582.878	15797.18
583.076	15870.9
583.274	16157.62
583.471	15862.71
583.669	16065.46
583.866	15856.57
584.064	15922.1
584.262	15690.68
584.459	15748.03
584.657	15592.38
584.854	15578.04
585.052	15367.1
585.249	15424.45
585.447	15582.14
585.644	15223.75
585.841	15336.38
586.039	15477.69
586.236	15295.43
586.434	15307.71
586.631	15250.37
586.828	15096.77
587.026	15264.71
587.223	15080.39
587.42	15096.77
587.618	15104.96
587.815	15223.75
588.012	14875.59
588.21	14857.16
588.407	15027.14
588.604	14775.24
588.801	14740.43
588.999	14668.75
589.196	14810.06
589.393	14724.04
589.59	14611.4
589.787	14556.11
589.984	14312.4
590.182	14455.76
590.379	14549.96
590.576	14437.33
590.773	14336.98
590.97	14384.08
591.167	14359.5
591.364	14296.02
591.561	14339.02
591.758	14097.36
591.955	14056.4
592.152	14072.79
592.349	14199.76
592.546	14009.3
592.743	14085.08
592.94	13851.61
593.137	13886.42
593.334	13781.98
593.531	13689.82
593.727	13720.54
593.924	13566.94
594.121	13712.35
594.318	13659.1
594.515	13683.67
594.712	13710.3
594.908	13222.88
595.105	13564.89
595.302	13480.92
595.499	13577.18
595.696	13489.12
595.892	13179.87
596.089	13376.48
596.286	13429.73
596.482	13360.09
596.679	13312.99
596.876	13085.67
597.072	13198.31
597.269	13048.8
597.466	12821.48
597.662	13007.84
597.859	12784.62
598.055	12897.25
598.252	12981.22
598.448	12858.34
598.645	12831.72
598.841	12604.39
599.038	12809.19
599.234	12864.49
599.431	12727.27
599.627	12674.03
599.824	12751.85
600.02	12690.41
600.217	12577.77
600.413	12592.11
600.609	12489.71
600.806	12346.35
601.002	12217.33
601.198	12276.72
601.395	12094.45
601.591	12264.43
601.787	12119.03
601.984	12225.52
602.18	12323.82
602.376	12209.14
602.572	12311.53
602.769	12026.87
602.965	11994.1
603.161	12241.9
603.357	12037.11
603.553	11877.37
603.75	11875.32
603.946	11742.2
604.142	11824.12
604.338	11594.75
604.534	11750.39
604.73	11633.66
604.926	11695.1
605.122	11613.18
605.318	11564.03
605.514	11631.61
605.71	11551.74
605.906	11467.77
606.102	11385.85
606.298	11371.52
606.494	11404.28
606.69	11211.78
606.886	11432.96
607.082	11224.06
607.278	11240.45
607.474	11115.52
607.67	11090.95
607.866	11193.34
608.062	11318.27
608.257	11179.01
608.453	11174.91
608.649	11234.3
608.845	10824.71
609.041	11127.81
609.236	11283.45
609.432	10949.64
609.628	10880
609.824	10953.73
610.019	10767.37
610.215	10750.98
610.411	10849.29
610.606	10699.78
610.802	10945.54
610.998	10818.57
611.193	10701.83
611.389	10763.27
611.584	10628.1
611.78	10755.08
611.976	10710.02
612.171	10458.12
612.367	10515.47
612.562	10507.27
612.758	10243.09
612.953	10435.6
613.149	10656.78
613.344	10378.25
613.539	10714.12
613.735	10447.88
613.93	10454.03
614.126	10302.48
614.321	10298.38
614.517	10552.33
614.712	10267.66
614.907	10316.81
615.103	10419.21
615.298	10185.74
615.493	10376.2
615.688	10044.43
615.884	10257.42
616.079	10148.88
616.274	10288.14
616.47	10105.87
616.665	10339.34
616.86	9968.66
617.055	10109.97
617.25	9925.65
617.445	10132.5
617.641	9739.29
617.836	9978.9
618.031	9794.58
618.226	9931.8
618.421	9800.73
618.616	9704.47
618.811	9675.8
619.006	9954.32
619.201	9683.99
619.396	9747.48
619.591	9532.44
619.786	9692.18
619.981	9591.83
620.176	9608.22
620.371	9436.19
620.566	9727
620.761	9479.19
620.956	9524.25
621.151	9194.53
621.346	9425.95
621.541	9172
621.735	9210.91
621.93	9186.33
622.125	8975.39
622.32	9149.47
622.515	9196.57
622.709	9122.85
622.904	8989.73
623.099	8989.73
623.294	8875.04
623.488	8924.19
623.683	8690.73
623.878	8864.8
624.072	8686.63
624.267	8426.54
624.462	8721.45
624.656	8389.67
624.851	8373.29
625.046	8410.15
625.24	8328.24
625.435	8293.42
625.629	8428.59
625.824	7949.36
626.018	8201.26
626.213	7912.5
626.407	7963.7
626.602	8041.52
626.796	8213.55
626.991	7875.63
627.185	7957.55
627.38	7941.17
627.574	7978.03
627.768	7824.44
627.963	7877.68
628.157	7697.46
628.352	7779.38
628.546	7699.51
628.74	7525.43
628.935	7365.69
629.129	7545.91
629.323	7423.03
629.517	7529.53
629.712	7511.1
629.906	7443.51
630.1	7330.87
630.294	7040.06
630.489	7224.38
630.683	7214.14
630.877	7220.28
631.071	7253.05
631.265	7187.52
631.459	6933.57
631.653	6896.71
631.848	7099.45
632.042	7013.44
632.236	6984.77
632.43	6818.88
632.624	6818.88
632.818	6929.47
633.012	6722.63
633.206	6734.92
633.4	6726.72
633.594	6691.91
633.788	6720.58
633.982	6786.12
634.176	6726.72
634.369	6657.09
634.563	6571.08
634.757	6478.92
634.951	6583.37
635.145	6587.46
635.339	6360.14
635.533	6433.86
635.726	6417.48
635.92	6237.26
636.114	6392.91
636.308	6284.36
636.501	6046.8
636.695	6075.47
636.889	6059.09
637.083	5966.93
637.276	6251.6
637.47	6106.19
637.664	5954.64
637.857	6022.22
638.051	5874.77
638.244	6095.95
638.438	6001.74
638.632	5803.09
638.825	5790.8
639.019	5669.97
639.212	5665.88
639.406	5803.09
639.599	5764.18
639.793	5586.01
639.986	5526.61
640.18	5592.15
640.373	5780.56
640.567	5606.49
640.76	5477.46
640.954	5377.11
641.147	5338.2
641.34	5352.54
641.534	5219.42
641.727	5456.98
641.92	5485.65
642.114	5282.91
642.307	5405.78
642.5	5274.71
642.694	5309.53
642.887	5106.78
643.08	5262.43
643.273	5108.83
643.467	5233.75
643.66	4990.05
643.853	5004.38
644.046	4990.05
644.239	5065.82
644.432	4910.18
644.626	4967.52
644.819	4942.94
645.012	4988
645.205	4992.09
645.398	4854.88
645.591	4799.59
645.784	4818.02
645.977	4824.16
646.17	4711.52
646.363	4689
646.556	4637.8
646.749	4697.19
646.942	4768.87
647.135	4580.45
647.328	4451.43
647.521	4568.16
647.714	4492.39
647.907	4377.7
648.099	4422.76
648.292	4381.8
648.485	4324.46
648.678	4373.61
648.871	4418.66
649.064	4273.26
649.256	4369.51
649.449	4416.62
649.642	4238.44
649.835	4254.83
650.027	4322.41
650.22	4099.18
650.413	4174.95
650.605	4058.22
650.798	4074.6
650.991	4142.19
651.183	3986.54
651.376	4127.85
651.568	4045.93
651.761	4121.71
651.954	4025.45
652.146	3951.73
652.339	3992.69
652.531	3904.62
652.724	3914.86
652.916	3806.32
653.109	3796.08
653.301	3945.58
653.494	3863.66
653.686	3720.31
653.879	3878
654.071	3744.88
654.263	3738.74
654.456	3699.83
654.648	3703.92
654.84	3527.8
655.033	3665.01
655.225	3630.2
655.417	3619.96
655.61	3593.33
655.802	3525.75
655.994	3550.32
656.186	3499.13
656.379	3648.63
656.571	3505.27
656.763	3529.84
656.955	3452.02
657.148	3544.18
657.34	3470.45
657.532	3392.63
657.724	3447.93
657.916	3245.18
658.108	3290.23
658.3	3329.14
658.492	3310.71
658.684	3232.89
658.876	3243.13
659.068	3232.89
659.26	3208.31
659.452	3179.64
659.644	3279.99
659.836	3191.93
660.028	3245.18
660.22	3138.68
660.412	3097.72
660.604	2940.03
660.796	3132.54
660.988	3060.86
661.18	3013.76
661.372	2966.65
661.563	3079.29
661.755	3071.1
661.947	2960.51
662.139	2909.31
662.331	2892.93
662.522	2899.07
662.714	3038.33
662.906	2868.35
663.097	2813.06
663.289	2890.88
663.481	2917.5
663.673	2978.94
663.864	2829.44
664.056	2841.73
664.247	2661.51
664.439	2688.13
664.631	2782.34
664.822	2792.58
665.014	2737.28
665.205	2616.45
665.397	2768
665.588	2745.47
665.78	2636.93
665.971	2679.94
666.163	2671.75
666.354	2522.24
666.546	2591.88
666.737	2569.35
666.929	2595.97
667.12	2454.66
667.311	2530.44
667.503	2479.24
667.694	2514.05
667.885	2649.22
668.077	2425.99
668.268	2481.28
668.459	2577.54
668.651	2501.76
668.842	2419.85
669.033	2495.62
669.224	2479.24
669.416	2421.89
669.607	2460.81
669.798	2415.75
669.989	2276.49
670.18	2348.17
670.371	2278.54
670.563	2362.5
670.754	2339.97
670.945	2280.58
671.136	2292.87
671.327	2346.12
671.518	2225.29
671.709	2376.84
671.9	2243.72
672.091	2227.34
672.282	2235.53
672.473	2303.11
672.664	2145.42
672.855	2176.14
673.046	2258.06
673.237	2172.04
673.428	2264.2
673.619	2159.75
673.809	2258.06
674	2126.99
674.191	2153.61
674.382	2247.82
674.573	2215.05
674.764	2124.94
674.954	2284.68
675.145	2024.59
675.336	2092.17
675.527	2083.98
675.717	2057.36
675.908	2079.88
676.099	2069.64
676.289	2053.26
676.48	1909.9
676.671	2086.03
676.861	2002.06
677.052	1954.96
677.243	2063.5
677.433	2094.22
677.624	2067.6
677.814	2045.07
678.005	2075.79
678.195	1965.2
678.386	1926.29
678.576	1965.2
678.767	1975.44
678.957	2043.02
679.148	2020.49
679.338	1938.57
679.529	1803.41
679.719	1954.96
679.909	1840.27
680.1	1907.85
680.29	1985.68
680.481	1883.28
680.671	1940.62
680.861	2002.06
681.052	1959.05
681.242	1891.47
681.432	1922.19
681.622	1903.76
681.813	1782.93
682.003	1885.33
682.193	1815.69
682.383	1995.92
682.573	1787.02
682.764	1893.52
682.954	1887.37
683.144	1830.03
683.334	1873.04
683.524	1772.69
683.714	1864.85
683.904	1809.55
684.094	1846.41
684.284	1889.42
684.474	1846.41
684.664	1860.75
684.854	1784.98
685.044	1793.17
685.234	1899.66
685.424	1830.03
685.614	1793.17
685.804	1764.5
685.994	1784.98
686.184	1807.5
686.374	1776.78
686.564	1774.74
686.753	1797.26
686.943	1760.4
687.133	1825.93
687.323	1787.02
687.513	1776.78
687.702	1698.96
687.892	1672.34
688.082	1805.46
688.272	1778.83
688.461	1707.15
688.651	1778.83
688.841	1709.2
689.03	1750.16
689.22	1735.82
689.41	1795.22
689.599	1744.02
689.789	1662.1
689.979	1670.29
690.168	1692.82
690.358	1705.1
690.547	1694.86
690.737	1694.86
690.926	1725.58
691.116	1795.22
691.305	1756.3
691.495	1680.53
691.684	1698.96
691.874	1686.67
692.063	1633.43
692.252	1547.41
692.442	1614.99
692.631	1674.39
692.82	1633.43
693.01	1625.23
693.199	1662.1
693.388	1602.71
693.578	1612.95
693.767	1614.99
693.956	1436.82
694.146	1649.81
694.335	1512.6
694.524	1623.19
694.713	1608.85
694.902	1604.75
695.092	1633.43
695.281	1531.03
695.47	1567.89
695.659	1619.09
695.848	1498.26
696.037	1526.93
696.226	1453.2
696.415	1555.6
696.604	1586.32
696.793	1508.5
696.982	1471.64
697.171	1553.55
697.36	1438.87
697.549	1436.82
697.738	1549.46
697.927	1514.64
698.116	1522.84
698.305	1516.69
698.494	1561.75
698.683	1461.4
698.872	1492.12
699.061	1391.77
699.25	1483.92
699.438	1455.25
699.627	1479.83
699.816	1414.29
700.005	1399.96
700.193	1483.92
700.382	1467.54
700.571	1395.86
700.76	1488.02
700.948	1381.53
701.137	1389.72
701.326	1447.06
701.514	1336.47
701.703	1459.35
701.892	1383.57
702.08	1383.57
702.269	1451.16
702.457	1440.92
702.646	1299.61
702.834	1414.29
703.023	1422.48
703.212	1305.75
703.4	1328.28
703.589	1404.05
703.777	1389.72
703.965	1432.72
704.154	1438.87
704.342	1338.52
704.531	1291.41
704.719	1232.02
704.907	1289.37
705.096	1297.56
705.284	1313.94
705.472	1354.9
705.661	1275.03
705.849	1381.53
706.037	1262.74
706.226	1356.95
706.414	1361.05
706.602	1299.61
706.79	1346.71
706.979	1299.61
707.167	1283.22
707.355	1359
707.543	1315.99
707.731	1395.86
707.919	1307.8
708.107	1236.12
708.296	1320.09
708.484	1199.26
708.672	1285.27
708.86	1326.23
709.048	1305.75
709.236	1330.33
709.424	1258.65
709.612	1232.02
709.8	1266.84
709.988	1297.56
710.176	1338.52
710.364	1246.36
710.551	1127.58
710.739	1283.22
710.927	1248.41
711.115	1191.06
711.303	1201.3
711.491	1326.23
711.679	1248.41
711.866	1164.44
712.054	1264.79
712.242	1268.89
712.43	1315.99
712.617	1195.16
712.805	1262.74
712.993	1199.26
713.181	1105.05
713.368	1166.49
713.556	1227.93
713.744	1225.88
713.931	1227.93
714.119	1141.91
714.306	1168.54
714.494	1129.63
714.682	1164.44
714.869	1225.88
715.057	1277.08
715.244	1199.26
715.432	1180.82
715.619	1170.58
715.807	1115.29
715.994	1180.82
716.182	1240.22
716.369	1246.36
716.556	1193.11
716.744	1199.26
716.931	1184.92
717.119	1150.11
717.306	1184.92
717.493	1184.92
717.681	1234.07
717.868	1168.54
718.055	1045.66
718.242	1123.48
718.43	1143.96
718.617	1127.58
718.804	1059.99
718.991	1166.49
719.179	1135.77
719.366	1100.95
719.553	1117.34
719.74	1184.92
719.927	1098.91
720.114	1127.58
720.301	1072.28
720.488	1086.62
720.676	1072.28
720.863	1105.05
721.05	1143.96
721.237	1164.44
721.424	1098.91
721.611	1053.85
721.798	1164.44
721.985	1133.72
722.172	1055.9
722.358	1135.77
722.545	1068.19
722.732	1021.08
722.919	1133.72
723.106	1117.34
723.293	1064.09
723.48	1074.33
723.667	1115.29
723.853	1119.39
724.04	1049.75
724.227	1119.39
724.414	1094.81
724.6	969.88
724.787	1119.39
724.974	1051.8
725.161	1131.67
725.347	1072.28
725.534	1076.38
725.72	1037.47
725.907	998.56
726.094	1127.58
726.28	1072.28
726.467	1096.86
726.653	916.64
726.84	1043.61
727.027	1049.75
727.213	1049.75
727.4	1174.68
727.586	1059.99
727.773	1035.42
727.959	1080.47
728.145	1006.75
728.332	1006.75
728.518	984.22
728.705	1062.04
728.891	1002.65
729.077	1137.82
729.264	1027.23
729.45	1006.75
729.636	1064.09
729.823	1045.66
730.009	976.03
730.195	1137.82
730.382	1047.71
730.568	1027.23
730.754	1059.99
730.94	1029.27
731.126	1019.04
731.313	1072.28
731.499	982.17
731.685	1111.19
731.871	1037.47
732.057	1059.99
732.243	973.98
732.429	1059.99
732.615	1031.32
732.801	971.93
732.987	988.32
733.173	1109.15
733.359	1105.05
733.545	1025.18
733.731	1021.08
733.917	1103
734.103	982.17
734.289	1051.8
734.475	1051.8
734.661	1053.85
734.847	1133.72
735.033	1070.23
735.219	1006.75
735.404	1004.7
735.59	1078.43
735.776	1072.28
735.962	984.22
736.148	1014.94
736.333	1002.65
736.519	1051.8
736.705	978.08
736.89	943.26
737.076	988.32
737.262	1012.89
737.447	949.4
737.633	943.26
737.819	984.22
738.004	1021.08
738.19	973.98
738.375	992.41
738.561	1059.99
738.747	885.92
738.932	986.27
739.118	1019.04
739.303	982.17
739.489	930.97
739.674	902.3
739.859	928.92
740.045	965.79
740.23	1033.37
740.416	922.78
740.601	939.16
740.786	1010.84
740.972	941.21
741.157	912.54
741.342	949.4
741.528	973.98
741.713	918.68
741.898	945.31
742.084	912.54
742.269	924.83
742.454	1035.42
742.639	937.12
742.824	1014.94
743.01	996.51
743.195	961.69
743.38	924.83
743.565	871.58
743.75	976.03
743.935	896.16
744.12	963.74
744.305	947.36
744.49	930.97
744.675	928.92
744.86	912.54
745.045	969.88
745.23	943.26
745.415	902.3
745.6	933.02
745.785	939.16
745.97	863.39
746.155	793.76
746.34	867.49
746.525	836.77
746.71	873.63
746.895	849.05
747.079	890.01
747.264	887.97
747.449	801.95
747.634	914.59
747.819	849.05
748.003	832.67
748.188	810.14
748.373	726.18
748.557	855.2
748.742	873.63
748.927	840.86
749.111	783.52
749.296	830.62
749.481	851.1
749.665	740.51
749.85	787.61
750.034	853.15
750.219	816.29
750.404	857.25
750.588	763.04
750.773	851.1
750.957	758.94
751.141	795.81
751.326	722.08
751.51	672.93
751.695	834.72
751.879	722.08
752.064	736.42
752.248	742.56
752.432	652.45
752.617	664.74
752.801	789.66
752.985	691.36
753.17	756.9
753.354	677.02
753.538	697.5
753.722	634.02
753.907	736.42
754.091	724.13
754.275	726.18
754.459	611.49
754.643	763.04
754.828	760.99
755.012	697.5
755.196	627.87
755.38	681.12
755.564	679.07
755.748	640.16
755.932	687.26
756.116	644.26
756.3	642.21
756.484	683.17
756.668	660.64
756.852	599.2
757.036	611.49
757.22	693.41
757.404	646.3
757.588	627.87
757.772	658.59
757.956	545.95
758.14	564.39
758.323	562.34
758.507	605.35
758.691	677.02
758.875	574.63
759.059	554.15
759.242	543.91
759.426	582.82
759.61	572.58
759.794	670.88
759.977	666.78
760.161	601.25
760.345	539.81
760.528	568.48
760.712	548
760.895	566.43
761.079	603.3
761.263	568.48
761.446	580.77
761.63	554.15
761.813	568.48
761.997	539.81
762.18	478.37
762.364	586.91
762.547	445.6
762.731	519.33
762.914	494.76
763.098	513.19
763.281	504.99
763.464	531.62
763.648	554.15
763.831	504.99
764.015	537.76
764.198	531.62
764.381	595.11
764.564	474.28
764.748	548
764.931	513.19
765.114	554.15
765.297	478.37
765.481	414.88
765.664	511.14
765.847	496.8
766.03	576.67
766.213	570.53
766.397	461.99
766.58	474.28
766.763	543.91
766.946	509.09
767.129	515.23
767.312	464.04
767.495	429.22
767.678	461.99
767.861	515.23
768.044	511.14
768.227	484.52
768.41	457.89
768.593	480.42
768.776	494.76
768.959	468.13
769.142	533.67
769.324	382.12
769.507	386.21
769.69	447.65
769.873	429.22
770.056	412.84
770.239	478.37
770.421	459.94
770.604	414.88
770.787	437.41
770.97	421.03
771.152	396.45
771.335	427.17
771.518	445.6
771.7	455.84
771.883	453.8
772.066	445.6
772.248	517.28
772.431	382.12
772.613	423.08
772.796	398.5
772.978	433.32
773.161	429.22
773.343	455.84
773.526	404.64
773.708	437.41
773.891	375.97
774.073	441.51
774.256	457.89
774.438	371.88
774.621	418.98
774.803	324.77
774.985	414.88
775.168	425.12
775.35	398.5
775.532	400.55
775.715	349.35
775.897	388.26
776.079	371.88
776.261	406.69
776.444	332.97
776.626	388.26
776.808	378.02
776.99	353.45
777.173	357.54
777.355	363.69
777.537	408.74
777.719	412.84
777.901	361.64
778.083	378.02
778.265	287.91
778.447	281.77
778.629	351.4
778.811	412.84
778.993	298.15
779.175	326.82
779.357	347.3
779.539	363.69
779.721	308.39
779.903	289.96
780.085	292.01
780.267	378.02
780.449	308.39
780.631	308.39
780.812	328.87
780.994	253.09
781.176	275.62
781.358	339.11
781.54	326.82
781.721	275.62
781.903	375.97
782.085	316.58
782.267	312.49
782.448	257.19
782.63	322.73
782.812	322.73
782.993	253.09
783.175	255.14
783.357	242.85
783.538	322.73
783.72	259.24
783.901	246.95
784.083	255.14
784.264	289.96
784.446	242.85
784.627	330.92
784.809	259.24
784.99	296.1
785.172	226.47
785.353	249
785.535	259.24
785.716	253.09
785.897	263.33
786.079	240.81
786.26	134.31
786.441	195.75
786.623	212.14
786.804	185.51
786.985	267.43
787.167	232.62
787.348	218.28
787.529	259.24
787.71	232.62
787.891	232.62
788.073	234.66
788.254	212.14
788.435	222.38
788.616	269.48
788.797	230.57
788.978	181.42
789.159	222.38
789.34	158.89
789.522	171.18
789.703	201.9
789.884	197.8
790.065	251.05
790.246	224.42
790.427	220.33
790.607	304.29
790.788	271.53
790.969	126.12
791.15	249
791.331	271.53
791.512	189.61
791.693	232.62
791.874	244.9
792.054	210.09
792.235	238.76
792.416	181.42
792.597	167.08
792.778	173.22
792.958	279.72
793.139	156.84
793.32	208.04
793.5	165.03
793.681	222.38
793.862	199.85
794.042	238.76
794.223	220.33
794.404	193.7
794.584	205.99
794.765	130.22
794.945	83.11
795.126	230.57
795.306	226.47
795.487	195.75
795.667	216.23
795.848	173.22
796.028	171.18
796.209	187.56
796.389	179.37
796.57	193.7
796.75	203.94
796.93	136.36
797.111	205.99
797.291	105.64
797.471	119.98
797.652	144.55
797.832	199.85
798.012	60.59
798.192	173.22
798.373	140.46
798.553	158.89
798.733	171.18
798.913	169.13
799.093	150.7
799.274	156.84
799.454	183.46
799.634	181.42
799.814	171.18
799.994	107.69
800.174	156.84
800.354	173.22
800.534	117.93
800.714	138.41
800.894	136.36
801.074	175.27
801.254	148.65
801.434	181.42
801.614	72.87
801.794	128.17
801.974	449.7
802.154	109.74
802.334	144.55
802.514	136.36
802.693	99.5
802.873	171.18
803.053	193.7
803.233	148.65
803.413	101.55
803.592	142.5
803.772	107.69
803.952	136.36
804.131	68.78
804.311	87.21
804.491	81.07
804.67	95.4
804.85	68.78
805.03	132.26
805.209	220.33
805.389	162.98
805.568	126.12
805.748	89.26
805.928	171.18
806.107	189.61
806.287	105.64
806.466	156.84
806.646	115.88
806.825	111.78
807.004	81.07
807.184	132.26
807.363	115.88
807.543	165.03
807.722	144.55
807.901	154.79
808.081	128.17
808.26	109.74
808.439	85.16
808.619	111.78
808.798	85.16
808.977	156.84
809.156	68.78
809.336	146.6
809.515	162.98
809.694	117.93
809.873	70.83
810.052	48.3
810.231	89.26
810.411	113.83
810.59	138.41
810.769	72.87
810.948	136.36
811.127	85.16
811.306	132.26
811.485	13.48
811.664	122.02
811.843	113.83
812.022	117.93
812.201	103.59
812.38	183.46
812.559	160.94
812.737	38.06
812.916	115.88
813.095	42.15
813.274	58.54
813.453	62.63
813.632	154.79
813.811	79.02
813.989	130.22
814.168	15.53
814.347	91.31
814.526	130.22
814.704	109.74
814.883	87.21
815.062	93.35
815.24	111.78
815.419	89.26
815.598	33.96
815.776	150.7
815.955	79.02
816.133	48.3
816.312	87.21
816.49	66.73
816.669	52.39
816.847	66.73
817.026	87.21
817.204	134.31
817.383	93.35
817.561	60.59
817.74	56.49
817.918	111.78
818.097	126.12
818.275	97.45
818.453	101.55
818.632	115.88
818.81	56.49
818.988	60.59
819.167	76.97
819.345	11.43
819.523	58.54
819.701	134.31
819.879	91.31
820.058	27.82
820.236	85.16
820.414	46.25
820.592	40.11
820.77	113.83
820.948	81.07
821.127	54.44
821.305	103.59
821.483	40.11
821.661	103.59
821.839	85.16
822.017	85.16
822.195	124.07
822.373	122.02
822.551	117.93
822.729	44.2
822.907	44.2
823.085	62.63
823.262	38.06
823.44	68.78
823.618	87.21
823.796	38.06
823.974	93.35
824.152	101.55
824.329	70.83
824.507	142.5
824.685	136.36
824.863	27.82
825.04	25.77
825.218	42.15
825.396	17.58
825.574	85.16
825.751	17.58
825.929	68.78
826.107	89.26
826.284	128.17
826.462	40.11
826.639	119.98
826.817	83.11
826.994	46.25
827.172	89.26
827.349	29.87
827.527	44.2
827.704	50.35
827.882	62.63
828.059	19.63
828.237	11.43
828.414	99.5
828.591	95.4
828.769	17.58
828.946	97.45
829.124	27.82
829.301	-25.43
829.478	111.78
829.655	19.63
829.833	58.54
830.01	27.82
830.187	83.11
830.364	48.3
830.542	74.92
830.719	60.59
830.896	52.39
831.073	150.7
831.25	103.59
831.427	117.93
831.604	124.07
831.782	58.54
831.959	79.02
832.136	25.77
832.313	66.73
832.49	46.25
832.667	27.82
832.844	138.41
833.021	27.82
833.198	5.29
833.374	83.11
833.551	52.39
833.728	36.01
833.905	50.35
834.082	83.11
834.259	44.2
834.436	95.4
834.612	44.2
834.789	23.72
834.966	68.78
835.143	44.2
835.319	70.83
835.496	79.02
835.673	-13.14
835.85	87.21
836.026	103.59
836.203	9.39
836.38	79.02
836.556	83.11
836.733	21.67
836.909	85.16
837.086	-9.05
837.262	31.91
837.439	42.15
837.616	111.78
837.792	33.96
837.968	17.58
838.145	46.25
838.321	101.55
838.498	-66.39
838.674	38.06
838.851	40.11
839.027	64.68
839.203	119.98
839.38	1.19
839.556	48.3
839.732	132.26
839.909	40.11
840.085	46.25
840.261	44.2
840.437	-25.43
840.614	48.3
840.79	48.3
840.966	27.82
841.142	79.02
841.318	48.3
841.494	27.82
841.671	56.49
841.847	54.44
842.023	33.96
842.199	113.83
842.375	21.67
842.551	50.35
842.727	13.48
842.903	44.2
843.079	13.48
843.255	91.31
843.431	31.91
843.607	36.01
843.783	36.01
843.959	11.43
844.134	25.77
844.31	31.91
844.486	52.39
844.662	29.87
844.838	-9.05
845.013	64.68
845.189	117.93
845.365	99.5
845.541	46.25
845.716	38.06
845.892	-29.52
846.068	97.45
846.244	1.19
846.419	11.43
846.595	46.25
846.77	136.36
846.946	89.26
847.122	91.31
847.297	33.96
847.473	171.18
847.648	3.24
847.824	70.83
847.999	-33.62
848.175	9.39
848.35	42.15
848.526	-23.38
848.701	21.67
848.876	29.87
849.052	31.91
849.227	-2.9
849.403	50.35
849.578	68.78
849.753	36.01
849.929	-25.43
850.104	70.83
850.279	13.48
850.454	54.44
850.63	72.87
850.805	-0.85
850.98	99.5
851.155	56.49
851.33	-4.95
851.505	83.11
851.681	29.87
851.856	40.11
852.031	85.16
852.206	31.91
852.381	21.67
852.556	50.35
852.731	107.69
852.906	93.35
853.081	-2.9
853.256	62.63
853.431	38.06
853.606	66.73
853.781	27.82
853.956	66.73
854.131	13.48
854.305	21.67
854.48	-54.1
854.655	-19.29
854.83	58.54
855.005	-13.14
855.18	60.59
855.354	44.2
855.529	-2.9
855.704	68.78
855.879	111.78
856.053	-4.95
856.228	17.58
856.403	11.43
856.577	76.97
856.752	-23.38
856.926	48.3
857.101	13.48
857.276	50.35
857.45	44.2
857.625	25.77
857.799	-21.33
857.974	-25.43
858.148	64.68
858.323	44.2
858.497	13.48
858.672	7.34
858.846	-23.38
859.02	3.24
859.195	-47.96
859.369	76.97
859.543	46.25
859.718	60.59
859.892	50.35
860.066	27.82
860.241	33.96
860.415	70.83
860.589	-4.95
860.763	31.91
860.938	58.54
861.112	64.68
861.286	13.48
861.46	70.83
861.634	38.06
861.808	72.87
861.982	52.39
862.157	27.82
862.331	56.49
862.505	64.68
862.679	11.43
862.853	25.77
863.027	-17.24
863.201	-0.85
863.375	56.49
863.549	36.01
863.722	27.82
863.896	7.34
864.07	48.3
864.244	46.25
864.418	5.29
864.592	46.25
864.766	-2.9
864.939	29.87
865.113	-17.24
865.287	44.2
865.461	29.87
865.634	85.16
865.808	5.29
865.982	93.35
866.156	-19.29
866.329	-2.9
866.503	38.06
866.676	33.96
866.85	1.19
867.024	40.11
867.197	50.35
867.371	9.39
867.544	13.48
867.718	68.78
867.891	62.63
868.065	-4.95
868.238	40.11
868.412	62.63
868.585	29.87
868.759	19.63
868.932	-2.9
869.105	70.83
869.279	-0.85
869.452	72.87
869.625	27.82
869.799	5.29
869.972	13.48
870.145	60.59
870.319	56.49
870.492	79.02
870.665	76.97
870.838	-0.85
871.011	-35.67
871.185	-21.33
871.358	3.24
871.531	-45.91
871.704	-31.57
871.877	97.45
872.05	-27.48
872.223	64.68
872.396	36.01
872.569	68.78
872.742	-39.76
872.915	85.16
873.088	-17.24
873.261	60.59
873.434	7.34
873.607	-33.62
873.78	3.24
873.953	15.53
874.126	44.2
874.299	21.67
874.471	128.17
874.644	48.3
874.817	93.35
874.99	27.82
875.163	-15.19
875.335	25.77
875.508	44.2
875.681	17.58
875.853	-70.48
876.026	134.31
876.199	81.07
876.371	-97.11
876.544	25.77
876.717	126.12
876.889	33.96
877.062	76.97
877.234	9.39
877.407	46.25
877.579	29.87
877.752	-39.76
877.924	5.29
878.097	-25.43
878.269	-33.62
878.442	-2.9
878.614	11.43
878.786	17.58
878.959	44.2
879.131	48.3
879.303	19.63
879.476	29.87
879.648	-11.09
879.82	38.06
879.993	38.06
880.165	5.29
880.337	-64.34
880.509	38.06
880.681	17.58
880.854	46.25
881.026	44.2
881.198	68.78
881.37	-33.62
881.542	-50
881.714	-11.09
881.886	52.39
882.058	9.39
882.23	-0.85
882.402	-72.53
882.574	-23.38
882.746	64.68
882.918	-25.43
883.09	72.87
883.262	-13.14
883.434	27.82
883.606	7.34
883.778	17.58
883.95	-9.05
884.122	-0.85
884.293	54.44
884.465	21.67
884.637	66.73
884.809	50.35
884.98	-31.57
885.152	50.35
885.324	70.83
885.496	-7
885.667	-7
885.839	48.3
886.011	58.54
886.182	3.24
886.354	-23.38
886.525	44.2
886.697	50.35
886.869	-4.95
887.04	-41.81
887.212	46.25
887.383	111.78
887.555	-35.67
887.726	15.53
887.897	3.24
888.069	27.82
888.24	56.49
888.412	109.74
888.583	7.34
888.754	25.77
888.926	-7
889.097	15.53
889.268	21.67
889.44	-27.48
889.611	-37.72
889.782	-2.9
889.953	-7
890.125	-64.34
890.296	-54.1
890.467	66.73
890.638	-19.29
890.809	60.59
890.98	1.19
891.151	23.72
891.323	1.19
891.494	-11.09
891.665	36.01
891.836	85.16
892.007	-47.96
892.178	11.43
892.349	-58.2
892.52	-33.62
892.691	56.49
892.862	68.78
893.032	-7
893.203	-13.14
893.374	-4.95
893.545	11.43
893.716	-21.33
893.887	-43.86
894.057	29.87
894.228	42.15
894.399	-72.53
894.57	17.58
894.74	-37.72
894.911	1.19
895.082	38.06
895.253	7.34
895.423	83.11
895.594	25.77
895.764	76.97
895.935	40.11
896.106	-25.43
896.276	5.29
896.447	27.82
896.617	15.53
896.788	27.82
896.958	25.77
897.129	25.77
897.299	33.96
897.47	-23.38
897.64	-7
897.81	50.35
897.981	-0.85
898.151	1.19
898.322	13.48
898.492	-37.72
898.662	44.2
898.832	-4.95
899.003	21.67
899.173	-43.86
899.343	-2.9
899.513	-7
