Data from USB4F104151__76__12-54-42-506.txt Node

Date: Fri Mar 14 12:54:42 EDT 2025
User: louis
Spectrometer: USB4F10415
Trigger mode: 4
Integration Time (sec): 1.000000E-2
Scans to average: 1
Electric dark correction enabled: true
Nonlinearity correction enabled: false
Boxcar width: 0
XAxis mode: Wavelengths
Number of Pixels in Spectrum: 3648
>>>>>Begin Spectral Data<<<<<
178.204	-23.72
178.424	-23.72
178.644	-23.72
178.864	15.19
179.084	-13.48
179.304	-60.59
179.524	-21.67
179.744	29.52
179.964	-13.48
180.184	35.67
180.404	-21.67
180.624	72.53
180.844	21.33
181.064	-36.01
181.283	19.29
181.503	-13.48
181.723	-11.43
181.943	17.24
182.163	41.81
182.383	23.38
182.602	31.57
182.822	33.62
183.042	95.06
183.262	39.76
183.482	54.1
183.701	-56.49
183.921	-46.25
184.141	23.38
184.361	-27.82
184.58	-13.48
184.8	-7.34
185.02	21.33
185.239	60.24
185.459	0.85
185.679	54.1
185.898	-31.91
186.118	45.91
186.338	37.72
186.557	21.33
186.777	33.62
186.997	41.81
187.216	25.43
187.436	39.76
187.655	33.62
187.875	21.33
188.095	-31.91
188.314	-5.29
188.534	50
188.753	-7.34
188.973	25.43
189.192	13.14
189.412	-36.01
189.631	27.48
189.851	2.9
190.07	58.2
190.29	-38.06
190.509	43.86
190.729	33.62
190.948	66.39
191.168	25.43
191.387	50
191.607	-17.58
191.826	23.38
192.045	47.96
192.265	33.62
192.484	31.57
192.704	27.48
192.923	-15.53
193.142	72.53
193.362	-5.29
193.581	-23.72
193.8	-33.96
194.02	21.33
194.239	17.24
194.458	11.09
194.678	25.43
194.897	-3.24
195.116	17.24
195.335	-5.29
195.555	27.48
195.774	-66.73
195.993	66.39
196.212	29.52
196.432	-48.3
196.651	-1.19
196.87	-17.58
197.089	47.96
197.308	11.09
197.528	47.96
197.747	17.24
197.966	66.39
198.185	76.63
198.404	90.96
198.623	-33.96
198.842	19.29
199.062	11.09
199.281	-3.24
199.5	-42.15
199.719	0.85
199.938	74.58
200.157	74.58
200.376	-56.49
200.595	70.48
200.814	72.53
201.033	-19.63
201.252	41.81
201.471	50
201.69	29.52
201.909	2.9
202.128	37.72
202.347	-11.43
202.566	21.33
202.785	31.57
203.004	7
203.223	88.92
203.442	-38.06
203.661	84.82
203.879	70.48
204.098	-11.43
204.317	25.43
204.536	45.91
204.755	17.24
204.974	-27.82
205.193	47.96
205.411	93.01
205.63	50
205.849	35.67
206.068	29.52
206.287	66.39
206.505	66.39
206.724	47.96
206.943	-3.24
207.162	-29.87
207.381	31.57
207.599	56.15
207.818	9.05
208.037	-44.2
208.255	-5.29
208.474	33.62
208.693	-19.63
208.911	17.24
209.13	4.95
209.349	43.86
209.567	2.9
209.786	11.09
210.005	29.52
210.223	37.72
210.442	84.82
210.661	-17.58
210.879	-17.58
211.098	17.24
211.316	29.52
211.535	80.72
211.753	74.58
211.972	62.29
212.191	-11.43
212.409	23.38
212.628	41.81
212.846	66.39
213.065	-11.43
213.283	2.9
213.502	-44.2
213.72	50
213.938	-5.29
214.157	-15.53
214.375	-3.24
214.594	54.1
214.812	-31.91
215.031	-23.72
215.249	4.95
215.467	21.33
215.686	-19.63
215.904	64.34
216.122	-15.53
216.341	23.38
216.559	-36.01
216.778	25.43
216.996	4.95
217.214	21.33
217.432	-3.24
217.651	2.9
217.869	76.63
218.087	-62.63
218.306	-36.01
218.524	0.85
218.742	-5.29
218.96	19.29
219.179	-7.34
219.397	4.95
219.615	23.38
219.833	17.24
220.051	56.15
220.27	25.43
220.488	41.81
220.706	-9.39
220.924	74.58
221.142	86.87
221.36	78.68
221.578	39.76
221.796	52.05
222.015	41.81
222.233	-19.63
222.451	23.38
222.669	68.44
222.887	-7.34
223.105	17.24
223.323	27.48
223.541	29.52
223.759	2.9
223.977	58.2
224.195	-7.34
224.413	-21.67
224.631	88.92
224.849	47.96
225.067	76.63
225.285	0.85
225.503	76.63
225.721	-21.67
225.939	70.48
226.157	21.33
226.375	17.24
226.592	2.9
226.81	-5.29
227.028	27.48
227.246	4.95
227.464	31.57
227.682	74.58
227.9	11.09
228.117	-11.43
228.335	2.9
228.553	17.24
228.771	13.14
228.989	13.14
229.206	29.52
229.424	-17.58
229.642	21.33
229.86	35.67
230.077	31.57
230.295	25.43
230.513	25.43
230.731	4.95
230.948	19.29
231.166	56.15
231.384	27.48
231.601	45.91
231.819	33.62
232.037	93.01
232.254	19.29
232.472	50
232.689	66.39
232.907	35.67
233.125	-91.31
233.342	25.43
233.56	13.14
233.777	-5.29
233.995	37.72
234.213	23.38
234.43	-13.48
234.648	25.43
234.865	7
235.083	56.15
235.3	-21.67
235.518	41.81
235.735	-7.34
235.953	19.29
236.17	-7.34
236.388	11.09
236.605	9.05
236.822	31.57
237.04	-33.96
237.257	-13.48
237.475	25.43
237.692	68.44
237.909	-3.24
238.127	41.81
238.344	27.48
238.562	-3.24
238.779	-33.96
238.996	-23.72
239.214	-17.58
239.431	70.48
239.648	-1.19
239.865	19.29
240.083	-38.06
240.3	25.43
240.517	68.44
240.735	52.05
240.952	25.43
241.169	39.76
241.386	50
241.603	9.05
241.821	47.96
242.038	17.24
242.255	7
242.472	47.96
242.689	45.91
242.907	70.48
243.124	-29.87
243.341	-5.29
243.558	0.85
243.775	52.05
243.992	7
244.209	82.77
244.426	25.43
244.643	47.96
244.86	58.2
245.078	52.05
245.295	25.43
245.512	17.24
245.729	31.57
245.946	31.57
246.163	33.62
246.38	19.29
246.597	-19.63
246.814	78.68
247.031	-9.39
247.248	9.05
247.464	50
247.681	62.29
247.898	52.05
248.115	13.14
248.332	-5.29
248.549	19.29
248.766	52.05
248.983	2.9
249.2	54.1
249.417	21.33
249.633	99.16
249.85	60.24
250.067	2.9
250.284	80.72
250.501	15.19
250.717	43.86
250.934	13.14
251.151	7
251.368	21.33
251.585	21.33
251.801	27.48
252.018	70.48
252.235	-23.72
252.451	-48.3
252.668	45.91
252.885	25.43
253.102	43.86
253.318	23.38
253.535	54.1
253.752	58.2
253.968	2.9
254.185	43.86
254.401	29.52
254.618	54.1
254.835	88.92
255.051	2.9
255.268	-60.59
255.484	25.43
255.701	41.81
255.917	72.53
256.134	41.81
256.351	41.81
256.567	56.15
256.784	56.15
257	-11.43
257.217	-27.82
257.433	101.2
257.65	-13.48
257.866	60.24
258.082	-19.63
258.299	78.68
258.515	27.48
258.732	-5.29
258.948	21.33
259.165	70.48
259.381	39.76
259.597	15.19
259.814	-25.77
260.03	29.52
260.246	7
260.463	25.43
260.679	107.35
260.895	43.86
261.112	27.48
261.328	-3.24
261.544	2.9
261.761	-25.77
261.977	70.48
262.193	17.24
262.409	23.38
262.626	-38.06
262.842	39.76
263.058	-7.34
263.274	37.72
263.49	21.33
263.707	29.52
263.923	115.54
264.139	-9.39
264.355	7
264.571	35.67
264.787	54.1
265.004	23.38
265.22	27.48
265.436	64.34
265.652	-7.34
265.868	-3.24
266.084	-7.34
266.3	4.95
266.516	50
266.732	-19.63
266.948	41.81
267.164	-9.39
267.38	15.19
267.596	15.19
267.812	70.48
268.028	19.29
268.244	-17.58
268.46	37.72
268.676	15.19
268.892	43.86
269.108	-21.67
269.324	33.62
269.54	60.24
269.756	27.48
269.972	29.52
270.188	68.44
270.403	50
270.619	41.81
270.835	11.09
271.051	-15.53
271.267	50
271.483	31.57
271.698	27.48
271.914	11.09
272.13	45.91
272.346	7
272.562	-5.29
272.777	-1.19
272.993	62.29
273.209	-1.19
273.425	4.95
273.64	11.09
273.856	15.19
274.072	13.14
274.287	0.85
274.503	4.95
274.719	-5.29
274.934	9.05
275.15	-17.58
275.366	74.58
275.581	80.72
275.797	13.14
276.012	58.2
276.228	37.72
276.444	35.67
276.659	45.91
276.875	41.81
277.09	52.05
277.306	68.44
277.521	27.48
277.737	-13.48
277.952	27.48
278.168	-3.24
278.383	45.91
278.599	-9.39
278.814	56.15
279.03	78.68
279.245	39.76
279.461	11.09
279.676	45.91
279.892	35.67
280.107	54.1
280.322	4.95
280.538	56.15
280.753	15.19
280.969	43.86
281.184	-13.48
281.399	-27.82
281.615	70.48
281.83	88.92
282.045	-5.29
282.26	-31.91
282.476	-38.06
282.691	11.09
282.906	-3.24
283.122	86.87
283.337	37.72
283.552	43.86
283.767	29.52
283.983	74.58
284.198	-15.53
284.413	50
284.628	-1.19
284.843	121.68
285.058	103.25
285.274	39.76
285.489	41.81
285.704	52.05
285.919	27.48
286.134	-17.58
286.349	15.19
286.564	7
286.779	50
286.995	54.1
287.21	17.24
287.425	25.43
287.64	-44.2
287.855	13.14
288.07	11.09
288.285	25.43
288.5	25.43
288.715	0.85
288.93	35.67
289.145	17.24
289.36	-25.77
289.575	84.82
289.79	17.24
290.004	99.16
290.219	43.86
290.434	-3.24
290.649	66.39
290.864	-11.43
291.079	2.9
291.294	80.72
291.509	86.87
291.724	-5.29
291.938	37.72
292.153	-33.96
292.368	-40.11
292.583	95.06
292.798	50
293.012	-38.06
293.227	31.57
293.442	146.26
293.657	101.2
293.871	76.63
294.086	19.29
294.301	45.91
294.516	7
294.73	97.11
294.945	33.62
295.16	-40.11
295.374	86.87
295.589	76.63
295.804	-27.82
296.018	-13.48
296.233	4.95
296.447	21.33
296.662	21.33
296.877	45.91
297.091	66.39
297.306	4.95
297.52	50
297.735	-19.63
297.949	68.44
298.164	-50.35
298.378	62.29
298.593	56.15
298.807	-38.06
299.022	-1.19
299.236	4.95
299.451	27.48
299.665	11.09
299.88	115.54
300.094	15.19
300.309	33.62
300.523	43.86
300.737	43.86
300.952	-25.77
301.166	93.01
301.381	-5.29
301.595	50
301.809	-7.34
302.024	45.91
302.238	66.39
302.452	66.39
302.667	33.62
302.881	60.24
303.095	70.48
303.309	37.72
303.524	-3.24
303.738	90.96
303.952	7
304.166	25.43
304.381	15.19
304.595	105.3
304.809	-60.59
305.023	17.24
305.237	-5.29
305.452	78.68
305.666	56.15
305.88	56.15
306.094	27.48
306.308	-38.06
306.522	101.2
306.736	-38.06
306.95	58.2
307.164	56.15
307.379	-3.24
307.593	31.57
307.807	9.05
308.021	54.1
308.235	66.39
308.449	-13.48
308.663	25.43
308.877	97.11
309.091	-19.63
309.305	45.91
309.519	80.72
309.733	37.72
309.947	39.76
310.161	68.44
310.374	35.67
310.588	125.78
310.802	31.57
311.016	4.95
311.23	7
311.444	25.43
311.658	93.01
311.872	15.19
312.085	11.09
312.299	35.67
312.513	93.01
312.727	-36.01
312.941	-21.67
313.154	45.91
313.368	-27.82
313.582	23.38
313.796	-7.34
314.009	0.85
314.223	105.3
314.437	31.57
314.651	-46.25
314.864	2.9
315.078	54.1
315.292	-11.43
315.505	11.09
315.719	62.29
315.933	-5.29
316.146	27.48
316.36	78.68
316.573	21.33
316.787	21.33
317.001	54.1
317.214	2.9
317.428	7
317.641	74.58
317.855	-31.91
318.068	31.57
318.282	37.72
318.495	31.57
318.709	50
318.922	80.72
319.136	60.24
319.349	66.39
319.563	117.59
319.776	29.52
319.99	-31.91
320.203	37.72
320.417	60.24
320.63	29.52
320.843	133.97
321.057	-3.24
321.27	19.29
321.483	68.44
321.697	19.29
321.91	31.57
322.124	4.95
322.337	56.15
322.55	15.19
322.763	-48.3
322.977	35.67
323.19	2.9
323.403	50
323.617	-79.02
323.83	37.72
324.043	-9.39
324.256	39.76
324.469	-46.25
324.683	54.1
324.896	54.1
325.109	-21.67
325.322	-42.15
325.535	41.81
325.748	15.19
325.962	82.77
326.175	15.19
326.388	-38.06
326.601	-64.68
326.814	21.33
327.027	4.95
327.24	47.96
327.453	31.57
327.666	4.95
327.879	-25.77
328.092	13.14
328.305	15.19
328.518	-21.67
328.731	-23.72
328.944	23.38
329.157	23.38
329.37	-33.96
329.583	84.82
329.796	58.2
330.009	70.48
330.222	88.92
330.435	-38.06
330.648	47.96
330.861	45.91
331.073	43.86
331.286	70.48
331.499	21.33
331.712	7
331.925	-5.29
332.138	56.15
332.35	37.72
332.563	103.25
332.776	21.33
332.989	47.96
333.202	27.48
333.414	-3.24
333.627	-33.96
333.84	45.91
334.053	70.48
334.265	-13.48
334.478	31.57
334.691	60.24
334.903	35.67
335.116	13.14
335.329	113.49
335.541	-23.72
335.754	54.1
335.966	9.05
336.179	43.86
336.392	-38.06
336.604	33.62
336.817	68.44
337.029	37.72
337.242	39.76
337.454	13.14
337.667	64.34
337.88	45.91
338.092	25.43
338.305	68.44
338.517	-17.58
338.729	50
338.942	0.85
339.154	-15.53
339.367	7
339.579	82.77
339.792	13.14
340.004	64.34
340.217	37.72
340.429	-17.58
340.641	43.86
340.854	84.82
341.066	11.09
341.278	9.05
341.491	54.1
341.703	17.24
341.915	103.25
342.128	70.48
342.34	72.53
342.552	25.43
342.764	-17.58
342.977	2.9
343.189	56.15
343.401	107.35
343.613	11.09
343.826	33.62
344.038	-7.34
344.25	127.83
344.462	-11.43
344.674	60.24
344.886	41.81
345.099	121.68
345.311	37.72
345.523	47.96
345.735	21.33
345.947	19.29
346.159	15.19
346.371	103.25
346.583	-9.39
346.795	82.77
347.007	41.81
347.219	88.92
347.431	25.43
347.643	11.09
347.855	-46.25
348.067	-11.43
348.279	-9.39
348.491	84.82
348.703	-54.44
348.915	66.39
349.127	4.95
349.339	76.63
349.551	90.96
349.763	33.62
349.975	11.09
350.187	37.72
350.399	66.39
350.61	78.68
350.822	68.44
351.034	68.44
351.246	-5.29
351.458	86.87
351.669	21.33
351.881	60.24
352.093	54.1
352.305	74.58
352.517	-27.82
352.728	95.06
352.94	99.16
353.152	56.15
353.363	15.19
353.575	21.33
353.787	-21.67
353.999	58.2
354.21	62.29
354.422	60.24
354.633	19.29
354.845	11.09
355.057	31.57
355.268	56.15
355.48	-19.63
355.692	-3.24
355.903	52.05
356.115	31.57
356.326	23.38
356.538	39.76
356.749	56.15
356.961	29.52
357.172	41.81
357.384	-19.63
357.595	76.63
357.807	82.77
358.018	2.9
358.23	-9.39
358.441	7
358.653	60.24
358.864	47.96
359.075	35.67
359.287	17.24
359.498	39.76
359.709	29.52
359.921	97.11
360.132	35.67
360.344	54.1
360.555	-3.24
360.766	35.67
360.977	29.52
361.189	43.86
361.4	11.09
361.611	35.67
361.823	82.77
362.034	99.16
362.245	-15.53
362.456	29.52
362.667	25.43
362.879	64.34
363.09	27.48
363.301	68.44
363.512	7
363.723	-7.34
363.935	-1.19
364.146	-11.43
364.357	29.52
364.568	-5.29
364.779	37.72
364.99	21.33
365.201	60.24
365.412	56.15
365.623	-15.53
365.834	74.58
366.045	45.91
366.256	95.06
366.467	60.24
366.678	19.29
366.889	60.24
367.1	23.38
367.311	-3.24
367.522	-3.24
367.733	70.48
367.944	56.15
368.155	50
368.366	-21.67
368.577	70.48
368.788	68.44
368.999	-15.53
369.209	15.19
369.42	125.78
369.631	21.33
369.842	27.48
370.053	13.14
370.264	68.44
370.474	43.86
370.685	47.96
370.896	-11.43
371.107	82.77
371.317	47.96
371.528	52.05
371.739	41.81
371.95	58.2
372.16	62.29
372.371	35.67
372.582	39.76
372.792	39.76
373.003	-13.48
373.214	4.95
373.424	50
373.635	2.9
373.846	21.33
374.056	41.81
374.267	45.91
374.477	82.77
374.688	35.67
374.898	78.68
375.109	107.35
375.319	-17.58
375.53	17.24
375.74	33.62
375.951	47.96
376.161	15.19
376.372	-25.77
376.582	74.58
376.793	-7.34
377.003	29.52
377.214	-40.11
377.424	93.01
377.635	27.48
377.845	19.29
378.055	35.67
378.266	-83.11
378.476	37.72
378.686	-38.06
378.897	-31.91
379.107	31.57
379.317	25.43
379.528	35.67
379.738	43.86
379.948	17.24
380.158	19.29
380.369	31.57
380.579	2.9
380.789	-15.53
380.999	2.9
381.21	37.72
381.42	62.29
381.63	39.76
381.84	9.05
382.05	43.86
382.261	13.14
382.471	39.76
382.681	27.48
382.891	68.44
383.101	99.16
383.311	66.39
383.521	-5.29
383.731	33.62
383.941	17.24
384.151	37.72
384.361	41.81
384.571	-15.53
384.781	-3.24
384.991	50
385.201	76.63
385.411	64.34
385.621	72.53
385.831	-25.77
386.041	2.9
386.251	15.19
386.461	93.01
386.671	111.44
386.881	76.63
387.091	31.57
387.301	9.05
387.511	45.91
387.72	35.67
387.93	54.1
388.14	25.43
388.35	99.16
388.56	109.4
388.769	21.33
388.979	56.15
389.189	27.48
389.399	78.68
389.609	62.29
389.818	37.72
390.028	90.96
390.238	64.34
390.447	-9.39
390.657	-33.96
390.867	47.96
391.076	-5.29
391.286	76.63
391.496	54.1
391.705	-21.67
391.915	35.67
392.125	62.29
392.334	86.87
392.544	111.44
392.753	45.91
392.963	95.06
393.172	50
393.382	93.01
393.591	41.81
393.801	29.52
394.01	86.87
394.22	101.2
394.429	78.68
394.639	19.29
394.848	62.29
395.058	17.24
395.267	27.48
395.477	86.87
395.686	37.72
395.895	43.86
396.105	156.5
396.314	82.77
396.524	41.81
396.733	15.19
396.942	82.77
397.152	62.29
397.361	84.82
397.57	9.05
397.78	74.58
397.989	19.29
398.198	109.4
398.407	76.63
398.617	47.96
398.826	43.86
399.035	2.9
399.244	68.44
399.453	86.87
399.663	45.91
399.872	101.2
400.081	107.35
400.29	15.19
400.499	39.76
400.708	201.55
400.917	84.82
401.127	45.91
401.336	72.53
401.545	105.3
401.754	52.05
401.963	43.86
402.172	117.59
402.381	15.19
402.59	88.92
402.799	111.44
403.008	27.48
403.217	54.1
403.426	54.1
403.635	103.25
403.844	80.72
404.053	142.16
404.262	-3.24
404.471	119.64
404.68	33.62
404.888	162.64
405.097	115.54
405.306	72.53
405.515	64.34
405.724	45.91
405.933	74.58
406.142	125.78
406.35	140.12
406.559	131.92
406.768	80.72
406.977	136.02
407.185	117.59
407.394	88.92
407.603	183.12
407.812	195.41
408.02	119.64
408.229	150.36
408.438	219.99
408.646	170.83
408.855	74.58
409.064	166.74
409.272	207.7
409.481	146.26
409.69	133.97
409.898	164.69
410.107	131.92
410.315	119.64
410.524	232.27
410.733	219.99
410.941	179.03
411.15	238.42
411.358	254.8
411.567	240.47
411.775	258.9
411.984	211.79
412.192	244.56
412.401	252.75
412.609	197.46
412.818	291.66
413.026	269.14
413.234	262.99
413.443	271.19
413.651	299.86
413.86	287.57
414.068	369.49
414.276	387.92
414.485	287.57
414.693	394.06
414.901	406.35
415.11	381.78
415.318	396.11
415.526	406.35
415.734	467.79
415.943	408.4
416.151	439.12
416.359	404.3
416.567	412.5
416.776	463.69
416.984	611.15
417.192	551.76
417.4	551.76
417.608	566.09
417.817	535.37
418.025	619.34
418.233	652.11
418.441	641.87
418.649	650.06
418.857	662.35
419.065	715.59
419.273	660.3
419.481	639.82
419.689	807.75
419.897	801.61
420.105	901.96
420.313	832.33
420.521	854.86
420.729	832.33
420.937	947.01
421.145	1067.85
421.353	1059.65
421.561	987.97
421.769	1043.27
421.977	1162.05
422.185	1069.89
422.393	1192.77
422.601	1262.4
422.809	1172.29
423.017	1297.22
423.224	1286.98
423.432	1221.44
423.64	1332.03
423.848	1467.2
424.056	1520.45
424.263	1528.64
424.471	1575.74
424.679	1633.08
424.887	1553.21
425.094	1723.2
425.302	1641.28
425.51	1884.98
425.718	1862.46
425.925	1809.21
426.133	1919.8
426.341	2009.91
426.548	2212.66
426.756	2089.78
426.964	2038.58
427.171	2218.8
427.379	2292.53
427.586	2376.5
427.794	2407.22
428.001	2601.77
428.209	2614.06
428.417	2577.2
428.624	2837.29
428.832	2708.27
429.039	2784.04
429.247	2818.86
429.454	3037.99
429.662	3279.65
429.869	2882.35
430.076	3234.6
430.284	3197.73
430.491	3279.65
430.699	3539.74
430.906	3363.62
431.114	3580.7
431.321	3711.77
431.528	3885.85
431.736	4070.17
431.943	4164.37
432.15	4010.78
432.358	4111.13
432.565	4346.64
432.772	4383.51
432.979	4649.74
433.187	4723.47
433.394	4655.89
433.601	4897.55
433.808	4866.83
434.016	4918.03
434.223	5085.96
434.43	5608.19
434.637	5370.63
434.844	5577.47
435.052	5669.63
435.259	5812.99
435.466	5860.09
435.673	5765.89
435.88	6228.73
436.087	6458.1
436.294	6478.58
436.501	6279.93
436.708	6345.46
436.915	6806.25
437.122	7205.61
437.329	6769.39
437.537	7062.25
437.743	7262.95
437.95	7303.91
438.157	7525.09
438.364	8026.84
438.571	7660.26
438.778	7858.91
438.985	8635.09
439.192	8297.17
439.399	8649.43
439.606	8235.74
439.813	8774.35
440.02	9382.6
440.227	9265.86
440.433	9147.08
440.64	9327.3
440.847	9278.15
441.054	9724.61
441.261	10388.15
441.467	10072.76
441.674	10390.2
441.881	10853.04
442.088	10621.62
442.294	10672.82
442.501	10807.98
442.708	11270.83
442.914	11360.94
443.121	12262.04
443.328	11578.02
443.534	12518.04
443.741	12120.73
443.948	11971.23
444.154	13048.46
444.361	13034.13
444.568	12984.98
444.774	12921.49
444.981	13101.71
445.187	13775.49
445.394	14238.33
445.6	13963.9
445.807	15266.41
446.013	14627.45
446.22	14926.45
446.426	15673.96
446.633	15645.29
446.839	16079.46
447.046	15391.34
447.252	16370.27
447.459	16650.84
447.665	16341.6
447.871	17207.89
448.078	17730.12
448.284	17087.06
448.491	17465.93
448.697	17908.29
448.903	18401.85
449.11	18580.03
449.316	18461.24
449.522	18815.54
449.728	19130.93
449.935	19466.8
450.141	19094.07
450.347	19911.21
450.553	19161.65
450.76	19284.53
450.966	19939.88
451.172	19784.23
451.378	20271.65
451.584	19982.88
451.791	20355.61
451.997	20386.33
452.203	21017.11
452.409	20709.91
452.615	20566.56
452.821	20367.9
453.027	19556.91
453.233	20857.37
453.44	20075.04
453.646	20109.86
453.852	19982.88
454.058	20566.56
454.264	19931.69
454.47	20529.69
454.676	19999.27
454.882	20683.29
455.088	18885.17
455.294	19001.91
455.5	19184.18
455.705	19638.83
455.911	18876.98
456.117	18252.35
456.323	18035.27
456.529	17146.45
456.735	18123.33
456.941	17506.89
457.147	17074.77
457.352	16925.27
457.558	16603.74
457.764	16644.7
457.97	16179.81
458.176	15962.72
458.381	15919.71
458.587	15131.25
458.793	15164.01
458.999	14385.79
459.204	15409.77
459.41	15096.43
459.616	13912.71
459.821	14150.27
460.027	13771.4
460.233	13453.96
460.438	13140.62
460.644	13249.16
460.85	12573.33
461.055	12337.82
461.261	12206.75
461.466	11410.09
461.672	10992.3
461.878	11754.15
462.083	11020.97
462.289	10805.94
462.494	10787.5
462.7	10396.34
462.905	10052.28
463.111	10279.61
463.316	10320.57
463.522	10097.34
463.727	10234.55
463.932	10306.23
464.138	9968.32
464.343	10070.72
464.549	9618.11
464.754	9960.13
464.959	10033.85
465.165	9816.77
465.37	9581.25
465.575	9372.36
465.781	9616.07
465.986	9677.51
466.191	9454.28
466.397	9104.07
466.602	8698.58
466.807	9089.74
467.012	8985.29
467.218	8936.14
467.423	8866.51
467.628	9069.26
467.833	9413.32
468.038	8970.96
468.244	8708.82
468.449	9128.65
468.654	8936.14
468.859	8749.78
469.064	8737.49
469.269	8450.77
469.474	8669.91
469.679	8600.27
469.885	8301.27
470.09	8542.93
470.295	8303.32
470.5	8356.57
470.705	8170.2
470.91	8145.63
471.115	7932.64
471.32	8182.49
471.525	8039.13
471.73	7920.35
471.935	7813.85
472.139	7459.56
472.344	7564
472.549	7666.4
472.754	7520.99
472.959	7262.95
473.164	7201.51
473.369	7131.88
473.574	7412.45
473.778	7416.55
473.983	7295.72
474.188	7162.6
474.393	6992.62
474.598	6935.28
474.802	6961.9
475.007	6798.06
475.212	6834.93
475.417	6603.5
475.621	6583.02
475.826	6564.59
476.031	6560.5
476.235	6316.79
476.44	6523.63
476.645	6310.65
476.849	6290.17
477.054	6384.37
477.259	6050.55
477.463	6081.27
477.668	5839.61
477.872	6144.76
478.077	6003.45
478.282	5823.23
478.486	5774.08
478.691	5726.97
478.895	5747.45
479.1	5731.07
479.304	5686.01
479.509	5458.69
479.713	5683.97
479.918	5556.99
480.122	5425.92
480.326	5563.14
480.531	5475.07
480.735	5569.28
480.94	5292.8
481.144	5538.56
481.348	5229.32
481.553	5444.35
481.757	5329.67
481.961	5479.17
482.166	5356.29
482.37	5286.66
482.574	5372.68
482.778	5341.96
482.983	5436.16
483.187	5485.31
483.391	5362.44
483.595	5352.2
483.8	5253.89
484.004	5417.73
484.208	5374.72
484.412	5208.84
484.616	5397.25
484.821	5473.03
485.025	5409.54
485.229	5317.38
485.433	5149.45
485.637	5262.09
485.841	5221.13
486.045	5298.95
486.249	5313.28
486.453	5327.62
486.657	5319.43
486.861	5333.76
487.065	5100.3
487.269	5223.17
487.473	5100.3
487.677	5253.89
487.881	5395.2
488.085	5192.45
488.289	5307.14
488.493	5247.75
488.697	5313.28
488.901	5393.16
489.105	5204.74
489.309	5436.16
489.512	5307.14
489.716	5266.18
489.92	5401.35
490.124	5309.19
490.328	5493.51
490.531	5378.82
490.735	5450.5
490.939	5595.9
491.143	5556.99
491.346	5489.41
491.55	5655.3
491.754	5622.53
491.958	5655.3
492.161	5851.9
492.365	5686.01
492.569	5677.82
492.772	5632.77
492.976	5765.89
493.18	5769.98
493.383	5751.55
493.587	5894.91
493.79	6009.59
493.994	5812.99
494.197	5747.45
494.401	5954.3
494.605	6054.65
494.808	6048.51
495.012	6075.13
495.215	6281.97
495.419	6132.47
495.622	6187.77
495.825	6286.07
496.029	6316.79
496.232	6312.69
496.436	6384.37
496.639	6793.97
496.843	6544.11
497.046	6675.18
497.249	6748.91
497.453	6841.07
497.656	6640.37
497.859	6781.68
498.063	6789.87
498.266	7066.35
498.469	6947.56
498.673	7070.44
498.876	7146.22
499.079	7387.88
499.282	7248.61
499.485	7408.36
499.689	7650.02
499.892	7699.17
500.095	7643.87
500.298	7787.23
500.501	7719.65
500.705	8131.29
500.908	7969.5
501.111	8217.3
501.314	8209.11
501.517	8473.3
501.72	8499.92
501.923	8342.23
502.126	8671.95
502.329	8975.05
502.532	8856.27
502.735	8829.65
502.938	9116.36
503.141	9128.65
503.344	9222.86
503.547	9331.4
503.75	9517.76
503.953	9714.37
504.156	9718.47
504.359	9831.1
504.562	9800.38
504.765	10011.32
504.968	10169.02
505.17	10310.33
505.373	10308.28
505.576	10461.88
505.779	10754.74
505.982	10578.61
506.185	10885.81
506.387	10781.36
506.59	11119.28
506.793	11285.16
506.996	11403.94
507.198	11471.53
507.401	11770.53
507.604	11813.54
507.807	11764.39
508.009	12053.15
508.212	12255.9
508.415	12331.67
508.617	12505.75
508.82	12499.61
509.022	12544.66
509.225	12923.54
509.428	12827.28
509.63	12630.68
509.833	12991.12
510.035	13290.12
510.238	13413
510.44	13413
510.643	13726.34
510.845	13591.17
511.048	13843.07
511.25	14002.82
511.453	14260.86
511.655	14695.03
511.858	14273.15
512.06	14606.97
512.262	14787.19
512.465	14479.99
512.667	15196.78
512.87	15344.24
513.072	15233.64
513.274	15331.95
513.477	15493.74
513.679	15893.09
513.881	15993.44
514.084	16222.81
514.286	16231.01
514.488	16089.7
514.69	16630.36
514.893	16726.61
515.095	16927.32
515.297	16972.37
515.499	17099.34
515.701	17429.07
515.904	17578.57
516.106	17607.24
516.308	17748.55
516.51	17975.88
516.712	18059.84
516.914	18156.1
517.116	18682.42
517.318	18451
517.52	18942.52
517.722	19010.1
517.925	18952.76
518.127	19352.11
518.329	19479.08
518.531	19243.57
518.733	19921.45
518.935	20109.86
519.136	19946.02
519.338	20486.68
519.54	20396.57
519.742	20474.4
519.944	20433.44
520.146	20869.65
520.348	21090.84
520.55	21041.68
520.752	21060.12
520.954	21678.6
521.155	21389.84
521.357	21864.97
521.559	22350.34
521.761	22321.66
521.963	22323.71
522.164	22180.35
522.366	22477.31
522.568	22555.13
522.77	22792.7
522.971	23161.33
523.173	22972.92
523.375	23177.72
523.576	23052.79
523.778	23288.31
523.98	23484.91
524.181	23964.14
524.383	23575.02
524.584	23951.85
524.786	24263.14
524.988	24234.47
525.189	24203.75
525.391	24562.14
525.592	24740.32
525.794	24494.56
525.995	24637.92
526.197	24603.1
526.398	24549.85
526.6	25115.09
526.801	25450.96
527.003	25090.52
527.204	25309.65
527.406	25430.48
527.607	25203.16
527.808	25706.96
528.01	24965.59
528.211	25418.19
528.412	25887.18
528.614	26020.3
528.815	25747.92
529.016	25702.86
529.218	25709.01
529.419	25647.57
529.62	26048.97
529.822	26120.65
530.023	26114.5
530.224	26044.87
530.425	26022.34
530.626	25786.83
530.828	25602.51
531.029	26544.58
531.23	26098.12
531.431	26427.84
531.632	26233.29
531.833	26452.42
532.035	26382.79
532.236	26216.9
532.437	26493.38
532.638	26415.55
532.839	26577.34
533.04	26489.28
533.241	26513.86
533.442	26825.15
533.643	26601.92
533.844	26378.69
534.045	26507.71
534.246	26302.92
534.447	26796.48
534.648	26421.7
534.849	26601.92
535.05	26589.63
535.251	26538.43
535.451	26548.67
535.652	26900.92
535.853	26833.34
536.054	26577.34
536.255	26640.83
536.456	26212.81
536.657	26995.13
536.857	26403.27
537.058	26501.57
537.259	26638.78
537.46	26632.64
537.66	26988.99
537.861	26743.23
538.062	26646.97
538.263	26776
538.463	26460.61
538.664	26821.05
538.865	26667.45
539.065	26558.91
539.266	26569.15
539.466	26681.79
539.667	26282.44
539.868	26565.06
540.068	26542.53
540.269	26528.19
540.469	26761.66
540.67	26526.14
540.87	26712.51
541.071	26528.19
541.271	26776
541.472	26399.17
541.672	26444.23
541.873	26327.49
542.073	26098.12
542.274	26581.44
542.474	26212.81
542.675	26466.75
542.875	26366.4
543.075	26407.36
543.276	26218.95
543.476	26661.31
543.676	26290.63
543.877	26329.54
544.077	26724.8
544.277	26292.68
544.478	26554.82
544.678	26298.82
544.878	26464.71
545.078	26427.84
545.279	26304.96
545.479	25823.69
545.679	26298.82
545.879	26304.96
546.079	26003.91
546.28	26317.25
546.48	25852.36
546.68	26298.82
546.88	26438.08
547.08	26100.17
547.28	25967.05
547.48	26159.56
547.68	26362.31
547.88	26274.24
548.081	25960.91
548.281	26161.61
548.481	26259.91
548.681	26333.64
548.881	26264
549.081	26032.58
549.28	26311.11
549.48	26489.28
549.68	26266.05
549.88	26446.27
550.08	26134.98
550.28	26210.76
550.48	26221
550.68	26290.63
550.88	26259.91
551.08	25934.28
551.279	26376.64
551.479	25979.34
551.679	25872.84
551.879	25633.23
552.079	26196.42
552.278	25919.95
552.478	26225.09
552.678	25780.68
552.878	26001.86
553.077	25852.36
553.277	25911.75
553.477	26302.92
553.676	25770.44
553.876	25917.9
554.076	25954.76
554.275	25649.61
554.475	25815.5
554.674	25938.38
554.874	26014.15
555.074	25938.38
555.273	25909.71
555.473	25637.33
555.672	25643.47
555.872	25598.41
556.071	25479.63
556.271	25930.19
556.47	25590.22
556.67	25612.75
556.869	25543.12
557.068	25633.23
557.268	25342.42
557.467	25573.84
557.667	25498.06
557.866	25393.62
558.065	25663.95
558.265	25530.83
558.464	25397.71
558.663	25747.92
558.863	25205.2
559.062	25766.35
559.261	25471.44
559.461	25389.52
559.66	25098.71
559.859	25227.73
560.058	25022.94
560.258	25326.03
560.457	24781.28
560.656	25291.22
560.855	25194.96
561.054	25037.27
561.253	24918.49
561.453	25115.09
561.652	25246.16
561.851	25182.68
562.05	24750.56
562.249	24717.79
562.448	25348.56
562.647	24891.87
562.846	24830.43
563.045	24826.33
563.244	24687.07
563.443	24558.05
563.642	24500.7
563.841	24662.49
564.04	24512.99
564.239	24674.78
564.438	24623.58
564.637	24719.84
564.836	24785.37
565.035	23941.61
565.234	24408.54
565.432	24416.74
565.631	24490.46
565.83	24345.06
566.029	24355.3
566.228	24429.02
566.427	24216.04
566.625	23904.74
566.824	23747.05
567.023	24240.61
567.222	23865.83
567.42	24154.6
567.619	24005.1
567.818	23988.71
568.016	24054.25
568.215	24031.72
568.414	23968.23
568.612	23988.71
568.811	23570.93
569.01	23636.46
569.208	23751.15
569.407	23697.9
569.605	23491.05
569.804	23689.71
570.002	23634.41
570.201	23284.21
570.4	23310.83
570.598	23286.26
570.797	23091.7
570.995	23204.34
571.193	23173.62
571.392	23351.79
571.59	22989.3
571.789	22753.79
571.987	22989.3
572.186	23013.88
572.384	22755.83
572.582	22907.38
572.781	22919.67
572.979	22180.35
573.177	22864.38
573.376	22856.18
573.574	22628.86
573.772	22682.11
573.971	22862.33
574.169	22639.1
574.367	22196.74
574.565	22292.99
574.763	22305.28
574.962	22166.02
575.16	22043.14
575.358	22379.01
575.556	21842.44
575.754	22645.24
575.952	22170.12
576.151	22108.68
576.349	21770.76
576.547	22032.9
576.745	21737.99
576.943	22049.28
577.141	21727.75
577.339	21475.85
577.537	21893.64
577.735	21783.05
577.933	21490.19
578.131	21703.18
578.329	21422.61
578.527	21271.06
578.725	21742.09
578.923	21422.61
579.121	21084.69
579.319	21320.21
579.516	21301.78
579.714	20914.71
579.912	20976.15
580.11	20853.27
580.308	20949.53
580.506	20853.27
580.704	20685.34
580.901	20744.73
581.099	20822.55
581.297	20564.51
581.495	20722.2
581.692	20826.65
581.89	20285.98
582.088	20697.63
582.285	20232.74
582.483	20533.79
582.681	20142.63
582.878	20210.21
583.076	20032.04
583.274	20351.52
583.471	20122.15
583.669	20296.22
583.866	19913.25
584.064	20150.82
584.262	20027.94
584.459	19937.83
584.657	19718.7
584.854	20093.47
585.052	19518
585.249	19907.11
585.447	19886.63
585.644	19395.12
585.841	19362.35
586.039	19472.94
586.236	19444.27
586.434	19323.44
586.631	19415.6
586.828	19329.58
587.026	19331.63
587.223	19139.12
587.42	18985.52
587.618	19348.01
587.815	19055.15
588.012	18803.25
588.21	18778.68
588.407	18969.14
588.604	18872.89
588.801	18934.32
588.999	18588.22
589.196	18651.7
589.393	18688.57
589.59	18364.99
589.787	18451
589.984	18471.48
590.182	18319.93
590.379	18348.61
590.576	18123.33
590.773	18487.87
590.97	18012.74
591.167	18129.47
591.364	18082.37
591.561	17855.04
591.758	17541.71
591.955	17795.65
592.152	18156.1
592.349	17734.21
592.546	17697.35
592.743	17822.28
592.94	17388.11
593.137	17668.68
593.334	17715.78
593.531	17027.67
593.727	17422.92
593.924	17298
594.121	17224.27
594.318	17451.6
594.515	17144.4
594.712	17232.46
594.908	17502.79
595.105	17230.41
595.302	17171.02
595.499	17064.53
595.696	16941.65
595.892	17005.14
596.089	17076.82
596.286	16730.71
596.482	16765.53
596.679	16988.75
596.876	17005.14
597.072	16906.84
597.269	16699.99
597.466	16503.39
597.662	16577.11
597.859	16530.01
598.055	16446.04
598.252	16130.66
598.448	16278.11
598.645	16335.45
598.841	16020.06
599.038	16306.78
599.234	16403.04
599.431	15993.44
599.627	16497.24
599.824	16114.27
600.02	16040.54
600.217	16022.11
600.413	15864.42
600.609	15762.02
600.806	15833.7
601.002	15798.88
601.198	15710.82
601.395	15495.78
601.591	15598.18
601.787	15786.6
601.984	15581.8
602.18	15645.29
602.376	15483.5
602.572	15489.64
602.769	15370.86
602.965	15211.12
603.161	15411.82
603.357	15028.85
603.553	15164.01
603.75	15272.56
603.946	14879.35
604.142	15295.08
604.338	14645.88
604.534	14869.11
604.73	14674.55
604.926	14774.9
605.122	14594.68
605.318	14860.91
605.514	14670.45
605.71	14582.39
605.906	14830.2
606.102	14838.39
606.298	14854.77
606.494	14330.49
606.69	14459.51
606.886	14539.38
607.082	14262.91
607.278	14690.93
607.474	14158.46
607.67	14369.4
607.866	13884.03
608.062	14256.76
608.257	14037.63
608.453	14197.37
608.649	14125.69
608.845	13943.42
609.041	14137.98
609.236	13949.57
609.432	14025.34
609.628	14078.59
609.824	13974.14
610.019	13931.14
610.215	13730.44
610.411	13959.81
610.606	13730.44
610.802	13791.87
610.998	13630.09
611.193	13537.93
611.389	13597.32
611.584	13855.36
611.78	13523.59
611.976	13623.94
612.171	13742.72
612.367	13625.99
612.562	13423.24
612.758	13206.16
612.953	13269.64
613.149	13410.95
613.344	13154.96
613.539	13161.1
613.735	13388.43
613.93	13353.61
614.126	13267.59
614.321	13238.92
614.517	13281.93
614.712	12989.07
614.907	13007.5
615.103	13079.18
615.298	12814.99
615.493	13085.33
615.688	12886.67
615.884	13038.22
616.079	12823.19
616.274	13025.93
616.47	13163.15
616.665	12884.62
616.86	12911.25
617.055	12806.8
617.25	12692.12
617.445	12798.61
617.641	12698.26
617.836	12915.34
618.031	12749.46
618.226	12735.12
618.421	12563.09
618.616	12452.5
618.811	12667.54
619.006	12597.91
619.201	12106.4
619.396	12421.78
619.591	12262.04
619.786	12303
619.981	12393.11
620.176	12348.06
620.371	12065.44
620.566	11995.81
620.761	12069.53
620.956	12139.16
621.151	11610.79
621.346	11932.32
621.541	11840.16
621.735	11862.69
621.93	11293.35
622.125	11704.99
622.32	11449
622.515	11455.14
622.709	11584.16
622.904	11227.82
623.099	11215.53
623.294	11322.02
623.488	11260.59
623.683	11219.63
623.878	11076.27
624.072	11209.39
624.267	11154.09
624.462	10896.05
624.656	10861.23
624.851	10986.16
625.046	10795.7
625.24	10535.6
625.435	10801.84
625.629	10814.13
625.824	10656.43
626.018	10402.49
626.213	10465.97
626.407	10537.65
626.602	10336.95
626.796	10252.98
626.991	10226.36
627.185	10113.72
627.38	10144.44
627.574	9972.41
627.768	9763.52
627.963	9843.39
628.157	9812.67
628.352	9956.03
628.546	9579.2
628.74	9829.06
628.935	9663.17
629.129	9687.75
629.323	9398.98
629.517	9458.37
629.712	9614.02
629.906	9499.33
630.1	9485
630.294	9329.35
630.489	9188.04
630.683	9229
630.877	9120.46
631.071	9034.44
631.265	9099.98
631.459	9177.8
631.653	9054.92
631.848	9079.5
632.042	8997.58
632.236	8792.78
632.43	8786.64
632.624	8757.97
632.818	8768.21
633.012	8665.81
633.206	8626.9
633.4	8581.84
633.594	8522.45
633.788	8381.14
633.982	8526.55
634.176	8424.15
634.369	8211.16
634.563	8223.45
634.757	8311.51
634.951	8383.19
635.145	8295.13
635.339	8106.71
635.533	8061.66
635.726	8075.99
635.92	8071.9
636.114	8094.43
636.308	8153.82
636.501	8051.42
636.695	8065.75
636.889	7856.86
637.083	7951.07
637.276	7844.57
637.47	7699.17
637.664	7695.07
637.857	7711.46
638.051	7623.39
638.244	7684.83
638.438	7662.3
638.632	7404.26
638.825	7402.21
639.019	7408.36
639.212	7453.41
639.406	7289.57
639.599	7181.03
639.793	7236.33
639.986	7037.67
640.18	7156.46
640.373	6896.36
640.567	7023.34
640.76	7027.43
640.954	6959.85
641.147	6871.79
641.34	6832.88
641.534	7045.87
641.727	6712.05
641.92	6875.88
642.114	6818.54
642.307	6681.33
642.5	6525.68
642.694	6681.33
642.887	6742.77
643.08	6681.33
643.273	6542.07
643.467	6685.42
643.66	6558.45
643.853	6421.24
644.046	6382.32
644.239	6292.21
644.432	6464.24
644.626	6435.57
644.819	6310.65
645.012	6312.69
645.205	6210.29
645.398	6124.28
645.591	6107.9
645.784	6111.99
645.977	6011.64
646.17	5993.21
646.363	6056.7
646.556	6077.18
646.749	6091.51
646.942	5831.42
647.135	5831.42
647.328	5819.13
647.521	5851.9
647.714	5696.25
647.907	5802.75
648.099	5810.94
648.292	5622.53
648.485	5606.14
648.678	5667.58
648.871	5602.05
649.064	5569.28
649.256	5616.38
649.449	5516.03
649.642	5475.07
649.835	5614.34
650.027	5272.32
650.22	5401.35
650.413	5305.09
650.605	5270.28
650.798	5290.76
650.991	5237.51
651.183	5288.71
651.376	5184.26
651.568	5163.78
651.761	5178.12
651.954	5280.52
652.146	5161.73
652.339	5008.14
652.531	5202.69
652.724	5081.86
652.916	4844.3
653.109	4872.97
653.301	4801.29
653.494	5053.19
653.686	4817.68
653.879	4823.82
654.071	4731.66
654.263	4752.14
654.456	4844.3
654.648	4633.36
654.84	4647.69
655.033	4608.78
655.225	4838.16
655.417	4700.94
655.61	4637.45
655.802	4662.03
655.994	4559.63
656.186	4635.41
656.379	4602.64
656.571	4461.33
656.763	4492.05
656.955	4311.83
657.148	4604.69
657.34	4348.69
657.532	4285.2
657.724	4274.96
657.916	4377.36
658.108	4299.54
658.3	4303.64
658.492	4219.67
658.684	4113.17
658.876	4236.05
659.068	4117.27
659.26	4115.22
659.452	4182.81
659.644	4051.74
659.836	3932.95
660.028	4057.88
660.22	4131.61
660.412	4082.46
660.604	3916.57
660.796	4006.68
660.988	3844.89
661.18	3857.18
661.372	3898.14
661.563	3935
661.755	3816.22
661.947	3810.08
662.139	3687.2
662.331	3773.21
662.522	3795.74
662.714	3724.06
662.906	3633.95
663.097	3642.14
663.289	3656.48
663.481	3590.94
663.673	3607.33
663.864	3552.03
664.056	3541.79
664.247	3478.3
664.439	3517.22
664.631	3611.42
664.822	3568.41
665.014	3449.63
665.205	3334.95
665.397	3355.43
665.588	3396.39
665.78	3341.09
665.971	3388.19
666.163	3377.95
666.354	3355.43
666.546	3289.89
666.737	3269.41
666.929	3334.95
667.12	3289.89
667.311	3158.82
667.503	3144.49
667.694	3078.95
667.885	3216.16
668.077	3138.34
668.268	3138.34
668.459	3173.16
668.651	3162.92
668.842	3117.86
669.033	3216.16
669.224	3152.68
669.416	3234.6
669.607	3107.62
669.798	2962.22
669.989	3072.81
670.18	2929.45
670.371	2951.98
670.563	3046.18
670.754	2861.87
670.945	2968.36
671.136	2865.96
671.327	2964.26
671.518	2904.87
671.709	2880.3
671.9	2865.96
672.091	2900.78
672.282	2911.02
672.473	2870.06
672.664	2779.95
672.855	2804.52
673.046	2736.94
673.237	2843.43
673.428	2710.32
673.619	2843.43
673.809	2949.93
674	2788.14
674.191	2683.69
674.382	2685.74
674.573	2542.38
674.764	2695.98
674.954	2781.99
675.145	2695.98
675.336	2632.49
675.527	2603.82
675.717	2618.16
675.908	2630.45
676.099	2528.05
676.289	2689.84
676.48	2626.35
676.671	2526
676.861	2546.48
677.052	2513.71
677.243	2474.8
677.433	2489.14
677.624	2487.09
677.814	2478.9
678.005	2372.4
678.195	2536.24
678.386	2460.46
678.576	2462.51
678.767	2521.9
678.957	2542.38
679.148	2444.08
679.338	2523.95
679.529	2349.87
679.719	2491.18
679.909	2489.14
680.1	2454.32
680.29	2384.69
680.481	2452.27
680.671	2384.69
680.861	2415.41
681.052	2429.74
681.242	2466.61
681.432	2399.02
681.622	2392.88
681.813	2380.59
682.003	2427.7
682.193	2337.59
682.383	2313.01
682.573	2302.77
682.764	2337.59
682.954	2378.55
683.144	2261.81
683.334	2284.34
683.524	2313.01
683.714	2466.61
683.904	2435.89
684.094	2300.72
684.284	2229.04
684.474	2235.19
684.664	2411.31
684.854	2282.29
685.044	2239.28
685.234	2167.6
685.424	2091.83
685.614	2227
685.804	2282.29
685.994	2181.94
686.184	2347.83
686.374	2274.1
686.564	2313.01
686.753	2190.13
686.943	2194.23
687.133	2272.05
687.323	2134.84
687.513	2208.56
687.702	2214.71
687.892	2157.36
688.082	2192.18
688.272	2265.91
688.461	2140.98
688.651	2093.88
688.841	2198.32
689.03	2159.41
689.22	2091.83
689.41	2134.84
689.599	2093.88
689.789	2243.38
689.979	2186.04
690.168	2083.64
690.358	2120.5
690.547	2091.83
690.737	2081.59
690.926	2132.79
691.116	2173.75
691.305	1977.14
691.495	1983.29
691.684	2067.25
691.874	2061.11
692.063	2116.41
692.252	2143.03
692.442	2036.53
692.631	1919.8
692.82	2005.81
693.01	2052.92
693.199	1987.38
693.388	1882.94
693.578	2007.86
693.767	1966.9
693.956	2024.25
694.146	1993.53
694.335	1895.22
694.524	1977.14
694.713	1997.62
694.902	2028.34
695.092	1960.76
695.281	1952.57
695.47	1966.9
695.659	1866.55
695.848	1936.18
696.037	1858.36
696.226	1944.38
696.415	1899.32
696.604	1798.97
696.793	1880.89
696.982	1854.27
697.171	1747.77
697.36	1747.77
697.549	1846.07
697.738	1850.17
697.927	1780.54
698.116	1866.55
698.305	1784.63
698.494	1770.3
698.683	1831.74
698.872	1819.45
699.061	1856.31
699.25	1870.65
699.438	1749.82
699.627	1743.67
699.816	1741.63
700.005	1739.58
700.193	1745.72
700.382	1837.88
700.571	1741.63
700.76	1682.24
700.948	1710.91
701.137	1737.53
701.326	1721.15
701.514	1694.52
701.703	1735.48
701.892	1678.14
702.08	1702.72
702.269	1725.24
702.457	1741.63
702.646	1610.56
702.834	1712.96
703.023	1631.04
703.212	1684.28
703.4	1516.35
703.589	1710.91
703.777	1665.85
703.965	1678.14
704.154	1706.81
704.342	1655.61
704.531	1573.69
704.719	1583.93
704.907	1628.99
705.096	1581.89
705.284	1702.72
705.472	1719.1
705.661	1563.45
705.849	1592.13
706.037	1559.36
706.226	1600.32
706.414	1549.12
706.602	1569.6
706.79	1600.32
706.979	1602.36
707.167	1485.63
707.355	1479.49
707.543	1536.83
707.731	1655.61
707.919	1598.27
708.107	1534.78
708.296	1547.07
708.484	1545.02
708.672	1534.78
708.86	1567.55
709.048	1542.97
709.236	1444.67
709.424	1616.7
709.612	1401.66
709.8	1479.49
709.988	1524.54
710.176	1448.77
710.364	1483.58
710.551	1405.76
710.739	1520.45
710.927	1577.79
711.115	1538.88
711.303	1497.92
711.491	1471.29
711.679	1436.48
711.866	1426.24
712.054	1432.38
712.242	1485.63
712.43	1588.03
712.617	1442.62
712.805	1440.58
712.993	1397.57
713.181	1475.39
713.368	1393.47
713.556	1479.49
713.744	1356.61
713.931	1411.9
714.119	1413.95
714.306	1395.52
714.494	1491.77
714.682	1403.71
714.869	1459.01
715.057	1485.63
715.244	1475.39
715.432	1428.29
715.619	1391.42
715.807	1346.37
715.994	1387.33
716.182	1368.9
716.369	1313.6
716.556	1311.55
716.744	1299.27
716.931	1258.31
717.119	1280.83
717.306	1299.27
717.493	1311.55
717.681	1352.51
717.868	1375.04
718.055	1286.98
718.242	1344.32
718.43	1301.31
718.617	1295.17
718.804	1352.51
718.991	1282.88
719.179	1395.52
719.366	1280.83
719.553	1289.03
719.74	1248.07
719.927	1192.77
720.114	1276.74
720.301	1219.39
720.488	1225.54
720.676	1311.55
720.863	1262.4
721.05	1143.62
721.237	1264.45
721.424	1231.68
721.611	1246.02
721.798	1168.2
721.985	1248.07
722.172	1182.53
722.358	1114.95
722.545	1211.2
722.732	1157.96
722.919	1153.86
723.106	1125.19
723.293	1243.97
723.48	1205.06
723.667	1235.78
723.853	1149.76
724.04	1264.45
724.227	1190.72
724.414	1143.62
724.6	1295.17
724.787	1141.57
724.974	1125.19
725.161	1172.29
725.347	1127.24
725.534	1127.24
725.72	1243.97
725.907	1237.83
726.094	1186.63
726.28	1149.76
726.467	1176.39
726.653	1192.77
726.84	1223.49
727.027	1117
727.213	1196.87
727.4	1250.11
727.586	1192.77
727.773	1155.91
727.959	1145.67
728.145	1149.76
728.332	1069.89
728.518	1063.75
728.705	1182.53
728.891	1094.47
729.077	1137.48
729.264	1215.3
729.45	1104.71
729.636	1131.33
729.823	1151.81
730.009	1055.56
730.195	1129.28
730.382	1135.43
730.568	1084.23
730.754	1080.13
730.94	1162.05
731.126	1143.62
731.313	1135.43
731.499	1135.43
731.685	1139.52
731.871	1151.81
732.057	1131.33
732.243	1194.82
732.429	1069.89
732.615	1078.08
732.801	1045.32
732.987	1215.3
733.173	1121.09
733.359	1024.84
733.545	1141.57
733.731	1078.08
733.917	1018.69
734.103	1084.23
734.289	1073.99
734.475	965.45
734.661	1018.69
734.847	1045.32
735.033	1047.37
735.219	1006.41
735.404	1069.89
735.59	1106.76
735.776	1094.47
735.962	1045.32
736.148	1086.28
736.333	994.12
736.519	1057.61
736.705	1073.99
736.89	1125.19
737.076	998.21
737.262	953.16
737.447	969.54
737.633	975.69
737.819	981.83
738.004	1059.65
738.19	1002.31
738.375	924.49
738.561	1049.41
738.747	1024.84
738.932	1053.51
739.118	940.87
739.303	1008.45
739.489	1061.7
739.674	1076.04
739.859	1035.08
740.045	1035.08
740.23	1002.31
740.416	1012.55
740.601	1002.31
740.786	1043.27
740.972	981.83
741.157	1000.26
741.342	942.92
741.528	983.88
741.713	967.49
741.898	1014.6
742.084	959.3
742.269	996.17
742.454	928.58
742.639	944.97
742.824	916.3
743.01	994.12
743.195	957.25
743.38	953.16
743.565	940.87
743.75	885.58
743.935	1014.6
744.12	971.59
744.305	1004.36
744.49	944.97
744.675	887.62
744.86	975.69
745.045	1000.26
745.23	875.34
745.415	963.4
745.6	879.43
745.785	875.34
745.97	901.96
746.155	906.06
746.34	875.34
746.525	850.76
746.71	861
746.895	830.28
747.079	820.04
747.264	875.34
747.449	805.71
747.634	830.28
747.819	873.29
748.003	842.57
748.188	865.1
748.373	873.29
748.557	834.38
748.742	838.47
748.927	777.03
749.111	863.05
749.296	899.91
749.481	877.38
749.665	785.23
749.85	725.83
750.034	805.71
750.219	824.14
750.404	713.55
750.588	822.09
750.773	764.75
750.957	719.69
751.141	863.05
751.326	805.71
751.51	705.35
751.695	777.03
751.879	789.32
752.064	797.51
752.248	699.21
752.432	797.51
752.617	623.44
752.801	799.56
752.985	719.69
753.17	713.55
753.354	865.1
753.538	760.65
753.722	734.03
753.907	770.89
754.091	662.35
754.275	666.44
754.459	717.64
754.643	686.92
754.828	684.87
755.012	691.02
755.196	744.27
755.38	676.68
755.564	678.73
755.748	719.69
755.932	656.2
756.116	650.06
756.3	637.77
756.484	609.1
756.668	564.04
756.852	637.77
757.036	611.15
757.22	652.11
757.404	674.64
757.588	570.19
757.772	535.37
757.956	709.45
758.14	705.35
758.323	668.49
758.507	633.68
758.691	570.19
758.875	586.57
759.059	615.24
759.242	607.05
759.426	578.38
759.61	562
759.794	502.61
759.977	645.96
760.161	590.67
760.345	582.48
760.528	574.28
760.712	701.26
760.895	551.76
761.079	592.72
761.263	537.42
761.446	537.42
761.63	576.33
761.813	605
761.997	619.34
762.18	486.22
762.364	535.37
762.547	539.47
762.731	531.28
762.914	535.37
763.098	555.85
763.281	453.45
763.464	559.95
763.648	533.33
763.831	535.37
764.015	445.26
764.198	486.22
764.381	443.21
764.564	617.29
764.748	508.75
764.931	502.61
765.114	541.52
765.297	508.75
765.481	400.21
765.664	457.55
765.847	516.94
766.03	451.41
766.213	525.13
766.397	516.94
766.58	500.56
766.763	455.5
766.946	504.65
767.129	492.37
767.312	473.93
767.495	551.76
767.678	461.65
767.861	441.17
768.044	555.85
768.227	559.95
768.41	441.17
768.593	480.08
768.776	463.69
768.959	453.45
769.142	555.85
769.324	457.55
769.507	428.88
769.69	533.33
769.873	351.06
770.056	496.46
770.239	437.07
770.421	420.69
770.604	451.41
770.787	486.22
770.97	467.79
771.152	437.07
771.335	404.3
771.518	475.98
771.7	469.84
771.883	461.65
772.066	426.83
772.248	478.03
772.431	422.73
772.613	488.27
772.796	285.52
772.978	447.31
773.161	486.22
773.343	404.3
773.526	318.29
773.708	344.91
773.891	349.01
774.073	432.97
774.256	447.31
774.438	437.07
774.621	404.3
774.803	355.15
774.985	449.36
775.168	418.64
775.35	357.2
775.532	320.34
775.715	373.58
775.897	367.44
776.079	394.06
776.261	445.26
776.444	404.3
776.626	373.58
776.808	414.54
776.99	375.63
777.173	404.3
777.355	367.44
777.537	369.49
777.719	267.09
777.901	396.11
778.083	258.9
778.265	340.82
778.447	385.87
778.629	353.1
778.811	289.62
778.993	328.53
779.175	363.34
779.357	283.47
779.539	267.09
779.721	361.3
779.903	340.82
780.085	244.56
780.267	283.47
780.449	299.86
780.631	320.34
780.812	361.3
780.994	228.18
781.176	262.99
781.358	338.77
781.54	303.95
781.721	279.38
781.903	330.58
782.085	336.72
782.267	301.9
782.448	283.47
782.63	281.43
782.812	289.62
782.993	330.58
783.175	256.85
783.357	287.57
783.538	306
783.72	262.99
783.901	275.28
784.083	301.9
784.264	269.14
784.446	279.38
784.627	256.85
784.809	238.42
784.99	250.71
785.172	353.1
785.353	215.89
785.535	215.89
785.716	293.71
785.897	244.56
786.079	156.5
786.26	285.52
786.441	250.71
786.623	219.99
786.804	168.79
786.985	162.64
787.167	234.32
787.348	248.66
787.529	217.94
787.71	285.52
787.891	211.79
788.073	258.9
788.254	265.04
788.435	242.51
788.616	211.79
788.797	113.49
788.978	222.03
789.159	238.42
789.34	271.19
789.522	215.89
789.703	238.42
789.884	154.45
790.065	254.8
790.246	205.65
790.427	232.27
790.607	211.79
790.788	179.03
790.969	146.26
791.15	209.75
791.331	187.22
791.512	199.51
791.693	160.59
791.874	199.51
792.054	222.03
792.235	226.13
792.416	162.64
792.597	191.31
792.778	183.12
792.958	121.68
793.139	219.99
793.32	234.32
793.5	109.4
793.681	166.74
793.862	252.75
794.042	154.45
794.223	138.07
794.404	207.7
794.584	131.92
794.765	131.92
794.945	121.68
795.126	195.41
795.306	162.64
795.487	168.79
795.667	183.12
795.848	144.21
796.028	179.03
796.209	156.5
796.389	158.55
796.57	174.93
796.75	11.09
796.93	127.83
797.111	142.16
797.291	160.59
797.471	199.51
797.652	183.12
797.832	123.73
798.012	197.46
798.192	93.01
798.373	174.93
798.553	117.59
798.733	185.17
798.913	150.36
799.093	58.2
799.274	88.92
799.454	160.59
799.634	213.84
799.814	109.4
799.994	117.59
800.174	158.55
800.354	72.53
800.534	72.53
800.714	146.26
800.894	174.93
801.074	170.83
801.254	136.02
801.434	146.26
801.614	52.05
801.794	189.27
801.974	406.35
802.154	60.24
802.334	185.17
802.514	138.07
802.693	119.64
802.873	119.64
803.053	146.26
803.233	176.98
803.413	160.59
803.592	115.54
803.772	156.5
803.952	88.92
804.131	189.27
804.311	121.68
804.491	136.02
804.67	193.36
804.85	86.87
805.03	123.73
805.209	140.12
805.389	70.48
805.568	224.08
805.748	123.73
805.928	189.27
806.107	31.57
806.287	140.12
806.466	203.6
806.646	82.77
806.825	142.16
807.004	82.77
807.184	109.4
807.363	84.82
807.543	136.02
807.722	162.64
807.901	88.92
808.081	82.77
808.26	84.82
808.439	29.52
808.619	97.11
808.798	90.96
808.977	78.68
809.156	117.59
809.336	127.83
809.515	82.77
809.694	62.29
809.873	115.54
810.052	101.2
810.231	136.02
810.411	78.68
810.59	115.54
810.769	93.01
810.948	101.2
811.127	115.54
811.306	117.59
811.485	97.11
811.664	129.88
811.843	58.2
812.022	142.16
812.201	123.73
812.38	142.16
812.559	0.85
812.737	131.92
812.916	56.15
813.095	101.2
813.274	101.2
813.453	62.29
813.632	84.82
813.811	172.88
813.989	111.44
814.168	103.25
814.347	127.83
814.526	56.15
814.704	41.81
814.883	9.05
815.062	80.72
815.24	97.11
815.419	45.91
815.598	101.2
815.776	50
815.955	101.2
816.133	80.72
816.312	86.87
816.49	72.53
816.669	95.06
816.847	-3.24
817.026	62.29
817.204	119.64
817.383	21.33
817.561	15.19
817.74	80.72
817.918	70.48
818.097	19.29
818.275	68.44
818.453	136.02
818.632	88.92
818.81	27.48
818.988	119.64
819.167	86.87
819.345	80.72
819.523	9.05
819.701	119.64
819.879	95.06
820.058	45.91
820.236	41.81
820.414	54.1
820.592	39.76
820.77	97.11
820.948	78.68
821.127	54.1
821.305	45.91
821.483	41.81
821.661	113.49
821.839	136.02
822.017	144.21
822.195	2.9
822.373	179.03
822.551	56.15
822.729	52.05
822.907	54.1
823.085	0.85
823.262	127.83
823.44	97.11
823.618	113.49
823.796	86.87
823.974	80.72
824.152	84.82
824.329	17.24
824.507	27.48
824.685	52.05
824.863	105.3
825.04	-9.39
825.218	107.35
825.396	78.68
825.574	68.44
825.751	47.96
825.929	43.86
826.107	13.14
826.284	93.01
826.462	37.72
826.639	82.77
826.817	15.19
826.994	27.48
827.172	17.24
827.349	60.24
827.527	17.24
827.704	4.95
827.882	54.1
828.059	-1.19
828.237	4.95
828.414	160.59
828.591	4.95
828.769	62.29
828.946	39.76
829.124	39.76
829.301	52.05
829.478	88.92
829.655	4.95
829.833	107.35
830.01	101.2
830.187	64.34
830.364	33.62
830.542	41.81
830.719	74.58
830.896	119.64
831.073	29.52
831.25	-33.96
831.427	-50.35
831.604	78.68
831.782	68.44
831.959	76.63
832.136	35.67
832.313	68.44
832.49	47.96
832.667	27.48
832.844	39.76
833.021	107.35
833.198	25.43
833.374	31.57
833.551	80.72
833.728	72.53
833.905	-7.34
834.082	31.57
834.259	11.09
834.436	17.24
834.612	41.81
834.789	64.34
834.966	54.1
835.143	76.63
835.319	15.19
835.496	68.44
835.673	-62.63
835.85	7
836.026	23.38
836.203	86.87
836.38	52.05
836.556	97.11
836.733	41.81
836.909	62.29
837.086	97.11
837.262	66.39
837.439	45.91
837.616	121.68
837.792	35.67
837.968	66.39
838.145	64.34
838.321	27.48
838.498	-5.29
838.674	39.76
838.851	72.53
839.027	29.52
839.203	25.43
839.38	66.39
839.556	31.57
839.732	0.85
839.909	52.05
840.085	9.05
840.261	-13.48
840.437	84.82
840.614	37.72
840.79	93.01
840.966	25.43
841.142	66.39
841.318	2.9
841.494	54.1
841.671	15.19
841.847	11.09
842.023	-23.72
842.199	52.05
842.375	33.62
842.551	-21.67
842.727	23.38
842.903	54.1
843.079	11.09
843.255	4.95
843.431	70.48
843.607	11.09
843.783	-50.35
843.959	99.16
844.134	-1.19
844.31	95.06
844.486	41.81
844.662	4.95
844.838	45.91
845.013	25.43
845.189	31.57
845.365	35.67
845.541	31.57
845.716	66.39
845.892	4.95
846.068	27.48
846.244	54.1
846.419	82.77
846.595	101.2
846.77	33.62
846.946	35.67
847.122	52.05
847.297	47.96
847.473	9.05
847.648	-27.82
847.824	35.67
847.999	-40.11
848.175	74.58
848.35	35.67
848.526	127.83
848.701	105.3
848.876	58.2
849.052	140.12
849.227	-9.39
849.403	-9.39
849.578	70.48
849.753	64.34
849.929	27.48
850.104	37.72
850.279	-17.58
850.454	-46.25
850.63	56.15
850.805	35.67
850.98	60.24
851.155	90.96
851.33	9.05
851.505	-1.19
851.681	70.48
851.856	-62.63
852.031	45.91
852.206	2.9
852.381	11.09
852.556	31.57
852.731	84.82
852.906	52.05
853.081	17.24
853.256	41.81
853.431	62.29
853.606	68.44
853.781	-9.39
853.956	107.35
854.131	13.14
854.305	-1.19
854.48	19.29
854.655	-130.22
854.83	62.29
855.005	45.91
855.18	54.1
855.354	-95.4
855.529	58.2
855.704	17.24
855.879	62.29
856.053	-5.29
856.228	39.76
856.403	-42.15
856.577	39.76
856.752	13.14
856.926	25.43
857.101	-36.01
857.276	103.25
857.45	43.86
857.625	-11.43
857.799	21.33
857.974	35.67
858.148	13.14
858.323	78.68
858.497	-25.77
858.672	93.01
858.846	-11.43
859.02	68.44
859.195	78.68
859.369	19.29
859.543	-1.19
859.718	-70.83
859.892	-48.3
860.066	86.87
860.241	58.2
860.415	-1.19
860.589	29.52
860.763	62.29
860.938	-7.34
861.112	35.67
861.286	35.67
861.46	7
861.634	29.52
861.808	52.05
861.982	45.91
862.157	-5.29
862.331	37.72
862.505	29.52
862.679	27.48
862.853	-52.39
863.027	2.9
863.201	0.85
863.375	21.33
863.549	31.57
863.722	-31.91
863.896	4.95
864.07	-7.34
864.244	-7.34
864.418	-42.15
864.592	-3.24
864.766	-15.53
864.939	58.2
865.113	56.15
865.287	62.29
865.461	58.2
865.634	-19.63
865.808	29.52
865.982	-1.19
866.156	56.15
866.329	-36.01
866.503	27.48
866.676	15.19
866.85	19.29
867.024	97.11
867.197	9.05
867.371	17.24
867.544	-23.72
867.718	19.29
867.891	37.72
868.065	-7.34
868.238	-3.24
868.412	11.09
868.585	9.05
868.759	-19.63
868.932	21.33
869.105	19.29
869.279	68.44
869.452	13.14
869.625	-11.43
869.799	72.53
869.972	9.05
870.145	-3.24
870.319	-1.19
870.492	66.39
870.665	70.48
870.838	-23.72
871.011	-19.63
871.185	25.43
871.358	35.67
871.531	93.01
871.704	-9.39
871.877	-36.01
872.05	25.43
872.223	-5.29
872.396	19.29
872.569	23.38
872.742	9.05
872.915	27.48
873.088	47.96
873.261	27.48
873.434	13.14
873.607	-3.24
873.78	13.14
873.953	-29.87
874.126	-36.01
874.299	7
874.471	43.86
874.644	-42.15
874.817	4.95
874.99	7
875.163	86.87
875.335	-62.63
875.508	37.72
875.681	11.09
875.853	37.72
876.026	7
876.199	37.72
876.371	2.9
876.544	27.48
876.717	23.38
876.889	82.77
877.062	33.62
877.234	13.14
877.407	-36.01
877.579	43.86
877.752	37.72
877.924	-19.63
878.097	21.33
878.269	23.38
878.442	68.44
878.614	9.05
878.786	19.29
878.959	41.81
879.131	-15.53
879.303	17.24
879.476	27.48
879.648	-36.01
879.82	15.19
879.993	7
880.165	-13.48
880.337	-11.43
880.509	54.1
880.681	43.86
880.854	-1.19
881.026	35.67
881.198	-1.19
881.37	58.2
881.542	52.05
881.714	-50.35
881.886	27.48
882.058	19.29
882.23	56.15
882.402	37.72
882.574	19.29
882.746	-29.87
882.918	7
883.09	19.29
883.262	37.72
883.434	-50.35
883.606	52.05
883.778	-66.73
883.95	39.76
884.122	31.57
884.293	-33.96
884.465	60.24
884.637	-21.67
884.809	11.09
884.98	21.33
885.152	97.11
885.324	66.39
885.496	-7.34
885.667	-44.2
885.839	-48.3
886.011	-15.53
886.182	-13.48
886.354	52.05
886.525	2.9
886.697	-13.48
886.869	37.72
887.04	21.33
887.212	88.92
887.383	-21.67
887.555	2.9
887.726	-5.29
887.897	103.25
888.069	31.57
888.24	-1.19
888.412	4.95
888.583	4.95
888.754	11.09
888.926	23.38
889.097	-46.25
889.268	-13.48
889.44	-7.34
889.611	25.43
889.782	60.24
889.953	13.14
890.125	-19.63
890.296	9.05
890.467	-19.63
890.638	2.9
890.809	37.72
890.98	39.76
891.151	15.19
891.323	37.72
891.494	-13.48
891.665	-11.43
891.836	9.05
892.007	29.52
892.178	50
892.349	-40.11
892.52	-56.49
892.691	29.52
892.862	29.52
893.032	-31.91
893.203	4.95
893.374	-27.82
893.545	33.62
893.716	2.9
893.887	-66.73
894.057	7
894.228	-1.19
894.399	4.95
894.57	11.09
894.74	-38.06
894.911	-9.39
895.082	47.96
895.253	60.24
895.423	27.48
895.594	54.1
895.764	-64.68
895.935	-87.21
896.106	-79.02
896.276	-21.67
896.447	-60.59
896.617	-9.39
896.788	19.29
896.958	-79.02
897.129	41.81
897.299	72.53
897.47	-31.91
897.64	-7.34
897.81	-29.87
897.981	0.85
898.151	-23.72
898.322	-9.39
898.492	-31.91
898.662	-38.06
898.832	39.76
899.003	-29.87
899.173	35.67
899.343	9.05
899.513	23.38
