Data from USB4F104151__93__13-06-25-837.txt Node

Date: Fri Mar 14 13:06:25 EDT 2025
User: louis
Spectrometer: USB4F10415
Trigger mode: 4
Integration Time (sec): 4.000000E-2
Scans to average: 1
Electric dark correction enabled: true
Nonlinearity correction enabled: false
Boxcar width: 0
XAxis mode: Wavelengths
Number of Pixels in Spectrum: 3648
>>>>>Begin Spectral Data<<<<<
178.204	-222.2
178.424	-222.2
178.644	-222.2
178.864	-228.35
179.084	-199.68
179.304	-52.22
179.524	-19.46
179.744	-3.07
179.964	39.94
180.184	58.37
180.404	41.98
180.624	-25.6
180.844	13.31
181.064	-70.65
181.283	-13.31
181.503	-27.65
181.723	58.37
181.943	27.65
182.163	72.7
182.383	-1.02
182.602	25.6
182.822	35.84
183.042	15.36
183.262	-3.07
183.482	19.46
183.701	46.08
183.921	37.89
184.141	66.56
184.361	107.52
184.58	72.7
184.8	89.09
185.02	37.89
185.239	121.85
185.459	25.6
185.679	62.46
185.898	-17.41
186.118	-17.41
186.338	-48.13
186.557	80.89
186.777	-25.6
186.997	3.07
187.216	35.84
187.436	107.52
187.655	58.37
187.875	48.13
188.095	13.31
188.314	74.75
188.534	48.13
188.753	33.79
188.973	89.09
189.192	146.43
189.412	70.65
189.631	7.17
189.851	74.75
190.07	1.02
190.29	17.41
190.509	13.31
190.729	35.84
190.948	87.04
191.168	205.82
191.387	121.85
191.607	-27.65
191.826	7.17
192.045	91.13
192.265	37.89
192.484	31.74
192.704	-19.46
192.923	-7.17
193.142	103.42
193.362	23.55
193.581	101.37
193.8	37.89
194.02	50.18
194.239	15.36
194.458	19.46
194.678	-21.5
194.897	76.8
195.116	72.7
195.335	48.13
195.555	41.98
195.774	13.31
195.993	60.42
196.212	-58.37
196.432	48.13
196.651	-9.22
196.87	-5.12
197.089	146.43
197.308	119.81
197.528	93.18
197.747	21.5
197.966	-13.31
198.185	152.57
198.404	11.26
198.623	31.74
198.842	46.08
199.062	52.22
199.281	97.28
199.5	58.37
199.719	5.12
199.938	80.89
200.157	185.34
200.376	25.6
200.595	121.85
200.814	39.94
201.033	70.65
201.252	62.46
201.471	74.75
201.69	39.94
201.909	44.03
202.128	33.79
202.347	115.71
202.566	44.03
202.785	9.22
203.004	-13.31
203.223	117.76
203.442	44.03
203.661	50.18
203.879	21.5
204.098	117.76
204.317	-19.46
204.536	109.57
204.755	107.52
204.974	54.27
205.193	66.56
205.411	138.24
205.63	97.28
205.849	138.24
206.068	62.46
206.287	82.94
206.505	99.33
206.724	-17.41
206.943	74.75
207.162	21.5
207.381	-19.46
207.599	31.74
207.818	56.32
208.037	5.12
208.255	107.52
208.474	58.37
208.693	72.7
208.911	31.74
209.13	56.32
209.349	58.37
209.567	80.89
209.786	82.94
210.005	111.61
210.223	5.12
210.442	-25.6
210.661	93.18
210.879	74.75
211.098	41.98
211.316	99.33
211.535	101.37
211.753	56.32
211.972	138.24
212.191	19.46
212.409	37.89
212.628	91.13
212.846	15.36
213.065	70.65
213.283	87.04
213.502	-31.74
213.72	68.61
213.938	103.42
214.157	35.84
214.375	41.98
214.594	76.8
214.812	76.8
215.031	37.89
215.249	41.98
215.467	56.32
215.686	70.65
215.904	62.46
216.122	29.7
216.341	91.13
216.559	66.56
216.778	13.31
216.996	60.42
217.214	-60.42
217.432	46.08
217.651	13.31
217.869	76.8
218.087	62.46
218.306	17.41
218.524	35.84
218.742	27.65
218.96	52.22
219.179	33.79
219.397	-7.17
219.615	95.23
219.833	68.61
220.051	-9.22
220.27	17.41
220.488	80.89
220.706	29.7
220.924	54.27
221.142	-5.12
221.36	21.5
221.578	115.71
221.796	-3.07
222.015	54.27
222.233	11.26
222.451	99.33
222.669	27.65
222.887	91.13
223.105	-46.08
223.323	27.65
223.541	95.23
223.759	82.94
223.977	25.6
224.195	72.7
224.413	54.27
224.631	150.53
224.849	54.27
225.067	144.38
225.285	56.32
225.503	56.32
225.721	-35.84
225.939	60.42
226.157	66.56
226.375	214.01
226.592	21.5
226.81	89.09
227.028	156.67
227.246	93.18
227.464	7.17
227.682	54.27
227.9	54.27
228.117	111.61
228.335	15.36
228.553	29.7
228.771	52.22
228.989	70.65
229.206	66.56
229.424	23.55
229.642	-1.02
229.86	11.26
230.077	117.76
230.295	87.04
230.513	25.6
230.731	27.65
230.948	87.04
231.166	89.09
231.384	54.27
231.601	-17.41
231.819	-31.74
232.037	15.36
232.254	70.65
232.472	5.12
232.689	-35.84
232.907	29.7
233.125	35.84
233.342	58.37
233.56	66.56
233.777	64.51
233.995	84.99
234.213	105.47
234.43	185.34
234.648	54.27
234.865	21.5
235.083	35.84
235.3	-11.26
235.518	25.6
235.735	87.04
235.953	93.18
236.17	39.94
236.388	37.89
236.605	33.79
236.822	60.42
237.04	107.52
237.257	78.85
237.475	-60.42
237.692	48.13
237.909	52.22
238.127	-13.31
238.344	78.85
238.562	-3.07
238.779	-9.22
238.996	44.03
239.214	-5.12
239.431	39.94
239.648	15.36
239.865	119.81
240.083	29.7
240.3	15.36
240.517	25.6
240.735	13.31
240.952	7.17
241.169	168.96
241.386	37.89
241.603	-1.02
241.821	23.55
242.038	105.47
242.255	80.89
242.472	35.84
242.689	87.04
242.907	46.08
243.124	29.7
243.341	27.65
243.558	62.46
243.775	44.03
243.992	15.36
244.209	48.13
244.426	80.89
244.643	121.85
244.86	70.65
245.078	9.22
245.295	11.26
245.512	84.99
245.729	70.65
245.946	33.79
246.163	39.94
246.38	91.13
246.597	68.61
246.814	3.07
247.031	-17.41
247.248	144.38
247.464	60.42
247.681	95.23
247.898	97.28
248.115	91.13
248.332	54.27
248.549	103.42
248.766	134.14
248.983	72.7
249.2	115.71
249.417	74.75
249.633	56.32
249.85	-1.02
250.067	48.13
250.284	-35.84
250.501	82.94
250.717	54.27
250.934	9.22
251.151	48.13
251.368	78.85
251.585	111.61
251.801	82.94
252.018	-17.41
252.235	123.9
252.451	-15.36
252.668	31.74
252.885	21.5
253.102	66.56
253.318	56.32
253.535	-9.22
253.752	27.65
253.968	33.79
254.185	44.03
254.401	11.26
254.618	60.42
254.835	33.79
255.051	128
255.268	66.56
255.484	72.7
255.701	-23.55
255.917	76.8
256.134	-101.37
256.351	-9.22
256.567	62.46
256.784	3.07
257	-1.02
257.217	66.56
257.433	111.61
257.65	7.17
257.866	134.14
258.082	44.03
258.299	87.04
258.515	70.65
258.732	70.65
258.948	41.98
259.165	39.94
259.381	-44.03
259.597	87.04
259.814	70.65
260.03	54.27
260.246	-56.32
260.463	144.38
260.679	84.99
260.895	21.5
261.112	78.85
261.328	41.98
261.544	-56.32
261.761	168.96
261.977	52.22
262.193	74.75
262.409	17.41
262.626	93.18
262.842	-15.36
263.058	25.6
263.274	101.37
263.49	99.33
263.707	78.85
263.923	99.33
264.139	1.02
264.355	66.56
264.571	156.67
264.787	-62.46
265.004	89.09
265.22	72.7
265.436	-19.46
265.652	35.84
265.868	78.85
266.084	15.36
266.3	60.42
266.516	-17.41
266.732	87.04
266.948	56.32
267.164	84.99
267.38	128
267.596	87.04
267.812	97.28
268.028	25.6
268.244	60.42
268.46	54.27
268.676	70.65
268.892	89.09
269.108	87.04
269.324	7.17
269.54	58.37
269.756	80.89
269.972	56.32
270.188	-27.65
270.403	-19.46
270.619	89.09
270.835	37.89
271.051	5.12
271.267	25.6
271.483	60.42
271.698	58.37
271.914	60.42
272.13	76.8
272.346	37.89
272.562	82.94
272.777	37.89
272.993	44.03
273.209	23.55
273.425	66.56
273.64	-9.22
273.856	46.08
274.072	-25.6
274.287	-64.51
274.503	87.04
274.719	58.37
274.934	80.89
275.15	54.27
275.366	39.94
275.581	15.36
275.797	82.94
276.012	39.94
276.228	-27.65
276.444	50.18
276.659	19.46
276.875	13.31
277.09	-15.36
277.306	78.85
277.521	35.84
277.737	97.28
277.952	56.32
278.168	103.42
278.383	-17.41
278.599	44.03
278.814	44.03
279.03	13.31
279.245	154.62
279.461	121.85
279.676	56.32
279.892	-19.46
280.107	17.41
280.322	21.5
280.538	13.31
280.753	-13.31
280.969	13.31
281.184	-1.02
281.399	54.27
281.615	41.98
281.83	37.89
282.045	48.13
282.26	-17.41
282.476	33.79
282.691	46.08
282.906	101.37
283.122	44.03
283.337	82.94
283.552	101.37
283.767	58.37
283.983	64.51
284.198	60.42
284.413	113.66
284.628	-41.98
284.843	41.98
285.058	29.7
285.274	64.51
285.489	-35.84
285.704	31.74
285.919	21.5
286.134	-5.12
286.349	78.85
286.564	7.17
286.779	119.81
286.995	44.03
287.21	5.12
287.425	111.61
287.64	-19.46
287.855	41.98
288.07	-25.6
288.285	60.42
288.5	35.84
288.715	41.98
288.93	50.18
289.145	7.17
289.36	142.33
289.575	-1.02
289.79	87.04
290.004	19.46
290.219	95.23
290.434	54.27
290.649	5.12
290.864	107.52
291.079	66.56
291.294	-3.07
291.509	136.19
291.724	23.55
291.938	25.6
292.153	78.85
292.368	35.84
292.583	-19.46
292.798	111.61
293.012	44.03
293.227	39.94
293.442	48.13
293.657	87.04
293.871	154.62
294.086	31.74
294.301	119.81
294.516	76.8
294.73	5.12
294.945	-13.31
295.16	7.17
295.374	54.27
295.589	76.8
295.804	-23.55
296.018	5.12
296.233	128
296.447	33.79
296.662	48.13
296.877	37.89
297.091	91.13
297.306	66.56
297.52	39.94
297.735	97.28
297.949	27.65
298.164	48.13
298.378	78.85
298.593	113.66
298.807	15.36
299.022	33.79
299.236	23.55
299.451	62.46
299.665	33.79
299.88	58.37
300.094	46.08
300.309	17.41
300.523	101.37
300.737	-56.32
300.952	46.08
301.166	39.94
301.381	-11.26
301.595	37.89
301.809	54.27
302.024	52.22
302.238	15.36
302.452	21.5
302.667	-37.89
302.881	95.23
303.095	50.18
303.309	89.09
303.524	1.02
303.738	27.65
303.952	-44.03
304.166	-11.26
304.381	-17.41
304.595	70.65
304.809	17.41
305.023	60.42
305.237	54.27
305.452	41.98
305.666	9.22
305.88	46.08
306.094	9.22
306.308	80.89
306.522	119.81
306.736	160.77
306.95	136.19
307.164	46.08
307.379	84.99
307.593	72.7
307.807	87.04
308.021	89.09
308.235	105.47
308.449	-1.02
308.663	46.08
308.877	119.81
309.091	70.65
309.305	39.94
309.519	17.41
309.733	72.7
309.947	-27.65
310.161	89.09
310.374	56.32
310.588	74.75
310.802	44.03
311.016	27.65
311.23	56.32
311.444	80.89
311.658	19.46
311.872	105.47
312.085	138.24
312.299	87.04
312.513	148.48
312.727	37.89
312.941	80.89
313.154	56.32
313.368	19.46
313.582	37.89
313.796	13.31
314.009	-37.89
314.223	103.42
314.437	158.72
314.651	119.81
314.864	15.36
315.078	19.46
315.292	3.07
315.505	46.08
315.719	80.89
315.933	95.23
316.146	9.22
316.36	-39.94
316.573	78.85
316.787	144.38
317.001	17.41
317.214	60.42
317.428	27.65
317.641	35.84
317.855	7.17
318.068	-13.31
318.282	80.89
318.495	119.81
318.709	132.09
318.922	80.89
319.136	171.01
319.349	140.29
319.563	132.09
319.776	146.43
319.99	56.32
320.203	44.03
320.417	97.28
320.63	87.04
320.843	128
321.057	27.65
321.27	103.42
321.483	62.46
321.697	74.75
321.91	107.52
322.124	78.85
322.337	107.52
322.55	-11.26
322.763	35.84
322.977	-39.94
323.19	105.47
323.403	76.8
323.617	76.8
323.83	62.46
324.043	29.7
324.256	54.27
324.469	-119.81
324.683	37.89
324.896	68.61
325.109	89.09
325.322	3.07
325.535	132.09
325.748	78.85
325.962	117.76
326.175	50.18
326.388	11.26
326.601	72.7
326.814	72.7
327.027	46.08
327.24	138.24
327.453	29.7
327.666	37.89
327.879	80.89
328.092	150.53
328.305	68.61
328.518	-1.02
328.731	7.17
328.944	-41.98
329.157	107.52
329.37	29.7
329.583	138.24
329.796	105.47
330.009	46.08
330.222	50.18
330.435	115.71
330.648	97.28
330.861	119.81
331.073	89.09
331.286	121.85
331.499	-11.26
331.712	11.26
331.925	46.08
332.138	29.7
332.35	128
332.563	72.7
332.776	128
332.989	27.65
333.202	29.7
333.414	93.18
333.627	146.43
333.84	70.65
334.053	82.94
334.265	5.12
334.478	64.51
334.691	107.52
334.903	41.98
335.116	39.94
335.329	54.27
335.541	111.61
335.754	152.57
335.966	46.08
336.179	62.46
336.392	99.33
336.604	80.89
336.817	78.85
337.029	111.61
337.242	68.61
337.454	97.28
337.667	11.26
337.88	97.28
338.092	99.33
338.305	80.89
338.517	-15.36
338.729	99.33
338.942	160.77
339.154	-19.46
339.367	23.55
339.579	78.85
339.792	19.46
340.004	95.23
340.217	29.7
340.429	80.89
340.641	56.32
340.854	95.23
341.066	-9.22
341.278	152.57
341.491	134.14
341.703	70.65
341.915	66.56
342.128	107.52
342.34	41.98
342.552	27.65
342.764	84.99
342.977	37.89
343.189	107.52
343.401	-7.17
343.613	31.74
343.826	35.84
344.038	-9.22
344.25	21.5
344.462	29.7
344.674	76.8
344.886	99.33
345.099	39.94
345.311	95.23
345.523	62.46
345.735	33.79
345.947	109.57
346.159	31.74
346.371	72.7
346.583	29.7
346.795	181.25
347.007	97.28
347.219	89.09
347.431	70.65
347.643	17.41
347.855	58.37
348.067	187.39
348.279	31.74
348.491	-27.65
348.703	72.7
348.915	-3.07
349.127	-52.22
349.339	50.18
349.551	5.12
349.763	50.18
349.975	60.42
350.187	144.38
350.399	107.52
350.61	105.47
350.822	-27.65
351.034	62.46
351.246	31.74
351.458	-9.22
351.669	105.47
351.881	119.81
352.093	54.27
352.305	78.85
352.517	41.98
352.728	113.66
352.94	132.09
353.152	103.42
353.363	-25.6
353.575	130.05
353.787	115.71
353.999	74.75
354.21	150.53
354.422	35.84
354.633	68.61
354.845	13.31
355.057	-7.17
355.268	84.99
355.48	-3.07
355.692	58.37
355.903	52.22
356.115	-19.46
356.326	15.36
356.538	115.71
356.749	1.02
356.961	132.09
357.172	138.24
357.384	-17.41
357.595	56.32
357.807	68.61
358.018	21.5
358.23	156.67
358.441	125.95
358.653	111.61
358.864	111.61
359.075	35.84
359.287	37.89
359.498	119.81
359.709	46.08
359.921	3.07
360.132	119.81
360.344	62.46
360.555	-46.08
360.766	64.51
360.977	76.8
361.189	107.52
361.4	21.5
361.611	166.91
361.823	80.89
362.034	60.42
362.245	-52.22
362.456	60.42
362.667	62.46
362.879	89.09
363.09	87.04
363.301	29.7
363.512	84.99
363.723	-52.22
363.935	31.74
364.146	111.61
364.357	41.98
364.568	25.6
364.779	-1.02
364.99	132.09
365.201	52.22
365.412	115.71
365.623	5.12
365.834	95.23
366.045	89.09
366.256	103.42
366.467	52.22
366.678	60.42
366.889	48.13
367.1	72.7
367.311	105.47
367.522	9.22
367.733	130.05
367.944	-9.22
368.155	62.46
368.366	84.99
368.577	134.14
368.788	80.89
368.999	27.65
369.209	82.94
369.42	125.95
369.631	142.33
369.842	113.66
370.053	62.46
370.264	140.29
370.474	62.46
370.685	136.19
370.896	39.94
371.107	130.05
371.317	89.09
371.528	21.5
371.739	152.57
371.95	99.33
372.16	121.85
372.371	66.56
372.582	37.89
372.792	89.09
373.003	82.94
373.214	64.51
373.424	82.94
373.635	48.13
373.846	103.42
374.056	25.6
374.267	84.99
374.477	132.09
374.688	-25.6
374.898	33.79
375.109	101.37
375.319	60.42
375.53	41.98
375.74	58.37
375.951	70.65
376.161	166.91
376.372	111.61
376.582	66.56
376.793	78.85
377.003	25.6
377.214	84.99
377.424	70.65
377.635	9.22
377.845	48.13
378.055	138.24
378.266	-19.46
378.476	52.22
378.686	177.15
378.897	74.75
379.107	148.48
379.317	78.85
379.528	15.36
379.738	82.94
379.948	15.36
380.158	109.57
380.369	27.65
380.579	82.94
380.789	31.74
380.999	123.9
381.21	101.37
381.42	152.57
381.63	37.89
381.84	82.94
382.05	128
382.261	140.29
382.471	107.52
382.681	87.04
382.891	103.42
383.101	50.18
383.311	76.8
383.521	-3.07
383.731	113.66
383.941	80.89
384.151	-27.65
384.361	46.08
384.571	68.61
384.781	89.09
384.991	136.19
385.201	103.42
385.411	37.89
385.621	136.19
385.831	103.42
386.041	123.9
386.251	64.51
386.461	123.9
386.671	13.31
386.881	41.98
387.091	146.43
387.301	121.85
387.511	103.42
387.72	130.05
387.93	52.22
388.14	76.8
388.35	78.85
388.56	197.63
388.769	105.47
388.979	168.96
389.189	31.74
389.399	46.08
389.609	152.57
389.818	130.05
390.028	111.61
390.238	146.43
390.447	27.65
390.657	72.7
390.867	113.66
391.076	9.22
391.286	80.89
391.496	72.7
391.705	164.86
391.915	132.09
392.125	162.81
392.334	64.51
392.544	113.66
392.753	148.48
392.963	72.7
393.172	175.1
393.382	44.03
393.591	150.53
393.801	119.81
394.01	130.05
394.22	164.86
394.429	97.28
394.639	68.61
394.848	46.08
395.058	121.85
395.267	80.89
395.477	164.86
395.686	78.85
395.895	162.81
396.105	250.88
396.314	109.57
396.524	121.85
396.733	76.8
396.942	228.35
397.152	101.37
397.361	119.81
397.57	156.67
397.78	80.89
397.989	146.43
398.198	228.35
398.407	115.71
398.617	31.74
398.826	195.58
399.035	76.8
399.244	115.71
399.453	158.72
399.663	152.57
399.872	195.58
400.081	105.47
400.29	130.05
400.499	80.89
400.708	111.61
400.917	193.53
401.127	144.38
401.336	64.51
401.545	142.33
401.754	193.53
401.963	162.81
402.172	189.44
402.381	87.04
402.59	146.43
402.799	162.81
403.008	189.44
403.217	138.24
403.426	93.18
403.635	132.09
403.844	156.67
404.053	185.34
404.262	154.62
404.471	201.72
404.68	193.53
404.888	193.53
405.097	179.2
405.306	211.96
405.515	140.29
405.724	242.68
405.933	220.16
406.142	195.58
406.35	214.01
406.559	158.72
406.768	248.83
406.977	267.26
407.185	199.68
407.394	259.07
407.603	236.54
407.812	257.02
408.02	334.84
408.229	269.31
408.438	287.74
408.646	209.92
408.855	267.26
409.064	349.18
409.272	328.7
409.481	369.66
409.69	332.79
409.898	322.56
410.107	324.6
410.315	416.76
410.524	390.14
410.733	459.77
410.941	334.84
411.15	392.19
411.358	410.62
411.567	416.76
411.775	478.2
411.984	435.19
412.192	433.15
412.401	439.29
412.609	568.31
412.818	599.03
413.026	572.41
413.234	513.02
413.443	556.02
413.651	566.26
413.86	601.08
414.068	766.96
414.276	773.11
414.485	703.48
414.693	762.87
414.901	777.2
415.11	711.67
415.318	775.16
415.526	799.73
415.734	771.06
415.943	859.12
416.151	891.89
416.359	906.23
416.567	924.66
416.776	1090.54
416.984	994.29
417.192	1154.03
417.4	1115.12
417.608	1072.11
417.817	1174.51
418.025	1246.19
418.233	1305.58
418.441	1242.09
418.649	1264.62
418.857	1473.51
419.065	1444.84
419.273	1547.24
419.481	1389.55
419.689	1725.41
419.897	1678.31
420.105	1618.92
420.313	1790.95
420.521	1856.48
420.729	1831.91
420.937	1956.83
421.145	1895.4
421.353	1848.29
421.561	2239.45
421.769	2171.87
421.977	2245.6
422.185	2284.51
422.393	2350.04
422.601	2563.03
422.809	2606.04
423.017	2642.9
423.224	2649.05
423.432	2726.87
423.64	2710.49
423.848	3072.98
424.056	2917.33
424.263	3234.77
424.471	3034.07
424.679	3255.25
424.887	3388.36
425.094	3488.71
425.302	3537.87
425.51	3685.32
425.718	3746.76
425.925	3795.91
426.133	3955.65
426.341	4113.35
426.548	4266.94
426.756	4357.05
426.964	4420.54
427.171	4563.9
427.379	4731.83
427.586	4840.37
427.794	5010.36
428.001	5305.26
428.209	5596.07
428.417	5450.67
428.624	5829.54
428.832	5757.86
429.039	5774.25
429.247	5677.99
429.454	6196.13
429.662	6800.28
429.869	6245.28
430.076	6773.66
430.284	6605.72
430.491	6734.75
430.699	7181.2
430.906	7099.28
431.114	7279.5
431.321	7484.3
431.528	7603.08
431.736	8358.78
431.943	8561.53
432.15	8283.01
432.358	8539.01
432.565	8893.3
432.772	8838.01
432.979	9454.45
433.187	9706.35
433.394	9507.69
433.601	10257.25
433.808	10181.48
434.016	9923.43
434.223	10793.82
434.43	11238.23
434.637	10945.37
434.844	11729.74
435.052	11916.11
435.259	11756.36
435.466	11963.21
435.673	11821.9
435.88	12620.61
436.087	13263.67
436.294	13230.9
436.501	12895.04
436.708	13429.56
436.915	13542.19
437.122	14287.65
437.329	14215.98
437.537	14869.28
437.743	14871.33
437.95	14758.69
438.157	15600.4
438.364	16208.65
438.571	15932.17
438.778	16028.43
438.985	17744.63
439.192	17173.24
439.399	17568.5
439.606	17210.11
439.813	18176.75
440.02	19288.79
440.227	18895.58
440.433	19026.65
440.64	19198.68
440.847	19342.04
441.054	19606.23
441.261	21181.12
441.467	20894.4
441.674	21330.62
441.881	22006.45
442.088	21752.5
442.294	21545.66
442.501	22528.68
442.708	22850.21
442.914	23753.37
443.121	24781.45
443.328	24316.56
443.534	25539.19
443.741	24785.54
443.948	24638.09
444.154	26503.79
444.361	26538.6
444.568	26643.05
444.774	26923.62
444.981	26641
445.187	27517.53
445.394	28799.56
445.6	28566.09
445.807	31332.9
446.013	29981.24
446.22	30317.11
446.426	31250.98
446.633	31889.95
446.839	32893.45
447.046	31636
447.252	33442.31
447.459	33518.08
447.665	33260.04
447.871	34873.84
448.078	36131.29
448.284	34669.04
448.491	35357.16
448.697	36760.02
448.903	37405.13
449.11	37814.72
449.316	37239.24
449.522	37757.38
449.728	38773.17
449.935	39156.14
450.141	39125.42
450.347	39922.08
450.553	38879.66
450.76	39430.57
450.966	40855.95
451.172	40049.05
451.378	41726.34
451.584	40657.3
451.791	41228.68
451.997	41263.5
452.203	41937.28
452.409	42049.92
452.615	42193.28
452.821	40378.78
453.027	40212.89
453.233	42465.66
453.44	40241.56
453.646	41161.1
453.852	41476.49
454.058	42099.07
454.264	40812.95
454.47	41625.99
454.676	40798.61
454.882	42025.34
455.088	38300.09
455.294	38695.35
455.5	39346.6
455.705	40288.67
455.911	38633.91
456.117	37583.3
456.323	36983.24
456.529	35355.11
456.735	36987.34
456.941	36053.47
457.147	35697.12
457.352	34279.92
457.558	34152.95
457.764	34138.62
457.97	33538.56
458.176	32840.2
458.381	33085.96
458.587	31242.79
458.793	31488.54
458.999	29440.57
459.204	31568.41
459.41	30601.77
459.616	28777.03
459.821	28832.33
460.027	28699.21
460.233	27863.64
460.438	26765.93
460.644	27255.39
460.85	25756.28
461.055	25442.94
461.261	25244.29
461.466	23255.71
461.672	22928.03
461.878	24507.02
462.083	22801.06
462.289	22459.05
462.494	21981.87
462.7	21285.56
462.905	20845.25
463.111	21547.7
463.316	21289.66
463.522	20779.71
463.727	20847.3
463.932	20720.32
464.138	20708.04
464.343	20626.12
464.549	20134.6
464.754	20681.41
464.959	20628.17
465.165	20245.2
465.37	19206.87
465.575	18856.67
465.781	19911.38
465.986	20212.43
466.191	19231.45
466.397	18946.78
466.602	17900.27
466.807	18543.33
467.012	18731.75
467.218	18582.24
467.423	18115.31
467.628	18422.5
467.833	19288.79
468.038	18481.89
468.244	18225.9
468.449	18766.56
468.654	17906.41
468.859	17994.48
469.064	17814.26
469.269	17105.66
469.474	17367.8
469.679	17642.23
469.885	17281.78
470.09	17443.57
470.295	17378.04
470.5	16859.9
470.705	16706.31
470.91	16610.05
471.115	16257.8
471.32	16741.12
471.525	16448.26
471.73	16151.31
471.935	16079.63
472.139	15706.9
472.344	15532.82
472.549	15680.27
472.754	15602.45
472.959	15242.01
473.164	14779.17
473.369	14689.06
473.574	15176.47
473.778	14717.73
473.983	14773.02
474.188	14768.93
474.393	14160.68
474.598	14148.39
474.802	14273.32
475.007	13939.5
475.212	13884.2
475.417	13286.2
475.621	13753.13
475.826	13515.57
476.031	13239.09
476.235	13101.88
476.44	13108.02
476.645	13022.01
476.849	12991.29
477.054	12852.03
477.259	12706.62
477.463	12892.99
477.668	12262.21
477.872	12276.55
478.077	12165.96
478.282	11717.45
478.486	11721.55
478.691	11746.12
478.895	11864.91
479.1	11561.81
479.304	11887.43
479.509	11250.52
479.713	11653.97
479.918	11295.57
480.122	10941.27
480.326	11281.24
480.531	11189.08
480.735	10998.62
480.94	10963.8
481.144	11285.33
481.348	10832.73
481.553	11150.17
481.757	10662.75
481.961	10949.46
482.166	11189.08
482.37	10904.41
482.574	10740.57
482.778	10670.94
482.983	10939.23
483.187	10689.37
483.391	10986.33
483.595	10750.81
483.8	10713.95
484.004	10652.51
484.208	10744.67
484.412	10847.07
484.616	10695.52
484.821	10728.28
485.025	10728.28
485.229	10724.19
485.433	10644.32
485.637	10660.7
485.841	10713.95
486.045	10492.77
486.249	10707.8
486.453	10742.62
486.657	10560.35
486.861	10736.48
487.065	10509.15
487.269	10625.89
487.473	10396.51
487.677	10894.17
487.881	10951.51
488.085	10812.25
488.289	10851.16
488.493	10650.46
488.697	10888.03
488.901	11023.19
489.105	10703.71
489.309	10869.59
489.512	10920.79
489.716	10722.14
489.92	10810.2
490.124	11064.15
490.328	10992.47
490.531	10881.88
490.735	10838.87
490.939	11127.64
491.143	10990.42
491.346	10969.94
491.55	11240.28
491.754	11174.74
491.958	11215.7
492.161	11367.25
492.365	11510.61
492.569	11334.48
492.772	11248.47
492.976	11404.11
493.18	11311.96
493.383	11473.74
493.587	11543.38
493.79	11795.28
493.994	11379.54
494.197	11711.31
494.401	11848.52
494.605	11875.15
494.808	12016.46
495.012	11903.82
495.215	12077.9
495.419	12172.1
495.622	12047.18
495.825	12393.28
496.029	12442.43
496.232	12706.62
496.436	12368.71
496.639	12847.93
496.843	12800.83
497.046	13069.11
497.249	13269.81
497.453	13335.35
497.656	13245.24
497.859	13464.37
498.063	13384.5
498.266	13855.53
498.469	13751.09
498.673	14070.57
498.876	14271.27
499.079	14320.42
499.282	13986.6
499.485	14895.9
499.689	14629.66
499.892	14867.23
500.095	14768.93
500.298	15381.27
500.501	15436.56
500.705	15606.55
500.908	15837.97
501.111	15856.4
501.314	15891.21
501.517	16204.55
501.72	16417.54
501.923	16014.09
502.126	16747.26
502.329	16655.11
502.532	17001.21
502.735	17087.23
502.938	17429.24
503.141	17375.99
503.344	17851.12
503.547	17756.91
503.75	18002.67
503.953	18365.16
504.156	18379.5
504.359	18668.26
504.562	18572
504.765	19100.38
504.968	19403.48
505.17	19344.09
505.373	19772.11
505.576	19911.38
505.779	20230.86
505.982	20351.69
506.185	20806.34
506.387	20574.92
506.59	20933.31
506.793	21355.19
506.996	21144.25
507.198	21574.33
507.401	21879.47
507.604	22190.77
507.807	22467.24
508.009	22620.84
508.212	22770.34
508.415	23181.98
508.617	23239.33
508.82	23493.27
509.022	23120.54
509.225	23732.89
509.428	23904.92
509.63	24322.7
509.833	24347.28
510.035	25236.09
510.238	24664.71
510.44	25043.59
510.643	25449.08
510.845	25404.03
511.048	25735.8
511.25	25979.51
511.453	26196.59
511.655	27204.19
511.858	26612.33
512.06	27011.68
512.262	27099.75
512.465	27249.25
512.667	27779.67
512.87	28330.58
513.072	28109.4
513.274	28817.99
513.477	28787.27
513.679	29235.78
513.881	29368.9
514.084	29813.31
514.286	29844.02
514.488	29827.64
514.69	30685.74
514.893	30921.26
515.095	30734.89
515.297	31046.18
515.499	31300.13
515.701	31683.1
515.904	31998.49
516.106	32160.28
516.308	32430.61
516.51	32723.47
516.712	32856.59
516.914	33327.62
517.116	33739.26
517.318	33391.11
517.52	33444.35
517.722	34111.99
517.925	34591.22
518.127	35308.01
518.329	35551.71
518.531	35123.69
518.733	36086.23
518.935	35987.93
519.136	35695.07
519.338	36745.68
519.54	36456.92
519.742	37136.84
519.944	37130.7
520.146	37722.56
520.348	38109.63
520.55	38035.9
520.752	38191.55
520.954	38775.22
521.155	38818.22
521.357	39344.55
521.559	39319.98
521.761	39725.47
521.963	39856.54
522.164	39977.37
522.366	40333.72
522.568	40563.09
522.77	40425.88
522.971	41404.81
523.173	40878.48
523.375	41533.83
523.576	41933.18
523.778	41582.98
523.98	42410.36
524.181	42649.97
524.383	42692.98
524.584	43188.59
524.786	42951.02
524.988	42905.97
525.189	43323.75
525.391	43516.26
525.592	43544.94
525.794	44163.42
525.995	44235.1
526.197	43680.1
526.398	44671.32
526.6	44634.45
526.801	45029.71
527.003	44835.16
527.204	45097.3
527.406	45527.37
527.607	45046.1
527.808	45904.2
528.01	45250.89
528.211	45369.68
528.412	46399.8
528.614	46178.62
528.815	46352.7
529.016	46403.9
529.218	46057.79
529.419	46160.19
529.62	46534.97
529.822	46530.87
530.023	46625.08
530.224	47069.49
530.425	46672.18
530.626	46399.8
530.828	46350.65
531.029	47362.35
531.23	46547.26
531.431	46891.32
531.632	47296.81
531.833	47489.32
532.035	47540.52
532.236	47276.33
532.437	47405.36
532.638	47464.75
532.839	47970.6
533.04	47937.83
533.241	47386.92
533.442	48460.06
533.643	47868.2
533.844	47534.38
534.045	47982.88
534.246	47237.42
534.447	47997.22
534.648	47565.1
534.849	47982.88
535.05	47599.91
535.251	47935.78
535.451	47423.79
535.652	48042.27
535.853	47933.73
536.054	48003.36
536.255	48105.76
536.456	47565.1
536.657	48372
536.857	48007.46
537.058	47831.33
537.259	48062.75
537.46	47798.57
537.66	47898.92
537.861	48066.85
538.062	47542.57
538.263	48400.67
538.463	47687.98
538.664	47706.41
538.865	48275.74
539.065	48331.04
539.266	47888.68
539.466	48443.68
539.667	47661.35
539.868	48202.02
540.068	47710.5
540.269	48103.71
540.469	47716.65
540.67	47829.29
540.87	47718.7
541.071	48005.41
541.271	47915.3
541.472	47694.12
541.672	47364.4
541.873	47620.39
542.073	47401.26
542.274	48036.13
542.474	47966.5
542.675	47278.38
542.875	47886.63
543.075	47708.46
543.276	47290.67
543.476	48009.51
543.676	47495.47
543.877	47827.24
544.077	47544.62
544.277	47466.8
544.478	47655.21
544.678	47800.61
544.878	47782.18
545.078	47630.63
545.279	47489.32
545.479	46926.13
545.679	47698.22
545.879	47507.76
546.079	47352.11
546.28	47477.04
546.48	47137.07
546.68	47913.25
546.88	47542.57
547.08	47202.61
547.28	47663.4
547.48	47333.68
547.68	47436.08
547.88	47286.57
548.081	47561
548.281	47538.47
548.481	47237.42
548.681	47571.24
548.881	47188.27
549.081	47358.25
549.28	46764.34
549.48	47761.7
549.68	47141.17
549.88	48263.46
550.08	46971.19
550.28	47106.35
550.48	47116.59
550.68	47403.31
550.88	47061.3
551.08	47366.45
551.279	47403.31
551.479	46539.07
551.679	46985.52
551.879	46960.95
552.079	47067.44
552.278	47221.04
552.478	47128.88
552.678	47466.8
552.878	47249.71
553.077	46784.82
553.277	46491.96
553.477	47284.53
553.676	46750.01
553.876	46831.93
554.076	47083.83
554.275	46694.71
554.475	46260.54
554.674	46786.87
554.874	46711.1
555.074	46162.24
555.273	46543.16
555.473	46917.94
555.672	46358.84
555.872	46760.25
556.071	46702.9
556.271	46887.22
556.47	46688.57
556.67	45590.86
556.869	46100.8
557.068	46530.87
557.268	46242.11
557.467	45930.82
557.667	46238.01
557.866	46115.14
558.065	46092.61
558.265	45709.64
558.464	45517.13
558.663	45814.08
558.863	45412.68
559.062	46125.38
559.261	45203.79
559.461	45785.41
559.66	45244.75
559.859	45597
560.058	45123.92
560.258	45543.75
560.457	45537.61
560.656	45568.33
560.855	45017.43
561.054	45429.07
561.253	45252.94
561.453	44951.89
561.652	45058.38
561.851	45181.26
562.05	44988.75
562.249	44613.98
562.448	44880.21
562.647	44806.48
562.846	44650.84
563.045	44777.81
563.244	44415.32
563.443	44919.12
563.642	44188
563.841	43999.58
564.04	43872.61
564.239	44605.78
564.438	43792.74
564.637	43616.61
564.836	44104.03
565.035	43393.39
565.234	43661.67
565.432	43716.96
565.631	43561.32
565.83	43620.71
566.029	43290.99
566.228	43389.29
566.427	43100.53
566.625	43082.09
566.824	42504.57
567.023	43260.27
567.222	42033.53
567.42	43192.68
567.619	42678.64
567.818	42779
568.016	41849.22
568.215	42772.85
568.414	42350.97
568.612	42746.23
568.811	42416.5
569.01	42254.72
569.208	41648.52
569.407	42117.5
569.605	41677.19
569.804	41955.71
570.002	41376.14
570.201	41888.13
570.4	41326.99
570.598	41306.51
570.797	41111.95
570.995	41263.5
571.193	41021.84
571.392	41265.55
571.59	40913.3
571.789	40790.42
571.987	40898.96
572.186	40849.81
572.384	40540.57
572.582	40460.69
572.781	40415.64
572.979	39799.2
573.177	40702.35
573.376	40128.92
573.574	40047
573.772	40135.07
573.971	40059.29
574.169	39852.45
574.367	39319.98
574.565	40006.05
574.763	39727.52
574.962	39199.15
575.16	39375.27
575.358	39272.87
575.556	38984.11
575.754	39678.37
575.952	38621.62
576.151	39145.9
576.349	38672.82
576.547	38556.08
576.745	38795.7
576.943	38853.04
577.141	38132.15
577.339	38652.34
577.537	38386.1
577.735	38265.27
577.933	38023.61
578.131	37935.55
578.329	37751.23
578.527	37966.27
578.725	37835.2
578.923	37810.62
579.121	37398.98
579.319	37097.93
579.516	37980.6
579.714	37638.59
579.912	37210.57
580.11	37282.25
580.308	37018.06
580.506	37013.96
580.704	36581.84
580.901	37214.66
581.099	36932.04
581.297	36448.72
581.495	36688.34
581.692	36768.21
581.89	36057.56
582.088	36606.42
582.285	36180.44
582.483	36473.3
582.681	36063.71
582.878	36002.27
583.076	35371.49
583.274	36075.99
583.471	35226.09
583.669	35475.94
583.866	35465.7
584.064	35531.23
584.262	35006.95
584.459	35547.62
584.657	35101.16
584.854	35711.46
585.052	34949.61
585.249	35070.44
585.447	35209.7
585.644	34673.13
585.841	34476.53
586.039	34959.85
586.236	34367.99
586.434	34263.54
586.631	34316.79
586.828	34378.23
587.026	34228.73
587.223	34019.83
587.42	33772.03
587.618	33991.16
587.815	33720.83
588.012	33325.57
588.21	33409.54
588.407	33427.97
588.604	33518.08
588.801	33169.93
588.999	32989.7
589.196	33241.6
589.393	33329.67
589.59	32813.58
589.787	32741.9
589.984	32518.67
590.182	32363.03
590.379	32559.63
590.576	32387.6
590.773	32133.65
590.97	32330.26
591.167	32219.67
591.364	32094.74
591.561	32160.28
591.758	31736.35
591.955	31762.97
592.152	31695.39
592.349	31441.44
592.546	31689.24
592.743	31377.95
592.94	31097.38
593.137	30999.08
593.334	31240.74
593.531	30597.68
593.727	30931.5
593.924	31158.82
594.121	30620.2
594.318	30923.3
594.515	30386.74
594.712	30870.06
594.908	30603.82
595.105	30464.56
595.302	30310.96
595.499	30554.67
595.696	30341.68
595.892	29887.03
596.089	30048.82
596.286	30091.83
596.482	29903.42
596.679	29569.6
596.876	29821.5
597.072	29475.39
597.269	29575.74
597.466	29194.82
597.662	29067.84
597.859	28992.07
598.055	29145.67
598.252	29049.41
598.448	29184.58
598.645	28469.84
598.841	28715.59
599.038	28723.79
599.234	28596.81
599.431	28318.29
599.627	28392.01
599.824	28762.7
600.02	28267.09
600.217	28252.75
600.413	28224.08
600.609	28236.37
600.806	28072.53
601.002	27986.52
601.198	27824.73
601.395	27597.4
601.591	27744.86
601.787	27265.63
601.984	27103.84
602.18	27673.18
602.376	27290.21
602.572	27368.03
602.769	27501.15
602.965	27189.86
603.161	26937.96
603.357	26839.65
603.553	27026.02
603.75	26851.94
603.946	26456.68
604.142	26573.42
604.338	26223.22
604.534	26262.13
604.73	26309.23
604.926	26118.77
605.122	26585.71
605.318	26024.56
605.514	25713.27
605.71	26161.78
605.906	25856.63
606.102	25756.28
606.298	25639.54
606.494	26036.85
606.69	25703.03
606.886	25795.19
607.082	25232
607.278	25303.68
607.474	25070.21
607.67	25295.49
607.866	24904.32
608.062	25358.97
608.257	25043.59
608.453	24935.04
608.649	25234.05
608.845	24920.71
609.041	24840.84
609.236	24955.52
609.432	24760.97
609.628	24832.65
609.824	24769.16
610.019	24320.65
610.215	24642.18
610.411	24570.51
610.606	24631.94
610.802	24345.23
610.998	24375.95
611.193	24396.43
611.389	24101.52
611.584	24081.04
611.78	24050.32
611.976	24111.76
612.171	23964.31
612.367	23890.58
612.562	23894.68
612.758	23540.38
612.953	23386.78
613.149	23913.11
613.344	23642.78
613.539	23868.05
613.735	23644.82
613.93	23757.46
614.126	23466.65
614.321	23560.86
614.517	23407.26
614.712	23179.93
614.907	23294.62
615.103	23202.46
615.298	23147.17
615.493	23321.24
615.688	23005.86
615.884	23251.61
616.079	23038.62
616.274	22921.89
616.47	22962.85
616.665	22915.75
616.86	22936.23
617.055	22700.71
617.25	22909.6
617.445	22723.24
617.641	22512.3
617.836	22657.7
618.031	22493.86
618.226	22645.41
618.421	22399.66
618.616	22592.17
618.811	22248.11
619.006	22401.71
619.201	22180.53
619.396	22002.35
619.591	21668.53
619.786	22008.5
619.981	21615.29
620.176	21838.51
620.371	21449.4
620.566	21523.13
620.761	21365.43
620.956	21547.7
621.151	21232.32
621.346	21301.95
621.541	20894.4
621.735	21287.61
621.93	20906.69
622.125	20898.5
622.32	20255.43
622.515	20353.74
622.709	20566.73
622.904	20724.42
623.099	19962.58
623.294	20388.55
623.488	20241.1
623.683	20079.31
623.878	19737.3
624.072	19911.38
624.267	19759.83
624.462	19618.52
624.656	19202.78
624.851	19481.3
625.046	19354.33
625.24	19280.6
625.435	18981.6
625.629	19139.29
625.824	18916.06
626.018	18889.44
626.213	18522.85
626.407	18574.05
626.602	18371.3
626.796	18563.81
626.991	18563.81
627.185	18111.21
627.38	18064.11
627.574	18090.73
627.768	18027.24
627.963	17734.39
628.157	17644.27
628.352	17609.46
628.546	17283.83
628.74	17582.84
628.935	17289.98
629.129	17132.28
629.323	16904.96
629.517	17003.26
629.712	16917.25
629.906	17163
630.1	16777.98
630.294	17040.12
630.489	16569.09
630.683	16702.21
630.877	16423.69
631.071	16542.47
631.265	16444.17
631.459	16261.9
631.653	16012.04
631.848	15868.69
632.042	16128.78
632.236	16026.38
632.43	15866.64
632.624	15733.52
632.818	15987.47
633.012	15457.04
633.206	15393.56
633.4	15575.83
633.594	15317.78
633.788	15350.55
633.982	15235.86
634.176	15217.43
634.369	15256.34
634.563	15098.65
634.757	14875.42
634.951	14877.47
635.145	14844.7
635.339	14834.46
635.533	14494.5
635.726	14605.09
635.92	14238.5
636.114	14281.51
636.308	14314.28
636.501	14209.83
636.695	14228.26
636.889	14177.06
637.083	13802.29
637.276	14052.14
637.47	13845.29
637.664	13847.34
637.857	13626.16
638.051	13673.26
638.244	13505.33
638.438	13415.22
638.632	13417.27
638.825	13306.68
639.019	13316.92
639.212	13026.11
639.406	13116.22
639.599	13112.12
639.793	12974.91
639.986	12657.47
640.18	13122.36
640.373	12933.95
640.567	12327.75
640.76	12639.04
640.954	12555.07
641.147	12366.66
641.34	12489.54
641.534	12620.61
641.727	12258.12
641.92	12180.29
642.114	12268.36
642.307	12170.05
642.5	12133.19
642.694	11860.81
642.887	12127.05
643.08	12079.94
643.273	12008.26
643.467	11844.43
643.66	11750.22
643.853	11733.84
644.046	11451.22
644.239	11610.96
644.432	11213.65
644.626	11307.86
644.819	11277.14
645.012	11246.42
645.205	11443.03
645.398	11301.72
645.591	11133.78
645.784	10918.75
645.977	10773.34
646.17	10820.44
646.363	10785.63
646.556	10810.2
646.749	10806.11
646.942	10763.1
647.135	10705.76
647.328	10595.17
647.521	10498.91
647.714	10531.68
647.907	10447.71
648.099	10406.75
648.292	10300.26
648.485	10453.86
648.678	10113.89
648.871	10341.22
649.064	10087.27
649.256	10001.26
649.449	10009.45
649.642	9925.48
649.835	9864.04
650.027	9851.75
650.22	9970.54
650.413	9868.14
650.605	9804.65
650.798	9532.27
650.991	9544.56
651.183	9517.93
651.376	9462.64
651.568	9288.56
651.761	9354.1
651.954	9300.85
652.146	9327.47
652.339	9427.82
652.531	9128.82
652.724	9085.81
652.916	8799.1
653.109	9116.53
653.301	8930.17
653.494	9128.82
653.686	8958.84
653.879	9053.05
654.071	8911.74
654.263	8500.09
654.456	8807.29
654.648	8721.27
654.84	8766.33
655.033	8672.12
655.225	8500.09
655.417	8522.62
655.61	8586.11
655.802	8440.7
655.994	8399.74
656.186	8383.36
656.379	8283.01
656.571	8135.56
656.763	8137.6
656.955	8287.11
657.148	8172.42
657.34	8135.56
657.532	8035.21
657.724	7926.66
657.916	8106.88
658.108	7941
658.3	7936.9
658.492	7957.38
658.684	7918.47
658.876	7717.77
659.068	7895.94
659.26	7803.78
659.452	7803.78
659.644	7648.14
659.836	7617.42
660.028	7687.05
660.22	7453.58
660.412	7529.36
660.604	7551.88
660.796	7320.46
660.988	7361.42
661.18	7386
661.372	7236.5
661.563	7312.27
661.755	7220.11
661.947	7201.68
662.139	7248.79
662.331	7289.74
662.522	6970.26
662.714	7203.73
662.906	6904.73
663.097	7187.35
663.289	7107.48
663.481	6865.82
663.673	7130
663.864	6904.73
664.056	6732.7
664.247	6828.95
664.439	6736.79
664.631	6587.29
664.822	6755.22
665.014	6792.09
665.205	6720.41
665.397	6601.63
665.588	6503.32
665.78	6527.9
665.971	6550.43
666.163	6411.17
666.354	6452.13
666.546	6425.5
666.737	6409.12
666.929	6501.28
667.12	6292.38
667.311	6458.27
667.503	6284.19
667.694	6355.87
667.885	6257.57
668.077	6220.71
668.268	6114.21
668.459	6085.54
668.651	6142.88
668.842	6173.6
669.033	6042.53
669.224	5950.37
669.416	6175.65
669.607	6054.82
669.798	5956.52
669.989	6116.26
670.18	5942.18
670.371	6009.76
670.563	5911.46
670.754	6038.44
670.945	5923.75
671.136	5882.79
671.327	5890.98
671.518	5850.02
671.709	5757.86
671.9	5776.3
672.091	5876.65
672.282	5784.49
672.473	5774.25
672.664	5733.29
672.855	5673.9
673.046	5716.9
673.237	5825.45
673.428	5692.33
673.619	5735.34
673.809	5628.84
674	5630.89
674.191	5704.62
674.382	5397.42
674.573	5526.44
674.764	5581.74
674.954	5516.2
675.145	5342.13
675.336	5393.33
675.527	5508.01
675.717	5503.92
675.908	5544.88
676.099	5573.55
676.289	5467.05
676.48	5419.95
676.671	5411.76
676.861	5360.56
677.052	5387.18
677.243	5319.6
677.433	5321.65
677.624	5489.58
677.814	5315.5
678.005	5460.91
678.195	5436.33
678.386	5231.54
678.576	5387.18
678.767	5399.47
678.957	5491.63
679.148	5329.84
679.338	5403.57
679.529	5102.51
679.719	5292.98
679.909	5305.26
680.1	5364.65
680.29	5188.53
680.481	5084.08
680.671	5315.5
680.861	5200.82
681.052	5327.79
681.242	5106.61
681.432	5155.76
681.622	4981.68
681.813	5170.1
682.003	5112.75
682.193	5122.99
682.383	5378.99
682.573	5278.64
682.764	5118.9
682.954	5012.4
683.144	5153.71
683.334	5209.01
683.524	5086.13
683.714	5075.89
683.904	5215.15
684.094	5135.28
684.284	5264.3
684.474	5086.13
684.664	5155.76
684.854	4981.68
685.044	5065.65
685.234	4918.2
685.424	5022.64
685.614	5004.21
685.804	5069.75
685.994	4959.16
686.184	5018.55
686.374	5008.31
686.564	4834.23
686.753	4883.38
686.943	4717.5
687.133	4723.64
687.323	4758.46
687.513	4834.23
687.702	4719.54
687.892	4787.13
688.082	4725.69
688.272	4709.3
688.461	4594.62
688.651	4674.49
688.841	4748.22
689.03	4608.95
689.22	4559.8
689.41	4481.98
689.599	4578.23
689.789	4389.82
689.979	4481.98
690.168	4461.5
690.358	4438.97
690.547	4398.01
690.737	4363.2
690.926	4258.75
691.116	4215.74
691.305	4367.29
691.495	4389.82
691.684	4312
691.874	4230.08
692.063	4213.7
692.252	4258.75
692.442	4293.57
692.631	4305.85
692.82	4223.94
693.01	4094.91
693.199	4133.82
693.388	4086.72
693.578	4174.78
693.767	4189.12
693.956	4043.71
694.146	3980.23
694.335	4080.58
694.524	4037.57
694.713	4117.44
694.902	3986.37
695.092	4064.19
695.281	4008.9
695.47	4012.99
695.659	3898.31
695.848	3836.87
696.037	3840.97
696.226	3916.74
696.415	3713.99
696.604	3967.94
696.793	4033.47
696.982	3978.18
697.171	3931.08
697.36	3912.64
697.549	3800.01
697.738	3720.14
697.927	3740.61
698.116	3816.39
698.305	4010.95
698.494	3699.66
698.683	3857.35
698.872	3789.77
699.061	3593.16
699.25	3720.14
699.438	3787.72
699.627	3836.87
699.816	3777.48
700.005	3613.64
700.193	3822.53
700.382	3728.33
700.571	3728.33
700.76	3728.33
700.948	3697.61
701.137	3738.57
701.326	3736.52
701.514	3695.56
701.703	3773.38
701.892	3640.26
702.08	3838.92
702.269	3894.21
702.457	3619.78
702.646	3699.66
702.834	3720.14
703.023	3748.81
703.212	3595.21
703.4	3601.35
703.589	3683.27
703.777	3627.98
703.965	3664.84
704.154	3652.55
704.342	3656.65
704.531	3587.02
704.719	3666.89
704.907	3736.52
705.096	3707.85
705.284	3578.83
705.472	3695.56
705.661	3705.8
705.849	3914.69
706.037	3687.37
706.226	3625.93
706.414	3828.68
706.602	3724.23
706.79	3703.75
706.979	3630.02
707.167	3746.76
707.355	3709.9
707.543	3617.74
707.731	3705.8
707.919	3572.68
708.107	3687.37
708.296	3640.26
708.484	3601.35
708.672	3675.08
708.86	3668.94
709.048	3652.55
709.236	3689.42
709.424	3730.38
709.612	3724.23
709.8	3646.41
709.988	3666.89
710.176	3587.02
710.364	3668.94
710.551	3650.5
710.739	3656.65
710.927	3742.66
711.115	3599.31
711.303	3611.59
711.491	3748.81
711.679	3693.51
711.866	3675.08
712.054	3683.27
712.242	3636.17
712.43	3668.94
712.617	3718.09
712.805	3720.14
712.993	3752.9
713.181	3728.33
713.368	3720.14
713.556	3810.25
713.744	3857.35
713.931	3685.32
714.119	3765.19
714.306	3754.95
714.494	3740.61
714.682	3765.19
714.869	3574.73
715.057	3771.33
715.244	3707.85
715.432	3808.2
715.619	3800.01
715.807	3908.55
715.994	3673.03
716.182	3664.84
716.369	3728.33
716.556	3795.91
716.744	3724.23
716.931	3662.79
717.119	3720.14
717.306	3703.75
717.493	3783.62
717.681	3767.24
717.868	3757
718.055	3802.05
718.242	3812.29
718.43	3785.67
718.617	3789.77
718.804	3613.64
718.991	3677.13
719.179	3806.15
719.366	3859.4
719.553	3800.01
719.74	3843.01
719.927	3802.05
720.114	4033.47
720.301	3920.84
720.488	3857.35
720.676	3734.47
720.863	3707.85
721.05	3785.67
721.237	3800.01
721.424	3757
721.611	3775.43
721.798	3800.01
721.985	3853.25
722.172	3883.97
722.358	3822.53
722.545	3800.01
722.732	3863.49
722.919	3910.6
723.106	3781.57
723.293	3726.28
723.48	3879.88
723.667	3675.08
723.853	3867.59
724.04	3861.45
724.227	3888.07
724.414	3883.97
724.6	3769.29
724.787	3836.87
724.974	3965.89
725.161	3888.07
725.347	3804.1
725.534	3834.82
725.72	3939.27
725.907	3832.77
726.094	3875.78
726.28	3797.96
726.467	3840.97
726.653	3931.08
726.84	3896.26
727.027	3791.81
727.213	3771.33
727.4	3800.01
727.586	3820.49
727.773	3918.79
727.959	3806.15
728.145	3904.45
728.332	3775.43
728.518	3783.62
728.705	3922.88
728.891	3818.44
729.077	3791.81
729.264	3789.77
729.45	3849.16
729.636	3845.06
729.823	3800.01
730.009	4023.23
730.195	3912.64
730.382	3879.88
730.568	3963.84
730.754	3881.92
730.94	3898.31
731.126	4070.34
731.313	3781.57
731.499	3785.67
731.685	3894.21
731.871	3896.26
732.057	3814.34
732.243	3900.36
732.429	3945.41
732.615	3974.08
732.801	3851.21
732.987	3953.6
733.173	3726.28
733.359	3916.74
733.545	3898.31
733.731	3838.92
733.917	4019.14
734.103	3822.53
734.289	3933.12
734.475	3746.76
734.661	3832.77
734.847	3918.79
735.033	3795.91
735.219	3929.03
735.404	3863.49
735.59	3724.23
735.776	3769.29
735.962	3822.53
736.148	3769.29
736.333	3902.4
736.519	3808.2
736.705	3840.97
736.89	3996.61
737.076	3869.64
737.262	3765.19
737.447	3873.73
737.633	3673.03
737.819	3789.77
738.004	3666.89
738.19	3795.91
738.375	3830.73
738.561	3824.58
738.747	3763.14
738.932	3630.02
739.118	3757
739.303	3634.12
739.489	3679.18
739.674	3769.29
739.859	3785.67
740.045	3810.25
740.23	3650.5
740.416	3609.54
740.601	3544.01
740.786	3611.59
740.972	3691.46
741.157	3580.87
741.342	3525.58
741.528	3544.01
741.713	3552.2
741.898	3488.71
742.084	3621.83
742.269	3611.59
742.454	3523.53
742.639	3670.98
742.824	3509.19
743.01	3527.63
743.195	3537.87
743.38	3541.96
743.565	3529.67
743.75	3402.7
743.935	3494.86
744.12	3404.75
744.305	3544.01
744.49	3304.4
744.675	3251.15
744.86	3388.36
745.045	3396.56
745.23	3251.15
745.415	3259.34
745.6	3396.56
745.785	3249.1
745.97	3427.28
746.155	3214.29
746.34	3189.71
746.525	3093.46
746.71	3339.21
746.895	3140.56
747.079	3130.32
747.264	3099.6
747.449	3077.07
747.634	3044.31
747.819	3128.27
748.003	3089.36
748.188	3107.79
748.373	2921.43
748.557	3072.98
748.742	3052.5
748.927	2923.48
749.111	2958.29
749.296	2978.77
749.481	2997.2
749.665	2974.67
749.85	2890.71
750.034	2878.42
750.219	2855.89
750.404	2759.64
750.588	2835.41
750.773	2753.49
750.957	2786.26
751.141	2839.51
751.326	2733.01
751.51	2681.82
751.695	2839.51
751.879	2776.02
752.064	2700.25
752.248	2763.73
752.432	2714.58
752.617	2655.19
752.801	2481.11
752.985	2636.76
753.17	2610.14
753.354	2454.49
753.538	2653.14
753.722	2575.32
753.907	2495.45
754.091	2497.5
754.275	2436.06
754.459	2608.09
754.643	2434.01
754.828	2458.59
755.012	2452.44
755.196	2294.75
755.38	2282.46
755.564	2434.01
755.748	2169.82
755.932	2292.7
756.116	2311.13
756.3	2331.61
756.484	2257.89
756.668	2231.26
756.852	2175.97
757.036	2280.41
757.22	2167.77
757.404	2202.59
757.588	2169.82
757.772	2270.17
757.956	2294.75
758.14	2132.96
758.323	2188.25
758.507	2208.73
758.691	1999.84
758.875	2192.35
759.059	2165.73
759.242	2030.56
759.426	1944.55
759.61	1999.84
759.794	1932.26
759.977	1962.98
760.161	2149.34
760.345	1911.78
760.528	2010.08
760.712	1870.82
760.895	1938.4
761.079	1805.28
761.263	1766.37
761.446	1864.68
761.63	1893.35
761.813	1952.74
761.997	1790.95
762.18	1762.28
762.364	1915.87
762.547	1743.85
762.731	1807.33
762.914	1866.72
763.098	1754.09
763.281	1797.09
763.464	1709.03
763.648	1760.23
763.831	1782.76
764.015	1774.56
764.198	1797.09
764.381	1702.89
764.564	1749.99
764.748	1594.34
764.931	1809.38
765.114	1694.69
765.297	1702.89
765.481	1643.49
765.664	1606.63
765.847	1661.93
766.03	1639.4
766.213	1709.03
766.397	1719.27
766.58	1588.2
766.763	1584.1
766.946	1731.56
767.129	1620.97
767.312	1532.9
767.495	1489.9
767.678	1475.56
767.861	1618.92
768.044	1651.69
768.227	1496.04
768.41	1582.06
768.593	1485.8
768.776	1563.62
768.959	1569.77
769.142	1620.97
769.324	1491.95
769.507	1563.62
769.69	1541.1
769.873	1526.76
770.056	1528.81
770.239	1428.46
770.421	1586.15
770.604	1461.23
770.787	1463.27
770.97	1375.21
771.152	1274.86
771.335	1393.64
771.518	1369.07
771.7	1457.13
771.883	1371.12
772.066	1479.66
772.248	1381.35
772.431	1444.84
772.613	1446.89
772.796	1264.62
772.978	1383.4
773.161	1391.59
773.343	1248.24
773.526	1289.2
773.708	1334.25
773.891	1248.24
774.073	1235.95
774.256	1285.1
774.438	1283.05
774.621	1291.24
774.803	1328.11
774.985	1274.86
775.168	1246.19
775.35	1156.08
775.532	1186.8
775.715	1235.95
775.897	1295.34
776.079	1270.76
776.261	1266.67
776.444	1186.8
776.626	1203.18
776.808	1238
776.99	1162.22
777.173	1098.74
777.355	1111.02
777.537	1176.56
777.719	1088.5
777.901	1127.41
778.083	1045.49
778.265	1068.02
778.447	1057.78
778.629	1092.59
778.811	1072.11
778.993	1063.92
779.175	1082.35
779.357	1045.49
779.539	1002.48
779.721	922.61
779.903	1033.2
780.085	973.81
780.267	990.19
780.449	955.38
780.631	979.95
780.812	990.19
780.994	949.23
781.176	973.81
781.358	1020.91
781.54	949.23
781.721	955.38
781.903	873.46
782.085	922.61
782.267	885.75
782.448	900.08
782.63	852.98
782.812	818.16
782.993	887.79
783.175	924.66
783.357	777.2
783.538	861.17
783.72	791.54
783.901	850.93
784.083	844.79
784.264	809.97
784.446	709.62
784.627	824.31
784.809	799.73
784.99	695.29
785.172	832.5
785.353	785.4
785.535	742.39
785.716	732.15
785.897	732.15
786.079	734.2
786.26	812.02
786.441	734.2
786.623	590.84
786.804	711.67
786.985	656.37
787.167	734.2
787.348	732.15
787.529	664.57
787.71	809.97
787.891	701.43
788.073	621.56
788.254	607.22
788.435	660.47
788.616	635.89
788.797	658.42
788.978	627.7
789.159	631.8
789.34	625.65
789.522	596.98
789.703	621.56
789.884	697.33
790.065	580.6
790.246	728.05
790.427	607.22
790.607	635.89
790.788	668.66
790.969	611.32
791.15	586.74
791.331	599.03
791.512	578.55
791.693	539.64
791.874	588.79
792.054	637.94
792.235	658.42
792.416	500.73
792.597	535.54
792.778	586.74
792.958	527.35
793.139	562.17
793.32	566.26
793.5	521.21
793.681	541.69
793.862	623.61
794.042	492.54
794.223	465.91
794.404	461.82
794.584	467.96
794.765	553.98
794.945	443.39
795.126	508.92
795.306	463.86
795.487	461.82
795.667	443.39
795.848	564.22
796.028	506.87
796.209	500.73
796.389	504.82
796.57	463.86
796.75	478.2
796.93	474.1
797.111	359.42
797.291	383.99
797.471	523.26
797.652	416.76
797.832	418.81
798.012	482.3
798.192	373.75
798.373	371.71
798.553	392.19
798.733	371.71
798.913	412.67
799.093	400.38
799.274	424.95
799.454	455.67
799.634	414.71
799.814	447.48
799.994	398.33
800.174	461.82
800.354	410.62
800.534	371.71
800.714	455.67
800.894	357.37
801.074	277.5
801.254	373.75
801.434	474.1
801.614	238.59
801.794	279.55
801.974	1258.48
802.154	447.48
802.334	381.95
802.514	392.19
802.693	334.84
802.873	377.85
803.053	386.04
803.233	324.6
803.413	420.86
803.592	332.79
803.772	410.62
803.952	390.14
804.131	330.75
804.311	343.03
804.491	361.47
804.67	308.22
804.85	357.37
805.03	443.39
805.209	420.86
805.389	293.88
805.568	295.93
805.748	304.12
805.928	275.45
806.107	377.85
806.287	353.27
806.466	330.75
806.646	297.98
806.825	310.27
807.004	252.92
807.184	318.46
807.363	381.95
807.543	336.89
807.722	267.26
807.901	361.47
808.081	259.07
808.26	222.2
808.439	304.12
808.619	263.16
808.798	338.94
808.977	271.36
809.156	343.03
809.336	336.89
809.515	291.84
809.694	365.56
809.873	302.08
810.052	304.12
810.231	316.41
810.411	357.37
810.59	314.36
810.769	265.21
810.948	304.12
811.127	226.3
811.306	312.32
811.485	310.27
811.664	320.51
811.843	283.64
812.022	261.12
812.201	271.36
812.38	236.54
812.559	232.44
812.737	369.66
812.916	207.87
813.095	259.07
813.274	347.13
813.453	316.41
813.632	257.02
813.811	336.89
813.989	193.53
814.168	254.97
814.347	197.63
814.526	267.26
814.704	308.22
814.883	218.11
815.062	209.92
815.24	261.12
815.419	177.15
815.598	355.32
815.776	166.91
815.955	246.78
816.133	168.96
816.312	216.06
816.49	187.39
816.669	261.12
816.847	197.63
817.026	277.5
817.204	164.86
817.383	164.86
817.561	257.02
817.74	220.16
817.918	269.31
818.097	205.82
818.275	236.54
818.453	271.36
818.632	244.73
818.81	160.77
818.988	267.26
819.167	203.77
819.345	160.77
819.523	199.68
819.701	240.64
819.879	295.93
820.058	228.35
820.236	189.44
820.414	209.92
820.592	119.81
820.77	166.91
820.948	189.44
821.127	99.33
821.305	222.2
821.483	107.52
821.661	236.54
821.839	228.35
822.017	173.05
822.195	105.47
822.373	244.73
822.551	128
822.729	201.72
822.907	166.91
823.085	177.15
823.262	128
823.44	132.09
823.618	216.06
823.796	181.25
823.974	154.62
824.152	150.53
824.329	152.57
824.507	134.14
824.685	152.57
824.863	179.2
825.04	154.62
825.218	224.25
825.396	189.44
825.574	236.54
825.751	99.33
825.929	183.29
826.107	97.28
826.284	148.48
826.462	95.23
826.639	87.04
826.817	201.72
826.994	105.47
827.172	87.04
827.349	154.62
827.527	179.2
827.704	173.05
827.882	197.63
828.059	119.81
828.237	156.67
828.414	132.09
828.591	82.94
828.769	93.18
828.946	109.57
829.124	214.01
829.301	144.38
829.478	136.19
829.655	160.77
829.833	148.48
830.01	130.05
830.187	146.43
830.364	109.57
830.542	95.23
830.719	216.06
830.896	185.34
831.073	228.35
831.25	78.85
831.427	173.05
831.604	152.57
831.782	93.18
831.959	234.49
832.136	121.85
832.313	197.63
832.49	105.47
832.667	132.09
832.844	66.56
833.021	220.16
833.198	154.62
833.374	162.81
833.551	123.9
833.728	128
833.905	244.73
834.082	54.27
834.259	132.09
834.436	207.87
834.612	91.13
834.789	240.64
834.966	164.86
835.143	154.62
835.319	160.77
835.496	201.72
835.673	138.24
835.85	121.85
836.026	97.28
836.203	214.01
836.38	64.51
836.556	111.61
836.733	128
836.909	111.61
837.086	66.56
837.262	5.12
837.439	29.7
837.616	103.42
837.792	154.62
837.968	66.56
838.145	121.85
838.321	46.08
838.498	103.42
838.674	132.09
838.851	142.33
839.027	95.23
839.203	66.56
839.38	111.61
839.556	46.08
839.732	119.81
839.909	138.24
840.085	33.79
840.261	66.56
840.437	78.85
840.614	21.5
840.79	218.11
840.966	107.52
841.142	111.61
841.318	140.29
841.494	97.28
841.671	103.42
841.847	97.28
842.023	128
842.199	158.72
842.375	80.89
842.551	21.5
842.727	23.55
842.903	168.96
843.079	58.37
843.255	128
843.431	140.29
843.607	152.57
843.783	1.02
843.959	117.76
844.134	123.9
844.31	181.25
844.486	84.99
844.662	66.56
844.838	109.57
845.013	105.47
845.189	136.19
845.365	64.51
845.541	113.66
845.716	80.89
845.892	91.13
846.068	119.81
846.244	46.08
846.419	113.66
846.595	5.12
846.77	48.13
846.946	70.65
847.122	35.84
847.297	5.12
847.473	181.25
847.648	1.02
847.824	76.8
847.999	-15.36
848.175	111.61
848.35	39.94
848.526	125.95
848.701	105.47
848.876	130.05
849.052	142.33
849.227	117.76
849.403	72.7
849.578	64.51
849.753	72.7
849.929	78.85
850.104	15.36
850.279	101.37
850.454	62.46
850.63	138.24
850.805	146.43
850.98	119.81
851.155	44.03
851.33	23.55
851.505	82.94
851.681	91.13
851.856	128
852.031	46.08
852.206	37.89
852.381	84.99
852.556	82.94
852.731	95.23
852.906	105.47
853.081	74.75
853.256	93.18
853.431	58.37
853.606	27.65
853.781	-11.26
853.956	-3.07
854.131	80.89
854.305	97.28
854.48	76.8
854.655	-5.12
854.83	82.94
855.005	7.17
855.18	103.42
855.354	29.7
855.529	33.79
855.704	64.51
855.879	76.8
856.053	33.79
856.228	48.13
856.403	33.79
856.577	60.42
856.752	64.51
856.926	87.04
857.101	66.56
857.276	5.12
857.45	76.8
857.625	72.7
857.799	64.51
857.974	39.94
858.148	93.18
858.323	173.05
858.497	35.84
858.672	70.65
858.846	9.22
859.02	119.81
859.195	-46.08
859.369	3.07
859.543	23.55
859.718	9.22
859.892	44.03
860.066	70.65
860.241	37.89
860.415	70.65
860.589	-1.02
860.763	68.61
860.938	111.61
861.112	41.98
861.286	5.12
861.46	54.27
861.634	35.84
861.808	93.18
861.982	56.32
862.157	25.6
862.331	68.61
862.505	-87.04
862.679	62.46
862.853	62.46
863.027	29.7
863.201	105.47
863.375	-17.41
863.549	78.85
863.722	48.13
863.896	119.81
864.07	23.55
864.244	72.7
864.418	72.7
864.592	64.51
864.766	80.89
864.939	13.31
865.113	-54.27
865.287	84.99
865.461	-9.22
865.634	9.22
865.808	29.7
865.982	27.65
866.156	-93.18
866.329	29.7
866.503	31.74
866.676	-27.65
866.85	72.7
867.024	-7.17
867.197	95.23
867.371	9.22
867.544	39.94
867.718	13.31
867.891	50.18
868.065	-3.07
868.238	-35.84
868.412	87.04
868.585	64.51
868.759	58.37
868.932	-19.46
869.105	-68.61
869.279	60.42
869.452	37.89
869.625	-13.31
869.799	46.08
869.972	-9.22
870.145	31.74
870.319	105.47
870.492	-9.22
870.665	3.07
870.838	-46.08
871.011	-23.55
871.185	-15.36
871.358	76.8
871.531	54.27
871.704	7.17
871.877	54.27
872.05	3.07
872.223	-54.27
872.396	37.89
872.569	9.22
872.742	13.31
872.915	17.41
873.088	-5.12
873.261	-11.26
873.434	130.05
873.607	35.84
873.78	33.79
873.953	-13.31
874.126	56.32
874.299	35.84
874.471	-19.46
874.644	72.7
874.817	21.5
874.99	60.42
875.163	5.12
875.335	48.13
875.508	29.7
875.681	23.55
875.853	5.12
876.026	-1.02
876.199	76.8
876.371	5.12
876.544	-11.26
876.717	84.99
876.889	-33.79
877.062	-9.22
877.234	-41.98
877.407	-7.17
877.579	54.27
877.752	-31.74
877.924	7.17
878.097	50.18
878.269	-1.02
878.442	7.17
878.614	78.85
878.786	-13.31
878.959	31.74
879.131	35.84
879.303	-25.6
879.476	-35.84
879.648	35.84
879.82	31.74
879.993	11.26
880.165	-7.17
880.337	-1.02
880.509	78.85
880.681	-99.33
880.854	37.89
881.026	37.89
881.198	78.85
881.37	29.7
881.542	25.6
881.714	-39.94
881.886	31.74
882.058	-19.46
882.23	44.03
882.402	93.18
882.574	31.74
882.746	1.02
882.918	27.65
883.09	7.17
883.262	7.17
883.434	-44.03
883.606	-25.6
883.778	-17.41
883.95	101.37
884.122	41.98
884.293	105.47
884.465	-29.7
884.637	-19.46
884.809	17.41
884.98	46.08
885.152	78.85
885.324	60.42
885.496	-62.46
885.667	-25.6
885.839	7.17
886.011	70.65
886.182	91.13
886.354	82.94
886.525	87.04
886.697	99.33
886.869	21.5
887.04	-23.55
887.212	37.89
887.383	-41.98
887.555	62.46
887.726	72.7
887.897	29.7
888.069	-9.22
888.24	-9.22
888.412	21.5
888.583	25.6
888.754	-15.36
888.926	-46.08
889.097	-56.32
889.268	-27.65
889.44	37.89
889.611	-7.17
889.782	-19.46
889.953	-3.07
890.125	101.37
890.296	46.08
890.467	1.02
890.638	68.61
890.809	29.7
890.98	3.07
891.151	-37.89
891.323	41.98
891.494	46.08
891.665	72.7
891.836	46.08
892.007	46.08
892.178	70.65
892.349	64.51
892.52	66.56
892.691	23.55
892.862	-60.42
893.032	-39.94
893.203	-11.26
893.374	50.18
893.545	17.41
893.716	-1.02
893.887	76.8
894.057	-7.17
894.228	37.89
894.399	37.89
894.57	87.04
894.74	-52.22
894.911	29.7
895.082	-50.18
895.253	13.31
895.423	35.84
895.594	39.94
895.764	-25.6
895.935	-56.32
896.106	56.32
896.276	68.61
896.447	1.02
896.617	-39.94
896.788	-62.46
896.958	-15.36
897.129	-19.46
897.299	-66.56
897.47	76.8
897.64	105.47
897.81	29.7
897.981	-31.74
898.151	64.51
898.322	56.32
898.492	5.12
898.662	-5.12
898.832	-15.36
899.003	-21.5
899.173	-17.41
899.343	-27.65
899.513	-58.37
