Data from USB4F104151__9__13-04-12-332.txt Node

Date: Fri Mar 14 13:04:12 EDT 2025
User: louis
Spectrometer: USB4F10415
Trigger mode: 4
Integration Time (sec): 4.000000E-2
Scans to average: 1
Electric dark correction enabled: true
Nonlinearity correction enabled: false
Boxcar width: 0
XAxis mode: Wavelengths
Number of Pixels in Spectrum: 3648
>>>>>Begin Spectral Data<<<<<
178.204	-215.89
178.424	-215.89
178.644	-215.89
178.864	-209.75
179.084	-269.14
179.304	11.43
179.524	-62.29
179.744	15.53
179.964	-41.81
180.184	42.15
180.404	83.11
180.624	60.59
180.844	40.11
181.064	-97.11
181.283	50.35
181.503	-45.91
181.723	-56.15
181.943	-78.68
182.163	-31.57
182.383	29.87
182.602	3.24
182.822	-4.95
183.042	-7
183.262	-27.48
183.482	3.24
183.701	9.39
183.921	-25.43
184.141	-23.38
184.361	11.43
184.58	-70.48
184.8	-68.44
185.02	36.01
185.239	13.48
185.459	-27.48
185.679	72.87
185.898	-66.39
186.118	36.01
186.338	-35.67
186.557	74.92
186.777	13.48
186.997	-0.85
187.216	19.63
187.436	87.21
187.655	81.07
187.875	79.02
188.095	-72.53
188.314	91.31
188.534	50.35
188.753	19.63
188.973	42.15
189.192	46.25
189.412	-7
189.631	11.43
189.851	11.43
190.07	74.92
190.29	-97.11
190.509	-7
190.729	11.43
190.948	44.2
191.168	109.74
191.387	79.02
191.607	-27.48
191.826	-11.09
192.045	40.11
192.265	54.44
192.484	7.34
192.704	-7
192.923	-7
193.142	134.31
193.362	-41.81
193.581	29.87
193.8	42.15
194.02	9.39
194.239	-11.09
194.458	56.49
194.678	-31.57
194.897	-11.09
195.116	23.72
195.335	66.73
195.555	42.15
195.774	-37.72
195.993	9.39
196.212	17.58
196.432	-2.9
196.651	-72.53
196.87	-27.48
197.089	70.83
197.308	-15.19
197.528	-37.72
197.747	-47.96
197.966	-9.05
198.185	46.25
198.404	-88.92
198.623	15.53
198.842	-0.85
199.062	52.39
199.281	13.48
199.5	29.87
199.719	33.96
199.938	44.2
200.157	66.73
200.376	-33.62
200.595	-29.52
200.814	85.16
201.033	36.01
201.252	76.97
201.471	-17.24
201.69	-25.43
201.909	40.11
202.128	-43.86
202.347	-21.33
202.566	-15.19
202.785	-43.86
203.004	-4.95
203.223	115.88
203.442	33.96
203.661	-84.82
203.879	7.34
204.098	31.91
204.317	-27.48
204.536	56.49
204.755	-2.9
204.974	-7
205.193	-39.76
205.411	115.88
205.63	-11.09
205.849	-19.29
206.068	-54.1
206.287	-13.14
206.505	-62.29
206.724	-31.57
206.943	-62.29
207.162	-31.57
207.381	25.77
207.599	-52.05
207.818	5.29
208.037	-35.67
208.255	15.53
208.474	29.87
208.693	42.15
208.911	-29.52
209.13	-9.05
209.349	-19.29
209.567	42.15
209.786	-52.05
210.005	54.44
210.223	-43.86
210.442	-86.87
210.661	93.35
210.879	-74.58
211.098	-19.29
211.316	25.77
211.535	48.3
211.753	-41.81
211.972	-15.19
212.191	-7
212.409	3.24
212.628	44.2
212.846	-70.48
213.065	62.63
213.283	48.3
213.502	-47.96
213.72	-2.9
213.938	27.82
214.157	-4.95
214.375	46.25
214.594	7.34
214.812	29.87
215.031	-19.29
215.249	-60.24
215.467	21.67
215.686	56.49
215.904	124.07
216.122	64.68
216.341	93.35
216.559	5.29
216.778	-15.19
216.996	-47.96
217.214	-47.96
217.432	-58.2
217.651	11.43
217.869	15.53
218.087	-37.72
218.306	17.58
218.524	56.49
218.742	11.43
218.96	42.15
219.179	-25.43
219.397	3.24
219.615	103.59
219.833	9.39
220.051	-60.24
220.27	74.92
220.488	-37.72
220.706	17.58
220.924	-11.09
221.142	-4.95
221.36	-101.2
221.578	-29.52
221.796	46.25
222.015	-41.81
222.233	-23.38
222.451	89.26
222.669	38.06
222.887	15.53
223.105	44.2
223.323	36.01
223.541	-15.19
223.759	54.44
223.977	-68.44
224.195	95.4
224.413	40.11
224.631	27.82
224.849	-2.9
225.067	101.55
225.285	7.34
225.503	-95.06
225.721	-54.1
225.939	-47.96
226.157	50.35
226.375	64.68
226.592	42.15
226.81	9.39
227.028	48.3
227.246	99.5
227.464	-56.15
227.682	36.01
227.9	54.44
228.117	-47.96
228.335	-29.52
228.553	-11.09
228.771	33.96
228.989	27.82
229.206	-9.05
229.424	56.49
229.642	48.3
229.86	-76.63
230.077	62.63
230.295	25.77
230.513	23.72
230.731	19.63
230.948	21.67
231.166	132.26
231.384	-47.96
231.601	-15.19
231.819	152.74
232.037	-23.38
232.254	-41.81
232.472	1.19
232.689	3.24
232.907	33.96
233.125	-54.1
233.342	89.26
233.56	-7
233.777	-41.81
233.995	-66.39
234.213	103.59
234.43	17.58
234.648	36.01
234.865	-31.57
235.083	50.35
235.3	-4.95
235.518	11.43
235.735	48.3
235.953	50.35
236.17	42.15
236.388	17.58
236.605	29.87
236.822	-37.72
237.04	44.2
237.257	64.68
237.475	-29.52
237.692	-7
237.909	31.91
238.127	-52.05
238.344	17.58
238.562	68.78
238.779	-97.11
238.996	-136.02
239.214	-15.19
239.431	62.63
239.648	-50
239.865	76.97
240.083	17.58
240.3	-45.91
240.517	70.83
240.735	33.96
240.952	54.44
241.169	89.26
241.386	44.2
241.603	-7
241.821	-11.09
242.038	105.64
242.255	7.34
242.472	-23.38
242.689	-31.57
242.907	52.39
243.124	-52.05
243.341	56.49
243.558	-21.33
243.775	-21.33
243.992	-11.09
244.209	-58.2
244.426	66.73
244.643	7.34
244.86	-19.29
245.078	-13.14
245.295	21.67
245.512	33.96
245.729	-13.14
245.946	-13.14
246.163	-31.57
246.38	-23.38
246.597	-2.9
246.814	33.96
247.031	-17.24
247.248	36.01
247.464	36.01
247.681	29.87
247.898	-13.14
248.115	-15.19
248.332	-86.87
248.549	33.96
248.766	17.58
248.983	103.59
249.2	-62.29
249.417	17.58
249.633	-86.87
249.85	-23.38
250.067	-15.19
250.284	3.24
250.501	76.97
250.717	13.48
250.934	44.2
251.151	-68.44
251.368	-11.09
251.585	3.24
251.801	-21.33
252.018	-56.15
252.235	58.54
252.451	3.24
252.668	-45.91
252.885	7.34
253.102	7.34
253.318	44.2
253.535	13.48
253.752	-33.62
253.968	-80.72
254.185	-70.48
254.401	-74.58
254.618	1.19
254.835	-7
255.051	74.92
255.268	-33.62
255.484	29.87
255.701	-27.48
255.917	-27.48
256.134	-95.06
256.351	-0.85
256.567	-47.96
256.784	19.63
257	-62.29
257.217	27.82
257.433	134.31
257.65	25.77
257.866	56.49
258.082	-80.72
258.299	-19.29
258.515	-27.48
258.732	15.53
258.948	-33.62
259.165	1.19
259.381	1.19
259.597	40.11
259.814	-80.72
260.03	60.59
260.246	-76.63
260.463	40.11
260.679	79.02
260.895	60.59
261.112	1.19
261.328	21.67
261.544	7.34
261.761	70.83
261.977	9.39
262.193	-99.16
262.409	-15.19
262.626	-0.85
262.842	-47.96
263.058	3.24
263.274	17.58
263.49	9.39
263.707	68.78
263.923	-7
264.139	-31.57
264.355	3.24
264.571	44.2
264.787	97.45
265.004	-27.48
265.22	-21.33
265.436	3.24
265.652	-15.19
265.868	19.63
266.084	-43.86
266.3	58.54
266.516	-41.81
266.732	-45.91
266.948	17.58
267.164	3.24
267.38	-7
267.596	27.82
267.812	91.31
268.028	29.87
268.244	-78.68
268.46	-80.72
268.676	-7
268.892	40.11
269.108	7.34
269.324	21.67
269.54	-82.77
269.756	132.26
269.972	-13.14
270.188	-56.15
270.403	-21.33
270.619	-11.09
270.835	-68.44
271.051	44.2
271.267	17.58
271.483	-19.29
271.698	-9.05
271.914	-17.24
272.13	-9.05
272.346	-35.67
272.562	-56.15
272.777	31.91
272.993	31.91
273.209	-82.77
273.425	50.35
273.64	-0.85
273.856	-0.85
274.072	-4.95
274.287	-7
274.503	50.35
274.719	52.39
274.934	-54.1
275.15	42.15
275.366	-43.86
275.581	-15.19
275.797	-2.9
276.012	-50
276.228	-60.24
276.444	-33.62
276.659	-11.09
276.875	-74.58
277.09	15.53
277.306	-2.9
277.521	-13.14
277.737	5.29
277.952	-0.85
278.168	-58.2
278.383	42.15
278.599	-70.48
278.814	1.19
279.03	33.96
279.245	3.24
279.461	33.96
279.676	56.49
279.892	-95.06
280.107	-43.86
280.322	42.15
280.538	13.48
280.753	-15.19
280.969	42.15
281.184	-64.34
281.399	68.78
281.615	-17.24
281.83	3.24
282.045	-29.52
282.26	-47.96
282.476	44.2
282.691	11.43
282.906	-23.38
283.122	11.43
283.337	-41.81
283.552	74.92
283.767	-11.09
283.983	-39.76
284.198	-19.29
284.413	-21.33
284.628	-7
284.843	13.48
285.058	46.25
285.274	-35.67
285.489	38.06
285.704	25.77
285.919	17.58
286.134	3.24
286.349	27.82
286.564	33.96
286.779	21.67
286.995	-23.38
287.21	-31.57
287.425	13.48
287.64	-19.29
287.855	36.01
288.07	-62.29
288.285	60.59
288.5	50.35
288.715	54.44
288.93	-17.24
289.145	1.19
289.36	23.72
289.575	-29.52
289.79	68.78
290.004	40.11
290.219	31.91
290.434	15.53
290.649	-19.29
290.864	-21.33
291.079	-41.81
291.294	3.24
291.509	9.39
291.724	-45.91
291.938	74.92
292.153	40.11
292.368	17.58
292.583	-9.05
292.798	25.77
293.012	93.35
293.227	-11.09
293.442	-13.14
293.657	66.73
293.871	68.78
294.086	46.25
294.301	58.54
294.516	50.35
294.73	21.67
294.945	1.19
295.16	31.91
295.374	54.44
295.589	62.63
295.804	-21.33
296.018	83.11
296.233	72.87
296.447	-29.52
296.662	-45.91
296.877	87.21
297.091	60.59
297.306	-56.15
297.52	1.19
297.735	56.49
297.949	-7
298.164	23.72
298.378	27.82
298.593	-39.76
298.807	7.34
299.022	50.35
299.236	46.25
299.451	-21.33
299.665	1.19
299.88	-4.95
300.094	-9.05
300.309	-43.86
300.523	-9.05
300.737	-4.95
300.952	50.35
301.166	40.11
301.381	-82.77
301.595	11.43
301.809	-13.14
302.024	-23.38
302.238	23.72
302.452	70.83
302.667	-50
302.881	97.45
303.095	74.92
303.309	-23.38
303.524	42.15
303.738	44.2
303.952	-84.82
304.166	-4.95
304.381	-66.39
304.595	21.67
304.809	3.24
305.023	-113.49
305.237	-45.91
305.452	-50
305.666	9.39
305.88	3.24
306.094	19.63
306.308	-35.67
306.522	-39.76
306.736	-17.24
306.95	31.91
307.164	-9.05
307.379	50.35
307.593	89.26
307.807	15.53
308.021	-4.95
308.235	-23.38
308.449	-47.96
308.663	-50
308.877	40.11
309.091	7.34
309.305	40.11
309.519	-70.48
309.733	70.83
309.947	-21.33
310.161	23.72
310.374	17.58
310.588	7.34
310.802	-25.43
311.016	-9.05
311.23	-0.85
311.444	3.24
311.658	-39.76
311.872	15.53
312.085	40.11
312.299	85.16
312.513	-27.48
312.727	-47.96
312.941	-15.19
313.154	1.19
313.368	81.07
313.582	68.78
313.796	31.91
314.009	-19.29
314.223	107.69
314.437	-0.85
314.651	19.63
314.864	-21.33
315.078	-25.43
315.292	-88.92
315.505	17.58
315.719	-37.72
315.933	46.25
316.146	-11.09
316.36	-58.2
316.573	50.35
316.787	-0.85
317.001	50.35
317.214	-43.86
317.428	17.58
317.641	7.34
317.855	-17.24
318.068	17.58
318.282	-15.19
318.495	21.67
318.709	50.35
318.922	-41.81
319.136	-7
319.349	25.77
319.563	-21.33
319.776	107.69
319.99	-68.44
320.203	-23.38
320.417	33.96
320.63	29.87
320.843	25.77
321.057	-7
321.27	-29.52
321.483	25.77
321.697	31.91
321.91	-9.05
322.124	19.63
322.337	-7
322.55	-109.4
322.763	-13.14
322.977	11.43
323.19	-17.24
323.403	-7
323.617	46.25
323.83	3.24
324.043	-23.38
324.256	-88.92
324.469	-27.48
324.683	81.07
324.896	-25.43
325.109	-47.96
325.322	-62.29
325.535	50.35
325.748	-56.15
325.962	-0.85
326.175	-15.19
326.388	-11.09
326.601	27.82
326.814	3.24
327.027	1.19
327.24	113.83
327.453	-29.52
327.666	-41.81
327.879	81.07
328.092	21.67
328.305	1.19
328.518	-78.68
328.731	64.68
328.944	-52.05
329.157	15.53
329.37	17.58
329.583	7.34
329.796	19.63
330.009	11.43
330.222	66.73
330.435	25.77
330.648	66.73
330.861	-9.05
331.073	21.67
331.286	17.58
331.499	13.48
331.712	-41.81
331.925	54.44
332.138	83.11
332.35	60.59
332.563	-64.34
332.776	85.16
332.989	-21.33
333.202	-23.38
333.414	-4.95
333.627	79.02
333.84	38.06
334.053	-23.38
334.265	50.35
334.478	9.39
334.691	72.87
334.903	9.39
335.116	3.24
335.329	-60.24
335.541	76.97
335.754	103.59
335.966	50.35
336.179	36.01
336.392	-99.16
336.604	-62.29
336.817	19.63
337.029	-13.14
337.242	1.19
337.454	46.25
337.667	21.67
337.88	40.11
338.092	58.54
338.305	74.92
338.517	38.06
338.729	36.01
338.942	-64.34
339.154	9.39
339.367	5.29
339.579	15.53
339.792	52.39
340.004	58.54
340.217	31.91
340.429	-7
340.641	-0.85
340.854	-35.67
341.066	-15.19
341.278	99.5
341.491	138.41
341.703	-7
341.915	54.44
342.128	-11.09
342.34	76.97
342.552	-37.72
342.764	38.06
342.977	-19.29
343.189	11.43
343.401	-17.24
343.613	-35.67
343.826	9.39
344.038	25.77
344.25	-39.76
344.462	5.29
344.674	66.73
344.886	19.63
345.099	-21.33
345.311	31.91
345.523	-7
345.735	5.29
345.947	54.44
346.159	-31.57
346.371	52.39
346.583	27.82
346.795	107.69
347.007	33.96
347.219	42.15
347.431	-9.05
347.643	66.73
347.855	-50
348.067	107.69
348.279	-7
348.491	-19.29
348.703	-13.14
348.915	87.21
349.127	-33.62
349.339	79.02
349.551	15.53
349.763	-7
349.975	15.53
350.187	33.96
350.399	-39.76
350.61	11.43
350.822	11.43
351.034	54.44
351.246	-31.57
351.458	70.83
351.669	68.78
351.881	21.67
352.093	33.96
352.305	66.73
352.517	-41.81
352.728	36.01
352.94	3.24
353.152	-19.29
353.363	42.15
353.575	33.96
353.787	54.44
353.999	-15.19
354.21	56.49
354.422	-19.29
354.633	7.34
354.845	-4.95
355.057	19.63
355.268	1.19
355.48	95.4
355.692	-43.86
355.903	-43.86
356.115	-33.62
356.326	27.82
356.538	74.92
356.749	68.78
356.961	36.01
357.172	-37.72
357.384	68.78
357.595	89.26
357.807	-45.91
358.018	-7
358.23	-60.24
358.441	74.92
358.653	107.69
358.864	33.96
359.075	-23.38
359.287	74.92
359.498	76.97
359.709	99.5
359.921	79.02
360.132	-37.72
360.344	11.43
360.555	-4.95
360.766	-4.95
360.977	17.58
361.189	-11.09
361.4	1.19
361.611	83.11
361.823	38.06
362.034	-27.48
362.245	-66.39
362.456	19.63
362.667	-4.95
362.879	13.48
363.09	-64.34
363.301	36.01
363.512	70.83
363.723	-60.24
363.935	33.96
364.146	52.39
364.357	21.67
364.568	40.11
364.779	-95.06
364.99	7.34
365.201	-41.81
365.412	68.78
365.623	1.19
365.834	42.15
366.045	-13.14
366.256	3.24
366.467	33.96
366.678	23.72
366.889	27.82
367.1	-17.24
367.311	44.2
367.522	60.59
367.733	91.31
367.944	-11.09
368.155	-21.33
368.366	3.24
368.577	21.67
368.788	74.92
368.999	-9.05
369.209	9.39
369.42	70.83
369.631	109.74
369.842	13.48
370.053	33.96
370.264	13.48
370.474	17.58
370.685	44.2
370.896	-23.38
371.107	50.35
371.317	44.2
371.528	27.82
371.739	130.22
371.95	31.91
372.16	-0.85
372.371	-60.24
372.582	9.39
372.792	72.87
373.003	36.01
373.214	-11.09
373.424	89.26
373.635	-7
373.846	109.74
374.056	17.58
374.267	54.44
374.477	-25.43
374.688	-52.05
374.898	48.3
375.109	60.59
375.319	27.82
375.53	72.87
375.74	-41.81
375.951	-27.48
376.161	25.77
376.372	93.35
376.582	-47.96
376.793	74.92
377.003	-7
377.214	-7
377.424	31.91
377.635	-78.68
377.845	-15.19
378.055	150.7
378.266	-11.09
378.476	93.35
378.686	17.58
378.897	152.74
379.107	81.07
379.317	44.2
379.528	-21.33
379.738	85.16
379.948	-45.91
380.158	52.39
380.369	5.29
380.579	-43.86
380.789	-23.38
380.999	62.63
381.21	83.11
381.42	50.35
381.63	-60.24
381.84	62.63
382.05	91.31
382.261	-19.29
382.471	72.87
382.681	9.39
382.891	117.93
383.101	15.53
383.311	-11.09
383.521	-15.19
383.731	95.4
383.941	76.97
384.151	-17.24
384.361	31.91
384.571	-17.24
384.781	21.67
384.991	54.44
385.201	205.99
385.411	54.44
385.621	46.25
385.831	21.67
386.041	33.96
386.251	68.78
386.461	-2.9
386.671	-47.96
386.881	70.83
387.091	-13.14
387.301	44.2
387.511	52.39
387.72	99.5
387.93	-11.09
388.14	-37.72
388.35	36.01
388.56	7.34
388.769	-7
388.979	-29.52
389.189	-43.86
389.399	58.54
389.609	-21.33
389.818	56.49
390.028	36.01
390.238	1.19
390.447	-45.91
390.657	107.69
390.867	103.59
391.076	-23.38
391.286	-29.52
391.496	52.39
391.705	38.06
391.915	126.12
392.125	99.5
392.334	83.11
392.544	62.63
392.753	-13.14
392.963	15.53
393.172	-58.2
393.382	15.53
393.591	91.31
393.801	3.24
394.01	99.5
394.22	48.3
394.429	66.73
394.639	-9.05
394.848	1.19
395.058	29.87
395.267	56.49
395.477	54.44
395.686	13.48
395.895	115.88
396.105	101.55
396.314	19.63
396.524	9.39
396.733	122.02
396.942	134.31
397.152	21.67
397.361	72.87
397.57	23.72
397.78	70.83
397.989	62.63
398.198	91.31
398.407	44.2
398.617	64.68
398.826	66.73
399.035	46.25
399.244	132.26
399.453	7.34
399.663	68.78
399.872	64.68
400.081	1.19
400.29	31.91
400.499	-52.05
400.708	119.98
400.917	50.35
401.127	50.35
401.336	31.91
401.545	68.78
401.754	44.2
401.963	95.4
402.172	91.31
402.381	-39.76
402.59	-37.72
402.799	103.59
403.008	56.49
403.217	5.29
403.426	52.39
403.635	109.74
403.844	27.82
404.053	25.77
404.262	111.78
404.471	165.03
404.68	79.02
404.888	165.03
405.097	58.54
405.306	132.26
405.515	220.33
405.724	72.87
405.933	156.84
406.142	165.03
406.35	191.66
406.559	167.08
406.768	50.35
406.977	162.98
407.185	93.35
407.394	158.89
407.603	79.02
407.812	177.32
408.02	222.38
408.229	132.26
408.438	197.8
408.646	105.64
408.855	140.46
409.064	169.13
409.272	134.31
409.481	257.19
409.69	181.42
409.898	171.18
410.107	269.48
410.315	249
410.524	154.79
410.733	234.66
410.941	134.31
411.15	289.96
411.358	312.49
411.567	283.81
411.775	322.73
411.984	253.09
412.192	343.21
412.401	304.29
412.609	392.36
412.818	461.99
413.026	296.1
413.234	330.92
413.443	351.4
413.651	306.34
413.86	382.12
414.068	427.17
414.276	408.74
414.485	390.31
414.693	572.58
414.901	515.23
415.11	558.24
415.318	437.41
415.526	496.8
415.734	568.48
415.943	470.18
416.151	634.02
416.359	666.78
416.567	515.23
416.776	615.59
416.984	672.93
417.192	699.55
417.4	730.27
417.608	709.79
417.817	636.06
418.025	826.53
418.233	849.05
418.441	734.37
418.649	820.38
418.857	879.77
419.065	849.05
419.273	959.64
419.481	920.73
419.689	1066.14
419.897	1090.71
420.105	1059.99
420.313	1123.48
420.521	1182.87
420.729	1178.78
420.937	1193.11
421.145	1275.03
421.353	1344.66
421.561	1363.09
421.769	1332.37
421.977	1379.48
422.185	1485.97
422.393	1553.55
422.601	1557.65
422.809	1625.23
423.017	1670.29
423.224	1754.26
423.432	1744.02
423.64	1803.41
423.848	2008.2
424.056	1916.05
424.263	2045.07
424.471	2122.89
424.679	2137.23
424.887	2022.54
425.094	2247.82
425.302	2208.9
425.51	2188.43
425.718	2534.53
425.925	2466.95
426.133	2487.43
426.341	2841.73
426.548	2862.21
426.756	2708.61
426.964	2880.64
427.171	3009.66
427.379	3118.2
427.586	3097.72
427.794	3279.99
428.001	3433.59
428.209	3566.71
428.417	3452.02
428.624	3683.44
428.832	3734.64
429.039	3785.84
429.247	3658.87
429.454	3959.92
429.662	4277.35
429.869	4056.17
430.076	4484.2
430.284	4387.94
430.491	4523.11
430.699	4639.84
430.906	4635.75
431.114	4863.07
431.321	4926.56
431.528	5076.06
431.736	5336.15
431.943	5559.38
432.15	5481.56
432.358	5489.75
432.565	5848.15
432.772	5551.19
432.979	6081.61
433.187	6061.13
433.394	6218.83
433.601	6669.38
433.808	6726.72
434.016	6636.61
434.223	6941.76
434.43	7482.42
434.637	7179.33
434.844	7679.03
435.052	7951.41
435.259	7746.61
435.466	7922.74
435.673	7756.85
435.88	8410.15
436.087	8619.05
436.294	8619.05
436.501	8498.22
436.708	8582.18
436.915	9024.54
437.122	9286.68
437.329	9040.93
437.537	9597.98
437.743	9716.76
437.95	9823.25
438.157	10052.63
438.364	10474.51
438.571	10478.6
438.778	10660.87
438.985	11578.36
439.192	11076.61
439.399	11584.51
439.606	11252.73
439.813	12051.44
440.02	12624.87
440.227	12332.01
440.433	12342.25
440.64	12594.15
440.847	12659.69
441.054	13134.82
441.261	13767.64
441.467	13489.12
441.674	13853.66
441.881	14281.68
442.088	14332.88
442.294	14300.11
442.501	14711.75
442.708	14894.02
442.914	15600.57
443.121	16245.68
443.328	15991.73
443.534	17073.06
443.741	16430
443.948	15965.11
444.154	17537.95
444.361	17374.11
444.568	17556.38
444.774	17335.2
444.981	17449.89
445.187	18396.05
445.394	18850.7
445.6	18750.35
445.807	20708.21
446.013	19483.52
446.22	19936.12
446.426	20829.04
446.633	20804.46
446.839	21850.97
447.046	20747.12
447.252	21703.52
447.459	22014.81
447.665	22002.52
447.871	22758.22
448.078	23841.6
448.284	22489.94
448.491	23542.6
448.697	24281.91
448.903	24683.31
449.11	24855.34
449.316	24345.4
449.522	24873.78
449.728	25709.35
449.935	25840.42
450.141	25875.23
450.347	26393.37
450.553	25422.63
450.76	26051.36
450.966	26995.47
451.172	26413.85
451.378	26979.09
451.584	26762
451.791	27534.09
451.997	27224.84
452.203	27577.09
452.409	27851.52
452.615	27583.24
452.821	26376.98
453.027	26223.39
453.233	27861.76
453.44	26815.25
453.646	26891.02
453.852	27292.43
454.058	27509.51
454.264	26465.05
454.47	27255.56
454.676	26741.52
454.882	27185.93
455.088	24896.3
455.294	25631.52
455.5	26129.18
455.705	26020.64
455.911	25174.83
456.117	24865.58
456.323	24146.75
456.529	23296.84
456.735	24212.28
456.941	23366.47
457.147	23081.8
457.352	22342.49
457.558	22174.55
457.764	22260.57
457.97	21627.74
458.176	21283.69
458.381	21056.36
458.587	20237.17
458.793	20001.66
458.999	19110.79
459.204	20437.87
459.41	19956.6
459.616	18703.25
459.821	18758.54
460.027	18723.72
460.233	18224.02
460.438	17236.9
460.644	17380.26
460.85	16870.31
461.055	16423.86
461.261	16393.14
461.466	15150.02
461.672	14595.02
461.878	15733.69
462.083	14617.55
462.289	14390.22
462.494	14166.99
462.7	13700.06
462.905	13290.46
463.111	14101.46
463.316	13929.43
463.522	13480.92
463.727	13505.5
463.932	13460.45
464.138	13362.14
464.343	13323.23
464.549	13054.95
464.754	13446.11
464.959	13351.9
465.165	13196.26
465.37	12692.46
465.575	12499.95
465.781	12862.44
465.986	13145.06
466.191	12444.65
466.397	12114.93
466.602	11375.61
466.807	12047.35
467.012	11996.15
467.218	11955.19
467.423	11811.83
467.628	11916.28
467.833	12329.97
468.038	12139.51
468.244	11500.54
468.449	12045.3
468.654	11754.49
468.859	11490.3
469.064	11326.46
469.269	11222.02
469.474	11244.54
469.679	11183.1
469.885	11049.99
470.09	11097.09
470.295	11080.71
470.5	10929.16
470.705	10904.58
470.91	10726.41
471.115	10693.64
471.32	10701.83
471.525	10863.62
471.73	10589.19
471.935	10431.5
472.139	10105.87
472.344	10259.47
472.549	10087.44
472.754	10116.11
472.959	9741.33
473.164	9618.46
473.369	9395.23
473.574	9888.79
473.778	9620.5
473.983	9497.63
474.188	9413.66
474.393	9118.75
474.598	9278.49
474.802	9077.79
475.007	8969.25
475.212	9112.61
475.417	8692.77
475.621	8698.92
475.826	8780.84
476.031	8547.37
476.235	8494.12
476.44	8557.61
476.645	8465.45
476.849	8342.57
477.054	8207.41
477.259	8229.93
477.463	8277.04
477.668	7851.06
477.872	8096.82
478.077	7853.11
478.282	7822.39
478.486	7638.07
478.691	7758.9
478.895	7623.73
479.1	7660.6
479.304	7513.14
479.509	7402.55
479.713	7656.5
479.918	7365.69
480.122	7242.81
480.326	7257.15
480.531	7271.48
480.735	7222.33
480.94	7048.26
481.144	7468.09
481.348	7066.69
481.553	7117.89
481.757	7040.06
481.961	7068.73
482.166	7076.93
482.37	6947.9
482.574	6943.81
482.778	7046.21
482.983	6952
483.187	6968.38
483.391	7171.13
483.595	7027.78
483.8	6904.9
484.004	7054.4
484.208	6982.72
484.412	6968.38
484.616	7089.21
484.821	6995.01
485.025	6841.41
485.229	6927.42
485.433	6790.21
485.637	7111.74
485.841	6759.49
486.045	6863.94
486.249	6925.38
486.453	6790.21
486.657	7099.45
486.861	6712.39
487.065	6919.23
487.269	6915.14
487.473	6788.16
487.677	7062.59
487.881	7234.62
488.085	6919.23
488.289	6956.1
488.493	7097.41
488.697	7031.87
488.901	6976.58
489.105	6964.29
489.309	7107.65
489.512	7121.98
489.716	7330.87
489.92	7101.5
490.124	7091.26
490.328	7140.41
490.531	7046.21
490.735	7316.54
490.939	7253.05
491.143	7150.65
491.346	7222.33
491.55	7382.07
491.754	7210.04
491.958	7396.41
492.161	7246.91
492.365	7337.02
492.569	7312.44
492.772	7494.71
492.976	7480.38
493.18	7427.13
493.383	7566.39
493.587	7775.28
493.79	7752.76
493.994	7488.57
494.197	7785.52
494.401	7947.31
494.605	7875.63
494.808	7754.8
495.012	7969.84
495.215	8066.1
495.419	8002.61
495.622	7844.91
495.825	8156.21
496.029	8195.12
496.232	8262.7
496.436	8272.94
496.639	8432.68
496.843	8381.48
497.046	8516.65
497.249	8754.21
497.453	8735.78
497.656	8834.08
497.859	8819.75
498.063	8985.63
498.266	9204.77
498.469	9022.5
498.673	9024.54
498.876	9274.4
499.079	9325.6
499.282	9452.57
499.485	9675.8
499.689	9538.59
499.892	9655.32
500.095	9966.61
500.298	9913.36
500.501	9982.99
500.705	10331.15
500.908	10282
501.111	10576.91
501.314	10464.27
501.517	10785.8
501.72	10992.64
501.923	10671.11
502.126	10914.82
502.329	11140.1
502.532	11234.3
502.735	11265.02
502.938	11578.36
503.141	11488.25
503.344	11944.95
503.547	11826.17
503.75	11981.81
503.953	12004.34
504.156	12254.19
504.359	12286.96
504.562	12502
504.765	12577.77
504.968	12743.66
505.17	12923.88
505.373	13046.76
505.576	13210.59
505.779	13482.97
505.982	13298.66
506.185	13564.89
506.387	13640.67
506.59	13681.63
506.793	14109.65
506.996	13943.77
507.198	14447.57
507.401	14363.6
507.604	14517.2
507.807	14832.58
508.009	14609.36
508.212	14904.26
508.415	15403.97
508.617	15422.4
508.82	15408.06
509.022	15524.8
509.225	15979.45
509.428	15844.28
509.63	15893.43
509.833	16241.59
510.035	16679.85
510.238	16331.7
510.44	16663.47
510.643	16976.81
510.845	17140.65
511.048	16919.46
511.25	17286.05
511.453	17392.55
511.655	18269.08
511.858	17806.23
512.06	18078.61
512.262	18082.71
512.465	18252.69
512.667	18719.63
512.87	18867.08
513.072	18631.57
513.274	19110.79
513.477	18965.39
513.679	19522.43
513.881	19694.46
514.084	19749.76
514.286	20061.05
514.488	20093.82
514.69	20478.83
514.893	20478.83
515.095	20710.25
515.297	21031.79
515.499	21064.55
515.701	21318.5
515.904	21545.83
516.106	21662.56
516.308	21554.02
516.51	22180.7
516.712	22041.43
516.914	22496.08
517.116	22733.65
517.318	23038.8
517.52	23106.38
517.722	23089.99
517.925	23653.19
518.127	23636.8
518.329	23960.38
518.531	23558.98
518.733	24396.6
518.935	24687.41
519.136	24658.74
519.338	24754.99
519.54	24914.73
519.742	25365.29
519.944	25500.45
520.146	25510.69
520.348	25908
520.55	26039.07
520.752	26264.35
520.954	26524.44
521.155	26553.11
521.357	26848.02
521.559	26983.18
521.761	27325.19
521.963	27648.77
522.164	27546.37
522.366	27759.36
522.568	27974.4
522.77	28021.5
522.971	28676.85
523.173	28156.67
523.375	28982
523.576	28631.8
523.778	28867.31
523.98	29481.7
524.181	29790.95
524.383	29358.83
524.584	29688.55
524.786	30130.91
524.988	29821.67
525.189	30139.1
525.391	30358.24
525.592	30847.7
525.794	30978.77
525.995	30792.4
526.197	30712.53
526.398	31109.84
526.6	31587.02
526.801	31517.39
527.003	31607.5
527.204	31494.86
527.406	31728.33
527.607	31947.46
527.808	32365.24
528.01	31763.14
528.211	32086.72
528.412	32946.87
528.614	32719.54
528.815	32367.29
529.016	32869.05
529.218	32572.09
529.419	32928.44
529.62	32852.66
529.822	33014.45
530.023	33125.04
530.224	33106.61
530.425	33190.58
530.626	32883.38
530.828	33188.53
531.029	33874.6
531.23	33372.85
531.431	33362.61
531.632	33491.63
531.833	33880.74
532.035	33708.71
532.236	33938.08
532.437	33927.84
532.638	33725.1
532.839	34011.81
533.04	34456.22
533.241	33907.37
533.442	34470.56
533.643	34222.75
533.844	33938.08
534.045	34599.58
534.246	34048.68
534.447	34472.6
534.648	34257.57
534.849	34355.87
535.05	34341.53
535.251	34439.84
535.451	34286.24
535.652	34632.35
535.853	34435.74
536.054	34351.77
536.255	34534.04
536.456	34362.01
536.657	34595.48
536.857	34701.98
537.058	34038.44
537.259	34417.31
537.46	34687.64
537.66	34411.17
537.861	34519.71
538.062	34429.6
538.263	34818.71
538.463	34503.32
538.664	34593.43
538.865	34527.9
539.065	34679.45
539.266	34278.05
539.466	34826.9
539.667	34329.25
539.868	34896.53
540.068	34452.12
540.269	34319.01
540.469	34638.49
540.67	34712.22
540.87	34441.89
541.071	34529.95
541.271	34540.19
541.472	34470.56
541.672	34142.88
541.873	34474.65
542.073	34075.3
542.274	34562.72
542.474	34704.03
542.675	34052.77
542.875	34826.9
543.075	34198.18
543.276	34050.72
543.476	34763.42
543.676	34165.41
543.877	34341.53
544.077	34583.19
544.277	34933.4
544.478	34544.28
544.678	34824.86
544.878	34513.56
545.078	34316.96
545.279	34175.65
545.479	34427.55
545.679	34302.62
545.879	34390.69
546.079	34151.07
546.28	34108.07
546.48	34036.39
546.68	34362.01
546.88	34228.9
547.08	34415.26
547.28	34284.19
547.48	34007.72
547.68	34310.82
547.88	33880.74
548.081	34550.43
548.281	34230.94
548.481	33952.42
548.681	34319.01
548.881	34167.46
549.081	34091.68
549.28	33940.13
549.48	34488.99
549.68	34419.36
549.88	34554.52
550.08	33983.14
550.28	34185.89
550.48	34052.77
550.68	34396.83
550.88	33944.23
551.08	34058.91
551.279	34116.26
551.479	33665.7
551.679	34452.12
551.879	33854.12
552.079	33991.33
552.278	33923.75
552.478	34071.2
552.678	33829.54
552.878	34204.32
553.077	33753.77
553.277	33755.82
553.477	34355.87
553.676	33741.48
553.876	33831.59
554.076	33460.91
554.275	33489.58
554.475	33264.3
554.674	33704.62
554.874	33755.82
555.074	33694.38
555.273	33890.98
555.473	33632.94
555.672	33249.97
555.872	33419.95
556.071	33514.16
556.271	33596.07
556.47	33452.72
556.67	33209.01
556.869	33237.68
557.068	33505.96
557.268	32907.96
557.467	33168.05
557.667	33290.93
557.866	33163.95
558.065	33141.42
558.265	33008.31
558.464	32897.72
558.663	33206.96
558.863	32586.43
559.062	33372.85
559.261	32707.26
559.461	33147.57
559.66	32553.66
559.859	32819.89
560.058	32273.09
560.258	32926.39
560.457	32524.99
560.656	32760.5
560.855	32287.42
561.054	32410.3
561.253	32182.98
561.453	32393.92
561.652	32318.14
561.851	32252.61
562.05	31699.65
562.249	31716.04
562.448	32109.25
562.647	31828.68
562.846	31959.75
563.045	31943.36
563.244	31609.54
563.443	32012.99
563.642	31355.6
563.841	31271.63
564.04	31347.4
564.239	31591.11
564.438	31468.23
564.637	31584.97
564.836	31296.21
565.035	31230.67
565.234	30937.81
565.432	30632.66
565.631	30761.69
565.83	30892.76
566.029	30683.86
566.228	30603.99
566.427	30700.25
566.625	30589.66
566.824	29979.36
567.023	30452.44
567.222	29768.42
567.42	30569.18
567.619	30124.77
567.818	30165.73
568.016	29821.67
568.215	30141.15
568.414	29991.65
568.612	30448.35
568.811	29668.07
569.01	29858.53
569.208	29307.63
569.407	29551.34
569.605	29469.42
569.804	29238
570.002	28830.45
570.201	29428.46
570.4	29221.61
570.598	28494.58
570.797	28809.97
570.995	29057.78
571.193	28478.2
571.392	28805.88
571.59	28705.52
571.789	28424.95
571.987	28267.26
572.186	28472.06
572.384	28097.28
572.582	28359.42
572.781	28240.64
572.979	27656.96
573.177	27976.45
573.376	27802.37
573.574	27724.55
573.772	28084.99
573.971	28062.46
574.169	27560.71
574.367	26927.89
574.565	27822.85
574.763	27396.87
574.962	27204.36
575.16	26848.02
575.358	27362.06
575.556	26774.29
575.754	27415.3
575.952	26825.49
576.151	27028.24
576.349	26710.8
576.547	26659.6
576.745	26870.54
576.943	26626.84
577.141	26557.21
577.339	26422.04
577.537	26407.7
577.735	26307.35
577.933	26010.4
578.131	26286.87
578.329	25987.87
578.527	26077.98
578.725	25805.6
578.923	25830.18
579.121	25908
579.319	25656.1
579.516	25762.59
579.714	25805.6
579.912	25643.81
580.11	25598.76
580.308	25475.88
580.506	25373.48
580.704	25174.83
580.901	25363.24
581.099	25330.47
581.297	24967.98
581.495	25226.03
581.692	24798
581.89	24787.76
582.088	25008.94
582.285	24539.96
582.483	24873.78
582.681	24591.16
582.878	24640.31
583.076	24499
583.274	24392.5
583.471	24380.21
583.669	24091.45
583.866	23837.5
584.064	24150.84
584.262	23692.1
584.459	24165.18
584.657	24140.6
584.854	24038.2
585.052	24032.06
585.249	23827.26
585.447	23724.86
585.644	23038.8
585.841	23530.31
586.039	23583.55
586.236	23429.96
586.434	23399.24
586.631	23329.61
586.828	23124.81
587.026	23098.19
587.223	22891.34
587.42	22868.81
587.618	22938.44
587.815	22498.13
588.012	22823.76
588.21	22897.49
588.407	23053.13
588.604	22686.54
588.801	22393.68
588.999	22524.75
589.196	22346.58
589.393	22240.09
589.59	22035.29
589.787	22025.05
589.984	22039.39
590.182	21855.07
590.379	22057.82
590.576	22233.94
590.773	22092.63
590.97	21816.16
591.167	21893.98
591.364	21488.48
591.561	21494.63
591.758	21472.1
591.955	21566.31
592.152	21607.26
592.349	21480.29
592.546	21185.38
592.743	21212.01
592.94	20945.77
593.137	21433.19
593.334	21062.51
593.531	20874.09
593.727	21005.16
593.924	20730.73
594.121	20833.13
594.318	20849.52
594.515	20591.47
594.712	20882.28
594.908	20849.52
595.105	20677.49
595.302	20294.52
595.499	20366.2
595.696	20489.07
595.892	20102.01
596.089	20493.17
596.286	20075.38
596.482	20228.98
596.679	20290.42
596.876	20194.17
597.072	20167.54
597.269	19790.72
597.466	19678.08
597.662	19598.21
597.859	19729.28
598.055	19481.47
598.252	19661.69
598.448	19553.15
598.645	19448.71
598.841	19221.38
599.038	19532.67
599.234	19383.17
599.431	18975.63
599.627	18961.29
599.824	19239.81
600.02	18924.43
600.217	19291.01
600.413	18959.24
600.609	19035.02
600.806	18842.51
601.002	19047.3
601.198	18498.45
601.395	18707.34
601.591	18541.46
601.787	18594.7
601.984	18437.01
602.18	18719.63
602.376	18381.71
602.572	18555.79
602.769	18404.24
602.965	17994.65
603.161	17994.65
603.357	18027.42
603.553	18101.14
603.75	18344.85
603.946	17884.06
604.142	18195.35
604.338	17499.04
604.534	17902.49
604.73	17640.35
604.926	17515.42
605.122	17949.59
605.318	17359.78
605.514	17316.77
605.71	17472.42
605.906	17490.85
606.102	17365.92
606.298	17488.8
606.494	17265.57
606.69	17331.11
606.886	17181.6
607.082	17185.7
607.278	17327.01
607.474	17028.01
607.67	17114.02
607.866	16716.72
608.062	17060.77
608.257	16917.42
608.453	16903.08
608.649	16817.07
608.845	16634.8
609.041	16808.87
609.236	16866.22
609.432	16767.91
609.628	16733.1
609.824	16638.89
610.019	16538.54
610.215	16337.84
610.411	16554.93
610.606	16391.09
610.802	16608.17
610.998	16290.74
611.193	16346.03
611.389	16155.57
611.584	16346.03
611.78	16004.02
611.976	16016.31
612.171	16245.68
612.367	16044.98
612.562	16059.32
612.758	16049.08
612.953	15913.91
613.149	16227.25
613.344	15954.87
613.539	16057.27
613.735	15838.14
613.93	15612.86
614.126	15860.66
614.321	15901.62
614.517	15672.25
614.712	15827.9
614.907	15573.95
615.103	15666.11
615.298	15582.14
615.493	15637.44
615.688	15453.12
615.884	15854.52
616.079	15324.1
616.274	15446.97
616.47	15049.67
616.665	15647.68
616.86	15336.38
617.055	15291.33
617.25	15385.54
617.445	15506.37
617.641	15074.24
617.836	15203.27
618.031	14943.17
618.226	15274.95
618.421	14754.76
618.616	15193.03
618.811	14767.05
619.006	14994.37
619.201	14662.6
619.396	14779.34
619.591	14584.78
619.786	14724.04
619.981	14515.15
620.176	14721.99
620.371	14525.39
620.566	14502.86
620.761	14359.5
620.956	14314.45
621.151	13974.49
621.346	14199.76
621.541	14025.68
621.735	14281.68
621.93	13861.85
622.125	13831.13
622.32	13607.9
622.515	13927.38
622.709	13853.66
622.904	13609.95
623.099	13609.95
623.294	13497.31
623.488	13296.61
623.683	13349.85
623.878	13405.15
624.072	13337.57
624.267	13319.14
624.462	12995.56
624.656	13169.63
624.851	12903.4
625.046	12805.1
625.24	12801
625.435	13040.61
625.629	12776.42
625.824	12710.89
626.018	12809.19
626.213	12348.4
626.407	12329.97
626.602	12264.43
626.796	12545
626.991	12356.59
627.185	12157.94
627.38	12200.94
627.574	12104.69
627.768	12172.27
627.963	12053.49
628.157	11860.98
628.352	11994.1
628.546	11506.68
628.74	11531.26
628.935	11703.29
629.129	11506.68
629.323	11494.4
629.517	11473.92
629.712	11414.52
629.906	11258.88
630.1	11258.88
630.294	11273.21
630.489	11123.71
630.683	11136
630.877	10972.16
631.071	11146.24
631.265	10896.39
631.459	10841.09
631.653	10693.64
631.848	10599.43
632.042	10646.54
632.236	10609.67
632.43	10617.86
632.624	10513.42
632.818	10656.78
633.012	10494.99
633.206	10245.13
633.4	10277.9
633.594	10198.03
633.788	10265.61
633.982	10243.09
634.176	10087.44
634.369	9946.13
634.563	10046.48
634.757	10015.76
634.951	9933.84
635.145	9860.12
635.339	9798.68
635.533	9597.98
635.726	9907.22
635.92	9688.09
636.114	9550.87
636.308	9600.02
636.501	9479.19
636.695	9446.43
636.889	9317.4
637.083	9172
637.276	9194.53
637.47	9329.69
637.664	9227.29
637.857	9124.9
638.051	9079.84
638.244	9090.08
638.438	8870.95
638.632	8827.94
638.825	8573.99
639.019	8770.6
639.212	8922.15
639.406	8725.54
639.599	8612.9
639.793	8737.83
639.986	8385.58
640.18	8608.81
640.373	8627.24
640.567	8291.37
640.76	8494.12
640.954	8401.96
641.147	8262.7
641.34	8152.11
641.534	8432.68
641.727	8141.87
641.92	8315.95
642.114	8064.05
642.307	8080.43
642.5	7914.55
642.694	7889.97
642.887	7881.78
643.08	7799.86
643.273	7918.64
643.467	7734.32
643.66	7763
643.853	7746.61
644.046	7582.77
644.239	7595.06
644.432	7734.32
644.626	7601.21
644.819	7416.89
645.012	7519.29
645.205	7291.96
645.398	7304.25
645.591	7382.07
645.784	7259.2
645.977	7277.63
646.17	7296.06
646.363	7113.79
646.556	7281.72
646.749	6986.82
646.942	7193.66
647.135	7203.9
647.328	7126.08
647.521	6915.14
647.714	7035.97
647.907	7081.02
648.099	6808.64
648.292	6876.23
648.485	6796.35
648.678	6620.23
648.871	6677.57
649.064	6810.69
649.256	6716.48
649.449	6720.58
649.642	6661.19
649.835	6530.12
650.027	6599.75
650.22	6460.49
650.413	6421.58
650.605	6372.43
650.798	6546.5
650.991	6317.13
651.183	6329.42
651.376	6446.15
651.568	6263.88
651.761	6161.48
651.954	6208.59
652.146	6073.42
652.339	6083.66
652.531	6057.04
652.724	6042.7
652.916	5944.4
653.109	6042.7
653.301	5854.29
653.494	6036.56
653.686	5887.06
653.879	6054.99
654.071	5893.2
654.263	5798.99
654.456	5612.63
654.648	5952.59
654.84	5702.74
655.033	5624.92
655.225	5813.33
655.417	5581.91
655.61	5616.72
655.802	5737.56
655.994	5645.4
656.186	5491.8
656.379	5387.35
656.571	5635.16
656.763	5553.24
656.955	5311.58
657.148	5575.77
657.34	5540.95
657.532	5274.71
657.724	5536.85
657.916	5362.78
658.108	5260.38
658.3	5235.8
658.492	5338.2
658.684	5358.68
658.876	5145.69
659.068	5203.04
659.26	5184.6
659.452	5215.32
659.644	5139.55
659.836	5123.16
660.028	5057.63
660.22	4998.24
660.412	5016.67
660.604	5088.35
660.796	4953.18
660.988	5028.96
661.18	4957.28
661.372	4789.35
661.563	4990.05
661.755	4858.98
661.947	4809.83
662.139	4721.76
662.331	4863.07
662.522	4897.89
662.714	4740.19
662.906	4682.85
663.097	4732
663.289	4629.6
663.481	4607.08
663.673	4637.8
663.864	4746.34
664.056	4629.6
664.247	4691.04
664.439	4527.21
664.631	4494.44
664.822	4656.23
665.014	4670.56
665.205	4564.07
665.397	4480.1
665.588	4559.97
665.78	4449.38
665.971	4510.82
666.163	4512.87
666.354	4562.02
666.546	4332.65
666.737	4451.43
666.929	4394.09
667.12	4459.62
667.311	4283.5
667.503	4220.01
667.694	4299.88
667.885	4351.08
668.077	4392.04
668.268	4105.32
668.459	4177
668.651	4170.86
668.842	4213.87
669.033	4148.33
669.224	4125.8
669.416	4373.61
669.607	4230.25
669.798	4134
669.989	4166.76
670.18	4242.54
670.371	4158.57
670.563	4125.8
670.754	3957.87
670.945	4183.15
671.136	4142.19
671.327	3961.97
671.518	4035.69
671.709	4185.19
671.9	4263.02
672.091	4136.04
672.282	4127.85
672.473	4142.19
672.664	4039.79
672.855	4193.39
673.046	4136.04
673.237	4095.08
673.428	3959.92
673.619	3982.45
673.809	3996.78
674	4056.17
674.191	3966.06
674.382	3959.92
674.573	3912.81
674.764	3884.14
674.954	4054.12
675.145	3980.4
675.336	3830.9
675.527	3861.62
675.717	3955.82
675.908	3978.35
676.099	3841.14
676.289	4011.12
676.48	3943.53
676.671	3841.14
676.861	3882.1
677.052	3947.63
677.243	3888.24
677.433	3769.46
677.624	3966.06
677.814	4031.6
678.005	3976.3
678.195	3966.06
678.386	3900.53
678.576	3912.81
678.767	4017.26
678.957	4019.31
679.148	3802.22
679.338	4043.88
679.529	3880.05
679.719	3814.51
679.909	3949.68
680.1	3992.69
680.29	4023.41
680.481	3923.05
680.671	3955.82
680.861	3857.52
681.052	4023.41
681.242	4084.84
681.432	4039.79
681.622	3935.34
681.813	3964.01
682.003	3923.05
682.193	3837.04
682.383	3847.28
682.573	4054.12
682.764	3878
682.954	4052.08
683.144	4082.8
683.334	3943.53
683.524	4066.41
683.714	3869.81
683.904	3966.06
684.094	3994.73
684.284	3998.83
684.474	4035.69
684.664	3875.95
684.854	3783.79
685.044	3949.68
685.234	3923.05
685.424	3851.38
685.614	3916.91
685.804	3826.8
685.994	3781.74
686.184	3828.85
686.374	3886.19
686.564	3714.16
686.753	3837.04
686.943	3738.74
687.133	3703.92
687.323	3859.57
687.513	3914.86
687.702	3789.94
687.892	3628.15
688.082	3691.63
688.272	3908.72
688.461	3576.95
688.651	3724.4
688.841	3718.26
689.03	3550.32
689.22	3587.19
689.41	3589.24
689.599	3581.04
689.789	3460.21
689.979	3572.85
690.168	3609.72
690.358	3421.3
690.547	3445.88
690.737	3591.28
690.926	3460.21
691.116	3343.48
691.305	3538.04
691.495	3331.19
691.684	3378.3
691.874	3337.34
692.063	3376.25
692.252	3290.23
692.442	3341.43
692.631	3294.33
692.82	3312.76
693.01	3193.98
693.199	3099.77
693.388	3277.94
693.578	3271.8
693.767	3286.14
693.956	3138.68
694.146	3114.11
694.335	3308.66
694.524	3171.45
694.713	3163.26
694.902	3171.45
695.092	3130.49
695.281	3181.69
695.47	3101.82
695.659	3038.33
695.848	3009.66
696.037	3236.99
696.226	3230.84
696.415	3044.48
696.604	3099.77
696.793	3007.61
696.982	2905.21
697.171	3097.72
697.36	3114.11
697.549	3091.58
697.738	3032.19
697.927	2954.37
698.116	2987.13
698.305	2960.51
698.494	3048.57
698.683	2888.83
698.872	3095.68
699.061	3009.66
699.25	3009.66
699.438	2978.94
699.627	3118.2
699.816	2866.3
700.005	2987.13
700.193	2972.8
700.382	3079.29
700.571	3159.16
700.76	3024
700.948	3069.05
701.137	3099.77
701.326	3077.24
701.514	2985.09
701.703	2905.21
701.892	3087.48
702.08	3167.35
702.269	3046.52
702.457	3001.47
702.646	3132.54
702.834	3091.58
703.023	3112.06
703.212	3040.38
703.4	2999.42
703.589	2987.13
703.777	2966.65
703.965	2841.73
704.154	3075.2
704.342	2972.8
704.531	3054.72
704.719	2974.85
704.907	3091.58
705.096	3028.09
705.284	2966.65
705.472	3118.2
705.661	2985.09
705.849	3212.41
706.037	2937.98
706.226	3128.44
706.414	3048.57
706.602	3130.49
706.79	3181.69
706.979	2999.42
707.167	3073.15
707.355	3026.04
707.543	3095.68
707.731	3288.18
707.919	3054.72
708.107	3060.86
708.296	3064.96
708.484	3097.72
708.672	3144.83
708.86	3232.89
709.048	3015.8
709.236	3132.54
709.424	3175.55
709.612	3064.96
709.8	3200.12
709.988	3130.49
710.176	3200.12
710.364	3114.11
710.551	3130.49
710.739	3134.59
710.927	3130.49
711.115	3126.39
711.303	3366.01
711.491	3304.57
711.679	3124.35
711.866	3191.93
712.054	3269.75
712.242	3177.59
712.43	3210.36
712.617	3282.04
712.805	3286.14
712.993	3196.03
713.181	3320.95
713.368	3191.93
713.556	3241.08
713.744	3179.64
713.931	3409.01
714.119	3363.96
714.306	3282.04
714.494	3345.53
714.682	3296.38
714.869	3263.61
715.057	3353.72
715.244	3286.14
715.432	3404.92
715.619	3464.31
715.807	3443.83
715.994	3323
716.182	3298.42
716.369	3368.06
716.556	3511.41
716.744	3429.49
716.931	3421.3
717.119	3462.26
717.306	3445.88
717.493	3476.6
717.681	3392.63
717.868	3454.07
718.055	3495.03
718.242	3441.78
718.43	3531.89
718.617	3556.47
718.804	3392.63
718.991	3449.97
719.179	3447.93
719.366	3492.98
719.553	3488.89
719.74	3353.72
719.927	3599.48
720.114	3507.32
720.301	3445.88
720.488	3523.7
720.676	3562.61
720.863	3531.89
721.05	3638.39
721.237	3607.67
721.424	3609.72
721.611	3599.48
721.798	3425.4
721.985	3499.13
722.172	3574.9
722.358	3552.37
722.545	3540.08
722.732	3550.32
722.919	3566.71
723.106	3695.73
723.293	3656.82
723.48	3560.56
723.667	3525.75
723.853	3597.43
724.04	3591.28
724.227	3601.52
724.414	3607.67
724.6	3626.1
724.787	3859.57
724.974	3648.63
725.161	3626.1
725.347	3593.33
725.534	3710.07
725.72	3693.68
725.907	3660.91
726.094	3734.64
726.28	3542.13
726.467	3683.44
726.653	3685.49
726.84	3673.2
727.027	3839.09
727.213	3685.49
727.4	3787.89
727.586	3634.29
727.773	3660.91
727.959	3746.93
728.145	3818.61
728.332	3787.89
728.518	3677.3
728.705	3744.88
728.891	3671.15
729.077	3662.96
729.264	3818.61
729.45	3751.03
729.636	3804.27
729.823	3701.87
730.009	3761.27
730.195	3837.04
730.382	3660.91
730.568	3785.84
730.754	3720.31
730.94	3712.11
731.126	3841.14
731.313	3882.1
731.499	3761.27
731.685	3800.18
731.871	3757.17
732.057	3796.08
732.243	3785.84
732.429	3837.04
732.615	3859.57
732.801	3941.49
732.987	3923.05
733.173	3820.66
733.359	3828.85
733.545	3832.94
733.731	3732.59
733.917	3890.29
734.103	3894.38
734.289	3902.58
734.475	3763.31
734.661	4066.41
734.847	3820.66
735.033	3757.17
735.219	3685.49
735.404	3824.75
735.59	3834.99
735.776	3714.16
735.962	3941.49
736.148	3736.69
736.333	3785.84
736.519	3753.07
736.705	3785.84
736.89	3722.35
737.076	3871.86
737.262	3769.46
737.447	3712.11
737.633	3783.79
737.819	3740.79
738.004	3810.42
738.19	3806.32
738.375	3751.03
738.561	3753.07
738.747	3882.1
738.932	3681.39
739.118	3759.22
739.303	3734.64
739.489	3802.22
739.674	3722.35
739.859	3538.04
740.045	3687.54
740.23	3761.27
740.416	3712.11
740.601	3613.81
740.786	3544.18
740.972	3581.04
741.157	3753.07
741.342	3757.17
741.528	3638.39
741.713	3705.97
741.898	3503.22
742.084	3617.91
742.269	3566.71
742.454	3560.56
742.639	3585.14
742.824	3419.25
743.01	3605.62
743.195	3556.47
743.38	3449.97
743.565	3437.69
743.75	3415.16
743.935	3523.7
744.12	3544.18
744.305	3169.4
744.49	3511.41
744.675	3269.75
744.86	3368.06
745.045	3239.03
745.23	3497.08
745.415	3331.19
745.6	3503.22
745.785	3257.46
745.97	3331.19
746.155	3277.94
746.34	3292.28
746.525	3171.45
746.71	3282.04
746.895	3179.64
747.079	3200.12
747.264	3105.92
747.449	3212.41
747.634	3105.92
747.819	3075.2
748.003	3114.11
748.188	2913.41
748.373	3189.88
748.557	3046.52
748.742	2997.37
748.927	3081.34
749.111	2985.09
749.296	2987.13
749.481	2987.13
749.665	3148.92
749.85	2806.91
750.034	3009.66
750.219	2862.21
750.404	2724.99
750.588	2870.4
750.773	2831.49
750.957	2765.95
751.141	2757.76
751.326	2901.12
751.51	2661.51
751.695	2833.54
751.879	2772.1
752.064	2800.77
752.248	2700.42
752.432	2774.14
752.617	2731.14
752.801	2665.6
752.985	2563.2
753.17	2686.08
753.354	2557.06
753.538	2409.61
753.722	2636.93
753.907	2579.59
754.091	2475.14
754.275	2438.28
754.459	2512
754.643	2475.14
754.828	2499.72
755.012	2452.61
755.196	2350.21
755.38	2270.34
755.564	2303.11
755.748	2348.17
755.932	2389.13
756.116	2323.59
756.3	2266.25
756.484	2247.82
756.668	2286.73
756.852	2141.32
757.036	2253.96
757.22	2206.86
757.404	2198.67
757.588	2024.59
757.772	2167.95
757.956	2204.81
758.14	2184.33
758.323	2032.78
758.507	2083.98
758.691	2157.71
758.875	2083.98
759.059	2192.52
759.242	1975.44
759.426	1997.96
759.61	2057.36
759.794	1901.71
759.977	1954.96
760.161	2049.16
760.345	2069.64
760.528	2051.21
760.712	1887.37
760.895	1893.52
761.079	1934.48
761.263	1944.72
761.446	1819.79
761.63	1909.9
761.813	1809.55
761.997	1834.13
762.18	1760.4
762.364	1805.46
762.547	1762.45
762.731	1852.56
762.914	1811.6
763.098	1752.21
763.281	1813.65
763.464	1690.77
763.648	1723.54
763.831	1840.27
764.015	1713.3
764.198	1705.1
764.381	1701.01
764.564	1725.58
764.748	1729.68
764.931	1713.3
765.114	1651.86
765.297	1602.71
765.481	1737.87
765.664	1612.95
765.847	1709.2
766.03	1690.77
766.213	1662.1
766.397	1614.99
766.58	1555.6
766.763	1666.19
766.946	1672.34
767.129	1596.56
767.312	1723.54
767.495	1582.23
767.678	1688.72
767.861	1637.52
768.044	1567.89
768.227	1563.79
768.41	1389.72
768.593	1522.84
768.776	1586.32
768.959	1502.36
769.142	1571.99
769.324	1502.36
769.507	1528.98
769.69	1526.93
769.873	1459.35
770.056	1512.6
770.239	1408.15
770.421	1455.25
770.604	1412.25
770.787	1385.62
770.97	1412.25
771.152	1356.95
771.335	1580.18
771.518	1385.62
771.7	1326.23
771.883	1410.2
772.066	1311.89
772.248	1365.14
772.431	1301.65
772.613	1414.29
772.796	1305.75
772.978	1295.51
773.161	1406.1
773.343	1324.18
773.526	1260.7
773.708	1262.74
773.891	1186.97
774.073	1279.13
774.256	1277.08
774.438	1299.61
774.621	1207.45
774.803	1272.98
774.985	1258.65
775.168	1213.59
775.35	1209.5
775.532	1170.58
775.715	1215.64
775.897	1207.45
776.079	1152.15
776.261	1197.21
776.444	1064.09
776.626	1135.77
776.808	1141.91
776.99	1152.15
777.173	1090.71
777.355	1066.14
777.537	1074.33
777.719	1051.8
777.901	1111.19
778.083	1098.91
778.265	951.45
778.447	1100.95
778.629	994.46
778.811	1057.95
778.993	1037.47
779.175	955.55
779.357	1156.25
779.539	930.97
779.721	1090.71
779.903	1010.84
780.085	955.55
780.267	918.68
780.449	971.93
780.631	961.69
780.812	887.97
780.994	920.73
781.176	902.3
781.358	904.35
781.54	771.23
781.721	904.35
781.903	1043.61
782.085	896.16
782.267	928.92
782.448	808.09
782.63	799.9
782.812	918.68
782.993	906.4
783.175	859.29
783.357	816.29
783.538	820.38
783.72	924.83
783.901	748.7
784.083	791.71
784.264	810.14
784.446	715.94
784.627	787.61
784.809	769.18
784.99	742.56
785.172	783.52
785.353	754.85
785.535	701.6
785.716	656.54
785.897	679.07
786.079	638.11
786.26	773.28
786.441	689.31
786.623	689.31
786.804	650.4
786.985	677.02
787.167	662.69
787.348	687.26
787.529	713.89
787.71	709.79
787.891	687.26
788.073	597.15
788.254	636.06
788.435	713.89
788.616	681.12
788.797	607.39
788.978	685.22
789.159	650.4
789.34	601.25
789.522	609.44
789.703	564.39
789.884	582.82
790.065	652.45
790.246	631.97
790.427	498.85
790.607	568.48
790.788	582.82
790.969	595.11
791.15	662.69
791.331	527.52
791.512	550.05
791.693	504.99
791.874	582.82
792.054	722.08
792.235	582.82
792.416	478.37
792.597	488.61
792.778	570.53
792.958	492.71
793.139	492.71
793.32	570.53
793.5	482.47
793.681	545.95
793.862	504.99
794.042	484.52
794.223	484.52
794.404	515.23
794.584	425.12
794.765	451.75
794.945	500.9
795.126	527.52
795.306	466.08
795.487	457.89
795.667	500.9
795.848	439.46
796.028	459.94
796.209	482.47
796.389	496.8
796.57	375.97
796.75	414.88
796.93	416.93
797.111	509.09
797.291	396.45
797.471	457.89
797.652	437.41
797.832	382.12
798.012	484.52
798.192	418.98
798.373	429.22
798.553	369.83
798.733	421.03
798.913	435.36
799.093	445.6
799.274	470.18
799.454	410.79
799.634	316.58
799.814	457.89
799.994	390.31
800.174	312.49
800.354	351.4
800.534	244.9
800.714	316.58
800.894	355.49
801.074	249
801.254	312.49
801.434	332.97
801.614	251.05
801.794	328.87
801.974	1215.64
802.154	320.68
802.334	433.32
802.514	304.29
802.693	347.3
802.873	320.68
803.053	378.02
803.233	375.97
803.413	361.64
803.592	359.59
803.772	289.96
803.952	253.09
804.131	332.97
804.311	353.45
804.491	292.01
804.67	324.77
804.85	246.95
805.03	353.45
805.209	365.73
805.389	337.06
805.568	302.25
805.748	287.91
805.928	353.45
806.107	326.82
806.287	359.59
806.466	271.53
806.646	271.53
806.825	283.81
807.004	265.38
807.184	341.16
807.363	283.81
807.543	255.14
807.722	312.49
807.901	347.3
808.081	253.09
808.26	255.14
808.439	251.05
808.619	285.86
808.798	302.25
808.977	320.68
809.156	226.47
809.336	226.47
809.515	296.1
809.694	326.82
809.873	238.76
810.052	263.33
810.231	224.42
810.411	328.87
810.59	210.09
810.769	222.38
810.948	296.1
811.127	197.8
811.306	218.28
811.485	265.38
811.664	314.53
811.843	255.14
812.022	224.42
812.201	263.33
812.38	185.51
812.559	177.32
812.737	232.62
812.916	169.13
813.095	173.22
813.274	246.95
813.453	210.09
813.632	232.62
813.811	249
813.989	208.04
814.168	171.18
814.347	173.22
814.526	193.7
814.704	220.33
814.883	249
815.062	177.32
815.24	246.95
815.419	216.23
815.598	208.04
815.776	154.79
815.955	167.08
816.133	177.32
816.312	136.36
816.49	160.94
816.669	183.46
816.847	185.51
817.026	189.61
817.204	218.28
817.383	158.89
817.561	109.74
817.74	218.28
817.918	146.6
818.097	173.22
818.275	212.14
818.453	197.8
818.632	165.03
818.81	165.03
818.988	142.5
819.167	158.89
819.345	146.6
819.523	150.7
819.701	232.62
819.879	193.7
820.058	171.18
820.236	214.18
820.414	150.7
820.592	171.18
820.77	189.61
820.948	144.55
821.127	201.9
821.305	152.74
821.483	25.77
821.661	173.22
821.839	165.03
822.017	99.5
822.195	109.74
822.373	191.66
822.551	189.61
822.729	210.09
822.907	148.65
823.085	158.89
823.262	115.88
823.44	142.5
823.618	134.31
823.796	109.74
823.974	54.44
824.152	27.82
824.329	152.74
824.507	113.83
824.685	208.04
824.863	119.98
825.04	134.31
825.218	109.74
825.396	70.83
825.574	99.5
825.751	136.36
825.929	148.65
826.107	132.26
826.284	167.08
826.462	195.75
826.639	138.41
826.817	52.39
826.994	203.94
827.172	177.32
827.349	93.35
827.527	212.14
827.704	175.27
827.882	162.98
828.059	119.98
828.237	199.85
828.414	103.59
828.591	48.3
828.769	169.13
828.946	48.3
829.124	99.5
829.301	134.31
829.478	54.44
829.655	126.12
829.833	105.64
830.01	76.97
830.187	130.22
830.364	42.15
830.542	167.08
830.719	89.26
830.896	64.68
831.073	162.98
831.25	115.88
831.427	160.94
831.604	126.12
831.782	48.3
831.959	109.74
832.136	142.5
832.313	132.26
832.49	109.74
832.667	144.55
832.844	1.19
833.021	169.13
833.198	126.12
833.374	115.88
833.551	74.92
833.728	91.31
833.905	68.78
834.082	91.31
834.259	128.17
834.436	158.89
834.612	17.58
834.789	148.65
834.966	87.21
835.143	132.26
835.319	103.59
835.496	85.16
835.673	48.3
835.85	134.31
836.026	134.31
836.203	119.98
836.38	29.87
836.556	60.59
836.733	29.87
836.909	119.98
837.086	130.22
837.262	56.49
837.439	113.83
837.616	44.2
837.792	109.74
837.968	36.01
838.145	19.63
838.321	27.82
838.498	68.78
838.674	68.78
838.851	74.92
839.027	31.91
839.203	38.06
839.38	126.12
839.556	17.58
839.732	113.83
839.909	60.59
840.085	175.27
840.261	62.63
840.437	60.59
840.614	119.98
840.79	42.15
840.966	115.88
841.142	15.53
841.318	66.73
841.494	91.31
841.671	87.21
841.847	21.67
842.023	58.54
842.199	165.03
842.375	140.46
842.551	36.01
842.727	42.15
842.903	91.31
843.079	93.35
843.255	56.49
843.431	-4.95
843.607	68.78
843.783	17.58
843.959	58.54
844.134	58.54
844.31	136.36
844.486	9.39
844.662	-35.67
844.838	48.3
845.013	126.12
845.189	119.98
845.365	89.26
845.541	109.74
845.716	48.3
845.892	95.4
846.068	21.67
846.244	42.15
846.419	60.59
846.595	13.48
846.77	-7
846.946	58.54
847.122	87.21
847.297	9.39
847.473	107.69
847.648	-45.91
847.824	21.67
847.999	-29.52
848.175	3.24
848.35	13.48
848.526	50.35
848.701	142.5
848.876	56.49
849.052	66.73
849.227	87.21
849.403	-11.09
849.578	52.39
849.753	1.19
849.929	36.01
850.104	36.01
850.279	64.68
850.454	52.39
850.63	27.82
850.805	17.58
850.98	19.63
851.155	33.96
851.33	44.2
851.505	25.77
851.681	1.19
851.856	-25.43
852.031	56.49
852.206	44.2
852.381	83.11
852.556	27.82
852.731	91.31
852.906	58.54
853.081	79.02
853.256	19.63
853.431	36.01
853.606	38.06
853.781	31.91
853.956	-4.95
854.131	95.4
854.305	13.48
854.48	-52.05
854.655	-13.14
854.83	-21.33
855.005	-19.29
855.18	44.2
855.354	42.15
855.529	56.49
855.704	-25.43
855.879	50.35
856.053	-4.95
856.228	21.67
856.403	-37.72
856.577	48.3
856.752	-9.05
856.926	9.39
857.101	48.3
857.276	3.24
857.45	93.35
857.625	-37.72
857.799	1.19
857.974	1.19
858.148	-52.05
858.323	-47.96
858.497	54.44
858.672	-4.95
858.846	17.58
859.02	109.74
859.195	27.82
859.369	1.19
859.543	1.19
859.718	23.72
859.892	38.06
860.066	25.77
860.241	-50
860.415	-2.9
860.589	25.77
860.763	-9.05
860.938	36.01
861.112	17.58
861.286	1.19
861.46	38.06
861.634	5.29
861.808	48.3
861.982	-23.38
862.157	-29.52
862.331	-60.24
862.505	-56.15
862.679	1.19
862.853	3.24
863.027	85.16
863.201	113.83
863.375	-103.25
863.549	-31.57
863.722	66.73
863.896	64.68
864.07	-60.24
864.244	44.2
864.418	7.34
864.592	15.53
864.766	-17.24
864.939	5.29
865.113	-15.19
865.287	21.67
865.461	-23.38
865.634	25.77
865.808	-58.2
865.982	-35.67
866.156	-17.24
866.329	-43.86
866.503	-4.95
866.676	89.26
866.85	44.2
867.024	-70.48
867.197	-35.67
867.371	50.35
867.544	1.19
867.718	-17.24
867.891	50.35
868.065	-19.29
868.238	15.53
868.412	21.67
868.585	25.77
868.759	-54.1
868.932	-25.43
869.105	-35.67
869.279	-99.16
869.452	-29.52
869.625	-45.91
869.799	27.82
869.972	-78.68
870.145	-62.29
870.319	-4.95
870.492	-43.86
870.665	-27.48
870.838	25.77
871.011	-33.62
871.185	-31.57
871.358	25.77
871.531	-4.95
871.704	9.39
871.877	19.63
872.05	-13.14
872.223	-39.76
872.396	-15.19
872.569	-31.57
872.742	-11.09
872.915	-80.72
873.088	-21.33
873.261	64.68
873.434	-23.38
873.607	-19.29
873.78	5.29
873.953	27.82
874.126	23.72
874.299	44.2
874.471	3.24
874.644	-23.38
874.817	79.02
874.99	21.67
875.163	-21.33
875.335	46.25
875.508	-39.76
875.681	9.39
875.853	3.24
876.026	-41.81
876.199	33.96
876.371	44.2
876.544	13.48
876.717	31.91
876.889	-146.26
877.062	64.68
877.234	-64.34
877.407	-31.57
877.579	52.39
877.752	-47.96
877.924	15.53
878.097	27.82
878.269	5.29
878.442	17.58
878.614	52.39
878.786	-47.96
878.959	-56.15
879.131	27.82
879.303	-76.63
879.476	-33.62
879.648	54.44
879.82	-11.09
879.993	-50
880.165	1.19
880.337	-52.05
880.509	85.16
880.681	-23.38
880.854	-56.15
881.026	-39.76
881.198	79.02
881.37	-29.52
881.542	7.34
881.714	-101.2
881.886	-47.96
882.058	-29.52
882.23	-23.38
882.402	-13.14
882.574	-13.14
882.746	-19.29
882.918	-19.29
883.09	15.53
883.262	-66.39
883.434	-37.72
883.606	-78.68
883.778	27.82
883.95	66.73
884.122	-56.15
884.293	-15.19
884.465	5.29
884.637	-29.52
884.809	-78.68
884.98	68.78
885.152	-50
885.324	33.96
885.496	-13.14
885.667	-41.81
885.839	3.24
886.011	56.49
886.182	-31.57
886.354	-54.1
886.525	23.72
886.697	-52.05
886.869	-37.72
887.04	-7
887.212	70.83
887.383	93.35
887.555	-11.09
887.726	17.58
887.897	19.63
888.069	74.92
888.24	17.58
888.412	-13.14
888.583	13.48
888.754	-56.15
888.926	-64.34
889.097	-74.58
889.268	-27.48
889.44	-62.29
889.611	-80.72
889.782	-0.85
889.953	-58.2
890.125	-4.95
890.296	-146.26
890.467	-17.24
890.638	25.77
890.809	-7
890.98	-41.81
891.151	-35.67
891.323	9.39
891.494	-0.85
891.665	-0.85
891.836	-43.86
892.007	-13.14
892.178	40.11
892.349	-47.96
892.52	-160.59
892.691	5.29
892.862	-119.64
893.032	-84.82
893.203	-27.48
893.374	-37.72
893.545	-2.9
893.716	-15.19
893.887	52.39
894.057	5.29
894.228	38.06
894.399	-88.92
894.57	-9.05
894.74	-35.67
894.911	-7
895.082	1.19
895.253	-72.53
895.423	33.96
895.594	-31.57
895.764	-62.29
895.935	-64.34
896.106	19.63
896.276	-41.81
896.447	50.35
896.617	-29.52
896.788	-9.05
896.958	21.67
897.129	-62.29
897.299	-27.48
897.47	50.35
897.64	74.92
897.81	-7
897.981	-31.57
898.151	-11.09
898.322	15.53
898.492	-17.24
898.662	3.24
898.832	-41.81
899.003	25.77
899.173	-2.9
899.343	-0.85
899.513	-144.21
