Data from USB4F104151__8__13-04-11-971.txt Node

Date: Fri Mar 14 13:04:11 EDT 2025
User: louis
Spectrometer: USB4F10415
Trigger mode: 4
Integration Time (sec): 4.000000E-2
Scans to average: 1
Electric dark correction enabled: true
Nonlinearity correction enabled: false
Boxcar width: 0
XAxis mode: Wavelengths
Number of Pixels in Spectrum: 3648
>>>>>Begin Spectral Data<<<<<
178.204	-210.77
178.424	-210.77
178.644	-210.77
178.864	-212.82
179.084	-251.73
179.304	-32.6
179.524	-3.93
179.744	24.75
179.964	57.51
180.184	-59.22
180.404	20.65
180.624	-48.98
180.844	-34.64
181.064	-63.32
181.283	51.37
181.503	2.22
181.723	86.19
181.943	-69.46
182.163	112.81
182.383	-59.22
182.602	-53.08
182.822	96.43
183.042	24.75
183.262	-20.31
183.482	16.55
183.701	30.89
183.921	43.18
184.141	-79.7
184.361	30.89
184.58	8.36
184.8	41.13
185.02	-42.84
185.239	-1.88
185.459	-44.88
185.679	-10.07
185.898	-8.02
186.118	-1.88
186.338	4.27
186.557	30.89
186.777	20.65
186.997	-34.64
187.216	73.9
187.436	37.03
187.655	63.66
187.875	98.47
188.095	41.13
188.314	18.6
188.534	102.57
188.753	49.32
188.973	69.8
189.192	24.75
189.412	30.89
189.631	28.84
189.851	14.51
190.07	104.62
190.29	6.31
190.509	28.84
190.729	6.31
190.948	88.23
191.168	174.25
191.387	96.43
191.607	80.04
191.826	14.51
192.045	-65.36
192.265	-18.26
192.484	20.65
192.704	65.71
192.923	-67.41
193.142	-3.93
193.362	80.04
193.581	143.53
193.8	24.75
194.02	47.27
194.239	12.46
194.458	-12.12
194.678	-18.26
194.897	45.23
195.116	45.23
195.335	67.75
195.555	96.43
195.774	12.46
195.993	24.75
196.212	-34.64
196.432	82.09
196.651	-10.07
196.87	71.85
197.089	123.05
197.308	12.46
197.528	30.89
197.747	-8.02
197.966	-12.12
198.185	84.14
198.404	-12.12
198.623	20.65
198.842	110.76
199.062	94.38
199.281	123.05
199.5	24.75
199.719	108.71
199.938	-3.93
200.157	123.05
200.376	10.41
200.595	98.47
200.814	65.71
201.033	-48.98
201.252	114.86
201.471	82.09
201.69	55.47
201.909	57.51
202.128	47.27
202.347	69.8
202.566	104.62
202.785	-46.93
203.004	-20.31
203.223	149.67
203.442	73.9
203.661	-12.12
203.879	41.13
204.098	16.55
204.317	8.36
204.536	90.28
204.755	55.47
204.974	45.23
205.193	88.23
205.411	98.47
205.63	102.57
205.849	-28.5
206.068	-8.02
206.287	18.6
206.505	-5.97
206.724	2.22
206.943	77.99
207.162	-18.26
207.381	28.84
207.599	6.31
207.818	55.47
208.037	-12.12
208.255	34.99
208.474	32.94
208.693	-18.26
208.911	12.46
209.13	12.46
209.349	100.52
209.567	53.42
209.786	45.23
210.005	24.75
210.223	24.75
210.442	-38.74
210.661	47.27
210.879	82.09
211.098	-67.41
211.316	34.99
211.535	59.56
211.753	12.46
211.972	-3.93
212.191	47.27
212.409	12.46
212.628	57.51
212.846	-10.07
213.065	26.79
213.283	159.91
213.502	-1.88
213.72	34.99
213.938	-5.97
214.157	39.08
214.375	55.47
214.594	-28.5
214.812	112.81
215.031	-18.26
215.249	30.89
215.467	22.7
215.686	57.51
215.904	32.94
216.122	-16.21
216.341	12.46
216.559	-5.97
216.778	2.22
216.996	22.7
217.214	32.94
217.432	-34.64
217.651	-44.88
217.869	6.31
218.087	-3.93
218.306	69.8
218.524	94.38
218.742	-26.45
218.96	28.84
219.179	20.65
219.397	-8.02
219.615	55.47
219.833	39.08
220.051	-85.84
220.27	24.75
220.488	80.04
220.706	4.27
220.924	6.31
221.142	37.03
221.36	16.55
221.578	37.03
221.796	-1.88
222.015	-36.69
222.233	45.23
222.451	135.34
222.669	-1.88
222.887	53.42
223.105	59.56
223.323	-32.6
223.541	-36.69
223.759	67.75
223.977	43.18
224.195	69.8
224.413	32.94
224.631	63.66
224.849	26.79
225.067	143.53
225.285	26.79
225.503	-1.88
225.721	-55.12
225.939	77.99
226.157	4.27
226.375	77.99
226.592	4.27
226.81	20.65
227.028	57.51
227.246	123.05
227.464	-8.02
227.682	10.41
227.9	28.84
228.117	-30.55
228.335	65.71
228.553	14.51
228.771	4.27
228.989	63.66
229.206	71.85
229.424	12.46
229.642	8.36
229.86	43.18
230.077	37.03
230.295	57.51
230.513	57.51
230.731	-1.88
230.948	53.42
231.166	100.52
231.384	0.17
231.601	59.56
231.819	18.6
232.037	-48.98
232.254	6.31
232.472	-8.02
232.689	-18.26
232.907	24.75
233.125	-1.88
233.342	4.27
233.56	-24.4
233.777	10.41
233.995	6.31
234.213	77.99
234.43	41.13
234.648	0.17
234.865	-28.5
235.083	24.75
235.3	65.71
235.518	32.94
235.735	159.91
235.953	88.23
236.17	41.13
236.388	63.66
236.605	-12.12
236.822	49.32
237.04	90.28
237.257	41.13
237.475	-91.99
237.692	53.42
237.909	2.22
238.127	-10.07
238.344	32.94
238.562	14.51
238.779	6.31
238.996	-3.93
239.214	41.13
239.431	12.46
239.648	-42.84
239.865	49.32
240.083	39.08
240.3	12.46
240.517	-32.6
240.735	45.23
240.952	43.18
241.169	47.27
241.386	34.99
241.603	-28.5
241.821	0.17
242.038	75.95
242.255	51.37
242.472	30.89
242.689	34.99
242.907	37.03
243.124	75.95
243.341	-51.03
243.558	10.41
243.775	-40.79
243.992	-48.98
244.209	34.99
244.426	110.76
244.643	-16.21
244.86	-89.94
245.078	24.75
245.295	51.37
245.512	24.75
245.729	34.99
245.946	-24.4
246.163	61.61
246.38	4.27
246.597	24.75
246.814	-18.26
247.031	0.17
247.248	69.8
247.464	55.47
247.681	30.89
247.898	98.47
248.115	37.03
248.332	-8.02
248.549	41.13
248.766	61.61
248.983	57.51
249.2	45.23
249.417	69.8
249.633	-8.02
249.85	30.89
250.067	28.84
250.284	98.47
250.501	30.89
250.717	39.08
250.934	-22.36
251.151	47.27
251.368	10.41
251.585	114.86
251.801	-14.17
252.018	26.79
252.235	88.23
252.451	-67.41
252.668	-24.4
252.885	10.41
253.102	6.31
253.318	47.27
253.535	51.37
253.752	-20.31
253.968	55.47
254.185	-5.97
254.401	-18.26
254.618	86.19
254.835	-3.93
255.051	53.42
255.268	-3.93
255.484	51.37
255.701	8.36
255.917	63.66
256.134	-22.36
256.351	41.13
256.567	-44.88
256.784	39.08
257	-28.5
257.217	-8.02
257.433	10.41
257.65	-12.12
257.866	77.99
258.082	-1.88
258.299	-18.26
258.515	28.84
258.732	84.14
258.948	-36.69
259.165	22.7
259.381	47.27
259.597	14.51
259.814	30.89
260.03	77.99
260.246	51.37
260.463	47.27
260.679	63.66
260.895	43.18
261.112	63.66
261.328	20.65
261.544	-12.12
261.761	102.57
261.977	-51.03
262.193	-34.64
262.409	57.51
262.626	96.43
262.842	49.32
263.058	22.7
263.274	47.27
263.49	28.84
263.707	65.71
263.923	-18.26
264.139	6.31
264.355	-20.31
264.571	59.56
264.787	-36.69
265.004	55.47
265.22	12.46
265.436	26.79
265.652	-1.88
265.868	32.94
266.084	-44.88
266.3	55.47
266.516	-20.31
266.732	18.6
266.948	2.22
267.164	8.36
267.38	0.17
267.596	-28.5
267.812	57.51
268.028	-32.6
268.244	-28.5
268.46	55.47
268.676	34.99
268.892	34.99
269.108	45.23
269.324	-5.97
269.54	-3.93
269.756	30.89
269.972	-73.56
270.188	-10.07
270.403	-34.64
270.619	4.27
270.835	73.9
271.051	-10.07
271.267	14.51
271.483	39.08
271.698	49.32
271.914	32.94
272.13	57.51
272.346	53.42
272.562	-79.7
272.777	22.7
272.993	-18.26
273.209	-3.93
273.425	55.47
273.64	-32.6
273.856	49.32
274.072	12.46
274.287	43.18
274.503	41.13
274.719	53.42
274.934	49.32
275.15	-42.84
275.366	-42.84
275.581	-110.42
275.797	39.08
276.012	45.23
276.228	14.51
276.444	20.65
276.659	59.56
276.875	0.17
277.09	34.99
277.306	28.84
277.521	116.9
277.737	-63.32
277.952	108.71
278.168	4.27
278.383	53.42
278.599	49.32
278.814	47.27
279.03	53.42
279.245	133.29
279.461	12.46
279.676	32.94
279.892	12.46
280.107	-71.51
280.322	-8.02
280.538	6.31
280.753	41.13
280.969	10.41
281.184	45.23
281.399	47.27
281.615	24.75
281.83	30.89
282.045	8.36
282.26	-32.6
282.476	-61.27
282.691	77.99
282.906	-42.84
283.122	10.41
283.337	-48.98
283.552	75.95
283.767	-18.26
283.983	39.08
284.198	71.85
284.413	75.95
284.628	-57.17
284.843	-8.02
285.058	90.28
285.274	14.51
285.489	14.51
285.704	34.99
285.919	16.55
286.134	20.65
286.349	49.32
286.564	16.55
286.779	121
286.995	-3.93
287.21	-34.64
287.425	45.23
287.64	88.23
287.855	41.13
288.07	-1.88
288.285	80.04
288.5	149.67
288.715	63.66
288.93	14.51
289.145	-61.27
289.36	75.95
289.575	-48.98
289.79	71.85
290.004	121
290.219	-18.26
290.434	-10.07
290.649	-1.88
290.864	26.79
291.079	39.08
291.294	43.18
291.509	10.41
291.724	57.51
291.938	-18.26
292.153	39.08
292.368	-48.98
292.583	92.33
292.798	18.6
293.012	41.13
293.227	73.9
293.442	-18.26
293.657	73.9
293.871	32.94
294.086	28.84
294.301	123.05
294.516	77.99
294.73	90.28
294.945	-5.97
295.16	20.65
295.374	67.75
295.589	100.52
295.804	63.66
296.018	41.13
296.233	106.67
296.447	53.42
296.662	20.65
296.877	145.58
297.091	49.32
297.306	77.99
297.52	71.85
297.735	-59.22
297.949	14.51
298.164	-26.45
298.378	-14.17
298.593	-10.07
298.807	-40.79
299.022	8.36
299.236	98.47
299.451	-24.4
299.665	16.55
299.88	20.65
300.094	49.32
300.309	-36.69
300.523	28.84
300.737	53.42
300.952	-22.36
301.166	63.66
301.381	53.42
301.595	-36.69
301.809	-12.12
302.024	-44.88
302.238	-42.84
302.452	24.75
302.667	20.65
302.881	32.94
303.095	88.23
303.309	77.99
303.524	28.84
303.738	-10.07
303.952	57.51
304.166	80.04
304.381	-83.8
304.595	116.9
304.809	22.7
305.023	55.47
305.237	4.27
305.452	51.37
305.666	-5.97
305.88	47.27
306.094	22.7
306.308	49.32
306.522	82.09
306.736	45.23
306.95	47.27
307.164	12.46
307.379	67.75
307.593	63.66
307.807	73.9
308.021	30.89
308.235	77.99
308.449	-12.12
308.663	43.18
308.877	73.9
309.091	12.46
309.305	63.66
309.519	-77.65
309.733	32.94
309.947	-30.55
310.161	71.85
310.374	8.36
310.588	90.28
310.802	2.22
311.016	51.37
311.23	20.65
311.444	53.42
311.658	12.46
311.872	92.33
312.085	28.84
312.299	84.14
312.513	39.08
312.727	8.36
312.941	-28.5
313.154	67.75
313.368	-22.36
313.582	16.55
313.796	-36.69
314.009	-57.17
314.223	12.46
314.437	37.03
314.651	80.04
314.864	0.17
315.078	51.37
315.292	4.27
315.505	86.19
315.719	26.79
315.933	110.76
316.146	139.43
316.36	14.51
316.573	73.9
316.787	45.23
317.001	98.47
317.214	-42.84
317.428	69.8
317.641	-32.6
317.855	12.46
318.068	28.84
318.282	57.51
318.495	94.38
318.709	67.75
318.922	12.46
319.136	82.09
319.349	45.23
319.563	39.08
319.776	20.65
319.99	-42.84
320.203	34.99
320.417	34.99
320.63	30.89
320.843	-8.02
321.057	39.08
321.27	37.03
321.483	20.65
321.697	49.32
321.91	20.65
322.124	59.56
322.337	73.9
322.55	-32.6
322.763	-1.88
322.977	104.62
323.19	92.33
323.403	-38.74
323.617	28.84
323.83	59.56
324.043	30.89
324.256	55.47
324.469	-3.93
324.683	88.23
324.896	-36.69
325.109	-18.26
325.322	-77.65
325.535	53.42
325.748	30.89
325.962	-18.26
326.175	43.18
326.388	102.57
326.601	90.28
326.814	57.51
327.027	47.27
327.24	143.53
327.453	-3.93
327.666	-20.31
327.879	114.86
328.092	73.9
328.305	45.23
328.518	8.36
328.731	47.27
328.944	-8.02
329.157	53.42
329.37	-26.45
329.583	49.32
329.796	22.7
330.009	-5.97
330.222	14.51
330.435	88.23
330.648	61.61
330.861	-16.21
331.073	30.89
331.286	121
331.499	-3.93
331.712	-36.69
331.925	28.84
332.138	-20.31
332.35	39.08
332.563	-42.84
332.776	57.51
332.989	-87.89
333.202	39.08
333.414	2.22
333.627	22.7
333.84	-3.93
334.053	6.31
334.265	73.9
334.478	73.9
334.691	59.56
334.903	26.79
335.116	-20.31
335.329	30.89
335.541	-40.79
335.754	4.27
335.966	8.36
336.179	77.99
336.392	-67.41
336.604	-40.79
336.817	-8.02
337.029	26.79
337.242	51.37
337.454	49.32
337.667	45.23
337.88	67.75
338.092	22.7
338.305	59.56
338.517	26.79
338.729	20.65
338.942	53.42
339.154	57.51
339.367	86.19
339.579	51.37
339.792	-38.74
340.004	32.94
340.217	57.51
340.429	63.66
340.641	16.55
340.854	-3.93
341.066	12.46
341.278	112.81
341.491	102.57
341.703	26.79
341.915	-3.93
342.128	77.99
342.34	32.94
342.552	14.51
342.764	37.03
342.977	-12.12
343.189	49.32
343.401	73.9
343.613	-61.27
343.826	94.38
344.038	12.46
344.25	34.99
344.462	24.75
344.674	-26.45
344.886	30.89
345.099	53.42
345.311	37.03
345.523	26.79
345.735	22.7
345.947	28.84
346.159	86.19
346.371	61.61
346.583	-34.64
346.795	157.86
347.007	71.85
347.219	26.79
347.431	18.6
347.643	69.8
347.855	-5.97
348.067	37.03
348.279	-75.6
348.491	63.66
348.703	47.27
348.915	28.84
349.127	61.61
349.339	28.84
349.551	-14.17
349.763	71.85
349.975	-18.26
350.187	112.81
350.399	86.19
350.61	-16.21
350.822	14.51
351.034	22.7
351.246	51.37
351.458	100.52
351.669	94.38
351.881	69.8
352.093	88.23
352.305	86.19
352.517	49.32
352.728	133.29
352.94	80.04
353.152	82.09
353.363	73.9
353.575	10.41
353.787	18.6
353.999	53.42
354.21	108.71
354.422	-46.93
354.633	49.32
354.845	-24.4
355.057	14.51
355.268	49.32
355.48	61.61
355.692	45.23
355.903	43.18
356.115	24.75
356.326	-65.36
356.538	51.37
356.749	61.61
356.961	123.05
357.172	8.36
357.384	-48.98
357.595	174.25
357.807	41.13
358.018	-1.88
358.23	37.03
358.441	129.19
358.653	2.22
358.864	30.89
359.075	-18.26
359.287	88.23
359.498	24.75
359.709	112.81
359.921	65.71
360.132	90.28
360.344	71.85
360.555	-89.94
360.766	-5.97
360.977	28.84
361.189	30.89
361.4	47.27
361.611	139.43
361.823	102.57
362.034	118.95
362.245	14.51
362.456	53.42
362.667	49.32
362.879	12.46
363.09	-65.36
363.301	30.89
363.512	39.08
363.723	61.61
363.935	69.8
364.146	43.18
364.357	20.65
364.568	8.36
364.779	0.17
364.99	61.61
365.201	102.57
365.412	135.34
365.623	30.89
365.834	67.75
366.045	-20.31
366.256	49.32
366.467	102.57
366.678	-46.93
366.889	86.19
367.1	88.23
367.311	51.37
367.522	37.03
367.733	12.46
367.944	39.08
368.155	14.51
368.366	30.89
368.577	10.41
368.788	94.38
368.999	22.7
369.209	12.46
369.42	121
369.631	135.34
369.842	55.47
370.053	49.32
370.264	84.14
370.474	39.08
370.685	92.33
370.896	28.84
371.107	12.46
371.317	47.27
371.528	22.7
371.739	18.6
371.95	6.31
372.16	129.19
372.371	-26.45
372.582	-12.12
372.792	77.99
373.003	49.32
373.214	51.37
373.424	18.6
373.635	41.13
373.846	39.08
374.056	63.66
374.267	24.75
374.477	28.84
374.688	14.51
374.898	22.7
375.109	12.46
375.319	2.22
375.53	69.8
375.74	-28.5
375.951	-57.17
376.161	37.03
376.372	69.8
376.582	4.27
376.793	84.14
377.003	-24.4
377.214	6.31
377.424	-16.21
377.635	45.23
377.845	20.65
378.055	129.19
378.266	-44.88
378.476	53.42
378.686	63.66
378.897	-1.88
379.107	47.27
379.317	24.75
379.528	22.7
379.738	55.47
379.948	0.17
380.158	110.76
380.369	12.46
380.579	0.17
380.789	2.22
380.999	106.67
381.21	71.85
381.42	125.1
381.63	-18.26
381.84	47.27
382.05	77.99
382.261	166.06
382.471	69.8
382.681	-24.4
382.891	110.76
383.101	73.9
383.311	-18.26
383.521	6.31
383.731	55.47
383.941	106.67
384.151	47.27
384.361	6.31
384.571	4.27
384.781	100.52
384.991	75.95
385.201	202.92
385.411	92.33
385.621	145.58
385.831	37.03
386.041	65.71
386.251	55.47
386.461	69.8
386.671	57.51
386.881	92.33
387.091	20.65
387.301	6.31
387.511	49.32
387.72	108.71
387.93	41.13
388.14	-3.93
388.35	45.23
388.56	92.33
388.769	45.23
388.979	20.65
389.189	14.51
389.399	24.75
389.609	24.75
389.818	86.19
390.028	37.03
390.238	141.48
390.447	28.84
390.657	-26.45
390.867	90.28
391.076	110.76
391.286	-14.17
391.496	69.8
391.705	69.8
391.915	71.85
392.125	139.43
392.334	-18.26
392.544	164.01
392.753	18.6
392.963	47.27
393.172	53.42
393.382	47.27
393.591	82.09
393.801	37.03
394.01	82.09
394.22	106.67
394.429	45.23
394.639	45.23
394.848	90.28
395.058	90.28
395.267	57.51
395.477	63.66
395.686	90.28
395.895	92.33
396.105	151.72
396.314	104.62
396.524	53.42
396.733	18.6
396.942	69.8
397.152	14.51
397.361	137.38
397.57	75.95
397.78	170.15
397.989	139.43
398.198	47.27
398.407	49.32
398.617	82.09
398.826	69.8
399.035	16.55
399.244	94.38
399.453	98.47
399.663	26.79
399.872	-14.17
400.081	65.71
400.29	104.62
400.499	65.71
400.708	106.67
400.917	34.99
401.127	71.85
401.336	55.47
401.545	143.53
401.754	86.19
401.963	151.72
402.172	82.09
402.381	73.9
402.59	139.43
402.799	55.47
403.008	77.99
403.217	151.72
403.426	145.58
403.635	55.47
403.844	151.72
404.053	65.71
404.262	55.47
404.471	188.58
404.68	141.48
404.888	53.42
405.097	69.8
405.306	45.23
405.515	235.69
405.724	127.14
405.933	123.05
406.142	118.95
406.35	252.07
406.559	209.06
406.768	143.53
406.977	143.53
407.185	188.58
407.394	170.15
407.603	110.76
407.812	186.54
408.02	147.62
408.229	252.07
408.438	174.25
408.646	176.3
408.855	172.2
409.064	192.68
409.272	166.06
409.481	221.35
409.69	274.6
409.898	155.82
410.107	254.12
410.315	225.45
410.524	217.26
410.733	227.5
410.941	241.83
411.15	282.79
411.358	260.26
411.567	374.95
411.775	299.17
411.984	266.41
412.192	297.13
412.401	270.5
412.609	479.4
412.818	381.09
413.026	360.61
413.234	381.09
413.443	309.41
413.651	415.91
413.86	346.28
414.068	522.4
414.276	483.49
414.485	405.67
414.693	510.11
414.901	661.66
415.11	538.79
415.318	415.91
415.526	544.93
415.734	608.42
415.943	575.65
416.151	608.42
416.359	528.55
416.567	602.27
416.776	678.05
416.984	698.53
417.192	778.4
417.4	712.86
417.608	747.68
417.817	739.49
418.025	825.5
418.233	915.61
418.441	704.67
418.649	856.22
418.857	929.95
419.065	999.58
419.273	917.66
419.481	944.28
419.689	1022.11
419.897	1028.25
420.105	1134.75
420.313	1069.21
420.521	1196.18
420.729	1255.58
420.937	1241.24
421.145	1210.52
421.353	1357.97
421.561	1532.05
421.769	1560.72
421.977	1466.52
422.185	1542.29
422.393	1679.51
422.601	1759.38
422.809	1716.37
423.017	1689.74
423.224	1706.13
423.432	1806.48
423.64	1775.76
423.848	2037.9
424.056	1886.35
424.263	2099.34
424.471	2093.19
424.679	2156.68
424.887	2242.7
425.094	2306.18
425.302	2377.86
425.51	2457.73
425.718	2504.84
425.925	2551.94
426.133	2605.19
426.341	2826.37
426.548	2855.04
426.756	2859.14
426.964	2998.4
427.171	3047.55
427.379	3166.33
427.586	3321.98
427.794	3293.3
428.001	3451
428.209	3790.96
428.417	3596.4
428.624	3827.82
428.832	3784.82
429.039	3807.34
429.247	3795.06
429.454	4237.42
429.662	4436.07
429.869	4182.12
430.076	4513.89
430.284	4362.34
430.491	4509.8
430.699	4700.26
430.906	4636.77
431.114	4814.95
431.321	5044.32
431.528	5111.9
431.736	5451.86
431.943	5580.89
432.15	5568.6
432.358	5728.34
432.565	5808.21
432.772	5814.35
432.979	6363.21
433.187	6269
433.394	6297.67
433.601	6772.8
433.808	6993.98
434.016	6690.88
434.223	7032.9
434.43	7456.82
434.637	7331.9
434.844	7682.1
435.052	7807.03
435.259	7841.84
435.466	7911.47
435.673	7901.23
435.88	8575.02
436.087	8796.2
436.294	8859.68
436.501	8536.1
436.708	8953.89
436.915	9058.34
437.122	9635.86
437.329	9484.31
437.537	9943.06
437.743	9908.24
437.95	10022.93
438.157	10420.24
438.364	10553.35
438.571	10659.85
438.778	10688.52
438.985	11681.78
439.192	11575.29
439.399	11714.55
439.606	11300.86
439.813	12013.56
440.02	13078.5
440.227	12484.59
440.433	12636.14
440.64	12900.33
440.847	12859.37
441.054	13250.53
441.261	13832.15
441.467	13660.12
441.674	14208.98
441.881	14704.59
442.088	14362.58
442.294	14792.65
442.501	14870.47
442.708	15212.48
442.914	15794.11
443.121	16445.36
443.328	16101.3
443.534	17084.33
443.741	16826.28
443.948	16388.02
444.154	17659.81
444.361	17559.45
444.568	17815.45
444.774	17756.06
444.981	17872.79
445.187	18442.13
445.394	19218.31
445.6	19134.34
445.807	20954.99
446.013	19738.49
446.22	20103.03
446.426	21145.45
446.633	21653.34
446.839	22015.83
447.046	21051.24
447.252	22105.95
447.459	22445.91
447.665	22421.33
447.871	23365.45
448.078	24246.07
448.284	23301.96
448.491	23797.57
448.697	24624.95
448.903	25245.48
449.11	25161.51
449.316	24389.43
449.522	25304.87
449.728	26097.44
449.935	26167.07
450.141	26212.12
450.347	26795.79
450.553	26019.61
450.76	26494.74
450.966	27096.85
451.172	26650.39
451.378	27637.51
451.584	27285.26
451.791	27772.67
451.997	27746.05
452.203	28180.22
452.409	28307.19
452.615	28012.29
452.821	26826.51
453.027	26638.1
453.233	28288.76
453.44	26812.18
453.646	27629.32
453.852	27627.27
454.058	27920.13
454.264	27168.52
454.47	27737.86
454.676	27053.84
454.882	27778.82
455.088	25741.09
455.294	26056.48
455.5	25902.88
455.705	26431.26
455.911	25362.22
456.117	25126.7
456.323	24645.43
456.529	23566.15
456.735	24457.01
456.941	23719.74
457.147	23297.86
457.352	22654.8
457.558	22349.65
457.764	22654.8
457.97	21739.36
458.176	21376.87
458.381	21624.67
458.587	20346.74
458.793	20561.78
458.999	19478.4
459.204	20893.55
459.41	20103.03
459.616	19074.95
459.821	18968.46
460.027	18980.75
460.233	18405.27
460.438	17817.5
460.644	17651.61
460.85	17018.79
461.055	16705.45
461.261	16476.08
461.466	15394.75
461.672	15060.93
461.878	15945.66
462.083	14890.95
462.289	14680.01
462.494	14571.47
462.7	13905.88
462.905	13520.86
463.111	14118.87
463.316	13932.5
463.522	13813.72
463.727	14045.14
463.932	13561.82
464.138	13686.75
464.343	13555.68
464.549	13094.88
464.754	13858.78
464.959	13709.27
465.165	13498.33
465.37	12816.36
465.575	12435.44
465.781	13002.72
465.986	13148.13
466.191	12591.08
466.397	12296.18
466.602	11788.28
466.807	12226.54
467.012	12308.46
467.218	11923.44
467.423	11884.53
467.628	12177.39
467.833	12574.7
468.038	11978.74
468.244	11622.39
468.449	12050.42
468.654	11775.99
468.859	11728.89
469.064	11702.26
469.269	11372.54
469.474	11438.08
469.679	11569.15
469.885	11368.45
470.09	11509.76
470.295	11323.39
470.5	11048.96
470.705	11194.37
470.91	10856.45
471.115	10932.23
471.32	10858.5
471.525	10979.33
471.73	10627.08
471.935	10747.91
472.139	10096.66
472.344	10246.16
472.549	10356.75
472.754	10237.97
472.959	9893.91
473.164	9926.68
473.369	9642.01
473.574	9957.39
473.778	9844.76
473.983	9879.57
474.188	9961.49
474.393	9275.42
474.598	9492.51
474.802	9406.49
475.007	9136.16
475.212	9193.5
475.417	8900.64
475.621	8745
475.826	8837.16
476.031	8736.81
476.235	8409.13
476.44	8691.75
476.645	8562.73
476.849	8454.19
477.054	8581.16
477.259	8329.26
477.463	8486.95
477.668	8017.97
477.872	8173.61
478.077	8136.75
478.282	7755.83
478.486	7880.75
478.691	7716.92
478.895	7645.24
479.1	7632.95
479.304	7753.78
479.509	7534.65
479.713	7635
479.918	7413.82
480.122	7297.08
480.326	7477.3
480.531	7376.95
480.735	7321.66
480.94	7235.64
481.144	7671.86
481.348	7249.98
481.553	7217.21
481.757	6975.55
481.961	7080
482.166	7096.38
482.37	7305.28
482.574	7092.29
482.778	7112.77
482.983	7110.72
483.187	6985.79
483.391	7086.14
483.595	7100.48
483.8	7092.29
484.004	7155.77
484.208	7258.17
484.412	7026.75
484.616	7161.92
484.821	7256.12
485.025	7131.2
485.229	7161.92
485.433	7094.33
485.637	7202.88
485.841	7116.86
486.045	7080
486.249	7206.97
486.453	6975.55
486.657	7014.46
486.861	7256.12
487.065	6942.78
487.269	7125.05
487.473	7047.23
487.677	7047.23
487.881	7245.88
488.085	7184.45
488.289	7370.81
488.493	7188.54
488.697	7120.96
488.901	7340.09
489.105	7135.29
489.309	7032.9
489.512	7299.13
489.716	7329.85
489.92	7176.25
490.124	7036.99
490.328	7372.86
490.531	7241.79
490.735	7350.33
490.939	7311.42
491.143	7235.64
491.346	7374.91
491.55	7348.28
491.754	7508.02
491.958	7622.71
492.161	7411.77
492.365	7594.04
492.569	7452.73
492.772	7510.07
492.976	7643.19
493.18	7591.99
493.383	7776.31
493.587	7747.64
493.79	7776.31
493.994	7704.63
494.197	7841.84
494.401	8024.11
494.605	7934
494.808	8024.11
495.012	8028.21
495.215	8120.37
495.419	8278.06
495.622	8044.59
495.825	8329.26
496.029	8286.25
496.232	8339.5
496.436	8300.59
496.639	8593.45
496.843	8667.17
497.046	8738.85
497.249	8722.47
497.453	8863.78
497.656	8996.9
497.859	8992.8
498.063	9218.08
498.266	9316.38
498.469	9019.43
498.673	9283.61
498.876	9314.33
499.079	9637.91
499.282	9582.62
499.485	9914.39
499.689	9832.47
499.892	9955.35
500.095	10082.32
500.298	9967.63
500.501	10082.32
500.705	10332.17
500.908	10500.11
501.111	10457.1
501.314	10915.84
501.517	10686.47
501.72	11022.34
501.923	10956.8
502.126	11225.09
502.329	11362.3
502.532	11491.32
502.735	11413.5
502.938	11665.4
503.141	11716.6
503.344	11941.88
503.547	12060.66
503.75	12242.93
503.953	12365.81
504.156	12439.53
504.359	12648.43
504.562	12777.45
504.765	12986.34
504.968	12908.52
505.17	12949.48
505.373	13148.13
505.576	13649.88
505.779	13502.43
505.982	13445.09
506.185	13830.1
506.387	13836.25
506.59	14100.44
506.793	14254.03
506.996	14421.97
507.198	14917.58
507.401	14571.47
507.604	14794.7
507.807	14981.06
508.009	15376.32
508.212	15448
508.415	15507.39
508.617	15558.59
508.82	15570.88
509.022	15826.87
509.225	15996.85
509.428	16123.83
509.63	16369.58
509.833	16281.52
510.035	16869.29
510.238	16748.46
510.44	17117.09
510.643	17207.2
510.845	17303.46
511.048	17452.96
511.25	17663.9
511.453	17985.43
511.655	18374.55
511.858	17995.67
512.06	18339.73
512.262	18628.49
512.465	18509.71
512.667	18634.64
512.87	18976.65
513.072	19048.33
513.274	19638.14
513.477	19425.15
513.679	19806.08
513.881	20033.4
514.084	20279.16
514.286	20369.27
514.488	20326.26
514.69	20725.61
514.893	20979.56
515.095	20713.33
515.297	21466.98
515.499	21452.64
515.701	21352.29
515.904	21675.87
516.106	21833.57
516.308	22253.4
516.51	22390.61
516.712	22456.15
516.914	23015.24
517.116	23430.98
517.318	23340.87
517.52	23330.63
517.722	23488.32
517.925	23775.04
518.127	24405.81
518.329	24133.43
518.531	24049.47
518.733	24448.82
518.935	24907.57
519.136	24866.61
519.338	25007.92
519.54	25354.02
519.742	25413.41
519.944	25769.76
520.146	26248.99
520.348	26353.43
520.55	26478.36
520.752	26748.69
520.954	26914.58
521.155	26711.83
521.357	27354.89
521.559	27477.77
521.761	27909.89
521.963	27793.15
522.164	27750.15
522.366	27952.9
522.568	28274.43
522.77	28647.16
522.971	29116.14
523.173	28864.24
523.375	28866.29
523.576	29036.27
523.778	29259.5
523.98	29859.56
524.181	30000.86
524.383	29845.22
524.584	30160.61
524.786	30529.24
524.988	30373.6
525.189	30867.16
525.391	30928.59
525.592	30934.74
525.794	31231.69
525.995	31151.82
526.197	31594.18
526.398	31606.47
526.6	31659.72
526.801	31798.98
527.003	32028.35
527.204	31979.2
527.406	32390.84
527.607	32591.55
527.808	32833.21
528.01	32286.4
528.211	32730.81
528.412	33312.43
528.614	32917.17
528.815	33156.78
529.016	33273.52
529.218	32923.32
529.419	33361.58
529.62	33543.85
529.822	33355.44
530.023	33797.8
530.224	33871.53
530.425	33922.73
530.626	33603.24
530.828	33762.98
531.029	34277.02
531.23	34080.42
531.431	34231.97
531.632	34023.08
531.833	34121.38
532.035	33883.81
532.236	34684.57
532.437	34475.68
532.638	34021.03
532.839	34477.72
533.04	34627.23
533.241	34274.98
533.442	34731.67
533.643	34201.25
533.844	34913.94
534.045	34698.91
534.246	34389.66
534.447	34676.38
534.648	34748.06
534.849	34909.85
535.05	34711.19
535.251	34774.68
535.451	34778.78
535.652	34973.33
535.853	35030.68
536.054	35225.23
536.255	34997.91
536.456	34561.69
536.657	35032.72
536.857	34899.61
537.058	34606.75
537.259	35303.06
537.46	35305.1
537.66	34971.29
537.861	34582.17
538.062	34948.76
538.263	34961.05
538.463	34834.07
538.664	34754.2
538.865	35020.44
539.065	35200.66
539.266	34670.23
539.466	35282.58
539.667	34623.13
539.868	35053.2
540.068	35167.89
540.269	34795.16
540.469	34975.38
540.67	35067.54
540.87	34926.23
541.071	34594.46
541.271	35102.36
541.472	35163.79
541.672	34981.52
541.873	35018.39
542.073	34391.71
542.274	35145.36
542.474	35092.12
542.675	34897.56
542.875	35055.25
543.075	34854.55
543.276	34504.35
543.476	35008.15
543.676	34739.86
543.877	34860.69
544.077	34940.57
544.277	34580.12
544.478	34709.15
544.678	34823.83
544.878	34825.88
545.078	34907.8
545.279	34684.57
545.479	34610.84
545.679	34915.99
545.879	34674.33
546.079	34875.03
546.28	34352.8
546.48	34662.04
546.68	34979.48
546.88	34721.43
547.08	34918.04
547.28	35040.92
547.48	34447.01
547.68	34621.08
547.88	34447.01
548.081	34915.99
548.281	34768.54
548.481	34678.43
548.681	34911.89
548.881	34463.39
549.081	34514.59
549.28	34598.55
549.48	34731.67
549.68	34543.26
549.88	34889.37
550.08	34492.06
550.28	34811.54
550.48	34619.03
550.68	34911.89
550.88	34176.67
551.08	34520.73
551.279	34590.36
551.479	34256.54
551.679	34477.72
551.879	34213.54
552.079	34504.35
552.278	34334.37
552.478	34602.65
552.678	34176.67
552.878	34858.65
553.077	34633.37
553.277	33861.29
553.477	34463.39
553.676	34221.73
553.876	34100.9
554.076	34346.65
554.275	33904.29
554.475	33855.14
554.674	34223.78
554.874	33971.88
555.074	34018.98
555.273	33969.83
555.473	34064.03
555.672	33838.76
555.872	33842.85
556.071	33855.14
556.271	34195.1
556.47	33998.5
556.67	33509.04
556.869	33713.83
557.068	33879.72
557.268	33801.89
557.467	33535.66
557.667	33767.08
557.866	33906.34
558.065	33543.85
558.265	33316.53
558.464	33115.83
558.663	33787.56
558.863	33181.36
559.062	33392.3
559.261	33144.5
559.461	33390.25
559.66	33060.53
559.859	33210.03
560.058	33003.19
560.258	33042.1
560.457	32552.63
560.656	33050.29
560.855	32599.74
561.054	33099.44
561.253	32599.74
561.453	32640.7
561.652	32659.13
561.851	32802.49
562.05	32599.74
562.249	32382.65
562.448	32759.48
562.647	32519.87
562.846	32511.67
563.045	32063.17
563.244	31579.85
563.443	32261.82
563.642	31590.09
563.841	31948.48
564.04	31657.67
564.239	31839.94
564.438	31768.26
564.637	31608.52
564.836	31424.2
565.035	31172.3
565.234	31581.9
565.432	31213.26
565.631	30947.03
565.83	31321.8
566.029	31037.14
566.228	31442.63
566.427	30955.22
566.625	30729.94
566.824	30699.22
567.023	31098.58
567.222	29994.72
567.42	30992.08
567.619	30504.67
567.818	30506.71
568.016	30480.09
568.215	30674.65
568.414	30359.26
568.612	30383.84
568.811	30103.26
569.01	30385.88
569.208	29775.59
569.407	30047.97
569.605	29492.97
569.804	29773.54
570.002	29288.17
570.201	29505.26
570.4	29533.93
570.598	29034.22
570.797	29044.46
570.995	29259.5
571.193	28970.74
571.392	29161.2
571.59	29140.72
571.789	28835.57
571.987	28792.56
572.186	28735.22
572.384	28428.02
572.582	28593.91
572.781	28860.15
572.979	28061.44
573.177	28079.87
573.376	28239.61
573.574	28176.12
573.772	28090.11
573.971	27860.74
574.169	28286.72
574.367	27606.79
574.565	27983.62
574.763	27725.57
574.962	27582.21
575.16	27371.27
575.358	27549.45
575.556	27189
575.754	27748.1
575.952	27117.32
576.151	27354.89
576.349	26781.46
576.547	27287.31
576.745	26998.54
576.943	26756.88
577.141	27131.66
577.339	26990.35
577.537	26525.46
577.735	26785.55
577.933	26564.37
578.131	26644.24
578.329	26736.4
578.527	26021.66
578.725	26242.84
578.923	26451.74
579.121	26146.59
579.319	26115.87
579.516	25913.12
579.714	26009.37
579.912	26066.72
580.11	25505.57
580.308	25843.49
580.506	25745.19
580.704	25397.03
580.901	26023.71
581.099	25288.49
581.297	25155.37
581.495	25540.39
581.692	25689.89
581.89	25478.95
582.088	25292.58
582.285	25304.87
582.483	25165.61
582.681	24887.09
582.878	24872.75
583.076	24909.61
583.274	24493.88
583.471	24766.26
583.669	24682.29
583.866	24485.69
584.064	24561.46
584.262	24176.44
584.459	24479.54
584.657	24360.76
584.854	24022.84
585.052	23787.33
585.249	24031.04
585.447	24151.87
585.644	23863.1
585.841	24031.04
586.039	23828.29
586.236	23746.37
586.434	23455.56
586.631	23566.15
586.828	23656.26
587.026	23410.5
587.223	23496.52
587.42	23478.08
587.618	23406.41
587.815	23211.85
588.012	23035.72
588.21	22796.11
588.407	23052.11
588.604	22710.1
588.801	22798.16
588.999	22800.21
589.196	22916.94
589.393	22605.65
589.59	22464.34
589.787	22671.18
589.984	22425.43
590.182	22413.14
590.379	22298.45
590.576	22361.94
590.773	22265.69
590.97	22052.7
591.167	22046.55
591.364	21890.91
591.561	22146.9
591.758	21729.12
591.955	21698.4
592.152	22198.1
592.349	21634.91
592.546	21876.57
592.743	21772.13
592.94	21362.53
593.137	21530.47
593.334	21460.84
593.531	21233.51
593.727	21376.87
593.924	21167.98
594.121	21069.67
594.318	20979.56
594.515	20840.3
594.712	20969.32
594.908	20973.42
595.105	20971.37
595.302	20664.18
595.499	20471.67
595.696	20596.59
595.892	20481.91
596.089	20651.89
596.286	20590.45
596.482	20631.41
596.679	20522.87
596.876	20176.76
597.072	20127.61
597.269	20234.1
597.466	20170.61
597.662	19750.78
597.859	19885.95
598.055	20121.46
598.252	20035.45
598.448	19787.64
598.645	19720.06
598.841	19654.53
599.038	19498.88
599.234	19560.32
599.431	19294.08
599.627	19509.12
599.824	19550.08
600.02	19191.69
600.217	19425.15
600.413	19343.24
600.609	19017.61
600.806	19281.8
601.002	19060.62
601.198	18790.28
601.395	18640.78
601.591	18683.79
601.787	18808.72
601.984	18904.97
602.18	18954.12
602.376	18616.21
602.572	18460.56
602.769	18579.34
602.965	17985.43
603.161	18478.99
603.357	18435.99
603.553	18218.9
603.75	18290.58
603.946	18225.04
604.142	17985.43
604.338	17930.14
604.534	18145.17
604.73	17614.75
604.926	17940.38
605.122	18032.54
605.318	17700.76
605.514	17772.44
605.71	17682.33
605.906	17715.1
606.102	17659.81
606.298	17629.09
606.494	17663.9
606.69	17649.57
606.886	17520.54
607.082	17256.36
607.278	17287.07
607.474	17203.11
607.67	17088.42
607.866	16981.93
608.062	17242.02
608.257	17067.94
608.453	17151.91
608.649	17278.88
608.845	16756.65
609.041	17207.2
609.236	17024.93
609.432	16838.57
609.628	16805.8
609.824	17125.29
610.019	16678.83
610.215	16785.32
610.411	16893.86
610.606	16682.92
610.802	16701.36
610.998	16715.69
611.193	16734.12
611.389	16433.07
611.584	16584.62
611.78	16537.52
611.976	16437.17
612.171	16549.81
612.367	16306.1
612.562	16369.58
612.758	15861.69
612.953	16054.2
613.149	16205.75
613.344	16185.27
613.539	16285.62
613.735	16183.22
613.93	16318.39
614.126	16066.49
614.321	16101.3
614.517	15923.13
614.712	15957.94
614.907	15652.8
615.103	16215.99
615.298	15818.68
615.493	16117.68
615.688	15802.3
615.884	16154.55
616.079	15589.31
616.274	15693.76
616.47	15826.87
616.665	15710.14
616.86	15454.14
617.055	15519.68
617.25	15527.87
617.445	15712.19
617.641	15241.15
617.836	15640.51
618.031	15220.67
618.226	15183.81
618.421	15245.25
618.616	15439.81
618.811	15120.32
619.006	15552.45
619.201	14944.2
619.396	15323.07
619.591	14845.9
619.786	14931.91
619.981	14610.38
620.176	14927.81
620.371	14464.97
620.566	14897.1
620.761	14755.79
620.956	14616.52
621.151	14462.93
621.346	14450.64
621.541	14264.27
621.735	14606.28
621.93	14153.68
622.125	14045.14
622.32	13750.23
622.515	14041.04
622.709	13912.02
622.904	13709.27
623.099	13711.32
623.294	13764.57
623.488	13699.03
623.683	13819.86
623.878	13658.07
624.072	13707.23
624.267	13434.85
624.462	13197.28
624.656	13205.47
624.851	13131.75
625.046	12935.14
625.24	12998.63
625.435	13051.88
625.629	12759.02
625.824	12894.18
626.018	12959.72
626.213	12410.86
626.407	12664.81
626.602	12591.08
626.796	12629.99
626.991	12521.45
627.185	12240.88
627.38	12425.2
627.574	12357.61
627.768	12394.48
627.963	11988.98
628.157	12017.65
628.352	12054.51
628.546	11767.8
628.74	12099.57
628.935	11745.27
629.129	11616.25
629.323	11503.61
629.517	11636.73
629.712	11433.98
629.906	11673.59
630.1	11362.3
630.294	11403.26
630.489	11231.23
630.683	11343.87
630.877	11014.15
631.071	10962.95
631.265	11180.03
631.459	11153.41
631.653	11083.78
631.848	10919.94
632.042	10831.88
632.236	11057.15
632.43	10727.43
632.624	10852.36
632.818	10512.39
633.012	10616.84
633.206	10627.08
633.4	10522.63
633.594	10504.2
633.788	10319.89
633.982	10424.33
634.176	10254.35
634.369	10160.14
634.563	10235.92
634.757	10235.92
634.951	10024.98
635.145	9859.09
635.339	9881.62
635.533	10072.08
635.726	9807.89
635.92	9775.13
636.114	9685.01
636.308	9762.84
636.501	9580.57
636.695	9592.86
636.889	9379.87
637.083	9261.09
637.276	9302.04
637.47	9244.7
637.664	9318.43
637.857	9136.16
638.051	9304.09
638.244	9056.29
638.438	9300
638.632	8974.37
638.825	9084.96
639.019	8917.03
639.212	8861.73
639.406	8869.92
639.599	8890.4
639.793	8927.27
639.986	8777.76
640.18	8730.66
640.373	8556.58
640.567	8740.9
640.76	8443.95
640.954	8501.29
641.147	8624.17
641.34	8366.12
641.534	8390.7
641.727	8276.01
641.92	8370.22
642.114	8173.61
642.307	8263.72
642.5	8226.86
642.694	8017.97
642.887	8056.88
643.08	8015.92
643.273	8048.69
643.467	7802.93
643.66	7956.53
643.853	7684.15
644.046	7821.36
644.239	7940.15
644.432	7557.18
644.626	7612.47
644.819	7618.61
645.012	7745.59
645.205	7604.28
645.398	7477.3
645.591	7546.94
645.784	7583.8
645.977	7436.35
646.17	7352.38
646.363	7493.69
646.556	7260.22
646.749	7200.83
646.942	7426.11
647.135	7338.04
647.328	7325.75
647.521	7145.53
647.714	6965.31
647.907	6969.41
648.099	7043.14
648.292	6912.07
648.485	6942.78
648.678	6926.4
648.871	6813.76
649.064	6770.76
649.256	6948.93
649.449	6625.35
649.642	6752.32
649.835	6543.43
650.027	6551.62
650.22	6539.33
650.413	6662.21
650.605	6789.19
650.798	6590.53
650.991	6428.74
651.183	6426.7
651.376	6336.59
651.568	6467.66
651.761	6381.64
651.954	6422.6
652.146	6185.04
652.339	6471.75
652.531	6207.56
652.724	6019.15
652.916	6017.1
653.109	6131.79
653.301	6193.23
653.494	6084.69
653.686	5996.62
653.879	6148.17
654.071	6035.53
654.263	5818.45
654.456	5953.62
654.648	6094.93
654.84	5826.64
655.033	5664.85
655.225	5951.57
655.417	5742.68
655.61	5666.9
655.802	5849.17
655.994	5699.67
656.186	5546.07
656.379	5740.63
656.571	5689.43
656.763	5462.1
656.955	5617.75
657.148	5546.07
657.34	5572.69
657.532	5466.2
657.724	5423.19
657.916	5437.53
658.108	5509.21
658.3	5312.6
658.492	5392.47
658.684	5290.07
658.876	5279.83
659.068	5234.78
659.26	5277.79
659.452	5163.1
659.644	5374.04
659.836	5191.77
660.028	5351.51
660.22	4974.69
660.412	5161.05
660.604	5066.85
660.796	4872.29
660.988	5163.1
661.18	5019.74
661.372	4907.1
661.563	4919.39
661.755	4943.97
661.947	4964.45
662.139	4849.76
662.331	4911.2
662.522	4841.57
662.714	4864.1
662.906	4683.88
663.097	4831.33
663.289	4751.46
663.481	4591.72
663.673	4884.58
663.864	4706.4
664.056	4794.47
664.247	4683.88
664.439	4638.82
664.631	4593.76
664.822	4597.86
665.014	4698.21
665.205	4460.65
665.397	4393.06
665.588	4526.18
665.78	4583.52
665.971	4434.02
666.163	4487.27
666.354	4472.93
666.546	4442.21
666.737	4429.93
666.929	4456.55
667.12	4446.31
667.311	4450.41
667.503	4360.3
667.694	4423.78
667.885	4323.43
668.077	4313.19
668.268	4223.08
668.459	4286.57
668.651	4255.85
668.842	4214.89
669.033	4124.78
669.224	4239.47
669.416	4294.76
669.607	4175.98
669.798	4126.83
669.989	4323.43
670.18	4167.79
670.371	4186.22
670.563	4223.08
670.754	4155.5
670.945	4126.83
671.136	4251.75
671.327	4132.97
671.518	4188.27
671.709	4124.78
671.9	4210.79
672.091	4329.58
672.282	4044.91
672.473	4106.35
672.664	4239.47
672.855	3979.37
673.046	4147.31
673.237	4051.05
673.428	4083.82
673.619	4147.31
673.809	4085.87
674	4139.12
674.191	4169.84
674.382	3946.61
674.573	4120.68
674.764	4038.77
674.954	3917.93
675.145	4008.05
675.336	4059.24
675.527	3879.02
675.717	4022.38
675.908	4085.87
676.099	3991.66
676.289	4182.12
676.48	4012.14
676.671	4042.86
676.861	4020.33
677.052	4012.14
677.243	4071.53
677.433	4100.2
677.624	4049
677.814	3973.23
678.005	4026.48
678.195	4046.96
678.386	3981.42
678.576	3960.94
678.767	3993.71
678.957	4143.21
679.148	4026.48
679.338	3913.84
679.529	3977.33
679.719	4014.19
679.909	3924.08
680.1	3893.36
680.29	3981.42
680.481	3985.52
680.671	4030.57
680.861	4104.3
681.052	3870.83
681.242	4036.72
681.432	4069.48
681.622	3960.94
681.813	3915.89
682.003	3989.61
682.193	3825.78
682.383	3983.47
682.573	3946.61
682.764	4034.67
682.954	4059.24
683.144	4173.93
683.334	4038.77
683.524	4069.48
683.714	4034.67
683.904	3993.71
684.094	4055.15
684.284	3960.94
684.474	3936.37
684.664	3999.85
684.854	4034.67
685.044	3979.37
685.234	4040.81
685.424	3868.78
685.614	3905.65
685.804	4028.53
685.994	3887.22
686.184	3887.22
686.374	4055.15
686.564	3793.01
686.753	3840.11
686.943	3827.82
687.133	3790.96
687.323	3788.91
687.513	3815.54
687.702	3872.88
687.892	3770.48
688.082	3756.15
688.272	3854.45
688.461	3807.34
688.651	3750
688.841	3762.29
689.03	3661.94
689.22	3725.43
689.41	3661.94
689.599	3663.99
689.789	3479.67
689.979	3561.59
690.168	3715.19
690.358	3696.75
690.547	3453.05
690.737	3428.47
690.926	3594.36
691.116	3510.39
691.305	3567.73
691.495	3412.09
691.684	3500.15
691.874	3399.8
692.063	3477.62
692.252	3489.91
692.442	3229.82
692.631	3371.13
692.82	3346.55
693.01	3369.08
693.199	3248.25
693.388	3240.06
693.578	3340.41
693.767	3264.63
693.956	3274.87
694.146	3180.67
694.335	3270.78
694.524	3143.8
694.713	3321.98
694.902	3340.41
695.092	3238.01
695.281	3029.12
695.47	3176.57
695.659	3156.09
695.848	3143.8
696.037	3149.95
696.226	3207.29
696.415	3102.84
696.604	3088.51
696.793	3037.31
696.982	3174.52
697.171	3035.26
697.36	3174.52
697.549	3143.8
697.738	3113.08
697.927	3068.03
698.116	2992.25
698.305	3049.6
698.494	3051.64
698.683	3070.08
698.872	3125.37
699.061	3010.68
699.25	2934.91
699.438	3121.28
699.627	3010.68
699.816	3084.41
700.005	2992.25
700.193	2994.3
700.382	3113.08
700.571	2965.63
700.76	3131.51
700.948	3068.03
701.137	3086.46
701.326	2998.4
701.514	2957.44
701.703	3129.47
701.892	3143.8
702.08	3104.89
702.269	3018.88
702.457	3098.75
702.646	3084.41
702.834	3121.28
703.023	3047.55
703.212	3125.37
703.4	3100.8
703.589	3059.84
703.777	3012.73
703.965	3035.26
704.154	3045.5
704.342	3027.07
704.531	3125.37
704.719	3096.7
704.907	3127.42
705.096	3022.97
705.284	3141.75
705.472	3133.56
705.661	3162.23
705.849	3166.33
706.037	3104.89
706.226	2986.11
706.414	3139.71
706.602	3035.26
706.79	3180.67
706.979	3117.18
707.167	3235.96
707.355	3121.28
707.543	3174.52
707.731	3248.25
707.919	3225.72
708.107	3207.29
708.296	3180.67
708.484	3000.44
708.672	3211.39
708.86	3043.45
709.048	3121.28
709.236	3137.66
709.424	3201.15
709.612	3301.5
709.8	3018.88
709.988	3149.95
710.176	3147.9
710.364	3358.84
710.551	3190.91
710.739	3190.91
710.927	3340.41
711.115	3176.57
711.303	3324.02
711.491	3295.35
711.679	3211.39
711.866	3258.49
712.054	3317.88
712.242	3364.98
712.43	3428.47
712.617	3295.35
712.805	3426.42
712.993	3281.02
713.181	3186.81
713.368	3326.07
713.556	3418.23
713.744	3215.48
713.931	3307.64
714.119	3358.84
714.306	3354.74
714.494	3412.09
714.682	3364.98
714.869	3311.74
715.057	3448.95
715.244	3315.83
715.432	3520.63
715.619	3276.92
715.807	3455.09
715.994	3563.64
716.182	3412.09
716.369	3457.14
716.556	3487.86
716.744	3448.95
716.931	3475.57
717.119	3537.01
717.306	3457.14
717.493	3539.06
717.681	3424.37
717.868	3573.88
718.055	3596.4
718.242	3612.79
718.43	3453.05
718.617	3606.64
718.804	3512.44
718.991	3573.88
719.179	3416.18
719.366	3475.57
719.553	3496.05
719.74	3600.5
719.927	3627.12
720.114	3561.59
720.301	3463.29
720.488	3455.09
720.676	3524.72
720.863	3637.36
721.05	3614.84
721.237	3725.43
721.424	3514.49
721.611	3610.74
721.798	3467.38
721.985	3563.64
722.172	3592.31
722.358	3635.32
722.545	3739.76
722.732	3682.42
722.919	3668.08
723.106	3717.23
723.293	3557.49
723.48	3598.45
723.667	3598.45
723.853	3661.94
724.04	3608.69
724.227	3557.49
724.414	3668.08
724.6	3676.27
724.787	3825.78
724.974	3719.28
725.161	3754.1
725.347	3553.4
725.534	3690.61
725.72	3737.71
725.907	3743.86
726.094	3676.27
726.28	3676.27
726.467	3715.19
726.653	3729.52
726.84	3805.3
727.027	3930.22
727.213	3694.71
727.4	3758.19
727.586	3782.77
727.773	3731.57
727.959	3709.04
728.145	3739.76
728.332	3725.43
728.518	3747.95
728.705	3727.47
728.891	3805.3
729.077	3649.65
729.264	3641.46
729.45	3809.39
729.636	3864.69
729.823	3723.38
730.009	3846.26
730.195	3838.06
730.382	3836.02
730.568	3891.31
730.754	3788.91
730.94	3817.58
731.126	3946.61
731.313	3889.26
731.499	3879.02
731.685	3831.92
731.871	3801.2
732.057	3889.26
732.243	3919.98
732.429	3762.29
732.615	3936.37
732.801	4003.95
732.987	3852.4
733.173	3772.53
733.359	3827.82
733.545	3750
733.731	3809.39
733.917	4038.77
734.103	3844.21
734.289	3862.64
734.475	3641.46
734.661	3969.13
734.847	3874.93
735.033	3862.64
735.219	3936.37
735.404	3856.5
735.59	3864.69
735.776	3790.96
735.962	3862.64
736.148	3795.06
736.333	3915.89
736.519	3766.39
736.705	3793.01
736.89	3909.74
737.076	3856.5
737.262	3872.88
737.447	3842.16
737.633	3723.38
737.819	3666.03
738.004	3786.86
738.19	3764.34
738.375	3805.3
738.561	3825.78
738.747	3731.57
738.932	3706.99
739.118	3846.26
739.303	3717.23
739.489	3747.95
739.674	3735.67
739.859	3666.03
740.045	3883.12
740.23	3670.13
740.416	3641.46
740.601	3682.42
740.786	3790.96
740.972	3618.93
741.157	3561.59
741.342	3616.88
741.528	3573.88
741.713	3727.47
741.898	3713.14
742.084	3692.66
742.269	3706.99
742.454	3608.69
742.639	3602.55
742.824	3575.92
743.01	3620.98
743.195	3608.69
743.38	3549.3
743.565	3618.93
743.75	3539.06
743.935	3543.16
744.12	3561.59
744.305	3397.75
744.49	3496.05
744.675	3381.37
744.86	3362.94
745.045	3387.51
745.23	3295.35
745.415	3391.61
745.6	3364.98
745.785	3299.45
745.97	3405.94
746.155	3315.83
746.34	3313.78
746.525	3291.26
746.71	3397.75
746.895	3102.84
747.079	3168.38
747.264	3192.95
747.449	3291.26
747.634	3221.63
747.819	3209.34
748.003	3014.78
748.188	3100.8
748.373	3160.19
748.557	3154.04
748.742	3145.85
748.927	3002.49
749.111	3012.73
749.296	2904.19
749.481	2936.96
749.665	2992.25
749.85	2852.99
750.034	2957.44
750.219	2879.61
750.404	2855.04
750.588	2939.01
750.773	2775.17
750.957	2807.94
751.141	2836.61
751.326	2869.37
751.51	2750.59
751.695	2701.44
751.879	2775.17
752.064	2752.64
752.248	2732.16
752.432	2721.92
752.617	2539.65
752.801	2787.46
752.985	2629.76
753.17	2656.39
753.354	2652.29
753.538	2551.94
753.722	2529.41
753.907	2580.61
754.091	2539.65
754.275	2672.77
754.459	2570.37
754.643	2453.64
754.828	2416.77
755.012	2406.53
755.196	2529.41
755.38	2406.53
755.564	2330.76
755.748	2355.33
755.932	2410.63
756.116	2394.25
756.3	2357.38
756.484	2375.81
756.668	2302.09
756.852	2199.69
757.036	2218.12
757.22	2216.07
757.404	2228.36
757.588	2117.77
757.772	2166.92
757.956	2216.07
758.14	2279.56
758.323	2125.96
758.507	2091.15
758.691	2060.43
758.875	2121.87
759.059	2154.63
759.242	1970.32
759.426	2091.15
759.61	1992.84
759.794	2023.56
759.977	2085
760.161	2121.87
760.345	2082.95
760.528	1974.41
760.712	2015.37
760.895	1906.83
761.079	1910.93
761.263	1931.41
761.446	1861.77
761.63	1947.79
761.813	1906.83
761.997	1816.72
762.18	1824.91
762.364	1996.94
762.547	1699.98
762.731	1898.64
762.914	1847.44
763.098	1818.77
763.281	1822.86
763.464	1822.86
763.648	1679.51
763.831	1747.09
764.015	1734.8
764.198	1740.94
764.381	1702.03
764.564	1734.8
764.748	1699.98
764.931	1648.79
765.114	1800.34
765.297	1816.72
765.481	1538.2
765.664	1677.46
765.847	1730.7
766.03	1734.8
766.213	1646.74
766.397	1749.14
766.58	1749.14
766.763	1718.42
766.946	1575.06
767.129	1548.44
767.312	1554.58
767.495	1560.72
767.678	1636.5
767.861	1699.98
768.044	1542.29
768.227	1552.53
768.41	1513.62
768.593	1603.73
768.776	1601.68
768.959	1525.91
769.142	1566.87
769.324	1558.67
769.507	1556.63
769.69	1458.32
769.873	1464.47
770.056	1620.11
770.239	1464.47
770.421	1519.76
770.604	1415.32
770.787	1431.7
770.97	1527.96
771.152	1464.47
771.335	1366.17
771.518	1431.7
771.7	1538.2
771.883	1394.84
772.066	1437.84
772.248	1398.93
772.431	1261.72
772.613	1400.98
772.796	1257.62
772.978	1437.84
773.161	1437.84
773.343	1355.93
773.526	1329.3
773.708	1302.68
773.891	1335.45
774.073	1351.83
774.256	1196.18
774.438	1478.8
774.621	1228.95
774.803	1357.97
774.985	1259.67
775.168	1300.63
775.35	1167.51
775.532	1243.29
775.715	1163.42
775.897	1267.86
776.079	1206.42
776.261	1159.32
776.444	1202.33
776.626	1159.32
776.808	1220.76
776.99	1075.35
777.173	1104.03
777.355	1216.66
777.537	1013.92
777.719	1175.7
777.901	1153.18
778.083	1056.92
778.265	1071.26
778.447	1093.79
778.629	1044.63
778.811	1077.4
778.993	1046.68
779.175	1134.75
779.357	1083.55
779.539	1046.68
779.721	1077.4
779.903	1024.16
780.085	989.34
780.267	1007.77
780.449	1063.07
780.631	940.19
780.812	1063.07
780.994	940.19
781.176	919.71
781.358	827.55
781.54	975
781.721	958.62
781.903	956.57
782.085	807.07
782.267	860.32
782.448	913.56
782.63	925.85
782.812	909.47
782.993	948.38
783.175	864.41
783.357	841.89
783.538	913.56
783.72	743.58
783.901	837.79
784.083	837.79
784.264	792.73
784.446	784.54
784.627	745.63
784.809	868.51
784.99	719.01
785.172	759.97
785.353	790.69
785.535	839.84
785.716	708.77
785.897	698.53
786.079	710.82
786.26	714.91
786.441	706.72
786.623	579.75
786.804	714.91
786.985	725.15
787.167	667.81
787.348	696.48
787.529	721.06
787.71	778.4
787.891	802.97
788.073	598.18
788.254	676
788.435	684.19
788.616	643.23
788.797	637.09
788.978	645.28
789.159	624.8
789.34	645.28
789.522	594.08
789.703	620.71
789.884	639.14
790.065	663.71
790.246	571.55
790.427	596.13
790.607	639.14
790.788	635.04
790.969	516.26
791.15	567.46
791.331	534.69
791.512	610.47
791.693	585.89
791.874	559.27
792.054	733.34
792.235	571.55
792.416	575.65
792.597	563.36
792.778	596.13
792.958	589.99
793.139	567.46
793.32	583.84
793.5	577.7
793.681	671.9
793.862	473.25
794.042	546.98
794.223	467.11
794.404	518.31
794.584	415.91
794.765	506.02
794.945	479.4
795.126	616.61
795.306	471.2
795.487	516.26
795.667	417.96
795.848	520.35
796.028	430.24
796.209	540.83
796.389	522.4
796.57	514.21
796.75	415.91
796.93	417.96
797.111	475.3
797.291	401.57
797.471	561.31
797.652	413.86
797.832	370.85
798.012	520.35
798.192	465.06
798.373	393.38
798.553	413.86
798.733	415.91
798.913	381.09
799.093	510.11
799.274	471.2
799.454	426.15
799.634	508.07
799.814	393.38
799.994	477.35
800.174	348.33
800.354	284.84
800.534	346.28
800.714	444.58
800.894	295.08
801.074	364.71
801.254	303.27
801.434	501.92
801.614	395.43
801.794	430.24
801.974	1329.3
802.154	323.75
802.334	413.86
802.514	366.76
802.693	352.42
802.873	333.99
803.053	389.28
803.233	368.81
803.413	331.94
803.592	372.9
803.772	321.7
803.952	440.48
804.131	303.27
804.311	438.44
804.491	372.9
804.67	344.23
804.85	290.98
805.03	436.39
805.209	223.4
805.389	313.51
805.568	295.08
805.748	317.61
805.928	348.33
806.107	286.89
806.287	336.04
806.466	358.57
806.646	307.37
806.825	315.56
807.004	315.56
807.184	235.69
807.363	333.99
807.543	299.17
807.722	323.75
807.901	331.94
808.081	290.98
808.26	284.84
808.439	303.27
808.619	305.32
808.798	325.8
808.977	301.22
809.156	299.17
809.336	268.45
809.515	297.13
809.694	247.97
809.873	237.74
810.052	333.99
810.231	282.79
810.411	252.07
810.59	370.85
810.769	274.6
810.948	362.66
811.127	221.35
811.306	258.21
811.485	252.07
811.664	272.55
811.843	200.87
812.022	239.78
812.201	274.6
812.38	237.74
812.559	213.16
812.737	280.74
812.916	211.11
813.095	235.69
813.274	311.46
813.453	233.64
813.632	184.49
813.811	301.22
813.989	166.06
814.168	252.07
814.347	280.74
814.526	186.54
814.704	192.68
814.883	284.84
815.062	157.86
815.24	256.17
815.419	202.92
815.598	286.89
815.776	174.25
815.955	211.11
816.133	151.72
816.312	258.21
816.49	164.01
816.669	204.97
816.847	227.5
817.026	170.15
817.204	192.68
817.383	221.35
817.561	145.58
817.74	209.06
817.918	250.02
818.097	233.64
818.275	194.73
818.453	305.32
818.632	217.26
818.81	184.49
818.988	139.43
819.167	131.24
819.345	178.34
819.523	211.11
819.701	186.54
819.879	161.96
820.058	221.35
820.236	233.64
820.414	286.89
820.592	147.62
820.77	235.69
820.948	188.58
821.127	139.43
821.305	174.25
821.483	194.73
821.661	254.12
821.839	149.67
822.017	184.49
822.195	200.87
822.373	200.87
822.551	207.02
822.729	190.63
822.907	112.81
823.085	196.78
823.262	159.91
823.44	127.14
823.618	184.49
823.796	135.34
823.974	178.34
824.152	112.81
824.329	141.48
824.507	213.16
824.685	174.25
824.863	110.76
825.04	180.39
825.218	166.06
825.396	135.34
825.574	176.3
825.751	131.24
825.929	174.25
826.107	172.2
826.284	129.19
826.462	200.87
826.639	121
826.817	96.43
826.994	100.52
827.172	75.95
827.349	159.91
827.527	147.62
827.704	194.73
827.882	100.52
828.059	174.25
828.237	127.14
828.414	221.35
828.591	49.32
828.769	133.29
828.946	102.57
829.124	159.91
829.301	145.58
829.478	155.82
829.655	149.67
829.833	94.38
830.01	86.19
830.187	161.96
830.364	77.99
830.542	135.34
830.719	145.58
830.896	161.96
831.073	135.34
831.25	106.67
831.427	139.43
831.604	184.49
831.782	143.53
831.959	174.25
832.136	47.27
832.313	143.53
832.49	37.03
832.667	170.15
832.844	168.1
833.021	176.3
833.198	127.14
833.374	194.73
833.551	100.52
833.728	57.51
833.905	69.8
834.082	102.57
834.259	90.28
834.436	178.34
834.612	51.37
834.789	127.14
834.966	114.86
835.143	200.87
835.319	125.1
835.496	194.73
835.673	121
835.85	174.25
836.026	141.48
836.203	116.9
836.38	94.38
836.556	82.09
836.733	77.99
836.909	135.34
837.086	94.38
837.262	65.71
837.439	98.47
837.616	100.52
837.792	84.14
837.968	94.38
838.145	61.61
838.321	104.62
838.498	135.34
838.674	75.95
838.851	80.04
839.027	86.19
839.203	141.48
839.38	73.9
839.556	92.33
839.732	186.54
839.909	104.62
840.085	137.38
840.261	28.84
840.437	47.27
840.614	88.23
840.79	106.67
840.966	123.05
841.142	73.9
841.318	-12.12
841.494	26.79
841.671	100.52
841.847	-14.17
842.023	86.19
842.199	55.47
842.375	80.04
842.551	-26.45
842.727	28.84
842.903	116.9
843.079	30.89
843.255	129.19
843.431	53.42
843.607	131.24
843.783	2.22
843.959	80.04
844.134	82.09
844.31	133.29
844.486	53.42
844.662	63.66
844.838	100.52
845.013	86.19
845.189	127.14
845.365	73.9
845.541	30.89
845.716	92.33
845.892	202.92
846.068	-69.46
846.244	20.65
846.419	6.31
846.595	20.65
846.77	10.41
846.946	59.56
847.122	102.57
847.297	30.89
847.473	45.23
847.648	41.13
847.824	28.84
847.999	49.32
848.175	39.08
848.35	16.55
848.526	94.38
848.701	139.43
848.876	127.14
849.052	123.05
849.227	16.55
849.403	94.38
849.578	55.47
849.753	96.43
849.929	88.23
850.104	-16.21
850.279	57.51
850.454	18.6
850.63	102.57
850.805	55.47
850.98	37.03
851.155	43.18
851.33	86.19
851.505	55.47
851.681	86.19
851.856	69.8
852.031	131.24
852.206	63.66
852.381	-10.07
852.556	67.75
852.731	94.38
852.906	75.95
853.081	77.99
853.256	37.03
853.431	-28.5
853.606	22.7
853.781	-42.84
853.956	53.42
854.131	14.51
854.305	69.8
854.48	53.42
854.655	55.47
854.83	94.38
855.005	-26.45
855.18	-5.97
855.354	94.38
855.529	6.31
855.704	104.62
855.879	57.51
856.053	82.09
856.228	77.99
856.403	-18.26
856.577	41.13
856.752	6.31
856.926	-38.74
857.101	-26.45
857.276	4.27
857.45	0.17
857.625	69.8
857.799	-14.17
857.974	-8.02
858.148	-59.22
858.323	30.89
858.497	8.36
858.672	49.32
858.846	26.79
859.02	47.27
859.195	82.09
859.369	26.79
859.543	55.47
859.718	28.84
859.892	67.75
860.066	71.85
860.241	-18.26
860.415	-51.03
860.589	28.84
860.763	18.6
860.938	22.7
861.112	86.19
861.286	8.36
861.46	34.99
861.634	-38.74
861.808	-1.88
861.982	28.84
862.157	-20.31
862.331	-61.27
862.505	16.55
862.679	39.08
862.853	30.89
863.027	43.18
863.201	47.27
863.375	-102.23
863.549	41.13
863.722	47.27
863.896	90.28
864.07	-1.88
864.244	20.65
864.418	-14.17
864.592	34.99
864.766	-24.4
864.939	-20.31
865.113	-1.88
865.287	8.36
865.461	10.41
865.634	24.75
865.808	-5.97
865.982	12.46
866.156	20.65
866.329	39.08
866.503	6.31
866.676	22.7
866.85	8.36
867.024	-32.6
867.197	77.99
867.371	4.27
867.544	-20.31
867.718	-53.08
867.891	39.08
868.065	-83.8
868.238	32.94
868.412	94.38
868.585	12.46
868.759	8.36
868.932	2.22
869.105	-12.12
869.279	84.14
869.452	-75.6
869.625	47.27
869.799	-16.21
869.972	-28.5
870.145	18.6
870.319	32.94
870.492	-32.6
870.665	30.89
870.838	-3.93
871.011	-48.98
871.185	28.84
871.358	20.65
871.531	67.75
871.704	-53.08
871.877	37.03
872.05	-8.02
872.223	-44.88
872.396	6.31
872.569	86.19
872.742	-10.07
872.915	6.31
873.088	-12.12
873.261	-14.17
873.434	41.13
873.607	26.79
873.78	43.18
873.953	-81.75
874.126	84.14
874.299	24.75
874.471	-3.93
874.644	-1.88
874.817	43.18
874.99	102.57
875.163	-8.02
875.335	47.27
875.508	-20.31
875.681	73.9
875.853	6.31
876.026	6.31
876.199	12.46
876.371	16.55
876.544	-22.36
876.717	-69.46
876.889	-34.64
877.062	53.42
877.234	-40.79
877.407	18.6
877.579	-77.65
877.752	26.79
877.924	-12.12
878.097	73.9
878.269	-59.22
878.442	-1.88
878.614	41.13
878.786	-22.36
878.959	51.37
879.131	32.94
879.303	-42.84
879.476	-44.88
879.648	41.13
879.82	69.8
879.993	-51.03
880.165	-38.74
880.337	28.84
880.509	37.03
880.681	-53.08
880.854	-75.6
881.026	14.51
881.198	71.85
881.37	-28.5
881.542	-18.26
881.714	-8.02
881.886	26.79
882.058	-32.6
882.23	10.41
882.402	4.27
882.574	6.31
882.746	49.32
882.918	71.85
883.09	24.75
883.262	-14.17
883.434	55.47
883.606	-53.08
883.778	-32.6
883.95	90.28
884.122	-57.17
884.293	112.81
884.465	65.71
884.637	32.94
884.809	-30.55
884.98	14.51
885.152	-48.98
885.324	73.9
885.496	-1.88
885.667	49.32
885.839	12.46
886.011	104.62
886.182	-32.6
886.354	53.42
886.525	12.46
886.697	86.19
886.869	47.27
887.04	-8.02
887.212	-16.21
887.383	110.76
887.555	2.22
887.726	34.99
887.897	-24.4
888.069	37.03
888.24	-28.5
888.412	-32.6
888.583	28.84
888.754	20.65
888.926	-44.88
889.097	0.17
889.268	-59.22
889.44	-69.46
889.611	-57.17
889.782	-91.99
889.953	-48.98
890.125	18.6
890.296	37.03
890.467	-24.4
890.638	-22.36
890.809	67.75
890.98	-22.36
891.151	69.8
891.323	39.08
891.494	-28.5
891.665	-8.02
891.836	28.84
892.007	-18.26
892.178	104.62
892.349	28.84
892.52	-44.88
892.691	26.79
892.862	-48.98
893.032	-79.7
893.203	-3.93
893.374	45.23
893.545	-8.02
893.716	12.46
893.887	51.37
894.057	71.85
894.228	-46.93
894.399	-26.45
894.57	34.99
894.74	10.41
894.911	20.65
895.082	-20.31
895.253	22.7
895.423	-40.79
895.594	12.46
895.764	30.89
895.935	-100.18
896.106	71.85
896.276	-28.5
896.447	41.13
896.617	-24.4
896.788	-26.45
896.958	-5.97
897.129	-14.17
897.299	41.13
897.47	14.51
897.64	41.13
897.81	-44.88
897.981	6.31
898.151	-79.7
898.322	18.6
898.492	51.37
898.662	-8.02
898.832	32.94
899.003	-12.12
899.173	-1.88
899.343	-42.84
899.513	-38.74
