Data from USB4F104151__85__13-06-15-118.txt Node

Date: Fri Mar 14 13:06:15 EDT 2025
User: louis
Spectrometer: USB4F10415
Trigger mode: 4
Integration Time (sec): 4.000000E-2
Scans to average: 1
Electric dark correction enabled: true
Nonlinearity correction enabled: false
Boxcar width: 0
XAxis mode: Wavelengths
Number of Pixels in Spectrum: 3648
>>>>>Begin Spectral Data<<<<<
178.204	-172.71
178.424	-172.71
178.644	-172.71
178.864	-221.86
179.084	-156.33
179.304	5.46
179.524	-76.46
179.744	17.75
179.964	23.89
180.184	91.48
180.404	-0.68
180.624	50.52
180.844	21.84
181.064	-101.03
181.283	-27.31
181.503	-66.22
181.723	60.76
181.943	-19.11
182.163	73.04
182.383	-27.31
182.602	44.37
182.822	87.38
183.042	95.57
183.262	52.56
183.482	48.47
183.701	50.52
183.921	-21.16
184.141	9.56
184.361	111.96
184.58	-21.16
184.8	-6.83
185.02	62.8
185.239	71
185.459	109.91
185.679	71
185.898	30.04
186.118	56.66
186.338	50.52
186.557	44.37
186.777	-0.68
186.997	60.76
187.216	38.23
187.436	71
187.655	95.57
187.875	81.24
188.095	23.89
188.314	83.28
188.534	136.53
188.753	-25.26
188.973	38.23
189.192	91.48
189.412	34.13
189.631	91.48
189.851	-55.98
190.07	107.86
190.29	-6.83
190.509	34.13
190.729	-12.97
190.948	89.43
191.168	234.83
191.387	93.52
191.607	-25.26
191.826	54.61
192.045	-39.59
192.265	5.46
192.484	30.04
192.704	89.43
192.923	56.66
193.142	91.48
193.362	-15.02
193.581	107.86
193.8	64.85
194.02	79.19
194.239	27.99
194.458	97.62
194.678	23.89
194.897	50.52
195.116	32.08
195.335	36.18
195.555	95.57
195.774	40.28
195.993	81.24
196.212	21.84
196.432	23.89
196.651	-8.87
196.87	21.84
197.089	173.39
197.308	50.52
197.528	58.71
197.747	-68.27
197.966	-23.21
198.185	144.72
198.404	50.52
198.623	93.52
198.842	144.72
199.062	89.43
199.281	48.47
199.5	130.39
199.719	71
199.938	136.53
200.157	132.44
200.376	103.76
200.595	103.76
200.814	48.47
201.033	30.04
201.252	68.95
201.471	66.9
201.69	101.72
201.909	73.04
202.128	5.46
202.347	87.38
202.566	50.52
202.785	1.37
203.004	-6.83
203.223	165.2
203.442	73.04
203.661	-31.4
203.879	83.28
204.098	89.43
204.317	32.08
204.536	79.19
204.755	13.65
204.974	23.89
205.193	64.85
205.411	144.72
205.63	73.04
205.849	-6.83
206.068	52.56
206.287	23.89
206.505	99.67
206.724	54.61
206.943	-2.73
207.162	38.23
207.381	87.38
207.599	42.32
207.818	5.46
208.037	-25.26
208.255	56.66
208.474	73.04
208.693	-17.07
208.911	-2.73
209.13	32.08
209.349	-2.73
209.567	103.76
209.786	126.29
210.005	101.72
210.223	40.28
210.442	-45.74
210.661	11.61
210.879	50.52
211.098	27.99
211.316	79.19
211.535	79.19
211.753	-10.92
211.972	68.95
212.191	42.32
212.409	114
212.628	105.81
212.846	11.61
213.065	46.42
213.283	79.19
213.502	103.76
213.72	81.24
213.938	73.04
214.157	-21.16
214.375	75.09
214.594	17.75
214.812	79.19
215.031	46.42
215.249	40.28
215.467	21.84
215.686	3.41
215.904	71
216.122	62.8
216.341	87.38
216.559	64.85
216.778	71
216.996	75.09
217.214	66.9
217.432	-35.5
217.651	11.61
217.869	66.9
218.087	56.66
218.306	46.42
218.524	75.09
218.742	21.84
218.96	-29.35
219.179	27.99
219.397	38.23
219.615	134.48
219.833	56.66
220.051	99.67
220.27	75.09
220.488	54.61
220.706	44.37
220.924	23.89
221.142	-6.83
221.36	23.89
221.578	87.38
221.796	81.24
222.015	7.51
222.233	-2.73
222.451	101.72
222.669	-25.26
222.887	44.37
223.105	-12.97
223.323	17.75
223.541	-10.92
223.759	81.24
223.977	40.28
224.195	111.96
224.413	42.32
224.631	30.04
224.849	46.42
225.067	185.68
225.285	89.43
225.503	44.37
225.721	1.37
225.939	1.37
226.157	40.28
226.375	206.16
226.592	3.41
226.81	93.52
227.028	79.19
227.246	89.43
227.464	1.37
227.682	91.48
227.9	52.56
228.117	87.38
228.335	87.38
228.553	54.61
228.771	136.53
228.989	-0.68
229.206	27.99
229.424	56.66
229.642	5.46
229.86	68.95
230.077	58.71
230.295	118.1
230.513	120.15
230.731	83.28
230.948	83.28
231.166	44.37
231.384	56.66
231.601	-76.46
231.819	83.28
232.037	30.04
232.254	15.7
232.472	-4.78
232.689	44.37
232.907	85.33
233.125	128.34
233.342	27.99
233.56	30.04
233.777	40.28
233.995	48.47
234.213	42.32
234.43	40.28
234.648	40.28
234.865	62.8
235.083	30.04
235.3	109.91
235.518	44.37
235.735	30.04
235.953	71
236.17	-17.07
236.388	13.65
236.605	3.41
236.822	64.85
237.04	25.94
237.257	66.9
237.475	-4.78
237.692	17.75
237.909	17.75
238.127	64.85
238.344	85.33
238.562	118.1
238.779	-55.98
238.996	30.04
239.214	19.8
239.431	5.46
239.648	62.8
239.865	89.43
240.083	30.04
240.3	-23.21
240.517	21.84
240.735	7.51
240.952	58.71
241.169	52.56
241.386	62.8
241.603	-25.26
241.821	-6.83
242.038	83.28
242.255	66.9
242.472	62.8
242.689	71
242.907	71
243.124	-8.87
243.341	27.99
243.558	30.04
243.775	83.28
243.992	-31.4
244.209	30.04
244.426	132.44
244.643	107.86
244.86	44.37
245.078	105.81
245.295	-4.78
245.512	66.9
245.729	21.84
245.946	62.8
246.163	99.67
246.38	32.08
246.597	44.37
246.814	15.7
247.031	120.15
247.248	75.09
247.464	118.1
247.681	48.47
247.898	103.76
248.115	30.04
248.332	85.33
248.549	136.53
248.766	83.28
248.983	81.24
249.2	7.51
249.417	85.33
249.633	23.89
249.85	40.28
250.067	3.41
250.284	15.7
250.501	132.44
250.717	89.43
250.934	44.37
251.151	89.43
251.368	107.86
251.585	120.15
251.801	1.37
252.018	-64.17
252.235	107.86
252.451	54.61
252.668	11.61
252.885	91.48
253.102	83.28
253.318	38.23
253.535	5.46
253.752	15.7
253.968	21.84
254.185	-10.92
254.401	60.76
254.618	56.66
254.835	-8.87
255.051	109.91
255.268	91.48
255.484	66.9
255.701	77.14
255.917	17.75
256.134	114
256.351	-27.31
256.567	-0.68
256.784	36.18
257	-82.6
257.217	105.81
257.433	62.8
257.65	77.14
257.866	79.19
258.082	42.32
258.299	7.51
258.515	54.61
258.732	-8.87
258.948	17.75
259.165	11.61
259.381	25.94
259.597	40.28
259.814	25.94
260.03	-2.73
260.246	27.99
260.463	54.61
260.679	79.19
260.895	114
261.112	81.24
261.328	58.71
261.544	30.04
261.761	167.25
261.977	79.19
262.193	7.51
262.409	56.66
262.626	58.71
262.842	109.91
263.058	-0.68
263.274	89.43
263.49	27.99
263.707	7.51
263.923	83.28
264.139	-2.73
264.355	77.14
264.571	40.28
264.787	13.65
265.004	54.61
265.22	58.71
265.436	50.52
265.652	107.86
265.868	85.33
266.084	-2.73
266.3	-8.87
266.516	-68.27
266.732	-8.87
266.948	17.75
267.164	42.32
267.38	101.72
267.596	-31.4
267.812	177.49
268.028	64.85
268.244	15.7
268.46	-0.68
268.676	36.18
268.892	56.66
269.108	-53.93
269.324	-8.87
269.54	44.37
269.756	44.37
269.972	1.37
270.188	85.33
270.403	-41.64
270.619	-51.88
270.835	99.67
271.051	62.8
271.267	-12.97
271.483	27.99
271.698	58.71
271.914	5.46
272.13	97.62
272.346	62.8
272.562	81.24
272.777	79.19
272.993	73.04
273.209	50.52
273.425	42.32
273.64	-31.4
273.856	87.38
274.072	23.89
274.287	46.42
274.503	25.94
274.719	83.28
274.934	-0.68
275.15	3.41
275.366	-23.21
275.581	-12.97
275.797	-12.97
276.012	48.47
276.228	114
276.444	1.37
276.659	97.62
276.875	-33.45
277.09	21.84
277.306	32.08
277.521	66.9
277.737	15.7
277.952	71
278.168	-6.83
278.383	-0.68
278.599	-58.03
278.814	23.89
279.03	9.56
279.245	97.62
279.461	68.95
279.676	89.43
279.892	-27.31
280.107	-19.11
280.322	19.8
280.538	95.57
280.753	25.94
280.969	91.48
281.184	-2.73
281.399	89.43
281.615	56.66
281.83	99.67
282.045	-4.78
282.26	-84.65
282.476	5.46
282.691	99.67
282.906	71
283.122	36.18
283.337	-17.07
283.552	15.7
283.767	21.84
283.983	128.34
284.198	34.13
284.413	-10.92
284.628	-31.4
284.843	105.81
285.058	17.75
285.274	42.32
285.489	25.94
285.704	23.89
285.919	9.56
286.134	54.61
286.349	-4.78
286.564	-27.31
286.779	87.38
286.995	48.47
287.21	13.65
287.425	93.52
287.64	-45.74
287.855	48.47
288.07	36.18
288.285	79.19
288.5	79.19
288.715	60.76
288.93	-12.97
289.145	38.23
289.36	27.99
289.575	-66.22
289.79	64.85
290.004	-37.55
290.219	60.76
290.434	27.99
290.649	1.37
290.864	40.28
291.079	99.67
291.294	40.28
291.509	21.84
291.724	71
291.938	-10.92
292.153	97.62
292.368	54.61
292.583	46.42
292.798	38.23
293.012	71
293.227	71
293.442	-27.31
293.657	105.81
293.871	97.62
294.086	71
294.301	120.15
294.516	95.57
294.73	56.66
294.945	-19.11
295.16	-15.02
295.374	66.9
295.589	81.24
295.804	34.13
296.018	68.95
296.233	83.28
296.447	75.09
296.662	-8.87
296.877	138.58
297.091	79.19
297.306	38.23
297.52	15.7
297.735	23.89
297.949	3.41
298.164	48.47
298.378	99.67
298.593	13.65
298.807	44.37
299.022	23.89
299.236	93.52
299.451	21.84
299.665	-4.78
299.88	71
300.094	79.19
300.309	136.53
300.523	32.08
300.737	27.99
300.952	109.91
301.166	-10.92
301.381	36.18
301.595	38.23
301.809	42.32
302.024	109.91
302.238	-0.68
302.452	77.14
302.667	19.8
302.881	128.34
303.095	30.04
303.309	9.56
303.524	23.89
303.738	-31.4
303.952	-17.07
304.166	30.04
304.381	-2.73
304.595	66.9
304.809	34.13
305.023	99.67
305.237	36.18
305.452	17.75
305.666	87.38
305.88	87.38
306.094	111.96
306.308	13.65
306.522	62.8
306.736	89.43
306.95	111.96
307.164	77.14
307.379	40.28
307.593	138.58
307.807	101.72
308.021	-17.07
308.235	34.13
308.449	-35.5
308.663	54.61
308.877	128.34
309.091	83.28
309.305	-31.4
309.519	27.99
309.733	95.57
309.947	-49.83
310.161	62.8
310.374	107.86
310.588	97.62
310.802	38.23
311.016	54.61
311.23	40.28
311.444	46.42
311.658	111.96
311.872	134.48
312.085	52.56
312.299	68.95
312.513	62.8
312.727	50.52
312.941	13.65
313.154	40.28
313.368	-23.21
313.582	95.57
313.796	89.43
314.009	161.11
314.223	68.95
314.437	15.7
314.651	58.71
314.864	-2.73
315.078	36.18
315.292	-27.31
315.505	-21.16
315.719	62.8
315.933	144.72
316.146	103.76
316.36	-10.92
316.573	42.32
316.787	89.43
317.001	87.38
317.214	40.28
317.428	79.19
317.641	75.09
317.855	85.33
318.068	1.37
318.282	25.94
318.495	107.86
318.709	5.46
318.922	23.89
319.136	171.35
319.349	101.72
319.563	54.61
319.776	50.52
319.99	15.7
320.203	111.96
320.417	54.61
320.63	79.19
320.843	124.24
321.057	107.86
321.27	120.15
321.483	73.04
321.697	120.15
321.91	38.23
322.124	77.14
322.337	81.24
322.55	-15.02
322.763	79.19
322.977	62.8
323.19	1.37
323.403	42.32
323.617	50.52
323.83	154.96
324.043	38.23
324.256	79.19
324.469	19.8
324.683	128.34
324.896	-19.11
325.109	-55.98
325.322	-33.45
325.535	83.28
325.748	79.19
325.962	89.43
326.175	50.52
326.388	73.04
326.601	56.66
326.814	48.47
327.027	73.04
327.24	126.29
327.453	-37.55
327.666	101.72
327.879	177.49
328.092	140.63
328.305	3.41
328.518	71
328.731	50.52
328.944	40.28
329.157	48.47
329.37	32.08
329.583	71
329.796	132.44
330.009	-6.83
330.222	71
330.435	42.32
330.648	118.1
330.861	66.9
331.073	-10.92
331.286	120.15
331.499	54.61
331.712	1.37
331.925	-15.02
332.138	25.94
332.35	161.11
332.563	-17.07
332.776	-0.68
332.989	-23.21
333.202	73.04
333.414	-47.79
333.627	-19.11
333.84	-25.26
334.053	103.76
334.265	46.42
334.478	32.08
334.691	66.9
334.903	111.96
335.116	-17.07
335.329	54.61
335.541	101.72
335.754	66.9
335.966	50.52
336.179	-2.73
336.392	116.05
336.604	42.32
336.817	128.34
337.029	93.52
337.242	-15.02
337.454	97.62
337.667	116.05
337.88	71
338.092	46.42
338.305	36.18
338.517	81.24
338.729	81.24
338.942	142.68
339.154	9.56
339.367	21.84
339.579	64.85
339.792	-0.68
340.004	128.34
340.217	56.66
340.429	25.94
340.641	5.46
340.854	17.75
341.066	54.61
341.278	122.2
341.491	142.68
341.703	13.65
341.915	71
342.128	75.09
342.34	38.23
342.552	83.28
342.764	56.66
342.977	42.32
343.189	25.94
343.401	103.76
343.613	9.56
343.826	93.52
344.038	32.08
344.25	38.23
344.462	-25.26
344.674	66.9
344.886	21.84
345.099	73.04
345.311	44.37
345.523	89.43
345.735	11.61
345.947	105.81
346.159	42.32
346.371	95.57
346.583	64.85
346.795	99.67
347.007	66.9
347.219	89.43
347.431	89.43
347.643	128.34
347.855	48.47
348.067	46.42
348.279	-0.68
348.491	111.96
348.703	89.43
348.915	87.38
349.127	7.51
349.339	93.52
349.551	11.61
349.763	25.94
349.975	118.1
350.187	126.29
350.399	95.57
350.61	30.04
350.822	52.56
351.034	15.7
351.246	36.18
351.458	120.15
351.669	85.33
351.881	54.61
352.093	87.38
352.305	105.81
352.517	-21.16
352.728	107.86
352.94	32.08
353.152	27.99
353.363	17.75
353.575	116.05
353.787	50.52
353.999	56.66
354.21	144.72
354.422	19.8
354.633	44.37
354.845	50.52
355.057	99.67
355.268	38.23
355.48	73.04
355.692	-27.31
355.903	1.37
356.115	32.08
356.326	-41.64
356.538	77.14
356.749	81.24
356.961	85.33
357.172	62.8
357.384	23.89
357.595	73.04
357.807	-74.41
358.018	19.8
358.23	7.51
358.441	161.11
358.653	44.37
358.864	27.99
359.075	-29.35
359.287	77.14
359.498	64.85
359.709	66.9
359.921	-2.73
360.132	58.71
360.344	105.81
360.555	13.65
360.766	109.91
360.977	71
361.189	64.85
361.4	38.23
361.611	60.76
361.823	75.09
362.034	64.85
362.245	27.99
362.456	30.04
362.667	77.14
362.879	9.56
363.09	44.37
363.301	64.85
363.512	111.96
363.723	107.86
363.935	30.04
364.146	85.33
364.357	46.42
364.568	75.09
364.779	-17.07
364.99	79.19
365.201	93.52
365.412	111.96
365.623	60.76
365.834	-4.78
366.045	83.28
366.256	73.04
366.467	161.11
366.678	-27.31
366.889	91.48
367.1	107.86
367.311	109.91
367.522	-35.5
367.733	114
367.944	15.7
368.155	64.85
368.366	83.28
368.577	120.15
368.788	126.29
368.999	87.38
369.209	17.75
369.42	159.06
369.631	73.04
369.842	99.67
370.053	56.66
370.264	132.44
370.474	32.08
370.685	91.48
370.896	13.65
371.107	122.2
371.317	38.23
371.528	42.32
371.739	89.43
371.95	58.71
372.16	126.29
372.371	19.8
372.582	36.18
372.792	44.37
373.003	148.82
373.214	34.13
373.424	85.33
373.635	89.43
373.846	93.52
374.056	128.34
374.267	99.67
374.477	5.46
374.688	107.86
374.898	73.04
375.109	77.14
375.319	17.75
375.53	73.04
375.74	42.32
375.951	85.33
376.161	107.86
376.372	103.76
376.582	34.13
376.793	71
377.003	-27.31
377.214	30.04
377.424	93.52
377.635	87.38
377.845	77.14
378.055	83.28
378.266	17.75
378.476	128.34
378.686	21.84
378.897	95.57
379.107	95.57
379.317	40.28
379.528	27.99
379.738	97.62
379.948	-17.07
380.158	85.33
380.369	52.56
380.579	111.96
380.789	52.56
380.999	75.09
381.21	13.65
381.42	107.86
381.63	7.51
381.84	73.04
382.05	75.09
382.261	118.1
382.471	120.15
382.681	23.89
382.891	134.48
383.101	161.11
383.311	13.65
383.521	81.24
383.731	157.01
383.941	189.78
384.151	103.76
384.361	40.28
384.571	73.04
384.781	73.04
384.991	138.58
385.201	181.59
385.411	95.57
385.621	116.05
385.831	95.57
386.041	75.09
386.251	40.28
386.461	48.47
386.671	30.04
386.881	91.48
387.091	77.14
387.301	103.76
387.511	93.52
387.72	122.2
387.93	56.66
388.14	3.41
388.35	99.67
388.56	81.24
388.769	73.04
388.979	157.01
389.189	-4.78
389.399	111.96
389.609	93.52
389.818	138.58
390.028	93.52
390.238	161.11
390.447	-12.97
390.657	161.11
390.867	95.57
391.076	40.28
391.286	120.15
391.496	-10.92
391.705	91.48
391.915	105.81
392.125	167.25
392.334	21.84
392.544	142.68
392.753	105.81
392.963	50.52
393.172	148.82
393.382	15.7
393.591	134.48
393.801	81.24
394.01	97.62
394.22	62.8
394.429	134.48
394.639	120.15
394.848	64.85
395.058	79.19
395.267	101.72
395.477	193.87
395.686	126.29
395.895	148.82
396.105	107.86
396.314	128.34
396.524	128.34
396.733	66.9
396.942	95.57
397.152	128.34
397.361	161.11
397.57	101.72
397.78	114
397.989	124.24
398.198	191.83
398.407	202.07
398.617	71
398.826	87.38
399.035	103.76
399.244	95.57
399.453	193.87
399.663	159.06
399.872	185.68
400.081	124.24
400.29	185.68
400.499	54.61
400.708	107.86
400.917	99.67
401.127	79.19
401.336	60.76
401.545	200.02
401.754	95.57
401.963	185.68
402.172	71
402.381	38.23
402.59	167.25
402.799	148.82
403.008	154.96
403.217	216.4
403.426	204.11
403.635	52.56
403.844	114
404.053	146.77
404.262	191.83
404.471	263.51
404.68	212.31
404.888	210.26
405.097	87.38
405.306	161.11
405.515	222.55
405.724	175.44
405.933	247.12
406.142	154.96
406.35	279.89
406.559	173.39
406.768	177.49
406.977	300.37
407.185	161.11
407.394	253.27
407.603	175.44
407.812	247.12
408.02	206.16
408.229	195.92
408.438	318.8
408.646	261.46
408.855	310.61
409.064	283.98
409.272	271.7
409.481	376.14
409.69	337.23
409.898	251.22
410.107	304.46
410.315	400.72
410.524	257.36
410.733	372.05
410.941	384.34
411.15	376.14
411.358	376.14
411.567	517.45
411.775	431.44
411.984	460.11
412.192	523.6
412.401	484.69
412.609	554.32
412.818	494.93
413.026	593.23
413.234	601.42
413.443	546.12
413.651	494.93
413.86	554.32
414.068	550.22
414.276	640.33
414.485	621.9
414.693	752.97
414.901	773.45
415.11	746.83
415.318	689.48
415.526	873.8
415.734	875.85
415.943	845.13
416.151	959.81
416.359	873.8
416.567	845.13
416.776	884.04
416.984	1049.93
417.192	1119.56
417.4	1035.59
417.608	1039.69
417.817	1076.55
418.025	1160.52
418.233	1195.33
418.441	1260.87
418.649	1199.43
418.857	1436.99
419.065	1422.66
419.273	1381.7
419.481	1404.22
419.689	1656.12
419.897	1484.09
420.105	1572.16
420.313	1754.43
420.521	1772.86
420.729	1795.39
420.937	1731.9
421.145	1840.44
421.353	1867.06
421.561	2102.58
421.769	2035
421.977	2176.31
422.185	2180.4
422.393	2247.99
422.601	2409.78
422.809	2475.31
423.017	2327.86
423.224	2555.18
423.432	2708.78
423.64	2598.19
423.848	2913.58
424.056	2725.16
424.263	3042.6
424.471	2907.43
424.679	3120.42
424.887	3212.58
425.094	3212.58
425.302	3386.66
425.51	3511.58
425.718	3573.02
425.925	3677.47
426.133	3751.2
426.341	3847.45
426.548	4134.17
426.756	4134.17
426.964	4293.91
427.171	4396.31
427.379	4586.77
427.586	4623.63
427.794	4723.98
428.001	4865.29
428.209	5287.17
428.417	5088.52
428.624	5446.91
428.832	5424.39
429.039	5567.74
429.247	5547.26
429.454	5963
429.662	6442.23
429.869	5879.04
430.076	6415.6
430.284	6317.3
430.491	6534.39
430.699	6917.36
430.906	6823.15
431.114	6995.18
431.321	7165.16
431.528	7496.93
431.736	7802.08
431.943	8101.08
432.15	7986.4
432.358	8013.02
432.565	8463.57
432.772	8123.61
432.979	8950.99
433.187	9057.48
433.394	9200.84
433.601	9755.84
433.808	9839.81
434.016	9544.9
434.223	10101.95
434.43	10646.71
434.637	10642.61
434.844	11130.03
435.052	11162.79
435.259	11410.6
435.466	11584.68
435.673	11324.58
435.88	11885.73
436.087	12860.56
436.294	12801.17
436.501	12301.47
436.708	12887.18
436.915	13122.7
437.122	13573.25
437.329	13730.95
437.537	14021.76
437.743	14201.98
437.95	14238.84
438.157	14888.05
438.364	15641.7
438.571	15596.65
438.778	15578.22
438.985	16827.48
439.192	16424.03
439.399	16807
439.606	16563.29
439.813	17331.28
440.02	18439.23
440.227	18160.7
440.433	17888.32
440.64	18199.62
440.847	18420.8
441.054	18824.25
441.261	20096.03
441.467	19680.3
441.674	20403.23
441.881	20812.82
442.088	20980.76
442.294	21093.4
442.501	21343.25
442.708	21900.3
442.914	22737.91
443.121	23583.73
443.328	23194.61
443.534	24445.92
443.741	23804.91
443.948	23479.28
444.154	25222.1
444.361	25381.84
444.568	24974.3
444.774	25482.19
444.981	25619.41
445.187	26285
445.394	27634.61
445.6	27061.18
445.807	29983.63
446.013	28208.04
446.22	28930.97
446.426	30374.79
446.633	30940.03
446.839	31636.34
447.046	30139.27
447.252	32299.88
447.459	32267.11
447.665	31980.4
447.871	33207.13
448.078	34642.76
448.284	32783.2
448.491	33987.41
448.697	35418.94
448.903	36162.35
449.11	35834.67
449.316	35496.76
449.522	36447.02
449.728	37116.7
449.935	37565.21
450.141	37335.84
450.347	38304.52
450.553	37354.27
450.76	37518.1
450.966	38828.8
451.172	38552.33
451.378	39236.35
451.584	38763.27
451.791	39469.82
451.997	39422.72
452.203	40276.72
452.409	39959.28
452.615	40411.88
452.821	38757.13
453.027	38306.57
453.233	40387.31
453.44	38763.27
453.646	39516.92
453.852	39301.89
454.058	40254.19
454.264	38748.93
454.47	39674.62
454.676	38654.73
454.882	39889.65
455.088	36045.62
455.294	37030.69
455.5	37436.19
455.705	38142.74
455.911	36459.31
456.117	36004.66
456.323	35445.56
456.529	33485.65
456.735	34949.95
456.941	34128.72
457.147	33928.02
457.352	32670.56
457.558	32240.49
457.764	32795.49
457.97	31888.24
458.176	31181.69
458.381	31087.48
458.587	29619.09
458.793	29793.17
458.999	28347.3
459.204	30239.62
459.41	29682.58
459.616	27208.63
459.821	27222.97
460.027	27339.7
460.233	26889.15
460.438	25412.56
460.644	25586.64
460.85	24300.51
461.055	23985.13
461.261	23802.86
461.466	22187.01
461.672	21599.24
461.878	23268.34
462.083	21496.85
462.289	21312.53
462.494	21081.11
462.7	20200.48
462.905	19506.22
463.111	20395.04
463.316	20110.37
463.522	19741.74
463.727	19856.42
463.932	19850.28
464.138	19678.25
464.343	19815.46
464.549	19070
464.754	19700.78
464.959	19731.5
465.165	19315.76
465.37	18699.32
465.575	17861.7
465.781	18965.56
465.986	19262.51
466.191	18140.22
466.397	17943.62
466.602	17026.13
466.807	17953.86
467.012	17740.87
467.218	17767.49
467.423	17308.75
467.628	17505.35
467.833	17998.91
468.038	17589.32
468.244	16899.16
468.449	17861.7
468.654	17206.35
468.859	17071.18
469.064	16946.26
469.269	16211.04
469.474	16424.03
469.679	16811.09
469.885	16327.77
470.09	16667.74
470.295	16299.1
470.5	15981.67
470.705	16188.51
470.91	15727.72
471.115	15717.48
471.32	15834.21
471.525	15834.21
471.73	15436.91
471.935	15199.34
472.139	14652.53
472.344	14888.05
472.549	14972.02
472.754	14720.12
472.959	14605.43
473.164	13974.66
473.369	14154.88
473.574	14314.62
473.778	14144.64
473.983	14265.47
474.188	14210.17
474.393	13522.05
474.598	13546.63
474.802	13415.56
475.007	13231.24
475.212	13464.71
475.417	12870.8
475.621	13212.81
475.826	12938.38
476.031	12713.11
476.235	12391.58
476.44	12563.61
476.645	12383.38
476.849	12450.97
477.054	12358.81
477.259	12039.33
477.463	12213.4
477.668	11908.26
477.872	11803.81
478.077	11666.6
478.282	11213.99
478.486	11459.75
478.691	11254.95
478.895	11156.65
479.1	11365.54
479.304	11267.24
479.509	10716.34
479.713	11162.79
479.918	10988.72
480.122	10745.01
480.326	10914.99
480.531	10722.48
480.735	10648.75
480.94	10421.43
481.144	10779.82
481.348	10491.06
481.553	10634.42
481.757	10394.81
481.961	10384.57
482.166	10476.73
482.37	10433.72
482.574	10427.57
482.778	10269.88
482.983	10376.37
483.187	10140.86
483.391	10304.7
483.595	10147
483.8	10187.96
484.004	10443.96
484.208	10527.92
484.412	10300.6
484.616	10294.46
484.821	10380.47
485.025	10054.84
485.229	10112.19
485.433	10130.62
485.637	10446.01
485.841	10353.85
486.045	10259.64
486.249	10118.33
486.453	10169.53
486.657	10263.74
486.861	10345.66
487.065	10157.24
487.269	10263.74
487.473	10155.19
487.677	10329.27
487.881	10661.04
488.085	10450.1
488.289	10364.09
488.493	10323.13
488.697	10507.44
488.901	10478.77
489.105	10362.04
489.309	10443.96
489.512	10511.54
489.716	10474.68
489.92	10368.18
490.124	10302.65
490.328	10622.13
490.531	10540.21
490.735	10536.12
490.939	10806.45
491.143	10443.96
491.346	10542.26
491.55	10777.78
491.754	10785.97
491.958	10900.65
492.161	10636.47
492.365	10851.5
492.569	10697.91
492.772	10843.31
492.976	11095.21
493.18	11023.53
493.383	11125.93
493.587	11089.07
493.79	11359.4
493.994	11195.56
494.197	11334.82
494.401	11371.69
494.605	11259.05
494.808	11828.38
495.012	11482.28
495.215	11855.01
495.419	11785.38
495.622	11879.58
495.825	11922.59
496.029	12217.5
496.232	12219.55
496.436	12141.72
496.639	12532.89
496.843	12360.86
497.046	12432.54
497.249	12903.57
497.453	12876.94
497.656	12965.01
497.859	13005.97
498.063	13143.18
498.266	13468.81
498.469	13479.05
498.673	13681.8
498.876	13724.8
499.079	13780.1
499.282	13814.91
499.485	14406.78
499.689	14283.9
499.892	14253.18
500.095	14603.38
500.298	14613.62
500.501	14652.53
500.705	14693.49
500.908	15082.61
501.111	15391.85
501.314	15541.35
501.517	15522.92
501.72	15676.52
501.923	15758.44
502.126	16057.44
502.329	16342.11
502.532	16426.07
502.735	16544.86
502.938	16907.35
503.141	17108.05
503.344	17106
503.547	17294.41
503.75	17544.27
503.953	17724.49
504.156	17964.1
504.359	17980.48
504.562	18211.9
504.765	18678.84
504.968	18545.72
505.17	19223.6
505.373	18820.15
505.576	19151.92
505.779	19461.16
505.982	19627.05
506.185	19862.57
506.387	19921.96
506.59	20155.43
506.793	20509.72
506.996	20268.06
507.198	21314.58
507.401	20704.28
507.604	21517.33
507.807	21636.11
508.009	21918.73
508.212	22047.75
508.415	22107.14
508.617	22377.47
508.82	22604.8
509.022	22608.89
509.225	23090.17
509.428	23110.64
509.63	23378.93
509.833	23622.64
510.035	24183.78
510.238	23991.27
510.44	24151.01
510.643	24757.21
510.845	24994.78
511.048	24923.1
511.25	25000.92
511.453	25172.95
511.655	26217.41
511.858	25840.59
512.06	26063.82
512.262	26459.07
512.465	26151.88
512.667	26973.11
512.87	27317.17
513.072	27208.63
513.274	27569.07
513.477	28216.23
513.679	28226.47
513.881	28509.09
514.084	28758.94
514.286	28650.4
514.488	29162.39
514.69	29793.17
514.893	29672.34
515.095	29971.34
515.297	30360.45
515.499	30292.87
515.701	31005.56
515.904	31034.24
516.106	31605.62
516.308	31714.16
516.51	31970.16
516.712	31531.89
516.914	32369.51
517.116	32842.59
517.318	32369.51
517.52	33278.81
517.722	33043.29
517.925	33442.65
518.127	33954.64
518.329	34104.14
518.531	33950.54
518.733	34640.71
518.935	35023.68
519.136	34890.56
519.338	35584.82
519.54	35502.9
519.742	36379.43
519.944	36191.02
520.146	36399.91
520.348	36735.78
520.55	37258.01
520.752	37227.29
520.954	37847.83
521.155	37886.74
521.357	38083.34
521.559	38286.09
521.761	38757.13
521.963	38634.25
522.164	38875.91
522.366	39420.67
522.568	39422.72
522.77	39686.9
522.971	40567.53
523.173	40463.08
523.375	40551.15
523.576	40532.71
523.778	40456.94
523.98	41327.33
524.181	41255.65
524.383	41237.22
524.584	41997.01
524.786	42011.35
524.988	41947.86
525.189	42408.65
525.391	42318.54
525.592	42533.58
525.794	42783.43
525.995	42851.02
526.197	43541.18
526.398	43332.29
526.6	43066.05
526.801	43608.76
527.003	43903.67
527.204	43928.25
527.406	44151.48
527.607	44159.67
527.808	44577.45
528.01	44073.65
528.211	44528.3
528.412	45025.96
528.614	44864.17
528.815	45142.69
529.016	45578.91
529.218	45304.48
529.419	45095.59
529.62	45232.8
529.822	45284
530.023	45533.85
530.224	45400.74
530.425	45724.32
530.626	45468.32
530.828	45623.97
531.029	46596.75
531.23	45830.81
531.431	45748.89
531.632	45853.34
531.833	46301.84
532.035	46330.51
532.236	46389.91
532.437	46750.35
532.638	46414.48
532.839	46865.03
533.04	46625.42
533.241	46070.42
533.442	47104.65
533.643	46668.43
533.844	46389.91
534.045	46819.98
534.246	46045.85
534.447	46617.23
534.648	46760.59
534.849	46850.7
535.05	46666.38
535.251	46879.37
535.451	46602.89
535.652	47071.88
535.853	46828.17
536.054	46953.1
536.255	46981.77
536.456	46654.09
536.657	47073.93
536.857	46879.37
537.058	46332.56
537.259	47061.64
537.46	47026.82
537.66	46496.4
537.861	46871.18
538.062	46727.82
538.263	46703.24
538.463	46762.64
538.664	46441.1
538.865	46897.8
539.065	47311.49
539.266	46723.72
539.466	47391.36
539.667	46459.54
539.868	47086.21
540.068	46559.89
540.269	46799.5
540.469	47301.25
540.67	46637.71
540.87	46494.35
541.071	46740.11
541.271	46905.99
541.472	46832.27
541.672	46932.62
541.873	46412.43
542.073	46541.46
542.274	46654.09
542.474	46664.33
542.675	46445.2
542.875	47088.26
543.075	47028.87
543.276	46033.56
543.476	46912.14
543.676	46400.15
543.877	46754.44
544.077	46557.84
544.277	46256.79
544.478	46355.09
544.678	46676.62
544.878	46496.4
545.078	46793.36
545.279	46066.33
545.479	46946.95
545.679	46791.31
545.879	46643.85
546.079	46467.73
546.28	45746.84
546.48	46232.21
546.68	46639.76
546.88	46779.02
547.08	46215.83
547.28	45826.71
547.48	45685.4
547.68	46523.02
547.88	46215.83
548.081	46375.57
548.281	46533.26
548.481	46480.02
548.681	46441.1
548.881	46348.95
549.081	46463.63
549.28	45951.64
549.48	46574.22
549.68	46424.72
549.88	46674.57
550.08	45910.68
550.28	46322.32
550.48	46156.44
550.68	46295.7
550.88	45882.01
551.08	45892.25
551.279	46506.64
551.479	45752.99
551.679	46336.66
551.879	46086.81
552.079	46856.84
552.278	45798.04
552.478	45746.84
552.678	46172.82
552.878	46117.53
553.077	45789.85
553.277	45609.63
553.477	46426.77
553.676	45742.75
553.876	45589.15
554.076	45535.9
554.275	45830.81
554.475	45298.34
554.674	45580.96
554.874	45820.57
555.074	45472.42
555.273	45265.57
555.473	46199.44
555.672	45040.29
555.872	45212.32
556.071	45281.95
556.271	45720.22
556.47	45365.92
556.67	45083.3
556.869	45329.06
557.068	45546.14
557.268	44812.97
557.467	44763.82
557.667	45034.15
557.866	44964.52
558.065	44753.58
558.265	44608.17
558.464	44823.21
558.663	45073.06
558.863	44667.56
559.062	45107.88
559.261	44366.51
559.461	45073.06
559.66	44257.97
559.859	44503.73
560.058	43983.54
560.258	44765.87
560.457	44063.41
560.656	44597.93
560.855	44427.95
561.054	43991.73
561.253	43817.66
561.453	44073.65
561.652	44362.42
561.851	44210.87
562.05	43780.79
562.249	43664.06
562.448	43684.54
562.647	43842.23
562.846	43819.7
563.045	44010.17
563.244	43504.32
563.443	44028.6
563.642	42844.87
563.841	43500.22
564.04	43021
564.239	43565.76
564.438	43176.64
564.637	43328.19
564.836	42977.99
565.035	42275.54
565.234	42937.03
565.432	41994.96
565.631	42545.87
565.83	42631.88
566.029	42543.82
566.228	42037.97
566.427	42463.95
566.625	42304.21
566.824	41536.22
567.023	42296.02
567.222	41505.5
567.42	42263.25
567.619	41607.9
567.818	41833.17
568.016	41769.69
568.215	41865.94
568.414	41419.49
568.612	41603.8
568.811	41511.64
569.01	41202.4
569.208	40895.21
569.407	41364.19
569.605	40958.69
569.804	41188.06
570.002	40710.89
570.201	41005.8
570.4	40461.04
570.598	40422.12
570.797	40225.52
570.995	40262.38
571.193	39729.91
571.392	40596.2
571.59	40135.41
571.789	40162.03
571.987	39906.04
572.186	39881.46
572.384	39756.53
572.582	39629.56
572.781	39488.25
572.979	38910.72
573.177	39574.27
573.376	39742.2
573.574	38837
573.772	39461.63
573.971	38804.23
574.169	38736.65
574.367	38650.63
574.565	38767.37
574.763	38599.43
574.962	38525.71
575.16	38497.03
575.358	38478.6
575.556	38005.52
575.754	38716.17
575.952	37919.51
576.151	38226.7
576.349	37860.12
576.547	37796.63
576.745	37888.79
576.943	37677.85
577.141	37395.23
577.339	37700.37
577.537	37634.84
577.735	37409.56
577.933	37026.59
578.131	37448.47
578.329	37245.72
578.527	36754.21
578.725	36903.71
578.923	36610.85
579.121	36750.12
579.319	36846.37
579.516	36967.2
579.714	36467.5
579.912	36401.96
580.11	36150.06
580.308	36606.76
580.506	36182.83
580.704	35851.06
580.901	36006.7
581.099	35971.89
581.297	35228.48
581.495	35687.22
581.692	35812.15
581.89	35384.12
582.088	35844.91
582.285	35396.41
582.483	35504.95
582.681	35517.24
582.878	35072.83
583.076	34616.13
583.274	35296.06
583.471	34341.71
583.669	34835.27
583.866	34382.66
584.064	34405.19
584.262	34372.42
584.459	34390.86
584.657	34057.04
584.854	34351.95
585.052	33712.98
585.249	34325.32
585.447	34071.37
585.644	33833.81
585.841	34028.37
586.039	33846.1
586.236	33467.22
586.434	33383.26
586.631	33170.27
586.828	33407.83
587.026	33311.58
587.223	33418.07
587.42	32916.32
587.618	33346.39
587.815	32703.33
588.012	32793.44
588.21	32349.03
588.407	32883.55
588.604	32598.88
588.801	32426.85
588.999	32002.93
589.196	32217.96
589.393	31961.97
589.59	32099.18
589.787	32404.33
589.984	32242.54
590.182	31300.47
590.379	31880.05
590.576	31544.18
590.773	31323
590.97	31490.93
591.167	31472.5
591.364	31355.77
591.561	31296.38
591.758	31095.67
591.955	30966.65
592.152	31540.08
592.349	30860.16
592.546	30743.42
592.743	30653.31
592.94	30153.61
593.137	30593.92
593.334	30595.97
593.531	29825.93
593.727	30466.95
593.924	30266.25
594.121	30143.37
594.318	30413.7
594.515	29817.74
594.712	29735.82
594.908	29844.37
595.105	29684.62
595.302	29494.16
595.499	29658
595.696	29180.82
595.892	29133.72
596.089	29567.89
596.286	29305.75
596.482	29103
596.679	28988.31
596.876	29039.51
597.072	28832.67
597.269	29002.65
597.466	28435.36
597.662	28349.35
597.859	28388.26
598.055	28425.12
598.252	28216.23
598.448	28070.83
598.645	28136.36
598.841	27911.08
599.038	28083.11
599.234	27947.95
599.431	27820.97
599.627	27581.36
599.824	27980.71
600.02	27425.71
600.217	27521.97
600.413	27440.05
600.609	27292.6
600.806	27184.05
601.002	27435.95
601.198	26866.62
601.395	27194.29
601.591	26665.92
601.787	26952.63
601.984	26692.54
602.18	26930.11
602.376	26074.06
602.572	26461.12
602.769	26450.88
602.965	25885.64
603.161	26080.2
603.357	26090.44
603.553	26117.06
603.75	26295.24
603.946	26145.73
604.142	26151.88
604.338	25969.61
604.534	25838.54
604.73	25654.22
604.926	25400.27
605.122	25603.02
605.318	25506.77
605.514	25539.54
605.71	25318.35
605.906	25162.71
606.102	25498.58
606.298	25500.62
606.494	25093.08
606.69	24941.53
606.886	24978.39
607.082	24511.46
607.278	25091.03
607.474	24888.28
607.67	24724.44
607.866	24214.5
608.062	25029.59
608.257	24640.48
608.453	24433.63
608.649	24611.81
608.845	24200.16
609.041	24206.31
609.236	24306.66
609.432	24216.55
609.628	24196.07
609.824	24175.59
610.019	23835.63
610.215	23829.48
610.411	23837.67
610.606	23899.11
610.802	24128.49
610.998	23774.19
611.193	24001.51
611.389	23497.71
611.584	23483.38
611.78	23737.32
611.976	23522.29
612.171	23610.35
612.367	23358.45
612.562	23350.26
612.758	22799.35
612.953	23462.9
613.149	23548.91
613.344	23221.24
613.539	23452.66
613.735	23022.58
613.93	23323.63
614.126	23206.9
614.321	23196.66
614.517	22873.08
614.712	22850.55
614.907	22623.23
615.103	22821.88
615.298	22586.36
615.493	23231.47
615.688	22371.33
615.884	23000.05
616.079	22375.42
616.274	22715.39
616.47	22553.6
616.665	22580.22
616.86	22203.39
617.055	22207.49
617.25	22086.66
617.445	22400
617.641	21740.55
617.836	22443.01
618.031	21685.26
618.226	22111.24
618.421	22105.09
618.616	22141.96
618.811	21771.27
619.006	21836.81
619.201	21541.9
619.396	21531.66
619.591	21081.11
619.786	21572.62
619.981	20984.85
620.176	21173.27
620.371	20966.42
620.566	21214.23
620.761	20845.59
620.956	21097.49
621.151	20669.47
621.346	20728.86
621.541	20464.67
621.735	20997.14
621.93	20116.51
622.125	20411.42
622.32	20214.82
622.515	20390.94
622.709	19975.2
622.904	19729.45
623.099	19737.64
623.294	19635.24
623.488	19532.84
623.683	19786.79
623.878	19356.72
624.072	19326
624.267	19162.16
624.462	19340.33
624.656	19082.29
624.851	19088.43
625.046	18836.53
625.24	18558.01
625.435	18621.5
625.629	18730.04
625.824	18791.48
626.018	18172.99
626.213	17976.39
626.407	18285.63
626.602	18070.59
626.796	18023.49
626.991	18070.59
627.185	18029.63
627.38	17689.67
627.574	17777.73
627.768	17456.2
627.963	17351.76
628.157	17622.09
628.352	17333.32
628.546	16968.79
628.74	17216.59
628.935	17069.14
629.129	17343.56
629.323	16888.92
629.517	16421.98
629.712	16718.93
629.906	16389.21
630.1	16303.2
630.294	16460.89
630.489	16264.29
630.683	16219.23
630.877	15926.37
631.071	16016.48
631.265	16135.26
631.459	15717.48
631.653	15719.53
631.848	15762.53
632.042	15559.78
632.236	15547.5
632.43	15352.94
632.624	15688.81
632.818	15268.97
633.012	15197.29
633.206	15029.36
633.4	14855.28
633.594	14783.6
633.788	14959.73
633.982	15072.37
634.176	14890.1
634.369	14701.68
634.563	14722.16
634.757	14419.07
634.951	14691.45
635.145	14425.21
635.339	14451.83
635.533	14378.11
635.726	14220.41
635.92	14103.68
636.114	14052.48
636.308	14001.28
636.501	13896.83
636.695	13661.32
636.889	13612.17
637.083	13581.45
637.276	13765.76
637.47	13530.25
637.664	13444.23
637.857	13661.32
638.051	13507.72
638.244	13098.13
638.438	13315.21
638.632	13204.62
638.825	13104.27
639.019	12899.47
639.212	13028.49
639.406	12889.23
639.599	12702.87
639.793	12666
639.986	12614.8
640.18	12592.28
640.373	12311.71
640.567	12301.47
640.76	12342.42
640.954	12313.75
641.147	12018.85
641.34	12219.55
641.534	11857.06
641.727	12076.19
641.92	12137.63
642.114	11723.94
642.307	11771.04
642.5	11871.39
642.694	11453.61
642.887	11566.24
643.08	11682.98
643.273	11678.88
643.467	11515.05
643.66	11312.3
643.853	11422.89
644.046	11087.02
644.239	11443.37
644.432	11201.71
644.626	11125.93
644.819	11107.5
645.012	10982.57
645.205	11193.51
645.398	11130.03
645.591	10822.83
645.784	10765.49
645.977	10851.5
646.17	10804.4
646.363	10589.36
646.556	10468.53
646.749	10470.58
646.942	10501.3
647.135	10425.53
647.328	10300.6
647.521	10280.12
647.714	10149.05
647.907	10282.17
648.099	10134.71
648.292	10296.5
648.485	10269.88
648.678	9956.54
648.871	9991.36
649.064	9815.23
649.256	9944.25
649.449	9712.83
649.642	9686.21
649.835	9712.83
650.027	9573.57
650.22	9721.02
650.413	9567.43
650.605	9499.84
650.798	9422.02
650.991	9196.74
651.183	9325.77
651.376	9243.85
651.568	9325.77
651.761	9086.15
651.954	9092.3
652.146	9131.21
652.339	9049.29
652.531	8953.04
652.724	8744.14
652.916	8764.62
653.109	8807.63
653.301	8922.32
653.494	8940.75
653.686	8453.33
653.879	8815.82
654.071	8778.96
654.263	8510.68
654.456	8535.25
654.648	8701.14
654.84	8436.95
655.033	8439
655.225	8443.09
655.417	8391.89
655.61	8371.41
655.802	8377.56
655.994	8195.29
656.186	8322.26
656.379	8123.61
656.571	8223.96
656.763	8168.66
656.955	7941.34
657.148	7937.24
657.34	8125.66
657.532	8107.23
657.724	7765.21
657.916	7910.62
658.108	7617.76
658.3	7787.74
658.492	7740.64
658.684	7533.79
658.876	7701.73
659.068	7527.65
659.26	7742.69
659.452	7488.74
659.644	7623.9
659.836	7541.99
660.028	7709.92
660.22	7435.49
660.412	7431.4
660.604	7214.31
660.796	7267.56
660.988	7275.75
661.18	7167.21
661.372	7101.67
661.563	7222.5
661.755	7103.72
661.947	7144.68
662.139	7216.36
662.331	7032.04
662.522	7025.9
662.714	6927.6
662.906	6931.69
663.097	7046.38
663.289	6733.04
663.481	6790.38
663.673	6896.88
663.864	6640.88
664.056	6786.29
664.247	6780.14
664.439	6575.34
664.631	6718.7
664.822	6708.46
665.014	6579.44
665.205	6567.15
665.397	6497.52
665.588	6554.87
665.78	6419.7
665.971	6634.74
666.163	6509.81
666.354	6386.93
666.546	6352.12
666.737	6298.87
666.929	6382.84
667.12	6327.54
667.311	6247.67
667.503	6253.81
667.694	6237.43
667.885	6212.85
668.077	6161.66
668.268	5985.53
668.459	6118.65
668.651	6069.5
668.842	6049.02
669.033	6173.94
669.224	6118.65
669.416	6288.63
669.607	6077.69
669.798	5872.89
669.989	6014.2
670.18	6108.41
670.371	5973.24
670.563	5846.27
670.754	5975.29
670.945	5893.37
671.136	5917.95
671.327	5754.11
671.518	5950.71
671.709	5965.05
671.9	5901.56
672.091	5844.22
672.282	5664
672.473	5707.01
672.664	5739.77
672.855	5620.99
673.046	5596.42
673.237	5664
673.428	5618.94
673.619	5649.66
673.809	5520.64
674	5649.66
674.191	5551.36
674.382	5461.25
674.573	5590.27
674.764	5440.77
674.954	5735.68
675.145	5483.78
675.336	5528.83
675.527	5502.21
675.717	5408
675.908	5467.39
676.099	5477.63
676.289	5459.2
676.48	5471.49
676.671	5371.14
676.861	5459.2
677.052	5600.51
677.243	5295.36
677.433	5414.15
677.624	5528.83
677.814	5387.52
678.005	5446.91
678.195	5350.66
678.386	5295.36
678.576	5399.81
678.767	5250.31
678.957	5373.19
679.148	5453.06
679.338	5358.85
679.529	5432.58
679.719	5403.91
679.909	5502.21
680.1	5348.61
680.29	5360.9
680.481	5451.01
680.671	5231.88
680.861	5412.1
681.052	5338.37
681.242	5297.41
681.432	5299.46
681.622	5199.11
681.813	5256.45
682.003	5387.52
682.193	5172.49
682.383	5274.88
682.573	5356.8
682.764	5195.01
682.954	5223.69
683.144	5223.69
683.334	5229.83
683.524	5215.49
683.714	5274.88
683.904	5242.12
684.094	5291.27
684.284	5190.92
684.474	5266.69
684.664	5201.16
684.854	5244.17
685.044	5143.81
685.234	5109
685.424	5174.53
685.614	5086.47
685.804	5084.42
685.994	5154.05
686.184	5141.77
686.374	5025.03
686.564	5113.1
686.753	4955.4
686.943	5051.66
687.133	5094.66
687.323	5061.9
687.513	4910.35
687.702	4934.92
687.892	4900.11
688.082	4850.96
688.272	4977.93
688.461	4795.66
688.651	4877.58
688.841	4619.53
689.03	4830.48
689.22	4633.87
689.41	4666.64
689.599	4678.93
689.789	4689.17
689.979	4674.83
690.168	4551.95
690.358	4506.9
690.547	4603.15
690.737	4627.73
690.926	4539.66
691.116	4547.86
691.305	4564.24
691.495	4506.9
691.684	4461.84
691.874	4375.83
692.063	4336.92
692.252	4379.92
692.442	4381.97
692.631	4332.82
692.82	4316.44
693.01	4396.31
693.199	4216.08
693.388	4154.65
693.578	4279.57
693.767	4216.08
693.956	4199.7
694.146	4234.52
694.335	4140.31
694.524	4240.66
694.713	4121.88
694.902	4050.2
695.092	4187.41
695.281	4091.16
695.47	4078.87
695.659	4087.06
695.848	3923.23
696.037	3929.37
696.226	4072.73
696.415	3990.81
696.604	4015.38
696.793	3921.18
696.982	4054.3
697.171	3929.37
697.36	4031.77
697.549	3935.51
697.738	3859.74
697.927	3896.6
698.116	3978.52
698.305	3894.55
698.494	3841.31
698.683	3882.27
698.872	4076.82
699.061	3824.92
699.25	3884.31
699.438	3890.46
699.627	3951.9
699.816	3896.6
700.005	3927.32
700.193	3917.08
700.382	3984.66
700.571	3867.93
700.76	3845.4
700.948	3853.59
701.137	3902.75
701.326	3884.31
701.514	3902.75
701.703	3925.27
701.892	3812.64
702.08	3919.13
702.269	3861.79
702.457	3771.68
702.646	3923.23
702.834	3765.53
703.023	3865.88
703.212	3783.96
703.4	3693.85
703.589	3861.79
703.777	3783.96
703.965	3824.92
704.154	3777.82
704.342	3841.31
704.531	3896.6
704.719	3835.16
704.907	3859.74
705.096	3747.1
705.284	3798.3
705.472	3749.15
705.661	3816.73
705.849	3888.41
706.037	3761.44
706.226	3710.24
706.414	3697.95
706.602	3824.92
706.79	3923.23
706.979	3706.14
707.167	3798.3
707.355	3835.16
707.543	3732.76
707.731	3790.11
707.919	3902.75
708.107	3726.62
708.296	3921.18
708.484	3771.68
708.672	3804.44
708.86	3853.59
709.048	3872.03
709.236	3831.07
709.424	4003.1
709.612	3894.55
709.8	3773.72
709.988	3874.07
710.176	3915.03
710.364	3872.03
710.551	3818.78
710.739	3831.07
710.927	3927.32
711.115	3763.48
711.303	3869.98
711.491	3894.55
711.679	3812.64
711.866	3941.66
712.054	3958.04
712.242	3855.64
712.43	3904.79
712.617	3976.47
712.805	3902.75
712.993	4052.25
713.181	3794.2
713.368	3972.38
713.556	3955.99
713.744	3824.92
713.931	4046.1
714.119	4005.14
714.306	3843.35
714.494	4011.29
714.682	3869.98
714.869	4044.06
715.057	3882.27
715.244	4021.53
715.432	4123.93
715.619	4027.67
715.807	3878.17
715.994	3968.28
716.182	3951.9
716.369	3935.51
716.556	4158.74
716.744	3994.9
716.931	4048.15
717.119	4115.73
717.306	3966.23
717.493	4095.25
717.681	4158.74
717.868	4152.6
718.055	4013.34
718.242	4095.25
718.43	4054.3
718.617	4091.16
718.804	4068.63
718.991	4048.15
719.179	4146.45
719.366	4042.01
719.553	4128.02
719.74	4117.78
719.927	4005.14
720.114	4031.77
720.301	4164.89
720.488	3935.51
720.676	4046.1
720.863	4236.56
721.05	4252.95
721.237	4158.74
721.424	4222.23
721.611	4025.62
721.798	4060.44
721.985	4097.3
722.172	4130.07
722.358	4097.3
722.545	4031.77
722.732	4183.32
722.919	4193.56
723.106	4193.56
723.293	4160.79
723.48	4197.65
723.667	4158.74
723.853	4175.13
724.04	4136.21
724.227	4232.47
724.414	4121.88
724.6	4152.6
724.787	4326.68
724.974	4179.22
725.161	4218.13
725.347	4091.16
725.534	4234.52
725.72	4222.23
725.907	4265.24
726.094	4269.33
726.28	4259.09
726.467	4226.32
726.653	4228.37
726.84	4117.78
727.027	4359.44
727.213	4353.3
727.4	4439.31
727.586	4039.96
727.773	4216.08
727.959	4240.66
728.145	4216.08
728.332	4128.02
728.518	4306.2
728.705	4226.32
728.891	4349.2
729.077	4158.74
729.264	4220.18
729.45	4203.8
729.636	4265.24
729.823	4242.71
730.009	4283.67
730.195	4338.96
730.382	4320.53
730.568	4361.49
730.754	4414.74
730.94	4355.35
731.126	4338.96
731.313	4293.91
731.499	4093.21
731.685	4293.91
731.871	4379.92
732.057	4367.63
732.243	4373.78
732.429	4304.15
732.615	4246.8
732.801	4209.94
732.987	4187.41
733.173	4467.99
733.359	4398.35
733.545	4345.11
733.731	4224.28
733.917	4361.49
734.103	4281.62
734.289	4244.76
734.475	4273.43
734.661	4306.2
734.847	4312.34
735.033	4226.32
735.219	4220.18
735.404	4332.82
735.59	4232.47
735.776	4195.61
735.962	4275.48
736.148	4259.09
736.333	4250.9
736.519	4255
736.705	4353.3
736.89	4289.81
737.076	4220.18
737.262	4111.64
737.447	4281.62
737.633	4257.04
737.819	4218.13
738.004	4273.43
738.19	4168.98
738.375	4175.13
738.561	4252.95
738.747	4115.73
738.932	4160.79
739.118	4289.81
739.303	4101.4
739.489	4175.13
739.674	4134.17
739.859	4140.31
740.045	4338.96
740.23	4054.3
740.416	3955.99
740.601	4150.55
740.786	4031.77
740.972	4056.34
741.157	4031.77
741.342	4070.68
741.528	4044.06
741.713	4115.73
741.898	4060.44
742.084	3986.71
742.269	4052.25
742.454	3970.33
742.639	3955.99
742.824	3988.76
743.01	4064.54
743.195	4099.35
743.38	3872.03
743.565	3867.93
743.75	3876.12
743.935	3863.83
744.12	4052.25
744.305	3745.05
744.49	3941.66
744.675	3831.07
744.86	3872.03
745.045	3790.11
745.23	3816.73
745.415	3769.63
745.6	3845.4
745.785	3626.27
745.97	3792.16
746.155	3740.96
746.34	3558.69
746.525	3642.65
746.71	3724.57
746.895	3489.06
747.079	3626.27
747.264	3462.43
747.449	3677.47
747.634	3487.01
747.819	3585.31
748.003	3577.12
748.188	3439.9
748.373	3411.23
748.557	3353.89
748.742	3398.95
748.927	3384.61
749.111	3419.43
749.296	3257.64
749.481	3296.55
749.665	3310.88
749.85	3237.16
750.034	3282.21
750.219	3347.75
750.404	3249.44
750.588	3192.1
750.773	3163.43
750.957	3169.57
751.141	3259.68
751.326	3233.06
751.51	3104.04
751.695	3071.27
751.879	3099.94
752.064	3038.5
752.248	2934.06
752.432	2940.2
752.617	3052.84
752.801	2936.1
752.985	2878.76
753.17	2932.01
753.354	2927.91
753.538	2889
753.722	2909.48
753.907	2886.95
754.091	2778.41
754.275	2802.99
754.459	2831.66
754.643	2811.18
754.828	2739.5
755.012	2637.1
755.196	2600.24
755.38	2704.68
755.564	2716.97
755.748	2495.79
755.932	2665.77
756.116	2651.44
756.3	2655.53
756.484	2571.57
756.668	2569.52
756.852	2456.88
757.036	2356.53
757.22	2434.35
757.404	2407.73
757.588	2456.88
757.772	2477.36
757.956	2372.91
758.14	2442.54
758.323	2348.34
758.507	2577.71
758.691	2295.09
758.875	2454.83
759.059	2290.99
759.242	2209.08
759.426	2352.43
759.61	2233.65
759.794	2360.63
759.977	2247.99
760.161	2381.1
760.345	2315.57
760.528	2184.5
760.712	2250.03
760.895	2135.35
761.079	2237.75
761.263	2180.4
761.446	2045.24
761.63	2170.16
761.813	2221.36
761.997	2067.77
762.18	2125.11
762.364	2045.24
762.547	2061.62
762.731	2094.39
762.914	2078.01
763.098	2006.33
763.281	2032.95
763.464	2135.35
763.648	1867.06
763.831	2073.91
764.015	1883.45
764.198	2022.71
764.381	1991.99
764.564	1903.93
764.748	1983.8
764.931	1971.51
765.114	1875.26
765.297	1895.74
765.481	1955.13
765.664	1912.12
765.847	1905.98
766.03	1834.3
766.213	1819.96
766.397	1772.86
766.58	1838.39
766.763	1893.69
766.946	1910.07
767.129	1848.63
767.312	1787.19
767.495	1858.87
767.678	1676.6
767.861	1854.78
768.044	1787.19
768.227	1752.38
768.41	1692.99
768.593	1742.14
768.776	1699.13
768.959	1641.79
769.142	1766.71
769.324	1639.74
769.507	1705.28
769.69	1637.69
769.873	1656.12
770.056	1688.89
770.239	1617.21
770.421	1729.85
770.604	1645.88
770.787	1555.77
770.97	1666.36
771.152	1549.63
771.335	1662.27
771.518	1572.16
771.7	1639.74
771.883	1647.93
772.066	1512.77
772.248	1529.15
772.431	1621.31
772.613	1563.97
772.796	1568.06
772.978	1537.34
773.161	1461.57
773.343	1473.85
773.526	1389.89
773.708	1451.33
773.891	1410.37
774.073	1422.66
774.256	1432.9
774.438	1422.66
774.621	1453.38
774.803	1463.61
774.985	1373.5
775.168	1475.9
775.35	1396.03
775.532	1365.31
775.715	1393.98
775.897	1332.54
776.079	1385.79
776.261	1428.8
776.444	1373.5
776.626	1310.02
776.808	1291.59
776.99	1219.91
777.173	1291.59
777.355	1264.96
777.537	1148.23
777.719	1326.4
777.901	1258.82
778.083	1121.6
778.265	1187.14
778.447	1195.33
778.629	1160.52
778.811	1221.95
778.993	1228.1
779.175	1135.94
779.357	1209.67
779.539	1150.28
779.721	1125.7
779.903	1250.63
780.085	1115.46
780.267	1129.8
780.449	1099.08
780.631	1142.08
780.812	1135.94
780.994	1025.35
781.176	931.14
781.358	922.95
781.54	1131.84
781.721	1056.07
781.903	1107.27
782.085	965.96
782.267	1006.92
782.448	947.53
782.63	1084.74
782.812	1045.83
782.993	961.86
783.175	996.68
783.357	955.72
783.538	1068.36
783.72	851.27
783.901	898.38
784.083	935.24
784.264	965.96
784.446	900.42
784.627	972.1
784.809	861.51
784.99	859.46
785.172	939.33
785.353	853.32
785.535	814.41
785.716	845.13
785.897	828.74
786.079	845.13
786.26	771.4
786.441	869.7
786.623	748.87
786.804	816.46
786.985	712.01
787.167	789.83
787.348	830.79
787.529	752.97
787.71	931.14
787.891	791.88
788.073	636.24
788.254	675.15
788.435	857.42
788.616	730.44
788.797	707.91
788.978	718.15
789.159	707.91
789.34	677.19
789.522	812.36
789.703	720.2
789.884	626
790.065	689.48
790.246	752.97
790.427	709.96
790.607	701.77
790.788	746.83
790.969	675.15
791.15	652.62
791.331	709.96
791.512	630.09
791.693	546.12
791.874	595.28
792.054	662.86
792.235	695.63
792.416	515.41
792.597	718.15
792.778	660.81
792.958	623.95
793.139	626
793.32	611.66
793.5	605.52
793.681	664.91
793.862	572.75
794.042	671.05
794.223	533.84
794.404	513.36
794.584	443.73
794.765	656.72
794.945	527.69
795.126	601.42
795.306	582.99
795.487	496.97
795.667	533.84
795.848	578.89
796.028	562.51
796.209	484.69
796.389	630.09
796.57	589.13
796.75	501.07
796.93	503.12
797.111	449.87
797.291	480.59
797.471	560.46
797.652	623.95
797.832	449.87
798.012	556.36
798.192	410.96
798.373	431.44
798.553	521.55
798.733	539.98
798.913	472.4
799.093	490.83
799.274	523.6
799.454	537.93
799.634	460.11
799.814	505.17
799.994	546.12
800.174	533.84
800.354	554.32
800.534	382.29
800.714	419.15
800.894	456.01
801.074	398.67
801.254	443.73
801.434	447.82
801.614	480.59
801.794	331.09
801.974	1412.42
802.154	386.38
802.334	542.03
802.514	310.61
802.693	466.25
802.873	466.25
803.053	503.12
803.233	443.73
803.413	370
803.592	431.44
803.772	365.9
803.952	466.25
804.131	308.56
804.311	460.11
804.491	433.49
804.67	355.66
804.85	374.1
805.03	404.82
805.209	453.97
805.389	335.18
805.568	406.86
805.748	333.14
805.928	314.7
806.107	335.18
806.287	365.9
806.466	337.23
806.646	296.27
806.825	357.71
807.004	341.33
807.184	396.62
807.363	427.34
807.543	349.52
807.722	351.57
807.901	382.29
808.081	302.42
808.26	183.63
808.439	300.37
808.619	372.05
808.798	326.99
808.977	333.14
809.156	304.46
809.336	380.24
809.515	392.53
809.694	306.51
809.873	277.84
810.052	333.14
810.231	394.58
810.411	349.52
810.59	351.57
810.769	312.66
810.948	320.85
811.127	218.45
811.306	335.18
811.485	290.13
811.664	355.66
811.843	257.36
812.022	308.56
812.201	322.9
812.38	277.84
812.559	302.42
812.737	316.75
812.916	222.55
813.095	255.31
813.274	300.37
813.453	312.66
813.632	255.31
813.811	326.99
813.989	226.64
814.168	333.14
814.347	279.89
814.526	329.04
814.704	353.62
814.883	308.56
815.062	263.51
815.24	234.83
815.419	208.21
815.598	314.7
815.776	206.16
815.955	247.12
816.133	169.3
816.312	261.46
816.49	240.98
816.669	218.45
816.847	288.08
817.026	236.88
817.204	308.56
817.383	230.74
817.561	193.87
817.74	275.79
817.918	267.6
818.097	206.16
818.275	296.27
818.453	218.45
818.632	300.37
818.81	224.59
818.988	208.21
819.167	269.65
819.345	245.07
819.523	200.02
819.701	195.92
819.879	263.51
820.058	216.4
820.236	257.36
820.414	253.27
820.592	236.88
820.77	218.45
820.948	247.12
821.127	273.75
821.305	259.41
821.483	247.12
821.661	275.79
821.839	232.79
822.017	240.98
822.195	234.83
822.373	245.07
822.551	161.11
822.729	271.7
822.907	189.78
823.085	218.45
823.262	238.93
823.44	220.5
823.618	144.72
823.796	163.15
823.974	144.72
824.152	232.79
824.329	218.45
824.507	245.07
824.685	275.79
824.863	111.96
825.04	265.55
825.218	202.07
825.396	249.17
825.574	152.91
825.751	236.88
825.929	197.97
826.107	195.92
826.284	206.16
826.462	206.16
826.639	111.96
826.817	197.97
826.994	202.07
827.172	152.91
827.349	195.92
827.527	240.98
827.704	152.91
827.882	165.2
828.059	193.87
828.237	111.96
828.414	257.36
828.591	177.49
828.769	265.55
828.946	81.24
829.124	275.79
829.301	183.63
829.478	99.67
829.655	181.59
829.833	214.35
830.01	101.72
830.187	177.49
830.364	136.53
830.542	206.16
830.719	257.36
830.896	195.92
831.073	187.73
831.25	187.73
831.427	165.2
831.604	120.15
831.782	193.87
831.959	144.72
832.136	144.72
832.313	146.77
832.49	154.96
832.667	148.82
832.844	193.87
833.021	154.96
833.198	189.78
833.374	99.67
833.551	177.49
833.728	169.3
833.905	154.96
834.082	95.57
834.259	212.31
834.436	175.44
834.612	146.77
834.789	175.44
834.966	124.24
835.143	87.38
835.319	163.15
835.496	193.87
835.673	144.72
835.85	144.72
836.026	204.11
836.203	197.97
836.38	79.19
836.556	91.48
836.733	167.25
836.909	185.68
837.086	175.44
837.262	75.09
837.439	218.45
837.616	120.15
837.792	83.28
837.968	165.2
838.145	107.86
838.321	79.19
838.498	142.68
838.674	44.37
838.851	120.15
839.027	195.92
839.203	134.48
839.38	138.58
839.556	5.46
839.732	154.96
839.909	99.67
840.085	81.24
840.261	122.2
840.437	140.63
840.614	71
840.79	154.96
840.966	142.68
841.142	154.96
841.318	79.19
841.494	103.76
841.671	101.72
841.847	91.48
842.023	62.8
842.199	116.05
842.375	130.39
842.551	56.66
842.727	56.66
842.903	103.76
843.079	79.19
843.255	136.53
843.431	30.04
843.607	152.91
843.783	42.32
843.959	114
844.134	185.68
844.31	140.63
844.486	99.67
844.662	79.19
844.838	56.66
845.013	46.42
845.189	62.8
845.365	54.61
845.541	93.52
845.716	109.91
845.892	187.73
846.068	79.19
846.244	105.81
846.419	68.95
846.595	62.8
846.77	21.84
846.946	105.81
847.122	81.24
847.297	95.57
847.473	140.63
847.648	54.61
847.824	58.71
847.999	27.99
848.175	36.18
848.35	83.28
848.526	128.34
848.701	79.19
848.876	159.06
849.052	91.48
849.227	66.9
849.403	103.76
849.578	73.04
849.753	124.24
849.929	128.34
850.104	13.65
850.279	148.82
850.454	38.23
850.63	91.48
850.805	52.56
850.98	71
851.155	109.91
851.33	58.71
851.505	34.13
851.681	130.39
851.856	64.85
852.031	66.9
852.206	62.8
852.381	64.85
852.556	105.81
852.731	81.24
852.906	83.28
853.081	120.15
853.256	122.2
853.431	48.47
853.606	46.42
853.781	68.95
853.956	-15.02
854.131	52.56
854.305	5.46
854.48	-58.03
854.655	-6.83
854.83	58.71
855.005	-2.73
855.18	79.19
855.354	120.15
855.529	103.76
855.704	36.18
855.879	105.81
856.053	30.04
856.228	187.73
856.403	15.7
856.577	185.68
856.752	7.51
856.926	111.96
857.101	56.66
857.276	32.08
857.45	34.13
857.625	148.82
857.799	87.38
857.974	64.85
858.148	34.13
858.323	116.05
858.497	64.85
858.672	5.46
858.846	52.56
859.02	89.43
859.195	-10.92
859.369	89.43
859.543	73.04
859.718	-19.11
859.892	34.13
860.066	48.47
860.241	23.89
860.415	25.94
860.589	21.84
860.763	19.8
860.938	-17.07
861.112	91.48
861.286	79.19
861.46	99.67
861.634	25.94
861.808	87.38
861.982	38.23
862.157	19.8
862.331	7.51
862.505	23.89
862.679	-62.12
862.853	60.76
863.027	58.71
863.201	73.04
863.375	46.42
863.549	-10.92
863.722	71
863.896	36.18
864.07	19.8
864.244	34.13
864.418	13.65
864.592	19.8
864.766	-12.97
864.939	89.43
865.113	-76.46
865.287	81.24
865.461	62.8
865.634	54.61
865.808	48.47
865.982	34.13
866.156	93.52
866.329	32.08
866.503	79.19
866.676	87.38
866.85	68.95
867.024	-0.68
867.197	101.72
867.371	3.41
867.544	36.18
867.718	77.14
867.891	99.67
868.065	-55.98
868.238	46.42
868.412	89.43
868.585	-6.83
868.759	9.56
868.932	21.84
869.105	91.48
869.279	54.61
869.452	38.23
869.625	79.19
869.799	21.84
869.972	-27.31
870.145	-31.4
870.319	17.75
870.492	-15.02
870.665	9.56
870.838	21.84
871.011	-74.41
871.185	21.84
871.358	17.75
871.531	130.39
871.704	-17.07
871.877	144.72
872.05	-6.83
872.223	-33.45
872.396	140.63
872.569	95.57
872.742	32.08
872.915	40.28
873.088	15.7
873.261	44.37
873.434	-4.78
873.607	11.61
873.78	122.2
873.953	3.41
874.126	52.56
874.299	19.8
874.471	19.8
874.644	-0.68
874.817	111.96
874.99	87.38
875.163	-10.92
875.335	46.42
875.508	50.52
875.681	120.15
875.853	-51.88
876.026	5.46
876.199	15.7
876.371	68.95
876.544	-27.31
876.717	1.37
876.889	-6.83
877.062	62.8
877.234	95.57
877.407	36.18
877.579	83.28
877.752	44.37
877.924	27.99
878.097	11.61
878.269	54.61
878.442	56.66
878.614	15.7
878.786	7.51
878.959	40.28
879.131	7.51
879.303	13.65
879.476	56.66
879.648	79.19
879.82	36.18
879.993	-68.27
880.165	5.46
880.337	-21.16
880.509	17.75
880.681	25.94
880.854	68.95
881.026	85.33
881.198	77.14
881.37	93.52
881.542	17.75
881.714	19.8
881.886	-47.79
882.058	105.81
882.23	62.8
882.402	-23.21
882.574	40.28
882.746	-21.16
882.918	95.57
883.09	87.38
883.262	42.32
883.434	107.86
883.606	38.23
883.778	-21.16
883.95	48.47
884.122	-6.83
884.293	83.28
884.465	-4.78
884.637	114
884.809	-31.4
884.98	75.09
885.152	48.47
885.324	62.8
885.496	-10.92
885.667	13.65
885.839	-8.87
886.011	144.72
886.182	60.76
886.354	27.99
886.525	-19.11
886.697	81.24
886.869	54.61
887.04	32.08
887.212	97.62
887.383	99.67
887.555	-41.64
887.726	-12.97
887.897	-51.88
888.069	46.42
888.24	52.56
888.412	-19.11
888.583	-4.78
888.754	5.46
888.926	-19.11
889.097	-0.68
889.268	17.75
889.44	32.08
889.611	-27.31
889.782	-10.92
889.953	-37.55
890.125	48.47
890.296	95.57
890.467	15.7
890.638	-51.88
890.809	64.85
890.98	27.99
891.151	48.47
891.323	68.95
891.494	7.51
891.665	58.71
891.836	46.42
892.007	-0.68
892.178	46.42
892.349	81.24
892.52	-15.02
892.691	83.28
892.862	-25.26
893.032	-0.68
893.203	9.56
893.374	-8.87
893.545	62.8
893.716	27.99
893.887	25.94
894.057	58.71
894.228	19.8
894.399	40.28
894.57	32.08
894.74	89.43
894.911	17.75
895.082	23.89
895.253	23.89
895.423	46.42
895.594	64.85
895.764	11.61
895.935	-45.74
896.106	56.66
896.276	3.41
896.447	9.56
896.617	7.51
896.788	5.46
896.958	23.89
897.129	-25.26
897.299	7.51
897.47	36.18
897.64	54.61
897.81	11.61
897.981	73.04
898.151	-6.83
898.322	17.75
898.492	19.8
898.662	36.18
898.832	-33.45
899.003	-19.11
899.173	56.66
899.343	-2.73
899.513	27.99
