Data from USB4F104151__92__13-06-25-477.txt Node

Date: Fri Mar 14 13:06:25 EDT 2025
User: louis
Spectrometer: USB4F10415
Trigger mode: 4
Integration Time (sec): 4.000000E-2
Scans to average: 1
Electric dark correction enabled: true
Nonlinearity correction enabled: false
Boxcar width: 0
XAxis mode: Wavelengths
Number of Pixels in Spectrum: 3648
>>>>>Begin Spectral Data<<<<<
178.204	-145.92
178.424	-145.92
178.644	-145.92
178.864	-231.93
179.084	-209.4
179.304	7.68
179.524	-39.42
179.744	3.58
179.964	46.59
180.184	-61.95
180.404	22.02
180.624	48.64
180.844	40.45
181.064	-55.81
181.283	-55.81
181.503	13.82
181.723	30.21
181.943	-57.86
182.163	77.31
182.383	28.16
182.602	110.08
182.822	79.36
183.042	77.31
183.262	52.74
183.482	-18.94
183.701	73.21
183.921	1.54
184.141	11.78
184.361	91.65
184.58	79.36
184.8	79.36
185.02	-80.38
185.239	93.69
185.459	-51.71
185.679	95.74
185.898	5.63
186.118	69.12
186.338	-12.8
186.557	75.26
186.777	-72.19
186.997	42.5
187.216	-18.94
187.436	79.36
187.655	110.08
187.875	40.45
188.095	38.4
188.314	87.55
188.534	71.17
188.753	5.63
188.973	87.55
189.192	67.07
189.412	-27.14
189.631	26.11
189.851	32.26
190.07	112.13
190.29	3.58
190.509	40.45
190.729	-45.57
190.948	85.5
191.168	226.81
191.387	95.74
191.607	81.41
191.826	85.5
192.045	56.83
192.265	79.36
192.484	24.06
192.704	36.35
192.923	-2.56
193.142	110.08
193.362	99.84
193.581	79.36
193.8	58.88
194.02	60.93
194.239	30.21
194.458	62.98
194.678	-25.09
194.897	38.4
195.116	71.17
195.335	17.92
195.555	5.63
195.774	73.21
195.993	28.16
196.212	77.31
196.432	38.4
196.651	5.63
196.87	32.26
197.089	140.8
197.308	67.07
197.528	69.12
197.747	28.16
197.966	75.26
198.185	28.16
198.404	-4.61
198.623	-23.04
198.842	77.31
199.062	124.41
199.281	120.32
199.5	67.07
199.719	62.98
199.938	36.35
200.157	32.26
200.376	54.78
200.595	89.6
200.814	144.89
201.033	-10.75
201.252	73.21
201.471	24.06
201.69	73.21
201.909	34.3
202.128	-2.56
202.347	120.32
202.566	67.07
202.785	-23.04
203.004	15.87
203.223	132.61
203.442	-49.66
203.661	46.59
203.879	44.54
204.098	71.17
204.317	26.11
204.536	112.13
204.755	26.11
204.974	95.74
205.193	73.21
205.411	89.6
205.63	75.26
205.849	5.63
206.068	30.21
206.287	83.45
206.505	71.17
206.724	-14.85
206.943	-31.23
207.162	30.21
207.381	15.87
207.599	3.58
207.818	9.73
208.037	13.82
208.255	44.54
208.474	28.16
208.693	1.54
208.911	5.63
209.13	30.21
209.349	71.17
209.567	62.98
209.786	60.93
210.005	-14.85
210.223	-33.28
210.442	-35.33
210.661	62.98
210.879	81.41
211.098	-10.75
211.316	93.69
211.535	73.21
211.753	-43.52
211.972	69.12
212.191	22.02
212.409	110.08
212.628	73.21
212.846	28.16
213.065	13.82
213.283	38.4
213.502	22.02
213.72	17.92
213.938	89.6
214.157	15.87
214.375	108.03
214.594	-6.66
214.812	73.21
215.031	65.02
215.249	36.35
215.467	48.64
215.686	38.4
215.904	95.74
216.122	-37.38
216.341	83.45
216.559	28.16
216.778	62.98
216.996	79.36
217.214	103.93
217.432	-16.9
217.651	38.4
217.869	54.78
218.087	11.78
218.306	75.26
218.524	46.59
218.742	71.17
218.96	56.83
219.179	56.83
219.397	48.64
219.615	91.65
219.833	48.64
220.051	-4.61
220.27	71.17
220.488	9.73
220.706	114.17
220.924	54.78
221.142	50.69
221.36	-2.56
221.578	30.21
221.796	11.78
222.015	48.64
222.233	38.4
222.451	91.65
222.669	-2.56
222.887	75.26
223.105	38.4
223.323	17.92
223.541	5.63
223.759	34.3
223.977	24.06
224.195	128.51
224.413	75.26
224.631	87.55
224.849	67.07
225.067	15.87
225.285	50.69
225.503	22.02
225.721	-49.66
225.939	65.02
226.157	62.98
226.375	161.28
226.592	-53.76
226.81	-10.75
227.028	97.79
227.246	46.59
227.464	46.59
227.682	99.84
227.9	134.65
228.117	103.93
228.335	36.35
228.553	69.12
228.771	87.55
228.989	36.35
229.206	15.87
229.424	17.92
229.642	65.02
229.86	-27.14
230.077	114.17
230.295	30.21
230.513	116.22
230.731	97.79
230.948	46.59
231.166	144.89
231.384	42.5
231.601	-23.04
231.819	58.88
232.037	-70.14
232.254	-20.99
232.472	19.97
232.689	-18.94
232.907	65.02
233.125	-23.04
233.342	-8.7
233.56	-27.14
233.777	34.3
233.995	-16.9
234.213	65.02
234.43	24.06
234.648	58.88
234.865	58.88
235.083	79.36
235.3	65.02
235.518	58.88
235.735	95.74
235.953	83.45
236.17	42.5
236.388	67.07
236.605	62.98
236.822	105.98
237.04	97.79
237.257	54.78
237.475	-33.28
237.692	40.45
237.909	26.11
238.127	-4.61
238.344	32.26
238.562	28.16
238.779	13.82
238.996	-6.66
239.214	44.54
239.431	38.4
239.648	7.68
239.865	42.5
240.083	52.74
240.3	71.17
240.517	95.74
240.735	-18.94
240.952	91.65
241.169	85.5
241.386	46.59
241.603	71.17
241.821	58.88
242.038	-23.04
242.255	44.54
242.472	-43.52
242.689	65.02
242.907	65.02
243.124	50.69
243.341	79.36
243.558	38.4
243.775	30.21
243.992	-35.33
244.209	103.93
244.426	120.32
244.643	91.65
244.86	1.54
245.078	91.65
245.295	-6.66
245.512	46.59
245.729	9.73
245.946	71.17
246.163	13.82
246.38	-6.66
246.597	118.27
246.814	48.64
247.031	-70.14
247.248	65.02
247.464	9.73
247.681	54.78
247.898	103.93
248.115	112.13
248.332	30.21
248.549	22.02
248.766	87.55
248.983	75.26
249.2	-0.51
249.417	62.98
249.633	56.83
249.85	69.12
250.067	56.83
250.284	128.51
250.501	38.4
250.717	36.35
250.934	3.58
251.151	32.26
251.368	120.32
251.585	112.13
251.801	-47.62
252.018	50.69
252.235	58.88
252.451	32.26
252.668	-2.56
252.885	71.17
253.102	40.45
253.318	-0.51
253.535	-33.28
253.752	15.87
253.968	-18.94
254.185	-45.57
254.401	48.64
254.618	65.02
254.835	46.59
255.051	136.7
255.268	71.17
255.484	28.16
255.701	36.35
255.917	58.88
256.134	-43.52
256.351	26.11
256.567	26.11
256.784	-0.51
257	24.06
257.217	54.78
257.433	46.59
257.65	-27.14
257.866	114.17
258.082	-27.14
258.299	50.69
258.515	95.74
258.732	26.11
258.948	-94.72
259.165	15.87
259.381	79.36
259.597	24.06
259.814	97.79
260.03	1.54
260.246	56.83
260.463	40.45
260.679	15.87
260.895	11.78
261.112	11.78
261.328	-14.85
261.544	-39.42
261.761	175.61
261.977	30.21
262.193	-66.05
262.409	65.02
262.626	50.69
262.842	-35.33
263.058	-8.7
263.274	75.26
263.49	22.02
263.707	62.98
263.923	65.02
264.139	-20.99
264.355	105.98
264.571	95.74
264.787	32.26
265.004	89.6
265.22	7.68
265.436	30.21
265.652	1.54
265.868	-39.42
266.084	44.54
266.3	24.06
266.516	3.58
266.732	9.73
266.948	22.02
267.164	54.78
267.38	5.63
267.596	69.12
267.812	69.12
268.028	159.23
268.244	19.97
268.46	15.87
268.676	62.98
268.892	-2.56
269.108	9.73
269.324	48.64
269.54	5.63
269.756	87.55
269.972	-10.75
270.188	-23.04
270.403	-80.38
270.619	81.41
270.835	-27.14
271.051	15.87
271.267	3.58
271.483	73.21
271.698	62.98
271.914	93.69
272.13	38.4
272.346	46.59
272.562	36.35
272.777	77.31
272.993	44.54
273.209	-0.51
273.425	62.98
273.64	42.5
273.856	46.59
274.072	-51.71
274.287	-41.47
274.503	24.06
274.719	26.11
274.934	42.5
275.15	-68.09
275.366	-27.14
275.581	36.35
275.797	5.63
276.012	54.78
276.228	54.78
276.444	36.35
276.659	30.21
276.875	-31.23
277.09	30.21
277.306	7.68
277.521	60.93
277.737	34.3
277.952	46.59
278.168	34.3
278.383	-16.9
278.599	34.3
278.814	15.87
279.03	-35.33
279.245	24.06
279.461	65.02
279.676	40.45
279.892	-33.28
280.107	22.02
280.322	-6.66
280.538	112.13
280.753	-23.04
280.969	97.79
281.184	30.21
281.399	87.55
281.615	30.21
281.83	54.78
282.045	9.73
282.26	30.21
282.476	34.3
282.691	97.79
282.906	38.4
283.122	32.26
283.337	-6.66
283.552	71.17
283.767	9.73
283.983	73.21
284.198	24.06
284.413	42.5
284.628	3.58
284.843	15.87
285.058	75.26
285.274	-14.85
285.489	-10.75
285.704	95.74
285.919	17.92
286.134	38.4
286.349	24.06
286.564	9.73
286.779	91.65
286.995	95.74
287.21	-76.29
287.425	99.84
287.64	-16.9
287.855	24.06
288.07	17.92
288.285	62.98
288.5	83.45
288.715	95.74
288.93	-35.33
289.145	5.63
289.36	-14.85
289.575	-12.8
289.79	142.85
290.004	38.4
290.219	11.78
290.434	-2.56
290.649	5.63
290.864	56.83
291.079	105.98
291.294	105.98
291.509	38.4
291.724	15.87
291.938	1.54
292.153	105.98
292.368	24.06
292.583	40.45
292.798	46.59
293.012	26.11
293.227	26.11
293.442	34.3
293.657	79.36
293.871	34.3
294.086	87.55
294.301	112.13
294.516	56.83
294.73	32.26
294.945	5.63
295.16	13.82
295.374	26.11
295.589	105.98
295.804	34.3
296.018	42.5
296.233	120.32
296.447	24.06
296.662	-25.09
296.877	136.7
297.091	42.5
297.306	19.97
297.52	30.21
297.735	-2.56
297.949	81.41
298.164	77.31
298.378	54.78
298.593	-0.51
298.807	-2.56
299.022	11.78
299.236	34.3
299.451	56.83
299.665	-2.56
299.88	32.26
300.094	9.73
300.309	67.07
300.523	40.45
300.737	54.78
300.952	11.78
301.166	91.65
301.381	-25.09
301.595	5.63
301.809	5.63
302.024	24.06
302.238	7.68
302.452	77.31
302.667	13.82
302.881	91.65
303.095	62.98
303.309	54.78
303.524	11.78
303.738	32.26
303.952	-74.24
304.166	79.36
304.381	-64
304.595	148.99
304.809	-113.15
305.023	130.56
305.237	19.97
305.452	30.21
305.666	108.03
305.88	38.4
306.094	118.27
306.308	22.02
306.522	79.36
306.736	58.88
306.95	19.97
307.164	40.45
307.379	71.17
307.593	95.74
307.807	56.83
308.021	62.98
308.235	87.55
308.449	-29.18
308.663	26.11
308.877	196.09
309.091	50.69
309.305	48.64
309.519	-41.47
309.733	99.84
309.947	-84.48
310.161	54.78
310.374	54.78
310.588	105.98
310.802	24.06
311.016	-0.51
311.23	65.02
311.444	30.21
311.658	-10.75
311.872	93.69
312.085	44.54
312.299	108.03
312.513	120.32
312.727	-55.81
312.941	32.26
313.154	73.21
313.368	42.5
313.582	87.55
313.796	-18.94
314.009	32.26
314.223	75.26
314.437	-31.23
314.651	83.45
314.864	28.16
315.078	50.69
315.292	32.26
315.505	48.64
315.719	114.17
315.933	5.63
316.146	32.26
316.36	44.54
316.573	11.78
316.787	89.6
317.001	17.92
317.214	71.17
317.428	58.88
317.641	-23.04
317.855	95.74
318.068	30.21
318.282	30.21
318.495	54.78
318.709	81.41
318.922	32.26
319.136	48.64
319.349	140.8
319.563	40.45
319.776	26.11
319.99	-20.99
320.203	118.27
320.417	65.02
320.63	81.41
320.843	114.17
321.057	124.41
321.27	-2.56
321.483	85.5
321.697	60.93
321.91	69.12
322.124	15.87
322.337	54.78
322.55	-6.66
322.763	42.5
322.977	50.69
323.19	22.02
323.403	69.12
323.617	118.27
323.83	77.31
324.043	73.21
324.256	24.06
324.469	-4.61
324.683	153.09
324.896	40.45
325.109	120.32
325.322	32.26
325.535	22.02
325.748	83.45
325.962	1.54
326.175	-4.61
326.388	-6.66
326.601	75.26
326.814	44.54
327.027	73.21
327.24	71.17
327.453	-10.75
327.666	52.74
327.879	108.03
328.092	112.13
328.305	71.17
328.518	108.03
328.731	13.82
328.944	71.17
329.157	87.55
329.37	122.37
329.583	140.8
329.796	153.09
330.009	-29.18
330.222	73.21
330.435	62.98
330.648	122.37
330.861	65.02
331.073	65.02
331.286	97.79
331.499	42.5
331.712	3.58
331.925	-10.75
332.138	71.17
332.35	77.31
332.563	87.55
332.776	58.88
332.989	67.07
333.202	40.45
333.414	36.35
333.627	79.36
333.84	46.59
334.053	28.16
334.265	99.84
334.478	-2.56
334.691	26.11
334.903	5.63
335.116	46.59
335.329	32.26
335.541	34.3
335.754	32.26
335.966	13.82
336.179	1.54
336.392	3.58
336.604	3.58
336.817	62.98
337.029	-16.9
337.242	73.21
337.454	87.55
337.667	56.83
337.88	79.36
338.092	58.88
338.305	71.17
338.517	48.64
338.729	3.58
338.942	67.07
339.154	-2.56
339.367	62.98
339.579	71.17
339.792	-31.23
340.004	103.93
340.217	-27.14
340.429	-8.7
340.641	-55.81
340.854	65.02
341.066	5.63
341.278	132.61
341.491	67.07
341.703	58.88
341.915	15.87
342.128	114.17
342.34	62.98
342.552	13.82
342.764	34.3
342.977	60.93
343.189	101.89
343.401	87.55
343.613	-49.66
343.826	-10.75
344.038	81.41
344.25	105.98
344.462	19.97
344.674	89.6
344.886	-18.94
345.099	77.31
345.311	103.93
345.523	112.13
345.735	40.45
345.947	38.4
346.159	73.21
346.371	50.69
346.583	38.4
346.795	108.03
347.007	-39.42
347.219	30.21
347.431	65.02
347.643	138.75
347.855	22.02
348.067	189.95
348.279	28.16
348.491	71.17
348.703	46.59
348.915	75.26
349.127	28.16
349.339	93.69
349.551	9.73
349.763	93.69
349.975	52.74
350.187	40.45
350.399	124.41
350.61	26.11
350.822	48.64
351.034	42.5
351.246	73.21
351.458	118.27
351.669	130.56
351.881	118.27
352.093	142.85
352.305	62.98
352.517	91.65
352.728	122.37
352.94	91.65
353.152	65.02
353.363	30.21
353.575	40.45
353.787	148.99
353.999	-41.47
354.21	112.13
354.422	15.87
354.633	30.21
354.845	77.31
355.057	128.51
355.268	79.36
355.48	91.65
355.692	-25.09
355.903	-2.56
356.115	24.06
356.326	5.63
356.538	112.13
356.749	-10.75
356.961	114.17
357.172	73.21
357.384	69.12
357.595	95.74
357.807	-25.09
358.018	44.54
358.23	56.83
358.441	128.51
358.653	13.82
358.864	65.02
359.075	50.69
359.287	85.5
359.498	79.36
359.709	97.79
359.921	103.93
360.132	75.26
360.344	15.87
360.555	130.56
360.766	151.04
360.977	-33.28
361.189	54.78
361.4	28.16
361.611	183.81
361.823	122.37
362.034	103.93
362.245	54.78
362.456	62.98
362.667	103.93
362.879	46.59
363.09	54.78
363.301	159.23
363.512	13.82
363.723	71.17
363.935	1.54
364.146	153.09
364.357	65.02
364.568	81.41
364.779	11.78
364.99	153.09
365.201	-2.56
365.412	101.89
365.623	-84.48
365.834	75.26
366.045	-2.56
366.256	99.84
366.467	-16.9
366.678	67.07
366.889	46.59
367.1	79.36
367.311	132.61
367.522	-10.75
367.733	38.4
367.944	120.32
368.155	32.26
368.366	93.69
368.577	95.74
368.788	75.26
368.999	42.5
369.209	95.74
369.42	112.13
369.631	130.56
369.842	54.78
370.053	54.78
370.264	114.17
370.474	-4.61
370.685	17.92
370.896	34.3
371.107	130.56
371.317	89.6
371.528	46.59
371.739	87.55
371.95	58.88
372.16	44.54
372.371	-20.99
372.582	7.68
372.792	79.36
373.003	97.79
373.214	30.21
373.424	67.07
373.635	7.68
373.846	85.5
374.056	50.69
374.267	60.93
374.477	46.59
374.688	17.92
374.898	58.88
375.109	58.88
375.319	40.45
375.53	128.51
375.74	46.59
375.951	108.03
376.161	108.03
376.372	146.94
376.582	-18.94
376.793	79.36
377.003	54.78
377.214	-4.61
377.424	48.64
377.635	34.3
377.845	85.5
378.055	118.27
378.266	1.54
378.476	32.26
378.686	62.98
378.897	52.74
379.107	69.12
379.317	108.03
379.528	46.59
379.738	5.63
379.948	-16.9
380.158	67.07
380.369	77.31
380.579	95.74
380.789	56.83
380.999	136.7
381.21	-2.56
381.42	108.03
381.63	75.26
381.84	36.35
382.05	69.12
382.261	120.32
382.471	77.31
382.681	60.93
382.891	87.55
383.101	54.78
383.311	62.98
383.521	-16.9
383.731	75.26
383.941	87.55
384.151	52.74
384.361	71.17
384.571	120.32
384.781	99.84
384.991	163.33
385.201	91.65
385.411	116.22
385.621	32.26
385.831	28.16
386.041	62.98
386.251	34.3
386.461	130.56
386.671	67.07
386.881	87.55
387.091	42.5
387.301	128.51
387.511	24.06
387.72	32.26
387.93	56.83
388.14	22.02
388.35	83.45
388.56	52.74
388.769	75.26
388.979	56.83
389.189	-23.04
389.399	114.17
389.609	155.13
389.818	140.8
390.028	75.26
390.238	153.09
390.447	50.69
390.657	114.17
390.867	17.92
391.076	15.87
391.286	-27.14
391.496	40.45
391.705	101.89
391.915	138.75
392.125	85.5
392.334	73.21
392.544	120.32
392.753	-18.94
392.963	71.17
393.172	136.7
393.382	36.35
393.591	163.33
393.801	69.12
394.01	148.99
394.22	81.41
394.429	56.83
394.639	73.21
394.848	36.35
395.058	97.79
395.267	89.6
395.477	122.37
395.686	159.23
395.895	132.61
396.105	173.57
396.314	40.45
396.524	85.5
396.733	116.22
396.942	130.56
397.152	110.08
397.361	97.79
397.57	120.32
397.78	71.17
397.989	65.02
398.198	192
398.407	130.56
398.617	122.37
398.826	124.41
399.035	181.76
399.244	173.57
399.453	62.98
399.663	85.5
399.872	157.18
400.081	161.28
400.29	175.61
400.499	93.69
400.708	140.8
400.917	67.07
401.127	132.61
401.336	79.36
401.545	192
401.754	165.37
401.963	67.07
402.172	214.52
402.381	32.26
402.59	146.94
402.799	153.09
403.008	157.18
403.217	118.27
403.426	157.18
403.635	87.55
403.844	151.04
404.053	140.8
404.262	140.8
404.471	202.24
404.68	173.57
404.888	142.85
405.097	112.13
405.306	142.85
405.515	241.15
405.724	189.95
405.933	200.19
406.142	185.85
406.35	138.75
406.559	175.61
406.768	136.7
406.977	284.16
407.185	212.48
407.394	243.2
407.603	255.48
407.812	312.83
408.02	253.44
408.229	189.95
408.438	255.48
408.646	239.1
408.855	284.16
409.064	243.2
409.272	292.35
409.481	292.35
409.69	196.09
409.898	214.52
410.107	353.79
410.315	359.93
410.524	394.75
410.733	292.35
410.941	312.83
411.15	419.32
411.358	390.65
411.567	472.57
411.775	480.76
411.984	474.62
412.192	546.3
412.401	511.48
412.609	568.82
412.818	570.87
413.026	517.62
413.234	558.58
413.443	577.02
413.651	626.17
413.86	589.3
414.068	722.42
414.276	763.38
414.485	693.75
414.693	708.09
414.901	773.62
415.11	730.61
415.318	835.06
415.526	790
415.734	828.92
415.943	943.6
416.151	912.88
416.359	878.07
416.567	914.93
416.776	974.32
416.984	1078.77
417.192	1091.06
417.4	1086.96
417.608	1091.06
417.817	1201.65
418.025	1193.45
418.233	1308.14
418.441	1201.65
418.649	1365.48
418.857	1398.25
419.065	1441.26
419.273	1396.2
419.481	1420.78
419.689	1549.8
419.897	1660.39
420.105	1648.1
420.313	1805.8
420.521	1725.93
420.729	1658.34
420.937	1877.48
421.145	1936.87
421.353	1994.21
421.561	2139.62
421.769	2168.29
421.977	2268.64
422.185	2340.32
422.393	2377.18
422.601	2596.31
422.809	2563.54
423.017	2567.64
423.224	2684.38
423.432	2866.64
423.64	2807.25
423.848	3007.95
424.056	2872.79
424.263	3202.51
424.471	3188.18
424.679	3282.38
424.887	3311.05
425.094	3452.36
425.302	3505.61
425.51	3704.26
425.718	3683.78
425.925	3845.57
426.133	3909.06
426.341	4179.39
426.548	4292.03
426.756	4269.5
426.964	4509.12
427.171	4517.31
427.379	4838.84
427.586	4881.85
427.794	4773.3
428.001	5127.6
428.209	5453.23
428.417	5475.76
428.624	5760.42
428.832	5670.31
429.039	5780.9
429.247	5717.42
429.454	6192.55
429.662	6808.98
429.869	6262.18
430.076	6782.36
430.284	6391.2
430.491	6688.15
430.699	7140.76
430.906	7218.58
431.114	7327.12
431.321	7724.43
431.528	7814.54
431.736	8369.54
431.943	8768.89
432.15	8301.95
432.358	8273.28
432.565	8850.81
432.772	8957.3
432.979	9219.44
433.187	9340.27
433.394	9471.34
433.601	10114.41
433.808	10196.32
434.016	9930.09
434.223	10534.24
434.43	11040.09
434.637	10892.63
434.844	11832.65
435.052	12074.31
435.259	11961.67
435.466	11849.04
435.673	11867.47
435.88	12574.02
436.087	13227.32
436.294	13059.38
436.501	13032.76
436.708	13258.04
436.915	13313.33
437.122	14202.15
437.329	14376.23
437.537	14525.73
437.743	14841.12
437.95	14654.75
438.157	15684.88
438.364	16329.99
438.571	16104.71
438.778	16260.36
438.985	17763.57
439.192	17257.72
439.399	17517.81
439.606	17255.67
439.813	18371.82
440.02	19227.87
440.227	18998.49
440.433	18664.68
440.64	19336.41
440.847	19360.98
441.054	19573.97
441.261	21003.46
441.467	20905.15
441.674	21279.93
441.881	21812.4
442.088	21839.03
442.294	21916.85
442.501	22371.5
442.708	22912.16
442.914	23504.03
443.121	24640.65
443.328	23884.95
443.534	25347.2
443.741	25001.09
443.948	24677.51
444.154	26410.09
444.361	26338.41
444.568	26377.33
444.774	26592.36
444.981	26819.69
445.187	27536.48
445.394	28828.74
445.6	28509.26
445.807	31099.94
446.013	29817.91
446.22	30125.11
446.426	31570.97
446.633	31857.69
446.839	32900.11
447.046	31497.25
447.252	33289.22
447.459	33125.38
447.665	33184.77
447.871	34776.05
448.078	35992.54
448.284	34851.82
448.491	35218.41
448.697	36873.17
448.903	37342.15
449.11	37526.47
449.316	37225.42
449.522	37925.82
449.728	38943.66
449.935	39379.88
450.141	39156.65
450.347	39748.51
450.553	38871.98
450.76	39193.51
450.966	40874.9
451.172	40047.52
451.378	40940.43
451.584	40225.69
451.791	41698.18
451.997	41522.05
452.203	41964.42
452.409	42210.17
452.615	42138.49
452.821	40405.91
453.027	39930.78
453.233	42249.08
453.44	40876.94
453.646	40887.18
453.852	41356.17
454.058	42177.4
454.264	40704.91
454.47	41894.78
454.676	40776.59
454.882	42095.49
455.088	38245.3
455.294	38968.24
455.5	39635.88
455.705	40121.24
455.911	38579.12
456.117	37854.14
456.323	37004.24
456.529	35056.62
456.735	37225.42
456.941	35644.38
457.147	35423.2
457.352	34341.88
457.558	34036.73
457.764	33895.42
457.97	33195.01
458.176	32949.26
458.381	32717.84
458.587	30864.43
458.793	31304.74
458.999	29523.01
459.204	32269.33
459.41	30764.07
459.616	28425.29
459.821	29002.82
460.027	28634.19
460.233	28179.54
460.438	26881.13
460.644	27028.58
460.85	25676.92
461.055	25179.26
461.261	25527.42
461.466	23563.42
461.672	22631.59
461.878	24470.67
462.083	22885.54
462.289	22650.02
462.494	21761.2
462.7	21247.16
462.905	20808.9
463.111	20985.02
463.316	21621.94
463.522	20575.43
463.727	20982.98
463.932	20958.4
464.138	20606.15
464.343	20849.86
464.549	19915.98
464.754	20694.21
464.959	20749.51
465.165	20395.21
465.37	19498.2
465.575	18867.42
465.781	19723.48
465.986	20151.5
466.191	19066.08
466.397	18779.36
466.602	18042.09
466.807	18687.2
467.012	18603.24
467.218	18670.82
467.423	18318.57
467.628	18212.07
467.833	18943.2
468.038	18593
468.244	17941.74
468.449	18758.88
468.654	17792.24
468.859	17931.5
469.064	17798.38
469.269	17073.4
469.474	17300.73
469.679	17726.71
469.885	16872.7
470.09	17132.79
470.295	17114.36
470.5	16807.17
470.705	16852.22
470.91	16680.19
471.115	16393.48
471.32	16495.88
471.525	16469.25
471.73	16184.59
471.935	16026.89
472.139	15660.31
472.344	15512.85
472.549	15652.11
472.754	15162.65
472.959	15217.94
473.164	14761.25
473.369	14669.09
473.574	15283.48
473.778	14890.27
473.983	14896.41
474.188	14800.16
474.393	14087.47
474.598	14286.12
474.802	13954.35
475.007	13872.43
475.212	13948.2
475.417	13436.21
475.621	13403.44
475.826	13462.83
476.031	13524.27
476.235	12952.89
476.44	13169.98
476.645	12905.79
476.849	12999.99
477.054	12973.37
477.259	12557.63
477.463	12520.77
477.668	12309.83
477.872	12399.94
478.077	12129.61
478.282	11855.18
478.486	11677.01
478.691	11939.15
478.895	12029.26
479.1	11668.81
479.304	11736.4
479.509	11216.21
479.713	11638.09
479.918	11380.05
480.122	10900.83
480.326	11304.28
480.531	11050.33
480.735	10990.94
480.94	10958.17
481.144	11308.37
481.348	10810.72
481.553	11122.01
481.757	10868.06
481.961	10939.74
482.166	10933.59
482.37	10884.44
482.574	10866.01
482.778	10818.91
482.983	10917.21
483.187	10716.51
483.391	10876.25
483.595	10796.38
483.8	10612.06
484.004	10540.38
484.208	10820.95
484.412	10827.1
484.616	10820.95
484.821	10771.8
485.025	10476.9
485.229	10810.72
485.433	10769.76
485.637	10741.08
485.841	10577.25
486.045	10556.77
486.249	10630.49
486.453	10466.66
486.657	10712.41
486.861	10773.85
487.065	10212.71
487.269	10558.81
487.473	10485.09
487.677	10730.84
487.881	10874.2
488.085	10620.25
488.289	10810.72
488.493	10579.29
488.697	10726.75
488.901	10798.43
489.105	10646.88
489.309	10900.83
489.512	10820.95
489.716	10890.59
489.92	10927.45
490.124	10671.45
490.328	11136.34
490.531	10974.55
490.735	11136.34
490.939	10990.94
491.143	11150.68
491.346	11007.32
491.55	11306.32
491.754	11050.33
491.958	11222.36
492.161	11380.05
492.365	11314.52
492.569	11210.07
492.772	11267.41
492.976	11318.61
493.18	11279.7
493.383	11619.66
493.587	11482.45
493.79	11785.55
493.994	11554.13
494.197	11820.36
494.401	11810.12
494.605	11885.9
494.808	12045.64
495.012	12043.59
495.215	12049.74
495.419	12309.83
495.622	12053.83
495.825	12520.77
496.029	12545.34
496.232	12733.76
496.436	12387.65
496.639	13038.91
496.843	12760.38
497.046	13319.48
497.249	13229.37
497.453	13137.21
497.656	13278.52
497.859	13432.12
498.063	13612.34
498.266	13743.41
498.469	13737.26
498.673	13894.96
498.876	14114.09
499.079	14271.78
499.282	14251.3
499.485	14877.98
499.689	14630.18
499.892	14839.07
500.095	14812.45
500.298	15054.11
500.501	15154.46
500.705	15553.81
500.908	15629.59
501.111	15932.68
501.314	15869.2
501.517	16174.35
501.72	16295.18
501.923	16538.88
502.126	16665.86
502.329	17040.64
502.532	17155.32
502.735	17038.59
502.938	17317.11
503.141	17526
503.344	17970.41
503.547	17833.2
503.75	17972.46
503.953	18492.65
504.156	18398.44
504.359	18457.83
504.562	18605.28
504.765	19240.15
504.968	19000.54
505.17	19354.84
505.373	19563.73
505.576	19932.37
505.779	20100.3
505.982	20085.97
506.185	20700.36
506.387	20788.42
506.59	20872.39
506.793	21060.8
506.996	21015.74
507.198	22068.4
507.401	21591.22
507.604	21775.54
507.807	22521
508.009	22240.43
508.212	22496.42
508.415	22807.72
508.617	23317.66
508.82	23155.87
509.022	23295.13
509.225	23833.75
509.428	24138.9
509.63	24157.33
509.833	24163.47
510.035	25058.43
510.238	24597.64
510.44	24921.22
510.643	25339.01
510.845	25633.91
511.048	25435.26
511.25	26094.71
511.453	26205.3
511.655	27026.53
511.858	26635.37
512.06	26752.1
512.262	27407.45
512.465	27313.25
512.667	27634.78
512.87	27821.14
513.072	28075.09
513.274	28773.45
513.477	28640.33
513.679	28978.25
513.881	29336.64
514.084	29387.84
514.286	29817.91
514.488	29838.39
514.69	30506.03
514.893	30571.57
515.095	30665.77
515.297	31411.23
515.499	31163.43
515.701	31581.21
515.904	32019.48
516.106	32197.65
516.308	32390.16
516.51	32637.97
516.712	32672.78
516.914	33266.69
517.116	33760.25
517.318	33741.82
517.52	34089.98
517.722	33940.47
517.925	34178.04
518.127	34966.51
518.329	34972.65
518.531	35019.75
518.733	35853.28
518.935	36027.35
519.136	35896.28
519.338	36461.52
519.54	36668.37
519.742	37180.36
519.944	37139.4
520.146	37557.19
520.348	37897.15
520.55	38149.05
520.752	38439.86
520.954	38898.61
521.155	38646.71
521.357	39228.33
521.559	39250.86
521.761	39752.61
521.963	39893.92
522.164	40340.38
522.366	40246.17
522.568	40362.9
522.77	40694.68
522.971	41163.66
523.173	41370.5
523.375	41411.46
523.576	41892.74
523.778	41606.02
523.98	42011.52
524.181	42562.42
524.383	42312.57
524.584	42785.65
524.786	42695.54
524.988	42834.8
525.189	43078.51
525.391	43807.59
525.592	43694.95
525.794	43920.23
525.995	43934.56
526.197	44381.02
526.398	44442.46
526.6	44493.66
526.801	44860.24
527.003	45075.28
527.204	44903.25
527.406	45237.07
527.607	45429.58
527.808	45667.14
528.01	45144.91
528.211	45292.36
528.412	46281.53
528.614	46160.7
528.815	45876.04
529.016	46738.23
529.218	45925.19
529.419	46584.63
529.62	46228.29
529.822	46682.94
530.023	46582.59
530.224	46836.53
530.425	46869.3
530.626	46811.96
530.828	46383.93
531.029	47248.18
531.23	46811.96
531.431	47188.78
531.632	47090.48
531.833	47295.28
532.035	47317.81
532.236	47369.01
532.437	47874.85
532.638	47270.7
532.839	48048.93
533.04	47598.38
533.241	46799.67
533.442	48112.42
533.643	47532.84
533.844	47807.27
534.045	48134.95
534.246	47098.67
534.447	48159.52
534.648	47881
534.849	47651.62
535.05	47250.22
535.251	47625
535.451	47981.35
535.652	47764.26
535.853	48063.27
536.054	48026.4
536.255	47889.19
536.456	47618.86
536.657	48325.41
536.857	47772.46
537.058	47401.77
537.259	48442.14
537.46	47782.69
537.66	47821.61
537.861	47786.79
538.062	47715.11
538.263	47889.19
538.463	47528.75
538.664	47792.93
538.865	48118.56
539.065	48087.84
539.266	47760.17
539.466	48044.83
539.667	47731.5
539.868	48403.23
540.068	47782.69
540.269	47618.86
540.469	47901.48
540.67	47473.45
540.87	47993.64
541.071	48112.42
541.271	47924
541.472	47921.96
541.672	47639.34
541.873	47680.3
542.073	47377.2
542.274	48345.89
542.474	48161.57
542.675	47266.61
542.875	48048.93
543.075	47784.74
543.276	47422.25
543.476	48055.07
543.676	47330.09
543.877	48030.5
544.077	47696.68
544.277	47766.31
544.478	47430.44
544.678	47700.78
544.878	47567.66
545.078	47762.22
545.279	46908.21
545.479	47336.24
545.679	47264.56
545.879	47321.9
546.079	47223.6
546.28	47215.41
546.48	47080.24
546.68	47985.44
546.88	47649.58
547.08	47131.44
547.28	47301.42
547.48	46844.73
547.68	47235.89
547.88	46623.54
548.081	47850.28
548.281	47627.05
548.481	47377.2
548.681	47520.55
548.881	47465.26
549.081	47248.18
549.28	47033.14
549.48	47326
549.68	47080.24
549.88	48028.45
550.08	47268.65
550.28	47555.37
550.48	47285.04
550.68	47432.49
550.88	46869.3
551.08	47051.57
551.279	46830.39
551.479	47006.51
551.679	47334.19
551.879	46957.36
552.079	47622.95
552.278	46883.64
552.478	47110.96
552.678	46943.03
552.878	47383.34
553.077	46883.64
553.277	46873.4
553.477	47031.09
553.676	47047.47
553.876	47106.87
554.076	46826.29
554.275	46621.5
554.475	46650.17
554.674	46908.21
554.874	46396.22
555.074	46519.1
555.273	46758.71
555.473	46457.66
555.672	46297.92
555.872	46721.85
556.071	46672.7
556.271	46650.17
556.47	46207.81
556.67	46058.31
556.869	45738.82
557.068	46613.3
557.268	46013.25
557.467	46310.21
557.667	45732.68
557.866	45779.78
558.065	46041.92
558.265	45757.25
558.464	45478.73
558.663	46232.38
558.863	45802.31
559.062	46314.3
559.261	45345.61
559.461	45693.77
559.66	45413.2
559.859	45650.76
560.058	45026.13
560.258	45353.8
560.457	45050.7
560.656	45818.69
560.855	45036.37
561.054	45183.82
561.253	45060.94
561.453	45294.41
561.652	45017.94
561.851	45374.28
562.05	45200.21
562.249	44632.92
562.448	44989.27
562.647	44964.69
562.846	44651.35
563.045	44587.86
563.244	44360.54
563.443	44936.02
563.642	43799.4
563.841	44301.15
564.04	44147.55
564.239	44702.55
564.438	43707.24
564.637	43733.86
564.836	44176.22
565.035	43715.43
565.234	43858.79
565.432	43651.94
565.631	43531.11
565.83	43651.94
566.029	43182.96
566.228	43291.5
566.427	42824.56
566.625	42582.9
566.824	42855.28
567.023	43107.18
567.222	42255.23
567.42	43305.84
567.619	42838.9
567.818	42543.99
568.016	42054.53
568.215	42666.87
568.414	42822.51
568.612	42496.89
568.811	42331
569.01	42001.28
569.208	41767.81
569.407	42304.38
569.605	42132.35
569.804	42087.29
570.002	41853.83
570.201	41829.25
570.4	41530.25
570.598	41243.53
570.797	41380.74
570.995	41063.31
571.193	40655.76
571.392	41606.02
571.59	40645.52
571.789	40977.29
571.987	40745.87
572.186	40981.39
572.384	40696.72
572.582	40766.35
572.781	40590.23
572.979	39961.5
573.177	40387.48
573.376	39977.89
573.574	40006.56
573.772	39975.84
573.971	40018.85
574.169	39777.19
574.367	39742.37
574.565	39533.48
574.763	40080.28
574.962	39553.96
575.16	38962.09
575.358	38923.18
575.556	38851.5
575.754	39625.64
575.952	39113.64
576.151	39801.76
576.349	38699.95
576.547	38857.65
576.745	38867.89
576.943	38814.64
577.141	38273.98
577.339	38532.02
577.537	38200.25
577.735	38126.52
577.933	37907.39
578.131	38187.96
578.329	38024.12
578.527	37692.35
578.725	37598.15
578.923	38134.71
579.121	37442.5
579.319	37315.53
579.516	37780.42
579.714	37569.47
579.912	37166.02
580.11	36961.23
580.308	36975.56
580.506	36791.25
580.704	36633.55
580.901	37223.37
581.099	36789.2
581.297	36293.59
581.495	36443.09
581.692	36842.45
581.89	36264.92
582.088	36584.4
582.285	36180.95
582.483	36244.44
582.681	36064.22
582.878	36033.5
583.076	35685.34
583.274	35935.2
583.471	35412.96
583.669	35947.48
583.866	35341.28
584.064	35570.66
584.262	34905.07
584.459	35363.81
584.657	34948.07
584.854	35208.17
585.052	34718.7
585.249	35101.67
585.447	34886.64
585.644	34397.17
585.841	34518
586.039	34774
586.236	34327.54
586.434	34128.89
586.631	34030.58
586.828	34397.17
587.026	34341.88
587.223	34243.57
587.42	33985.53
587.618	33936.38
587.815	33313.8
588.012	33680.38
588.21	33274.88
588.407	33729.53
588.604	33190.92
588.801	33166.34
588.999	32904.2
589.196	33190.92
589.393	32955.4
589.59	32693.26
589.787	32898.06
589.984	32617.49
590.182	32570.38
590.379	32265.24
590.576	32121.88
590.773	32273.43
590.97	31904.79
591.167	32594.96
591.364	32099.35
591.561	31910.94
591.758	31710.24
591.955	32042.01
592.152	31708.19
592.349	31550.49
592.546	31519.78
592.743	31761.44
592.94	30897.19
593.137	31306.79
593.334	31581.21
593.531	30987.3
593.727	31024.17
593.924	30788.65
594.121	30606.38
594.318	30802.99
594.515	30585.9
594.712	30508.08
594.908	30231.6
595.105	30401.58
595.302	30340.15
595.499	30489.65
595.696	30204.98
595.892	29701.18
596.089	29799.48
596.286	29830.2
596.482	29692.99
596.679	29647.93
596.876	29649.98
597.072	29723.71
597.269	29398.08
597.466	29275.2
597.662	29240.39
597.859	29201.47
598.055	29013.06
598.252	29084.74
598.448	28836.94
598.645	28816.46
598.841	28572.75
599.038	28795.98
599.234	28732.49
599.431	28232.79
599.627	28349.52
599.824	28474.45
600.02	27970.65
600.217	28005.46
600.413	28032.08
600.609	27907.16
600.806	28150.87
601.002	27812.95
601.198	27489.37
601.395	27839.58
601.591	27499.61
601.787	27692.12
601.984	27128.93
602.18	27296.86
602.376	27079.78
602.572	27116.64
602.769	27116.64
602.965	26838.12
603.161	27063.4
603.357	26922.09
603.553	26786.92
603.75	26750.06
603.946	26465.39
604.142	26469.48
604.338	26350.7
604.534	26567.79
604.73	26115.19
604.926	26104.95
605.122	26147.95
605.318	25896.05
605.514	25900.15
605.71	25949.3
605.906	25900.15
606.102	25631.86
606.298	25789.56
606.494	25814.13
606.69	25695.35
606.886	25746.55
607.082	25296
607.278	25646.2
607.474	25306.24
607.67	25089.15
607.866	25097.35
608.062	25089.15
608.257	24851.59
608.453	25007.23
608.649	25111.68
608.845	24763.53
609.041	24630.41
609.236	24786.05
609.432	24681.61
609.628	24986.75
609.824	24788.1
610.019	24345.74
610.215	24546.44
610.411	24681.61
610.606	24470.67
610.802	24540.3
610.998	24128.66
611.193	24368.27
611.389	23927.95
611.584	24056.98
611.78	24118.42
611.976	24204.43
612.171	24167.57
612.367	23827.6
612.562	23618.71
612.758	23475.35
612.953	23409.82
613.149	23930
613.344	23526.55
613.539	24226.96
613.735	23581.85
613.93	23506.07
614.126	23510.17
614.321	23846.04
614.517	23567.51
614.712	23342.24
614.907	23411.87
615.103	23397.53
615.298	23184.54
615.493	23579.8
615.688	22983.84
615.884	23501.98
616.079	22768.8
616.274	23305.37
616.47	22785.19
616.665	22813.86
616.86	22832.29
617.055	22842.53
617.25	22772.9
617.445	23047.33
617.641	22604.97
617.836	22615.21
618.031	22619.3
618.226	22521
618.421	21929.14
618.616	22666.41
618.811	22244.52
619.006	22160.56
619.201	22219.95
619.396	22275.24
619.591	21724.34
619.786	21890.23
619.981	21384.38
620.176	21843.12
620.371	21296.32
620.566	21306.55
620.761	21503.16
620.956	21644.47
621.151	21189.82
621.346	21073.09
621.541	20755.65
621.735	21173.44
621.93	20708.55
622.125	20872.39
622.32	20741.32
622.515	20571.33
622.709	20403.4
622.904	20475.08
623.099	20473.03
623.294	20124.88
623.488	20002
623.683	20180.17
623.878	19610.84
624.072	19748.05
624.267	19872.98
624.462	19530.97
624.656	19416.28
624.851	19211.48
625.046	19395.8
625.24	19168.48
625.435	18906.34
625.629	19109.08
625.824	19012.83
626.018	18799.84
626.213	18619.62
626.407	18824.42
626.602	18613.48
626.796	18437.35
626.991	18502.89
627.185	18089.2
627.38	17931.5
627.574	18013.42
627.768	17790.19
627.963	17599.73
628.157	17626.36
628.352	17423.61
628.546	17423.61
628.74	17663.22
628.935	17343.74
629.129	17188.09
629.323	17202.43
629.517	17249.53
629.712	17011.96
629.906	17079.55
630.1	16620.8
630.294	16856.32
630.489	16723.2
630.683	16727.3
630.877	16391.43
631.071	16272.65
631.265	16467.2
631.459	16194.82
631.653	16026.89
631.848	16229.64
632.042	15770.9
632.236	15758.61
632.43	15766.8
632.624	15906.06
632.818	15723.79
633.012	15330.58
633.206	15510.8
633.4	15697.17
633.594	15133.98
633.788	15285.53
633.982	15000.86
634.176	15062.3
634.369	15181.08
634.563	14834.97
634.757	14603.55
634.951	14855.45
635.145	14660.9
635.339	14671.14
635.533	14708
635.726	14550.31
635.92	14292.26
636.114	14220.58
636.308	14204.2
636.501	14193.96
636.695	14400.8
636.889	14060.84
637.083	13874.48
637.276	13876.52
637.47	13698.35
637.664	13548.85
637.857	13671.73
638.051	13653.3
638.244	13425.97
638.438	13428.02
638.632	13227.32
638.825	13030.71
639.019	13210.93
639.212	13163.83
639.406	13063.48
639.599	13141.3
639.793	13083.96
639.986	12729.66
640.18	13032.76
640.373	12705.09
640.567	12660.03
640.76	12686.65
640.954	12744
641.147	12444.99
641.34	12242.25
641.534	12420.42
641.727	12346.69
641.92	12281.16
642.114	12113.22
642.307	12064.07
642.5	12156.23
642.694	11910.47
642.887	11832.65
643.08	11838.8
643.273	12021.06
643.467	11756.88
643.66	11566.42
643.853	11664.72
644.046	11400.53
644.239	11459.92
644.432	11408.72
644.626	11390.29
644.819	11251.03
645.012	11318.61
645.205	11314.52
645.398	11242.84
645.591	11177.3
645.784	10974.55
645.977	11044.18
646.17	11023.7
646.363	10978.65
646.556	10679.65
646.749	10567.01
646.942	10843.48
647.135	10507.62
647.328	10607.97
647.521	10552.67
647.714	10435.94
647.907	10474.85
648.099	10311.01
648.292	10368.35
648.485	10362.21
648.678	10274.15
648.871	10061.16
649.064	10003.82
649.256	10218.85
649.449	9874.79
649.642	9901.42
649.835	9774.44
650.027	9762.16
650.22	9715.05
650.413	9545.07
650.605	9794.92
650.798	9536.88
650.991	9565.55
651.183	9643.37
651.376	9399.66
651.568	9432.43
651.761	9381.23
651.954	9170.29
652.146	9461.1
652.339	9278.83
652.531	9309.55
652.724	9401.71
652.916	8887.67
653.109	9123.19
653.301	9002.36
653.494	8748.41
653.686	8629.63
653.879	9080.18
654.071	8725.88
654.263	8934.78
654.456	8895.86
654.648	8727.93
654.84	8717.69
655.033	8674.68
655.225	8514.94
655.417	8457.6
655.61	8576.38
655.802	8363.39
655.994	8338.82
656.186	8246.66
656.379	8349.06
656.571	8316.29
656.763	8027.53
656.955	8111.49
657.148	8189.32
657.34	8127.88
657.532	8052.1
657.724	8164.74
657.916	8054.15
658.108	7921.03
658.3	7662.99
658.492	8189.32
658.684	7732.62
658.876	7832.97
659.068	7550.35
659.26	7654.8
659.452	7642.51
659.644	7529.87
659.836	7464.33
660.028	7665.04
660.22	7380.37
660.412	7460.24
660.604	7366.03
660.796	7441.81
660.988	7363.98
661.18	7239.06
661.372	7480.72
661.563	7370.13
661.755	7212.43
661.947	7253.39
662.139	7046.55
662.331	7230.87
662.522	6897.05
662.714	7089.56
662.906	6886.81
663.097	7048.6
663.289	7136.66
663.481	6710.68
663.673	6759.83
663.864	6657.43
664.056	6741.4
664.247	6741.4
664.439	6671.77
664.631	6733.21
664.822	6714.78
665.014	6782.36
665.205	6708.63
665.397	6600.09
665.588	6659.48
665.78	6538.65
665.971	6497.69
666.163	6391.2
666.354	6462.88
666.546	6479.26
666.737	6282.66
666.929	6331.81
667.12	6423.97
667.311	6288.8
667.503	6253.98
667.694	6260.13
667.885	6139.3
668.077	6512.03
668.268	6165.92
668.459	6174.11
668.651	6016.42
668.842	6124.96
669.033	5993.89
669.224	6073.76
669.416	6043.04
669.607	5901.73
669.798	6006.18
669.989	6067.62
670.18	5987.75
670.371	5926.31
670.563	5842.34
670.754	6022.56
670.945	5830.06
671.136	5942.69
671.327	5932.45
671.518	5952.93
671.709	5840.29
671.9	5799.34
672.091	5776.81
672.282	5803.43
672.473	5735.85
672.664	5649.83
672.855	5739.94
673.046	5594.54
673.237	5762.47
673.428	5610.92
673.619	5707.18
673.809	5555.63
674	5563.82
674.191	5692.84
674.382	5414.32
674.573	5576.11
674.764	5567.92
674.954	5496.24
675.145	5332.4
675.336	5432.75
675.527	5461.42
675.717	5408.17
675.908	5445.04
676.099	5469.61
676.289	5481.9
676.48	5320.11
676.671	5256.62
676.861	5494.19
677.052	5305.78
677.243	5252.53
677.433	5309.87
677.624	5232.05
677.814	5344.69
678.005	5254.58
678.195	5367.21
678.386	5260.72
678.576	5442.99
678.767	5178.8
678.957	5234.1
679.148	5389.74
679.338	5471.66
679.529	5318.06
679.719	5262.77
679.909	5375.41
680.1	5150.13
680.29	5125.55
680.481	5166.51
680.671	5250.48
680.861	5213.62
681.052	5244.34
681.242	5203.38
681.432	5146.03
681.622	5199.28
681.813	5025.2
682.003	5242.29
682.193	5100.98
682.383	5143.99
682.573	5000.63
682.764	5057.97
682.954	5137.84
683.144	5197.23
683.334	5156.27
683.524	5166.51
683.714	5084.59
683.904	5017.01
684.094	5143.99
684.284	4990.39
684.474	5053.87
684.664	4994.48
684.854	5039.54
685.044	5150.13
685.234	5021.11
685.424	4887.99
685.614	4761.02
685.804	4994.48
685.994	4961.72
686.184	4928.95
686.374	4949.43
686.564	4738.49
686.753	4926.9
686.943	4644.28
687.133	4732.34
687.323	4699.58
687.513	4724.15
687.702	4715.96
687.892	4722.1
688.082	4756.92
688.272	4769.21
688.461	4703.67
688.651	4591.03
688.841	4603.32
689.03	4529.59
689.22	4533.69
689.41	4525.5
689.599	4398.52
689.789	4646.33
689.979	4437.44
690.168	4548.03
690.358	4328.89
690.547	4367.81
690.737	4515.26
690.926	4576.7
691.116	4330.94
691.305	4488.64
691.495	4453.82
691.684	4130.24
691.874	4314.56
692.063	4349.37
692.252	4294.08
692.442	4222.4
692.631	4216.26
692.82	4142.53
693.01	4005.31
693.199	4087.23
693.388	4091.33
693.578	4013.51
693.767	4038.08
693.956	3993.03
694.146	3988.93
694.335	4068.8
694.524	3907.01
694.713	4013.51
694.902	3976.64
695.092	3923.4
695.281	3964.36
695.47	3956.16
695.659	4011.46
695.848	4054.47
696.037	3866.05
696.226	3837.38
696.415	3943.88
696.604	3988.93
696.793	3851.72
696.982	3870.15
697.171	3995.08
697.36	3825.09
697.549	3913.16
697.738	3780.04
697.927	3749.32
698.116	3859.91
698.305	3790.28
698.494	3849.67
698.683	3859.91
698.872	3907.01
699.061	3808.71
699.25	3831.24
699.438	3659.21
699.627	3724.74
699.816	3777.99
700.005	3651.02
700.193	3661.26
700.382	3726.79
700.571	3741.13
700.76	3892.68
700.948	3839.43
701.137	3739.08
701.326	3782.09
701.514	3661.26
701.703	3716.55
701.892	3644.87
702.08	3767.75
702.269	3816.9
702.457	3712.46
702.646	3669.45
702.834	3630.54
703.023	3661.26
703.212	3608.01
703.4	3663.3
703.589	3683.78
703.777	3751.37
703.965	3579.34
704.154	3659.21
704.342	3663.3
704.531	3653.06
704.719	3515.85
704.907	3618.25
705.096	3597.77
705.284	3552.71
705.472	3669.45
705.661	3741.13
705.849	3618.25
706.037	3671.5
706.226	3616.2
706.414	3798.47
706.602	3622.34
706.79	3614.15
706.979	3644.87
707.167	3673.54
707.355	3591.63
707.543	3601.87
707.731	3710.41
707.919	3608.01
708.107	3671.5
708.296	3638.73
708.484	3610.06
708.672	3581.39
708.86	3694.02
709.048	3655.11
709.236	3597.77
709.424	3732.94
709.612	3554.76
709.8	3661.26
709.988	3560.91
710.176	3786.18
710.364	3691.98
710.551	3663.3
710.739	3521.99
710.927	3612.1
711.115	3511.75
711.303	3823.05
711.491	3679.69
711.679	3626.44
711.866	3663.3
712.054	3734.98
712.242	3702.22
712.43	3587.53
712.617	3739.08
712.805	3716.55
712.993	3571.15
713.181	3618.25
713.368	3726.79
713.556	3675.59
713.744	3683.78
713.931	3796.42
714.119	3648.97
714.306	3757.51
714.494	3767.75
714.682	3741.13
714.869	3567.05
715.057	3691.98
715.244	3712.46
715.432	3800.52
715.619	3730.89
715.807	3597.77
715.994	3802.57
716.182	3716.55
716.369	3726.79
716.556	3771.85
716.744	3724.74
716.931	3634.63
717.119	3753.41
717.306	3771.85
717.493	3798.47
717.681	3648.97
717.868	3851.72
718.055	3829.19
718.242	3917.25
718.43	3800.52
718.617	3835.33
718.804	3599.82
718.991	3757.51
719.179	3794.37
719.366	3843.53
719.553	3816.9
719.74	3857.86
719.927	3745.22
720.114	3929.54
720.301	3886.53
720.488	3716.55
720.676	3864.01
720.863	3839.43
721.05	3859.91
721.237	3907.01
721.424	3790.28
721.611	3810.76
721.798	3767.75
721.985	3784.13
722.172	3759.56
722.358	3767.75
722.545	3757.51
722.732	3851.72
722.919	3890.63
723.106	3653.06
723.293	3710.41
723.48	3872.2
723.667	3794.37
723.853	3755.46
724.04	3831.24
724.227	3888.58
724.414	3821
724.6	3696.07
724.787	3857.86
724.974	3974.6
725.161	3866.05
725.347	3769.8
725.534	3929.54
725.72	3847.62
725.907	3769.8
726.094	3773.89
726.28	3769.8
726.467	3829.19
726.653	3812.81
726.84	3978.69
727.027	3864.01
727.213	3694.02
727.4	3958.21
727.586	3816.9
727.773	3947.97
727.959	3962.31
728.145	3829.19
728.332	3841.48
728.518	3974.6
728.705	3888.58
728.891	3835.33
729.077	3904.96
729.264	3788.23
729.45	3880.39
729.636	3929.54
729.823	3790.28
730.009	3818.95
730.195	3995.08
730.382	3972.55
730.568	3915.2
730.754	3935.68
730.94	3755.46
731.126	3827.14
731.313	3931.59
731.499	3945.92
731.685	3907.01
731.871	3859.91
732.057	3741.13
732.243	3882.44
732.429	3810.76
732.615	3894.72
732.801	3859.91
732.987	3966.4
733.173	3890.63
733.359	3933.64
733.545	3794.37
733.731	3880.39
733.917	3882.44
734.103	3890.63
734.289	3814.85
734.475	3753.41
734.661	3851.72
734.847	3775.94
735.033	3827.14
735.219	3757.51
735.404	3825.09
735.59	3880.39
735.776	3708.36
735.962	3941.83
736.148	3823.05
736.333	3841.48
736.519	3798.47
736.705	3814.85
736.89	3827.14
737.076	3761.61
737.262	3741.13
737.447	3724.74
737.633	3667.4
737.819	3798.47
738.004	3718.6
738.19	3812.81
738.375	3718.6
738.561	3790.28
738.747	3753.41
738.932	3773.89
739.118	3773.89
739.303	3767.75
739.489	3724.74
739.674	3741.13
739.859	3657.16
740.045	3663.3
740.23	3696.07
740.416	3667.4
740.601	3689.93
740.786	3702.22
740.972	3677.64
741.157	3640.78
741.342	3640.78
741.528	3612.1
741.713	3534.28
741.898	3544.52
742.084	3478.99
742.269	3481.03
742.454	3589.58
742.639	3538.38
742.824	3452.36
743.01	3493.32
743.195	3501.51
743.38	3446.22
743.565	3405.26
743.75	3478.99
743.935	3362.25
744.12	3489.23
744.305	3362.25
744.49	3284.43
744.675	3411.4
744.86	3304.91
745.045	3431.88
745.23	3257.81
745.415	3184.08
745.6	3296.72
745.785	3335.63
745.97	3376.59
746.155	3331.53
746.34	3366.35
746.525	3239.37
746.71	3349.96
746.895	3175.89
747.079	3057.11
747.264	3071.44
747.449	3179.98
747.634	3177.94
747.819	3239.37
748.003	3069.39
748.188	2969.04
748.373	3014.1
748.557	2991.57
748.742	3022.29
748.927	3036.63
749.111	3001.81
749.296	2903.51
749.481	2788.82
749.665	2981.33
749.85	2917.84
750.034	3018.19
750.219	2784.73
750.404	2893.27
750.588	2651.61
750.773	2700.76
750.957	2860.5
751.141	2700.76
751.326	2694.61
751.51	2647.51
751.695	2567.64
751.879	2700.76
752.064	2770.39
752.248	2653.66
752.432	2579.93
752.617	2635.22
752.801	2491.87
752.985	2616.79
753.17	2549.21
753.354	2479.58
753.538	2549.21
753.722	2504.15
753.907	2487.77
754.091	2522.59
754.275	2440.67
754.459	2383.32
754.643	2393.56
754.828	2297.31
755.012	2448.86
755.196	2223.58
755.38	2303.45
755.564	2305.5
755.748	2276.83
755.932	2373.08
756.116	2354.65
756.3	2287.07
756.484	2276.83
756.668	2186.72
756.852	2174.43
757.036	2252.25
757.22	2268.64
757.404	2069.98
757.588	2180.57
757.772	2180.57
757.956	2092.51
758.14	2237.92
758.323	2088.42
758.507	2178.53
758.691	1977.83
758.875	2039.26
759.059	1988.07
759.242	1922.53
759.426	2094.56
759.61	1955.3
759.794	1992.16
759.977	1971.68
760.161	2127.33
760.345	2024.93
760.528	2080.22
760.712	1957.35
760.895	1938.91
761.079	1979.87
761.263	1850.85
761.446	1850.85
761.63	1859.04
761.813	1900
761.997	1832.42
762.18	1836.52
762.364	1865.19
762.547	1727.97
762.731	1893.86
762.914	1773.03
763.098	1766.89
763.281	1727.97
763.464	1813.99
763.648	1813.99
763.831	1770.98
764.015	1707.49
764.198	1736.17
764.381	1725.93
764.564	1775.08
764.748	1750.5
764.931	1664.49
765.114	1576.42
765.297	1752.55
765.481	1678.82
765.664	1517.03
765.847	1621.48
766.03	1752.55
766.213	1562.09
766.397	1654.25
766.58	1469.93
766.763	1619.43
766.946	1551.85
767.129	1580.52
767.312	1523.18
767.495	1658.34
767.678	1488.36
767.861	1541.61
768.044	1603.05
768.227	1646.05
768.41	1613.29
768.593	1637.86
768.776	1680.87
768.959	1523.18
769.142	1498.6
769.324	1535.46
769.507	1490.41
769.69	1541.61
769.873	1506.79
770.056	1596.9
770.239	1545.7
770.421	1437.16
770.604	1471.98
770.787	1482.22
770.97	1396.2
771.152	1422.83
771.335	1445.35
771.518	1359.34
771.7	1431.02
771.883	1373.68
772.066	1375.72
772.248	1400.3
772.431	1414.63
772.613	1377.77
772.796	1297.9
772.978	1371.63
773.161	1474.03
773.343	1302
773.526	1328.62
773.708	1308.14
773.891	1195.5
774.073	1242.61
774.256	1267.18
774.438	1295.85
774.621	1261.04
774.803	1234.41
774.985	1218.03
775.168	1183.21
775.35	1250.8
775.532	1226.22
775.715	1193.45
775.897	1156.59
776.079	1175.02
776.261	1252.84
776.444	1152.49
776.626	1220.08
776.808	1060.34
776.99	1058.29
777.173	1160.69
777.355	1138.16
777.537	1162.73
777.719	1113.58
777.901	1105.39
778.083	1054.19
778.265	1037.81
778.447	1058.29
778.629	1136.11
778.811	1175.02
778.993	1064.43
779.175	1078.77
779.357	959.99
779.539	988.66
779.721	1058.29
779.903	1103.34
780.085	1105.39
780.267	955.89
780.449	1027.57
780.631	1005.04
780.812	1072.62
780.994	990.7
781.176	923.12
781.358	933.36
781.54	957.94
781.721	890.35
781.903	1015.28
782.085	914.93
782.267	919.03
782.448	867.83
782.63	871.92
782.812	933.36
782.993	900.59
783.175	859.63
783.357	878.07
783.538	857.59
783.72	833.01
783.901	798.2
784.083	892.4
784.264	833.01
784.446	816.63
784.627	769.52
784.809	740.85
784.99	792.05
785.172	806.39
785.353	792.05
785.535	771.57
785.716	742.9
785.897	681.46
786.079	785.91
786.26	681.46
786.441	742.9
786.623	667.13
786.804	658.93
786.985	593.4
787.167	753.14
787.348	679.41
787.529	660.98
787.71	730.61
787.891	660.98
788.073	617.97
788.254	632.31
788.435	667.13
788.616	755.19
788.797	562.68
788.978	609.78
789.159	562.68
789.34	628.21
789.522	595.45
789.703	681.46
789.884	597.49
790.065	583.16
790.246	656.89
790.427	595.45
790.607	640.5
790.788	595.45
790.969	601.59
791.15	626.17
791.331	562.68
791.512	548.34
791.693	501.24
791.874	603.64
792.054	654.84
792.235	503.29
792.416	566.78
792.597	562.68
792.778	536.06
792.958	527.86
793.139	609.78
793.32	574.97
793.5	548.34
793.681	525.82
793.862	638.45
794.042	472.57
794.223	460.28
794.404	474.62
794.584	450.04
794.765	521.72
794.945	542.2
795.126	501.24
795.306	617.97
795.487	441.85
795.667	519.67
795.848	460.28
796.028	431.61
796.209	513.53
796.389	523.77
796.57	521.72
796.75	425.47
796.93	505.34
797.111	351.74
797.291	404.99
797.471	441.85
797.652	480.76
797.832	427.51
798.012	513.53
798.192	327.16
798.373	413.18
798.553	402.94
798.733	476.66
798.913	421.37
799.093	327.16
799.274	417.27
799.454	402.94
799.634	445.95
799.814	437.75
799.994	464.38
800.174	425.47
800.354	488.95
800.534	368.12
800.714	413.18
800.894	411.13
801.074	294.4
801.254	353.79
801.434	411.13
801.614	349.69
801.794	407.03
801.974	1310.19
802.154	343.55
802.334	443.9
802.514	325.12
802.693	394.75
802.873	327.16
803.053	456.19
803.233	380.41
803.413	353.79
803.592	364.03
803.772	368.12
803.952	341.5
804.131	290.3
804.311	378.36
804.491	361.98
804.67	386.55
804.85	376.31
805.03	269.82
805.209	404.99
805.389	419.32
805.568	316.92
805.748	302.59
805.928	288.25
806.107	357.88
806.287	331.26
806.466	243.2
806.646	316.92
806.825	271.87
807.004	253.44
807.184	318.97
807.363	300.54
807.543	273.92
807.722	237.05
807.901	415.23
808.081	292.35
808.26	304.64
808.439	376.31
808.619	380.41
808.798	318.97
808.977	269.82
809.156	337.4
809.336	306.68
809.515	329.21
809.694	167.42
809.873	278.01
810.052	259.58
810.231	333.31
810.411	361.98
810.59	380.41
810.769	245.24
810.948	273.92
811.127	212.48
811.306	269.82
811.485	222.72
811.664	286.2
811.843	284.16
812.022	255.48
812.201	286.2
812.38	316.92
812.559	292.35
812.737	316.92
812.916	245.24
813.095	204.28
813.274	241.15
813.453	271.87
813.632	253.44
813.811	267.77
813.989	171.52
814.168	243.2
814.347	187.9
814.526	157.18
814.704	267.77
814.883	232.96
815.062	251.39
815.24	226.81
815.419	241.15
815.598	232.96
815.776	159.23
815.955	169.47
816.133	171.52
816.312	267.77
816.49	189.95
816.669	185.85
816.847	177.66
817.026	212.48
817.204	169.47
817.383	218.62
817.561	216.57
817.74	302.59
817.918	171.52
818.097	161.28
818.275	165.37
818.453	235
818.632	222.72
818.81	138.75
818.988	214.52
819.167	206.33
819.345	169.47
819.523	235
819.701	198.14
819.879	185.85
820.058	239.1
820.236	167.42
820.414	177.66
820.592	159.23
820.77	169.47
820.948	189.95
821.127	194.05
821.305	179.71
821.483	163.33
821.661	210.43
821.839	136.7
822.017	189.95
822.195	155.13
822.373	161.28
822.551	232.96
822.729	202.24
822.907	124.41
823.085	226.81
823.262	171.52
823.44	148.99
823.618	196.09
823.796	151.04
823.974	122.37
824.152	155.13
824.329	206.33
824.507	177.66
824.685	122.37
824.863	214.52
825.04	163.33
825.218	235
825.396	216.57
825.574	206.33
825.751	71.17
825.929	235
826.107	171.52
826.284	208.38
826.462	177.66
826.639	124.41
826.817	46.59
826.994	62.98
827.172	124.41
827.349	165.37
827.527	138.75
827.704	122.37
827.882	118.27
828.059	122.37
828.237	138.75
828.414	169.47
828.591	87.55
828.769	146.94
828.946	91.65
829.124	128.51
829.301	247.29
829.478	105.98
829.655	165.37
829.833	220.67
830.01	22.02
830.187	157.18
830.364	194.05
830.542	126.46
830.719	194.05
830.896	144.89
831.073	177.66
831.25	126.46
831.427	198.14
831.604	153.09
831.782	89.6
831.959	165.37
832.136	185.85
832.313	169.47
832.49	153.09
832.667	103.93
832.844	54.78
833.021	146.94
833.198	116.22
833.374	153.09
833.551	144.89
833.728	81.41
833.905	118.27
834.082	75.26
834.259	148.99
834.436	105.98
834.612	177.66
834.789	95.74
834.966	85.5
835.143	48.64
835.319	71.17
835.496	128.51
835.673	155.13
835.85	189.95
836.026	128.51
836.203	130.56
836.38	52.74
836.556	161.28
836.733	126.46
836.909	194.05
837.086	116.22
837.262	13.82
837.439	71.17
837.616	42.5
837.792	91.65
837.968	122.37
838.145	75.26
838.321	46.59
838.498	34.3
838.674	79.36
838.851	128.51
839.027	97.79
839.203	112.13
839.38	200.19
839.556	79.36
839.732	124.41
839.909	93.69
840.085	105.98
840.261	87.55
840.437	112.13
840.614	136.7
840.79	151.04
840.966	95.74
841.142	103.93
841.318	15.87
841.494	60.93
841.671	124.41
841.847	136.7
842.023	28.16
842.199	81.41
842.375	128.51
842.551	30.21
842.727	62.98
842.903	218.62
843.079	-41.47
843.255	122.37
843.431	108.03
843.607	161.28
843.783	1.54
843.959	122.37
844.134	42.5
844.31	173.57
844.486	112.13
844.662	9.73
844.838	-2.56
845.013	103.93
845.189	77.31
845.365	85.5
845.541	75.26
845.716	9.73
845.892	91.65
846.068	-23.04
846.244	-10.75
846.419	91.65
846.595	30.21
846.77	56.83
846.946	114.17
847.122	28.16
847.297	71.17
847.473	93.69
847.648	69.12
847.824	36.35
847.999	77.31
848.175	101.89
848.35	15.87
848.526	126.46
848.701	77.31
848.876	163.33
849.052	69.12
849.227	28.16
849.403	50.69
849.578	132.61
849.753	58.88
849.929	79.36
850.104	79.36
850.279	95.74
850.454	87.55
850.63	81.41
850.805	52.74
850.98	89.6
851.155	97.79
851.33	79.36
851.505	-14.85
851.681	130.56
851.856	-23.04
852.031	87.55
852.206	48.64
852.381	34.3
852.556	50.69
852.731	71.17
852.906	87.55
853.081	48.64
853.256	128.51
853.431	48.64
853.606	15.87
853.781	56.83
853.956	-4.61
854.131	91.65
854.305	54.78
854.48	13.82
854.655	62.98
854.83	17.92
855.005	28.16
855.18	3.58
855.354	62.98
855.529	95.74
855.704	79.36
855.879	65.02
856.053	42.5
856.228	69.12
856.403	60.93
856.577	26.11
856.752	-57.86
856.926	7.68
857.101	87.55
857.276	79.36
857.45	58.88
857.625	95.74
857.799	48.64
857.974	77.31
858.148	38.4
858.323	44.54
858.497	7.68
858.672	15.87
858.846	-82.43
859.02	9.73
859.195	-10.75
859.369	58.88
859.543	54.78
859.718	15.87
859.892	42.5
860.066	26.11
860.241	-20.99
860.415	1.54
860.589	46.59
860.763	71.17
860.938	7.68
861.112	-14.85
861.286	95.74
861.46	67.07
861.634	22.02
861.808	87.55
861.982	48.64
862.157	-20.99
862.331	-8.7
862.505	15.87
862.679	-4.61
862.853	79.36
863.027	44.54
863.201	52.74
863.375	-51.71
863.549	79.36
863.722	99.84
863.896	73.21
864.07	95.74
864.244	87.55
864.418	5.63
864.592	28.16
864.766	65.02
864.939	58.88
865.113	5.63
865.287	46.59
865.461	-0.51
865.634	83.45
865.808	-43.52
865.982	34.3
866.156	-51.71
866.329	-2.56
866.503	73.21
866.676	67.07
866.85	-6.66
867.024	-66.05
867.197	161.28
867.371	60.93
867.544	79.36
867.718	5.63
867.891	48.64
868.065	-78.33
868.238	-20.99
868.412	56.83
868.585	-23.04
868.759	-66.05
868.932	-35.33
869.105	-6.66
869.279	7.68
869.452	-39.42
869.625	38.4
869.799	65.02
869.972	75.26
870.145	13.82
870.319	36.35
870.492	13.82
870.665	54.78
870.838	-0.51
871.011	-66.05
871.185	30.21
871.358	-6.66
871.531	60.93
871.704	30.21
871.877	44.54
872.05	65.02
872.223	9.73
872.396	122.37
872.569	44.54
872.742	-6.66
872.915	116.22
873.088	48.64
873.261	26.11
873.434	62.98
873.607	40.45
873.78	-8.7
873.953	-2.56
874.126	-2.56
874.299	-4.61
874.471	13.82
874.644	-0.51
874.817	11.78
874.99	83.45
875.163	22.02
875.335	62.98
875.508	54.78
875.681	56.83
875.853	44.54
876.026	13.82
876.199	89.6
876.371	26.11
876.544	79.36
876.717	71.17
876.889	-12.8
877.062	36.35
877.234	-10.75
877.407	-4.61
877.579	95.74
877.752	56.83
877.924	103.93
878.097	67.07
878.269	-53.76
878.442	124.41
878.614	-8.7
878.786	73.21
878.959	30.21
879.131	-37.38
879.303	-84.48
879.476	-35.33
879.648	46.59
879.82	-18.94
879.993	-39.42
880.165	71.17
880.337	-57.86
880.509	-4.61
880.681	-39.42
880.854	-16.9
881.026	34.3
881.198	105.98
881.37	-6.66
881.542	7.68
881.714	-10.75
881.886	-35.33
882.058	24.06
882.23	50.69
882.402	-4.61
882.574	67.07
882.746	42.5
882.918	-23.04
883.09	9.73
883.262	-27.14
883.434	24.06
883.606	-33.28
883.778	-23.04
883.95	77.31
884.122	-45.57
884.293	34.3
884.465	36.35
884.637	-33.28
884.809	7.68
884.98	-16.9
885.152	91.65
885.324	24.06
885.496	-31.23
885.667	-25.09
885.839	13.82
886.011	101.89
886.182	22.02
886.354	7.68
886.525	-45.57
886.697	58.88
886.869	-27.14
887.04	79.36
887.212	83.45
887.383	89.6
887.555	40.45
887.726	9.73
887.897	-119.29
888.069	44.54
888.24	-37.38
888.412	7.68
888.583	-14.85
888.754	-39.42
888.926	-35.33
889.097	1.54
889.268	-84.48
889.44	-8.7
889.611	-29.18
889.782	-0.51
889.953	5.63
890.125	40.45
890.296	15.87
890.467	40.45
890.638	-59.9
890.809	17.92
890.98	-16.9
891.151	44.54
891.323	65.02
891.494	-43.52
891.665	46.59
891.836	-10.75
892.007	54.78
892.178	5.63
892.349	-2.56
892.52	36.35
892.691	48.64
892.862	9.73
893.032	-64
893.203	77.31
893.374	-2.56
893.545	32.26
893.716	-4.61
893.887	34.3
894.057	-25.09
894.228	13.82
894.399	-31.23
894.57	32.26
894.74	-6.66
894.911	103.93
895.082	-18.94
895.253	-10.75
895.423	24.06
895.594	42.5
895.764	56.83
895.935	40.45
896.106	38.4
896.276	-18.94
896.447	-25.09
896.617	13.82
896.788	-37.38
896.958	11.78
897.129	-20.99
897.299	52.74
897.47	50.69
897.64	69.12
897.81	32.26
897.981	-86.53
898.151	-33.28
898.322	44.54
898.492	9.73
898.662	5.63
898.832	67.07
899.003	-35.33
899.173	105.98
899.343	-27.14
899.513	-57.86
