Data from USB4F104151__70__13-05-58-680.txt Node

Date: Fri Mar 14 13:05:58 EDT 2025
User: louis
Spectrometer: USB4F10415
Trigger mode: 4
Integration Time (sec): 4.000000E-2
Scans to average: 1
Electric dark correction enabled: true
Nonlinearity correction enabled: false
Boxcar width: 0
XAxis mode: Wavelengths
Number of Pixels in Spectrum: 3648
>>>>>Begin Spectral Data<<<<<
178.204	-211.45
178.424	-211.45
178.644	-211.45
178.864	-250.36
179.084	-152.06
179.304	19.97
179.524	40.45
179.744	75.26
179.964	-53.76
180.184	-45.57
180.404	-12.8
180.624	36.35
180.844	-47.62
181.064	-10.75
181.283	1.54
181.503	-31.23
181.723	28.16
181.943	-82.43
182.163	15.87
182.383	-14.85
182.602	67.07
182.822	50.69
183.042	-2.56
183.262	50.69
183.482	-16.9
183.701	54.78
183.921	-12.8
184.141	-18.94
184.361	91.65
184.58	26.11
184.8	30.21
185.02	-14.85
185.239	17.92
185.459	15.87
185.679	38.4
185.898	-0.51
186.118	54.78
186.338	54.78
186.557	108.03
186.777	-72.19
186.997	-0.51
187.216	71.17
187.436	85.5
187.655	114.17
187.875	54.78
188.095	71.17
188.314	32.26
188.534	75.26
188.753	17.92
188.973	24.06
189.192	110.08
189.412	67.07
189.631	7.68
189.851	52.74
190.07	114.17
190.29	-39.42
190.509	-12.8
190.729	91.65
190.948	22.02
191.168	200.19
191.387	65.02
191.607	13.82
191.826	-6.66
192.045	-2.56
192.265	54.78
192.484	56.83
192.704	24.06
192.923	7.68
193.142	124.41
193.362	-16.9
193.581	52.74
193.8	-45.57
194.02	46.59
194.239	15.87
194.458	36.35
194.678	48.64
194.897	52.74
195.116	22.02
195.335	15.87
195.555	128.51
195.774	22.02
195.993	91.65
196.212	24.06
196.432	1.54
196.651	-61.95
196.87	-27.14
197.089	114.17
197.308	56.83
197.528	13.82
197.747	-59.9
197.966	46.59
198.185	50.69
198.404	-2.56
198.623	54.78
198.842	7.68
199.062	108.03
199.281	97.79
199.5	-4.61
199.719	69.12
199.938	60.93
200.157	89.6
200.376	65.02
200.595	3.58
200.814	36.35
201.033	24.06
201.252	46.59
201.471	52.74
201.69	7.68
201.909	103.93
202.128	28.16
202.347	69.12
202.566	50.69
202.785	-61.95
203.004	-2.56
203.223	103.93
203.442	-27.14
203.661	85.5
203.879	42.5
204.098	48.64
204.317	-16.9
204.536	30.21
204.755	28.16
204.974	65.02
205.193	44.54
205.411	83.45
205.63	50.69
205.849	60.93
206.068	-8.7
206.287	79.36
206.505	7.68
206.724	38.4
206.943	-4.61
207.162	32.26
207.381	38.4
207.599	22.02
207.818	17.92
208.037	38.4
208.255	3.58
208.474	69.12
208.693	5.63
208.911	22.02
209.13	-14.85
209.349	-12.8
209.567	71.17
209.786	87.55
210.005	52.74
210.223	-12.8
210.442	-12.8
210.661	-0.51
210.879	56.83
211.098	-43.52
211.316	73.21
211.535	32.26
211.753	65.02
211.972	75.26
212.191	-51.71
212.409	67.07
212.628	48.64
212.846	22.02
213.065	89.6
213.283	62.98
213.502	-29.18
213.72	85.5
213.938	110.08
214.157	54.78
214.375	28.16
214.594	42.5
214.812	22.02
215.031	-23.04
215.249	-0.51
215.467	46.59
215.686	-16.9
215.904	44.54
216.122	56.83
216.341	65.02
216.559	52.74
216.778	42.5
216.996	83.45
217.214	52.74
217.432	36.35
217.651	13.82
217.869	32.26
218.087	54.78
218.306	116.22
218.524	44.54
218.742	50.69
218.96	-4.61
219.179	50.69
219.397	81.41
219.615	87.55
219.833	40.45
220.051	1.54
220.27	-29.18
220.488	75.26
220.706	13.82
220.924	28.16
221.142	11.78
221.36	71.17
221.578	-27.14
221.796	142.85
222.015	128.51
222.233	-4.61
222.451	38.4
222.669	28.16
222.887	-29.18
223.105	44.54
223.323	58.88
223.541	11.78
223.759	44.54
223.977	-20.99
224.195	126.46
224.413	11.78
224.631	42.5
224.849	69.12
225.067	103.93
225.285	-70.14
225.503	19.97
225.721	9.73
225.939	-8.7
226.157	83.45
226.375	144.89
226.592	56.83
226.81	-18.94
227.028	75.26
227.246	120.32
227.464	-27.14
227.682	54.78
227.9	40.45
228.117	26.11
228.335	67.07
228.553	11.78
228.771	7.68
228.989	11.78
229.206	52.74
229.424	-6.66
229.642	-59.9
229.86	71.17
230.077	15.87
230.295	40.45
230.513	99.84
230.731	62.98
230.948	52.74
231.166	110.08
231.384	79.36
231.601	-10.75
231.819	81.41
232.037	7.68
232.254	38.4
232.472	3.58
232.689	-29.18
232.907	-16.9
233.125	-12.8
233.342	-4.61
233.56	3.58
233.777	-27.14
233.995	42.5
234.213	-2.56
234.43	3.58
234.648	32.26
234.865	38.4
235.083	60.93
235.3	52.74
235.518	7.68
235.735	40.45
235.953	28.16
236.17	-43.52
236.388	44.54
236.605	-0.51
236.822	38.4
237.04	77.31
237.257	75.26
237.475	54.78
237.692	7.68
237.909	-41.47
238.127	32.26
238.344	3.58
238.562	7.68
238.779	-20.99
238.996	-20.99
239.214	17.92
239.431	114.17
239.648	-2.56
239.865	17.92
240.083	-27.14
240.3	-4.61
240.517	89.6
240.735	79.36
240.952	44.54
241.169	13.82
241.386	52.74
241.603	-49.66
241.821	-18.94
242.038	83.45
242.255	99.84
242.472	-0.51
242.689	48.64
242.907	130.56
243.124	-57.86
243.341	24.06
243.558	9.73
243.775	-35.33
243.992	-6.66
244.209	62.98
244.426	19.97
244.643	101.89
244.86	54.78
245.078	52.74
245.295	44.54
245.512	77.31
245.729	-20.99
245.946	38.4
246.163	-10.75
246.38	22.02
246.597	30.21
246.814	81.41
247.031	-2.56
247.248	24.06
247.464	85.5
247.681	30.21
247.898	44.54
248.115	54.78
248.332	-18.94
248.549	130.56
248.766	48.64
248.983	65.02
249.2	26.11
249.417	30.21
249.633	-0.51
249.85	38.4
250.067	30.21
250.284	26.11
250.501	56.83
250.717	65.02
250.934	-14.85
251.151	38.4
251.368	32.26
251.585	91.65
251.801	19.97
252.018	11.78
252.235	-0.51
252.451	-10.75
252.668	7.68
252.885	44.54
253.102	24.06
253.318	32.26
253.535	36.35
253.752	-20.99
253.968	9.73
254.185	-33.28
254.401	24.06
254.618	46.59
254.835	15.87
255.051	116.22
255.268	-8.7
255.484	79.36
255.701	17.92
255.917	48.64
256.134	-29.18
256.351	50.69
256.567	17.92
256.784	79.36
257	-18.94
257.217	36.35
257.433	26.11
257.65	5.63
257.866	118.27
258.082	3.58
258.299	32.26
258.515	36.35
258.732	-2.56
258.948	5.63
259.165	30.21
259.381	91.65
259.597	71.17
259.814	-31.23
260.03	-31.23
260.246	77.31
260.463	28.16
260.679	120.32
260.895	40.45
261.112	-45.57
261.328	36.35
261.544	28.16
261.761	91.65
261.977	17.92
262.193	-33.28
262.409	85.5
262.626	-4.61
262.842	71.17
263.058	-33.28
263.274	91.65
263.49	-23.04
263.707	69.12
263.923	56.83
264.139	-82.43
264.355	9.73
264.571	110.08
264.787	56.83
265.004	-43.52
265.22	19.97
265.436	48.64
265.652	13.82
265.868	77.31
266.084	56.83
266.3	52.74
266.516	3.58
266.732	58.88
266.948	60.93
267.164	40.45
267.38	30.21
267.596	15.87
267.812	124.41
268.028	17.92
268.244	1.54
268.46	28.16
268.676	-18.94
268.892	5.63
269.108	-12.8
269.324	-72.19
269.54	22.02
269.756	95.74
269.972	-8.7
270.188	-12.8
270.403	26.11
270.619	19.97
270.835	65.02
271.051	32.26
271.267	-10.75
271.483	-12.8
271.698	130.56
271.914	101.89
272.13	-12.8
272.346	9.73
272.562	52.74
272.777	103.93
272.993	15.87
273.209	24.06
273.425	-20.99
273.64	-2.56
273.856	75.26
274.072	38.4
274.287	30.21
274.503	126.46
274.719	56.83
274.934	54.78
275.15	-43.52
275.366	50.69
275.581	19.97
275.797	5.63
276.012	-29.18
276.228	-45.57
276.444	110.08
276.659	42.5
276.875	7.68
277.09	7.68
277.306	44.54
277.521	48.64
277.737	11.78
277.952	-4.61
278.168	24.06
278.383	26.11
278.599	38.4
278.814	48.64
279.03	65.02
279.245	87.55
279.461	-45.57
279.676	93.69
279.892	-88.57
280.107	13.82
280.322	-29.18
280.538	118.27
280.753	50.69
280.969	97.79
281.184	36.35
281.399	118.27
281.615	13.82
281.83	95.74
282.045	-12.8
282.26	-14.85
282.476	40.45
282.691	75.26
282.906	34.3
283.122	34.3
283.337	-33.28
283.552	42.5
283.767	7.68
283.983	17.92
284.198	-20.99
284.413	95.74
284.628	11.78
284.843	105.98
285.058	71.17
285.274	-6.66
285.489	-31.23
285.704	38.4
285.919	-27.14
286.134	-78.33
286.349	3.58
286.564	-12.8
286.779	120.32
286.995	79.36
287.21	52.74
287.425	97.79
287.64	24.06
287.855	-14.85
288.07	71.17
288.285	110.08
288.5	122.37
288.715	38.4
288.93	142.85
289.145	-61.95
289.36	69.12
289.575	-8.7
289.79	50.69
290.004	22.02
290.219	93.69
290.434	28.16
290.649	7.68
290.864	-29.18
291.079	50.69
291.294	136.7
291.509	17.92
291.724	22.02
291.938	7.68
292.153	28.16
292.368	-20.99
292.583	65.02
292.798	62.98
293.012	67.07
293.227	3.58
293.442	116.22
293.657	32.26
293.871	46.59
294.086	-23.04
294.301	65.02
294.516	28.16
294.73	52.74
294.945	11.78
295.16	1.54
295.374	118.27
295.589	54.78
295.804	56.83
296.018	11.78
296.233	101.89
296.447	-4.61
296.662	22.02
296.877	60.93
297.091	87.55
297.306	34.3
297.52	24.06
297.735	52.74
297.949	19.97
298.164	77.31
298.378	46.59
298.593	34.3
298.807	56.83
299.022	52.74
299.236	42.5
299.451	-43.52
299.665	91.65
299.88	-10.75
300.094	5.63
300.309	60.93
300.523	58.88
300.737	-37.38
300.952	65.02
301.166	52.74
301.381	-55.81
301.595	-18.94
301.809	15.87
302.024	28.16
302.238	44.54
302.452	50.69
302.667	60.93
302.881	44.54
303.095	36.35
303.309	110.08
303.524	81.41
303.738	3.58
303.952	24.06
304.166	69.12
304.381	-86.53
304.595	65.02
304.809	-53.76
305.023	-6.66
305.237	40.45
305.452	56.83
305.666	77.31
305.88	36.35
306.094	15.87
306.308	36.35
306.522	81.41
306.736	69.12
306.95	44.54
307.164	79.36
307.379	11.78
307.593	118.27
307.807	22.02
308.021	28.16
308.235	50.69
308.449	-45.57
308.663	15.87
308.877	34.3
309.091	13.82
309.305	159.23
309.519	-25.09
309.733	9.73
309.947	-25.09
310.161	-4.61
310.374	83.45
310.588	69.12
310.802	32.26
311.016	56.83
311.23	1.54
311.444	-20.99
311.658	-66.05
311.872	15.87
312.085	71.17
312.299	40.45
312.513	79.36
312.727	77.31
312.941	30.21
313.154	62.98
313.368	42.5
313.582	19.97
313.796	54.78
314.009	-14.85
314.223	85.5
314.437	103.93
314.651	-25.09
314.864	-2.56
315.078	22.02
315.292	11.78
315.505	-10.75
315.719	54.78
315.933	48.64
316.146	3.58
316.36	30.21
316.573	50.69
316.787	62.98
317.001	67.07
317.214	-0.51
317.428	-70.14
317.641	9.73
317.855	-12.8
318.068	-25.09
318.282	46.59
318.495	142.85
318.709	69.12
318.922	85.5
319.136	179.71
319.349	-0.51
319.563	19.97
319.776	62.98
319.99	34.3
320.203	93.69
320.417	52.74
320.63	85.5
320.843	97.79
321.057	48.64
321.27	-4.61
321.483	30.21
321.697	85.5
321.91	-20.99
322.124	-2.56
322.337	71.17
322.55	71.17
322.763	65.02
322.977	42.5
323.19	-20.99
323.403	32.26
323.617	32.26
323.83	71.17
324.043	77.31
324.256	81.41
324.469	-8.7
324.683	114.17
324.896	15.87
325.109	105.98
325.322	-70.14
325.535	30.21
325.748	126.46
325.962	-12.8
326.175	19.97
326.388	36.35
326.601	171.52
326.814	-12.8
327.027	34.3
327.24	110.08
327.453	52.74
327.666	79.36
327.879	81.41
328.092	97.79
328.305	62.98
328.518	9.73
328.731	15.87
328.944	32.26
329.157	32.26
329.37	44.54
329.583	93.69
329.796	132.61
330.009	48.64
330.222	126.46
330.435	69.12
330.648	-10.75
330.861	67.07
331.073	22.02
331.286	40.45
331.499	42.5
331.712	28.16
331.925	38.4
332.138	69.12
332.35	48.64
332.563	-27.14
332.776	118.27
332.989	95.74
333.202	73.21
333.414	34.3
333.627	36.35
333.84	24.06
334.053	79.36
334.265	15.87
334.478	-16.9
334.691	48.64
334.903	19.97
335.116	-4.61
335.329	11.78
335.541	36.35
335.754	167.42
335.966	30.21
336.179	44.54
336.392	-4.61
336.604	71.17
336.817	28.16
337.029	58.88
337.242	44.54
337.454	40.45
337.667	56.83
337.88	65.02
338.092	-2.56
338.305	75.26
338.517	17.92
338.729	134.65
338.942	136.7
339.154	-31.23
339.367	38.4
339.579	11.78
339.792	-12.8
340.004	91.65
340.217	65.02
340.429	81.41
340.641	1.54
340.854	-0.51
341.066	19.97
341.278	83.45
341.491	46.59
341.703	-57.86
341.915	69.12
342.128	36.35
342.34	99.84
342.552	-18.94
342.764	108.03
342.977	17.92
343.189	85.5
343.401	22.02
343.613	-23.04
343.826	11.78
344.038	30.21
344.25	60.93
344.462	24.06
344.674	13.82
344.886	69.12
345.099	75.26
345.311	122.37
345.523	-2.56
345.735	-16.9
345.947	99.84
346.159	60.93
346.371	9.73
346.583	36.35
346.795	163.33
347.007	17.92
347.219	52.74
347.431	-25.09
347.643	132.61
347.855	81.41
348.067	46.59
348.279	-10.75
348.491	69.12
348.703	15.87
348.915	32.26
349.127	13.82
349.339	48.64
349.551	87.55
349.763	81.41
349.975	69.12
350.187	85.5
350.399	134.65
350.61	134.65
350.822	24.06
351.034	120.32
351.246	15.87
351.458	101.89
351.669	46.59
351.881	-12.8
352.093	169.47
352.305	95.74
352.517	50.69
352.728	60.93
352.94	3.58
353.152	114.17
353.363	-33.28
353.575	1.54
353.787	110.08
353.999	52.74
354.21	83.45
354.422	36.35
354.633	130.56
354.845	130.56
355.057	9.73
355.268	65.02
355.48	15.87
355.692	-31.23
355.903	65.02
356.115	-20.99
356.326	-4.61
356.538	126.46
356.749	36.35
356.961	71.17
357.172	60.93
357.384	38.4
357.595	77.31
357.807	44.54
358.018	67.07
358.23	44.54
358.441	91.65
358.653	91.65
358.864	38.4
359.075	-0.51
359.287	89.6
359.498	54.78
359.709	30.21
359.921	38.4
360.132	15.87
360.344	52.74
360.555	38.4
360.766	7.68
360.977	46.59
361.189	103.93
361.4	32.26
361.611	67.07
361.823	32.26
362.034	30.21
362.245	22.02
362.456	54.78
362.667	81.41
362.879	-2.56
363.09	56.83
363.301	28.16
363.512	60.93
363.723	7.68
363.935	5.63
364.146	175.61
364.357	40.45
364.568	48.64
364.779	5.63
364.99	52.74
365.201	5.63
365.412	118.27
365.623	1.54
365.834	93.69
366.045	-23.04
366.256	101.89
366.467	101.89
366.678	-2.56
366.889	44.54
367.1	46.59
367.311	167.42
367.522	126.46
367.733	87.55
367.944	142.85
368.155	85.5
368.366	81.41
368.577	40.45
368.788	38.4
368.999	24.06
369.209	101.89
369.42	192
369.631	183.81
369.842	44.54
370.053	-0.51
370.264	40.45
370.474	44.54
370.685	75.26
370.896	52.74
371.107	103.93
371.317	91.65
371.528	60.93
371.739	15.87
371.95	71.17
372.16	112.13
372.371	-8.7
372.582	24.06
372.792	95.74
373.003	62.98
373.214	46.59
373.424	44.54
373.635	73.21
373.846	11.78
374.056	17.92
374.267	81.41
374.477	28.16
374.688	56.83
374.898	34.3
375.109	60.93
375.319	73.21
375.53	54.78
375.74	62.98
375.951	62.98
376.161	163.33
376.372	118.27
376.582	13.82
376.793	87.55
377.003	67.07
377.214	24.06
377.424	17.92
377.635	19.97
377.845	-20.99
378.055	54.78
378.266	-12.8
378.476	110.08
378.686	62.98
378.897	79.36
379.107	95.74
379.317	52.74
379.528	-8.7
379.738	81.41
379.948	48.64
380.158	73.21
380.369	-0.51
380.579	-4.61
380.789	73.21
380.999	103.93
381.21	73.21
381.42	192
381.63	95.74
381.84	85.5
382.05	79.36
382.261	81.41
382.471	65.02
382.681	-18.94
382.891	132.61
383.101	15.87
383.311	48.64
383.521	69.12
383.731	118.27
383.941	56.83
384.151	-6.66
384.361	110.08
384.571	56.83
384.781	56.83
384.991	138.75
385.201	110.08
385.411	159.23
385.621	60.93
385.831	-2.56
386.041	65.02
386.251	30.21
386.461	112.13
386.671	81.41
386.881	118.27
387.091	73.21
387.301	192
387.511	46.59
387.72	142.85
387.93	50.69
388.14	13.82
388.35	28.16
388.56	83.45
388.769	95.74
388.979	77.31
389.189	-2.56
389.399	87.55
389.609	79.36
389.818	112.13
390.028	60.93
390.238	120.32
390.447	81.41
390.657	54.78
390.867	97.79
391.076	-0.51
391.286	67.07
391.496	54.78
391.705	46.59
391.915	93.69
392.125	136.7
392.334	93.69
392.544	126.46
392.753	142.85
392.963	52.74
393.172	126.46
393.382	3.58
393.591	226.81
393.801	83.45
394.01	138.75
394.22	101.89
394.429	-0.51
394.639	151.04
394.848	200.19
395.058	159.23
395.267	87.55
395.477	103.93
395.686	136.7
395.895	144.89
396.105	161.28
396.314	95.74
396.524	132.61
396.733	142.85
396.942	148.99
397.152	93.69
397.361	140.8
397.57	89.6
397.78	118.27
397.989	103.93
398.198	198.14
398.407	83.45
398.617	114.17
398.826	140.8
399.035	93.69
399.244	161.28
399.453	101.89
399.663	187.9
399.872	103.93
400.081	67.07
400.29	153.09
400.499	124.41
400.708	179.71
400.917	181.76
401.127	36.35
401.336	134.65
401.545	206.33
401.754	177.66
401.963	126.46
402.172	110.08
402.381	122.37
402.59	179.71
402.799	255.48
403.008	187.9
403.217	216.57
403.426	165.37
403.635	153.09
403.844	167.42
404.053	169.47
404.262	181.76
404.471	269.82
404.68	126.46
404.888	173.57
405.097	165.37
405.306	105.98
405.515	194.05
405.724	273.92
405.933	210.43
406.142	230.91
406.35	241.15
406.559	210.43
406.768	208.38
406.977	308.73
407.185	245.24
407.394	331.26
407.603	243.2
407.812	306.68
408.02	308.73
408.229	298.49
408.438	251.39
408.646	255.48
408.855	380.41
409.064	339.45
409.272	364.03
409.481	402.94
409.69	325.12
409.898	237.05
410.107	364.03
410.315	431.61
410.524	415.23
410.733	437.75
410.941	400.89
411.15	488.95
411.358	529.91
411.567	577.02
411.775	523.77
411.984	620.02
412.192	611.83
412.401	556.54
412.609	589.3
412.818	710.13
413.026	605.69
413.234	712.18
413.443	650.74
413.651	701.94
413.86	701.94
414.068	785.91
414.276	847.35
414.485	859.63
414.693	904.69
414.901	976.37
415.11	941.55
415.318	910.83
415.526	923.12
415.734	1043.95
415.943	1015.28
416.151	1144.3
416.359	1082.86
416.567	1160.69
416.776	1103.34
416.984	1207.79
417.192	1306.09
417.4	1240.56
417.608	1299.95
417.817	1465.83
418.025	1404.39
418.233	1496.55
418.441	1494.51
418.649	1504.75
418.857	1523.18
419.065	1828.32
419.273	1770.98
419.481	1852.9
419.689	1949.15
419.897	1955.3
420.105	1861.09
420.313	2084.32
420.521	2285.02
420.729	2227.68
420.937	2229.73
421.145	2383.32
421.353	2485.72
421.561	2545.11
421.769	2588.12
421.977	2768.34
422.185	2756.05
422.393	2934.23
422.601	3132.88
422.809	3093.97
423.017	3194.32
423.224	3126.74
423.432	3384.78
423.64	3390.92
423.848	3747.27
424.056	3540.43
424.263	3849.67
424.471	3970.5
424.679	3964.36
424.887	4283.84
425.094	4310.46
425.302	4378.05
425.51	4406.72
425.718	4558.27
425.925	4670.9
426.133	4795.83
426.341	4978.1
426.548	5387.69
426.756	5399.98
426.964	5479.85
427.171	5627.31
427.379	5760.42
427.586	5817.77
427.794	6143.39
428.001	6380.96
428.209	6745.5
428.417	6436.25
428.624	7015.83
428.832	7054.74
429.039	6737.31
429.247	7052.69
429.454	7636.36
429.662	8172.93
429.869	7646.6
430.076	8240.51
430.284	7847.3
430.491	8277.38
430.699	8744.31
430.906	8779.13
431.114	8969.59
431.321	9176.44
431.528	9577.84
431.736	10112.36
431.943	10530.14
432.15	10206.56
432.358	10083.69
432.565	10976.6
432.772	10753.37
432.979	11408.72
433.187	11740.49
433.394	11662.67
433.601	12361.03
433.808	12238.15
434.016	12399.94
434.223	12928.31
434.43	13708.59
434.637	13440.31
434.844	14421.28
435.052	14671.14
435.259	14372.13
435.466	14726.43
435.673	14331.17
435.88	15590.67
436.087	16475.4
436.294	16248.07
436.501	16022.8
436.708	16168.2
436.915	16823.55
437.122	17515.76
437.329	17476.85
437.537	17906.93
437.743	18285.8
437.95	18248.94
438.157	19311.83
438.364	19758.29
438.571	19633.36
438.778	20032.72
438.985	21791.92
439.192	20974.78
439.399	21224.64
439.606	21171.39
439.813	22056.11
440.02	23485.59
440.227	23313.56
440.433	22951.07
440.64	23442.59
440.847	23760.02
441.054	24261.77
441.261	25781.37
441.467	25515.13
441.674	25865.33
441.881	26942.56
442.088	27001.96
442.294	26627.18
442.501	27006.05
442.708	27995.22
442.914	28927.05
443.121	30270.51
443.328	29432.89
443.534	31300.64
443.741	30630.96
443.948	29783.1
444.154	32355.35
444.361	32328.72
444.568	32410.64
444.774	32177.17
444.981	32295.96
445.187	33836.03
445.394	35144.68
445.6	34737.13
445.807	37968.83
446.013	36170.71
446.22	36873.17
446.426	38325.18
446.633	38824.88
446.839	40108.96
447.046	37860.29
447.252	40496.02
447.459	40526.74
447.665	40033.18
447.871	42279.8
448.078	44118.88
448.284	42027.9
448.491	43029.36
448.697	45157.2
448.903	45499.21
449.11	45867.84
449.316	45169.49
449.522	45620.04
449.728	47072.05
449.935	47256.37
450.141	47319.85
450.347	48360.22
450.553	46738.23
450.76	47475.5
450.966	49255.18
451.172	48659.23
451.378	49621.77
451.584	48816.92
451.791	49978.12
451.997	49621.77
452.203	50883.32
452.409	50686.71
452.615	50733.82
452.821	48769.82
453.027	48112.42
453.233	50801.4
453.44	48691.99
453.646	49130.26
453.852	49679.11
454.058	50572.03
454.264	48999.19
454.47	50101
454.676	48991
454.882	50365.18
455.088	45972.29
455.294	46623.54
455.5	47127.34
455.705	48036.64
455.911	45992.77
456.117	45351.76
456.323	44768.08
456.529	42754.93
456.735	44587.86
456.941	43176.81
457.147	42292.09
457.352	41294.73
457.558	40831.89
457.764	41106.32
457.97	40037.28
458.176	39082.92
458.381	38992.81
458.587	37186.5
458.793	37628.87
458.999	35501.03
459.204	38167.48
459.41	36821.97
459.616	34458.61
459.821	34558.96
460.027	34448.37
460.233	33731.58
460.438	32646.16
460.644	32568.34
460.85	31013.93
461.055	30694.44
461.261	30553.13
461.466	28447.82
461.672	27475.04
461.878	29398.08
462.083	27503.71
462.289	26905.7
462.494	26694.76
462.7	25263.23
462.905	24824.97
463.111	25695.35
463.316	25851
463.522	25037.95
463.727	25070.72
463.932	24990.85
464.138	24804.49
464.343	24908.93
464.549	23829.65
464.754	24894.6
464.959	24587.4
465.165	24542.35
465.37	23366.81
465.575	22885.54
465.781	23839.89
465.986	24020.11
466.191	23047.33
466.397	22586.54
466.602	21630.13
466.807	22265
467.012	22568.1
467.218	22260.91
467.423	21994.67
467.628	22328.49
467.833	23141.53
468.038	22381.74
468.244	21406.91
468.449	22250.67
468.654	21712.05
468.859	21492.92
469.064	21814.45
469.269	20649.16
469.474	20679.88
469.679	21040.32
469.885	20712.64
470.09	20829.38
470.295	20929.73
470.5	20243.66
470.705	20499.66
470.91	19977.42
471.115	19926.22
471.32	20128.97
471.525	19848.4
471.73	19621.08
471.935	19428.57
472.139	18433.25
472.344	19197.15
472.549	18805.99
472.754	18584.8
472.959	18234.6
473.164	18095.34
473.369	17704.18
473.574	18048.24
473.778	18220.27
473.983	18068.72
474.188	17536.24
474.393	17126.65
474.598	17267.96
474.802	17108.22
475.007	16786.69
475.212	16946.43
475.417	16289.03
475.621	16280.84
475.826	16233.74
476.031	16293.13
476.235	15746.32
476.44	16215.3
476.645	15586.58
476.849	15684.88
477.054	15295.77
477.259	15004.96
477.463	15160.6
477.668	14841.12
477.872	15121.69
478.077	14658.85
478.282	14357.8
478.486	14216.49
478.691	14114.09
478.895	14023.98
479.1	13995.31
479.304	13970.73
479.509	13880.62
479.713	13987.11
479.918	13497.65
480.122	13471.03
480.326	13358.39
480.531	13800.75
480.735	13301.05
480.94	13208.89
481.144	13704.49
481.348	13012.28
481.553	13184.31
481.757	12971.32
481.961	13012.28
482.166	13501.75
482.37	13194.55
482.574	12940.6
482.778	12930.36
482.983	12959.03
483.187	13018.43
483.391	13116.73
483.595	12938.55
483.8	12752.19
484.004	13088.06
484.208	13061.43
484.412	12922.17
484.616	13147.45
484.821	13018.43
485.025	12770.62
485.229	13145.4
485.433	12799.29
485.637	13047.1
485.841	12926.27
486.045	12948.79
486.249	12848.44
486.453	12897.6
486.657	12969.27
486.861	12969.27
487.065	12651.84
487.269	12840.25
487.473	12752.19
487.677	13165.88
487.881	13305.14
488.085	12795.2
488.289	13024.57
488.493	12965.18
488.697	13036.86
488.901	13114.68
489.105	12975.42
489.309	13126.97
489.512	13215.03
489.716	13012.28
489.92	13151.54
490.124	13106.49
490.328	13534.51
490.531	13217.08
490.735	13219.13
490.939	13446.45
491.143	13151.54
491.346	13352.24
491.55	13405.49
491.754	13448.5
491.958	13456.69
492.161	13475.12
492.365	13626.67
492.569	13626.67
492.772	13686.06
492.976	13684.02
493.18	13720.88
493.383	14015.79
493.587	14226.73
493.79	14101.8
493.994	14026.03
494.197	14372.13
494.401	14503.2
494.605	14482.72
494.808	14652.7
495.012	14595.36
495.215	14779.68
495.419	14916.89
495.622	14953.76
495.825	15113.5
496.029	15144.22
496.232	15285.53
496.436	15209.75
496.639	15402.26
496.843	15547.67
497.046	15992.08
497.249	15912.21
497.453	16012.56
497.656	16112.91
497.859	16389.38
498.063	16522.5
498.266	16968.96
498.469	16768.26
498.673	16919.81
498.876	17190.14
499.079	17282.3
499.282	17177.85
499.485	17640.69
499.689	17812.72
499.892	17962.22
500.095	18236.65
500.298	18705.63
500.501	18312.42
500.705	18906.34
500.908	18834.66
501.111	19381.46
501.314	19520.73
501.517	19516.63
501.72	19729.62
501.923	19739.86
502.126	20364.49
502.329	20606.15
502.532	20507.85
502.735	21003.46
502.938	21257.4
503.141	21191.87
503.344	21744.82
503.547	21527.74
503.75	21892.27
503.953	22172.85
504.156	22224.04
504.359	22652.07
504.562	22895.78
504.765	23182.49
504.968	23221.41
505.17	23540.89
505.373	23995.54
505.576	24153.23
505.779	24237.2
505.982	24474.76
506.185	25105.54
506.387	25042.05
506.59	25468.03
506.793	25787.51
506.996	25951.35
507.198	26285.17
507.401	26272.88
507.604	26395.76
507.807	26961
508.009	27118.69
508.212	27442.27
508.415	27937.88
508.617	27995.22
508.82	28169.3
509.022	27911.25
509.225	28832.84
509.428	29129.8
509.63	29258.82
509.833	28859.46
510.035	30176.31
510.238	29781.05
510.44	30381.1
510.643	30719.02
510.845	30936.1
511.048	30624.81
511.25	31349.79
511.453	31736.86
511.655	32830.48
511.858	32435.22
512.06	32381.97
512.262	32766.99
512.465	32506.9
512.667	33301.51
512.87	33739.77
513.072	33848.32
513.274	34663.41
513.477	34642.93
513.679	35003.37
513.881	35384.29
514.084	35509.22
514.286	35408.87
514.488	35740.64
514.69	36801.49
514.893	36422.61
515.095	37137.35
515.297	37344.2
515.499	37223.37
515.701	37866.43
515.904	37946.3
516.106	38454.2
516.308	39078.83
516.51	38943.66
516.712	39302.06
516.914	39515.05
517.116	40299.42
517.318	40627.09
517.52	40690.58
517.722	40788.88
517.925	41134.99
518.127	41730.95
518.329	42005.38
518.531	41612.17
518.733	42888.05
518.935	42941.3
519.136	42767.22
519.338	43600.74
519.54	43549.54
519.742	44149.6
519.944	44342.11
520.146	44780.37
520.348	44938.07
520.55	44843.86
520.752	45597.51
520.954	46273.34
521.155	45777.73
521.357	46758.71
521.559	46523.19
521.761	47502.12
521.963	47319.85
522.164	47581.99
522.366	47776.55
522.568	48388.89
522.77	48319.26
522.971	49138.45
523.173	48708.38
523.375	49296.14
523.576	49224.46
523.778	49677.07
523.98	50262.79
524.181	49892.1
524.383	50354.94
524.584	50938.61
524.786	51032.82
524.988	50549.5
525.189	51180.28
525.391	51266.29
525.592	51446.51
525.794	51772.14
525.995	51772.14
526.197	51923.69
526.398	52529.89
526.6	52726.49
526.801	52630.24
527.003	52949.72
527.204	52771.55
527.406	53422.8
527.607	53414.61
527.808	53713.61
528.01	52732.64
528.211	53342.93
528.412	54133.45
528.614	54008.52
528.815	54213.32
529.016	54465.22
529.218	54282.95
529.419	54569.66
529.62	54579.9
529.822	54418.11
530.023	54710.97
530.224	54819.52
530.425	54698.69
530.626	54461.12
530.828	54223.56
531.029	55573.17
531.23	54997.69
531.431	54923.96
531.632	55182.01
531.833	55151.29
532.035	55526.06
532.236	55073.46
532.437	55689.9
532.638	55050.94
532.839	56126.12
533.04	55780.01
533.241	55212.73
533.442	56242.85
533.643	55698.09
533.844	55362.23
534.045	55720.62
534.246	55825.07
534.447	55976.62
534.648	55743.15
534.849	56038.06
535.05	55544.5
535.251	55843.5
535.451	55861.93
535.652	56117.93
535.853	55745.2
536.054	55974.57
536.255	56222.37
536.456	55747.25
536.657	56367.78
536.857	55708.33
537.058	55614.13
537.259	56165.03
537.46	56025.77
537.66	55472.82
537.861	55892.65
538.062	55564.98
538.263	55759.53
538.463	55780.01
538.664	55110.33
538.865	55732.91
539.065	56111.78
539.266	55571.12
539.466	55909.03
539.667	55405.23
539.868	56036.01
540.068	55808.68
540.269	55569.07
540.469	56203.94
540.67	56150.7
540.87	55958.19
541.071	55622.32
541.271	55751.34
541.472	55620.27
541.672	55780.01
541.873	55710.38
542.073	54495.94
542.274	56146.6
542.474	55610.03
542.675	55327.41
542.875	55841.45
543.075	55446.19
543.276	55001.78
543.476	55771.82
543.676	55513.78
543.877	55765.68
544.077	55691.95
544.277	55587.5
544.478	55499.44
544.678	55677.61
544.878	55337.65
545.078	55532.21
545.279	54872.76
545.479	55124.66
545.679	55540.4
545.879	55233.21
546.079	55294.64
546.28	55753.39
546.48	54921.91
546.68	55388.85
546.88	55757.49
547.08	55245.49
547.28	55040.7
547.48	54723.26
547.68	55407.28
547.88	54954.68
548.081	55165.62
548.281	55507.63
548.481	55089.85
548.681	55202.49
548.881	55134.9
549.081	54758.08
549.28	54565.57
549.48	55028.41
549.68	54893.24
549.88	55655.09
550.08	54561.47
550.28	55157.43
550.48	55028.41
550.68	55368.37
550.88	54622.91
551.08	55192.25
551.279	55118.52
551.479	54246.08
551.679	54547.14
551.879	55055.03
552.079	54883
552.278	54532.8
552.478	54272.71
552.678	54782.65
552.878	54837.95
553.077	54692.54
553.277	54117.06
553.477	55132.85
553.676	54350.53
553.876	54530.75
554.076	54407.87
554.275	54733.5
554.475	53670.61
554.674	54360.77
554.874	54250.18
555.074	54196.93
555.273	54069.96
555.473	54307.52
555.672	53799.63
555.872	54196.93
556.071	54424.26
556.271	54049.48
556.47	53873.35
556.67	53863.11
556.869	54002.38
557.068	53740.24
557.268	53619.41
557.467	53949.13
557.667	53625.55
557.866	53658.32
558.065	53678.8
558.265	53334.74
558.464	53072.6
558.663	53721.8
558.863	52914.9
559.062	53758.67
559.261	53326.55
559.461	53762.76
559.66	52757.21
559.859	52882.14
560.058	52560.61
560.258	53017.3
560.457	52773.59
560.656	53281.49
560.855	52771.55
561.054	53261.01
561.253	52454.11
561.453	52605.66
561.652	52796.12
561.851	52826.84
562.05	52167.4
562.249	51886.82
562.448	52620
562.647	52087.53
562.846	52189.92
563.045	52263.65
563.244	51610.35
563.443	52329.19
563.642	51581.68
563.841	51679.98
564.04	50944.76
564.239	51921.64
564.438	51405.55
564.637	51688.17
564.836	51542.77
565.035	51088.12
565.234	51159.8
565.432	50924.28
565.631	50887.42
565.83	50897.66
566.029	50830.07
566.228	50596.6
566.427	50397.95
566.625	50236.16
566.824	49781.51
567.023	50113.28
567.222	49531.66
567.42	50551.55
567.619	50141.95
567.818	49933.06
568.016	49902.34
568.215	50209.54
568.414	49742.6
568.612	50363.14
568.811	49482.51
569.01	49361.68
569.208	49341.2
569.407	49875.72
569.605	48759.58
569.804	49474.32
570.002	48976.66
570.201	49093.39
570.4	48722.71
570.598	48585.5
570.797	48360.22
570.995	48947.99
571.193	47917.86
571.392	48802.58
571.59	48487.2
571.789	48114.47
571.987	47811.37
572.186	48231.2
572.384	47674.15
572.582	47543.08
572.781	47797.03
572.979	47598.38
573.177	47661.86
573.376	47854.37
573.574	47127.34
573.772	47655.72
573.971	46949.17
574.169	47086.39
574.367	46549.82
574.565	47207.22
574.763	46609.21
574.962	46656.31
575.16	46302.01
575.358	46596.92
575.556	45937.48
575.754	46570.3
575.952	46226.24
576.151	46310.21
576.349	45536.07
576.547	45669.19
576.745	45566.79
576.943	45855.56
577.141	45609.8
577.339	45615.94
577.537	45337.42
577.735	45314.89
577.933	44798.8
578.131	45157.2
578.329	44966.74
578.527	44516.18
578.725	45093.71
578.923	45142.86
579.121	44761.94
579.319	44211.04
579.516	44405.59
579.714	44510.04
579.912	44368.73
580.11	43959.14
580.308	44385.11
580.506	43686.76
580.704	43389.8
580.901	43752.29
581.099	44303.2
581.297	42904.43
581.495	43127.66
581.692	43699.05
581.89	43088.75
582.088	43185.01
582.285	42705.78
582.483	43139.95
582.681	42761.08
582.878	42695.54
583.076	42535.8
583.274	43127.66
583.471	42163.07
583.669	42226.56
583.866	42005.38
584.064	42468.22
584.262	41513.86
584.459	41923.46
584.657	41538.44
584.854	42013.57
585.052	41329.55
585.249	41843.59
585.447	41790.34
585.644	40881.04
585.841	41134.99
586.039	41247.63
586.236	41018.25
586.434	40825.75
586.631	41059.21
586.828	40848.27
587.026	40821.65
587.223	40440.73
587.42	40453.01
587.618	40393.62
587.815	40182.68
588.012	39820.19
588.21	39777.19
588.407	40248.22
588.604	39820.19
588.801	39519.14
588.999	39486.37
589.196	39316.39
589.393	39246.76
589.59	39037.87
589.787	39250.86
589.984	39226.28
590.182	38785.97
590.379	38921.13
590.576	38437.81
590.773	38607.79
590.97	38204.35
591.167	38470.58
591.364	38425.53
591.561	38392.76
591.758	37680.07
591.955	38044.6
592.152	38017.98
592.349	37696.45
592.546	37581.76
592.743	37770.18
592.94	37127.11
593.137	37821.37
593.334	37571.52
593.531	36965.32
593.727	37340.1
593.924	36994
594.121	37221.32
594.318	36877.26
594.515	36393.94
594.712	36615.12
594.908	36641.74
595.105	36365.27
595.302	36043.74
595.499	36385.75
595.696	36076.51
595.892	35650.53
596.089	36080.6
596.286	36170.71
596.482	35861.47
596.679	35593.18
596.876	35748.83
597.072	35216.36
597.269	35423.2
597.466	34995.18
597.662	34792.43
597.859	35038.19
598.055	35421.16
598.252	34608.11
598.448	34825.2
598.645	34896.88
598.841	34366.45
599.038	34563.06
599.234	34212.85
599.431	33991.67
599.627	34034.68
599.824	34132.98
600.02	33999.87
600.217	33967.1
600.413	33915.9
600.609	33639.42
600.806	33160.2
601.002	33313.8
601.198	33317.89
601.395	33258.5
601.591	33086.47
601.787	33203.21
601.984	32488.46
602.18	33377.28
602.376	32607.25
602.572	32738.32
602.769	32928.78
602.965	32310.29
603.161	32396.31
603.357	32306.2
603.553	32240.66
603.75	31863.83
603.946	31747.1
604.142	31917.08
604.338	31480.86
604.534	31675.42
604.73	31474.72
604.926	31386.66
605.122	31656.99
605.318	31345.7
605.514	31093.8
605.71	30997.54
605.906	31235.11
606.102	31005.73
606.298	31095.85
606.494	31194.15
606.69	31069.22
606.886	30686.25
607.082	30225.46
607.278	30848.04
607.474	29914.17
607.67	30587.95
607.866	30182.45
608.062	30546.99
608.257	30127.16
608.453	29985.85
608.649	30184.5
608.845	29848.63
609.041	30061.62
609.236	29856.82
609.432	29858.87
609.628	29873.21
609.824	29787.19
610.019	29676.6
610.215	29520.96
610.411	29766.71
610.606	29592.64
610.802	29561.92
610.998	29473.85
611.193	30026.81
611.389	29086.79
611.584	28890.18
611.78	29021.25
611.976	28943.43
612.171	28920.9
612.367	28998.73
612.562	28908.61
612.758	28380.24
612.953	28769.35
613.149	28884.04
613.344	28392.53
613.539	29074.5
613.735	29031.49
613.93	28582.99
614.126	28339.28
614.321	28777.54
614.517	28511.31
614.712	28496.97
614.907	28071
615.103	28722.25
615.298	28171.35
615.493	28372.05
615.688	28191.83
615.884	28560.46
616.079	27776.09
616.274	28124.24
616.47	27925.59
616.665	28052.56
616.86	27741.27
617.055	27757.66
617.25	27632.73
617.445	28181.59
617.641	27241.57
617.836	27534.43
618.031	27231.33
618.226	27059.3
618.421	27415.65
618.616	27319.39
618.811	27014.24
619.006	27432.03
619.201	26762.34
619.396	26860.65
619.591	26119.28
619.786	26776.68
619.981	26127.47
620.176	26500.2
620.371	26211.44
620.566	26123.38
620.761	26254.45
620.956	26211.44
621.151	25595
621.346	25779.32
621.541	25320.57
621.735	25732.22
621.93	24843.4
622.125	25375.87
622.32	25001.09
622.515	25093.25
622.709	24829.06
622.904	24573.07
623.099	24554.63
623.294	24446.09
623.488	24118.42
623.683	24151.18
623.878	24059.02
624.072	24360.08
624.267	24044.69
624.462	23905.43
624.656	23628.95
624.851	23657.62
625.046	23329.95
625.24	23233.69
625.435	23170.21
625.629	23123.1
625.824	22795.43
626.018	23049.38
626.213	22604.97
626.407	22650.02
626.602	22295.72
626.796	22195.37
626.991	22477.99
627.185	22160.56
627.38	22000.82
627.574	21808.31
627.768	21984.43
627.963	21595.32
628.157	21509.3
628.352	21466.3
628.546	21247.16
628.74	21570.74
628.935	20976.83
629.129	21087.42
629.323	20907.2
629.517	20636.87
629.712	20561.09
629.906	20821.19
630.1	20253.9
630.294	20395.21
630.489	20391.11
630.683	20425.93
630.877	19793.11
631.071	19619.03
631.265	19623.12
631.459	19641.56
631.653	19737.81
631.848	19662.04
632.042	19317.98
632.236	19430.62
632.43	19047.65
632.624	19191
632.818	18961.63
633.012	18713.83
633.206	18738.4
633.4	18703.59
633.594	18482.41
633.788	18427.11
633.982	18504.93
634.176	18380.01
634.369	18300.14
634.563	18341.1
634.757	18109.68
634.951	18173.16
635.145	18164.97
635.339	18130.16
635.533	17839.34
635.726	17759.47
635.92	17530.1
636.114	17577.2
636.308	17351.93
636.501	17413.37
636.695	17315.06
636.889	17071.36
637.083	17077.5
637.276	16821.5
637.47	16766.21
637.664	16608.51
637.857	16530.69
638.051	16567.56
638.244	16407.81
638.438	16360.71
638.632	16315.66
638.825	16102.67
639.019	16225.54
639.212	15912.21
639.406	15680.78
639.599	15746.32
639.793	15936.78
639.986	15469.84
640.18	15721.74
640.373	15820.05
640.567	15408.4
640.76	15551.76
640.954	15209.75
641.147	15183.13
641.34	15273.24
641.534	15095.07
641.727	15136.03
641.92	14914.84
642.114	15002.91
642.307	14808.35
642.5	14920.99
642.694	14591.27
642.887	14662.94
643.08	14593.31
643.273	14728.48
643.467	14409
643.66	14114.09
643.853	13950.25
644.046	14058.79
644.239	14030.12
644.432	13888.81
644.626	13802.8
644.819	13632.82
645.012	13757.74
645.205	13651.25
645.398	13825.33
645.591	13475.12
645.784	13632.82
645.977	13487.41
646.17	13538.61
646.363	13270.33
646.556	13083.96
646.749	13215.03
646.942	13008.19
647.135	12920.12
647.328	13028.67
647.521	13024.57
647.714	12815.68
647.907	12891.45
648.099	12641.6
648.292	12703.04
648.485	12393.79
648.678	12320.07
648.871	12399.94
649.064	12406.08
649.256	12442.95
649.449	12283.2
649.642	12207.43
649.835	11992.39
650.027	11869.51
650.22	12037.45
650.413	12088.65
650.605	11767.12
650.798	11889.99
650.991	11644.24
651.183	11754.83
651.376	11459.92
651.568	11556.18
651.761	11412.82
651.954	11492.69
652.146	11599.18
652.339	11345.23
652.531	11318.61
652.724	11142.49
652.916	11226.45
653.109	11226.45
653.301	10990.94
653.494	10992.98
653.686	10808.67
653.879	10933.59
654.071	10900.83
654.263	10638.69
654.456	10671.45
654.648	10624.35
654.84	10425.7
655.033	10431.84
655.225	10571.1
655.417	10583.39
655.61	10249.57
655.802	10431.84
655.994	10337.63
656.186	10315.11
656.379	10196.32
656.571	10276.2
656.763	10157.41
656.955	9889.13
657.148	9999.72
657.34	9934.18
657.532	9925.99
657.724	10190.18
657.916	9794.92
658.108	9940.33
658.3	9612.65
658.492	9815.4
658.684	9469.3
658.876	9479.54
659.068	9483.63
659.26	9379.18
659.452	9497.97
659.644	9514.35
659.836	9436.53
660.028	9467.25
660.22	9069.94
660.412	9076.09
660.604	9041.27
660.796	9135.48
660.988	8973.69
661.18	9184.63
661.372	9008.5
661.563	8942.97
661.755	8959.35
661.947	8777.08
662.139	8744.31
662.331	8680.83
662.522	8621.44
662.714	8625.53
662.906	8783.23
663.097	8623.48
663.289	8535.42
663.481	8600.96
663.673	8588.67
663.864	8285.57
664.056	8531.33
664.247	8359.3
664.439	8310.15
664.631	8306.05
664.822	8240.51
665.014	8338.82
665.205	8283.52
665.397	7984.52
665.588	8105.35
665.78	7994.76
665.971	7929.22
666.163	7970.18
666.354	7949.7
666.546	7937.41
666.737	7892.36
666.929	7951.75
667.12	7830.92
667.311	7802.25
667.503	7773.58
667.694	7853.45
667.885	7742.86
668.077	7714.19
668.268	7619.98
668.459	7476.62
668.651	7558.54
668.842	7511.44
669.033	7546.25
669.224	7490.96
669.416	7531.92
669.607	7458.19
669.798	7396.75
669.989	7521.68
670.18	7284.11
670.371	7366.03
670.563	7339.41
670.754	7366.03
670.945	7140.76
671.136	7378.32
671.327	7097.75
671.518	7216.53
671.709	7325.07
671.9	7245.2
672.091	6970.77
672.282	7087.51
672.473	6956.44
672.664	7179.67
672.855	7124.37
673.046	7034.26
673.237	7155.09
673.428	7067.03
673.619	7056.79
673.809	6886.81
674	6868.38
674.191	6899.09
674.382	6938.01
674.573	6929.81
674.764	6874.52
674.954	7044.5
675.145	6755.74
675.336	6901.14
675.527	6778.26
675.717	6632.86
675.908	6620.57
676.099	6524.32
676.289	6653.34
676.48	6593.95
676.671	6647.19
676.861	6641.05
677.052	6606.24
677.243	6710.68
677.433	6751.64
677.624	6882.71
677.814	6497.69
678.005	6614.43
678.195	6657.43
678.386	6665.63
678.576	6727.07
678.767	6632.86
678.957	6587.8
679.148	6614.43
679.338	6469.02
679.529	6602.14
679.719	6473.12
679.909	6792.6
680.1	6550.94
680.29	6507.93
680.481	6385.05
680.671	6415.77
680.861	6471.07
681.052	6411.68
681.242	6409.63
681.432	6645.15
681.622	6372.77
681.813	6321.57
682.003	6315.42
682.193	6438.3
682.383	6301.09
682.573	6239.65
682.764	6448.54
682.954	6239.65
683.144	6344.1
683.334	6251.94
683.524	6290.85
683.714	6247.84
683.904	6245.79
684.094	6264.22
684.284	6231.46
684.474	6342.05
684.664	6204.83
684.854	6258.08
685.044	6075.81
685.234	6026.66
685.424	6022.56
685.614	6038.95
685.804	6026.66
685.994	6127.01
686.184	6026.66
686.374	5993.89
686.564	5995.94
686.753	5879.21
686.943	5850.53
687.133	5821.86
687.323	5846.44
687.513	5885.35
687.702	5698.99
687.892	5770.66
688.082	5795.24
688.272	5764.52
688.461	5631.4
688.651	5873.06
688.841	5625.26
689.03	5713.32
689.22	5602.73
689.41	5676.46
689.599	5582.25
689.789	5512.62
689.979	5594.54
690.168	5537.2
690.358	5432.75
690.547	5447.08
690.737	5379.5
690.926	5369.26
691.116	5244.34
691.305	5336.49
691.495	5131.7
691.684	5260.72
691.874	5246.38
692.063	5127.6
692.252	5121.46
692.442	5076.4
692.631	5148.08
692.82	5123.51
693.01	4931
693.199	5076.4
693.388	4910.52
693.578	4885.94
693.767	4904.37
693.956	4795.83
694.146	4814.26
694.335	4861.37
694.524	4918.71
694.713	4832.69
694.902	4740.54
695.092	4832.69
695.281	4953.52
695.47	4730.3
695.659	4789.69
695.848	4662.71
696.037	4748.73
696.226	4844.98
696.415	4601.27
696.604	4857.27
696.793	4568.51
696.982	4539.83
697.171	4726.2
697.36	4627.9
697.549	4437.44
697.738	4515.26
697.927	4537.79
698.116	4482.49
698.305	4421.05
698.494	4494.78
698.683	4441.53
698.872	4531.64
699.061	4408.76
699.25	4435.39
699.438	4593.08
699.627	4593.08
699.816	4582.84
700.005	4314.56
700.193	4269.5
700.382	4537.79
700.571	4345.28
700.76	4502.97
700.948	4459.96
701.137	4398.52
701.326	4402.62
701.514	4332.99
701.703	4392.38
701.892	4357.57
702.08	4576.7
702.269	4398.52
702.457	4330.94
702.646	4357.57
702.834	4249.02
703.023	4265.41
703.212	4345.28
703.4	4406.72
703.589	4320.7
703.777	4406.72
703.965	4222.4
704.154	4296.13
704.342	4257.22
704.531	4120
704.719	4093.38
704.907	4220.35
705.096	4234.69
705.284	4279.74
705.472	4289.98
705.661	4148.67
705.849	4173.25
706.037	4361.66
706.226	4052.42
706.414	4314.56
706.602	4074.95
706.79	4320.7
706.979	4275.65
707.167	4292.03
707.355	4115.91
707.543	4222.4
707.731	4246.98
707.919	4320.7
708.107	4216.26
708.296	4156.86
708.484	4074.95
708.672	4173.25
708.86	4183.49
709.048	4218.3
709.236	4158.91
709.424	4345.28
709.612	4388.29
709.8	3972.55
709.988	4199.87
710.176	4361.66
710.364	4246.98
710.551	4154.82
710.739	4179.39
710.927	4175.3
711.115	4169.15
711.303	4292.03
711.491	4263.36
711.679	4167.1
711.866	4269.5
712.054	4273.6
712.242	4230.59
712.43	4195.78
712.617	4183.49
712.805	4177.34
712.993	4242.88
713.181	4361.66
713.368	4222.4
713.556	4414.91
713.744	4167.1
713.931	4427.2
714.119	4255.17
714.306	4242.88
714.494	4269.5
714.682	4142.53
714.869	4216.26
715.057	4177.34
715.244	4351.42
715.432	4423.1
715.619	4150.72
715.807	4210.11
715.994	4361.66
716.182	4244.93
716.369	4419
716.556	4294.08
716.744	4287.93
716.931	4140.48
717.119	4447.68
717.306	4324.8
717.493	4296.13
717.681	4269.5
717.868	4419
718.055	4285.89
718.242	4429.24
718.43	4251.07
718.617	4488.64
718.804	4513.21
718.991	4271.55
719.179	4308.41
719.366	4277.69
719.553	4193.73
719.74	4369.85
719.927	4414.91
720.114	4314.56
720.301	4398.52
720.488	4384.19
720.676	4308.41
720.863	4275.65
721.05	4466.11
721.237	4289.98
721.424	4337.09
721.611	4363.71
721.798	4363.71
721.985	4332.99
722.172	4267.45
722.358	4545.98
722.545	4545.98
722.732	4445.63
722.919	4502.97
723.106	4386.24
723.293	4533.69
723.48	4535.74
723.667	4384.19
723.853	4502.97
724.04	4433.34
724.227	4410.81
724.414	4500.92
724.6	4470.2
724.787	4476.35
724.974	4453.82
725.161	4582.84
725.347	4361.66
725.534	4519.36
725.72	4292.03
725.907	4539.83
726.094	4576.7
726.28	4562.36
726.467	4459.96
726.653	4574.65
726.84	4550.07
727.027	4740.54
727.213	4492.73
727.4	4588.99
727.586	4492.73
727.773	4550.07
727.959	4433.34
728.145	4588.99
728.332	4568.51
728.518	4457.92
728.705	4578.75
728.891	4470.2
729.077	4548.03
729.264	4623.8
729.45	4396.48
729.636	4683.19
729.823	4482.49
730.009	4462.01
730.195	4435.39
730.382	4574.65
730.568	4588.99
730.754	4605.37
730.94	4654.52
731.126	4705.72
731.313	4531.64
731.499	4607.42
731.685	4625.85
731.871	4476.35
732.057	4574.65
732.243	4521.4
732.429	4648.38
732.615	4654.52
732.801	4623.8
732.987	4631.99
733.173	4634.04
733.359	4570.55
733.545	4566.46
733.731	4511.16
733.917	4404.67
734.103	4535.74
734.289	4668.86
734.475	4623.8
734.661	4666.81
734.847	4609.47
735.033	4527.55
735.219	4601.27
735.404	4490.68
735.59	4480.44
735.776	4392.38
735.962	4527.55
736.148	4564.41
736.333	4613.56
736.519	4509.12
736.705	4505.02
736.89	4345.28
737.076	4464.06
737.262	4394.43
737.447	4447.68
737.633	4519.36
737.819	4394.43
738.004	4486.59
738.19	4453.82
738.375	4365.76
738.561	4541.88
738.747	4529.59
738.932	4445.63
739.118	4476.35
739.303	4427.2
739.489	4511.16
739.674	4388.29
739.859	4265.41
740.045	4353.47
740.23	4378.05
740.416	4361.66
740.601	4347.33
740.786	4357.57
740.972	4363.71
741.157	4400.57
741.342	4148.67
741.528	4216.26
741.713	4281.79
741.898	4330.94
742.084	4234.69
742.269	4316.61
742.454	4242.88
742.639	4263.36
742.824	4191.68
743.01	4203.97
743.195	4318.65
743.38	4120
743.565	4214.21
743.75	4208.06
743.935	4165.06
744.12	4079.04
744.305	3970.5
744.49	4013.51
744.675	4072.9
744.86	4040.13
745.045	4060.61
745.23	4066.75
745.415	3968.45
745.6	4124.1
745.785	3884.48
745.97	4050.37
746.155	4040.13
746.34	3947.97
746.525	3837.38
746.71	3896.77
746.895	3853.77
747.079	3859.91
747.264	3657.16
747.449	3907.01
747.634	3741.13
747.819	3694.02
748.003	3653.06
748.188	3573.19
748.373	3624.39
748.557	3648.97
748.742	3503.56
748.927	3612.1
749.111	3587.53
749.296	3673.54
749.481	3435.98
749.665	3626.44
749.85	3476.94
750.034	3460.56
750.219	3503.56
750.404	3392.97
750.588	3298.77
750.773	3352.01
750.957	3374.54
751.141	3274.19
751.326	3286.48
751.51	3190.22
751.695	3231.18
751.879	3157.46
752.064	3278.29
752.248	3149.26
752.432	3227.09
752.617	3134.93
752.801	3157.46
752.985	3208.66
753.17	3091.92
753.354	3038.67
753.538	2971.09
753.722	3055.06
753.907	3034.58
754.091	2981.33
754.275	2840.02
754.459	3032.53
754.643	2905.56
754.828	2899.41
755.012	2897.36
755.196	2844.12
755.38	2876.88
755.564	2747.86
755.748	2831.83
755.932	2811.35
756.116	2741.72
756.3	2743.77
756.484	2637.27
756.668	2729.43
756.852	2616.79
757.036	2686.42
757.22	2661.85
757.404	2711
757.588	2711
757.772	2676.18
757.956	2723.29
758.14	2532.83
758.323	2436.57
758.507	2487.77
758.691	2471.39
758.875	2532.83
759.059	2506.2
759.242	2438.62
759.426	2307.55
759.61	2459.1
759.794	2342.36
759.977	2311.64
760.161	2543.07
760.345	2428.38
760.528	2360.8
760.712	2325.98
760.895	2262.49
761.079	2254.3
761.263	2268.64
761.446	2160.1
761.63	2309.6
761.813	2199.01
761.997	2153.95
762.18	2282.97
762.364	2164.19
762.547	2094.56
762.731	2250.21
762.914	2196.96
763.098	2209.25
763.281	2153.95
763.464	2119.14
763.648	2170.33
763.831	2098.66
764.015	2094.56
764.198	2162.14
764.381	1996.26
764.564	2063.84
764.748	2067.94
764.931	2053.6
765.114	2006.5
765.297	2031.07
765.481	1861.09
765.664	2074.08
765.847	2016.74
766.03	1967.59
766.213	1881.57
766.397	1863.14
766.58	2000.35
766.763	1979.87
766.946	1875.43
767.129	2024.93
767.312	1947.11
767.495	1863.14
767.678	1912.29
767.861	1777.12
768.044	1871.33
768.227	1861.09
768.41	1895.91
768.593	1879.52
768.776	1820.13
768.959	1846.76
769.142	1832.42
769.324	1748.45
769.507	1777.12
769.69	1822.18
769.873	1799.65
770.056	1889.76
770.239	1699.3
770.421	1816.04
770.604	1832.42
770.787	1775.08
770.97	1693.16
771.152	1756.65
771.335	1730.02
771.518	1553.9
771.7	1781.22
771.883	1750.5
772.066	1617.38
772.248	1639.91
772.431	1760.74
772.613	1676.77
772.796	1576.42
772.978	1543.66
773.161	1590.76
773.343	1631.72
773.526	1502.7
773.708	1471.98
773.891	1537.51
774.073	1533.42
774.256	1498.6
774.438	1578.47
774.621	1564.14
774.803	1553.9
774.985	1523.18
775.168	1547.75
775.35	1426.92
775.532	1480.17
775.715	1351.15
775.897	1361.39
776.079	1400.3
776.261	1336.81
776.444	1379.82
776.626	1363.44
776.808	1412.59
776.99	1402.35
777.173	1361.39
777.355	1310.19
777.537	1371.63
777.719	1283.56
777.901	1394.15
778.083	1330.67
778.265	1322.48
778.447	1201.65
778.629	1199.6
778.811	1330.67
778.993	1263.08
779.175	1285.61
779.357	1283.56
779.539	1185.26
779.721	1265.13
779.903	1172.97
780.085	1265.13
780.267	1195.5
780.449	1138.16
780.631	1097.2
780.812	1160.69
780.994	1037.81
781.176	1129.97
781.358	1162.73
781.54	1136.11
781.721	1121.77
781.903	1136.11
782.085	1084.91
782.267	1093.1
782.448	1076.72
782.63	1043.95
782.812	1056.24
782.993	1060.34
783.175	1068.53
783.357	1111.54
783.538	1062.38
783.72	902.64
783.901	925.17
784.083	916.98
784.264	1025.52
784.446	931.31
784.627	894.45
784.809	937.46
784.99	935.41
785.172	1023.47
785.353	869.87
785.535	871.92
785.716	896.5
785.897	847.35
786.079	925.17
786.26	863.73
786.441	931.31
786.623	812.53
786.804	873.97
786.985	900.59
787.167	865.78
787.348	859.63
787.529	851.44
787.71	863.73
787.891	880.11
788.073	814.58
788.254	779.76
788.435	742.9
788.616	767.48
788.797	738.8
788.978	706.04
789.159	736.76
789.34	839.16
789.522	749.04
789.703	720.37
789.884	697.85
790.065	851.44
790.246	734.71
790.427	716.28
790.607	810.48
790.788	728.56
790.969	749.04
791.15	636.41
791.331	658.93
791.512	617.97
791.693	665.08
791.874	728.56
792.054	708.09
792.235	714.23
792.416	593.4
792.597	617.97
792.778	613.88
792.958	775.67
793.139	679.41
793.32	615.93
793.5	669.17
793.681	663.03
793.862	630.26
794.042	574.97
794.223	591.35
794.404	566.78
794.584	552.44
794.765	499.19
794.945	486.9
795.126	581.11
795.306	691.7
795.487	628.21
795.667	548.34
795.848	562.68
796.028	499.19
796.209	603.64
796.389	546.3
796.57	628.21
796.75	536.06
796.93	447.99
797.111	564.73
797.291	497.14
797.471	620.02
797.652	560.63
797.832	480.76
798.012	566.78
798.192	450.04
798.373	515.58
798.553	447.99
798.733	431.61
798.913	447.99
799.093	579.06
799.274	505.34
799.454	488.95
799.634	529.91
799.814	450.04
799.994	507.38
800.174	503.29
800.354	509.43
800.534	341.5
800.714	417.27
800.894	462.33
801.074	462.33
801.254	423.42
801.434	435.71
801.614	456.19
801.794	396.79
801.974	1428.97
802.154	470.52
802.334	501.24
802.514	339.45
802.693	425.47
802.873	462.33
803.053	552.44
803.233	462.33
803.413	421.37
803.592	366.07
803.772	370.17
803.952	396.79
804.131	421.37
804.311	476.66
804.491	478.71
804.67	402.94
804.85	415.23
805.03	429.56
805.209	421.37
805.389	372.22
805.568	384.51
805.748	456.19
805.928	388.6
806.107	372.22
806.287	382.46
806.466	388.6
806.646	423.42
806.825	386.55
807.004	400.89
807.184	394.75
807.363	374.27
807.543	429.56
807.722	245.24
807.901	398.84
808.081	404.99
808.26	278.01
808.439	407.03
808.619	341.5
808.798	335.35
808.977	382.46
809.156	349.69
809.336	323.07
809.515	427.51
809.694	339.45
809.873	331.26
810.052	400.89
810.231	411.13
810.411	351.74
810.59	327.16
810.769	355.83
810.948	390.65
811.127	255.48
811.306	413.18
811.485	325.12
811.664	404.99
811.843	372.22
812.022	368.12
812.201	265.72
812.38	323.07
812.559	275.96
812.737	253.44
812.916	314.88
813.095	314.88
813.274	351.74
813.453	255.48
813.632	361.98
813.811	321.02
813.989	243.2
814.168	302.59
814.347	185.85
814.526	288.25
814.704	278.01
814.883	286.2
815.062	273.92
815.24	308.73
815.419	206.33
815.598	280.06
815.776	284.16
815.955	253.44
816.133	202.24
816.312	273.92
816.49	165.37
816.669	296.44
816.847	214.52
817.026	316.92
817.204	269.82
817.383	216.57
817.561	241.15
817.74	282.11
817.918	249.34
818.097	187.9
818.275	196.09
818.453	235
818.632	273.92
818.81	175.61
818.988	306.68
819.167	271.87
819.345	239.1
819.523	194.05
819.701	249.34
819.879	216.57
820.058	269.82
820.236	265.72
820.414	187.9
820.592	177.66
820.77	290.3
820.948	247.29
821.127	187.9
821.305	218.62
821.483	187.9
821.661	202.24
821.839	232.96
822.017	224.76
822.195	214.52
822.373	259.58
822.551	144.89
822.729	271.87
822.907	249.34
823.085	232.96
823.262	232.96
823.44	194.05
823.618	175.61
823.796	110.08
823.974	130.56
824.152	196.09
824.329	194.05
824.507	206.33
824.685	153.09
824.863	200.19
825.04	194.05
825.218	105.98
825.396	204.28
825.574	157.18
825.751	196.09
825.929	159.23
826.107	120.32
826.284	179.71
826.462	187.9
826.639	130.56
826.817	163.33
826.994	128.51
827.172	155.13
827.349	290.3
827.527	198.14
827.704	167.42
827.882	163.33
828.059	153.09
828.237	89.6
828.414	185.85
828.591	103.93
828.769	241.15
828.946	54.78
829.124	206.33
829.301	208.38
829.478	151.04
829.655	138.75
829.833	124.41
830.01	132.61
830.187	99.84
830.364	130.56
830.542	177.66
830.719	247.29
830.896	202.24
831.073	134.65
831.25	146.94
831.427	116.22
831.604	126.46
831.782	196.09
831.959	118.27
832.136	67.07
832.313	136.7
832.49	136.7
832.667	153.09
832.844	136.7
833.021	157.18
833.198	212.48
833.374	124.41
833.551	194.05
833.728	114.17
833.905	183.81
834.082	38.4
834.259	81.41
834.436	163.33
834.612	142.85
834.789	81.41
834.966	183.81
835.143	142.85
835.319	122.37
835.496	153.09
835.673	181.76
835.85	171.52
836.026	208.38
836.203	187.9
836.38	110.08
836.556	167.42
836.733	159.23
836.909	159.23
837.086	13.82
837.262	83.45
837.439	116.22
837.616	118.27
837.792	153.09
837.968	167.42
838.145	118.27
838.321	136.7
838.498	194.05
838.674	134.65
838.851	79.36
839.027	7.68
839.203	148.99
839.38	110.08
839.556	15.87
839.732	65.02
839.909	124.41
840.085	97.79
840.261	56.83
840.437	89.6
840.614	105.98
840.79	151.04
840.966	118.27
841.142	103.93
841.318	99.84
841.494	120.32
841.671	165.37
841.847	36.35
842.023	67.07
842.199	103.93
842.375	126.46
842.551	85.5
842.727	32.26
842.903	148.99
843.079	36.35
843.255	134.65
843.431	67.07
843.607	108.03
843.783	48.64
843.959	132.61
844.134	22.02
844.31	73.21
844.486	44.54
844.662	42.5
844.838	89.6
845.013	136.7
845.189	128.51
845.365	19.97
845.541	122.37
845.716	69.12
845.892	110.08
846.068	-0.51
846.244	-33.28
846.419	134.65
846.595	22.02
846.77	40.45
846.946	103.93
847.122	79.36
847.297	67.07
847.473	151.04
847.648	34.3
847.824	65.02
847.999	28.16
848.175	11.78
848.35	85.5
848.526	140.8
848.701	122.37
848.876	91.65
849.052	50.69
849.227	40.45
849.403	69.12
849.578	42.5
849.753	19.97
849.929	65.02
850.104	75.26
850.279	75.26
850.454	48.64
850.63	87.55
850.805	153.09
850.98	91.65
851.155	-18.94
851.33	112.13
851.505	54.78
851.681	130.56
851.856	-39.42
852.031	28.16
852.206	97.79
852.381	5.63
852.556	42.5
852.731	36.35
852.906	130.56
853.081	103.93
853.256	89.6
853.431	44.54
853.606	73.21
853.781	97.79
853.956	-6.66
854.131	28.16
854.305	93.69
854.48	62.98
854.655	54.78
854.83	3.58
855.005	19.97
855.18	105.98
855.354	7.68
855.529	44.54
855.704	-8.7
855.879	116.22
856.053	-4.61
856.228	153.09
856.403	67.07
856.577	40.45
856.752	-8.7
856.926	11.78
857.101	58.88
857.276	56.83
857.45	40.45
857.625	120.32
857.799	-4.61
857.974	65.02
858.148	-45.57
858.323	52.74
858.497	24.06
858.672	73.21
858.846	3.58
859.02	62.98
859.195	-8.7
859.369	-53.76
859.543	50.69
859.718	93.69
859.892	46.59
860.066	5.63
860.241	-23.04
860.415	50.69
860.589	-29.18
860.763	126.46
860.938	-10.75
861.112	48.64
861.286	17.92
861.46	85.5
861.634	77.31
861.808	28.16
861.982	30.21
862.157	7.68
862.331	28.16
862.505	3.58
862.679	3.58
862.853	-4.61
863.027	15.87
863.201	130.56
863.375	83.45
863.549	34.3
863.722	-12.8
863.896	56.83
864.07	97.79
864.244	50.69
864.418	73.21
864.592	79.36
864.766	40.45
864.939	112.13
865.113	5.63
865.287	122.37
865.461	-14.85
865.634	-12.8
865.808	24.06
865.982	-18.94
866.156	-12.8
866.329	44.54
866.503	58.88
866.676	15.87
866.85	91.65
867.024	-35.33
867.197	95.74
867.371	13.82
867.544	50.69
867.718	19.97
867.891	26.11
868.065	-14.85
868.238	-18.94
868.412	73.21
868.585	-8.7
868.759	-29.18
868.932	9.73
869.105	-125.44
869.279	46.59
869.452	-57.86
869.625	7.68
869.799	44.54
869.972	-31.23
870.145	58.88
870.319	46.59
870.492	-0.51
870.665	24.06
870.838	-47.62
871.011	-39.42
871.185	56.83
871.358	7.68
871.531	99.84
871.704	34.3
871.877	28.16
872.05	5.63
872.223	-29.18
872.396	30.21
872.569	40.45
872.742	44.54
872.915	28.16
873.088	69.12
873.261	-37.38
873.434	50.69
873.607	97.79
873.78	42.5
873.953	-57.86
874.126	60.93
874.299	93.69
874.471	-49.66
874.644	34.3
874.817	126.46
874.99	95.74
875.163	15.87
875.335	60.93
875.508	3.58
875.681	52.74
875.853	-84.48
876.026	-16.9
876.199	32.26
876.371	85.5
876.544	54.78
876.717	56.83
876.889	-4.61
877.062	13.82
877.234	-8.7
877.407	-2.56
877.579	19.97
877.752	3.58
877.924	-18.94
878.097	11.78
878.269	15.87
878.442	34.3
878.614	-23.04
878.786	56.83
878.959	-37.38
879.131	-2.56
879.303	-18.94
879.476	50.69
879.648	-23.04
879.82	-33.28
879.993	-43.52
880.165	-2.56
880.337	-59.9
880.509	26.11
880.681	11.78
880.854	-33.28
881.026	11.78
881.198	71.17
881.37	-2.56
881.542	-25.09
881.714	-16.9
881.886	26.11
882.058	-12.8
882.23	44.54
882.402	-8.7
882.574	3.58
882.746	116.22
882.918	71.17
883.09	56.83
883.262	56.83
883.434	-4.61
883.606	-66.05
883.778	-23.04
883.95	71.17
884.122	-6.66
884.293	126.46
884.465	30.21
884.637	83.45
884.809	5.63
884.98	-2.56
885.152	-27.14
885.324	19.97
885.496	-29.18
885.667	32.26
885.839	-8.7
886.011	42.5
886.182	28.16
886.354	-12.8
886.525	-10.75
886.697	38.4
886.869	-86.53
887.04	-25.09
887.212	15.87
887.383	40.45
887.555	26.11
887.726	-20.99
887.897	38.4
888.069	-78.33
888.24	-39.42
888.412	-14.85
888.583	-4.61
888.754	36.35
888.926	-14.85
889.097	-66.05
889.268	-55.81
889.44	42.5
889.611	17.92
889.782	-39.42
889.953	-29.18
890.125	77.31
890.296	-4.61
890.467	11.78
890.638	-107.01
890.809	52.74
890.98	46.59
891.151	15.87
891.323	99.84
891.494	28.16
891.665	9.73
891.836	-16.9
892.007	-23.04
892.178	28.16
892.349	13.82
892.52	-2.56
892.691	-51.71
892.862	-16.9
893.032	-18.94
893.203	-51.71
893.374	-80.38
893.545	48.64
893.716	-2.56
893.887	-31.23
894.057	-129.53
894.228	71.17
894.399	-10.75
894.57	11.78
894.74	7.68
894.911	95.74
895.082	-33.28
895.253	-16.9
895.423	58.88
895.594	69.12
895.764	24.06
895.935	-43.52
896.106	87.55
896.276	-10.75
896.447	52.74
896.617	-2.56
896.788	-8.7
896.958	-45.57
897.129	-53.76
897.299	-47.62
897.47	126.46
897.64	36.35
897.81	-45.57
897.981	-16.9
898.151	-49.66
898.322	36.35
898.492	-35.33
898.662	-53.76
898.832	-16.9
899.003	-61.95
899.173	71.17
899.343	50.69
899.513	32.26
