Data from USB4F104151__21__13-04-39-929.txt Node

Date: Fri Mar 14 13:04:39 EDT 2025
User: louis
Spectrometer: USB4F10415
Trigger mode: 4
Integration Time (sec): 4.000000E-2
Scans to average: 1
Electric dark correction enabled: true
Nonlinearity correction enabled: false
Boxcar width: 0
XAxis mode: Wavelengths
Number of Pixels in Spectrum: 3648
>>>>>Begin Spectral Data<<<<<
178.204	-165.89
178.424	-165.89
178.644	-165.89
178.864	-243.71
179.084	-165.89
179.304	43.01
179.524	2.05
179.744	-86.01
179.964	-10.24
180.184	-32.77
180.404	22.53
180.624	40.96
180.844	6.14
181.064	49.15
181.283	-18.43
181.503	-20.48
181.723	4.1
181.943	-34.82
182.163	22.53
182.383	-32.77
182.602	67.58
182.822	73.73
183.042	71.68
183.262	-8.19
183.482	8.19
183.701	0
183.921	-28.67
184.141	-28.67
184.361	57.34
184.58	92.16
184.8	-6.14
185.02	81.92
185.239	-2.05
185.459	22.53
185.679	0
185.898	0
186.118	38.91
186.338	43.01
186.557	30.72
186.777	88.06
186.997	-65.53
187.216	8.19
187.436	96.25
187.655	-32.77
187.875	22.53
188.095	53.25
188.314	45.06
188.534	79.87
188.753	38.91
188.973	-18.43
189.192	90.11
189.412	28.67
189.631	-6.14
189.851	-6.14
190.07	98.3
190.29	-98.3
190.509	53.25
190.729	-47.1
190.948	43.01
191.168	96.25
191.387	12.29
191.607	-26.62
191.826	69.63
192.045	-28.67
192.265	-34.82
192.484	20.48
192.704	-73.73
192.923	-16.38
193.142	73.73
193.362	34.82
193.581	69.63
193.8	2.05
194.02	79.87
194.239	-18.43
194.458	36.86
194.678	8.19
194.897	-14.34
195.116	-2.05
195.335	-26.62
195.555	34.82
195.774	51.2
195.993	2.05
196.212	55.3
196.432	-12.29
196.651	8.19
196.87	-18.43
197.089	96.25
197.308	43.01
197.528	49.15
197.747	49.15
197.966	-55.3
198.185	61.44
198.404	34.82
198.623	106.49
198.842	112.64
199.062	65.54
199.281	-16.38
199.5	34.82
199.719	88.06
199.938	16.38
200.157	71.68
200.376	55.3
200.595	59.39
200.814	6.14
201.033	24.58
201.252	-30.72
201.471	90.11
201.69	0
201.909	-6.14
202.128	57.34
202.347	30.72
202.566	24.58
202.785	30.72
203.004	55.3
203.223	157.69
203.442	24.58
203.661	8.19
203.879	-2.05
204.098	57.34
204.317	-10.24
204.536	47.1
204.755	20.48
204.974	49.15
205.193	-12.29
205.411	106.49
205.63	-10.24
205.849	-4.1
206.068	36.86
206.287	-34.82
206.505	10.24
206.724	-75.77
206.943	-73.73
207.162	20.48
207.381	14.34
207.599	24.58
207.818	8.19
208.037	-51.2
208.255	10.24
208.474	26.62
208.693	-10.24
208.911	-40.96
209.13	98.3
209.349	30.72
209.567	26.62
209.786	43.01
210.005	61.44
210.223	2.05
210.442	-81.92
210.661	14.34
210.879	55.3
211.098	32.77
211.316	34.82
211.535	92.16
211.753	-38.91
211.972	-32.77
212.191	-28.67
212.409	57.34
212.628	20.48
212.846	-55.3
213.065	98.3
213.283	34.82
213.502	2.05
213.72	-24.58
213.938	65.54
214.157	6.14
214.375	-53.25
214.594	57.34
214.812	49.15
215.031	-26.62
215.249	-14.34
215.467	36.86
215.686	57.34
215.904	75.77
216.122	-8.19
216.341	73.73
216.559	-26.62
216.778	131.07
216.996	22.53
217.214	30.72
217.432	-67.58
217.651	-6.14
217.869	4.1
218.087	24.58
218.306	30.72
218.524	141.31
218.742	-10.24
218.96	51.2
219.179	-16.38
219.397	8.19
219.615	55.3
219.833	24.58
220.051	-61.44
220.27	86.01
220.488	-6.14
220.706	36.86
220.924	32.77
221.142	-28.67
221.36	69.63
221.578	43.01
221.796	-10.24
222.015	-32.77
222.233	51.2
222.451	10.24
222.669	6.14
222.887	-16.38
223.105	6.14
223.323	47.1
223.541	-38.91
223.759	20.48
223.977	8.19
224.195	51.2
224.413	69.63
224.631	55.3
224.849	38.91
225.067	47.1
225.285	-8.19
225.503	-26.62
225.721	-100.35
225.939	-47.1
226.157	-26.62
226.375	174.08
226.592	-4.1
226.81	22.53
227.028	55.3
227.246	75.77
227.464	-2.05
227.682	47.1
227.9	73.73
228.117	26.62
228.335	-43.01
228.553	22.53
228.771	-26.62
228.989	59.39
229.206	20.48
229.424	0
229.642	-2.05
229.86	32.77
230.077	88.06
230.295	-14.34
230.513	-6.14
230.731	69.63
230.948	75.77
231.166	57.34
231.384	32.77
231.601	38.91
231.819	-38.91
232.037	-90.11
232.254	2.05
232.472	-16.38
232.689	-26.62
232.907	-16.38
233.125	20.48
233.342	-77.82
233.56	28.67
233.777	40.96
233.995	51.2
234.213	100.35
234.43	-16.38
234.648	92.16
234.865	-43.01
235.083	28.67
235.3	86.01
235.518	-71.68
235.735	88.06
235.953	20.48
236.17	-61.44
236.388	-22.53
236.605	94.21
236.822	6.14
237.04	32.77
237.257	30.72
237.475	49.15
237.692	26.62
237.909	34.82
238.127	-88.06
238.344	6.14
238.562	57.34
238.779	-16.38
238.996	-30.72
239.214	22.53
239.431	8.19
239.648	-49.15
239.865	-24.58
240.083	61.44
240.3	32.77
240.517	-24.58
240.735	53.25
240.952	133.12
241.169	73.73
241.386	49.15
241.603	8.19
241.821	-55.3
242.038	20.48
242.255	63.49
242.472	55.3
242.689	-8.19
242.907	77.82
243.124	51.2
243.341	-14.34
243.558	51.2
243.775	-26.62
243.992	-73.73
244.209	71.68
244.426	73.73
244.643	-2.05
244.86	96.25
245.078	49.15
245.295	51.2
245.512	-34.82
245.729	-26.62
245.946	10.24
246.163	43.01
246.38	-6.14
246.597	-14.34
246.814	6.14
247.031	-45.06
247.248	59.39
247.464	0
247.681	6.14
247.898	43.01
248.115	65.54
248.332	-10.24
248.549	-10.24
248.766	45.06
248.983	43.01
249.2	51.2
249.417	24.58
249.633	-34.82
249.85	73.73
250.067	55.3
250.284	-24.58
250.501	55.3
250.717	55.3
250.934	-67.58
251.151	0
251.368	-28.67
251.585	63.49
251.801	2.05
252.018	-28.67
252.235	126.97
252.451	-10.24
252.668	24.58
252.885	34.82
253.102	34.82
253.318	40.96
253.535	-32.77
253.752	14.34
253.968	30.72
254.185	-71.68
254.401	-24.58
254.618	-6.14
254.835	36.86
255.051	63.49
255.268	47.1
255.484	16.38
255.701	-34.82
255.917	51.2
256.134	-22.53
256.351	69.63
256.567	-124.93
256.784	-24.58
257	-18.43
257.217	83.97
257.433	67.58
257.65	26.62
257.866	34.82
258.082	-14.34
258.299	-26.62
258.515	24.58
258.732	-18.43
258.948	-104.45
259.165	63.49
259.381	12.29
259.597	49.15
259.814	-43.01
260.03	36.86
260.246	10.24
260.463	-18.43
260.679	-65.53
260.895	51.2
261.112	53.25
261.328	61.44
261.544	8.19
261.761	198.65
261.977	126.97
262.193	-34.82
262.409	12.29
262.626	-12.29
262.842	12.29
263.058	-14.34
263.274	16.38
263.49	-4.1
263.707	75.77
263.923	98.3
264.139	-8.19
264.355	-43.01
264.571	139.26
264.787	75.77
265.004	114.69
265.22	2.05
265.436	-34.82
265.652	4.1
265.868	43.01
266.084	-32.77
266.3	34.82
266.516	40.96
266.732	67.58
266.948	26.62
267.164	96.25
267.38	83.97
267.596	47.1
267.812	139.26
268.028	53.25
268.244	40.96
268.46	51.2
268.676	20.48
268.892	0
269.108	10.24
269.324	-16.38
269.54	-14.34
269.756	94.21
269.972	-8.19
270.188	-4.1
270.403	-94.21
270.619	6.14
270.835	2.05
271.051	-49.15
271.267	0
271.483	-6.14
271.698	57.34
271.914	14.34
272.13	34.82
272.346	38.91
272.562	2.05
272.777	55.3
272.993	49.15
273.209	47.1
273.425	-8.19
273.64	12.29
273.856	81.92
274.072	-4.1
274.287	-28.67
274.503	6.14
274.719	73.73
274.934	-43.01
275.15	-16.38
275.366	-22.53
275.581	-51.2
275.797	12.29
276.012	51.2
276.228	43.01
276.444	14.34
276.659	38.91
276.875	-24.58
277.09	-10.24
277.306	38.91
277.521	-2.05
277.737	40.96
277.952	77.82
278.168	4.1
278.383	-4.1
278.599	90.11
278.814	55.3
279.03	20.48
279.245	90.11
279.461	-16.38
279.676	73.73
279.892	-55.3
280.107	-12.29
280.322	-8.19
280.538	-8.19
280.753	2.05
280.969	-16.38
281.184	-38.91
281.399	28.67
281.615	81.92
281.83	18.43
282.045	-12.29
282.26	6.14
282.476	30.72
282.691	-24.58
282.906	63.49
283.122	2.05
283.337	83.97
283.552	30.72
283.767	6.14
283.983	2.05
284.198	59.39
284.413	18.43
284.628	-59.39
284.843	51.2
285.058	24.58
285.274	-24.58
285.489	-26.62
285.704	71.68
285.919	26.62
286.134	2.05
286.349	-10.24
286.564	-16.38
286.779	79.87
286.995	71.68
287.21	34.82
287.425	22.53
287.64	-26.62
287.855	30.72
288.07	-40.96
288.285	71.68
288.5	28.67
288.715	22.53
288.93	-55.3
289.145	-43.01
289.36	81.92
289.575	-49.15
289.79	79.87
290.004	-69.63
290.219	104.45
290.434	-24.58
290.649	2.05
290.864	-22.53
291.079	36.86
291.294	14.34
291.509	57.34
291.724	18.43
291.938	-14.34
292.153	18.43
292.368	-18.43
292.583	-59.39
292.798	-16.38
293.012	-2.05
293.227	-12.29
293.442	-34.82
293.657	81.92
293.871	112.64
294.086	20.48
294.301	65.54
294.516	47.1
294.73	-14.34
294.945	-49.15
295.16	71.68
295.374	90.11
295.589	53.25
295.804	55.3
296.018	24.58
296.233	26.62
296.447	47.1
296.662	10.24
296.877	63.49
297.091	36.86
297.306	-12.29
297.52	57.34
297.735	-8.19
297.949	-26.62
298.164	6.14
298.378	-34.82
298.593	-4.1
298.807	-14.34
299.022	73.73
299.236	63.49
299.451	28.67
299.665	-30.72
299.88	-38.91
300.094	-43.01
300.309	-34.82
300.523	69.63
300.737	4.1
300.952	24.58
301.166	-10.24
301.381	-14.34
301.595	4.1
301.809	-59.39
302.024	-22.53
302.238	0
302.452	67.58
302.667	-51.2
302.881	55.3
303.095	40.96
303.309	-2.05
303.524	-38.91
303.738	47.1
303.952	-32.77
304.166	2.05
304.381	-86.01
304.595	18.43
304.809	4.1
305.023	-10.24
305.237	-38.91
305.452	-79.87
305.666	106.49
305.88	75.77
306.094	20.48
306.308	126.97
306.522	-20.48
306.736	-32.77
306.95	36.86
307.164	-53.25
307.379	-38.91
307.593	65.54
307.807	118.78
308.021	24.58
308.235	14.34
308.449	-28.67
308.663	32.77
308.877	114.69
309.091	24.58
309.305	98.3
309.519	-92.16
309.733	120.83
309.947	-47.1
310.161	-16.38
310.374	59.39
310.588	81.92
310.802	24.58
311.016	-38.91
311.23	-22.53
311.444	40.96
311.658	49.15
311.872	38.91
312.085	96.25
312.299	-14.34
312.513	88.06
312.727	49.15
312.941	-75.77
313.154	63.49
313.368	-4.1
313.582	-2.05
313.796	-22.53
314.009	32.77
314.223	8.19
314.437	0
314.651	16.38
314.864	0
315.078	22.53
315.292	-81.92
315.505	-12.29
315.719	6.14
315.933	47.1
316.146	-34.82
316.36	24.58
316.573	-10.24
316.787	106.49
317.001	34.82
317.214	2.05
317.428	57.34
317.641	-12.29
317.855	6.14
318.068	51.2
318.282	26.62
318.495	157.69
318.709	59.39
318.922	-51.2
319.136	73.73
319.349	94.21
319.563	-6.14
319.776	40.96
319.99	-47.1
320.203	-24.58
320.417	-32.77
320.63	-34.82
320.843	24.58
321.057	-22.53
321.27	36.86
321.483	45.06
321.697	100.35
321.91	28.67
322.124	81.92
322.337	6.14
322.55	16.38
322.763	67.58
322.977	90.11
323.19	-43.01
323.403	63.49
323.617	-38.91
323.83	63.49
324.043	-65.53
324.256	-10.24
324.469	-53.25
324.683	104.45
324.896	45.06
325.109	-22.53
325.322	26.62
325.535	38.91
325.748	36.86
325.962	0
326.175	28.67
326.388	34.82
326.601	102.4
326.814	-10.24
327.027	65.54
327.24	118.78
327.453	-43.01
327.666	-16.38
327.879	86.01
328.092	114.69
328.305	38.91
328.518	40.96
328.731	0
328.944	-20.48
329.157	83.97
329.37	-38.91
329.583	92.16
329.796	112.64
330.009	-83.97
330.222	34.82
330.435	88.06
330.648	-2.05
330.861	94.21
331.073	38.91
331.286	16.38
331.499	-26.62
331.712	-22.53
331.925	-2.05
332.138	51.2
332.35	77.82
332.563	-36.86
332.776	30.72
332.989	-69.63
333.202	75.77
333.414	-16.38
333.627	-51.2
333.84	-10.24
334.053	-36.86
334.265	47.1
334.478	49.15
334.691	14.34
334.903	-4.1
335.116	-12.29
335.329	-6.14
335.541	49.15
335.754	112.64
335.966	16.38
336.179	14.34
336.392	36.86
336.604	38.91
336.817	57.34
337.029	-51.2
337.242	45.06
337.454	77.82
337.667	0
337.88	20.48
338.092	51.2
338.305	32.77
338.517	51.2
338.729	20.48
338.942	51.2
339.154	-14.34
339.367	-86.01
339.579	-8.19
339.792	43.01
340.004	30.72
340.217	53.25
340.429	6.14
340.641	40.96
340.854	6.14
341.066	10.24
341.278	49.15
341.491	6.14
341.703	40.96
341.915	75.77
342.128	71.68
342.34	90.11
342.552	36.86
342.764	38.91
342.977	6.14
343.189	16.38
343.401	22.53
343.613	-32.77
343.826	12.29
344.038	-30.72
344.25	28.67
344.462	-14.34
344.674	49.15
344.886	32.77
345.099	20.48
345.311	47.1
345.523	34.82
345.735	-104.45
345.947	71.68
346.159	34.82
346.371	16.38
346.583	59.39
346.795	126.97
347.007	40.96
347.219	36.86
347.431	-4.1
347.643	120.83
347.855	10.24
348.067	79.87
348.279	-14.34
348.491	45.06
348.703	10.24
348.915	22.53
349.127	-98.3
349.339	28.67
349.551	-2.05
349.763	14.34
349.975	-16.38
350.187	73.73
350.399	149.5
350.61	114.69
350.822	10.24
351.034	79.87
351.246	-24.58
351.458	59.39
351.669	49.15
351.881	65.54
352.093	90.11
352.305	53.25
352.517	53.25
352.728	63.49
352.94	8.19
353.152	16.38
353.363	8.19
353.575	38.91
353.787	36.86
353.999	6.14
354.21	49.15
354.422	32.77
354.633	-8.19
354.845	20.48
355.057	22.53
355.268	43.01
355.48	12.29
355.692	32.77
355.903	6.14
356.115	-34.82
356.326	14.34
356.538	114.69
356.749	30.72
356.961	104.45
357.172	106.49
357.384	-67.58
357.595	96.25
357.807	-6.14
358.018	12.29
358.23	14.34
358.441	104.45
358.653	94.21
358.864	49.15
359.075	-47.1
359.287	0
359.498	106.49
359.709	63.49
359.921	-4.1
360.132	59.39
360.344	14.34
360.555	-22.53
360.766	36.86
360.977	32.77
361.189	2.05
361.4	22.53
361.611	79.87
361.823	40.96
362.034	145.41
362.245	-47.1
362.456	88.06
362.667	65.54
362.879	-45.06
363.09	10.24
363.301	-18.43
363.512	22.53
363.723	4.1
363.935	-32.77
364.146	63.49
364.357	16.38
364.568	18.43
364.779	-149.5
364.99	55.3
365.201	12.29
365.412	90.11
365.623	-67.58
365.834	55.3
366.045	77.82
366.256	6.14
366.467	69.63
366.678	-10.24
366.889	57.34
367.1	69.63
367.311	0
367.522	-38.91
367.733	30.72
367.944	55.3
368.155	-12.29
368.366	40.96
368.577	22.53
368.788	90.11
368.999	-14.34
369.209	71.68
369.42	94.21
369.631	126.97
369.842	38.91
370.053	34.82
370.264	79.87
370.474	-63.49
370.685	32.77
370.896	49.15
371.107	57.34
371.317	45.06
371.528	59.39
371.739	77.82
371.95	12.29
372.16	14.34
372.371	-32.77
372.582	49.15
372.792	-26.62
373.003	53.25
373.214	98.3
373.424	43.01
373.635	73.73
373.846	71.68
374.056	2.05
374.267	16.38
374.477	4.1
374.688	43.01
374.898	81.92
375.109	-28.67
375.319	51.2
375.53	28.67
375.74	92.16
375.951	28.67
376.161	55.3
376.372	57.34
376.582	4.1
376.793	81.92
377.003	8.19
377.214	92.16
377.424	104.45
377.635	71.68
377.845	12.29
378.055	75.77
378.266	-59.39
378.476	18.43
378.686	83.97
378.897	49.15
379.107	28.67
379.317	59.39
379.528	-12.29
379.738	18.43
379.948	-57.34
380.158	61.44
380.369	-6.14
380.579	38.91
380.789	4.1
380.999	12.29
381.21	-20.48
381.42	124.93
381.63	83.97
381.84	38.91
382.05	12.29
382.261	71.68
382.471	20.48
382.681	20.48
382.891	-8.19
383.101	61.44
383.311	10.24
383.521	34.82
383.731	-16.38
383.941	16.38
384.151	6.14
384.361	6.14
384.571	-6.14
384.781	65.54
384.991	92.16
385.201	65.54
385.411	43.01
385.621	61.44
385.831	22.53
386.041	34.82
386.251	34.82
386.461	126.97
386.671	86.01
386.881	88.06
387.091	81.92
387.301	28.67
387.511	51.2
387.72	79.87
387.93	36.86
388.14	-30.72
388.35	83.97
388.56	71.68
388.769	102.4
388.979	32.77
389.189	6.14
389.399	65.54
389.609	51.2
389.818	131.07
390.028	49.15
390.238	65.54
390.447	-26.62
390.657	-32.77
390.867	-24.58
391.076	-24.58
391.286	-10.24
391.496	47.1
391.705	-8.19
391.915	2.05
392.125	116.73
392.334	45.06
392.544	8.19
392.753	40.96
392.963	22.53
393.172	59.39
393.382	-57.34
393.591	139.26
393.801	18.43
394.01	126.97
394.22	114.69
394.429	92.16
394.639	96.25
394.848	81.92
395.058	106.49
395.267	98.3
395.477	22.53
395.686	102.4
395.895	139.26
396.105	161.79
396.314	36.86
396.524	53.25
396.733	16.38
396.942	122.88
397.152	145.41
397.361	71.68
397.57	43.01
397.78	131.07
397.989	149.5
398.198	53.25
398.407	102.4
398.617	63.49
398.826	-6.14
399.035	6.14
399.244	141.31
399.453	116.73
399.663	90.11
399.872	77.82
400.081	155.65
400.29	153.6
400.499	40.96
400.708	110.59
400.917	79.87
401.127	73.73
401.336	61.44
401.545	106.49
401.754	139.26
401.963	137.21
402.172	126.97
402.381	22.53
402.59	71.68
402.799	131.07
403.008	88.06
403.217	120.83
403.426	167.93
403.635	8.19
403.844	79.87
404.053	159.74
404.262	88.06
404.471	208.89
404.68	75.77
404.888	98.3
405.097	51.2
405.306	112.64
405.515	198.65
405.724	114.69
405.933	210.94
406.142	67.58
406.35	235.52
406.559	270.33
406.768	147.45
406.977	251.9
407.185	163.84
407.394	151.55
407.603	172.03
407.812	157.69
408.02	227.32
408.229	202.75
408.438	278.52
408.646	133.12
408.855	268.28
409.064	219.13
409.272	223.23
409.481	260.09
409.69	323.58
409.898	190.46
410.107	272.38
410.315	333.82
410.524	266.24
410.733	262.14
410.941	307.2
411.15	374.78
411.358	309.24
411.567	335.87
411.775	391.16
411.984	393.21
412.192	456.7
412.401	372.73
412.609	501.75
412.818	524.28
413.026	389.11
413.234	460.79
413.443	428.03
413.651	481.27
413.86	534.52
414.068	485.37
414.276	550.9
414.485	608.25
414.693	657.4
414.901	653.3
415.11	641.01
415.318	704.5
415.526	626.68
415.734	700.41
415.943	702.45
416.151	720.89
416.359	788.47
416.567	808.95
416.776	933.87
416.984	929.78
417.192	806.9
417.4	958.45
417.608	903.15
417.817	1007.6
418.025	1017.84
418.233	1169.39
418.441	1038.32
418.649	1126.38
418.857	1177.58
419.065	1191.92
419.273	1140.72
419.481	1253.36
419.689	1335.28
419.897	1400.81
420.105	1423.34
420.313	1417.19
420.521	1513.45
420.729	1499.11
420.937	1591.27
421.145	1703.91
421.353	1693.67
421.561	1755.11
421.769	1816.55
421.977	1990.63
422.185	1859.56
422.393	1945.57
422.601	2037.73
422.809	2193.37
423.017	2176.99
423.224	2144.22
423.432	2244.57
423.64	2285.53
423.848	2652.12
424.056	2414.56
424.263	2742.23
424.471	2693.08
424.679	2719.7
424.887	2897.88
425.094	2953.17
425.302	3084.24
425.51	3059.67
425.718	3293.13
425.925	3192.78
426.133	3299.28
426.341	3434.44
426.548	3620.81
426.756	3768.26
426.964	3669.96
427.171	3897.28
427.379	3987.4
427.586	4126.66
427.794	4390.85
428.001	4429.76
428.209	4577.21
428.417	4556.73
428.624	4868.02
428.832	4919.22
429.039	4849.59
429.247	4898.74
429.454	5224.37
429.662	5674.92
429.869	5373.87
430.076	5627.82
430.284	5451.69
430.491	5750.7
430.699	6082.47
430.906	6070.18
431.114	6199.2
431.321	6557.6
431.528	6479.77
431.736	6977.43
431.943	7155.6
432.15	7010.2
432.358	7135.12
432.565	7499.66
432.772	7417.74
432.979	7864.2
433.187	8093.57
433.394	8224.64
433.601	8753.02
433.808	8585.08
434.016	8636.28
434.223	8812.41
434.43	9494.38
434.637	9404.27
434.844	9662.32
435.052	10395.49
435.259	10106.73
435.466	10037.09
435.673	10033
435.88	10788.7
436.087	11188.05
436.294	11282.26
436.501	11106.13
436.708	11091.8
436.915	11654.99
437.122	12111.69
437.329	11982.67
437.537	12609.34
437.743	12762.94
437.95	12498.75
438.157	13301.56
438.364	13621.04
438.571	13641.52
438.778	13856.56
438.985	15095.58
439.192	14468.9
439.399	14761.76
439.606	14456.61
439.813	15529.75
440.02	16402.18
440.227	16119.56
440.433	15879.95
440.64	16555.78
440.847	16201.48
441.054	16707.33
441.261	17874.67
441.467	17786.61
441.674	18286.31
441.881	18755.3
442.088	18798.31
442.294	18398.95
442.501	18695.91
442.708	19320.54
442.914	19873.49
443.121	21069.5
443.328	20367.05
443.534	22093.49
443.741	21200.57
443.948	21034.69
444.154	22568.62
444.361	22714.02
444.568	22671.01
444.774	22478.5
444.981	22865.57
445.187	23572.12
445.394	24241.81
445.6	24397.45
445.807	26812.01
446.013	25403
446.22	25851.51
446.426	26949.22
446.633	27100.77
446.839	28149.33
447.046	26977.89
447.252	28165.71
447.459	28515.92
447.665	28239.44
447.871	29707.83
448.078	30715.44
448.284	29394.5
448.491	30250.55
448.697	31241.76
448.903	31675.93
449.11	32243.22
449.316	31329.83
449.522	32206.36
449.728	33125.89
449.935	33324.55
450.141	33046.02
450.347	33969.66
450.553	32876.04
450.76	33594.88
450.966	34719.21
451.172	34094.58
451.378	34956.78
451.584	34457.07
451.791	35364.32
451.997	35026.41
452.203	35771.87
452.409	35810.78
452.615	35673.57
452.821	34598.38
453.027	34244.09
453.233	36132.31
453.44	34229.75
453.646	35098.09
453.852	34862.57
454.058	35491.3
454.264	34536.94
454.47	35235.3
454.676	34649.58
454.882	35605.98
455.088	32597.52
455.294	32824.84
455.5	33613.31
455.705	34014.71
455.911	32218.64
456.117	31974.94
456.323	31542.81
456.529	29797.95
456.735	31317.54
456.941	30293.55
457.147	29933.11
457.352	28798.54
457.558	28530.25
457.764	28763.72
457.97	28198.48
458.176	27186.79
458.381	27805.27
458.587	26066.55
458.793	25972.34
458.999	24931.97
459.204	27018.85
459.41	26148.46
459.616	24489.61
459.821	24372.88
460.027	24241.81
460.233	23543.45
460.438	22326.96
460.644	23049.89
460.85	21507.77
461.055	21278.4
461.261	21202.62
461.466	19687.12
461.672	19101.4
461.878	20360.91
462.083	19173.08
462.289	18644.71
462.494	18646.76
462.7	17676.02
462.905	17245.94
463.111	17841.9
463.316	18054.89
463.522	17573.62
463.727	17250.04
463.932	17479.41
464.138	17207.03
464.343	17336.06
464.549	17071.87
464.754	17258.23
464.959	17381.11
465.165	16971.52
465.37	16383.75
465.575	15910.67
465.781	16748.29
465.986	16645.89
466.191	16363.27
466.397	15898.38
466.602	15083.29
466.807	15707.92
467.012	15572.75
467.218	15496.98
467.423	15193.88
467.628	15539.99
467.833	15986.44
468.038	15451.92
468.244	15087.39
468.449	15783.7
468.654	15187.74
468.859	14993.18
469.064	15034.14
469.269	14290.73
469.474	14423.84
469.679	14612.26
469.885	14173.99
470.09	14284.58
470.295	14536.48
470.5	14210.86
470.705	14253.86
470.91	13682.48
471.115	13911.85
471.32	13905.71
471.525	13903.66
471.73	13549.36
471.935	13428.53
472.139	12908.35
472.344	13039.42
472.549	13158.2
472.754	13025.08
472.959	12971.83
473.164	12422.98
473.369	12250.95
473.574	12812.09
473.778	12640.06
473.983	12406.59
474.188	12515.14
474.393	11804.49
474.598	11982.67
474.802	11530.06
475.007	11853.64
475.212	11784.01
475.417	11288.4
475.621	11415.38
475.826	11274.07
476.031	11253.59
476.235	10946.39
476.44	11147.09
476.645	10866.52
476.849	10776.41
477.054	10622.81
477.259	10821.47
477.463	10463.07
477.668	10295.14
477.872	10475.36
478.077	10137.45
478.282	10006.38
478.486	9936.74
478.691	9660.27
478.895	9889.64
479.1	9631.6
479.304	9926.5
479.509	9453.42
479.713	9903.98
479.918	9531.25
480.122	9305.97
480.326	9389.94
480.531	9533.29
480.735	9391.98
480.94	9316.21
481.144	9680.75
481.348	8943.48
481.553	9002.87
481.757	9047.93
481.961	9166.71
482.166	9209.72
482.37	9107.32
482.574	8863.61
482.778	8949.62
482.983	9174.9
483.187	9164.66
483.391	9103.22
483.595	9205.62
483.8	8877.94
484.004	9140.08
484.208	8986.49
484.412	8949.62
484.616	9226.1
484.821	9144.18
485.025	8845.18
485.229	9129.84
485.433	8931.19
485.637	9056.12
485.841	9103.22
486.045	8849.27
486.249	9017.21
486.453	8875.9
486.657	8939.38
486.861	9068.41
487.065	8869.75
487.269	8935.29
487.473	8873.85
487.677	9234.29
487.881	9226.1
488.085	9183.09
488.289	8968.06
488.493	8943.48
488.697	9152.37
488.901	9058.17
489.105	9097.08
489.309	9133.94
489.512	9049.97
489.716	9179
489.92	9015.16
490.124	8986.49
490.328	9512.81
490.531	9228.15
490.735	9258.87
490.939	9287.54
491.143	9133.94
491.346	9226.1
491.55	9232.24
491.754	9346.93
491.958	9420.66
492.161	9338.74
492.365	9496.43
492.569	9551.73
492.772	9617.26
492.976	9486.19
493.18	9549.68
493.383	9758.57
493.587	9711.47
493.79	9752.43
493.994	9482.1
494.197	10116.97
494.401	9895.78
494.605	9912.17
494.808	10313.57
495.012	10135.4
495.215	10264.42
495.419	10311.52
495.622	10329.95
495.825	10362.72
496.029	10493.79
496.232	10702.68
496.436	10522.46
496.639	10856.28
496.843	10731.36
497.046	11167.57
497.249	11110.23
497.453	11149.14
497.656	11335.51
497.859	11466.58
498.063	11614.03
498.266	11589.46
498.469	11673.42
498.673	11896.65
498.876	11786.06
499.079	12031.82
499.282	12072.78
499.485	12267.33
499.689	12281.67
499.892	12588.86
500.095	12666.69
500.298	13041.47
500.501	12777.28
500.705	13182.77
500.908	13272.89
501.111	13319.99
501.314	13473.59
501.517	13655.86
501.72	13784.88
501.923	14053.16
502.126	14055.21
502.329	14317.35
502.532	14483.24
502.735	14264.1
502.938	14645.02
503.141	14548.77
503.344	14944.03
503.547	15050.52
503.75	15349.53
503.953	15539.99
504.156	15761.17
504.359	15650.58
504.562	15898.38
504.765	16221.96
504.968	16357.13
505.17	16604.93
505.373	16469.76
505.576	16813.82
505.779	17104.63
505.982	17227.51
506.185	17456.89
506.387	17573.62
506.59	17647.35
506.793	17972.97
506.996	18116.33
507.198	18347.75
507.401	18179.82
507.604	18540.26
507.807	19050.21
508.009	19033.82
508.212	19076.83
508.415	19486.42
508.617	19511
508.82	19656.4
509.022	19400.41
509.225	19916.5
509.428	20311.75
509.63	20405.96
509.833	20584.13
510.035	21298.87
510.238	20862.66
510.44	21137.09
510.643	21227.2
510.845	21853.87
511.048	21784.24
511.25	21937.84
511.453	22095.53
511.655	22687.4
511.858	22621.86
512.06	22808.23
512.262	22871.71
512.465	22955.68
512.667	23406.23
512.87	23600.79
513.072	23871.12
513.274	24389.26
513.477	24475.27
513.679	24770.18
513.881	24954.5
514.084	25265.79
514.286	25200.26
514.488	25298.56
514.69	26066.55
514.893	25841.27
515.095	25859.7
515.297	26269.3
515.499	26533.48
515.701	26863.21
515.904	27182.69
516.106	27620.95
516.308	27471.45
516.51	27971.16
516.712	27743.83
516.914	28008.02
517.116	28769.86
517.318	28819.02
517.52	29322.82
517.722	29154.88
517.925	29572.67
518.127	29828.66
518.329	30354.99
518.531	30062.13
518.733	30563.89
518.935	30772.78
519.136	31071.78
519.338	31270.43
519.54	30950.95
519.742	31747.61
519.944	31895.07
520.146	32318.99
520.348	32798.22
520.55	32441.87
520.752	32747.02
520.954	33248.77
521.155	32900.62
521.357	33701.37
521.559	33908.22
521.761	34102.78
521.963	34375.16
522.164	34514.42
522.366	34817.52
522.568	34979.31
522.77	35059.18
522.971	35632.61
523.173	35624.42
523.375	35978.72
523.576	35843.55
523.778	35765.73
523.98	36371.93
524.181	36453.84
524.383	36435.41
524.584	37252.55
524.786	36947.4
524.988	37125.58
525.189	37400.01
525.391	37750.21
525.592	38223.29
525.794	38108.6
525.995	38094.27
526.197	38020.54
526.398	38272.44
526.6	38321.59
526.801	38591.92
527.003	38626.74
527.204	38864.3
527.406	39269.8
527.607	39779.75
527.808	39740.83
528.01	38974.89
528.211	39189.93
528.412	39763.36
528.614	39912.86
528.815	39927.2
529.016	40494.49
529.218	39869.86
529.419	40322.46
529.62	40936.85
529.822	40246.68
530.023	40711.57
530.224	40322.46
530.425	40566.17
530.626	40727.95
530.828	40590.74
531.029	41106.83
531.23	40869.26
531.431	40816.02
531.632	41246.09
531.833	41368.97
532.035	41299.34
532.236	41661.83
532.437	41291.15
532.638	41217.42
532.839	41622.92
533.04	41874.82
533.241	41538.95
533.442	42132.86
533.643	41766.27
533.844	41692.55
534.045	41645.44
534.246	41256.33
534.447	41850.24
534.648	41487.75
534.849	42136.96
535.05	41205.13
535.251	41768.32
535.451	41618.82
535.652	41928.06
535.853	41745.79
536.054	41958.78
536.255	41719.17
536.456	41160.08
536.657	42372.47
536.857	41760.13
537.058	41737.6
537.259	42198.4
537.46	41858.43
537.66	42055.04
537.861	41835.91
538.062	42210.68
538.263	41770.37
538.463	42120.57
538.664	41694.6
538.865	42184.06
539.065	42182.01
539.266	41674.12
539.466	42108.29
539.667	41454.98
539.868	42634.61
540.068	41870.72
540.269	41708.93
540.469	42354.04
540.67	41792.9
540.87	42069.37
541.071	41739.65
541.271	42034.56
541.472	41864.58
541.672	41684.36
541.873	41667.97
542.073	41334.15
542.274	41604.49
542.474	41551.24
542.675	41694.6
542.875	42073.47
543.075	41624.96
543.276	41461.13
543.476	42100.09
543.676	41905.54
543.877	41878.91
544.077	41825.67
544.277	41321.87
544.478	41739.65
544.678	41962.88
544.878	41670.02
545.078	41641.35
545.279	41706.88
545.479	41522.57
545.679	41631.11
545.879	41436.55
546.079	41330.06
546.28	41532.81
546.48	41379.21
546.68	41977.22
546.88	41190.8
547.08	41483.65
547.28	41418.12
547.48	41196.94
547.68	41393.54
547.88	41248.14
548.081	41690.5
548.281	41575.81
548.481	41567.62
548.681	41772.42
548.881	41502.09
549.081	41436.55
549.28	40967.57
549.48	41969.02
549.68	41690.5
549.88	42106.24
550.08	41176.46
550.28	41102.73
550.48	41053.58
550.68	41336.2
550.88	41198.99
551.08	41407.88
551.279	41153.93
551.479	41020.81
551.679	41127.31
551.879	40961.42
552.079	41026.96
552.278	41135.5
552.478	41246.09
552.678	41168.27
552.878	41192.84
553.077	40875.41
553.277	40781.2
553.477	41874.82
553.676	40834.45
553.876	40795.54
554.076	40975.76
554.275	40912.27
554.475	40224.15
554.674	40850.83
554.874	40676.76
555.074	40582.55
555.273	40920.46
555.473	40697.24
555.672	40312.22
555.872	40600.98
556.071	40355.22
556.271	40842.64
556.47	40416.66
556.67	40238.49
556.869	40072.6
557.068	40156.57
557.268	40252.83
557.467	40355.22
557.667	39742.88
557.866	40220.06
558.065	39990.69
558.265	39908.77
558.464	39908.77
558.663	40242.59
558.863	39781.79
559.062	40471.96
559.261	39863.71
559.461	39826.85
559.66	39429.54
559.859	39421.35
560.058	39155.11
560.258	39456.17
560.457	39267.75
560.656	39775.65
560.855	38952.37
561.054	39605.67
561.253	38972.85
561.453	39048.62
561.652	39382.44
561.851	39552.42
562.05	38712.75
562.249	38981.04
562.448	38976.94
562.647	39249.32
562.846	38675.89
563.045	38708.66
563.244	38350.26
563.443	39048.62
563.642	38270.39
563.841	38546.87
564.04	38063.55
564.239	38880.69
564.438	38196.67
564.637	38270.39
564.836	38376.89
565.035	37729.73
565.234	38008.25
565.432	38006.2
565.631	37733.82
565.83	37948.86
566.029	37510.6
566.228	37815.74
566.427	37375.43
566.625	37060.04
566.824	36767.18
567.023	37133.77
567.222	36564.43
567.42	37221.83
567.619	37012.94
567.818	36525.52
568.016	36560.34
568.215	37254.6
568.414	36879.82
568.612	36785.61
568.811	36515.28
569.01	36347.35
569.208	36257.24
569.407	36431.32
569.605	36013.53
569.804	36201.94
570.002	35806.69
570.201	36185.56
570.4	35571.17
570.598	35802.59
570.797	35444.2
570.995	35671.52
571.193	35311.08
571.392	35511.78
571.59	35137
571.789	35134.95
571.987	34835.95
572.186	35108.33
572.384	34827.76
572.582	35280.36
572.781	35108.33
572.979	34471.41
573.177	34840.04
573.376	34848.24
573.574	34436.59
573.772	34739.69
573.971	34264.57
574.169	34041.34
574.367	34172.41
574.565	34139.64
574.763	33633.79
574.962	33771
575.16	33603.07
575.358	33662.46
575.556	33564.16
575.754	33580.54
575.952	33271.3
576.151	33635.84
576.349	33259.01
576.547	32974.34
576.745	33060.36
576.943	33156.61
577.141	32853.51
577.339	33109.51
577.537	32650.77
577.735	32464.4
577.933	32726.54
578.131	32830.99
578.329	32300.56
578.527	32101.91
578.725	32177.68
578.923	32531.98
579.121	32155.16
579.319	31884.83
579.516	32245.27
579.714	32044.57
579.912	31950.36
580.11	31544.86
580.308	31784.47
580.506	31692.32
580.704	31206.95
580.901	31600.16
581.099	31624.73
581.297	31342.11
581.495	30979.62
581.692	30987.82
581.89	30838.31
582.088	30965.29
582.285	30858.79
582.483	30815.79
582.681	30920.23
582.878	30610.99
583.076	30406.19
583.274	30774.83
583.471	30166.58
583.669	30545.45
583.866	29843
584.064	30254.64
584.262	29826.62
584.459	30299.7
584.657	29953.59
584.854	30058.04
585.052	29431.36
585.249	29840.95
585.447	29709.88
585.644	29441.6
585.841	29560.38
586.039	29660.73
586.236	29486.65
586.434	29537.85
586.631	29072.96
586.828	29216.32
587.026	28958.28
587.223	28548.68
587.42	28692.04
587.618	28698.19
587.815	28247.63
588.012	28309.07
588.21	28341.84
588.407	28665.42
588.604	28495.44
588.801	28497.49
588.999	28151.38
589.196	28231.25
589.393	28272.21
589.59	27889.24
589.787	27747.93
589.984	28040.79
590.182	27580
590.379	27696.73
590.576	27551.32
590.773	27610.71
590.97	27569.76
591.167	27528.8
591.364	26975.84
591.561	27301.47
591.758	26875.49
591.955	26916.45
592.152	26850.92
592.349	27117.15
592.546	26707.56
592.743	26898.02
592.94	26508.91
593.137	26805.86
593.334	26625.64
593.531	26218.1
593.727	26324.59
593.924	26404.46
594.121	26386.03
594.318	26009.2
594.515	25925.24
594.712	26218.1
594.908	25736.82
595.105	25863.8
595.302	25466.49
595.499	25661.05
595.696	25636.47
595.892	25454.2
596.089	25417.34
596.286	25470.59
596.482	25310.85
596.679	25290.37
596.876	25153.15
597.072	25179.78
597.269	25171.58
597.466	25005.7
597.662	24737.41
597.859	24751.75
598.055	25015.94
598.252	24837.76
598.448	24538.76
598.645	24407.69
598.841	24278.67
599.038	24239.76
599.234	24460.94
599.431	23867.03
599.627	24309.39
599.824	24221.33
600.02	23821.97
600.217	24022.67
600.413	23930.51
600.609	23944.85
600.806	23537.3
601.002	23604.89
601.198	23584.41
601.395	23269.02
601.591	23439
601.787	23119.52
601.984	23242.4
602.18	23344.8
602.376	23387.8
602.572	23025.31
602.769	22873.76
602.965	22693.54
603.161	23037.6
603.357	22673.06
603.553	22494.89
603.75	22642.34
603.946	22572.71
604.142	22646.44
604.338	22384.3
604.534	22593.19
604.73	22116.01
604.926	22230.7
605.122	22578.86
605.318	22099.63
605.514	21900.98
605.71	21599.93
605.906	21857.97
606.102	22034.1
606.298	22007.47
606.494	21960.37
606.69	21739.19
606.886	21716.66
607.082	21407.42
607.278	21741.24
607.474	21245.63
607.67	21550.78
607.866	21286.59
608.062	21454.52
608.257	21003.97
608.453	21313.21
608.649	21253.82
608.845	21118.65
609.041	21044.93
609.236	21214.91
609.432	20862.66
609.628	20952.77
609.824	21030.59
610.019	20625.09
610.215	20627.14
610.411	20993.73
610.606	20694.72
610.802	20659.91
610.998	20852.42
611.193	20770.5
611.389	20504.26
611.584	20500.17
611.78	20375.24
611.976	20639.43
612.171	20483.78
612.367	20276.94
612.562	20334.28
612.758	20109.01
612.953	20016.85
613.149	20063.95
613.344	20051.66
613.539	20403.91
613.735	20010.7
613.93	20074.19
614.126	19988.17
614.321	20446.92
614.517	19857.1
614.712	19939.02
614.907	19736.27
615.103	19609.3
615.298	19623.64
615.493	19916.5
615.688	19623.64
615.884	19766.99
616.079	19357.4
616.274	19617.49
616.47	19445.46
616.665	19646.16
616.86	19388.12
617.055	19338.97
617.25	19379.93
617.445	19332.82
617.641	19021.53
617.836	19347.16
618.031	19187.42
618.226	18964.19
618.421	19001.05
618.616	19046.11
618.811	18831.07
619.006	18994.91
619.201	18624.23
619.396	18775.78
619.591	18325.22
619.786	18464.49
619.981	18245.35
620.176	18558.69
620.371	18128.62
620.566	18413.29
620.761	18222.83
620.956	18024.17
621.151	18007.79
621.346	18192.11
621.541	17807.09
621.735	17950.45
621.93	17692.4
622.125	17596.15
622.32	17325.82
622.515	17473.27
622.709	17325.82
622.904	17403.64
623.099	17356.54
623.294	17319.67
623.488	17159.93
623.683	17061.63
623.878	16606.98
624.072	16811.78
624.267	17096.44
624.462	16547.59
624.656	16596.74
624.851	16340.74
625.046	16420.61
625.24	16391.94
625.435	16291.59
625.629	16107.27
625.824	16097.03
626.018	16113.42
626.213	15630.1
626.407	15695.63
626.602	15560.47
626.796	15734.54
626.991	15613.71
627.185	15406.87
627.38	15630.1
627.574	15281.94
627.768	15058.71
627.963	15173.4
628.157	15109.91
628.352	15075.1
628.546	14792.48
628.74	14931.74
628.935	14579.49
629.129	14819.1
629.323	14776.09
629.517	14171.94
629.712	14423.84
629.906	14374.69
630.1	14229.29
630.294	14319.4
630.489	14165.8
630.683	13936.43
630.877	14139.18
631.071	13985.58
631.265	13928.24
631.459	13874.99
631.653	13924.14
631.848	13557.55
632.042	13172.53
632.236	13553.46
632.43	13272.89
632.624	13383.48
632.818	13088.57
633.012	13180.73
633.206	13090.62
633.4	13037.37
633.594	13094.71
633.788	12828.48
633.982	12891.96
634.176	12756.8
634.369	12773.18
634.563	12646.21
634.757	12836.67
634.951	12646.21
635.145	12482.37
635.339	12527.42
635.533	12433.22
635.726	12523.33
635.92	12382.02
636.114	12265.28
636.308	11915.08
636.501	11968.33
636.695	12035.91
636.889	11933.51
637.083	12015.43
637.276	11736.91
637.47	11786.06
637.664	11542.35
637.857	11714.38
638.051	11501.39
638.244	11392.85
638.438	11503.44
638.632	11415.38
638.825	11261.78
639.019	11083.61
639.212	11272.02
639.406	11061.08
639.599	10966.87
639.793	11063.13
639.986	11050.84
640.18	10985.3
640.373	10872.67
640.567	10768.22
640.76	10702.68
640.954	10678.11
641.147	10633.05
641.34	10588
641.534	10510.18
641.727	10661.73
641.92	10207.08
642.114	10264.42
642.307	10323.81
642.5	10170.21
642.694	10155.88
642.887	10190.69
643.08	10198.88
643.273	9928.55
643.467	9987.94
643.66	9908.07
643.853	9805.67
644.046	9736.04
644.239	9873.26
644.432	9428.85
644.626	9527.15
644.819	9459.57
645.012	9584.49
645.205	9543.53
645.398	9590.64
645.591	9299.83
645.784	9277.3
645.977	9207.67
646.17	9117.56
646.363	9195.38
646.556	9082.74
646.749	9193.33
646.942	9283.44
647.135	9029.49
647.328	8925.05
647.521	8658.81
647.714	8916.86
647.907	8621.95
648.099	8789.88
648.292	8906.62
648.485	8724.35
648.678	8628.09
648.871	8693.63
649.064	8490.88
649.256	8556.41
649.449	8419.2
649.642	8165.25
649.835	8230.79
650.027	8497.02
650.22	8316.8
650.413	8236.93
650.605	8152.96
650.798	8028.04
650.991	7995.27
651.183	7993.22
651.376	8152.96
651.568	8116.1
651.761	7845.77
651.954	7880.58
652.146	7915.4
652.339	7950.21
652.531	7866.25
652.724	7698.31
652.916	7651.21
653.109	7665.55
653.301	7591.82
653.494	7649.16
653.686	7540.62
653.879	7497.61
654.071	7432.08
654.263	7395.22
654.456	7518.09
654.648	7331.73
654.84	7102.36
655.033	7272.34
655.225	7288.72
655.417	7225.23
655.61	7290.77
655.802	7258
655.994	7075.73
656.186	7161.75
656.379	7053.2
656.571	7174.03
656.763	6872.98
656.955	6989.72
657.148	7002.01
657.34	6760.34
657.532	6770.58
657.724	6680.47
657.916	6834.07
658.108	6684.57
658.3	6627.23
658.492	6875.03
658.684	6641.56
658.876	6629.27
659.068	6664.09
659.26	6635.42
659.452	6322.08
659.644	6512.54
659.836	6496.16
660.028	6629.27
660.22	6424.48
660.412	6307.74
660.604	6324.13
660.796	6490.01
660.988	6240.16
661.18	6297.5
661.372	6281.12
661.563	6207.39
661.755	6055.84
661.947	6172.58
662.139	6158.24
662.331	6133.67
662.522	5879.72
662.714	6172.58
662.906	5873.57
663.097	5957.54
663.289	5943.21
663.481	5781.42
663.673	5867.43
663.864	5711.78
664.056	5810.09
664.247	5816.23
664.439	5744.55
664.631	5756.84
664.822	5877.67
665.014	5736.36
665.205	5619.63
665.397	5638.06
665.588	5664.68
665.78	5660.59
665.971	5521.32
666.163	5580.71
666.354	5531.56
666.546	5513.13
666.737	5504.94
666.929	5382.06
667.12	5504.94
667.311	5509.04
667.503	5445.55
667.694	5463.98
667.885	5273.52
668.077	5435.31
668.268	5265.33
668.459	5322.67
668.651	5167.03
668.842	5253.04
669.033	5248.94
669.224	5207.98
669.416	5322.67
669.607	5244.85
669.798	5216.18
669.989	5365.68
670.18	5191.6
670.371	5255.09
670.563	5246.9
670.754	5201.84
670.945	5011.38
671.136	4962.23
671.327	4990.9
671.518	5140.4
671.709	5056.43
671.9	5193.65
672.091	5222.32
672.282	5132.21
672.473	4968.37
672.664	5062.58
672.855	4980.66
673.046	5015.48
673.237	5003.19
673.428	4972.47
673.619	4968.37
673.809	4972.47
674	4812.73
674.191	4949.94
674.382	4886.45
674.573	4980.66
674.764	4796.34
674.954	4882.36
675.145	4822.97
675.336	4673.46
675.527	4911.03
675.717	4736.95
675.908	4825.01
676.099	4786.1
676.289	4923.32
676.48	4712.38
676.671	4718.52
676.861	4835.25
677.052	4677.56
677.243	4822.97
677.433	4779.96
677.624	4771.77
677.814	4704.18
678.005	4865.97
678.195	4812.73
678.386	4872.12
678.576	4691.9
678.767	4927.41
678.957	4626.36
679.148	4888.5
679.338	4720.57
679.529	4706.23
679.719	4646.84
679.909	4757.43
680.1	4724.66
680.29	4775.86
680.481	4743.1
680.671	4806.58
680.861	4673.46
681.052	4675.51
681.242	4589.5
681.432	4839.35
681.622	4724.66
681.813	4745.14
682.003	4769.72
682.193	4640.7
682.383	4616.12
682.573	4597.69
682.764	4700.09
682.954	4761.53
683.144	4808.63
683.334	4741.05
683.524	4743.1
683.714	4853.69
683.904	4796.34
684.094	4644.79
684.284	4675.51
684.474	4714.42
684.664	4661.18
684.854	4497.34
685.044	4593.59
685.234	4632.51
685.424	4771.77
685.614	4577.21
685.804	4687.8
685.994	4581.31
686.184	4519.87
686.374	4429.76
686.564	4456.38
686.753	4521.91
686.943	4511.68
687.133	4491.2
687.323	4419.52
687.513	4341.69
687.702	4282.3
687.892	4235.2
688.082	4390.85
688.272	4468.67
688.461	4282.3
688.651	4341.69
688.841	4200.38
689.03	4272.06
689.22	4247.49
689.41	4310.97
689.599	4196.29
689.789	4184
689.979	4171.71
690.168	4206.53
690.358	4097.99
690.547	4005.83
690.737	4022.21
690.926	4020.16
691.116	4014.02
691.305	4102.08
691.495	4038.59
691.684	3833.8
691.874	3848.13
692.063	4005.83
692.252	3930.05
692.442	3805.13
692.631	3864.52
692.82	3792.84
693.01	3780.55
693.199	3698.63
693.388	3839.94
693.578	3657.67
693.767	3684.3
693.956	3796.93
694.146	3755.97
694.335	3612.62
694.524	3729.35
694.713	3659.72
694.902	3600.33
695.092	3594.19
695.281	3667.91
695.47	3694.54
695.659	3516.36
695.848	3493.83
696.037	3684.3
696.226	3633.1
696.415	3581.9
696.604	3495.88
696.793	3592.14
696.982	3604.43
697.171	3667.91
697.36	3545.03
697.549	3516.36
697.738	3465.16
697.927	3579.85
698.116	3485.64
698.305	3518.41
698.494	3397.58
698.683	3575.75
698.872	3585.99
699.061	3430.35
699.25	3569.61
699.438	3516.36
699.627	3499.98
699.816	3499.98
700.005	3430.35
700.193	3375.05
700.382	3407.82
700.571	3418.06
700.76	3481.55
700.948	3489.74
701.137	3383.24
701.326	3508.17
701.514	3397.58
701.703	3571.66
701.892	3327.95
702.08	3526.6
702.269	3340.24
702.457	3399.63
702.646	3440.59
702.834	3479.5
703.023	3430.35
703.212	3530.7
703.4	3311.57
703.589	3459.02
703.777	3387.34
703.965	3405.77
704.154	3391.44
704.342	3450.83
704.531	3518.41
704.719	3499.98
704.907	3426.25
705.096	3463.12
705.284	3391.44
705.472	3532.75
705.661	3553.23
705.849	3387.34
706.037	3405.77
706.226	3348.43
706.414	3438.54
706.602	3295.18
706.79	3381.2
706.979	3456.97
707.167	3495.88
707.355	3620.81
707.543	3418.06
707.731	3528.65
707.919	3506.12
708.107	3413.96
708.296	3411.92
708.484	3452.88
708.672	3520.46
708.86	3499.98
709.048	3469.26
709.236	3452.88
709.424	3440.59
709.612	3565.51
709.8	3530.7
709.988	3528.65
710.176	3555.27
710.364	3594.19
710.551	3485.64
710.739	3643.34
710.927	3567.56
711.115	3518.41
711.303	3479.5
711.491	3592.14
711.679	3448.78
711.866	3604.43
712.054	3561.42
712.242	3499.98
712.43	3631.05
712.617	3479.5
712.805	3571.66
712.993	3594.19
713.181	3569.61
713.368	3604.43
713.556	3631.05
713.744	3583.95
713.931	3649.48
714.119	3704.78
714.306	3639.24
714.494	3553.23
714.682	3596.23
714.869	3506.12
715.057	3608.52
715.244	3532.75
715.432	3651.53
715.619	3663.82
715.807	3506.12
715.994	3663.82
716.182	3712.97
716.369	3739.59
716.556	3706.82
716.744	3624.9
716.931	3692.49
717.119	3680.2
717.306	3708.87
717.493	3624.9
717.681	3622.86
717.868	3669.96
718.055	3766.21
718.242	3751.88
718.43	3844.04
718.617	3676.1
718.804	3581.9
718.991	3758.02
719.179	3831.75
719.366	3796.93
719.553	3784.65
719.74	3719.11
719.927	3655.62
720.114	3643.34
720.301	3741.64
720.488	3764.17
720.676	3704.78
720.863	3784.65
721.05	3899.33
721.237	3829.7
721.424	3729.35
721.611	3878.85
721.798	3639.24
721.985	3758.02
722.172	3635.14
722.358	3651.53
722.545	3807.17
722.732	3798.98
722.919	3971.01
723.106	3715.02
723.293	3764.17
723.48	3831.75
723.667	3784.65
723.853	3848.13
724.04	3811.27
724.227	3913.67
724.414	3786.69
724.6	3844.04
724.787	4026.31
724.974	3794.89
725.161	3848.13
725.347	3747.78
725.534	3960.77
725.72	3874.76
725.907	3872.71
726.094	3786.69
726.28	3667.91
726.467	3854.28
726.653	3839.94
726.84	3833.8
727.027	3807.17
727.213	3839.94
727.4	3938.24
727.586	3913.67
727.773	3770.31
727.959	3723.21
728.145	3932.1
728.332	3938.24
728.518	3854.28
728.705	3876.8
728.891	3948.48
729.077	3870.66
729.264	3938.24
729.45	3971.01
729.636	3995.59
729.823	3921.86
730.009	3901.38
730.195	4011.97
730.382	3915.72
730.568	3805.13
730.754	3995.59
730.94	4036.55
731.126	4097.99
731.313	3923.91
731.499	3897.28
731.685	3942.34
731.871	4001.73
732.057	3944.39
732.243	4052.93
732.429	3962.82
732.615	3975.11
732.801	4001.73
732.987	3946.44
733.173	4024.26
733.359	4050.88
733.545	4020.16
733.731	3811.27
733.917	3913.67
734.103	3827.65
734.289	3946.44
734.475	4030.4
734.661	3975.11
734.847	3979.2
735.033	3915.72
735.219	3831.75
735.404	3815.37
735.59	3993.54
735.776	3956.68
735.962	3891.14
736.148	3936.2
736.333	3895.24
736.519	3956.68
736.705	3827.65
736.89	3923.91
737.076	3940.29
737.262	3844.04
737.447	3803.08
737.633	3706.82
737.819	4022.21
738.004	3811.27
738.19	3968.96
738.375	3860.42
738.561	3915.72
738.747	3872.71
738.932	3946.44
739.118	3850.18
739.303	3889.09
739.489	3844.04
739.674	3780.55
739.859	3725.26
740.045	3882.95
740.23	3825.61
740.416	3717.06
740.601	3733.45
740.786	3733.45
740.972	3841.99
741.157	3764.17
741.342	3719.11
741.528	3694.54
741.713	3807.17
741.898	3641.29
742.084	3614.66
742.269	3829.7
742.454	3700.68
742.639	3737.54
742.824	3684.3
743.01	3663.82
743.195	3612.62
743.38	3612.62
743.565	3665.86
743.75	3659.72
743.935	3481.55
744.12	3688.39
744.305	3413.96
744.49	3532.75
744.675	3446.73
744.86	3540.94
745.045	3575.75
745.23	3553.23
745.415	3459.02
745.6	3526.6
745.785	3401.68
745.97	3454.92
746.155	3323.85
746.34	3397.58
746.525	3225.55
746.71	3438.54
746.895	3229.65
747.079	3354.57
747.264	3319.76
747.449	3205.07
747.634	3207.12
747.819	3178.45
748.003	3241.93
748.188	3182.54
748.373	3088.34
748.557	3170.26
748.742	3053.52
748.927	3039.19
749.111	3139.54
749.296	3043.28
749.481	2992.08
749.665	3078.1
749.85	3039.19
750.034	2930.64
750.219	3053.52
750.404	2904.02
750.588	2965.46
750.773	2963.41
750.957	2979.79
751.141	2834.39
751.326	2883.54
751.51	2863.06
751.695	2803.67
751.879	2809.81
752.064	2951.12
752.248	2682.84
752.432	2672.6
752.617	2791.38
752.801	2623.45
752.985	2742.23
753.17	2572.25
753.354	2695.13
753.538	2539.48
753.722	2688.98
753.907	2545.63
754.091	2537.43
754.275	2578.39
754.459	2521.05
754.643	2473.95
754.828	2410.46
755.012	2510.81
755.196	2385.88
755.38	2445.27
755.564	2367.45
755.748	2363.36
755.932	2451.42
756.116	2519
756.3	2406.36
756.484	2332.64
756.668	2322.4
756.852	2322.4
757.036	2226.14
757.22	2226.14
757.404	2226.14
757.588	2215.9
757.772	2222.05
757.956	2361.31
758.14	2244.57
758.323	2131.94
758.507	1994.72
758.691	2154.46
758.875	2193.37
759.059	2191.33
759.242	2088.93
759.426	2039.78
759.61	2060.26
759.794	2133.98
759.977	1937.38
760.161	2205.66
760.345	1949.67
760.528	1988.58
760.712	2068.45
760.895	1984.48
761.079	2013.15
761.263	1900.51
761.446	1812.45
761.63	1937.38
761.813	1931.23
761.997	1830.88
762.18	1890.28
762.364	1871.84
762.547	1794.02
762.731	1912.8
762.914	1837.03
763.098	1896.42
763.281	1880.04
763.464	1890.28
763.648	1839.08
763.831	1791.97
764.015	1734.63
764.198	1791.97
764.381	1843.17
764.564	1867.75
764.748	1800.16
764.931	1765.35
765.114	1757.16
765.297	1734.63
765.481	1662.95
765.664	1712.1
765.847	1839.08
766.03	1757.16
766.213	1738.73
766.397	1689.57
766.58	1568.74
766.763	1652.71
766.946	1599.46
767.129	1593.32
767.312	1568.74
767.495	1560.55
767.678	1572.84
767.861	1658.85
768.044	1585.13
768.227	1685.48
768.41	1650.66
768.593	1578.98
768.776	1662.95
768.959	1513.45
769.142	1759.21
769.324	1495.02
769.507	1484.78
769.69	1454.06
769.873	1572.84
770.056	1538.02
770.239	1611.75
770.421	1484.78
770.604	1570.79
770.787	1488.87
770.97	1409
771.152	1374.19
771.335	1419.24
771.518	1335.28
771.7	1425.39
771.883	1505.26
772.066	1351.66
772.248	1441.77
772.431	1476.59
772.613	1417.19
772.796	1353.71
772.978	1382.38
773.161	1466.35
773.343	1320.94
773.526	1374.19
773.708	1257.45
773.891	1333.23
774.073	1327.08
774.256	1177.58
774.438	1361.9
774.621	1148.91
774.803	1251.31
774.985	1236.97
775.168	1345.52
775.35	1181.68
775.532	1310.7
775.715	1208.3
775.897	1255.4
776.079	1177.58
776.261	1218.54
776.444	1173.49
776.626	1173.49
776.808	1251.31
776.99	1019.89
777.173	1157.1
777.355	964.59
777.537	1130.48
777.719	1046.51
777.901	1030.13
778.083	1091.57
778.265	1030.13
778.447	1185.77
778.629	1034.22
778.811	1056.75
778.993	1089.52
779.175	1040.37
779.357	980.98
779.539	1015.79
779.721	1069.04
779.903	1112.05
780.085	989.17
780.267	1103.86
780.449	997.36
780.631	1023.98
780.812	1013.74
780.994	907.25
781.176	1009.65
781.358	911.35
781.54	862.19
781.721	874.48
781.903	940.02
782.085	866.29
782.267	915.44
782.448	833.52
782.63	915.44
782.812	835.57
782.993	913.39
783.175	868.34
783.357	815.09
783.538	870.39
783.72	776.18
783.901	892.91
784.083	860.15
784.264	782.32
784.446	702.45
784.627	796.66
784.809	851.95
784.99	808.95
785.172	800.76
785.353	780.28
785.535	749.56
785.716	706.55
785.897	649.21
786.079	743.41
786.26	747.51
786.441	761.84
786.623	718.84
786.804	702.45
786.985	663.54
787.167	720.89
787.348	694.26
787.529	722.93
787.71	761.84
787.891	690.17
788.073	624.63
788.254	700.41
788.435	694.26
788.616	686.07
788.797	575.48
788.978	651.25
789.159	600.05
789.34	718.84
789.522	600.05
789.703	663.54
789.884	557.05
790.065	641.01
790.246	634.87
790.427	614.39
790.607	645.11
790.788	622.58
790.969	538.62
791.15	579.58
791.331	542.71
791.512	471.03
791.693	555
791.874	542.71
792.054	651.25
792.235	600.05
792.416	481.27
792.597	532.47
792.778	555
792.958	581.62
793.139	546.81
793.32	579.58
793.5	520.18
793.681	538.62
793.862	436.22
794.042	612.34
794.223	409.59
794.404	477.18
794.584	458.74
794.765	450.55
794.945	501.75
795.126	509.94
795.306	491.51
795.487	505.85
795.667	557.05
795.848	528.38
796.028	509.94
796.209	518.14
796.389	479.22
796.57	434.17
796.75	415.74
796.93	391.16
797.111	362.49
797.291	489.46
797.471	432.12
797.652	413.69
797.832	342.01
798.012	489.46
798.192	446.46
798.373	362.49
798.553	434.17
798.733	526.33
798.913	362.49
799.093	409.59
799.274	405.5
799.454	421.88
799.634	452.6
799.814	403.45
799.994	487.42
800.174	458.74
800.354	399.35
800.534	319.48
800.714	382.97
800.894	364.54
801.074	378.87
801.254	438.27
801.434	471.03
801.614	329.72
801.794	395.26
801.974	1327.08
802.154	280.57
802.334	350.2
802.514	331.77
802.693	294.91
802.873	374.78
803.053	376.83
803.233	374.78
803.413	303.1
803.592	292.86
803.772	342.01
803.952	301.05
804.131	292.86
804.311	432.12
804.491	327.68
804.67	274.43
804.85	266.24
805.03	305.15
805.209	360.44
805.389	333.82
805.568	303.1
805.748	256
805.928	348.15
806.107	401.4
806.287	256
806.466	360.44
806.646	290.81
806.825	286.72
807.004	333.82
807.184	262.14
807.363	284.67
807.543	292.86
807.722	270.33
807.901	317.44
808.081	294.91
808.26	196.61
808.439	235.52
808.619	309.24
808.798	280.57
808.977	342.01
809.156	366.59
809.336	317.44
809.515	301.05
809.694	221.18
809.873	268.28
810.052	262.14
810.231	323.58
810.411	317.44
810.59	290.81
810.769	239.61
810.948	362.49
811.127	227.32
811.306	217.08
811.485	235.52
811.664	276.48
811.843	233.47
812.022	329.72
812.201	223.23
812.38	264.19
812.559	260.09
812.737	253.95
812.916	212.99
813.095	241.66
813.274	276.48
813.453	215.04
813.632	235.52
813.811	202.75
813.989	94.21
814.168	284.67
814.347	258.04
814.526	159.74
814.704	251.9
814.883	223.23
815.062	184.32
815.24	307.2
815.419	243.71
815.598	180.22
815.776	235.52
815.955	237.56
816.133	178.17
816.312	247.8
816.49	219.13
816.669	178.17
816.847	190.46
817.026	215.04
817.204	108.54
817.383	212.99
817.561	182.27
817.74	303.1
817.918	110.59
818.097	208.89
818.275	194.56
818.453	225.28
818.632	221.18
818.81	239.61
818.988	135.17
819.167	98.3
819.345	145.41
819.523	227.32
819.701	159.74
819.879	163.84
820.058	184.32
820.236	210.94
820.414	194.56
820.592	227.32
820.77	210.94
820.948	174.08
821.127	114.69
821.305	159.74
821.483	122.88
821.661	186.37
821.839	196.61
822.017	143.36
822.195	120.83
822.373	204.8
822.551	190.46
822.729	229.37
822.907	79.87
823.085	90.11
823.262	204.8
823.44	83.97
823.618	141.31
823.796	174.08
823.974	145.41
824.152	198.65
824.329	112.64
824.507	165.89
824.685	239.61
824.863	116.73
825.04	118.78
825.218	155.65
825.396	210.94
825.574	114.69
825.751	106.49
825.929	159.74
826.107	32.77
826.284	206.84
826.462	110.59
826.639	83.97
826.817	112.64
826.994	55.3
827.172	86.01
827.349	198.65
827.527	102.4
827.704	129.02
827.882	178.17
828.059	-18.43
828.237	137.21
828.414	163.84
828.591	90.11
828.769	235.52
828.946	69.63
829.124	92.16
829.301	202.75
829.478	112.64
829.655	137.21
829.833	145.41
830.01	30.72
830.187	139.26
830.364	104.45
830.542	139.26
830.719	178.17
830.896	194.56
831.073	186.37
831.25	157.69
831.427	184.32
831.604	49.15
831.782	83.97
831.959	98.3
832.136	79.87
832.313	96.25
832.49	71.68
832.667	172.03
832.844	100.35
833.021	153.6
833.198	59.39
833.374	129.02
833.551	94.21
833.728	98.3
833.905	43.01
834.082	14.34
834.259	147.45
834.436	129.02
834.612	122.88
834.789	180.22
834.966	110.59
835.143	86.01
835.319	6.14
835.496	112.64
835.673	104.45
835.85	94.21
836.026	133.12
836.203	139.26
836.38	135.17
836.556	-10.24
836.733	118.78
836.909	155.65
837.086	28.67
837.262	8.19
837.439	40.96
837.616	106.49
837.792	129.02
837.968	126.97
838.145	24.58
838.321	16.38
838.498	18.43
838.674	63.49
838.851	83.97
839.027	106.49
839.203	63.49
839.38	112.64
839.556	38.91
839.732	106.49
839.909	96.25
840.085	165.89
840.261	34.82
840.437	18.43
840.614	28.67
840.79	79.87
840.966	102.4
841.142	75.77
841.318	51.2
841.494	83.97
841.671	65.54
841.847	124.93
842.023	22.53
842.199	94.21
842.375	159.74
842.551	-8.19
842.727	73.73
842.903	143.36
843.079	-4.1
843.255	112.64
843.431	90.11
843.607	81.92
843.783	-12.29
843.959	104.45
844.134	40.96
844.31	153.6
844.486	75.77
844.662	77.82
844.838	169.98
845.013	106.49
845.189	51.2
845.365	59.39
845.541	32.77
845.716	61.44
845.892	155.65
846.068	-26.62
846.244	16.38
846.419	137.21
846.595	32.77
846.77	32.77
846.946	53.25
847.122	28.67
847.297	-10.24
847.473	110.59
847.648	-8.19
847.824	90.11
847.999	4.1
848.175	55.3
848.35	49.15
848.526	90.11
848.701	6.14
848.876	96.25
849.052	94.21
849.227	90.11
849.403	30.72
849.578	24.58
849.753	102.4
849.929	75.77
850.104	65.54
850.279	-6.14
850.454	34.82
850.63	28.67
850.805	43.01
850.98	86.01
851.155	16.38
851.33	63.49
851.505	57.34
851.681	120.83
851.856	0
852.031	114.69
852.206	100.35
852.381	6.14
852.556	28.67
852.731	53.25
852.906	124.93
853.081	38.91
853.256	34.82
853.431	79.87
853.606	24.58
853.781	-86.01
853.956	-26.62
854.131	55.3
854.305	14.34
854.48	28.67
854.655	43.01
854.83	-18.43
855.005	6.14
855.18	36.86
855.354	77.82
855.529	6.14
855.704	22.53
855.879	75.77
856.053	-22.53
856.228	43.01
856.403	-32.77
856.577	-8.19
856.752	-49.15
856.926	49.15
857.101	55.3
857.276	-24.58
857.45	55.3
857.625	6.14
857.799	14.34
857.974	-8.19
858.148	-16.38
858.323	-49.15
858.497	12.29
858.672	12.29
858.846	12.29
859.02	59.39
859.195	49.15
859.369	30.72
859.543	43.01
859.718	-18.43
859.892	92.16
860.066	22.53
860.241	55.3
860.415	26.62
860.589	-40.96
860.763	-12.29
860.938	51.2
861.112	34.82
861.286	12.29
861.46	-49.15
861.634	-65.53
861.808	96.25
861.982	14.34
862.157	-18.43
862.331	-45.06
862.505	-36.86
862.679	16.38
862.853	-67.58
863.027	-12.29
863.201	79.87
863.375	-16.38
863.549	-2.05
863.722	10.24
863.896	71.68
864.07	-34.82
864.244	-96.25
864.418	71.68
864.592	-14.34
864.766	47.1
864.939	14.34
865.113	24.58
865.287	28.67
865.461	-14.34
865.634	-86.01
865.808	-38.91
865.982	-22.53
866.156	26.62
866.329	10.24
866.503	100.35
866.676	45.06
866.85	-10.24
867.024	-14.34
867.197	20.48
867.371	81.92
867.544	-61.44
867.718	6.14
867.891	49.15
868.065	-49.15
868.238	22.53
868.412	81.92
868.585	73.73
868.759	-32.77
868.932	-49.15
869.105	-45.06
869.279	55.3
869.452	-10.24
869.625	0
869.799	-47.1
869.972	-4.1
870.145	-34.82
870.319	-34.82
870.492	6.14
870.665	-6.14
870.838	16.38
871.011	-49.15
871.185	26.62
871.358	-73.73
871.531	75.77
871.704	-40.96
871.877	-10.24
872.05	0
872.223	12.29
872.396	26.62
872.569	32.77
872.742	-65.53
872.915	88.06
873.088	-100.35
873.261	-38.91
873.434	18.43
873.607	-10.24
873.78	-2.05
873.953	-75.77
874.126	14.34
874.299	8.19
874.471	-10.24
874.644	-26.62
874.817	71.68
874.99	114.69
875.163	-57.34
875.335	30.72
875.508	49.15
875.681	75.77
875.853	22.53
876.026	24.58
876.199	22.53
876.371	-12.29
876.544	-65.53
876.717	-32.77
876.889	-34.82
877.062	-20.48
877.234	-67.58
877.407	-18.43
877.579	-30.72
877.752	61.44
877.924	-26.62
878.097	-18.43
878.269	30.72
878.442	34.82
878.614	-16.38
878.786	12.29
878.959	-4.1
879.131	0
879.303	-53.25
879.476	57.34
879.648	43.01
879.82	-8.19
879.993	55.3
880.165	61.44
880.337	34.82
880.509	28.67
880.681	-14.34
880.854	-75.77
881.026	30.72
881.198	59.39
881.37	-22.53
881.542	45.06
881.714	38.91
881.886	-12.29
882.058	12.29
882.23	16.38
882.402	-81.92
882.574	30.72
882.746	-4.1
882.918	26.62
883.09	28.67
883.262	-32.77
883.434	-32.77
883.606	-77.82
883.778	40.96
883.95	32.77
884.122	-2.05
884.293	26.62
884.465	4.1
884.637	18.43
884.809	6.14
884.98	6.14
885.152	10.24
885.324	6.14
885.496	-8.19
885.667	-26.62
885.839	28.67
886.011	22.53
886.182	-18.43
886.354	49.15
886.525	-10.24
886.697	36.86
886.869	-51.2
887.04	-16.38
887.212	-26.62
887.383	75.77
887.555	-26.62
887.726	-8.19
887.897	-49.15
888.069	22.53
888.24	22.53
888.412	30.72
888.583	71.68
888.754	43.01
888.926	-83.97
889.097	-30.72
889.268	-75.77
889.44	45.06
889.611	-40.96
889.782	-49.15
889.953	-34.82
890.125	32.77
890.296	-63.49
890.467	-32.77
890.638	-4.1
890.809	-26.62
890.98	-8.19
891.151	-38.91
891.323	-16.38
891.494	-2.05
891.665	-12.29
891.836	-65.53
892.007	55.3
892.178	12.29
892.349	-18.43
892.52	-53.25
892.691	-28.67
892.862	-22.53
893.032	-108.54
893.203	-59.39
893.374	-32.77
893.545	55.3
893.716	-59.39
893.887	26.62
894.057	10.24
894.228	12.29
894.399	-26.62
894.57	38.91
894.74	-24.58
894.911	63.49
895.082	6.14
895.253	-71.68
895.423	8.19
895.594	-4.1
895.764	-40.96
895.935	-36.86
896.106	-18.43
896.276	-88.06
896.447	14.34
896.617	16.38
896.788	-8.19
896.958	12.29
897.129	-77.82
897.299	16.38
897.47	28.67
897.64	57.34
897.81	-24.58
897.981	-14.34
898.151	-73.73
898.322	8.19
898.492	-26.62
898.662	-32.77
898.832	-36.86
899.003	-86.01
899.173	20.48
899.343	-104.45
899.513	-67.58
