Data from USB4F104151__74__13-06-02-440.txt Node

Date: Fri Mar 14 13:06:02 EDT 2025
User: louis
Spectrometer: USB4F10415
Trigger mode: 4
Integration Time (sec): 4.000000E-2
Scans to average: 1
Electric dark correction enabled: true
Nonlinearity correction enabled: false
Boxcar width: 0
XAxis mode: Wavelengths
Number of Pixels in Spectrum: 3648
>>>>>Begin Spectral Data<<<<<
178.204	-111.1
178.424	-111.1
178.644	-111.1
178.864	-150.01
179.084	-160.25
179.304	-23.04
179.524	-39.42
179.744	5.63
179.964	-4.61
180.184	7.68
180.404	26.11
180.624	50.69
180.844	-41.47
181.064	-31.23
181.283	108.03
181.503	-84.48
181.723	26.11
181.943	-70.14
182.163	132.61
182.383	-72.19
182.602	124.41
182.822	50.69
183.042	77.31
183.262	67.07
183.482	50.69
183.701	11.78
183.921	28.16
184.141	-27.14
184.361	62.98
184.58	89.6
184.8	81.41
185.02	28.16
185.239	19.97
185.459	105.98
185.679	77.31
185.898	-6.66
186.118	3.58
186.338	77.31
186.557	85.5
186.777	-14.85
186.997	26.11
187.216	-41.47
187.436	108.03
187.655	73.21
187.875	48.64
188.095	67.07
188.314	116.22
188.534	87.55
188.753	85.5
188.973	124.41
189.192	67.07
189.412	112.13
189.631	56.83
189.851	24.06
190.07	118.27
190.29	22.02
190.509	-2.56
190.729	15.87
190.948	34.3
191.168	224.76
191.387	67.07
191.607	11.78
191.826	42.5
192.045	69.12
192.265	62.98
192.484	40.45
192.704	32.26
192.923	60.93
193.142	208.38
193.362	110.08
193.581	132.61
193.8	24.06
194.02	83.45
194.239	81.41
194.458	52.74
194.678	-4.61
194.897	75.26
195.116	62.98
195.335	46.59
195.555	13.82
195.774	38.4
195.993	77.31
196.212	46.59
196.432	120.32
196.651	46.59
196.87	26.11
197.089	132.61
197.308	30.21
197.528	126.46
197.747	26.11
197.966	140.8
198.185	65.02
198.404	-31.23
198.623	46.59
198.842	52.74
199.062	101.89
199.281	157.18
199.5	89.6
199.719	24.06
199.938	56.83
200.157	81.41
200.376	52.74
200.595	89.6
200.814	153.09
201.033	75.26
201.252	110.08
201.471	56.83
201.69	128.51
201.909	85.5
202.128	15.87
202.347	67.07
202.566	-4.61
202.785	73.21
203.004	-6.66
203.223	181.76
203.442	112.13
203.661	101.89
203.879	65.02
204.098	132.61
204.317	11.78
204.536	44.54
204.755	99.84
204.974	79.36
205.193	62.98
205.411	163.33
205.63	36.35
205.849	38.4
206.068	36.35
206.287	11.78
206.505	122.37
206.724	26.11
206.943	24.06
207.162	42.5
207.381	91.65
207.599	32.26
207.818	40.45
208.037	91.65
208.255	54.78
208.474	11.78
208.693	44.54
208.911	65.02
209.13	112.13
209.349	99.84
209.567	87.55
209.786	132.61
210.005	99.84
210.223	15.87
210.442	-109.05
210.661	58.88
210.879	50.69
211.098	36.35
211.316	36.35
211.535	85.5
211.753	-29.18
211.972	36.35
212.191	118.27
212.409	48.64
212.628	62.98
212.846	48.64
213.065	108.03
213.283	99.84
213.502	9.73
213.72	83.45
213.938	83.45
214.157	19.97
214.375	60.93
214.594	56.83
214.812	46.59
215.031	67.07
215.249	108.03
215.467	46.59
215.686	71.17
215.904	128.51
216.122	36.35
216.341	122.37
216.559	54.78
216.778	83.45
216.996	77.31
217.214	-20.99
217.432	105.98
217.651	34.3
217.869	28.16
218.087	105.98
218.306	62.98
218.524	105.98
218.742	-61.95
218.96	9.73
219.179	36.35
219.397	77.31
219.615	134.65
219.833	118.27
220.051	1.54
220.27	99.84
220.488	67.07
220.706	44.54
220.924	19.97
221.142	62.98
221.36	50.69
221.578	67.07
221.796	-6.66
222.015	42.5
222.233	60.93
222.451	73.21
222.669	52.74
222.887	122.37
223.105	17.92
223.323	122.37
223.541	73.21
223.759	95.74
223.977	67.07
224.195	114.17
224.413	81.41
224.631	50.69
224.849	85.5
225.067	112.13
225.285	67.07
225.503	17.92
225.721	-49.66
225.939	99.84
226.157	42.5
226.375	142.85
226.592	91.65
226.81	34.3
227.028	136.7
227.246	50.69
227.464	42.5
227.682	79.36
227.9	60.93
228.117	99.84
228.335	136.7
228.553	50.69
228.771	62.98
228.989	62.98
229.206	81.41
229.424	-4.61
229.642	67.07
229.86	52.74
230.077	132.61
230.295	-27.14
230.513	69.12
230.731	60.93
230.948	163.33
231.166	122.37
231.384	79.36
231.601	-37.38
231.819	105.98
232.037	103.93
232.254	42.5
232.472	56.83
232.689	97.79
232.907	132.61
233.125	15.87
233.342	17.92
233.56	-39.42
233.777	79.36
233.995	103.93
234.213	183.81
234.43	58.88
234.648	67.07
234.865	62.98
235.083	101.89
235.3	65.02
235.518	42.5
235.735	210.43
235.953	114.17
236.17	38.4
236.388	34.3
236.605	48.64
236.822	75.26
237.04	54.78
237.257	126.46
237.475	50.69
237.692	-14.85
237.909	42.5
238.127	38.4
238.344	58.88
238.562	42.5
238.779	67.07
238.996	17.92
239.214	5.63
239.431	148.99
239.648	77.31
239.865	112.13
240.083	69.12
240.3	26.11
240.517	17.92
240.735	73.21
240.952	161.28
241.169	140.8
241.386	-12.8
241.603	67.07
241.821	15.87
242.038	112.13
242.255	67.07
242.472	-6.66
242.689	79.36
242.907	91.65
243.124	60.93
243.341	40.45
243.558	9.73
243.775	-20.99
243.992	24.06
244.209	81.41
244.426	85.5
244.643	56.83
244.86	5.63
245.078	44.54
245.295	142.85
245.512	75.26
245.729	105.98
245.946	56.83
246.163	62.98
246.38	93.69
246.597	97.79
246.814	38.4
247.031	132.61
247.248	38.4
247.464	15.87
247.681	65.02
247.898	73.21
248.115	181.76
248.332	71.17
248.549	118.27
248.766	65.02
248.983	167.42
249.2	5.63
249.417	124.41
249.633	73.21
249.85	126.46
250.067	52.74
250.284	-6.66
250.501	157.18
250.717	87.55
250.934	11.78
251.151	50.69
251.368	30.21
251.585	1.54
251.801	-2.56
252.018	17.92
252.235	30.21
252.451	54.78
252.668	34.3
252.885	67.07
253.102	11.78
253.318	42.5
253.535	-0.51
253.752	54.78
253.968	97.79
254.185	26.11
254.401	7.68
254.618	142.85
254.835	142.85
255.051	142.85
255.268	-49.66
255.484	118.27
255.701	83.45
255.917	75.26
256.134	26.11
256.351	13.82
256.567	22.02
256.784	19.97
257	22.02
257.217	34.3
257.433	77.31
257.65	60.93
257.866	89.6
258.082	40.45
258.299	126.46
258.515	52.74
258.732	24.06
258.948	-6.66
259.165	67.07
259.381	22.02
259.597	124.41
259.814	22.02
260.03	114.17
260.246	91.65
260.463	99.84
260.679	101.89
260.895	81.41
261.112	26.11
261.328	153.09
261.544	11.78
261.761	144.89
261.977	87.55
262.193	-23.04
262.409	108.03
262.626	22.02
262.842	-6.66
263.058	32.26
263.274	148.99
263.49	62.98
263.707	132.61
263.923	81.41
264.139	9.73
264.355	-55.81
264.571	103.93
264.787	114.17
265.004	26.11
265.22	50.69
265.436	40.45
265.652	36.35
265.868	24.06
266.084	116.22
266.3	38.4
266.516	-18.94
266.732	67.07
266.948	130.56
267.164	44.54
267.38	118.27
267.596	83.45
267.812	62.98
268.028	42.5
268.244	15.87
268.46	5.63
268.676	69.12
268.892	101.89
269.108	3.58
269.324	38.4
269.54	32.26
269.756	126.46
269.972	24.06
270.188	48.64
270.403	17.92
270.619	42.5
270.835	85.5
271.051	42.5
271.267	7.68
271.483	69.12
271.698	60.93
271.914	71.17
272.13	118.27
272.346	52.74
272.562	67.07
272.777	153.09
272.993	91.65
273.209	75.26
273.425	11.78
273.64	91.65
273.856	71.17
274.072	28.16
274.287	-8.7
274.503	103.93
274.719	62.98
274.934	75.26
275.15	-6.66
275.366	24.06
275.581	36.35
275.797	93.69
276.012	91.65
276.228	38.4
276.444	-0.51
276.659	67.07
276.875	56.83
277.09	28.16
277.306	60.93
277.521	157.18
277.737	56.83
277.952	189.95
278.168	62.98
278.383	116.22
278.599	85.5
278.814	99.84
279.03	116.22
279.245	155.13
279.461	-37.38
279.676	67.07
279.892	46.59
280.107	60.93
280.322	1.54
280.538	99.84
280.753	50.69
280.969	44.54
281.184	36.35
281.399	99.84
281.615	38.4
281.83	46.59
282.045	24.06
282.26	62.98
282.476	81.41
282.691	122.37
282.906	146.94
283.122	36.35
283.337	11.78
283.552	81.41
283.767	69.12
283.983	71.17
284.198	30.21
284.413	83.45
284.628	13.82
284.843	30.21
285.058	112.13
285.274	62.98
285.489	67.07
285.704	83.45
285.919	-6.66
286.134	26.11
286.349	62.98
286.564	91.65
286.779	148.99
286.995	118.27
287.21	-18.94
287.425	60.93
287.64	54.78
287.855	75.26
288.07	67.07
288.285	132.61
288.5	81.41
288.715	83.45
288.93	87.55
289.145	101.89
289.36	50.69
289.575	28.16
289.79	77.31
290.004	77.31
290.219	134.65
290.434	62.98
290.649	56.83
290.864	50.69
291.079	44.54
291.294	46.59
291.509	-0.51
291.724	136.7
291.938	-14.85
292.153	146.94
292.368	136.7
292.583	34.3
292.798	77.31
293.012	167.42
293.227	58.88
293.442	36.35
293.657	46.59
293.871	85.5
294.086	128.51
294.301	112.13
294.516	101.89
294.73	112.13
294.945	138.75
295.16	91.65
295.374	65.02
295.589	58.88
295.804	79.36
296.018	101.89
296.233	103.93
296.447	60.93
296.662	-20.99
296.877	87.55
297.091	52.74
297.306	71.17
297.52	58.88
297.735	24.06
297.949	15.87
298.164	93.69
298.378	38.4
298.593	-14.85
298.807	87.55
299.022	77.31
299.236	175.61
299.451	52.74
299.665	54.78
299.88	34.3
300.094	50.69
300.309	26.11
300.523	128.51
300.737	19.97
300.952	69.12
301.166	83.45
301.381	71.17
301.595	7.68
301.809	52.74
302.024	67.07
302.238	-6.66
302.452	128.51
302.667	97.79
302.881	103.93
303.095	89.6
303.309	48.64
303.524	-2.56
303.738	87.55
303.952	52.74
304.166	42.5
304.381	-37.38
304.595	110.08
304.809	97.79
305.023	105.98
305.237	26.11
305.452	124.41
305.666	58.88
305.88	58.88
306.094	83.45
306.308	93.69
306.522	103.93
306.736	101.89
306.95	67.07
307.164	46.59
307.379	114.17
307.593	83.45
307.807	65.02
308.021	-14.85
308.235	71.17
308.449	26.11
308.663	75.26
308.877	140.8
309.091	65.02
309.305	97.79
309.519	58.88
309.733	79.36
309.947	-14.85
310.161	95.74
310.374	108.03
310.588	124.41
310.802	3.58
311.016	93.69
311.23	56.83
311.444	99.84
311.658	67.07
311.872	167.42
312.085	97.79
312.299	60.93
312.513	79.36
312.727	65.02
312.941	1.54
313.154	71.17
313.368	24.06
313.582	52.74
313.796	65.02
314.009	112.13
314.223	99.84
314.437	93.69
314.651	118.27
314.864	69.12
315.078	108.03
315.292	26.11
315.505	38.4
315.719	52.74
315.933	110.08
316.146	34.3
316.36	36.35
316.573	132.61
316.787	54.78
317.001	60.93
317.214	73.21
317.428	42.5
317.641	13.82
317.855	-14.85
318.068	62.98
318.282	110.08
318.495	116.22
318.709	44.54
318.922	112.13
319.136	134.65
319.349	83.45
319.563	108.03
319.776	87.55
319.99	54.78
320.203	91.65
320.417	34.3
320.63	93.69
320.843	87.55
321.057	95.74
321.27	19.97
321.483	101.89
321.697	91.65
321.91	87.55
322.124	67.07
322.337	138.75
322.55	-18.94
322.763	52.74
322.977	28.16
323.19	9.73
323.403	95.74
323.617	44.54
323.83	42.5
324.043	58.88
324.256	50.69
324.469	77.31
324.683	34.3
324.896	67.07
325.109	101.89
325.322	-2.56
325.535	132.61
325.748	151.04
325.962	-27.14
326.175	112.13
326.388	77.31
326.601	58.88
326.814	42.5
327.027	67.07
327.24	118.27
327.453	60.93
327.666	140.8
327.879	89.6
328.092	101.89
328.305	87.55
328.518	62.98
328.731	52.74
328.944	40.45
329.157	34.3
329.37	85.5
329.583	79.36
329.796	73.21
330.009	28.16
330.222	58.88
330.435	167.42
330.648	116.22
330.861	56.83
331.073	83.45
331.286	112.13
331.499	58.88
331.712	54.78
331.925	93.69
332.138	75.26
332.35	138.75
332.563	34.3
332.776	136.7
332.989	36.35
333.202	58.88
333.414	81.41
333.627	42.5
333.84	-39.42
334.053	83.45
334.265	60.93
334.478	116.22
334.691	22.02
334.903	34.3
335.116	85.5
335.329	116.22
335.541	75.26
335.754	85.5
335.966	26.11
336.179	48.64
336.392	9.73
336.604	79.36
336.817	42.5
337.029	116.22
337.242	85.5
337.454	54.78
337.667	50.69
337.88	114.17
338.092	-14.85
338.305	91.65
338.517	30.21
338.729	155.13
338.942	11.78
339.154	62.98
339.367	1.54
339.579	167.42
339.792	69.12
340.004	62.98
340.217	60.93
340.429	58.88
340.641	22.02
340.854	116.22
341.066	85.5
341.278	97.79
341.491	93.69
341.703	-6.66
341.915	19.97
342.128	97.79
342.34	13.82
342.552	69.12
342.764	38.4
342.977	58.88
343.189	132.61
343.401	75.26
343.613	-8.7
343.826	67.07
344.038	24.06
344.25	79.36
344.462	50.69
344.674	79.36
344.886	42.5
345.099	132.61
345.311	144.89
345.523	52.74
345.735	1.54
345.947	128.51
346.159	124.41
346.371	50.69
346.583	60.93
346.795	103.93
347.007	-2.56
347.219	34.3
347.431	93.69
347.643	99.84
347.855	65.02
348.067	126.46
348.279	-29.18
348.491	110.08
348.703	116.22
348.915	83.45
349.127	36.35
349.339	167.42
349.551	87.55
349.763	58.88
349.975	56.83
350.187	97.79
350.399	83.45
350.61	89.6
350.822	38.4
351.034	105.98
351.246	34.3
351.458	32.26
351.669	85.5
351.881	46.59
352.093	130.56
352.305	124.41
352.517	120.32
352.728	177.66
352.94	93.69
353.152	83.45
353.363	28.16
353.575	67.07
353.787	140.8
353.999	108.03
354.21	120.32
354.422	17.92
354.633	87.55
354.845	77.31
355.057	60.93
355.268	126.46
355.48	56.83
355.692	28.16
355.903	58.88
356.115	40.45
356.326	-6.66
356.538	116.22
356.749	69.12
356.961	89.6
357.172	120.32
357.384	11.78
357.595	132.61
357.807	-27.14
358.018	44.54
358.23	93.69
358.441	142.85
358.653	173.57
358.864	60.93
359.075	91.65
359.287	108.03
359.498	73.21
359.709	99.84
359.921	22.02
360.132	67.07
360.344	101.89
360.555	99.84
360.766	134.65
360.977	99.84
361.189	112.13
361.4	46.59
361.611	114.17
361.823	122.37
362.034	99.84
362.245	-2.56
362.456	87.55
362.667	95.74
362.879	138.75
363.09	126.46
363.301	101.89
363.512	54.78
363.723	157.18
363.935	28.16
364.146	36.35
364.357	85.5
364.568	56.83
364.779	30.21
364.99	99.84
365.201	85.5
365.412	173.57
365.623	-47.62
365.834	38.4
366.045	56.83
366.256	93.69
366.467	95.74
366.678	62.98
366.889	91.65
367.1	5.63
367.311	110.08
367.522	67.07
367.733	110.08
367.944	99.84
368.155	58.88
368.366	95.74
368.577	83.45
368.788	97.79
368.999	24.06
369.209	151.04
369.42	148.99
369.631	151.04
369.842	108.03
370.053	103.93
370.264	189.95
370.474	50.69
370.685	54.78
370.896	62.98
371.107	151.04
371.317	157.18
371.528	87.55
371.739	83.45
371.95	101.89
372.16	144.89
372.371	38.4
372.582	26.11
372.792	99.84
373.003	91.65
373.214	34.3
373.424	85.5
373.635	167.42
373.846	175.61
374.056	108.03
374.267	40.45
374.477	130.56
374.688	67.07
374.898	130.56
375.109	99.84
375.319	87.55
375.53	175.61
375.74	103.93
375.951	93.69
376.161	71.17
376.372	75.26
376.582	112.13
376.793	28.16
377.003	54.78
377.214	67.07
377.424	73.21
377.635	89.6
377.845	71.17
378.055	163.33
378.266	54.78
378.476	42.5
378.686	26.11
378.897	134.65
379.107	181.76
379.317	108.03
379.528	91.65
379.738	108.03
379.948	62.98
380.158	116.22
380.369	62.98
380.579	134.65
380.789	171.52
380.999	138.75
381.21	91.65
381.42	136.7
381.63	73.21
381.84	108.03
382.05	122.37
382.261	50.69
382.471	136.7
382.681	-8.7
382.891	101.89
383.101	134.65
383.311	19.97
383.521	69.12
383.731	108.03
383.941	173.57
384.151	175.61
384.361	120.32
384.571	105.98
384.781	120.32
384.991	116.22
385.201	171.52
385.411	136.7
385.621	93.69
385.831	103.93
386.041	101.89
386.251	65.02
386.461	142.85
386.671	62.98
386.881	118.27
387.091	128.51
387.301	159.23
387.511	58.88
387.72	161.28
387.93	122.37
388.14	26.11
388.35	34.3
388.56	95.74
388.769	126.46
388.979	140.8
389.189	38.4
389.399	54.78
389.609	146.94
389.818	159.23
390.028	120.32
390.238	99.84
390.447	136.7
390.657	105.98
390.867	108.03
391.076	56.83
391.286	28.16
391.496	34.3
391.705	124.41
391.915	124.41
392.125	105.98
392.334	110.08
392.544	163.33
392.753	91.65
392.963	83.45
393.172	177.66
393.382	83.45
393.591	243.2
393.801	62.98
394.01	165.37
394.22	148.99
394.429	183.81
394.639	110.08
394.848	142.85
395.058	124.41
395.267	75.26
395.477	83.45
395.686	75.26
395.895	210.43
396.105	200.19
396.314	165.37
396.524	108.03
396.733	167.42
396.942	81.41
397.152	173.57
397.361	138.75
397.57	202.24
397.78	105.98
397.989	189.95
398.198	175.61
398.407	89.6
398.617	134.65
398.826	146.94
399.035	187.9
399.244	181.76
399.453	142.85
399.663	132.61
399.872	171.52
400.081	140.8
400.29	265.72
400.499	128.51
400.708	116.22
400.917	85.5
401.127	198.14
401.336	194.05
401.545	216.57
401.754	177.66
401.963	165.37
402.172	181.76
402.381	202.24
402.59	75.26
402.799	198.14
403.008	273.92
403.217	239.1
403.426	239.1
403.635	124.41
403.844	202.24
404.053	206.33
404.262	208.38
404.471	216.57
404.68	122.37
404.888	239.1
405.097	249.34
405.306	169.47
405.515	232.96
405.724	169.47
405.933	214.52
406.142	173.57
406.35	275.96
406.559	241.15
406.768	282.11
406.977	341.5
407.185	267.77
407.394	282.11
407.603	245.24
407.812	288.25
408.02	239.1
408.229	286.2
408.438	335.35
408.646	302.59
408.855	325.12
409.064	321.02
409.272	343.55
409.481	368.12
409.69	331.26
409.898	413.18
410.107	404.99
410.315	394.75
410.524	443.9
410.733	437.75
410.941	476.66
411.15	564.73
411.358	556.54
411.567	577.02
411.775	503.29
411.984	593.4
412.192	636.41
412.401	601.59
412.609	644.6
412.818	617.97
413.026	710.13
413.234	650.74
413.443	644.6
413.651	658.93
413.86	779.76
414.068	765.43
414.276	847.35
414.485	839.16
414.693	904.69
414.901	894.45
415.11	898.55
415.318	986.61
415.526	931.31
415.734	982.51
415.943	986.61
416.151	1056.24
416.359	1168.88
416.567	1066.48
416.776	1181.17
416.984	1226.22
417.192	1265.13
417.4	1289.71
417.608	1218.03
417.817	1326.57
418.025	1443.31
418.233	1445.35
418.441	1512.94
418.649	1492.46
418.857	1682.92
419.065	1658.34
419.273	1725.93
419.481	1766.89
419.689	1897.96
419.897	2010.59
420.105	2096.61
420.313	2031.07
420.521	2076.13
420.729	2123.23
420.937	2305.5
421.145	2264.54
421.353	2383.32
421.561	2385.37
421.769	2596.31
421.977	2641.37
422.185	2575.83
422.393	2848.21
422.601	2923.99
422.809	2880.98
423.017	3059.15
423.224	3040.72
423.432	3249.61
423.64	3358.16
423.848	3382.73
424.056	3227.09
424.263	3669.45
424.471	3624.39
424.679	3739.08
424.887	3978.69
425.094	4079.04
425.302	4064.71
425.51	4222.4
425.718	4242.88
425.925	4429.24
426.133	4607.42
426.341	4832.69
426.548	4941.24
426.756	5213.62
426.964	5035.44
427.171	5547.44
427.379	5488.04
427.586	5772.71
427.794	5727.66
428.001	6010.28
428.209	6522.27
428.417	6215.07
428.624	6729.11
428.832	6700.44
429.039	6636.95
429.247	6759.83
429.454	7435.66
429.662	7738.76
429.869	7310.74
430.076	7753.1
430.284	7785.87
430.491	8041.86
430.699	8230.27
430.906	8340.86
431.114	8459.65
431.321	8959.35
431.528	8920.44
431.736	9604.46
431.943	10071.4
432.15	9672.04
432.358	9821.55
432.565	10474.85
432.772	10343.78
432.979	10747.23
433.187	11054.42
433.394	11101.53
433.601	11781.45
433.808	11963.72
434.016	11701.58
434.223	12336.45
434.43	13167.93
434.637	12715.33
434.844	13554.99
435.052	13653.3
435.259	13569.33
435.466	13786.41
435.673	13700.4
435.88	14372.13
436.087	15314.2
436.294	15252.76
436.501	15043.87
436.708	15496.47
436.915	15947.02
437.122	16684.29
437.329	16459.01
437.537	16964.86
437.743	17302.78
437.95	17233.15
438.157	18021.61
438.364	18689.25
438.571	18783.46
438.778	18611.43
438.985	20561.09
439.192	19737.81
439.399	20495.56
439.606	20020.43
439.813	21175.48
440.02	22219.95
440.227	22146.22
440.433	21941.43
440.64	22260.91
440.847	22453.42
441.054	22715.56
441.261	24446.09
441.467	24091.79
441.674	24583.3
441.881	25472.12
442.088	25269.37
442.294	25234.56
442.501	26041.46
442.708	26414.19
442.914	27284.58
443.121	28744.78
443.328	27782.23
443.534	29680.7
443.741	28781.64
443.948	28613.71
444.154	30708.78
444.361	30538.8
444.568	30749.74
444.774	30557.23
444.981	30942.25
445.187	31722.52
445.394	33344.52
445.6	33115.14
445.807	35986.39
446.013	34339.83
446.22	34954.22
446.426	36348.89
446.633	37059.53
446.839	37880.77
447.046	36584.4
447.252	38484.92
447.459	38362.04
447.665	38292.41
447.871	40102.81
448.078	41776
448.284	39873.44
448.491	41003.92
448.697	42619.77
448.903	43576.17
449.11	43385.71
449.316	42785.65
449.522	43760.48
449.728	44620.63
449.935	45200.21
450.141	45093.71
450.347	46007.11
450.553	44331.87
450.76	45044.56
450.966	46801.72
451.172	46492.47
451.378	47657.77
451.584	46297.92
451.791	47776.55
451.997	47614.76
452.203	48132.9
452.409	47915.81
452.615	48259.87
452.821	46185.28
453.027	45980.48
453.233	48597.79
453.44	46742.33
453.646	47215.41
453.852	47141.68
454.058	48042.79
454.264	46586.68
454.47	47629.1
454.676	46674.74
454.882	48147.23
455.088	44297.05
455.294	44589.91
455.5	44976.98
455.705	46068.55
455.911	44133.21
456.117	43027.31
456.323	42587
456.529	40334.23
456.735	42316.67
456.941	41431.94
457.147	40512.41
457.352	39277.48
457.558	39234.47
457.764	38837.17
457.97	38052.8
458.176	37241.8
458.381	37424.07
458.587	35589.09
458.793	35677.15
458.999	34089.98
459.204	36041.69
459.41	35210.21
459.616	33082.38
459.821	33197.06
460.027	32607.25
460.233	32463.89
460.438	30573.61
460.644	31153.19
460.85	29439.04
461.055	29011.01
461.261	28902.47
461.466	26614.89
461.672	26264.69
461.878	28052.56
462.083	26066.03
462.289	25482.36
462.494	25339.01
462.7	24325.26
462.905	23700.63
463.111	24388.75
463.316	24462.47
463.522	23854.23
463.727	24198.29
463.932	23633.05
464.138	23891.09
464.343	23860.37
464.549	23016.61
464.754	23690.39
464.959	23696.53
465.165	23119.01
465.37	22332.59
465.575	21781.68
465.781	22555.82
465.986	22656.17
466.191	21730.48
466.397	21728.44
466.602	20339.91
466.807	21505.21
467.012	21249.21
467.218	21304.51
467.423	20665.54
467.628	21083.33
467.833	21896.37
468.038	21181.63
468.244	20767.94
468.449	21136.57
468.654	20665.54
468.859	20473.03
469.064	20612.29
469.269	19588.31
469.474	19799.25
469.679	19991.76
469.885	19508.44
470.09	19653.84
470.295	19895.5
470.5	19397.85
470.705	19696.85
470.91	19203.29
471.115	18859.23
471.32	19121.37
471.525	19029.21
471.73	18212.07
471.935	18564.32
472.139	17620.21
472.344	17976.56
472.549	17968.37
472.754	17718.51
472.959	17319.16
473.164	16930.05
473.369	16794.88
473.574	17433.85
473.778	17159.42
473.983	16903.42
474.188	17081.6
474.393	16196.87
474.598	16315.66
474.802	16200.97
475.007	16272.65
475.212	16043.28
475.417	15095.07
475.621	15453.46
475.826	15574.29
476.031	15150.36
476.235	15047.96
476.44	14955.8
476.645	14652.7
476.849	14968.09
477.054	14505.25
477.259	14509.35
477.463	14638.37
477.668	14124.33
477.872	14365.99
478.077	13983.02
478.282	13909.29
478.486	13509.94
478.691	13444.4
478.895	13526.32
479.1	13192.5
479.304	13423.92
479.509	13092.15
479.713	13176.12
479.918	12799.29
480.122	12739.9
480.326	12827.96
480.531	12899.64
480.735	12991.8
480.94	12444.99
481.144	12995.9
481.348	12502.34
481.553	12465.47
481.757	12256.58
481.961	12541.25
482.166	12655.93
482.37	12629.31
482.574	12416.32
482.778	12377.41
482.983	12666.17
483.187	12391.75
483.391	12363.08
483.595	12141.89
483.8	12322.12
484.004	12281.16
484.208	12475.71
484.412	12258.63
484.616	12344.64
484.821	12223.81
485.025	12045.64
485.229	12311.88
485.433	12150.09
485.637	12232.01
485.841	12303.68
486.045	12250.44
486.249	12313.92
486.453	12219.72
486.657	12275.01
486.861	12270.92
487.065	12115.27
487.269	12275.01
487.473	12008.78
487.677	12199.24
487.881	12514.63
488.085	12373.32
488.289	12444.99
488.493	12123.46
488.697	12348.74
488.901	12502.34
489.105	12340.55
489.309	12500.29
489.512	12459.33
489.716	12666.17
489.92	12373.32
490.124	12264.77
490.328	12592.45
490.531	12485.95
490.735	12578.11
490.939	12444.99
491.143	12457.28
491.346	12674.37
491.55	12893.5
491.754	12823.87
491.958	12754.24
492.161	12875.07
492.365	12772.67
492.569	13137.21
492.772	13026.62
492.976	13063.48
493.18	13202.74
493.383	13069.62
493.587	13223.22
493.79	13575.47
493.994	13202.74
494.197	13450.55
494.401	13735.21
494.605	13692.21
494.808	13903.15
495.012	13929.77
495.215	13880.62
495.419	13958.44
495.622	14034.22
495.825	14114.09
496.029	14191.91
496.232	14583.07
496.436	14464.29
496.639	14812.45
496.843	14796.06
497.046	15068.44
497.249	15441.17
497.453	15158.55
497.656	15289.62
497.859	15418.64
498.063	15351.06
498.266	15815.95
498.469	15772.94
498.673	15987.98
498.876	16391.43
499.079	16358.66
499.282	16289.03
499.485	16846.08
499.689	16704.77
499.892	17155.32
500.095	17016.06
500.298	17466.61
500.501	17546.48
500.705	17870.06
500.908	18285.8
501.111	18121.96
501.314	18457.83
501.517	18709.73
501.72	18769.12
501.923	18697.44
502.126	19152.09
502.329	19576.02
502.532	19524.82
502.735	19707.09
502.938	20296.91
503.141	20034.77
503.344	20169.93
503.547	20614.34
503.75	20667.59
503.953	20903.11
504.156	21163.2
504.359	21206.2
504.562	21390.52
504.765	21939.38
504.968	22336.68
505.17	22238.38
505.373	22310.06
505.576	22906.02
505.779	23080.1
505.982	22996.13
506.185	23544.98
506.387	23389.34
506.59	23876.76
506.793	24349.84
506.996	24341.64
507.198	24784.01
507.401	25195.65
507.604	25433.21
507.807	25457.79
508.009	25701.5
508.212	25916.53
508.415	26047.6
508.617	26328.17
508.82	26391.66
509.022	26571.88
509.225	27116.64
509.428	27690.07
509.63	27583.58
509.833	27575.39
510.035	28474.45
510.238	27911.25
510.44	28441.68
510.643	28810.31
510.845	29037.64
511.048	29371.46
511.25	29838.39
511.453	29588.54
511.655	31153.19
511.858	30159.92
512.06	30876.71
512.262	30995.5
512.465	30821.42
512.667	31700
512.87	31566.88
513.072	31687.71
513.274	32422.93
513.477	32916.49
513.679	32975.88
513.881	33451.01
514.084	33866.75
514.286	33721.34
514.488	33819.64
514.69	34452.47
514.893	34759.66
515.095	34974.7
515.297	35247.08
515.499	35476.45
515.701	36060.12
515.904	35777.5
516.106	36320.21
516.308	36721.62
516.51	36834.25
516.712	37194.7
516.914	37139.4
517.116	37962.68
517.318	38003.64
517.52	38130.62
517.722	38626.23
517.925	38845.36
518.127	38953.9
518.329	39279.53
518.531	39443.37
518.733	40616.85
518.935	40194.97
519.136	40129.44
519.338	40946.58
519.54	41155.47
519.742	41765.76
519.944	41468.81
520.146	42374.01
520.348	42359.67
520.55	42402.68
520.752	42607.48
520.954	43352.94
521.155	43021.17
521.357	43926.37
521.559	43963.23
521.761	44831.57
521.963	44653.4
522.164	44702.55
522.366	45077.33
522.568	45394.76
522.77	45706.05
522.971	46168.9
523.173	45402.96
523.375	46392.12
523.576	46211.9
523.778	46428.99
523.98	47063.86
524.181	47063.86
524.383	47651.62
524.584	47567.66
524.786	47678.25
524.988	47549.23
525.189	48620.31
525.391	48337.69
525.592	48677.66
525.794	48624.41
525.995	49163.03
526.197	48782.1
526.398	49271.57
526.6	49414.93
526.801	49732.36
527.003	49564.43
527.204	49388.3
527.406	50305.79
527.607	50094.85
527.808	50451.2
528.01	49842.95
528.211	50088.71
528.412	51423.98
528.614	51186.42
528.815	50752.25
529.016	51774.19
529.218	51081.97
529.419	51198.71
529.62	51974.89
529.822	50817.78
530.023	51280.63
530.224	50905.85
530.425	51364.59
530.626	51700.46
530.828	51266.29
531.029	52482.78
531.23	51673.84
531.431	51344.11
531.632	52187.88
531.833	52333.28
532.035	52024.04
532.236	52159.2
532.437	52749.02
532.638	51876.58
532.839	52259.55
533.04	52073.19
533.241	52032.23
533.442	52654.81
533.643	52595.42
533.844	52402.91
534.045	52515.55
534.246	51811.05
534.447	52628.19
534.648	52368.1
534.849	52742.88
535.05	52304.61
535.251	52533.98
535.451	52306.66
535.652	52751.07
535.853	52386.53
536.054	52351.71
536.255	52581.09
536.456	52277.99
536.657	52787.93
536.857	52257.51
537.058	52245.22
537.259	53027.54
537.46	53086.93
537.66	52232.93
537.861	52073.19
538.062	52130.53
538.263	52830.94
538.463	52714.2
538.664	52679.39
538.865	52622.05
539.065	52841.18
539.266	52030.18
539.466	52642.52
539.667	52298.47
539.868	52761.31
540.068	52622.05
540.269	52593.37
540.469	52871.9
540.67	52138.72
540.87	52331.23
541.071	52359.91
541.271	52339.43
541.472	52339.43
541.672	52425.44
541.873	52282.08
542.073	51487.47
542.274	52540.13
542.474	52298.47
542.675	52204.26
542.875	52241.12
543.075	52175.59
543.276	51698.41
543.476	52497.12
543.676	51890.92
543.877	52593.37
544.077	51839.72
544.277	52089.57
544.478	51966.7
544.678	52300.51
544.878	51837.67
545.078	51917.54
545.279	51772.14
545.479	52034.28
545.679	52067.05
545.879	51892.97
546.079	51645.16
546.28	52042.47
546.48	51321.58
546.68	52267.75
546.88	52267.75
547.08	51852.01
547.28	51745.51
547.48	51340.02
547.68	52191.97
547.88	51532.53
548.081	51917.54
548.281	51794.67
548.481	51544.81
548.681	51886.82
548.881	51788.52
549.081	51786.47
549.28	51716.84
549.48	51581.68
549.68	51589.87
549.88	51935.98
550.08	51350.26
550.28	51501.81
550.48	51266.29
550.68	52144.87
550.88	51028.73
551.08	51587.82
551.279	51344.11
551.479	51059.44
551.679	51303.15
551.879	51032.82
552.079	51591.92
552.278	51641.07
552.478	51219.19
552.678	51092.21
552.878	51155.7
553.077	51290.87
553.277	50656
553.477	51460.85
553.676	51030.77
553.876	50926.33
554.076	50871.03
554.275	50924.28
554.475	50526.97
554.674	51186.42
554.874	51069.68
555.074	50885.37
555.273	50805.5
555.473	51225.33
555.672	50631.42
555.872	50860.79
556.071	50561.79
556.271	51143.41
556.47	50447.1
556.67	50348.8
556.869	50559.74
557.068	50508.54
557.268	50322.18
557.467	50191.11
557.667	50072.32
557.866	50584.32
558.065	49951.49
558.265	50203.39
558.464	49978.12
558.663	50395.9
558.863	49595.15
559.062	50631.42
559.261	49656.59
559.461	50481.92
559.66	49711.88
559.859	49756.94
560.058	49705.74
560.258	49814.28
560.457	49103.63
560.656	49365.77
560.855	49439.5
561.054	49867.53
561.253	49085.2
561.453	49132.31
561.652	49371.92
561.851	49584.91
562.05	48802.58
562.249	48728.86
562.448	49357.58
562.647	49079.06
562.846	49242.9
563.045	48636.7
563.244	48401.18
563.443	49062.68
563.642	48206.62
563.841	48622.36
564.04	48200.48
564.239	48513.82
564.438	48044.83
564.637	48640.79
564.836	48016.16
565.035	47590.19
565.234	48126.75
565.432	47909.67
565.631	47672.1
565.83	47919.91
566.029	47594.28
566.228	47385.39
566.427	47463.21
566.625	47586.09
566.824	46539.58
567.023	47309.61
567.222	46670.65
567.42	47674.15
567.619	46863.16
567.818	46609.21
568.016	46842.68
568.215	47067.95
568.414	46420.8
568.612	47145.78
568.811	46367.55
569.01	46449.47
569.208	46392.12
569.407	46689.08
569.605	45763.4
569.804	46396.22
570.002	46089.02
570.201	46082.88
570.4	45257.55
570.598	45642.57
570.797	45308.75
570.995	45898.56
571.193	45101.9
571.392	45759.3
571.59	45251.41
571.789	44856.15
571.987	45054.8
572.186	45019.99
572.384	44542.81
572.582	45437.77
572.781	44895.06
572.979	44340.06
573.177	45050.7
573.376	44811.09
573.574	44413.79
573.772	44966.74
573.971	44297.05
574.169	44100.45
574.367	44135.26
574.565	44315.48
574.763	43641.7
574.962	43744.1
575.16	43090.8
575.358	43717.48
575.556	42879.86
575.754	43287.4
575.952	42879.86
576.151	43418.47
576.349	42799.99
576.547	42890.1
576.745	43191.15
576.943	43221.87
577.141	42611.57
577.339	42533.75
577.537	42359.67
577.735	42847.09
577.933	42212.22
578.131	42369.91
578.329	42161.02
578.527	41876.35
578.725	42324.86
578.923	41984.9
579.121	41780.1
579.319	41612.17
579.516	42179.45
579.714	41784.19
579.912	41745.28
580.11	41044.88
580.308	41659.27
580.506	41198.48
580.704	40936.34
580.901	41016.21
581.099	41575.3
581.297	41044.88
581.495	40610.71
581.692	40848.27
581.89	40641.43
582.088	41079.69
582.285	40428.44
582.483	40469.4
582.681	40334.23
582.878	40354.71
583.076	39623.59
583.274	40201.11
583.471	39386.02
583.669	39711.65
583.866	39080.88
584.064	39971.74
584.262	38974.38
584.459	39254.95
584.657	39019.44
584.854	39723.94
585.052	38521.78
585.249	39134.12
585.447	39175.08
585.644	38607.79
585.841	38968.24
586.039	38718.39
586.236	38491.06
586.434	38378.42
586.631	38362.04
586.828	38087.61
587.026	38323.13
587.223	37821.37
587.42	37616.58
587.618	38144.95
587.815	37485.51
588.012	37381.06
588.21	37505.99
588.407	37893.05
588.604	37276.62
588.801	37108.68
588.999	37086.15
589.196	37231.56
589.393	37012.43
589.59	36811.73
589.787	36649.94
589.984	36928.46
590.182	36129.75
590.379	36795.34
590.576	36000.73
590.773	36469.72
590.97	36250.58
591.167	36309.97
591.364	35961.82
591.561	36070.36
591.758	35601.38
591.955	35263.46
592.152	35800.03
592.349	35081.19
592.546	35529.7
592.743	35249.13
592.94	35120.1
593.137	34933.74
593.334	35163.11
593.531	34741.23
593.727	35122.15
593.924	34417.65
594.121	34673.65
594.318	34663.41
594.515	34075.64
594.712	34524.15
594.908	33842.17
595.105	34194.42
595.302	33803.26
595.499	34319.35
595.696	33776.64
595.892	33401.86
596.089	33899.51
596.286	33752.06
596.482	33469.44
596.679	33301.51
596.876	33506.3
597.072	33266.69
597.269	33448.96
597.466	32898.06
597.662	32764.94
597.859	32820.24
598.055	32762.89
598.252	32740.36
598.448	32414.74
598.645	32748.56
598.841	31927.32
599.038	32373.78
599.234	32429.07
599.431	32105.49
599.627	31829.02
599.824	32293.91
600.02	31556.64
600.217	31986.71
600.413	31822.87
600.609	31675.42
600.806	31159.33
601.002	31527.97
601.198	31456.29
601.395	31018.02
601.591	31013.93
601.787	30970.92
601.984	30889
602.18	30905.38
602.376	30630.96
602.572	30409.78
602.769	30596.14
602.965	30596.14
603.161	30514.22
603.357	30067.77
603.553	30026.81
603.75	30102.58
603.946	29803.58
604.142	30411.82
604.338	29754.43
604.534	29766.71
604.73	29660.22
604.926	29377.6
605.122	29465.66
605.318	28935.24
605.514	29101.12
605.71	28900.42
605.906	29273.15
606.102	29224
606.298	29205.57
606.494	29021.25
606.69	29031.49
606.886	29215.81
607.082	28546.12
607.278	28626
607.474	28404.81
607.67	28638.28
607.866	28253.26
608.062	28374.1
608.257	28343.38
608.453	28453.97
608.649	28288.08
608.845	28216.4
609.041	28445.77
609.236	28290.13
609.432	28337.23
609.628	28073.04
609.824	27935.83
610.019	27530.33
610.215	27561.05
610.411	27765.85
610.606	27606.11
610.802	27802.71
610.998	27567.2
611.193	27444.32
611.389	27079.78
611.584	27356.25
611.78	27516
611.976	27243.62
612.171	27270.24
612.367	27679.83
612.562	27167.84
612.758	26551.4
612.953	27075.68
613.149	27231.33
613.344	26463.34
613.539	26981.48
613.735	26770.54
613.93	26981.48
614.126	26844.26
614.321	26659.95
614.517	26530.92
614.712	26485.87
614.907	26451.05
615.103	26633.32
615.298	26397.81
615.493	26594.41
615.688	26283.12
615.884	26668.14
616.079	25961.59
616.274	26621.03
616.47	25646.2
616.665	26129.52
616.86	25842.81
617.055	25941.11
617.25	25683.06
617.445	26215.54
617.641	25347.2
617.836	25437.31
618.031	25420.92
618.226	25670.78
618.421	25414.78
618.616	25795.7
618.811	25105.54
619.006	25529.47
619.201	24751.24
619.396	25269.37
619.591	24448.14
619.786	25142.4
619.981	24462.47
620.176	25025.67
620.371	24396.94
620.566	24601.74
620.761	24339.6
620.956	24628.36
621.151	23942.29
621.346	24142.99
621.541	24153.23
621.735	24042.64
621.93	23288.99
622.125	23712.92
622.32	23422.11
622.515	23544.98
622.709	23463.07
622.904	23073.95
623.099	22762.66
623.294	22975.65
623.488	22596.78
623.683	22682.79
623.878	22369.45
624.072	22488.23
624.267	22336.68
624.462	22238.38
624.656	21789.88
624.851	22193.33
625.046	22062.26
625.24	21697.72
625.435	21664.95
625.629	21601.46
625.824	21386.43
626.018	21310.65
626.213	21179.58
626.407	21175.48
626.602	20933.82
626.796	20872.39
626.991	20890.82
627.185	21054.65
627.38	20876.48
627.574	20583.62
627.768	20206.8
627.963	20204.75
628.157	20174.03
628.352	20161.74
628.546	19840.21
628.74	19967.18
628.935	19776.72
629.129	19727.57
629.323	19647.7
629.517	19584.21
629.712	19268.83
629.906	19451.1
630.1	19236.06
630.294	19047.65
630.489	18908.38
630.683	19072.22
630.877	18435.3
631.071	18545.89
631.265	18707.68
631.459	18433.25
631.653	18228.46
631.848	18455.78
632.042	17779.95
632.236	18248.94
632.43	17937.65
632.624	18152.68
632.818	18052.33
633.012	17718.51
633.206	17442.04
633.4	17458.42
633.594	17054.97
633.788	17655.03
633.982	17325.3
634.176	17237.24
634.369	17151.23
634.563	16919.81
634.757	16919.81
634.951	16930.05
635.145	16889.09
635.339	16653.57
635.533	16665.86
635.726	16542.98
635.92	16295.18
636.114	16313.61
636.308	16268.55
636.501	16114.95
636.695	16123.15
636.889	15811.85
637.083	16022.8
637.276	15869.2
637.47	15920.4
637.664	15725.84
637.857	15605.01
638.051	15492.37
638.244	15422.74
638.438	15377.69
638.632	15334.68
638.825	15187.22
639.019	15058.2
639.212	15025.43
639.406	14972.19
639.599	15066.39
639.793	14910.75
639.986	14712.1
640.18	14710.05
640.373	14654.75
640.567	14456.1
640.76	14478.63
640.954	14519.59
641.147	14165.29
641.34	14241.06
641.534	14251.3
641.727	14208.3
641.92	14370.08
642.114	13950.25
642.307	13798.7
642.5	13915.44
642.694	13677.87
642.887	13806.89
643.08	13718.83
643.273	13804.85
643.467	13452.59
643.66	13485.36
643.853	13315.38
644.046	13141.3
644.239	13417.78
644.432	13149.5
644.626	13071.67
644.819	12932.41
645.012	12698.94
645.205	12916.03
645.398	12784.96
645.591	12641.6
645.784	12676.41
645.977	12553.54
646.17	12533.06
646.363	12510.53
646.556	12494.15
646.749	12141.89
646.942	12571.97
647.135	12172.61
647.328	12209.48
647.521	11996.49
647.714	11728.21
647.907	11713.87
648.099	11746.64
648.292	12064.07
648.485	11824.46
648.678	11605.33
648.871	11691.34
649.064	11478.35
649.256	11404.63
649.449	11511.12
649.642	11447.63
649.835	11197.78
650.027	11455.83
650.22	11216.21
650.413	11291.99
650.605	11175.25
650.798	11197.78
650.991	11054.42
651.183	10999.13
651.376	10702.17
651.568	10884.44
651.761	10642.78
651.954	10849.63
652.146	10745.18
652.339	10671.45
652.531	10560.86
652.724	10519.9
652.916	10388.83
653.109	10157.41
653.301	10548.58
653.494	10425.7
653.686	10093.93
653.879	10268
654.071	10282.34
654.263	10222.95
654.456	10159.46
654.648	10194.28
654.84	9844.07
655.033	9864.55
655.225	9663.85
655.417	9674.09
655.61	9842.03
655.802	9796.97
655.994	9661.8
656.186	9612.65
656.379	9622.89
656.571	9469.3
656.763	9465.2
656.955	9522.54
657.148	9416.05
657.34	9332.08
657.532	9233.78
657.724	9141.62
657.916	9317.75
658.108	9188.72
658.3	9194.87
658.492	9112.95
658.684	9063.8
658.876	9043.32
659.068	8996.21
659.26	8979.83
659.452	8908.15
659.644	8764.79
659.836	8611.2
660.028	8863.1
660.22	8547.71
660.412	8768.89
660.604	8603
660.796	8672.64
660.988	8646.01
661.18	8269.19
661.372	8349.06
661.563	8416.64
661.755	8256.9
661.947	8390.02
662.139	8326.53
662.331	8207.75
662.522	8201.6
662.714	7986.57
662.906	7941.51
663.097	8000.9
663.289	8039.81
663.481	7892.36
663.673	8136.07
663.864	7966.09
664.056	7935.37
664.247	7818.63
664.439	7830.92
664.631	7812.49
664.822	7783.82
665.014	7742.86
665.205	7636.36
665.397	7802.25
665.588	7628.17
665.78	7587.21
665.971	7554.44
666.163	7638.41
666.354	7579.02
666.546	7435.66
666.737	7357.84
666.929	7388.56
667.12	7277.97
667.311	7507.34
667.503	7527.82
667.694	7333.26
667.885	7132.56
668.077	7239.06
668.268	7136.66
668.459	7241.11
668.651	7067.03
668.842	7091.6
669.033	7169.43
669.224	6927.77
669.416	7171.47
669.607	7009.69
669.798	6931.86
669.989	7130.52
670.18	6825.37
670.371	6665.63
670.563	6817.18
670.754	6981.01
670.945	6722.97
671.136	6837.66
671.327	6841.75
671.518	6878.62
671.709	6866.33
671.9	6727.07
672.091	6755.74
672.282	6608.28
672.473	6639
672.664	6645.15
672.855	6618.52
673.046	6548.89
673.237	6469.02
673.428	6559.13
673.619	6763.93
673.809	6634.91
674	6622.62
674.191	6514.08
674.382	6327.71
674.573	6448.54
674.764	6448.54
674.954	6530.46
675.145	6383.01
675.336	6239.65
675.527	6354.34
675.717	6509.98
675.908	6294.94
676.099	6417.82
676.289	6348.19
676.48	6149.54
676.671	6100.39
676.861	6428.06
677.052	6170.02
677.243	6272.42
677.433	6266.27
677.624	6399.39
677.814	6223.27
678.005	6387.1
678.195	6282.66
678.386	6143.39
678.576	6096.29
678.767	6077.86
678.957	6167.97
679.148	6426.01
679.338	6194.59
679.529	6337.95
679.719	6182.31
679.909	6221.22
680.1	6340
680.29	6104.48
680.481	6116.77
680.671	6208.93
680.861	6223.27
681.052	6208.93
681.242	6141.35
681.432	6186.4
681.622	6057.38
681.813	6012.32
682.003	6124.96
682.193	5881.25
682.383	6223.27
682.573	6057.38
682.764	5873.06
682.954	5975.46
683.144	6004.13
683.334	5911.97
683.524	5950.89
683.714	5991.84
683.904	5932.45
684.094	5875.11
684.284	6010.28
684.474	5981.6
684.664	5946.79
684.854	5940.65
685.044	5993.89
685.234	5797.29
685.424	5838.25
685.614	5735.85
685.804	5678.51
685.994	5834.15
686.184	5801.38
686.374	5819.82
686.564	5694.89
686.753	5615.02
686.943	5477.8
687.133	5645.74
687.323	5586.35
687.513	5774.76
687.702	5529
687.892	5416.37
688.082	5422.51
688.272	5531.05
688.461	5447.08
688.651	5539.24
688.841	5428.65
689.03	5567.92
689.22	5363.12
689.41	5266.86
689.599	5279.15
689.789	5166.51
689.979	5189.04
690.168	5246.38
690.358	5115.31
690.547	5182.9
690.737	5252.53
690.926	5141.94
691.116	4961.72
691.305	5072.31
691.495	4984.24
691.684	5047.73
691.874	4838.84
692.063	4984.24
692.252	4761.02
692.442	4916.66
692.631	4748.73
692.82	4865.46
693.01	4769.21
693.199	4795.83
693.388	4670.9
693.578	4670.9
693.767	4683.19
693.956	4687.29
694.146	4560.31
694.335	4715.96
694.524	4548.03
694.713	4607.42
694.902	4513.21
695.092	4492.73
695.281	4484.54
695.47	4527.55
695.659	4443.58
695.848	4382.14
696.037	4384.19
696.226	4584.89
696.415	4531.64
696.604	4498.88
696.793	4337.09
696.982	4312.51
697.171	4449.72
697.36	4244.93
697.549	4449.72
697.738	4216.26
697.927	4253.12
698.116	4238.78
698.305	4353.47
698.494	4224.45
698.683	4281.79
698.872	4197.82
699.061	4222.4
699.25	4101.57
699.438	4179.39
699.627	4091.33
699.816	4240.83
700.005	4201.92
700.193	4226.5
700.382	4214.21
700.571	4197.82
700.76	4199.87
700.948	4220.35
701.137	4103.62
701.326	4183.49
701.514	4023.75
701.703	4300.22
701.892	4070.85
702.08	4120
702.269	4234.69
702.457	4097.47
702.646	3972.55
702.834	4105.67
703.023	4015.55
703.212	4093.38
703.4	3894.72
703.589	4017.6
703.777	3999.17
703.965	3941.83
704.154	4062.66
704.342	3935.68
704.531	4091.33
704.719	4124.1
704.907	4097.47
705.096	3884.48
705.284	4025.79
705.472	3978.69
705.661	4046.27
705.849	3945.92
706.037	3816.9
706.226	3958.21
706.414	3941.83
706.602	3909.06
706.79	4134.34
706.979	3876.29
707.167	3966.4
707.355	3947.97
707.543	3999.17
707.731	3960.26
707.919	4111.81
708.107	3892.68
708.296	3878.34
708.484	3939.78
708.672	3904.96
708.86	3962.31
709.048	3984.84
709.236	3876.29
709.424	4052.42
709.612	4050.37
709.8	3966.4
709.988	3974.6
710.176	3954.12
710.364	3982.79
710.551	3837.38
710.739	3980.74
710.927	3864.01
711.115	4076.99
711.303	3966.4
711.491	4007.36
711.679	4003.27
711.866	3943.88
712.054	4171.2
712.242	3894.72
712.43	4013.51
712.617	3939.78
712.805	3878.34
712.993	3972.55
713.181	3986.88
713.368	4117.95
713.556	4060.61
713.744	4031.94
713.931	4056.51
714.119	3986.88
714.306	4099.52
714.494	3954.12
714.682	4054.47
714.869	4001.22
715.057	4132.29
715.244	4025.79
715.432	4097.47
715.619	3962.31
715.807	3988.93
715.994	4083.14
716.182	3952.07
716.369	4050.37
716.556	4285.89
716.744	4097.47
716.931	4140.48
717.119	4013.51
717.306	4011.46
717.493	4019.65
717.681	4349.37
717.868	4109.76
718.055	4134.34
718.242	4064.71
718.43	4134.34
718.617	4173.25
718.804	4158.91
718.991	4146.62
719.179	4197.82
719.366	4031.94
719.553	4193.73
719.74	4122.05
719.927	4093.38
720.114	4038.08
720.301	4107.71
720.488	4126.15
720.676	4232.64
720.863	4091.33
721.05	4216.26
721.237	4150.72
721.424	4222.4
721.611	4328.89
721.798	4117.95
721.985	4163.01
722.172	4103.62
722.358	4138.43
722.545	4285.89
722.732	4099.52
722.919	4341.18
723.106	4287.93
723.293	4310.46
723.48	4173.25
723.667	4142.53
723.853	4189.63
724.04	4249.02
724.227	4285.89
724.414	4240.83
724.6	4140.48
724.787	4335.04
724.974	4181.44
725.161	4179.39
725.347	4117.95
725.534	4296.13
725.72	4269.5
725.907	4310.46
726.094	4296.13
726.28	4103.62
726.467	4285.89
726.653	4236.74
726.84	4453.82
727.027	4519.36
727.213	4068.8
727.4	4287.93
727.586	4394.43
727.773	4335.04
727.959	4220.35
728.145	4396.48
728.332	4421.05
728.518	4363.71
728.705	4435.39
728.891	4265.41
729.077	4255.17
729.264	4246.98
729.45	4410.81
729.636	4363.71
729.823	4322.75
730.009	4357.57
730.195	4435.39
730.382	4486.59
730.568	4294.08
730.754	4322.75
730.94	4451.77
731.126	4459.96
731.313	4400.57
731.499	4214.21
731.685	4244.93
731.871	4398.52
732.057	4427.2
732.243	4392.38
732.429	4371.9
732.615	4361.66
732.801	4324.8
732.987	4433.34
733.173	4388.29
733.359	4437.44
733.545	4396.48
733.731	4398.52
733.917	4507.07
734.103	4351.42
734.289	4478.4
734.475	4449.72
734.661	4490.68
734.847	4367.81
735.033	4365.76
735.219	4343.23
735.404	4378.05
735.59	4332.99
735.776	4310.46
735.962	4269.5
736.148	4304.32
736.333	4535.74
736.519	4410.81
736.705	4419
736.89	4349.37
737.076	4300.22
737.262	4220.35
737.447	4292.03
737.633	4203.97
737.819	4318.65
738.004	4388.29
738.19	4244.93
738.375	4222.4
738.561	4410.81
738.747	4261.31
738.932	4081.09
739.118	4427.2
739.303	4302.27
739.489	4187.58
739.674	4171.2
739.859	4052.42
740.045	4267.45
740.23	4320.7
740.416	4154.82
740.601	4236.74
740.786	4283.84
740.972	4173.25
741.157	4158.91
741.342	4038.08
741.528	4140.48
741.713	4195.78
741.898	3988.93
742.084	4062.66
742.269	4152.77
742.454	4146.62
742.639	4134.34
742.824	4021.7
743.01	3976.64
743.195	4144.58
743.38	4081.09
743.565	3993.03
743.75	3984.84
743.935	3900.87
744.12	4062.66
744.305	4021.7
744.49	3841.48
744.675	3917.25
744.86	3962.31
745.045	3874.24
745.23	3749.32
745.415	3933.64
745.6	3847.62
745.785	3829.19
745.97	3849.67
746.155	3888.58
746.34	3810.76
746.525	3677.64
746.71	3810.76
746.895	3562.95
747.079	3743.17
747.264	3671.5
747.449	3753.41
747.634	3671.5
747.819	3562.95
748.003	3595.72
748.188	3505.61
748.373	3433.93
748.557	3550.67
748.742	3491.27
748.927	3526.09
749.111	3487.18
749.296	3438.03
749.481	3544.52
749.665	3390.92
749.85	3411.4
750.034	3382.73
750.219	3425.74
750.404	3427.79
750.588	3196.37
750.773	3235.28
750.957	3268.05
751.141	3220.94
751.326	3216.85
751.51	3249.61
751.695	3229.13
751.879	3118.54
752.064	3147.22
752.248	3100.11
752.432	3081.68
752.617	3081.68
752.801	3079.63
752.985	3093.97
753.17	3116.5
753.354	2952.66
753.538	3098.06
753.722	2991.57
753.907	2969.04
754.091	2854.36
754.275	2760.15
754.459	2909.65
754.643	2762.2
754.828	2770.39
755.012	2778.58
755.196	2835.92
755.38	2680.28
755.564	2823.64
755.748	2682.33
755.932	2788.82
756.116	2663.9
756.3	2649.56
756.484	2708.95
756.668	2588.12
756.852	2508.25
757.036	2631.13
757.22	2565.59
757.404	2491.87
757.588	2426.33
757.772	2469.34
757.956	2461.15
758.14	2559.45
758.323	2397.66
758.507	2412
758.691	2395.61
758.875	2282.97
759.059	2407.9
759.242	2385.37
759.426	2311.64
759.61	2397.66
759.794	2307.55
759.977	2395.61
760.161	2368.99
760.345	2409.95
760.528	2401.76
760.712	2303.45
760.895	2199.01
761.079	2242.01
761.263	2186.72
761.446	2221.53
761.63	2139.62
761.813	2246.11
761.997	2037.22
762.18	2221.53
762.364	2258.4
762.547	2074.08
762.731	2270.69
762.914	2110.94
763.098	2160.1
763.281	2057.7
763.464	2168.29
763.648	2045.41
763.831	2194.91
764.015	1971.68
764.198	2059.74
764.381	2043.36
764.564	2076.13
764.748	2033.12
764.931	1938.91
765.114	2041.31
765.297	1957.35
765.481	1813.99
765.664	1981.92
765.847	1897.96
766.03	1977.83
766.213	1836.52
766.397	1904.1
766.58	1969.63
766.763	1912.29
766.946	1852.9
767.129	1863.14
767.312	1813.99
767.495	1809.89
767.678	1852.9
767.861	1793.51
768.044	1816.04
768.227	1906.15
768.41	1811.94
768.593	1801.7
768.776	1791.46
768.959	1816.04
769.142	1766.89
769.324	1668.58
769.507	1760.74
769.69	1801.7
769.873	1693.16
770.056	1854.95
770.239	1689.06
770.421	1734.12
770.604	1760.74
770.787	1674.73
770.97	1689.06
771.152	1529.32
771.335	1750.5
771.518	1584.62
771.7	1689.06
771.883	1682.92
772.066	1568.23
772.248	1609.19
772.431	1625.58
772.613	1713.64
772.796	1467.88
772.978	1625.58
773.161	1555.94
773.343	1545.7
773.526	1539.56
773.708	1576.42
773.891	1418.73
774.073	1566.18
774.256	1492.46
774.438	1539.56
774.621	1394.15
774.803	1527.27
774.985	1527.27
775.168	1502.7
775.35	1431.02
775.532	1476.07
775.715	1451.5
775.897	1441.26
776.079	1369.58
776.261	1373.68
776.444	1388.01
776.626	1295.85
776.808	1357.29
776.99	1261.04
777.173	1347.05
777.355	1254.89
777.537	1390.06
777.719	1289.71
777.901	1279.47
778.083	1279.47
778.265	1281.52
778.447	1230.32
778.629	1273.32
778.811	1250.8
778.993	1267.18
779.175	1273.32
779.357	1218.03
779.539	1207.79
779.721	1248.75
779.903	1168.88
780.085	1201.65
780.267	1152.49
780.449	1230.32
780.631	1193.45
780.812	1142.25
780.994	1056.24
781.176	1062.38
781.358	1074.67
781.54	1048.05
781.721	1082.86
781.903	1170.93
782.085	1025.52
782.267	1107.44
782.448	1109.49
782.63	1050.1
782.812	992.75
782.993	1013.23
783.175	931.31
783.357	1066.48
783.538	1082.86
783.72	992.75
783.901	986.61
784.083	914.93
784.264	910.83
784.446	951.79
784.627	894.45
784.809	880.11
784.99	880.11
785.172	914.93
785.353	869.87
785.535	878.07
785.716	894.45
785.897	863.73
786.079	855.54
786.26	857.59
786.441	878.07
786.623	812.53
786.804	916.98
786.985	820.72
787.167	865.78
787.348	806.39
787.529	859.63
787.71	945.65
787.891	736.76
788.073	818.68
788.254	753.14
788.435	855.54
788.616	736.76
788.797	724.47
788.978	814.58
789.159	800.24
789.34	706.04
789.522	738.8
789.703	755.19
789.884	849.4
790.065	810.48
790.246	716.28
790.427	605.69
790.607	716.28
790.788	749.04
790.969	675.32
791.15	730.61
791.331	726.52
791.512	683.51
791.693	560.63
791.874	677.37
792.054	751.09
792.235	761.33
792.416	640.5
792.597	486.9
792.778	775.67
792.958	579.06
793.139	652.79
793.32	644.6
793.5	574.97
793.681	642.55
793.862	636.41
794.042	460.28
794.223	482.81
794.404	607.73
794.584	552.44
794.765	574.97
794.945	605.69
795.126	579.06
795.306	548.34
795.487	585.21
795.667	566.78
795.848	609.78
796.028	550.39
796.209	658.93
796.389	597.49
796.57	581.11
796.75	577.02
796.93	525.82
797.111	499.19
797.291	534.01
797.471	474.62
797.652	554.49
797.832	495.1
798.012	642.55
798.192	495.1
798.373	499.19
798.553	556.54
798.733	574.97
798.913	474.62
799.093	484.86
799.274	445.95
799.454	470.52
799.634	468.47
799.814	566.78
799.994	443.9
800.174	501.24
800.354	480.76
800.534	402.94
800.714	558.58
800.894	429.56
801.074	427.51
801.254	484.86
801.434	456.19
801.614	396.79
801.794	484.86
801.974	1277.42
802.154	443.9
802.334	480.76
802.514	417.27
802.693	476.66
802.873	376.31
803.053	503.29
803.233	460.28
803.413	488.95
803.592	423.42
803.772	468.47
803.952	419.32
804.131	372.22
804.311	439.8
804.491	439.8
804.67	353.79
804.85	390.65
805.03	394.75
805.209	433.66
805.389	380.41
805.568	398.84
805.748	407.03
805.928	323.07
806.107	447.99
806.287	341.5
806.466	321.02
806.646	435.71
806.825	364.03
807.004	429.56
807.184	415.23
807.363	525.82
807.543	345.59
807.722	341.5
807.901	417.27
808.081	323.07
808.26	263.68
808.439	337.4
808.619	345.59
808.798	345.59
808.977	419.32
809.156	425.47
809.336	390.65
809.515	349.69
809.694	331.26
809.873	323.07
810.052	376.31
810.231	325.12
810.411	321.02
810.59	290.3
810.769	327.16
810.948	337.4
811.127	189.95
811.306	222.72
811.485	312.83
811.664	384.51
811.843	361.98
812.022	253.44
812.201	325.12
812.38	247.29
812.559	353.79
812.737	337.4
812.916	249.34
813.095	314.88
813.274	331.26
813.453	380.41
813.632	349.69
813.811	329.21
813.989	300.54
814.168	278.01
814.347	202.24
814.526	257.53
814.704	312.83
814.883	249.34
815.062	204.28
815.24	331.26
815.419	335.35
815.598	351.74
815.776	208.38
815.955	318.97
816.133	208.38
816.312	257.53
816.49	239.1
816.669	224.76
816.847	284.16
817.026	339.45
817.204	265.72
817.383	232.96
817.561	214.52
817.74	333.31
817.918	241.15
818.097	255.48
818.275	261.63
818.453	261.63
818.632	284.16
818.81	216.57
818.988	226.81
819.167	173.57
819.345	161.28
819.523	220.67
819.701	308.73
819.879	280.06
820.058	259.58
820.236	339.45
820.414	255.48
820.592	155.13
820.77	259.58
820.948	288.25
821.127	189.95
821.305	220.67
821.483	136.7
821.661	251.39
821.839	214.52
822.017	140.8
822.195	216.57
822.373	275.96
822.551	245.24
822.729	298.49
822.907	253.44
823.085	235
823.262	253.44
823.44	263.68
823.618	200.19
823.796	224.76
823.974	200.19
824.152	118.27
824.329	257.53
824.507	136.7
824.685	210.43
824.863	167.42
825.04	226.81
825.218	173.57
825.396	177.66
825.574	192
825.751	249.34
825.929	241.15
826.107	173.57
826.284	198.14
826.462	206.33
826.639	167.42
826.817	116.22
826.994	241.15
827.172	142.85
827.349	216.57
827.527	200.19
827.704	245.24
827.882	235
828.059	216.57
828.237	120.32
828.414	271.87
828.591	75.26
828.769	235
828.946	165.37
829.124	101.89
829.301	204.28
829.478	181.76
829.655	200.19
829.833	200.19
830.01	167.42
830.187	157.18
830.364	204.28
830.542	222.72
830.719	280.06
830.896	284.16
831.073	222.72
831.25	179.71
831.427	228.86
831.604	189.95
831.782	169.47
831.959	253.44
832.136	114.17
832.313	189.95
832.49	177.66
832.667	273.92
832.844	151.04
833.021	212.48
833.198	169.47
833.374	177.66
833.551	173.57
833.728	142.85
833.905	138.75
834.082	75.26
834.259	144.89
834.436	161.28
834.612	120.32
834.789	138.75
834.966	171.52
835.143	134.65
835.319	112.13
835.496	130.56
835.673	126.46
835.85	222.72
836.026	175.61
836.203	232.96
836.38	89.6
836.556	62.98
836.733	159.23
836.909	251.39
837.086	93.69
837.262	91.65
837.439	120.32
837.616	136.7
837.792	128.51
837.968	114.17
838.145	28.16
838.321	140.8
838.498	167.42
838.674	157.18
838.851	112.13
839.027	140.8
839.203	173.57
839.38	124.41
839.556	91.65
839.732	142.85
839.909	171.52
840.085	148.99
840.261	157.18
840.437	99.84
840.614	187.9
840.79	198.14
840.966	128.51
841.142	116.22
841.318	142.85
841.494	114.17
841.671	204.28
841.847	5.63
842.023	112.13
842.199	200.19
842.375	112.13
842.551	112.13
842.727	75.26
842.903	151.04
843.079	81.41
843.255	140.8
843.431	60.93
843.607	108.03
843.783	26.11
843.959	103.93
844.134	126.46
844.31	151.04
844.486	124.41
844.662	124.41
844.838	91.65
845.013	120.32
845.189	120.32
845.365	34.3
845.541	161.28
845.716	120.32
845.892	114.17
846.068	105.98
846.244	15.87
846.419	67.07
846.595	71.17
846.77	-6.66
846.946	157.18
847.122	67.07
847.297	81.41
847.473	148.99
847.648	54.78
847.824	79.36
847.999	71.17
848.175	112.13
848.35	116.22
848.526	101.89
848.701	75.26
848.876	108.03
849.052	130.56
849.227	71.17
849.403	-20.99
849.578	138.75
849.753	69.12
849.929	181.76
850.104	13.82
850.279	81.41
850.454	114.17
850.63	77.31
850.805	140.8
850.98	136.7
851.155	-0.51
851.33	75.26
851.505	101.89
851.681	124.41
851.856	93.69
852.031	161.28
852.206	112.13
852.381	91.65
852.556	95.74
852.731	95.74
852.906	110.08
853.081	79.36
853.256	134.65
853.431	56.83
853.606	50.69
853.781	101.89
853.956	19.97
854.131	44.54
854.305	85.5
854.48	77.31
854.655	103.93
854.83	75.26
855.005	-6.66
855.18	73.21
855.354	60.93
855.529	81.41
855.704	26.11
855.879	142.85
856.053	93.69
856.228	114.17
856.403	9.73
856.577	138.75
856.752	15.87
856.926	71.17
857.101	108.03
857.276	105.98
857.45	128.51
857.625	79.36
857.799	71.17
857.974	110.08
858.148	-12.8
858.323	-0.51
858.497	34.3
858.672	11.78
858.846	50.69
859.02	173.57
859.195	67.07
859.369	148.99
859.543	56.83
859.718	89.6
859.892	62.98
860.066	48.64
860.241	-6.66
860.415	26.11
860.589	75.26
860.763	58.88
860.938	58.88
861.112	167.42
861.286	54.78
861.46	83.45
861.634	67.07
861.808	91.65
861.982	79.36
862.157	-45.57
862.331	-12.8
862.505	69.12
862.679	15.87
862.853	44.54
863.027	-37.38
863.201	81.41
863.375	-25.09
863.549	81.41
863.722	83.45
863.896	134.65
864.07	-10.75
864.244	50.69
864.418	114.17
864.592	58.88
864.766	67.07
864.939	60.93
865.113	71.17
865.287	62.98
865.461	34.3
865.634	58.88
865.808	128.51
865.982	50.69
866.156	9.73
866.329	1.54
866.503	97.79
866.676	62.98
866.85	99.84
867.024	19.97
867.197	108.03
867.371	77.31
867.544	34.3
867.718	-25.09
867.891	120.32
868.065	-33.28
868.238	75.26
868.412	95.74
868.585	126.46
868.759	34.3
868.932	118.27
869.105	-88.57
869.279	36.35
869.452	36.35
869.625	85.5
869.799	95.74
869.972	50.69
870.145	-20.99
870.319	151.04
870.492	60.93
870.665	108.03
870.838	44.54
871.011	-2.56
871.185	-2.56
871.358	34.3
871.531	44.54
871.704	-23.04
871.877	-16.9
872.05	-27.14
872.223	19.97
872.396	81.41
872.569	13.82
872.742	38.4
872.915	71.17
873.088	46.59
873.261	52.74
873.434	126.46
873.607	67.07
873.78	11.78
873.953	-74.24
874.126	11.78
874.299	89.6
874.471	-23.04
874.644	34.3
874.817	44.54
874.99	108.03
875.163	42.5
875.335	46.59
875.508	32.26
875.681	69.12
875.853	1.54
876.026	-29.18
876.199	101.89
876.371	32.26
876.544	9.73
876.717	79.36
876.889	28.16
877.062	132.61
877.234	44.54
877.407	-35.33
877.579	36.35
877.752	19.97
877.924	120.32
878.097	97.79
878.269	-37.38
878.442	22.02
878.614	67.07
878.786	58.88
878.959	54.78
879.131	105.98
879.303	9.73
879.476	17.92
879.648	26.11
879.82	54.78
879.993	75.26
880.165	26.11
880.337	7.68
880.509	42.5
880.681	-61.95
880.854	-31.23
881.026	91.65
881.198	124.41
881.37	110.08
881.542	58.88
881.714	-10.75
881.886	46.59
882.058	11.78
882.23	56.83
882.402	1.54
882.574	34.3
882.746	79.36
882.918	85.5
883.09	108.03
883.262	19.97
883.434	44.54
883.606	-12.8
883.778	89.6
883.95	26.11
884.122	-14.85
884.293	60.93
884.465	54.78
884.637	7.68
884.809	79.36
884.98	81.41
885.152	58.88
885.324	42.5
885.496	-4.61
885.667	75.26
885.839	44.54
886.011	69.12
886.182	62.98
886.354	112.13
886.525	75.26
886.697	85.5
886.869	65.02
887.04	-16.9
887.212	79.36
887.383	36.35
887.555	58.88
887.726	-20.99
887.897	-0.51
888.069	-47.62
888.24	81.41
888.412	-10.75
888.583	46.59
888.754	-12.8
888.926	38.4
889.097	-14.85
889.268	-47.62
889.44	50.69
889.611	-14.85
889.782	-12.8
889.953	11.78
890.125	71.17
890.296	40.45
890.467	1.54
890.638	5.63
890.809	58.88
890.98	13.82
891.151	71.17
891.323	34.3
891.494	75.26
891.665	48.64
891.836	26.11
892.007	36.35
892.178	24.06
892.349	91.65
892.52	22.02
892.691	50.69
892.862	58.88
893.032	-18.94
893.203	-2.56
893.374	9.73
893.545	54.78
893.716	9.73
893.887	77.31
894.057	13.82
894.228	38.4
894.399	15.87
894.57	44.54
894.74	-23.04
894.911	44.54
895.082	-18.94
895.253	60.93
895.423	103.93
895.594	-14.85
895.764	83.45
895.935	-47.62
896.106	67.07
896.276	-29.18
896.447	28.16
896.617	-39.42
896.788	50.69
896.958	42.5
897.129	-25.09
897.299	30.21
897.47	56.83
897.64	105.98
897.81	3.58
897.981	71.17
898.151	11.78
898.322	93.69
898.492	95.74
898.662	11.78
898.832	-33.28
899.003	34.3
899.173	50.69
899.343	-2.56
899.513	-35.33
