Data from USB4F104151__52__13-05-34-323.txt Node

Date: Fri Mar 14 13:05:34 EDT 2025
User: louis
Spectrometer: USB4F10415
Trigger mode: 4
Integration Time (sec): 4.000000E-2
Scans to average: 1
Electric dark correction enabled: true
Nonlinearity correction enabled: false
Boxcar width: 0
XAxis mode: Wavelengths
Number of Pixels in Spectrum: 3648
>>>>>Begin Spectral Data<<<<<
178.204	-208.72
178.424	-208.72
178.644	-208.72
178.864	-192.34
179.084	-259.92
179.304	10.41
179.524	10.41
179.744	-20.31
179.964	41.13
180.184	-22.36
180.404	-42.84
180.624	-16.21
180.844	26.79
181.064	8.36
181.283	2.22
181.503	-34.64
181.723	37.03
181.943	-16.21
182.163	110.76
182.383	10.41
182.602	92.33
182.822	32.94
183.042	98.47
183.262	-44.88
183.482	34.99
183.701	112.81
183.921	47.27
184.141	55.47
184.361	67.75
184.58	-5.97
184.8	75.95
185.02	108.71
185.239	100.52
185.459	10.41
185.679	22.7
185.898	-51.03
186.118	43.18
186.338	51.37
186.557	-8.02
186.777	-57.17
186.997	69.8
187.216	98.47
187.436	104.62
187.655	141.48
187.875	59.56
188.095	59.56
188.314	75.95
188.534	82.09
188.753	30.89
188.973	94.38
189.192	116.9
189.412	32.94
189.631	-30.55
189.851	-5.97
190.07	51.37
190.29	2.22
190.509	28.84
190.729	18.6
190.948	73.9
191.168	194.73
191.387	26.79
191.607	0.17
191.826	80.04
192.045	125.1
192.265	53.42
192.484	67.75
192.704	67.75
192.923	16.55
193.142	143.53
193.362	65.71
193.581	82.09
193.8	110.76
194.02	39.08
194.239	94.38
194.458	110.76
194.678	41.13
194.897	106.67
195.116	43.18
195.335	96.43
195.555	8.36
195.774	8.36
195.993	84.14
196.212	26.79
196.432	12.46
196.651	84.14
196.87	0.17
197.089	141.48
197.308	28.84
197.528	28.84
197.747	-67.41
197.966	55.47
198.185	69.8
198.404	51.37
198.623	135.34
198.842	59.56
199.062	129.19
199.281	59.56
199.5	55.47
199.719	61.61
199.938	123.05
200.157	131.24
200.376	-1.88
200.595	102.57
200.814	71.85
201.033	-83.8
201.252	71.85
201.471	59.56
201.69	59.56
201.909	67.75
202.128	24.75
202.347	73.9
202.566	37.03
202.785	12.46
203.004	-44.88
203.223	123.05
203.442	53.42
203.661	37.03
203.879	65.71
204.098	108.71
204.317	26.79
204.536	30.89
204.755	20.65
204.974	75.95
205.193	116.9
205.411	96.43
205.63	51.37
205.849	47.27
206.068	32.94
206.287	82.09
206.505	69.8
206.724	84.14
206.943	-40.79
207.162	86.19
207.381	59.56
207.599	-3.93
207.818	12.46
208.037	-3.93
208.255	39.08
208.474	75.95
208.693	41.13
208.911	28.84
209.13	125.1
209.349	77.99
209.567	98.47
209.786	-8.02
210.005	2.22
210.223	-3.93
210.442	-46.93
210.661	12.46
210.879	69.8
211.098	16.55
211.316	26.79
211.535	75.95
211.753	-14.17
211.972	41.13
212.191	71.85
212.409	-10.07
212.628	67.75
212.846	67.75
213.065	84.14
213.283	90.28
213.502	-26.45
213.72	41.13
213.938	41.13
214.157	14.51
214.375	114.86
214.594	45.23
214.812	80.04
215.031	53.42
215.249	16.55
215.467	102.57
215.686	61.61
215.904	37.03
216.122	-79.7
216.341	43.18
216.559	37.03
216.778	65.71
216.996	20.65
217.214	86.19
217.432	16.55
217.651	-38.74
217.869	53.42
218.087	0.17
218.306	45.23
218.524	41.13
218.742	18.6
218.96	94.38
219.179	-8.02
219.397	71.85
219.615	121
219.833	59.56
220.051	57.51
220.27	125.1
220.488	123.05
220.706	127.14
220.924	-24.4
221.142	26.79
221.36	108.71
221.578	28.84
221.796	14.51
222.015	47.27
222.233	41.13
222.451	108.71
222.669	-3.93
222.887	43.18
223.105	22.7
223.323	-8.02
223.541	108.71
223.759	82.09
223.977	53.42
224.195	110.76
224.413	90.28
224.631	45.23
224.849	8.36
225.067	155.82
225.285	45.23
225.503	41.13
225.721	39.08
225.939	28.84
226.157	32.94
226.375	157.86
226.592	-28.5
226.81	94.38
227.028	69.8
227.246	133.29
227.464	8.36
227.682	41.13
227.9	20.65
228.117	141.48
228.335	24.75
228.553	41.13
228.771	59.56
228.989	125.1
229.206	141.48
229.424	-30.55
229.642	53.42
229.86	24.75
230.077	86.19
230.295	73.9
230.513	92.33
230.731	65.71
230.948	104.62
231.166	108.71
231.384	32.94
231.601	51.37
231.819	90.28
232.037	6.31
232.254	-24.4
232.472	-26.45
232.689	28.84
232.907	53.42
233.125	61.61
233.342	22.7
233.56	-16.21
233.777	-63.32
233.995	41.13
234.213	75.95
234.43	59.56
234.648	28.84
234.865	90.28
235.083	67.75
235.3	63.66
235.518	69.8
235.735	57.51
235.953	32.94
236.17	61.61
236.388	37.03
236.605	39.08
236.822	55.47
237.04	82.09
237.257	14.51
237.475	4.27
237.692	69.8
237.909	37.03
238.127	-36.69
238.344	16.55
238.562	41.13
238.779	-46.93
238.996	-20.31
239.214	57.51
239.431	28.84
239.648	-22.36
239.865	94.38
240.083	37.03
240.3	77.99
240.517	10.41
240.735	-10.07
240.952	77.99
241.169	90.28
241.386	67.75
241.603	26.79
241.821	24.75
242.038	86.19
242.255	65.71
242.472	-14.17
242.689	65.71
242.907	123.05
243.124	18.6
243.341	8.36
243.558	-8.02
243.775	32.94
243.992	32.94
244.209	18.6
244.426	67.75
244.643	63.66
244.86	90.28
245.078	80.04
245.295	57.51
245.512	82.09
245.729	18.6
245.946	51.37
246.163	45.23
246.38	67.75
246.597	26.79
246.814	32.94
247.031	39.08
247.248	-16.21
247.464	28.84
247.681	-24.4
247.898	59.56
248.115	16.55
248.332	-16.21
248.549	6.31
248.766	73.9
248.983	45.23
249.2	86.19
249.417	6.31
249.633	129.19
249.85	51.37
250.067	26.79
250.284	51.37
250.501	73.9
250.717	49.32
250.934	-12.12
251.151	2.22
251.368	28.84
251.585	96.43
251.801	41.13
252.018	-32.6
252.235	43.18
252.451	-53.08
252.668	45.23
252.885	45.23
253.102	8.36
253.318	32.94
253.535	32.94
253.752	4.27
253.968	-8.02
254.185	26.79
254.401	51.37
254.618	34.99
254.835	28.84
255.051	106.67
255.268	75.95
255.484	10.41
255.701	84.14
255.917	43.18
256.134	-3.93
256.351	110.76
256.567	-30.55
256.784	28.84
257	0.17
257.217	75.95
257.433	88.23
257.65	96.43
257.866	137.38
258.082	16.55
258.299	41.13
258.515	53.42
258.732	26.79
258.948	65.71
259.165	47.27
259.381	-65.36
259.597	41.13
259.814	51.37
260.03	28.84
260.246	-38.74
260.463	65.71
260.679	114.86
260.895	53.42
261.112	37.03
261.328	-20.31
261.544	63.66
261.761	137.38
261.977	53.42
262.193	57.51
262.409	32.94
262.626	30.89
262.842	43.18
263.058	26.79
263.274	-1.88
263.49	-34.64
263.707	65.71
263.923	80.04
264.139	-10.07
264.355	67.75
264.571	86.19
264.787	16.55
265.004	24.75
265.22	86.19
265.436	57.51
265.652	39.08
265.868	-8.02
266.084	30.89
266.3	82.09
266.516	4.27
266.732	57.51
266.948	22.7
267.164	65.71
267.38	63.66
267.596	8.36
267.812	108.71
268.028	45.23
268.244	73.9
268.46	-12.12
268.676	67.75
268.892	8.36
269.108	-20.31
269.324	0.17
269.54	-26.45
269.756	61.61
269.972	-48.98
270.188	10.41
270.403	4.27
270.619	18.6
270.835	59.56
271.051	16.55
271.267	-10.07
271.483	12.46
271.698	106.67
271.914	8.36
272.13	43.18
272.346	20.65
272.562	32.94
272.777	53.42
272.993	41.13
273.209	69.8
273.425	-8.02
273.64	34.99
273.856	73.9
274.072	94.38
274.287	65.71
274.503	88.23
274.719	141.48
274.934	37.03
275.15	14.51
275.366	-3.93
275.581	-36.69
275.797	59.56
276.012	28.84
276.228	116.9
276.444	37.03
276.659	73.9
276.875	-28.5
277.09	16.55
277.306	37.03
277.521	41.13
277.737	37.03
277.952	30.89
278.168	16.55
278.383	-18.26
278.599	37.03
278.814	129.19
279.03	26.79
279.245	157.86
279.461	-30.55
279.676	123.05
279.892	-44.88
280.107	51.37
280.322	-24.4
280.538	2.22
280.753	28.84
280.969	59.56
281.184	16.55
281.399	73.9
281.615	82.09
281.83	92.33
282.045	-40.79
282.26	41.13
282.476	104.62
282.691	125.1
282.906	51.37
283.122	34.99
283.337	18.6
283.552	82.09
283.767	59.56
283.983	82.09
284.198	57.51
284.413	61.61
284.628	-28.5
284.843	77.99
285.058	28.84
285.274	49.32
285.489	82.09
285.704	166.06
285.919	-18.26
286.134	16.55
286.349	26.79
286.564	20.65
286.779	88.23
286.995	-24.4
287.21	-24.4
287.425	102.57
287.64	41.13
287.855	53.42
288.07	4.27
288.285	155.82
288.5	37.03
288.715	92.33
288.93	34.99
289.145	34.99
289.36	20.65
289.575	-3.93
289.79	47.27
290.004	-5.97
290.219	41.13
290.434	39.08
290.649	16.55
290.864	-32.6
291.079	55.47
291.294	63.66
291.509	18.6
291.724	22.7
291.938	75.95
292.153	39.08
292.368	28.84
292.583	4.27
292.798	84.14
293.012	59.56
293.227	18.6
293.442	75.95
293.657	67.75
293.871	118.95
294.086	32.94
294.301	137.38
294.516	102.57
294.73	18.6
294.945	-48.98
295.16	34.99
295.374	94.38
295.589	114.86
295.804	41.13
296.018	22.7
296.233	49.32
296.447	84.14
296.662	30.89
296.877	94.38
297.091	80.04
297.306	51.37
297.52	84.14
297.735	61.61
297.949	63.66
298.164	96.43
298.378	77.99
298.593	-57.17
298.807	-38.74
299.022	135.34
299.236	82.09
299.451	28.84
299.665	41.13
299.88	32.94
300.094	71.85
300.309	69.8
300.523	106.67
300.737	100.52
300.952	41.13
301.166	-14.17
301.381	-16.21
301.595	84.14
301.809	90.28
302.024	63.66
302.238	84.14
302.452	22.7
302.667	2.22
302.881	123.05
303.095	82.09
303.309	32.94
303.524	-8.02
303.738	51.37
303.952	41.13
304.166	22.7
304.381	-98.13
304.595	100.52
304.809	2.22
305.023	32.94
305.237	30.89
305.452	2.22
305.666	34.99
305.88	39.08
306.094	155.82
306.308	129.19
306.522	55.47
306.736	125.1
306.95	26.79
307.164	12.46
307.379	45.23
307.593	131.24
307.807	61.61
308.021	94.38
308.235	47.27
308.449	0.17
308.663	53.42
308.877	157.86
309.091	65.71
309.305	82.09
309.519	16.55
309.733	135.34
309.947	-42.84
310.161	57.51
310.374	131.24
310.588	4.27
310.802	-100.18
311.016	73.9
311.23	12.46
311.444	-73.56
311.658	16.55
311.872	49.32
312.085	71.85
312.299	114.86
312.513	75.95
312.727	14.51
312.941	-51.03
313.154	59.56
313.368	8.36
313.582	-26.45
313.796	53.42
314.009	26.79
314.223	51.37
314.437	61.61
314.651	8.36
314.864	59.56
315.078	-67.41
315.292	-26.45
315.505	16.55
315.719	67.75
315.933	69.8
316.146	55.47
316.36	14.51
316.573	69.8
316.787	30.89
317.001	118.95
317.214	10.41
317.428	41.13
317.641	92.33
317.855	43.18
318.068	37.03
318.282	45.23
318.495	28.84
318.709	98.47
318.922	92.33
319.136	80.04
319.349	125.1
319.563	80.04
319.776	43.18
319.99	6.31
320.203	4.27
320.417	45.23
320.63	102.57
320.843	77.99
321.057	69.8
321.27	10.41
321.483	82.09
321.697	53.42
321.91	90.28
322.124	37.03
322.337	51.37
322.55	-59.22
322.763	28.84
322.977	16.55
323.19	-3.93
323.403	73.9
323.617	88.23
323.83	131.24
324.043	-40.79
324.256	37.03
324.469	8.36
324.683	164.01
324.896	8.36
325.109	77.99
325.322	-5.97
325.535	123.05
325.748	106.67
325.962	10.41
326.175	37.03
326.388	90.28
326.601	67.75
326.814	32.94
327.027	-1.88
327.24	100.52
327.453	63.66
327.666	84.14
327.879	20.65
328.092	147.62
328.305	-30.55
328.518	51.37
328.731	8.36
328.944	55.47
329.157	37.03
329.37	8.36
329.583	118.95
329.796	92.33
330.009	6.31
330.222	86.19
330.435	34.99
330.648	51.37
330.861	49.32
331.073	75.95
331.286	108.71
331.499	20.65
331.712	59.56
331.925	30.89
332.138	47.27
332.35	127.14
332.563	-14.17
332.776	69.8
332.989	2.22
333.202	41.13
333.414	30.89
333.627	73.9
333.84	86.19
334.053	65.71
334.265	26.79
334.478	53.42
334.691	8.36
334.903	59.56
335.116	4.27
335.329	22.7
335.541	129.19
335.754	41.13
335.966	-22.36
336.179	22.7
336.392	43.18
336.604	30.89
336.817	20.65
337.029	77.99
337.242	32.94
337.454	34.99
337.667	-30.55
337.88	133.29
338.092	53.42
338.305	0.17
338.517	8.36
338.729	80.04
338.942	80.04
339.154	2.22
339.367	-28.5
339.579	73.9
339.792	8.36
340.004	28.84
340.217	-20.31
340.429	39.08
340.641	82.09
340.854	24.75
341.066	55.47
341.278	112.81
341.491	102.57
341.703	51.37
341.915	26.79
342.128	98.47
342.34	104.62
342.552	30.89
342.764	0.17
342.977	30.89
343.189	98.47
343.401	63.66
343.613	22.7
343.826	18.6
344.038	-14.17
344.25	135.34
344.462	28.84
344.674	71.85
344.886	71.85
345.099	28.84
345.311	6.31
345.523	55.47
345.735	0.17
345.947	57.51
346.159	108.71
346.371	-22.36
346.583	37.03
346.795	59.56
347.007	41.13
347.219	-14.17
347.431	26.79
347.643	108.71
347.855	20.65
348.067	86.19
348.279	2.22
348.491	55.47
348.703	10.41
348.915	22.7
349.127	-42.84
349.339	65.71
349.551	51.37
349.763	129.19
349.975	94.38
350.187	80.04
350.399	104.62
350.61	41.13
350.822	24.75
351.034	59.56
351.246	67.75
351.458	77.99
351.669	102.57
351.881	80.04
352.093	131.24
352.305	57.51
352.517	-32.6
352.728	139.43
352.94	90.28
353.152	-5.97
353.363	-12.12
353.575	86.19
353.787	43.18
353.999	0.17
354.21	110.76
354.422	0.17
354.633	-28.5
354.845	34.99
355.057	26.79
355.268	90.28
355.48	51.37
355.692	2.22
355.903	53.42
356.115	-14.17
356.326	28.84
356.538	69.8
356.749	137.38
356.961	71.85
357.172	49.32
357.384	-40.79
357.595	178.34
357.807	43.18
358.018	45.23
358.23	127.14
358.441	90.28
358.653	55.47
358.864	-10.07
359.075	-1.88
359.287	-12.12
359.498	123.05
359.709	45.23
359.921	-18.26
360.132	100.52
360.344	102.57
360.555	51.37
360.766	28.84
360.977	37.03
361.189	137.38
361.4	-3.93
361.611	112.81
361.823	69.8
362.034	84.14
362.245	59.56
362.456	118.95
362.667	28.84
362.879	41.13
363.09	106.67
363.301	75.95
363.512	18.6
363.723	65.71
363.935	30.89
364.146	129.19
364.357	73.9
364.568	84.14
364.779	39.08
364.99	98.47
365.201	65.71
365.412	0.17
365.623	0.17
365.834	82.09
366.045	137.38
366.256	98.47
366.467	90.28
366.678	-16.21
366.889	30.89
367.1	24.75
367.311	67.75
367.522	84.14
367.733	100.52
367.944	49.32
368.155	139.43
368.366	37.03
368.577	102.57
368.788	166.06
368.999	-38.74
369.209	80.04
369.42	221.35
369.631	143.53
369.842	104.62
370.053	32.94
370.264	98.47
370.474	24.75
370.685	73.9
370.896	4.27
371.107	102.57
371.317	82.09
371.528	37.03
371.739	129.19
371.95	-26.45
372.16	65.71
372.371	49.32
372.582	65.71
372.792	41.13
373.003	100.52
373.214	57.51
373.424	39.08
373.635	22.7
373.846	161.96
374.056	18.6
374.267	75.95
374.477	102.57
374.688	22.7
374.898	114.86
375.109	14.51
375.319	131.24
375.53	57.51
375.74	98.47
375.951	94.38
376.161	4.27
376.372	86.19
376.582	-20.31
376.793	65.71
377.003	100.52
377.214	12.46
377.424	55.47
377.635	4.27
377.845	2.22
378.055	67.75
378.266	-5.97
378.476	94.38
378.686	80.04
378.897	4.27
379.107	94.38
379.317	92.33
379.528	73.9
379.738	34.99
379.948	-8.02
380.158	80.04
380.369	75.95
380.579	49.32
380.789	45.23
380.999	12.46
381.21	98.47
381.42	155.82
381.63	6.31
381.84	82.09
382.05	108.71
382.261	102.57
382.471	69.8
382.681	84.14
382.891	69.8
383.101	0.17
383.311	34.99
383.521	-20.31
383.731	69.8
383.941	57.51
384.151	41.13
384.361	-32.6
384.571	69.8
384.781	41.13
384.991	188.58
385.201	188.58
385.411	28.84
385.621	90.28
385.831	131.24
386.041	24.75
386.251	43.18
386.461	106.67
386.671	2.22
386.881	45.23
387.091	32.94
387.301	198.82
387.511	41.13
387.72	34.99
387.93	155.82
388.14	45.23
388.35	94.38
388.56	92.33
388.769	112.81
388.979	24.75
389.189	-10.07
389.399	69.8
389.609	41.13
389.818	69.8
390.028	51.37
390.238	73.9
390.447	90.28
390.657	34.99
390.867	34.99
391.076	61.61
391.286	131.24
391.496	49.32
391.705	164.01
391.915	45.23
392.125	147.62
392.334	24.75
392.544	51.37
392.753	86.19
392.963	-12.12
393.172	61.61
393.382	82.09
393.591	147.62
393.801	71.85
394.01	207.02
394.22	135.34
394.429	53.42
394.639	-8.02
394.848	155.82
395.058	30.89
395.267	16.55
395.477	102.57
395.686	84.14
395.895	143.53
396.105	157.86
396.314	123.05
396.524	-3.93
396.733	57.51
396.942	153.77
397.152	116.9
397.361	102.57
397.57	41.13
397.78	77.99
397.989	61.61
398.198	217.26
398.407	53.42
398.617	145.58
398.826	69.8
399.035	30.89
399.244	53.42
399.453	129.19
399.663	77.99
399.872	65.71
400.081	73.9
400.29	207.02
400.499	104.62
400.708	108.71
400.917	59.56
401.127	75.95
401.336	133.29
401.545	174.25
401.754	141.48
401.963	102.57
402.172	67.75
402.381	84.14
402.59	186.54
402.799	151.72
403.008	121
403.217	90.28
403.426	127.14
403.635	73.9
403.844	16.55
404.053	98.47
404.262	118.95
404.471	200.87
404.68	147.62
404.888	73.9
405.097	92.33
405.306	96.43
405.515	116.9
405.724	59.56
405.933	100.52
406.142	106.67
406.35	221.35
406.559	180.39
406.768	258.21
406.977	174.25
407.185	178.34
407.394	172.2
407.603	61.61
407.812	168.1
408.02	241.83
408.229	168.1
408.438	229.54
408.646	227.5
408.855	188.58
409.064	239.78
409.272	237.74
409.481	209.06
409.69	196.78
409.898	256.17
410.107	290.98
410.315	313.51
410.524	245.93
410.733	295.08
410.941	293.03
411.15	260.26
411.358	282.79
411.567	379.04
411.775	266.41
411.984	297.13
412.192	362.66
412.401	377
412.609	415.91
412.818	426.15
413.026	424.1
413.234	430.24
413.443	422.05
413.651	465.06
413.86	469.16
414.068	606.37
414.276	557.22
414.485	426.15
414.693	524.45
414.901	512.16
415.11	581.79
415.318	553.12
415.526	606.37
415.734	637.09
415.943	585.89
416.151	639.14
416.359	587.94
416.567	622.75
416.776	667.81
416.984	671.9
417.192	714.91
417.4	753.82
417.608	782.49
417.817	700.58
418.025	757.92
418.233	868.51
418.441	895.13
418.649	878.75
418.857	841.89
419.065	1024.16
419.273	954.52
419.481	1052.83
419.689	1118.36
419.897	1083.55
420.105	1071.26
420.313	1112.22
420.521	1247.38
420.729	1206.42
420.937	1163.42
421.145	1179.8
421.353	1417.37
421.561	1378.45
421.769	1413.27
421.977	1497.24
422.185	1564.82
422.393	1468.56
422.601	1599.63
422.809	1628.31
423.017	1611.92
423.224	1712.27
423.432	1884.3
423.64	1781.9
423.848	2052.24
424.056	1859.73
424.263	2031.76
424.471	2076.81
424.679	2066.57
424.887	2201.74
425.094	2369.67
425.302	2373.77
425.51	2332.81
425.718	2400.39
425.925	2527.36
426.133	2424.97
426.341	2773.12
426.548	2656.39
426.756	2828.42
426.964	2859.14
427.171	2947.2
427.379	3055.74
427.586	2955.39
427.794	3244.15
428.001	3244.15
428.209	3573.88
428.417	3465.33
428.624	3776.63
428.832	3663.99
429.039	3659.89
429.247	3674.23
429.454	4063.34
429.662	4300.91
429.869	4040.81
430.076	4315.24
430.284	4268.14
430.491	4251.75
430.699	4644.96
430.906	4745.31
431.114	4692.07
431.321	4819.04
431.528	4976.73
431.736	5171.29
431.943	5556.31
432.15	5333.08
432.358	5398.62
432.565	5941.33
432.772	5468.25
432.979	5924.94
433.187	6246.48
433.394	6029.39
433.601	6475.85
433.808	6611.01
434.016	6477.9
434.223	6735.94
434.43	7141.44
434.637	7157.82
434.844	7508.02
435.052	7585.85
435.259	7473.21
435.466	7809.08
435.673	7626.81
435.88	7985.2
436.087	8364.08
436.294	8445.99
436.501	8257.58
436.708	8489
436.915	8804.39
437.122	9256.99
437.329	9158.69
437.537	9533.47
437.743	9715.73
437.95	9623.58
438.157	9834.52
438.364	10291.21
438.571	10246.16
438.778	10543.11
438.985	11173.89
439.192	10833.93
439.399	11239.42
439.606	11329.53
439.813	11728.89
440.02	12226.54
440.227	12169.2
440.433	12140.53
440.64	12453.87
440.847	12339.18
441.054	12564.46
441.261	13576.16
441.467	13234.14
441.674	13707.23
441.881	14192.59
442.088	14118.87
442.294	14170.07
442.501	14505.93
442.708	14630.86
442.914	15226.82
443.121	16003
443.328	15454.14
443.534	16502.7
443.741	16037.81
443.948	15779.77
444.154	16891.82
444.361	17194.92
444.568	17258.4
444.774	17246.12
444.981	17215.4
445.187	17610.65
445.394	18339.73
445.6	18294.68
445.807	20055.93
446.013	19060.62
446.22	19443.59
446.426	20502.39
446.633	20692.85
446.839	21636.96
447.046	19998.59
447.252	21509.99
447.459	21507.94
447.665	21565.28
447.871	22615.89
448.078	23394.12
448.284	22280.02
448.491	23240.52
448.697	23652.16
448.903	24262.46
449.11	24166.2
449.316	23859.01
449.522	24577.84
449.728	25181.99
449.935	25331.5
450.141	25358.12
450.347	25806.62
450.553	25022.25
450.76	25501.48
450.966	26269.47
451.172	25632.55
451.378	26826.51
451.584	26150.68
451.791	26664.72
451.997	26953.49
452.203	27182.86
452.409	27102.99
452.615	27248.39
452.821	26005.28
453.027	25896.74
453.233	27260.68
453.44	26300.19
453.646	26631.96
453.852	26717.97
454.058	27307.79
454.264	26162.97
454.47	26912.53
454.676	26185.5
454.882	26943.25
455.088	24473.4
455.294	25329.45
455.5	25685.79
455.705	26054.43
455.911	24598.32
456.117	24100.67
456.323	24024.89
456.529	22796.11
456.735	23521.09
456.941	23019.34
457.147	22777.68
457.352	22122.33
457.558	21976.92
457.764	21866.33
457.97	21428.07
458.176	21069.67
458.381	20922.22
458.587	19976.06
458.793	19855.23
458.999	19007.37
459.204	20520.82
459.41	19838.84
459.616	18505.62
459.821	18519.95
460.027	18444.18
460.233	18161.56
460.438	17428.38
460.644	17471.39
460.85	16568.24
461.055	16347.06
461.261	16379.82
461.466	15044.55
461.672	14639.05
461.878	15628.22
462.083	14571.47
462.289	14364.62
462.494	14131.16
462.7	13264.86
462.905	13238.24
463.111	13621.21
463.316	13672.41
463.522	13520.86
463.727	13570.01
463.932	13275.1
464.138	13271.01
464.343	13244.38
464.549	12744.68
464.754	13385.69
464.959	13033.44
465.165	13017.06
465.37	12529.64
465.575	12142.58
465.781	12730.34
465.986	12937.19
466.191	12212.21
466.397	12111.86
466.602	11569.15
466.807	11917.3
467.012	12148.72
467.218	11864.05
467.423	11767.8
467.628	11870.2
467.833	12152.82
468.038	11853.81
468.244	11503.61
468.449	11741.18
468.654	11536.38
468.859	11636.73
469.064	11395.07
469.269	10952.71
469.474	10979.33
469.679	11433.98
469.885	10815.49
470.09	11212.8
470.295	11094.02
470.5	10717.19
470.705	10782.73
470.91	10715.14
471.115	10643.46
471.32	10799.11
471.525	10655.75
471.73	10420.24
471.935	10143.76
472.139	9945.11
472.344	10039.31
472.549	9975.83
472.754	9988.11
472.959	9621.53
473.164	9543.71
473.369	9429.02
473.574	9687.06
473.778	9674.78
473.983	9480.22
474.188	9429.02
474.393	9052.19
474.598	9216.03
474.802	9103.39
475.007	8831.01
475.212	8986.66
475.417	8515.62
475.621	8745
475.826	8914.98
476.031	8486.95
476.235	8306.73
476.44	8503.34
476.645	8292.4
476.849	8331.31
477.054	8202.29
477.259	8245.29
477.463	8009.78
477.668	7864.37
477.872	8224.81
478.077	7743.54
478.282	7624.76
478.486	7770.16
478.691	7612.47
478.895	7561.27
479.1	7596.09
479.304	7643.19
479.509	7215.16
479.713	7573.56
479.918	7526.46
480.122	7118.91
480.326	7262.27
480.531	7168.06
480.735	7188.54
480.94	6969.41
481.144	7370.81
481.348	7016.51
481.553	6864.96
481.757	6912.07
481.961	6973.5
482.166	7004.22
482.37	7002.18
482.574	6897.73
482.778	6967.36
482.983	6953.02
483.187	6760.52
483.391	7004.22
483.595	6826.05
483.8	6867.01
484.004	6719.56
484.208	6996.03
484.412	7055.42
484.616	6928.45
484.821	6926.4
485.025	6881.35
485.229	6991.94
485.433	6989.89
485.637	6627.4
485.841	6766.66
486.045	6760.52
486.249	7020.61
486.453	6871.11
486.657	6910.02
486.861	6936.64
487.065	6717.51
487.269	7116.86
487.473	6862.91
487.677	6910.02
487.881	6848.58
488.085	6783.04
488.289	6965.31
488.493	6766.66
488.697	6920.26
488.901	6916.16
489.105	6928.45
489.309	7028.8
489.512	6840.39
489.716	6998.08
489.92	6989.89
490.124	7086.14
490.328	7239.74
490.531	6996.03
490.735	7204.92
490.939	6955.07
491.143	7133.25
491.346	7045.18
491.55	7186.49
491.754	7166.01
491.958	7080
492.161	7235.64
492.365	7335.99
492.569	7192.64
492.772	7196.73
492.976	7483.45
493.18	7489.59
493.383	7477.3
493.587	7508.02
493.79	7587.89
493.994	7405.63
494.197	7514.17
494.401	7788.6
494.605	7622.71
494.808	7790.64
495.012	7577.66
495.215	7721.01
495.419	7811.12
495.622	7766.07
495.825	7991.34
496.029	7983.15
496.232	8167.47
496.436	8167.47
496.639	8478.76
496.843	8325.16
497.046	8491.05
497.249	8501.29
497.453	8544.3
497.656	8642.6
497.859	8626.22
498.063	8781.86
498.266	8792.1
498.469	8689.7
498.673	8845.35
498.876	9039.9
499.079	9263.13
499.282	9232.41
499.485	9369.63
499.689	9357.34
499.892	9682.97
500.095	9719.83
500.298	9834.52
500.501	9723.93
500.705	10170.38
500.908	10178.58
501.111	10237.97
501.314	10350.6
501.517	10520.59
501.72	10584.07
501.923	10518.54
502.126	11001.86
502.329	10924.04
502.532	10979.33
502.735	11132.93
502.938	11112.45
503.141	11315.2
503.344	11536.38
503.547	11534.33
503.75	11694.07
503.953	11823.09
504.156	11737.08
504.359	12054.51
504.562	11982.84
504.765	12357.61
504.968	12584.94
505.17	12537.84
505.373	12484.59
505.576	12929
505.779	12941.29
505.982	12992.48
506.185	13340.64
506.387	13246.43
506.59	13533.15
506.793	13799.38
506.996	13838.3
507.198	14237.65
507.401	14022.61
507.604	14200.79
507.807	14409.68
508.009	14806.98
508.212	14483.41
508.415	14819.27
508.617	14944.2
508.82	15130.56
509.022	15019.97
509.225	15411.14
509.428	15452.09
509.63	15667.13
509.833	15507.39
510.035	16166.84
510.238	16148.4
510.44	16488.37
510.643	16652.2
510.845	16629.68
511.048	16609.2
511.25	17035.17
511.453	16848.81
511.655	17506.21
511.858	17358.75
512.06	17530.78
512.262	17661.85
512.465	17739.68
512.667	17786.78
512.87	18089.88
513.072	18173.85
513.274	18595.73
513.477	18640.78
513.679	18759.56
513.881	19169.16
514.084	19416.96
514.286	19187.59
514.488	19736.45
514.69	19738.49
514.893	19818.36
515.095	20146.04
515.297	20086.65
515.499	20158.33
515.701	20936.56
515.904	20658.03
516.106	20924.27
516.308	21241.7
516.51	21669.73
516.712	21331.81
516.914	21962.59
517.116	22036.31
517.318	22019.93
517.52	22331.22
517.722	22237.02
517.925	22658.9
518.127	22832.97
518.329	23238.47
518.531	23138.12
518.733	23465.8
518.935	23672.64
519.136	23897.92
519.338	24072
519.54	24215.35
519.742	24426.29
519.944	24805.17
520.146	24780.59
520.348	24813.36
520.55	25372.46
520.752	25245.48
520.954	25741.09
521.155	25544.48
521.357	25812.77
521.559	25970.46
521.761	26375.96
521.963	26470.17
522.164	26611.48
522.366	26935.06
522.568	27227.92
522.77	27139.85
522.971	27518.73
523.173	27287.31
523.375	27750.15
523.576	27842.31
523.778	27590.41
523.98	28571.38
524.181	28403.45
524.383	28448.5
524.584	28847.86
524.786	28710.64
524.988	28532.47
525.189	29064.94
525.391	29748.96
525.592	29589.22
525.794	29472.49
525.995	29671.14
526.197	29546.22
526.398	29689.57
526.6	29943.52
526.801	29976.29
527.003	30000.86
527.204	30359.26
527.406	30658.26
527.607	30682.84
527.808	30953.17
528.01	30385.88
528.211	30811.86
528.412	31262.41
528.614	31299.28
528.815	31346.38
529.016	31899.33
529.218	31614.66
529.419	31489.74
529.62	31581.9
529.822	31479.5
530.023	31880.9
530.224	31413.96
530.425	32102.08
530.626	31719.11
530.828	31446.73
531.029	32229.05
531.23	31772.36
531.431	31798.98
531.632	32603.83
531.833	32427.71
532.035	32376.51
532.236	32347.84
532.437	32472.76
532.638	32192.19
532.839	32536.25
533.04	32489.15
533.241	32327.36
533.442	32646.84
533.643	32497.34
533.844	32534.2
534.045	32890.55
534.246	32388.8
534.447	32894.64
534.648	32188.1
534.849	32868.02
535.05	32429.76
535.251	32577.21
535.451	32827.06
535.652	32532.15
535.853	32607.93
536.054	32573.11
536.255	32943.8
536.456	32702.14
536.657	33031.86
536.857	32925.36
537.058	32435.9
537.259	32954.04
537.46	33052.34
537.66	32732.86
537.861	33070.77
538.062	32657.08
538.263	32818.87
538.463	32739
538.664	33060.53
538.865	33136.31
539.065	32906.93
539.266	32843.45
539.466	33033.91
539.667	32634.55
539.868	33357.49
540.068	33009.33
540.269	32937.65
540.469	33068.72
540.67	32677.56
540.87	32816.82
541.071	32882.36
541.271	32917.17
541.472	32884.4
541.672	32550.59
541.873	32900.79
542.073	32663.22
542.274	32894.64
542.474	32618.17
542.675	32587.45
542.875	32919.22
543.075	32763.57
543.276	32456.38
543.476	32974.52
543.676	33003.19
543.877	33179.31
544.077	32841.4
544.277	32241.34
544.478	32941.75
544.678	33033.91
544.878	32695.99
545.078	32706.23
545.279	32556.73
545.479	32466.62
545.679	32906.93
545.879	32620.22
546.079	32784.05
546.28	32472.76
546.48	32544.44
546.68	32949.94
546.88	32687.8
547.08	32636.6
547.28	32591.55
547.48	32272.06
547.68	32630.46
547.88	32227.01
548.081	32825.01
548.281	32538.3
548.481	32386.75
548.681	32552.63
548.881	32306.88
549.081	32378.56
549.28	32204.48
549.48	32460.48
549.68	32505.53
549.88	32913.08
550.08	32130.75
550.28	32661.18
550.48	32106.18
550.68	33007.28
550.88	32341.69
551.08	32513.72
551.279	32278.21
551.479	32282.3
551.679	32450.24
551.879	32407.23
552.079	32767.67
552.278	32288.45
552.478	32331.45
552.678	32569.02
552.878	32366.27
553.077	32382.65
553.277	32038.59
553.477	32786.1
553.676	32405.18
553.876	32159.42
554.076	31985.35
554.275	32198.34
554.475	31895.24
554.674	32102.08
554.874	32044.74
555.074	31897.28
555.273	31821.51
555.473	32216.77
555.672	32100.03
555.872	31674.06
556.071	32110.27
556.271	31891.14
556.47	31776.45
556.67	31532.75
556.869	31620.81
557.068	31925.96
557.268	31180.49
557.467	31438.54
557.667	31413.96
557.866	31735.49
558.065	31528.65
558.265	31510.22
558.464	31258.32
558.663	31669.96
558.863	31110.86
559.062	31571.66
559.261	31428.3
559.461	31561.42
559.66	30775
559.859	31284.94
560.058	31153.87
560.258	31149.78
560.457	30949.07
560.656	31354.57
560.855	31094.48
561.054	30654.17
561.253	30754.52
561.453	30867.16
561.652	30719.7
561.851	30729.94
562.05	30500.57
562.249	30340.83
562.448	30568.15
562.647	30271.2
562.846	30512.86
563.045	30299.87
563.244	29978.34
563.443	30478.04
563.642	29918.95
563.841	30228.19
564.04	29738.72
564.239	30349.02
564.438	29787.88
564.637	29955.81
564.836	29884.13
565.035	29449.96
565.234	29642.47
565.432	29462.25
565.631	29540.07
565.83	29757.16
566.029	29300.46
566.228	29482.73
566.427	29296.36
566.625	28985.07
566.824	28714.74
567.023	29365.99
567.222	28438.26
567.42	28921.59
567.619	29052.66
567.818	28835.57
568.016	28927.73
568.215	28843.76
568.414	28456.7
568.612	28630.77
568.811	28555
569.01	28460.79
569.208	28086.01
569.407	28411.64
569.605	28045.05
569.804	28368.63
570.002	27815.68
570.201	27887.36
570.4	27811.59
570.598	27508.49
570.797	27408.14
570.995	27664.13
571.193	27373.32
571.392	27565.83
571.59	27496.2
571.789	27664.13
571.987	27191.05
572.186	27139.85
572.384	26842.9
572.582	27113.23
572.781	27434.76
572.979	26605.33
573.177	26896.14
573.376	26887.95
573.574	26750.74
573.772	26873.62
573.971	26629.91
574.169	26791.7
574.367	26388.25
574.565	26609.43
574.763	26375.96
574.962	26117.92
575.16	25831.2
575.358	25919.26
575.556	25337.64
575.754	26310.43
575.952	25624.36
576.151	26267.42
576.349	25724.71
576.547	25794.34
576.745	25540.39
576.943	25810.72
577.141	25640.74
577.339	25597.73
577.537	25208.62
577.735	25421.61
577.933	25270.06
578.131	25435.94
578.329	25134.89
578.527	24676.15
578.725	25067.31
578.923	25093.93
579.121	24899.37
579.319	24778.54
579.516	24667.95
579.714	24776.5
579.912	24741.68
580.11	24598.32
580.308	24459.06
580.506	24434.49
580.704	24438.58
580.901	24624.95
581.099	24465.21
581.297	24080.19
581.495	24172.35
581.692	24760.11
581.89	23996.22
582.088	23971.64
582.285	24020.8
582.483	23889.73
582.681	24039.23
582.878	23527.24
583.076	23805.76
583.274	24123.19
583.471	23555.91
583.669	23189.32
583.866	23435.08
584.064	23433.03
584.262	23261
584.459	23330.63
584.657	23281.48
584.854	23373.64
585.052	22853.45
585.249	23066.44
585.447	23113.55
585.644	22613.84
585.841	22945.61
586.039	23000.91
586.236	22327.13
586.434	22546.26
586.631	22445.91
586.828	22552.4
587.026	22353.75
587.223	22384.47
587.42	22331.22
587.618	22320.98
587.815	22429.52
588.012	22284.12
588.21	22054.75
588.407	21860.19
588.604	21837.66
588.801	21628.77
588.999	21714.78
589.196	21702.5
589.393	21778.27
589.59	21579.62
589.787	21262.18
589.984	21497.7
590.182	21290.85
590.379	21464.93
590.576	21227.37
590.773	21366.63
590.97	21002.09
591.167	21225.32
591.364	21065.58
591.561	21008.23
591.758	21016.43
591.955	20588.4
592.152	20875.12
592.349	20711.28
592.546	20678.51
592.743	20655.98
592.94	20432.75
593.137	20406.13
593.334	20660.08
593.531	20064.12
593.727	20567.92
593.924	20383.6
594.121	20060.02
594.318	20125.56
594.515	20017.02
594.712	20457.33
594.908	20062.07
595.105	20047.74
595.302	19621.76
595.499	19750.78
595.696	19844.99
595.892	19361.67
596.089	19640.19
596.286	19675.01
596.482	19351.43
596.679	19537.79
596.876	19474.31
597.072	19451.78
597.269	19230.6
597.466	19224.45
597.662	19036.04
597.859	19019.66
598.055	18964.36
598.252	18956.17
598.448	19013.51
598.645	18902.92
598.841	18769.8
599.038	19007.37
599.234	18878.35
599.431	18732.94
599.627	18503.57
599.824	18739.08
600.02	18784.14
600.217	18702.22
600.413	18380.69
600.609	18358.16
600.806	18395.03
601.002	18255.76
601.198	18200.47
601.395	18038.68
601.591	18108.31
601.787	17946.52
601.984	17835.93
602.18	17952.66
602.376	17952.66
602.572	18030.49
602.769	17698.72
602.965	17573.79
603.161	17948.57
603.357	17512.35
603.553	17399.71
603.75	17553.31
603.946	17446.82
604.142	17604.51
604.338	17235.88
604.534	17518.5
604.73	17264.55
604.926	17192.87
605.122	17186.72
605.318	17123.24
605.514	17104.81
605.71	16854.95
605.906	16867.24
606.102	16887.72
606.298	16830.38
606.494	17010.6
606.69	16658.35
606.886	16734.12
607.082	16345.01
607.278	16834.47
607.474	16336.82
607.67	16668.59
607.866	16537.52
608.062	16613.29
608.257	16320.43
608.453	16601.01
608.649	16564.14
608.845	16162.74
609.041	16385.97
609.236	16408.5
609.432	16101.3
609.628	16332.72
609.824	16037.81
610.019	16109.49
610.215	15949.75
610.411	16080.82
610.606	15876.02
610.802	16095.16
610.998	15935.42
611.193	15804.35
611.389	15708.09
611.584	15716.28
611.78	15816.63
611.976	15675.32
612.171	15542.21
612.367	15740.86
612.562	15470.53
612.758	15429.57
612.953	15396.8
613.149	15753.15
613.344	15486.91
613.539	15763.39
613.735	15478.72
613.93	15376.32
614.126	15407.04
614.321	15511.49
614.517	15478.72
614.712	15417.28
614.907	15081.41
615.103	15249.35
615.298	15103.94
615.493	15280.07
615.688	14778.31
615.884	15312.83
616.079	14710.73
616.274	15247.3
616.47	14886.86
616.665	14968.77
616.86	14778.31
617.055	14968.77
617.25	14835.66
617.445	15136.71
617.641	14772.17
617.836	14723.02
618.031	14649.29
618.226	14917.58
618.421	14485.45
618.616	14694.35
618.811	14362.58
619.006	14669.77
619.201	14294.99
619.396	14467.02
619.591	14116.82
619.786	14276.56
619.981	14213.07
620.176	14319.57
620.371	13778.9
620.566	14133.2
620.761	13879.25
620.956	14043.09
621.151	13920.21
621.346	13803.48
621.541	13570.01
621.735	13885.4
621.93	13615.07
622.125	13658.07
622.32	13408.22
622.515	13365.21
622.709	13387.74
622.904	13393.89
623.099	13287.39
623.294	13144.03
623.488	13049.83
623.683	13086.69
623.878	12724.2
624.072	13068.26
624.267	12906.47
624.462	12806.12
624.656	12601.32
624.851	12736.49
625.046	12531.69
625.24	12656.62
625.435	12419.05
625.629	12543.98
625.824	12388.33
626.018	12341.23
626.213	12220.4
626.407	12201.97
626.602	11960.31
626.796	12095.47
626.991	12027.89
627.185	11849.72
627.38	11993.08
627.574	11751.42
627.768	11827.19
627.963	11538.43
628.157	11476.99
628.352	11753.46
628.546	11479.04
628.74	11542.52
628.935	11147.26
629.129	11231.23
629.323	11177.98
629.517	11218.94
629.712	11051.01
629.906	11040.77
630.1	11241.47
630.294	11087.87
630.489	10807.3
630.683	10719.24
630.877	10420.24
631.071	10631.18
631.265	10696.71
631.459	10622.98
631.653	10489.87
631.848	10528.78
632.042	10424.33
632.236	10383.37
632.43	10520.59
632.624	10305.55
632.818	10305.55
633.012	10090.51
633.206	9998.35
633.4	10313.74
633.594	9996.31
633.788	9914.39
633.982	9846.8
634.176	9795.61
634.369	9717.78
634.563	9863.19
634.757	9709.59
634.951	9637.91
635.145	9459.74
635.339	9676.82
635.533	9396.25
635.726	9302.04
635.92	9373.72
636.114	9396.25
636.308	9216.03
636.501	9472.03
636.695	9244.7
636.889	9039.9
637.083	9050.14
637.276	9019.43
637.47	8818.72
637.664	8902.69
637.857	9091.1
638.051	8820.77
638.244	8814.63
638.438	8693.8
638.632	8609.83
638.825	8693.8
639.019	8552.49
639.212	8654.89
639.406	8626.22
639.599	8534.06
639.793	8462.38
639.986	8288.3
640.18	8521.77
640.373	8120.37
640.567	8353.84
640.76	8345.64
640.954	8087.6
641.147	8142.89
641.34	8011.82
641.534	8220.72
641.727	7995.44
641.92	7880.75
642.114	8042.54
642.307	7972.91
642.5	7962.67
642.694	7694.39
642.887	7710.77
643.08	7823.41
643.273	7710.77
643.467	7624.76
643.66	7571.51
643.853	7559.22
644.046	7536.7
644.239	7579.7
644.432	7401.53
644.626	7454.78
644.819	7395.39
645.012	7419.96
645.205	7340.09
645.398	7409.72
645.591	7088.19
645.784	7338.04
645.977	7047.23
646.17	7141.44
646.363	6971.46
646.556	7082.05
646.749	6998.08
646.942	7231.55
647.135	7043.14
647.328	6850.63
647.521	6817.86
647.714	6895.68
647.907	6893.63
648.099	6674.5
648.292	6883.39
648.485	6615.11
648.678	6690.88
648.871	6602.82
649.064	6455.37
649.256	6658.12
649.449	6629.45
649.642	6565.96
649.835	6553.67
650.027	6332.49
650.22	6277.19
650.413	6348.87
650.605	6416.46
650.798	6320.2
650.991	6160.46
651.183	6170.7
651.376	6307.91
651.568	6195.28
651.761	6209.61
651.954	6047.82
652.146	6023.25
652.339	6002.77
652.531	6082.64
652.724	5984.34
652.916	5849.17
653.109	5924.94
653.301	5986.38
653.494	5945.42
653.686	5767.25
653.879	5906.51
654.071	5863.51
654.263	5906.51
654.456	5646.42
654.648	5791.83
654.84	5597.27
655.033	5619.8
655.225	5687.38
655.417	5437.53
655.61	5621.84
655.802	5466.2
655.994	5425.24
656.186	5349.47
656.379	5531.73
656.571	5458.01
656.763	5503.06
656.955	5464.15
657.148	5296.22
657.34	5333.08
657.532	5279.83
657.724	5267.55
657.916	5374.04
658.108	5279.83
658.3	5156.96
658.492	5382.23
658.684	5093.47
658.876	5029.98
659.068	5177.44
659.26	5054.56
659.452	5120.09
659.644	5007.45
659.836	5195.87
660.028	5062.75
660.22	4952.16
660.412	4864.1
660.604	5034.08
660.796	4798.56
660.988	4857.95
661.18	4782.18
661.372	4780.13
661.563	4903.01
661.755	4776.03
661.947	4853.86
662.139	4661.35
662.331	4702.31
662.522	4661.35
662.714	4597.86
662.906	4702.31
663.097	4550.76
663.289	4661.35
663.481	4618.34
663.673	4612.2
663.864	4624.48
664.056	4515.94
664.247	4563.05
664.439	4468.84
664.631	4491.37
664.822	4409.45
665.014	4431.98
665.205	4515.94
665.397	4391.02
665.588	4388.97
665.78	4491.37
665.971	4282.47
666.163	4374.63
666.354	4327.53
666.546	4372.58
666.737	4315.24
666.929	4294.76
667.12	4395.11
667.311	4163.69
667.503	4157.55
667.694	4223.08
667.885	4169.84
668.077	4145.26
668.268	4120.68
668.459	4155.5
668.651	4175.98
668.842	4186.22
669.033	4104.3
669.224	4032.62
669.416	4075.63
669.607	4114.54
669.798	4046.96
669.989	4192.36
670.18	4081.77
670.371	4122.73
670.563	4046.96
670.754	3901.55
670.945	4089.96
671.136	4104.3
671.327	4014.19
671.518	3938.41
671.709	4089.96
671.9	4034.67
672.091	3942.51
672.282	3897.46
672.473	3969.13
672.664	4157.55
672.855	3893.36
673.046	3997.81
673.237	4030.57
673.428	3866.74
673.619	4022.38
673.809	3848.3
674	4073.58
674.191	3838.06
674.382	3897.46
674.573	3805.3
674.764	3754.1
674.954	3858.54
675.145	3678.32
675.336	3819.63
675.527	3823.73
675.717	3772.53
675.908	3680.37
676.099	3842.16
676.289	3758.19
676.48	3825.78
676.671	3833.97
676.861	3752.05
677.052	3817.58
677.243	3829.87
677.433	3854.45
677.624	3780.72
677.814	3907.7
678.005	3608.69
678.195	3823.73
678.386	3811.44
678.576	3686.51
678.767	3702.9
678.957	3754.1
679.148	3893.36
679.338	3784.82
679.529	3729.52
679.719	3811.44
679.909	3887.22
680.1	3817.58
680.29	3739.76
680.481	3764.34
680.671	3864.69
680.861	3778.67
681.052	3852.4
681.242	3811.44
681.432	3836.02
681.622	3688.56
681.813	3598.45
682.003	3737.71
682.193	3696.75
682.383	3840.11
682.573	3711.09
682.764	3745.91
682.954	3694.71
683.144	3776.63
683.334	3666.03
683.524	3696.75
683.714	3762.29
683.904	3690.61
684.094	3678.32
684.284	3756.15
684.474	3768.43
684.664	3768.43
684.854	3756.15
685.044	3608.69
685.234	3506.29
685.424	3657.84
685.614	3696.75
685.804	3616.88
685.994	3674.23
686.184	3651.7
686.374	3582.07
686.564	3539.06
686.753	3512.44
686.943	3514.49
687.133	3520.63
687.323	3440.76
687.513	3668.08
687.702	3489.91
687.892	3553.4
688.082	3592.31
688.272	3512.44
688.461	3532.92
688.651	3453.05
688.841	3432.57
689.03	3410.04
689.22	3231.87
689.41	3541.11
689.599	3367.03
689.789	3227.77
689.979	3303.54
690.168	3219.58
690.358	3170.43
690.547	3084.41
690.737	3311.74
690.926	3174.52
691.116	3207.29
691.305	3281.02
691.495	3166.33
691.684	3055.74
691.874	3262.58
692.063	3221.63
692.252	3221.63
692.442	3139.71
692.631	3053.69
692.82	3102.84
693.01	3125.37
693.199	3045.5
693.388	2992.25
693.578	3045.5
693.767	2965.63
693.956	2992.25
694.146	2998.4
694.335	2979.97
694.524	2877.57
694.713	3108.99
694.902	2990.21
695.092	2936.96
695.281	3033.21
695.47	2898.05
695.659	2893.95
695.848	2889.85
696.037	3006.59
696.226	2828.42
696.415	2906.24
696.604	2863.23
696.793	2861.18
696.982	2824.32
697.171	2959.49
697.36	2775.17
697.549	2760.83
697.738	2781.31
697.927	2801.79
698.116	2746.5
698.305	2910.33
698.494	2922.62
698.683	2850.94
698.872	2902.14
699.061	2654.34
699.25	2803.84
699.438	2787.46
699.627	2781.31
699.816	2904.19
700.005	2787.46
700.193	2855.04
700.382	3004.54
700.571	2814.08
700.76	2816.13
700.948	2941.05
701.137	2850.94
701.326	2867.33
701.514	2654.34
701.703	2785.41
701.892	2797.7
702.08	2812.03
702.269	2863.23
702.457	2773.12
702.646	2766.98
702.834	2740.35
703.023	2746.5
703.212	2805.89
703.4	2826.37
703.589	2721.92
703.777	2736.26
703.965	2803.84
704.154	2809.98
704.342	2871.42
704.531	2787.46
704.719	2869.37
704.907	2838.66
705.096	2791.55
705.284	2775.17
705.472	2650.24
705.661	2889.85
705.849	2861.18
706.037	2877.57
706.226	2789.5
706.414	2930.81
706.602	2760.83
706.79	2750.59
706.979	2754.69
707.167	2963.58
707.355	2777.22
707.543	2951.29
707.731	2846.85
707.919	2896
708.107	2756.74
708.296	2887.81
708.484	2664.58
708.672	2775.17
708.86	2791.55
709.048	2834.56
709.236	2803.84
709.424	3018.88
709.612	2875.52
709.8	2816.13
709.988	2893.95
710.176	2848.9
710.364	2902.14
710.551	2965.63
710.739	2932.86
710.927	2918.53
711.115	2873.47
711.303	2896
711.491	2865.28
711.679	2863.23
711.866	2936.96
712.054	2883.71
712.242	2906.24
712.43	2965.63
712.617	2859.14
712.805	2898.05
712.993	2979.97
713.181	2887.81
713.368	2865.28
713.556	2990.21
713.744	2990.21
713.931	2955.39
714.119	2986.11
714.306	2986.11
714.494	3027.07
714.682	2973.82
714.869	2875.52
715.057	2945.15
715.244	2920.57
715.432	3008.64
715.619	2992.25
715.807	2963.58
715.994	3025.02
716.182	3051.64
716.369	2941.05
716.556	2900.09
716.744	3076.22
716.931	3090.56
717.119	3088.51
717.306	3244.15
717.493	3022.97
717.681	3051.64
717.868	3111.04
718.055	3055.74
718.242	3221.63
718.43	3072.12
718.617	3121.28
718.804	3217.53
718.991	3229.82
719.179	3197.05
719.366	3127.42
719.553	3137.66
719.74	3043.45
719.927	3172.47
720.114	3080.32
720.301	3123.32
720.488	3123.32
720.676	3084.41
720.863	3145.85
721.05	3076.22
721.237	3158.14
721.424	3203.19
721.611	3151.99
721.798	3127.42
721.985	3123.32
722.172	3117.18
722.358	3141.75
722.545	3190.91
722.732	3233.91
722.919	3186.81
723.106	3223.67
723.293	3172.47
723.48	3242.11
723.667	3262.58
723.853	3360.89
724.04	3188.86
724.227	3192.95
724.414	3287.16
724.6	3246.2
724.787	3297.4
724.974	3176.57
725.161	3276.92
725.347	3233.91
725.534	3268.73
725.72	3246.2
725.907	3213.43
726.094	3176.57
726.28	3242.11
726.467	3188.86
726.653	3274.87
726.84	3238.01
727.027	3278.97
727.213	3235.96
727.4	3313.78
727.586	3231.87
727.773	3321.98
727.959	3297.4
728.145	3281.02
728.332	3274.87
728.518	3246.2
728.705	3301.5
728.891	3352.7
729.077	3367.03
729.264	3326.07
729.45	3317.88
729.636	3248.25
729.823	3293.3
730.009	3328.12
730.195	3321.98
730.382	3260.54
730.568	3274.87
730.754	3371.13
730.94	3223.67
731.126	3254.39
731.313	3362.94
731.499	3358.84
731.685	3360.89
731.871	3369.08
732.057	3457.14
732.243	3346.55
732.429	3377.27
732.615	3276.92
732.801	3238.01
732.987	3373.18
733.173	3364.98
733.359	3184.76
733.545	3238.01
733.731	3254.39
733.917	3305.59
734.103	3289.21
734.289	3305.59
734.475	3346.55
734.661	3350.65
734.847	3268.73
735.033	3346.55
735.219	3383.42
735.404	3186.81
735.59	3162.23
735.776	3213.43
735.962	3375.22
736.148	3344.5
736.333	3369.08
736.519	3379.32
736.705	3334.26
736.89	3276.92
737.076	3340.41
737.262	3303.54
737.447	3160.19
737.633	3299.45
737.819	3313.78
738.004	3248.25
738.19	3219.58
738.375	3149.95
738.561	3352.7
738.747	3238.01
738.932	3151.99
739.118	3293.3
739.303	3162.23
739.489	3233.91
739.674	3252.35
739.859	3203.19
740.045	3203.19
740.23	3166.33
740.416	3072.12
740.601	3217.53
740.786	3117.18
740.972	3129.47
741.157	3162.23
741.342	3174.52
741.528	3051.64
741.713	3213.43
741.898	3201.15
742.084	3154.04
742.269	3143.8
742.454	3076.22
742.639	3061.88
742.824	3076.22
743.01	3074.17
743.195	3170.43
743.38	3086.46
743.565	3149.95
743.75	3041.4
743.935	3102.84
744.12	3113.08
744.305	2906.24
744.49	2904.19
744.675	3031.16
744.86	2941.05
745.045	3033.21
745.23	2928.77
745.415	2840.7
745.6	2916.48
745.785	2865.28
745.97	2957.44
746.155	2926.72
746.34	2826.37
746.525	2975.87
746.71	2945.15
746.895	2816.13
747.079	2752.64
747.264	2812.03
747.449	2740.35
747.634	2777.22
747.819	2779.26
748.003	2740.35
748.188	2656.39
748.373	2474.12
748.557	2713.73
748.742	2586.76
748.927	2601.09
749.111	2646.15
749.296	2572.42
749.481	2566.28
749.665	2482.31
749.85	2517.12
750.034	2517.12
750.219	2443.4
750.404	2478.21
750.588	2390.15
750.773	2420.87
750.957	2597
751.141	2551.94
751.326	2486.4
751.51	2369.67
751.695	2336.9
751.879	2361.48
752.064	2367.62
752.248	2384.01
752.432	2398.34
752.617	2283.66
752.801	2211.98
752.985	2273.42
753.17	2195.59
753.354	2234.5
753.538	2115.72
753.722	2197.64
753.907	2236.55
754.091	2123.91
754.275	2199.69
754.459	2160.78
754.643	2105.48
754.828	2044.04
755.012	2179.21
755.196	2060.43
755.38	2017.42
755.564	2027.66
755.748	1949.84
755.932	2121.87
756.116	2068.62
756.3	2011.28
756.484	1900.69
756.668	2025.61
756.852	1863.82
757.036	1917.07
757.22	1847.44
757.404	1919.12
757.588	1872.01
757.772	1861.77
757.956	1906.83
758.14	1912.97
758.323	1722.51
758.507	1872.01
758.691	1796.24
758.875	1818.77
759.059	1872.01
759.242	1831.05
759.426	1833.1
759.61	1585.3
759.794	1757.33
759.977	1833.1
760.161	1798.29
760.345	1699.98
760.528	1716.37
760.712	1679.51
760.895	1646.74
761.079	1693.84
761.263	1681.55
761.446	1570.96
761.63	1714.32
761.813	1781.9
761.997	1648.79
762.18	1568.91
762.364	1585.3
762.547	1605.78
762.731	1523.86
762.914	1630.35
763.098	1597.59
763.281	1566.87
763.464	1394.84
763.648	1491.09
763.831	1501.33
764.015	1493.14
764.198	1472.66
764.381	1501.33
764.564	1544.34
764.748	1427.6
764.931	1618.07
765.114	1362.07
765.297	1499.28
765.481	1505.43
765.664	1470.61
765.847	1390.74
766.03	1568.91
766.213	1323.16
766.397	1456.28
766.58	1360.02
766.763	1480.85
766.946	1394.84
767.129	1419.41
767.312	1319.06
767.495	1405.08
767.678	1384.6
767.861	1366.17
768.044	1337.49
768.227	1386.65
768.41	1312.92
768.593	1378.45
768.776	1368.21
768.959	1421.46
769.142	1323.16
769.324	1237.14
769.507	1298.58
769.69	1349.78
769.873	1292.44
770.056	1337.49
770.239	1218.71
770.421	1403.03
770.604	1265.82
770.787	1212.57
770.97	1286.3
771.152	1245.34
771.335	1237.14
771.518	1165.46
771.7	1304.73
771.883	1308.82
772.066	1296.53
772.248	1206.42
772.431	1300.63
772.613	1259.67
772.796	1169.56
772.978	1173.66
773.161	1226.9
773.343	1126.55
773.526	1108.12
773.708	1075.35
773.891	1036.44
774.073	1120.41
774.256	1114.27
774.438	1208.47
774.621	1110.17
774.803	1101.98
774.985	1075.35
775.168	1136.79
775.35	1026.2
775.532	1126.55
775.715	1061.02
775.897	1056.92
776.079	1073.31
776.261	1073.31
776.444	1050.78
776.626	1009.82
776.808	954.52
776.99	968.86
777.173	983.2
777.355	954.52
777.537	1048.73
777.719	989.34
777.901	811.17
778.083	929.95
778.265	882.85
778.447	987.29
778.629	913.56
778.811	956.57
778.993	839.84
779.175	909.47
779.357	903.32
779.539	866.46
779.721	921.76
779.903	948.38
780.085	805.02
780.267	925.85
780.449	815.26
780.631	813.21
780.812	919.71
780.994	850.08
781.176	843.93
781.358	800.93
781.54	790.69
781.721	698.53
781.903	811.17
782.085	741.54
782.267	874.65
782.448	798.88
782.63	723.1
782.812	739.49
782.993	733.34
783.175	807.07
783.357	723.1
783.538	745.63
783.72	788.64
783.901	735.39
784.083	712.86
784.264	659.62
784.446	673.95
784.627	649.38
784.809	780.45
784.99	731.3
785.172	723.1
785.353	712.86
785.535	706.72
785.716	741.54
785.897	665.76
786.079	673.95
786.26	632.99
786.441	676
786.623	614.56
786.804	725.15
786.985	647.33
787.167	608.42
787.348	559.27
787.529	624.8
787.71	549.03
787.891	624.8
788.073	479.4
788.254	628.9
788.435	682.14
788.616	563.36
788.797	561.31
788.978	592.03
789.159	526.5
789.34	579.75
789.522	606.37
789.703	579.75
789.884	559.27
790.065	542.88
790.246	682.14
790.427	487.59
790.607	440.48
790.788	577.7
790.969	551.07
791.15	569.51
791.331	514.21
791.512	469.16
791.693	426.15
791.874	471.2
792.054	630.95
792.235	526.5
792.416	465.06
792.597	409.76
792.778	508.07
792.958	436.39
793.139	450.72
793.32	475.3
793.5	356.52
793.681	481.44
793.862	428.2
794.042	497.83
794.223	446.63
794.404	434.34
794.584	413.86
794.765	448.68
794.945	454.82
795.126	481.44
795.306	405.67
795.487	387.24
795.667	403.62
795.848	411.81
796.028	387.24
796.209	518.31
796.389	446.63
796.57	460.96
796.75	436.39
796.93	385.19
797.111	372.9
797.291	417.96
797.471	458.92
797.652	385.19
797.832	397.48
798.012	520.35
798.192	460.96
798.373	387.24
798.553	360.61
798.733	354.47
798.913	270.5
799.093	356.52
799.274	336.04
799.454	377
799.634	342.18
799.814	374.95
799.994	358.57
800.174	467.11
800.354	340.13
800.534	366.76
800.714	360.61
800.894	342.18
801.074	233.64
801.254	329.89
801.434	311.46
801.614	338.09
801.794	323.75
801.974	1183.9
802.154	319.65
802.334	417.96
802.514	354.47
802.693	280.74
802.873	250.02
803.053	311.46
803.233	370.85
803.413	366.76
803.592	319.65
803.772	315.56
803.952	333.99
804.131	293.03
804.311	340.13
804.491	346.28
804.67	293.03
804.85	250.02
805.03	329.89
805.209	344.23
805.389	286.89
805.568	262.31
805.748	258.21
805.928	264.36
806.107	327.85
806.287	276.65
806.466	239.78
806.646	295.08
806.825	303.27
807.004	245.93
807.184	348.33
807.363	313.51
807.543	309.41
807.722	299.17
807.901	311.46
808.081	270.5
808.26	190.63
808.439	272.55
808.619	331.94
808.798	250.02
808.977	225.45
809.156	223.4
809.336	288.93
809.515	260.26
809.694	254.12
809.873	239.78
810.052	155.82
810.231	307.37
810.411	311.46
810.59	268.45
810.769	241.83
810.948	196.78
811.127	235.69
811.306	223.4
811.485	161.96
811.664	295.08
811.843	219.3
812.022	239.78
812.201	229.54
812.38	245.93
812.559	233.64
812.737	288.93
812.916	190.63
813.095	204.97
813.274	286.89
813.453	270.5
813.632	231.59
813.811	268.45
813.989	141.48
814.168	223.4
814.347	247.97
814.526	155.82
814.704	229.54
814.883	272.55
815.062	172.2
815.24	309.41
815.419	217.26
815.598	250.02
815.776	100.52
815.955	215.21
816.133	198.82
816.312	207.02
816.49	217.26
816.669	110.76
816.847	110.76
817.026	159.91
817.204	194.73
817.383	196.78
817.561	219.3
817.74	264.36
817.918	258.21
818.097	147.62
818.275	159.91
818.453	159.91
818.632	229.54
818.81	198.82
818.988	127.14
819.167	80.04
819.345	202.92
819.523	196.78
819.701	207.02
819.879	116.9
820.058	227.5
820.236	166.06
820.414	221.35
820.592	180.39
820.77	176.3
820.948	151.72
821.127	149.67
821.305	172.2
821.483	102.57
821.661	127.14
821.839	145.58
822.017	110.76
822.195	123.05
822.373	155.82
822.551	143.53
822.729	252.07
822.907	125.1
823.085	141.48
823.262	168.1
823.44	211.11
823.618	135.34
823.796	229.54
823.974	106.67
824.152	198.82
824.329	104.62
824.507	176.3
824.685	174.25
824.863	125.1
825.04	159.91
825.218	155.82
825.396	190.63
825.574	161.96
825.751	192.68
825.929	176.3
826.107	110.76
826.284	121
826.462	235.69
826.639	155.82
826.817	196.78
826.994	147.62
827.172	172.2
827.349	127.14
827.527	151.72
827.704	69.8
827.882	123.05
828.059	252.07
828.237	213.16
828.414	149.67
828.591	149.67
828.769	164.01
828.946	98.47
829.124	172.2
829.301	161.96
829.478	104.62
829.655	147.62
829.833	155.82
830.01	-1.88
830.187	170.15
830.364	174.25
830.542	151.72
830.719	114.86
830.896	190.63
831.073	141.48
831.25	84.14
831.427	202.92
831.604	157.86
831.782	104.62
831.959	137.38
832.136	151.72
832.313	114.86
832.49	131.24
832.667	178.34
832.844	65.71
833.021	118.95
833.198	123.05
833.374	172.2
833.551	145.58
833.728	110.76
833.905	116.9
834.082	59.56
834.259	127.14
834.436	143.53
834.612	139.43
834.789	139.43
834.966	108.71
835.143	82.09
835.319	77.99
835.496	143.53
835.673	145.58
835.85	149.67
836.026	67.75
836.203	192.68
836.38	32.94
836.556	147.62
836.733	108.71
836.909	116.9
837.086	16.55
837.262	65.71
837.439	106.67
837.616	164.01
837.792	61.61
837.968	133.29
838.145	84.14
838.321	82.09
838.498	139.43
838.674	118.95
838.851	104.62
839.027	100.52
839.203	98.47
839.38	176.3
839.556	88.23
839.732	73.9
839.909	151.72
840.085	69.8
840.261	84.14
840.437	102.57
840.614	127.14
840.79	153.77
840.966	61.61
841.142	135.34
841.318	139.43
841.494	77.99
841.671	116.9
841.847	98.47
842.023	0.17
842.199	102.57
842.375	121
842.551	57.51
842.727	-1.88
842.903	137.38
843.079	20.65
843.255	90.28
843.431	67.75
843.607	125.1
843.783	26.79
843.959	82.09
844.134	114.86
844.31	133.29
844.486	43.18
844.662	0.17
844.838	100.52
845.013	32.94
845.189	143.53
845.365	67.75
845.541	47.27
845.716	84.14
845.892	90.28
846.068	16.55
846.244	2.22
846.419	82.09
846.595	53.42
846.77	8.36
846.946	92.33
847.122	45.23
847.297	49.32
847.473	73.9
847.648	-1.88
847.824	34.99
847.999	-5.97
848.175	57.51
848.35	51.37
848.526	106.67
848.701	34.99
848.876	47.27
849.052	94.38
849.227	43.18
849.403	82.09
849.578	49.32
849.753	49.32
849.929	207.02
850.104	49.32
850.279	69.8
850.454	65.71
850.63	49.32
850.805	75.95
850.98	100.52
851.155	51.37
851.33	59.56
851.505	77.99
851.681	84.14
851.856	-12.12
852.031	104.62
852.206	80.04
852.381	80.04
852.556	67.75
852.731	75.95
852.906	131.24
853.081	57.51
853.256	32.94
853.431	4.27
853.606	102.57
853.781	24.75
853.956	10.41
854.131	22.7
854.305	16.55
854.48	-36.69
854.655	-3.93
854.83	12.46
855.005	16.55
855.18	30.89
855.354	53.42
855.529	174.25
855.704	43.18
855.879	94.38
856.053	-38.74
856.228	53.42
856.403	45.23
856.577	106.67
856.752	39.08
856.926	28.84
857.101	102.57
857.276	-14.17
857.45	47.27
857.625	59.56
857.799	24.75
857.974	32.94
858.148	71.85
858.323	71.85
858.497	2.22
858.672	55.47
858.846	-5.97
859.02	41.13
859.195	45.23
859.369	59.56
859.543	80.04
859.718	24.75
859.892	96.43
860.066	47.27
860.241	49.32
860.415	14.51
860.589	24.75
860.763	41.13
860.938	30.89
861.112	51.37
861.286	53.42
861.46	43.18
861.634	-12.12
861.808	61.61
861.982	-44.88
862.157	49.32
862.331	10.41
862.505	-16.21
862.679	55.47
862.853	84.14
863.027	73.9
863.201	22.7
863.375	30.89
863.549	14.51
863.722	69.8
863.896	106.67
864.07	-12.12
864.244	18.6
864.418	34.99
864.592	51.37
864.766	41.13
864.939	-22.36
865.113	65.71
865.287	24.75
865.461	8.36
865.634	24.75
865.808	41.13
865.982	20.65
866.156	0.17
866.329	-18.26
866.503	73.9
866.676	55.47
866.85	53.42
867.024	34.99
867.197	65.71
867.371	67.75
867.544	30.89
867.718	-46.93
867.891	61.61
868.065	-44.88
868.238	63.66
868.412	65.71
868.585	45.23
868.759	41.13
868.932	2.22
869.105	69.8
869.279	-36.69
869.452	34.99
869.625	37.03
869.799	90.28
869.972	-48.98
870.145	26.79
870.319	-10.07
870.492	65.71
870.665	16.55
870.838	0.17
871.011	22.7
871.185	-48.98
871.358	39.08
871.531	98.47
871.704	-5.97
871.877	-10.07
872.05	34.99
872.223	-30.55
872.396	28.84
872.569	39.08
872.742	-12.12
872.915	16.55
873.088	-48.98
873.261	32.94
873.434	41.13
873.607	-53.08
873.78	92.33
873.953	-20.31
874.126	-8.02
874.299	30.89
874.471	61.61
874.644	8.36
874.817	67.75
874.99	43.18
875.163	-10.07
875.335	28.84
875.508	26.79
875.681	22.7
875.853	-14.17
876.026	41.13
876.199	94.38
876.371	90.28
876.544	82.09
876.717	-20.31
876.889	-65.36
877.062	53.42
877.234	-51.03
877.407	10.41
877.579	67.75
877.752	90.28
877.924	12.46
878.097	32.94
878.269	16.55
878.442	-12.12
878.614	22.7
878.786	8.36
878.959	-12.12
879.131	98.47
879.303	-55.12
879.476	65.71
879.648	24.75
879.82	28.84
879.993	-1.88
880.165	39.08
880.337	-63.32
880.509	-28.5
880.681	24.75
880.854	-89.94
881.026	73.9
881.198	24.75
881.37	-69.46
881.542	73.9
881.714	39.08
881.886	4.27
882.058	10.41
882.23	-10.07
882.402	82.09
882.574	41.13
882.746	55.47
882.918	77.99
883.09	69.8
883.262	-55.12
883.434	84.14
883.606	32.94
883.778	-118.61
883.95	125.1
884.122	26.79
884.293	82.09
884.465	-36.69
884.637	65.71
884.809	53.42
884.98	2.22
885.152	-30.55
885.324	8.36
885.496	18.6
885.667	16.55
885.839	61.61
886.011	96.43
886.182	84.14
886.354	26.79
886.525	45.23
886.697	94.38
886.869	-85.84
887.04	67.75
887.212	37.03
887.383	90.28
887.555	37.03
887.726	43.18
887.897	16.55
888.069	24.75
888.24	106.67
888.412	30.89
888.583	-26.45
888.754	34.99
888.926	-38.74
889.097	-73.56
889.268	-32.6
889.44	16.55
889.611	-36.69
889.782	16.55
889.953	-38.74
890.125	129.19
890.296	43.18
890.467	53.42
890.638	-3.93
890.809	-34.64
890.98	-3.93
891.151	57.51
891.323	-3.93
891.494	-24.4
891.665	16.55
891.836	39.08
892.007	14.51
892.178	-14.17
892.349	18.6
892.52	-69.46
892.691	10.41
892.862	-83.8
893.032	-14.17
893.203	-18.26
893.374	-8.02
893.545	14.51
893.716	55.47
893.887	-40.79
894.057	-57.17
894.228	4.27
894.399	47.27
894.57	65.71
894.74	18.6
894.911	8.36
895.082	20.65
895.253	-46.93
895.423	-14.17
895.594	125.1
895.764	65.71
895.935	12.46
896.106	12.46
896.276	-12.12
896.447	73.9
896.617	-10.07
896.788	-18.26
896.958	41.13
897.129	6.31
897.299	4.27
897.47	28.84
897.64	59.56
897.81	86.19
897.981	-3.93
898.151	-81.75
898.322	41.13
898.492	-22.36
898.662	2.22
898.832	-46.93
899.003	-79.7
899.173	-16.21
899.343	-83.8
899.513	30.89
