Data from USB4F104151__46__13-05-22-684.txt Node

Date: Fri Mar 14 13:05:22 EDT 2025
User: louis
Spectrometer: USB4F10415
Trigger mode: 4
Integration Time (sec): 4.000000E-2
Scans to average: 1
Electric dark correction enabled: true
Nonlinearity correction enabled: false
Boxcar width: 0
XAxis mode: Wavelengths
Number of Pixels in Spectrum: 3648
>>>>>Begin Spectral Data<<<<<
178.204	-164.86
178.424	-164.86
178.644	-164.86
178.864	-191.49
179.084	-236.54
179.304	-54.27
179.524	-48.13
179.744	-19.46
179.964	46.08
180.184	-25.6
180.404	1.02
180.624	58.37
180.844	64.51
181.064	-5.12
181.283	-64.51
181.503	27.65
181.723	19.46
181.943	-11.26
182.163	91.13
182.383	-1.02
182.602	91.13
182.822	103.42
183.042	58.37
183.262	17.41
183.482	-1.02
183.701	33.79
183.921	60.42
184.141	31.74
184.361	50.18
184.58	17.41
184.8	33.79
185.02	54.27
185.239	152.57
185.459	44.03
185.679	13.31
185.898	-37.89
186.118	66.56
186.338	64.51
186.557	27.65
186.777	11.26
186.997	-37.89
187.216	29.7
187.436	134.14
187.655	105.47
187.875	50.18
188.095	27.65
188.314	72.7
188.534	95.23
188.753	44.03
188.973	62.46
189.192	142.33
189.412	66.56
189.631	62.46
189.851	21.5
190.07	138.24
190.29	54.27
190.509	72.7
190.729	52.22
190.948	50.18
191.168	214.01
191.387	60.42
191.607	1.02
191.826	97.28
192.045	64.51
192.265	82.94
192.484	64.51
192.704	-3.07
192.923	54.27
193.142	187.39
193.362	99.33
193.581	119.81
193.8	41.98
194.02	44.03
194.239	111.61
194.458	64.51
194.678	48.13
194.897	17.41
195.116	9.22
195.335	48.13
195.555	54.27
195.774	-7.17
195.993	89.09
196.212	21.5
196.432	58.37
196.651	58.37
196.87	21.5
197.089	191.49
197.308	31.74
197.528	21.5
197.747	19.46
197.966	25.6
198.185	179.2
198.404	9.22
198.623	76.8
198.842	48.13
199.062	54.27
199.281	58.37
199.5	66.56
199.719	72.7
199.938	62.46
200.157	74.75
200.376	33.79
200.595	140.29
200.814	89.09
201.033	44.03
201.252	130.05
201.471	50.18
201.69	89.09
201.909	27.65
202.128	105.47
202.347	109.57
202.566	-1.02
202.785	7.17
203.004	-15.36
203.223	181.25
203.442	33.79
203.661	31.74
203.879	62.46
204.098	60.42
204.317	66.56
204.536	89.09
204.755	82.94
204.974	31.74
205.193	48.13
205.411	142.33
205.63	50.18
205.849	58.37
206.068	7.17
206.287	11.26
206.505	56.32
206.724	9.22
206.943	46.08
207.162	3.07
207.381	80.89
207.599	37.89
207.818	72.7
208.037	44.03
208.255	29.7
208.474	56.32
208.693	46.08
208.911	-5.12
209.13	-1.02
209.349	52.22
209.567	89.09
209.786	93.18
210.005	113.66
210.223	54.27
210.442	41.98
210.661	95.23
210.879	29.7
211.098	46.08
211.316	101.37
211.535	64.51
211.753	5.12
211.972	58.37
212.191	-27.65
212.409	-41.98
212.628	-37.89
212.846	-27.65
213.065	62.46
213.283	68.61
213.502	-39.94
213.72	37.89
213.938	82.94
214.157	7.17
214.375	39.94
214.594	1.02
214.812	52.22
215.031	84.99
215.249	37.89
215.467	44.03
215.686	68.61
215.904	78.85
216.122	58.37
216.341	136.19
216.559	82.94
216.778	113.66
216.996	146.43
217.214	7.17
217.432	-9.22
217.651	-7.17
217.869	39.94
218.087	76.8
218.306	31.74
218.524	-27.65
218.742	-46.08
218.96	23.55
219.179	48.13
219.397	82.94
219.615	68.61
219.833	41.98
220.051	23.55
220.27	134.14
220.488	7.17
220.706	111.61
220.924	35.84
221.142	9.22
221.36	101.37
221.578	99.33
221.796	-23.55
222.015	109.57
222.233	87.04
222.451	52.22
222.669	-25.6
222.887	15.36
223.105	62.46
223.323	41.98
223.541	25.6
223.759	121.85
223.977	-31.74
224.195	82.94
224.413	56.32
224.631	62.46
224.849	-5.12
225.067	160.77
225.285	13.31
225.503	33.79
225.721	74.75
225.939	125.95
226.157	13.31
226.375	97.28
226.592	23.55
226.81	37.89
227.028	107.52
227.246	70.65
227.464	17.41
227.682	9.22
227.9	-1.02
228.117	33.79
228.335	19.46
228.553	7.17
228.771	5.12
228.989	64.51
229.206	64.51
229.424	48.13
229.642	11.26
229.86	-29.7
230.077	70.65
230.295	46.08
230.513	138.24
230.731	33.79
230.948	13.31
231.166	140.29
231.384	50.18
231.601	5.12
231.819	78.85
232.037	41.98
232.254	-17.41
232.472	39.94
232.689	39.94
232.907	99.33
233.125	-21.5
233.342	60.42
233.56	1.02
233.777	-21.5
233.995	27.65
234.213	107.52
234.43	97.28
234.648	-46.08
234.865	60.42
235.083	68.61
235.3	1.02
235.518	-5.12
235.735	125.95
235.953	101.37
236.17	-23.55
236.388	27.65
236.605	-21.5
236.822	123.9
237.04	64.51
237.257	97.28
237.475	1.02
237.692	89.09
237.909	89.09
238.127	35.84
238.344	23.55
238.562	72.7
238.779	13.31
238.996	19.46
239.214	-39.94
239.431	-1.02
239.648	33.79
239.865	80.89
240.083	101.37
240.3	33.79
240.517	35.84
240.735	52.22
240.952	74.75
241.169	89.09
241.386	27.65
241.603	31.74
241.821	3.07
242.038	56.32
242.255	95.23
242.472	-41.98
242.689	78.85
242.907	89.09
243.124	66.56
243.341	15.36
243.558	27.65
243.775	-23.55
243.992	-1.02
244.209	50.18
244.426	185.34
244.643	48.13
244.86	52.22
245.078	123.9
245.295	117.76
245.512	72.7
245.729	-15.36
245.946	60.42
246.163	41.98
246.38	84.99
246.597	56.32
246.814	64.51
247.031	64.51
247.248	-7.17
247.464	91.13
247.681	76.8
247.898	11.26
248.115	33.79
248.332	-5.12
248.549	84.99
248.766	132.09
248.983	1.02
249.2	11.26
249.417	103.42
249.633	80.89
249.85	33.79
250.067	78.85
250.284	25.6
250.501	101.37
250.717	99.33
250.934	13.31
251.151	-21.5
251.368	17.41
251.585	58.37
251.801	109.57
252.018	9.22
252.235	89.09
252.451	-13.31
252.668	33.79
252.885	125.95
253.102	60.42
253.318	82.94
253.535	76.8
253.752	3.07
253.968	-21.5
254.185	9.22
254.401	48.13
254.618	95.23
254.835	54.27
255.051	97.28
255.268	35.84
255.484	64.51
255.701	97.28
255.917	39.94
256.134	25.6
256.351	35.84
256.567	9.22
256.784	68.61
257	35.84
257.217	50.18
257.433	80.89
257.65	15.36
257.866	113.66
258.082	62.46
258.299	33.79
258.515	74.75
258.732	-19.46
258.948	-17.41
259.165	50.18
259.381	56.32
259.597	37.89
259.814	52.22
260.03	7.17
260.246	68.61
260.463	158.72
260.679	74.75
260.895	82.94
261.112	50.18
261.328	-21.5
261.544	-25.6
261.761	115.71
261.977	9.22
262.193	-23.55
262.409	9.22
262.626	35.84
262.842	109.57
263.058	25.6
263.274	113.66
263.49	68.61
263.707	107.52
263.923	-15.36
264.139	5.12
264.355	60.42
264.571	82.94
264.787	72.7
265.004	93.18
265.22	82.94
265.436	82.94
265.652	23.55
265.868	39.94
266.084	-41.98
266.3	5.12
266.516	-19.46
266.732	115.71
266.948	23.55
267.164	84.99
267.38	70.65
267.596	21.5
267.812	84.99
268.028	140.29
268.244	11.26
268.46	44.03
268.676	121.85
268.892	52.22
269.108	-74.75
269.324	41.98
269.54	-25.6
269.756	37.89
269.972	50.18
270.188	44.03
270.403	-17.41
270.619	44.03
270.835	50.18
271.051	99.33
271.267	-17.41
271.483	52.22
271.698	113.66
271.914	93.18
272.13	15.36
272.346	109.57
272.562	87.04
272.777	44.03
272.993	13.31
273.209	39.94
273.425	95.23
273.64	3.07
273.856	48.13
274.072	107.52
274.287	60.42
274.503	56.32
274.719	-74.75
274.934	54.27
275.15	-5.12
275.366	-17.41
275.581	31.74
275.797	76.8
276.012	99.33
276.228	-25.6
276.444	46.08
276.659	23.55
276.875	27.65
277.09	-68.61
277.306	76.8
277.521	31.74
277.737	58.37
277.952	66.56
278.168	72.7
278.383	113.66
278.599	58.37
278.814	72.7
279.03	29.7
279.245	95.23
279.461	33.79
279.676	107.52
279.892	33.79
280.107	39.94
280.322	-48.13
280.538	-9.22
280.753	-17.41
280.969	103.42
281.184	9.22
281.399	91.13
281.615	9.22
281.83	9.22
282.045	66.56
282.26	113.66
282.476	60.42
282.691	76.8
282.906	3.07
283.122	54.27
283.337	60.42
283.552	15.36
283.767	-3.07
283.983	19.46
284.198	1.02
284.413	68.61
284.628	-46.08
284.843	-7.17
285.058	50.18
285.274	56.32
285.489	1.02
285.704	39.94
285.919	56.32
286.134	56.32
286.349	50.18
286.564	44.03
286.779	70.65
286.995	27.65
287.21	17.41
287.425	97.28
287.64	46.08
287.855	23.55
288.07	-39.94
288.285	58.37
288.5	113.66
288.715	64.51
288.93	62.46
289.145	-15.36
289.36	25.6
289.575	15.36
289.79	68.61
290.004	-31.74
290.219	39.94
290.434	46.08
290.649	-35.84
290.864	-48.13
291.079	-25.6
291.294	31.74
291.509	52.22
291.724	93.18
291.938	-25.6
292.153	11.26
292.368	62.46
292.583	17.41
292.798	56.32
293.012	41.98
293.227	107.52
293.442	-29.7
293.657	125.95
293.871	101.37
294.086	89.09
294.301	203.77
294.516	44.03
294.73	58.37
294.945	7.17
295.16	101.37
295.374	164.86
295.589	62.46
295.804	64.51
296.018	64.51
296.233	113.66
296.447	58.37
296.662	5.12
296.877	74.75
297.091	113.66
297.306	80.89
297.52	-5.12
297.735	48.13
297.949	97.28
298.164	-17.41
298.378	74.75
298.593	50.18
298.807	54.27
299.022	19.46
299.236	121.85
299.451	-3.07
299.665	52.22
299.88	44.03
300.094	58.37
300.309	58.37
300.523	50.18
300.737	62.46
300.952	89.09
301.166	23.55
301.381	33.79
301.595	58.37
301.809	113.66
302.024	-9.22
302.238	-29.7
302.452	82.94
302.667	95.23
302.881	62.46
303.095	74.75
303.309	-27.65
303.524	7.17
303.738	21.5
303.952	11.26
304.166	44.03
304.381	-66.56
304.595	138.24
304.809	35.84
305.023	60.42
305.237	31.74
305.452	1.02
305.666	56.32
305.88	56.32
306.094	99.33
306.308	74.75
306.522	103.42
306.736	97.28
306.95	111.61
307.164	31.74
307.379	7.17
307.593	93.18
307.807	87.04
308.021	-1.02
308.235	80.89
308.449	-31.74
308.663	19.46
308.877	136.19
309.091	111.61
309.305	52.22
309.519	29.7
309.733	82.94
309.947	-70.65
310.161	128
310.374	95.23
310.588	113.66
310.802	-60.42
311.016	25.6
311.23	50.18
311.444	39.94
311.658	3.07
311.872	89.09
312.085	7.17
312.299	52.22
312.513	37.89
312.727	93.18
312.941	-48.13
313.154	109.57
313.368	72.7
313.582	54.27
313.796	23.55
314.009	15.36
314.223	107.52
314.437	39.94
314.651	84.99
314.864	41.98
315.078	13.31
315.292	31.74
315.505	78.85
315.719	134.14
315.933	64.51
316.146	39.94
316.36	-17.41
316.573	152.57
316.787	46.08
317.001	64.51
317.214	-21.5
317.428	35.84
317.641	82.94
317.855	50.18
318.068	-11.26
318.282	62.46
318.495	146.43
318.709	39.94
318.922	60.42
319.136	82.94
319.349	162.81
319.563	33.79
319.776	35.84
319.99	41.98
320.203	44.03
320.417	66.56
320.63	58.37
320.843	224.25
321.057	72.7
321.27	39.94
321.483	46.08
321.697	56.32
321.91	46.08
322.124	121.85
322.337	31.74
322.55	33.79
322.763	111.61
322.977	15.36
323.19	41.98
323.403	76.8
323.617	107.52
323.83	97.28
324.043	7.17
324.256	68.61
324.469	-54.27
324.683	23.55
324.896	39.94
325.109	80.89
325.322	-33.79
325.535	48.13
325.748	39.94
325.962	11.26
326.175	17.41
326.388	109.57
326.601	68.61
326.814	97.28
327.027	50.18
327.24	175.1
327.453	-89.09
327.666	17.41
327.879	82.94
328.092	111.61
328.305	105.47
328.518	76.8
328.731	48.13
328.944	82.94
329.157	97.28
329.37	-25.6
329.583	99.33
329.796	146.43
330.009	-7.17
330.222	50.18
330.435	52.22
330.648	33.79
330.861	-21.5
331.073	87.04
331.286	101.37
331.499	62.46
331.712	60.42
331.925	68.61
332.138	66.56
332.35	66.56
332.563	-17.41
332.776	123.9
332.989	21.5
333.202	97.28
333.414	58.37
333.627	64.51
333.84	39.94
334.053	74.75
334.265	93.18
334.478	7.17
334.691	46.08
334.903	101.37
335.116	48.13
335.329	68.61
335.541	15.36
335.754	91.13
335.966	44.03
336.179	31.74
336.392	87.04
336.604	80.89
336.817	29.7
337.029	80.89
337.242	80.89
337.454	113.66
337.667	56.32
337.88	105.47
338.092	97.28
338.305	62.46
338.517	48.13
338.729	54.27
338.942	150.53
339.154	-31.74
339.367	5.12
339.579	58.37
339.792	-9.22
340.004	27.65
340.217	-31.74
340.429	99.33
340.641	33.79
340.854	3.07
341.066	56.32
341.278	35.84
341.491	50.18
341.703	29.7
341.915	21.5
342.128	68.61
342.34	39.94
342.552	7.17
342.764	56.32
342.977	27.65
343.189	109.57
343.401	31.74
343.613	25.6
343.826	64.51
344.038	-89.09
344.25	62.46
344.462	39.94
344.674	-41.98
344.886	97.28
345.099	5.12
345.311	103.42
345.523	111.61
345.735	-15.36
345.947	64.51
346.159	121.85
346.371	93.18
346.583	117.76
346.795	154.62
347.007	58.37
347.219	82.94
347.431	39.94
347.643	97.28
347.855	15.36
348.067	87.04
348.279	7.17
348.491	72.7
348.703	33.79
348.915	89.09
349.127	21.5
349.339	-25.6
349.551	-11.26
349.763	109.57
349.975	44.03
350.187	72.7
350.399	134.14
350.61	72.7
350.822	111.61
351.034	31.74
351.246	-9.22
351.458	70.65
351.669	101.37
351.881	35.84
352.093	103.42
352.305	125.95
352.517	5.12
352.728	111.61
352.94	109.57
353.152	-41.98
353.363	54.27
353.575	113.66
353.787	181.25
353.999	44.03
354.21	132.09
354.422	95.23
354.633	48.13
354.845	66.56
355.057	11.26
355.268	48.13
355.48	115.71
355.692	-115.71
355.903	109.57
356.115	37.89
356.326	-21.5
356.538	107.52
356.749	154.62
356.961	56.32
357.172	48.13
357.384	29.7
357.595	101.37
357.807	3.07
358.018	-48.13
358.23	48.13
358.441	111.61
358.653	50.18
358.864	78.85
359.075	15.36
359.287	154.62
359.498	82.94
359.709	33.79
359.921	105.47
360.132	93.18
360.344	52.22
360.555	74.75
360.766	140.29
360.977	84.99
361.189	82.94
361.4	19.46
361.611	154.62
361.823	58.37
362.034	146.43
362.245	11.26
362.456	48.13
362.667	97.28
362.879	35.84
363.09	97.28
363.301	74.75
363.512	68.61
363.723	1.02
363.935	31.74
364.146	117.76
364.357	-21.5
364.568	15.36
364.779	80.89
364.99	136.19
365.201	13.31
365.412	123.9
365.623	7.17
365.834	105.47
366.045	33.79
366.256	89.09
366.467	130.05
366.678	13.31
366.889	48.13
367.1	68.61
367.311	58.37
367.522	62.46
367.733	87.04
367.944	78.85
368.155	29.7
368.366	74.75
368.577	29.7
368.788	56.32
368.999	80.89
369.209	113.66
369.42	134.14
369.631	171.01
369.842	-25.6
370.053	41.98
370.264	27.65
370.474	23.55
370.685	128
370.896	91.13
371.107	74.75
371.317	64.51
371.528	97.28
371.739	123.9
371.95	105.47
372.16	97.28
372.371	29.7
372.582	23.55
372.792	93.18
373.003	80.89
373.214	80.89
373.424	72.7
373.635	-48.13
373.846	66.56
374.056	25.6
374.267	58.37
374.477	82.94
374.688	91.13
374.898	132.09
375.109	54.27
375.319	99.33
375.53	74.75
375.74	27.65
375.951	1.02
376.161	21.5
376.372	97.28
376.582	78.85
376.793	156.67
377.003	27.65
377.214	89.09
377.424	74.75
377.635	25.6
377.845	58.37
378.055	93.18
378.266	23.55
378.476	64.51
378.686	107.52
378.897	109.57
379.107	56.32
379.317	52.22
379.528	48.13
379.738	64.51
379.948	64.51
380.158	64.51
380.369	-1.02
380.579	33.79
380.789	111.61
380.999	95.23
381.21	82.94
381.42	89.09
381.63	66.56
381.84	119.81
382.05	105.47
382.261	64.51
382.471	119.81
382.681	29.7
382.891	121.85
383.101	146.43
383.311	35.84
383.521	39.94
383.731	48.13
383.941	121.85
384.151	95.23
384.361	107.52
384.571	50.18
384.781	13.31
384.991	123.9
385.201	138.24
385.411	50.18
385.621	107.52
385.831	58.37
386.041	105.47
386.251	97.28
386.461	138.24
386.671	-13.31
386.881	60.42
387.091	89.09
387.301	123.9
387.511	123.9
387.72	121.85
387.93	89.09
388.14	-13.31
388.35	97.28
388.56	66.56
388.769	123.9
388.979	115.71
389.189	76.8
389.399	103.42
389.609	58.37
389.818	105.47
390.028	46.08
390.238	173.05
390.447	5.12
390.657	144.38
390.867	130.05
391.076	64.51
391.286	66.56
391.496	-9.22
391.705	64.51
391.915	109.57
392.125	19.46
392.334	48.13
392.544	84.99
392.753	74.75
392.963	3.07
393.172	80.89
393.382	-35.84
393.591	117.76
393.801	105.47
394.01	107.52
394.22	109.57
394.429	37.89
394.639	68.61
394.848	89.09
395.058	152.57
395.267	68.61
395.477	132.09
395.686	138.24
395.895	160.77
396.105	216.06
396.314	82.94
396.524	107.52
396.733	115.71
396.942	150.53
397.152	48.13
397.361	72.7
397.57	136.19
397.78	74.75
397.989	91.13
398.198	109.57
398.407	125.95
398.617	125.95
398.826	121.85
399.035	107.52
399.244	89.09
399.453	142.33
399.663	58.37
399.872	103.42
400.081	111.61
400.29	136.19
400.499	84.99
400.708	142.33
400.917	113.66
401.127	23.55
401.336	117.76
401.545	171.01
401.754	150.53
401.963	181.25
402.172	84.99
402.381	91.13
402.59	66.56
402.799	109.57
403.008	168.96
403.217	162.81
403.426	84.99
403.635	99.33
403.844	101.37
404.053	132.09
404.262	115.71
404.471	207.87
404.68	162.81
404.888	142.33
405.097	66.56
405.306	132.09
405.515	175.1
405.724	183.29
405.933	162.81
406.142	218.11
406.35	211.96
406.559	177.15
406.768	175.1
406.977	261.12
407.185	191.49
407.394	293.88
407.603	197.63
407.812	236.54
408.02	248.83
408.229	216.06
408.438	181.25
408.646	105.47
408.855	111.61
409.064	230.4
409.272	283.64
409.481	304.12
409.69	252.92
409.898	179.2
410.107	353.27
410.315	355.32
410.524	265.21
410.733	306.17
410.941	410.62
411.15	363.51
411.358	314.36
411.567	361.47
411.775	400.38
411.984	336.89
412.192	414.71
412.401	394.23
412.609	365.56
412.818	508.92
413.026	482.3
413.234	435.19
413.443	537.59
413.651	490.49
413.86	400.38
414.068	539.64
414.276	629.75
414.485	535.54
414.693	537.59
414.901	635.89
415.11	687.09
415.318	668.66
415.526	678.9
415.734	726
415.943	812.02
416.151	719.86
416.359	726
416.567	805.88
416.776	812.02
416.984	822.26
417.192	855.03
417.4	906.23
417.608	850.93
417.817	850.93
418.025	963.57
418.233	1141.74
418.441	990.19
418.649	1014.77
418.857	1137.65
419.065	1178.61
419.273	1088.5
419.481	1225.71
419.689	1256.43
419.897	1278.96
420.105	1213.42
420.313	1383.4
420.521	1455.08
420.729	1371.12
420.937	1420.27
421.145	1524.71
421.353	1567.72
421.561	1739.75
421.769	1653.73
421.977	1756.13
422.185	1696.74
422.393	1870.82
422.601	1942.5
422.809	1942.5
423.017	1989.6
423.224	2034.66
423.432	2200.54
423.64	2182.11
423.848	2413.53
424.056	2259.93
424.263	2417.63
424.471	2415.58
424.679	2524.12
424.887	2474.97
425.094	2745.3
425.302	2655.19
425.51	2868.18
425.718	2831.32
425.925	2939.86
426.133	3154.9
426.341	3408.84
426.548	3392.46
426.756	3455.95
426.964	3412.94
427.171	3519.43
427.379	3701.7
427.586	3687.37
427.794	3910.6
428.001	4121.54
428.209	4225.98
428.417	4199.36
428.624	4533.18
428.832	4541.37
429.039	4479.93
429.247	4375.49
429.454	4862.9
429.662	5217.2
429.869	4834.23
430.076	5192.62
430.284	5168.05
430.491	5239.73
430.699	5530.54
430.906	5489.58
431.114	5696.43
431.321	5815.21
431.528	6106.02
431.736	6286.24
431.943	6622.11
432.15	6437.79
432.358	6405.02
432.565	6841.24
432.772	6802.33
432.979	7349.14
433.187	7197.59
433.394	7455.63
433.601	7936.9
433.808	7840.65
434.016	8010.63
434.223	8072.07
434.43	8733.56
434.637	8512.38
434.844	8864.63
435.052	9243.51
435.259	9094.01
435.466	9268.08
435.673	9079.67
435.88	9724.78
436.087	10320.74
436.294	10247.01
436.501	9907.05
436.708	10322.79
436.915	10713.95
437.122	10978.14
437.329	11184.98
437.537	11447.12
437.743	11631.44
437.95	11559.76
438.157	12127.05
438.364	12366.66
438.571	12397.38
438.778	12419.91
438.985	13843.24
439.192	13142.84
439.399	13544.24
439.606	13359.92
439.813	14164.78
440.02	14904.09
440.227	14834.46
440.433	14525.22
440.64	15164.18
440.847	15067.93
441.054	15096.6
441.261	16425.73
441.467	15964.94
441.674	16300.81
441.881	16995.07
442.088	17101.56
442.294	16814.85
442.501	17134.33
442.708	17545.97
442.914	18244.33
443.121	19002.08
443.328	18666.21
443.534	19626.71
443.741	19364.57
443.948	18897.63
444.154	20720.32
444.361	20581.06
444.568	20429.51
444.774	20531.91
444.981	20515.53
445.187	21596.85
445.394	22067.89
445.6	22213.29
445.807	24142.48
446.013	23007.9
446.22	23755.41
446.426	24355.47
446.633	24656.52
446.839	25547.39
447.046	24384.14
447.252	26083.95
447.459	25844.34
447.665	25932.4
447.871	27058.79
448.078	27968.09
448.284	26821.22
448.491	27277.92
448.697	28793.42
448.903	29114.95
449.11	29125.19
449.316	28830.28
449.522	29514.3
449.728	30296.63
449.935	30458.42
450.141	30396.98
450.347	31259.17
450.553	29981.24
450.76	30626.35
450.966	31777.31
451.172	31117.86
451.378	31812.12
451.584	31363.62
451.791	31894.04
451.997	31762.97
452.203	32467.47
452.409	32422.42
452.615	32520.72
452.821	31396.38
453.027	30990.89
453.233	33008.14
453.44	31293.99
453.646	31758.88
453.852	32002.58
454.058	32234
454.264	31384.1
454.47	32064.02
454.676	31375.91
454.882	32692.75
455.088	29743.67
455.294	30208.56
455.5	30673.45
455.705	31470.11
455.911	29530.69
456.117	29284.93
456.323	29028.93
456.529	27056.74
456.735	28547.66
456.941	27875.93
457.147	27413.09
457.352	26292.85
457.558	26376.81
457.764	26032.75
457.97	25868.92
458.176	25305.73
458.381	25346.69
458.587	23947.92
458.793	24093.33
458.999	22469.29
459.204	24543.88
459.41	23476.89
459.616	22162.09
459.821	22434.47
460.027	21721.78
460.233	21775.03
460.438	20652.74
460.644	21066.43
460.85	20073.17
461.055	19763.92
461.261	19423.96
461.466	18143.98
461.672	17695.47
461.878	18805.47
462.083	17652.47
462.289	17085.18
462.494	16943.87
462.7	16481.03
462.905	15905.55
463.111	16415.49
463.316	16483.08
463.522	16028.43
463.727	16073.48
463.932	15821.58
464.138	15690.51
464.343	16139.02
464.549	15436.56
464.754	15962.89
464.959	15991.56
465.165	15696.66
465.37	15155.99
465.575	14484.26
465.781	15489.81
465.986	15237.91
466.191	14811.93
466.397	14310.18
466.602	13738.8
466.807	14328.61
467.012	14328.61
467.218	14224.17
467.423	13849.39
467.628	14062.38
467.833	14658.34
468.038	14080.81
468.244	13609.78
468.449	14177.06
468.654	13900.59
468.859	13730.61
469.064	13574.96
469.269	13095.74
469.474	13359.92
469.679	13728.56
469.885	13165.37
470.09	13435.7
470.295	13165.37
470.5	12874.56
470.705	12915.51
470.91	12579.65
471.115	12563.26
471.32	12723.01
471.525	12735.29
471.73	12686.14
471.935	12368.71
472.139	11598.67
472.344	12045.13
472.549	12190.53
472.754	11877.19
472.959	11633.49
473.164	11232.08
473.369	11373.39
473.574	11623.25
473.778	11512.66
473.983	11268.95
474.188	11471.7
474.393	10697.56
474.598	10971.99
474.802	10896.22
475.007	10742.62
475.212	10863.45
475.417	10386.27
475.621	10275.68
475.826	10343.27
476.031	10251.11
476.235	10089.32
476.44	10259.3
476.645	10099.56
476.849	10011.5
477.054	9841.51
477.259	9640.81
477.463	9948.01
477.668	9499.5
477.872	9597.81
478.077	9436.02
478.282	9116.53
478.486	9122.68
478.691	8895.35
478.895	9036.66
479.1	9130.87
479.304	8977.27
479.509	8780.67
479.713	8749.95
479.918	8934.26
480.122	8563.58
480.326	8680.32
480.531	8631.16
480.735	8594.3
480.94	8401.79
481.144	8909.69
481.348	8477.57
481.553	8407.94
481.757	8172.42
481.961	8256.39
482.166	8483.71
482.37	8178.56
482.574	8201.09
482.778	8203.14
482.983	8467.33
483.187	8229.76
483.391	8536.96
483.595	8348.54
483.8	7965.57
484.004	8215.43
484.208	8420.22
484.412	8397.7
484.616	8315.78
484.821	8448.9
485.025	8098.69
485.229	8350.59
485.433	8082.31
485.637	8278.91
485.841	8199.04
486.045	8242.05
486.249	8463.23
486.453	8283.01
486.657	8301.44
486.861	8295.3
487.065	7949.19
487.269	8289.15
487.473	8156.04
487.677	8289.15
487.881	8334.21
488.085	8272.77
488.289	8321.92
488.493	8172.42
488.697	8457.09
488.901	8250.24
489.105	8321.92
489.309	8315.78
489.512	8405.89
489.716	8389.5
489.92	8428.42
490.124	8463.23
490.328	8575.87
490.531	8514.43
490.735	8588.16
490.939	8407.94
491.143	8612.73
491.346	8461.18
491.55	8459.13
491.754	8534.91
491.958	8725.37
492.161	8475.52
492.365	8596.35
492.569	8838.01
492.772	8491.9
492.976	8889.21
493.18	8838.01
493.383	8864.63
493.587	8772.47
493.79	9126.77
493.994	9102.2
494.197	8985.46
494.401	9040.76
494.605	9069.43
494.808	9395.06
495.012	9450.35
495.215	9476.98
495.419	9427.82
495.622	9374.58
495.825	9765.74
496.029	9597.81
496.232	9755.5
496.436	9735.02
496.639	9962.34
496.843	9821.03
497.046	10175.33
497.249	10247.01
497.453	10324.83
497.656	10189.67
497.859	10404.71
498.063	10398.56
498.266	10980.18
498.469	10515.3
498.673	10603.36
498.876	10892.12
499.079	10795.87
499.282	10928.99
499.485	11320.15
499.689	11268.95
499.892	11613.01
500.095	11598.67
500.298	11887.43
500.501	11471.7
500.705	12090.18
500.908	11991.88
501.111	12331.84
501.314	12329.8
501.517	12247.88
501.72	12677.95
501.923	12524.35
502.126	12741.44
502.329	13093.69
502.532	13140.79
502.735	13237.05
502.938	13572.91
503.141	13501.23
503.344	13577.01
503.547	13785.9
503.75	13941.55
503.953	14254.89
504.156	14226.21
504.359	14416.68
504.562	14703.39
504.765	14930.72
504.968	14822.17
505.17	14967.58
505.373	14924.57
505.576	15487.76
505.779	15506.2
505.982	15592.21
506.185	16055.05
506.387	16057.1
506.59	16198.41
506.793	16517.89
506.996	16317.19
507.198	17029.88
507.401	16851.71
507.604	16876.29
507.807	17185.53
508.009	17289.98
508.212	17455.86
508.415	17779.44
508.617	18060.01
508.82	17861.36
509.022	18133.74
509.225	18467.56
509.428	18399.98
509.63	18639.59
509.833	18764.51
510.035	19522.26
510.238	19268.31
510.44	19524.31
510.643	19634.9
510.845	19786.45
511.048	19665.62
511.25	20320.97
511.453	20337.35
511.655	21031.62
511.858	20736.71
512.06	20894.4
512.262	21048
512.465	21213.88
512.667	21361.34
512.87	21754.55
513.072	21557.94
513.274	22166.19
513.477	22418.09
513.679	22518.44
513.881	23012
514.084	23145.12
514.286	23067.3
514.488	23380.64
514.69	23820.95
514.893	23558.81
515.095	23866
515.297	23931.54
515.499	24492.68
515.701	24627.85
515.904	24750.73
516.106	25313.92
516.308	25102.98
516.51	25539.19
516.712	25625.21
516.914	25942.64
517.116	26071.67
517.318	26298.99
517.52	26630.76
517.722	26454.64
517.925	27064.93
518.127	27372.13
518.329	27593.31
518.531	27601.5
518.733	28086.87
518.935	28430.93
519.136	28293.71
519.338	28652.11
519.54	28744.27
519.742	29219.39
519.944	29221.44
520.146	29743.67
520.348	29790.78
520.55	29852.22
520.752	30116.4
520.954	30464.56
521.155	30489.13
521.357	30921.26
521.559	31138.34
521.761	31498.78
521.963	31490.59
522.164	31779.36
522.366	31730.2
522.568	31945.24
522.77	32641.55
522.971	32813.58
523.173	32502.29
523.375	32643.6
523.576	32676.37
523.778	33155.59
523.98	33405.44
524.181	33520.13
524.383	33427.97
524.584	34089.46
524.786	34222.58
524.988	34300.4
525.189	34621.94
525.391	34578.93
525.592	35095.02
525.794	35252.71
525.995	35324.39
526.197	35043.82
526.398	35676.64
526.6	35711.46
526.801	35793.37
527.003	35877.34
527.204	36092.38
527.406	36274.65
527.607	36008.41
527.808	36696.53
528.01	35985.88
528.211	36375
528.412	37460.42
528.614	37034.44
528.815	37065.16
529.016	37546.44
529.218	36938.19
529.419	37495.24
529.62	37030.35
529.822	37292.49
530.023	37898.69
530.224	37485
530.425	37644.74
530.626	37151.18
530.828	37333.45
531.029	38273.46
531.23	37480.9
531.431	37663.17
531.632	38390.2
531.833	38101.43
532.035	37870.01
532.236	38001.08
532.437	38398.39
532.638	38162.87
532.839	38724.02
533.04	38902.19
533.241	38056.38
533.442	38738.35
533.643	38728.11
533.844	38502.84
534.045	38869.42
534.246	38275.51
534.447	38564.28
534.648	38588.85
534.849	38810.03
535.05	38263.22
535.251	38840.75
535.451	38521.27
535.652	38799.79
535.853	39025.07
536.054	38937.01
536.255	38947.25
536.456	38742.45
536.657	39322.02
536.857	38691.25
537.058	38752.69
537.259	38996.4
537.46	38934.96
537.66	38789.55
537.861	38949.29
538.062	38713.78
538.263	39115.18
538.463	38916.53
538.664	38887.85
538.865	39045.55
539.065	39025.07
539.266	38850.99
539.466	39166.38
539.667	38576.56
539.868	39123.37
540.068	38953.39
540.269	38531.51
540.469	39037.36
540.67	38916.53
540.87	38463.93
541.071	39033.26
541.271	38967.73
541.472	38681.01
541.672	38418.87
541.873	38584.76
542.073	38158.78
542.274	39115.18
542.474	38513.08
542.675	38556.08
542.875	38846.9
543.075	38406.58
543.276	38015.42
543.476	38486.45
543.676	38488.5
543.877	38930.86
544.077	38465.97
544.277	38711.73
544.478	38506.93
544.678	38984.11
544.878	38539.7
545.078	38822.32
545.279	38404.53
545.479	38255.03
545.679	38412.73
545.879	38476.21
546.079	38730.16
546.28	38521.27
546.48	38003.13
546.68	38457.78
546.88	38457.78
547.08	38269.37
547.28	38642.1
547.48	38238.65
547.68	38824.37
547.88	38508.98
548.081	38420.92
548.281	38418.87
548.481	38091.19
548.681	38418.87
548.881	38480.31
549.081	38496.69
549.28	38146.49
549.48	38404.53
549.68	38273.46
549.88	38498.74
550.08	37984.7
550.28	38326.71
550.48	38472.12
550.68	38439.35
550.88	38095.29
551.08	38201.79
551.279	38171.07
551.479	37614.02
551.679	38236.6
551.879	38066.62
552.079	38304.18
552.278	37794.24
552.478	38179.26
552.678	38015.42
552.878	38250.94
553.077	37775.81
553.277	37444.04
553.477	38529.46
553.676	38050.24
553.876	38011.32
554.076	37759.42
554.275	37849.53
554.475	37253.58
554.674	38173.11
554.874	37859.77
555.074	37661.12
555.273	37884.35
555.473	37726.66
555.672	37315.01
555.872	37712.32
556.071	37841.34
556.271	37597.63
556.47	37435.84
556.67	36864.46
556.869	37546.44
557.068	37654.98
557.268	37214.66
557.467	37462.47
557.667	37501.38
557.866	37241.29
558.065	37018.06
558.265	37063.11
558.464	36850.13
558.663	37423.56
558.863	37075.4
559.062	37458.37
559.261	36620.75
559.461	37108.17
559.66	36379.09
559.859	36913.61
560.058	36606.42
560.258	36557.27
560.457	36526.55
560.656	36721.1
560.855	36403.67
561.054	36518.35
561.253	36075.99
561.453	36211.16
561.652	36567.51
561.851	36669.9
562.05	36149.72
562.249	36030.94
562.448	36182.49
562.647	36006.36
562.846	35760.61
563.045	36086.23
563.244	35310.05
563.443	35731.93
563.642	35211.75
563.841	35598.82
564.04	35690.98
564.239	35520.99
564.438	35205.61
564.637	35334.63
564.836	35414.5
565.035	34965.99
565.234	34785.77
565.432	34820.59
565.631	34935.27
565.83	34855.4
566.029	34927.08
566.228	34769.39
566.427	34587.12
566.625	34353.65
566.824	34050.55
567.023	34429.43
567.222	33751.55
567.42	34062.84
567.619	34021.88
567.818	34085.37
568.016	33774.08
568.215	33950.2
568.414	33868.28
568.612	34152.95
568.811	33636.86
569.01	33526.27
569.208	33450.5
569.407	33796.6
569.605	33149.45
569.804	33352.2
570.002	32922.12
570.201	33071.62
570.4	32698.89
570.598	32602.64
570.797	32494.1
570.995	32731.66
571.193	32373.27
571.392	32752.14
571.59	32659.98
571.789	32420.37
571.987	32188.95
572.186	32293.4
572.384	31982.1
572.582	32191
572.781	31924.76
572.979	31568.41
573.177	32070.17
573.376	31951.38
573.574	31472.16
573.772	31967.77
573.971	31351.33
574.169	31281.7
574.367	31068.71
574.565	31386.15
574.763	31203.88
574.962	31296.03
575.16	30882.34
575.358	30874.15
575.556	30644.78
575.754	30978.6
575.952	30523.95
576.151	30927.4
576.349	30431.79
576.547	30607.92
576.745	30591.53
576.943	30571.05
577.141	30456.37
577.339	30282.29
577.537	30034.49
577.735	30140.98
577.933	29794.87
578.131	29899.32
578.329	29837.88
578.527	29495.87
578.725	29469.25
578.923	29733.43
579.121	29315.65
579.319	29694.52
579.516	29567.55
579.714	29430.33
579.912	29000.26
580.11	29186.63
580.308	29041.22
580.506	28990.02
580.704	28697.16
580.901	29002.31
581.099	29053.51
581.297	28564.04
581.495	28510.8
581.692	28590.67
581.89	28615.24
582.088	28355.15
582.285	28142.16
582.483	28564.04
582.681	28613.2
582.878	28056.15
583.076	27935.32
583.274	27867.73
583.471	27726.42
583.669	27765.34
583.866	27730.52
584.064	27789.91
584.262	27230.82
584.459	27654.75
584.657	27345.5
584.854	27812.44
585.052	26968.68
585.249	27335.26
585.447	27339.36
585.644	26858.09
585.841	27343.45
586.039	27316.83
586.236	26757.74
586.434	26862.18
586.631	26425.96
586.828	26638.95
587.026	26638.95
587.223	26186.35
587.42	26516.08
587.618	26229.36
587.815	26354.29
588.012	26155.63
588.21	26112.63
588.407	26069.62
588.604	25887.35
588.801	25815.67
588.999	26071.67
589.196	25795.19
589.393	25670.26
589.59	25524.86
589.787	25494.14
589.984	25510.52
590.182	25002.63
590.379	25287.29
590.576	25428.6
590.773	25137.79
590.97	24955.52
591.167	24818.31
591.364	24849.03
591.561	25250.43
591.758	24683.14
591.955	24470.15
592.152	24889.99
592.349	24898.18
592.546	24408.72
592.743	24271.5
592.94	24148.62
593.137	24439.44
593.334	24378
593.531	24156.82
593.727	24181.39
593.924	24275.6
594.121	23837.33
594.318	23827.09
594.515	23528.09
594.712	23751.32
594.908	23655.06
595.105	23546.52
595.302	23437.98
595.499	23351.96
595.696	23390.88
595.892	23005.86
596.089	23184.03
596.286	23184.03
596.482	23098.02
596.679	23202.46
596.876	22991.52
597.072	22796.96
597.269	22704.81
597.466	22575.78
597.662	22518.44
597.859	22848.16
598.055	22520.49
598.252	22418.09
598.448	22454.95
598.645	22379.18
598.841	22131.37
599.038	22520.49
599.234	22403.75
599.431	22065.84
599.627	21967.54
599.824	22133.42
600.02	21787.32
600.217	21762.74
600.413	21856.95
600.609	21463.74
600.806	21469.88
601.002	21848.75
601.198	21381.82
601.395	21514.94
601.591	21521.08
601.787	21326.52
601.984	21254.84
602.18	21457.59
602.376	20961.98
602.572	21119.68
602.769	20955.84
602.965	20703.94
603.161	20658.88
603.357	20732.61
603.553	20720.32
603.75	20851.39
603.946	20417.22
604.142	20644.55
604.338	20234.96
604.534	20515.53
604.73	20034.25
604.926	20189.9
605.122	20566.73
605.318	20130.51
605.514	20214.48
605.71	20054.73
605.906	20234.96
606.102	19641.04
606.298	20044.49
606.494	19860.18
606.69	19802.83
606.886	20021.97
607.082	19444.44
607.278	19679.96
607.474	19210.97
607.67	19811.03
607.866	19522.26
608.062	19489.49
608.257	19682
608.453	19436.25
608.649	19313.37
608.845	19372.76
609.041	19342.04
609.236	19454.68
609.432	19167.96
609.628	19020.51
609.824	19096.28
610.019	18873.06
610.215	19079.9
610.411	19241.69
610.606	18832.1
610.802	18760.42
610.998	18447.08
611.193	18662.12
611.389	18893.54
611.584	18815.71
611.78	18459.37
611.976	18586.34
612.171	18676.45
612.367	18531.05
612.562	18555.62
612.758	18131.69
612.953	18180.84
613.149	18430.69
613.344	18172.65
613.539	18612.96
613.735	18098.92
613.93	18434.79
614.126	18162.41
614.321	18180.84
614.517	18066.16
614.712	17976.05
614.907	18037.48
615.103	18062.06
615.298	17844.98
615.493	18012.91
615.688	17605.36
615.884	18100.97
616.079	17720.05
616.274	17904.37
616.47	17568.5
616.665	17529.59
616.86	17691.38
617.055	17564.4
617.25	17359.61
617.445	17462.01
617.641	17111.8
617.836	17513.2
618.031	16952.06
618.226	17496.82
618.421	17154.81
618.616	17300.22
618.811	17015.55
619.006	17269.5
619.201	16663.3
619.396	17242.87
619.591	16728.83
619.786	16911.1
619.981	16610.05
620.176	16890.62
620.371	16521.99
620.566	16620.29
620.761	16413.45
620.956	16667.39
621.151	16417.54
621.346	16575.24
621.541	16026.38
621.735	16300.81
621.93	15907.6
622.125	16268.04
622.32	15667.98
622.515	15874.83
622.709	15776.53
622.904	15764.24
623.099	15508.24
623.294	15684.37
623.488	15743.76
623.683	15362.84
623.878	15145.75
624.072	15420.18
624.267	15344.41
624.462	15016.73
624.656	15178.52
624.851	15231.77
625.046	14994.2
625.24	14873.37
625.435	14357.28
625.629	14492.45
625.824	14660.38
626.018	14455.59
626.213	14390.05
626.407	14336.81
626.602	14093.1
626.796	14158.63
626.991	14152.49
627.185	13884.2
627.38	13933.36
627.574	13660.98
627.768	13894.44
627.963	13654.83
628.157	13759.28
628.352	13759.28
628.546	13312.82
628.74	13560.63
628.935	13480.75
629.129	13517.62
629.323	13308.72
629.517	13216.57
629.712	13269.81
629.906	13110.07
630.1	12979
630.294	13173.56
630.489	13081.4
630.683	12917.56
630.877	12559.17
631.071	12737.34
631.265	12485.44
631.459	12501.83
631.653	12512.07
631.848	12524.35
632.042	12147.53
632.236	12294.98
632.43	12161.86
632.624	12129.09
632.818	12194.63
633.012	11981.64
633.206	11864.91
633.4	12014.41
633.594	11647.82
633.788	11760.46
633.982	11733.84
634.176	11748.17
634.369	11357.01
634.563	11524.94
634.757	11316.05
634.951	11475.79
635.145	11086.68
635.339	11258.71
635.533	11287.38
635.726	11225.94
635.92	11164.5
636.114	11166.55
636.308	11066.2
636.501	11189.08
636.695	10812.25
636.889	10730.33
637.083	10728.28
637.276	10515.3
637.47	10519.39
637.664	10662.75
637.857	10681.18
638.051	10527.58
638.244	10533.73
638.438	10455.9
638.632	10560.35
638.825	10138.47
639.019	10130.28
639.212	10191.72
639.406	10136.42
639.599	10017.64
639.793	9866.09
639.986	9868.14
640.18	9968.49
640.373	10101.61
640.567	9921.38
640.76	9665.39
640.954	9608.05
641.147	9661.29
641.34	9384.82
641.534	9368.43
641.727	9419.63
641.92	9511.79
642.114	9261.94
642.307	9249.65
642.5	9245.55
642.694	9059.19
642.887	9012.09
643.08	9141.11
643.273	9130.87
643.467	9055.09
643.66	8899.45
643.853	8881.02
644.046	8774.52
644.239	8758.14
644.432	8749.95
644.626	8870.78
644.819	8878.97
645.012	8602.49
645.205	8833.91
645.398	8510.33
645.591	8522.62
645.784	8649.6
645.977	8231.81
646.17	8475.52
646.363	8340.35
646.556	8405.89
646.749	8221.57
646.942	8348.54
647.135	8055.69
647.328	8235.91
647.521	7975.81
647.714	7938.95
647.907	8129.41
648.099	7971.72
648.292	8160.13
648.485	7941
648.678	7807.88
648.871	7644.04
649.064	7740.3
649.256	7752.59
649.449	7523.21
649.642	7646.09
649.835	7553.93
650.027	7594.89
650.22	7515.02
650.413	7377.81
650.605	7472.01
650.798	7437.2
650.991	7355.28
651.183	7394.19
651.376	7265.17
651.568	7310.22
651.761	7170.96
651.954	7177.11
652.146	7158.67
652.339	7156.63
652.531	7154.58
652.724	7035.8
652.916	7076.76
653.109	6980.5
653.301	6902.68
653.494	6953.88
653.686	6638.49
653.879	6912.92
654.071	6648.73
654.263	6722.46
654.456	6794.14
654.648	6697.88
654.84	6804.38
655.033	6552.48
655.225	6691.74
655.417	6468.51
655.61	6570.91
655.802	6568.86
655.994	6396.83
656.186	6456.22
656.379	6577.05
656.571	6329.25
656.763	6265.76
656.955	6276
657.148	6288.29
657.34	6243.23
657.532	6202.27
657.724	6015.91
657.916	6185.89
658.108	6194.08
658.3	6114.21
658.492	6325.15
658.684	5817.26
658.876	6005.67
659.068	6142.88
659.26	5958.57
659.452	5977
659.644	5897.13
659.836	5911.46
660.028	5944.23
660.22	5725.1
660.412	5798.82
660.604	5757.86
660.796	5675.95
660.988	5555.12
661.18	5626.79
661.372	5759.91
661.563	5675.95
661.755	5671.85
661.947	5520.3
662.139	5544.88
662.331	5510.06
662.522	5522.35
662.714	5405.61
662.906	5366.7
663.097	5350.32
663.289	5393.33
663.481	5290.93
663.673	5344.17
663.864	5358.51
664.056	5352.37
664.247	5288.88
664.439	5354.41
664.631	5145.52
664.822	5225.39
665.014	5176.24
665.205	5084.08
665.397	5182.38
665.588	5020.6
665.78	5110.71
665.971	5086.13
666.163	5053.36
666.354	5069.75
666.546	5077.94
666.737	4920.24
666.929	4926.39
667.12	4918.2
667.311	5086.13
667.503	4803.51
667.694	4948.92
667.885	4883.38
668.077	4770.74
668.268	4709.3
668.459	4893.62
668.651	4873.14
668.842	4715.45
669.033	4862.9
669.224	4694.97
669.416	4748.22
669.607	4631.48
669.798	4635.58
669.989	4860.85
670.18	4608.95
670.371	4637.63
670.563	4570.04
670.754	4563.9
670.945	4529.08
671.136	4658.1
671.327	4602.81
671.518	4795.32
671.709	4635.58
671.9	4666.3
672.091	4504.51
672.282	4520.89
672.473	4494.27
672.664	4619.19
672.855	4615.1
673.046	4537.27
673.237	4529.08
673.428	4389.82
673.619	4594.62
673.809	4404.16
674	4533.18
674.191	4414.4
674.382	4441.02
674.573	4426.68
674.764	4406.2
674.954	4340.67
675.145	4494.27
675.336	4428.73
675.527	4342.72
675.717	4258.75
675.908	4379.58
676.099	4293.57
676.289	4385.73
676.48	4275.13
676.671	4213.7
676.861	4307.9
677.052	4432.83
677.243	4225.98
677.433	4385.73
677.624	4369.34
677.814	4250.56
678.005	4275.13
678.195	4195.26
678.386	4209.6
678.576	4154.3
678.767	4193.22
678.957	4201.41
679.148	4283.33
679.338	4377.53
679.529	4238.27
679.719	4291.52
679.909	4268.99
680.1	4299.71
680.29	4240.32
680.481	4305.85
680.671	4283.33
680.861	4213.7
681.052	4256.7
681.242	4336.57
681.432	4223.94
681.622	4105.15
681.813	4174.78
682.003	4228.03
682.193	4205.5
682.383	4248.51
682.573	4219.84
682.764	4146.11
682.954	4070.34
683.144	4250.56
683.334	4111.3
683.524	4099.01
683.714	4221.89
683.904	4187.07
684.094	4156.35
684.284	4199.36
684.474	4211.65
684.664	4262.85
684.854	4156.35
685.044	4144.06
685.234	3931.08
685.424	4039.62
685.614	4033.47
685.804	4291.52
685.994	4043.71
686.184	4146.11
686.374	4180.93
686.564	4076.48
686.753	4017.09
686.943	4023.23
687.133	4012.99
687.323	3996.61
687.513	3922.88
687.702	3939.27
687.892	3853.25
688.082	3865.54
688.272	3939.27
688.461	3904.45
688.651	3879.88
688.841	3703.75
689.03	3881.92
689.22	3896.26
689.41	3824.58
689.599	3689.42
689.789	3773.38
689.979	3670.98
690.168	3736.52
690.358	3627.98
690.547	3863.49
690.737	3677.13
690.926	3664.84
691.116	3681.22
691.305	3544.01
691.495	3627.98
691.684	3722.18
691.874	3554.25
692.063	3572.68
692.252	3566.54
692.442	3623.88
692.631	3423.18
692.82	3554.25
693.01	3531.72
693.199	3484.62
693.388	3482.57
693.578	3249.1
693.767	3587.02
693.956	3421.13
694.146	3310.54
694.335	3390.41
694.524	3544.01
694.713	3431.37
694.902	3392.46
695.092	3419.08
695.281	3294.16
695.47	3404.75
695.659	3269.58
695.848	3335.12
696.037	3308.49
696.226	3326.93
696.415	3298.25
696.604	3386.32
696.793	3402.7
696.982	3199.95
697.171	3318.73
697.36	3292.11
697.549	3292.11
697.738	3269.58
697.927	3228.62
698.116	3447.76
698.305	3245.01
698.494	3357.64
698.683	3163.09
698.872	3275.73
699.061	3267.53
699.25	3120.08
699.438	3169.23
699.627	3195.86
699.816	3292.11
700.005	3265.49
700.193	3292.11
700.382	3251.15
700.571	3316.69
700.76	3339.21
700.948	3277.77
701.137	3251.15
701.326	3292.11
701.514	3165.14
701.703	3312.59
701.892	3173.33
702.08	3378.12
702.269	3224.53
702.457	3150.8
702.646	3261.39
702.834	3085.26
703.023	3259.34
703.212	3216.33
703.4	3255.25
703.589	3220.43
703.777	3275.73
703.965	3185.62
704.154	3152.85
704.342	3195.86
704.531	3210.19
704.719	3218.38
704.907	3431.37
705.096	3255.25
705.284	3150.8
705.472	3189.71
705.661	3245.01
705.849	3302.35
706.037	3351.5
706.226	3333.07
706.414	3269.58
706.602	3267.53
706.79	3308.49
706.979	3163.09
707.167	3404.75
707.355	3300.3
707.543	3202
707.731	3242.96
707.919	3208.14
708.107	3314.64
708.296	3285.97
708.484	3271.63
708.672	3390.41
708.86	3245.01
709.048	3324.88
709.236	3255.25
709.424	3298.25
709.612	3382.22
709.8	3277.77
709.988	3310.54
710.176	3423.18
710.364	3357.64
710.551	3468.24
710.739	3308.49
710.927	3388.36
711.115	3496.91
711.303	3490.76
711.491	3349.45
711.679	3417.04
711.866	3310.54
712.054	3306.45
712.242	3300.3
712.43	3316.69
712.617	3386.32
712.805	3259.34
712.993	3398.6
713.181	3310.54
713.368	3523.53
713.556	3453.9
713.744	3324.88
713.931	3380.17
714.119	3468.24
714.306	3437.52
714.494	3439.56
714.682	3343.31
714.869	3386.32
715.057	3513.29
715.244	3376.08
715.432	3568.59
715.619	3494.86
715.807	3548.11
715.994	3560.39
716.182	3578.83
716.369	3539.91
716.556	3523.53
716.744	3451.85
716.931	3517.39
717.119	3529.67
717.306	3474.38
717.493	3433.42
717.681	3564.49
717.868	3599.31
718.055	3599.31
718.242	3611.59
718.43	3517.39
718.617	3468.24
718.804	3558.35
718.991	3591.11
719.179	3593.16
719.366	3447.76
719.553	3560.39
719.74	3607.5
719.927	3535.82
720.114	3570.63
720.301	3591.11
720.488	3599.31
720.676	3716.04
720.863	3750.85
721.05	3668.94
721.237	3726.28
721.424	3582.92
721.611	3660.74
721.798	3533.77
721.985	3595.21
722.172	3574.73
722.358	3443.66
722.545	3761.09
722.732	3636.17
722.919	3877.83
723.106	3521.48
723.293	3605.45
723.48	3648.46
723.667	3595.21
723.853	3535.82
724.04	3791.81
724.227	3724.23
724.414	3687.37
724.6	3554.25
724.787	3595.21
724.974	3754.95
725.161	3802.05
725.347	3732.42
725.534	3587.02
725.72	3687.37
725.907	3693.51
726.094	3716.04
726.28	3582.92
726.467	3795.91
726.653	3630.02
726.84	3828.68
727.027	3802.05
727.213	3750.85
727.4	3701.7
727.586	3775.43
727.773	3664.84
727.959	3877.83
728.145	3730.38
728.332	3695.56
728.518	3769.29
728.705	3738.57
728.891	3802.05
729.077	3820.49
729.264	3746.76
729.45	3638.22
729.636	3767.24
729.823	3820.49
730.009	3713.99
730.195	3812.29
730.382	3750.85
730.568	3736.52
730.754	3802.05
730.94	3875.78
731.126	3972.04
731.313	3757
731.499	3783.62
731.685	3933.12
731.871	3840.97
732.057	3804.1
732.243	3777.48
732.429	4015.04
732.615	3812.29
732.801	3724.23
732.987	3750.85
733.173	3767.24
733.359	3845.06
733.545	3843.01
733.731	3787.72
733.917	3713.99
734.103	3808.2
734.289	3795.91
734.475	3673.03
734.661	3793.86
734.847	3904.45
735.033	3843.01
735.219	3822.53
735.404	3685.32
735.59	3673.03
735.776	3736.52
735.962	3716.04
736.148	3738.57
736.333	3800.01
736.519	3550.15
736.705	3763.14
736.89	3771.33
737.076	3859.4
737.262	3656.65
737.447	3765.19
737.633	3791.81
737.819	3707.85
738.004	3652.55
738.19	3679.18
738.375	3826.63
738.561	3767.24
738.747	3713.99
738.932	3650.5
739.118	3863.49
739.303	3744.71
739.489	3623.88
739.674	3867.59
739.859	3587.02
740.045	3736.52
740.23	3617.74
740.416	3654.6
740.601	3632.07
740.786	3679.18
740.972	3515.34
741.157	3617.74
741.342	3513.29
741.528	3584.97
741.713	3771.33
741.898	3644.36
742.084	3591.11
742.269	3517.39
742.454	3548.11
742.639	3636.17
742.824	3488.71
743.01	3572.68
743.195	3517.39
743.38	3490.76
743.565	3433.42
743.75	3517.39
743.935	3353.55
744.12	3417.04
744.305	3337.17
744.49	3333.07
744.675	3392.46
744.86	3353.55
745.045	3382.22
745.23	3310.54
745.415	3349.45
745.6	3382.22
745.785	3228.62
745.97	3408.84
746.155	3228.62
746.34	3300.3
746.525	3318.73
746.71	3249.1
746.895	3224.53
747.079	3019.73
747.264	3232.72
747.449	3118.03
747.634	3122.13
747.819	3285.97
748.003	3204.05
748.188	2986.96
748.373	3140.56
748.557	3099.6
748.742	2946
748.927	3013.59
749.111	2921.43
749.296	2933.72
749.481	2919.38
749.665	2950.1
749.85	2950.1
750.034	3060.69
750.219	2790.36
750.404	2933.72
750.588	2761.69
750.773	2776.02
750.957	2819.03
751.141	2816.98
751.326	2599.9
751.51	2763.73
751.695	2722.77
751.879	2692.05
752.064	2759.64
752.248	2638.81
752.432	2642.9
752.617	2552.79
752.801	2540.51
752.985	2548.7
753.17	2622.42
753.354	2565.08
753.538	2630.62
753.722	2460.63
753.907	2483.16
754.091	2497.5
754.275	2429.91
754.459	2395.1
754.643	2290.65
754.828	2456.54
755.012	2411.48
755.196	2397.15
755.38	2431.96
755.564	2319.32
755.748	2313.18
755.932	2362.33
756.116	2298.84
756.3	2286.56
756.484	2374.62
756.668	2321.37
756.852	2124.77
757.036	2395.1
757.22	2169.82
757.404	2169.82
757.588	2137.06
757.772	2192.35
757.956	2124.77
758.14	2087.9
758.323	2169.82
758.507	2018.27
758.691	2135.01
758.875	2024.42
759.059	2092
759.242	1991.65
759.426	2061.28
759.61	1999.84
759.794	1973.22
759.977	2014.18
760.161	2114.53
760.345	1977.31
760.528	1983.46
760.712	1919.97
760.895	1897.44
761.079	1940.45
761.263	1911.78
761.446	1924.07
761.63	1952.74
761.813	2001.89
761.997	1770.47
762.18	1938.4
762.364	1784.8
762.547	1793
762.731	1827.81
762.914	1758.18
763.098	1772.52
763.281	1770.47
763.464	1768.42
763.648	1758.18
763.831	1764.33
764.015	1668.07
764.198	1678.31
764.381	1784.8
764.564	1737.7
764.748	1858.53
764.931	1793
765.114	1557.48
765.297	1717.22
765.481	1700.84
765.664	1580.01
765.847	1694.69
766.03	1688.55
766.213	1637.35
766.397	1645.54
766.58	1709.03
766.763	1604.58
766.946	1555.43
767.129	1633.26
767.312	1477.61
767.495	1557.48
767.678	1602.54
767.861	1711.08
768.044	1643.49
768.227	1633.26
768.41	1467.37
768.593	1518.57
768.776	1514.47
768.959	1555.43
769.142	1633.26
769.324	1553.38
769.507	1510.38
769.69	1479.66
769.873	1539.05
770.056	1557.48
770.239	1483.75
770.421	1518.57
770.604	1414.12
770.787	1469.42
770.97	1414.12
771.152	1371.12
771.335	1448.94
771.518	1360.88
771.7	1493.99
771.883	1367.02
772.066	1375.21
772.248	1362.92
772.431	1313.77
772.613	1428.46
772.796	1348.59
772.978	1422.31
773.161	1346.54
773.343	1309.68
773.526	1225.71
773.708	1262.57
773.891	1217.52
774.073	1262.57
774.256	1289.2
774.438	1328.11
774.621	1272.81
774.803	1317.87
774.985	1303.53
775.168	1242.09
775.35	1238
775.532	1336.3
775.715	1170.41
775.897	1186.8
776.079	1201.13
776.261	1207.28
776.444	1176.56
776.626	1125.36
776.808	1147.89
776.99	1121.26
777.173	1125.36
777.355	1162.22
777.537	1098.74
777.719	1145.84
777.901	1080.3
778.083	1035.25
778.265	1053.68
778.447	1055.73
778.629	979.95
778.811	1033.2
778.993	1088.5
779.175	1125.36
779.357	1119.21
779.539	986.1
779.721	986.1
779.903	1088.5
780.085	916.47
780.267	1008.62
780.449	994.29
780.631	1025.01
780.812	1016.82
780.994	1006.58
781.176	906.23
781.358	996.34
781.54	936.95
781.721	910.32
781.903	947.19
782.085	908.27
782.267	916.47
782.448	834.55
782.63	842.74
782.812	902.13
782.993	936.95
783.175	941.04
783.357	908.27
783.538	771.06
783.72	838.64
783.901	846.84
784.083	834.55
784.264	787.44
784.446	820.21
784.627	852.98
784.809	816.12
784.99	867.31
785.172	760.82
785.353	791.54
785.535	797.68
785.716	793.59
785.897	678.9
786.079	750.58
786.26	740.34
786.441	734.2
786.623	670.71
786.804	717.81
786.985	689.14
787.167	783.35
787.348	728.05
787.529	685.05
787.71	777.2
787.891	678.9
788.073	615.41
788.254	596.98
788.435	680.95
788.616	601.08
788.797	564.22
788.978	693.24
789.159	629.75
789.34	611.32
789.522	654.33
789.703	672.76
789.884	596.98
790.065	650.23
790.246	652.28
790.427	535.54
790.607	662.52
790.788	685.05
790.969	515.06
791.15	607.22
791.331	515.06
791.512	556.02
791.693	455.67
791.874	556.02
792.054	662.52
792.235	574.46
792.416	519.16
792.597	515.06
792.778	629.75
792.958	556.02
793.139	627.7
793.32	543.74
793.5	492.54
793.681	588.79
793.862	449.53
794.042	500.73
794.223	527.35
794.404	508.92
794.584	556.02
794.765	443.39
794.945	547.83
795.126	513.02
795.306	510.97
795.487	506.87
795.667	420.86
795.848	437.24
796.028	416.76
796.209	517.11
796.389	449.53
796.57	498.68
796.75	422.91
796.93	445.43
797.111	429.05
797.291	457.72
797.471	533.5
797.652	379.9
797.832	408.57
798.012	463.86
798.192	418.81
798.373	443.39
798.553	361.47
798.733	418.81
798.913	365.56
799.093	400.38
799.274	470.01
799.454	498.68
799.634	418.81
799.814	445.43
799.994	478.2
800.174	404.47
800.354	371.71
800.534	404.47
800.714	418.81
800.894	396.28
801.074	379.9
801.254	459.77
801.434	427
801.614	408.57
801.794	281.6
801.974	1242.09
802.154	449.53
802.334	394.23
802.514	330.75
802.693	345.08
802.873	412.67
803.053	420.86
803.233	369.66
803.413	394.23
803.592	383.99
803.772	349.18
803.952	394.23
804.131	367.61
804.311	396.28
804.491	410.62
804.67	209.92
804.85	285.69
805.03	279.55
805.209	455.67
805.389	314.36
805.568	310.27
805.748	285.69
805.928	357.37
806.107	285.69
806.287	429.05
806.466	283.64
806.646	357.37
806.825	326.65
807.004	343.03
807.184	361.47
807.363	324.6
807.543	343.03
807.722	287.74
807.901	328.7
808.081	345.08
808.26	222.2
808.439	336.89
808.619	332.79
808.798	291.84
808.977	297.98
809.156	304.12
809.336	373.75
809.515	338.94
809.694	343.03
809.873	216.06
810.052	293.88
810.231	285.69
810.411	300.03
810.59	271.36
810.769	297.98
810.948	300.03
811.127	248.83
811.306	340.99
811.485	261.12
811.664	322.56
811.843	283.64
812.022	383.99
812.201	304.12
812.38	297.98
812.559	228.35
812.737	349.18
812.916	236.54
813.095	246.78
813.274	267.26
813.453	322.56
813.632	304.12
813.811	261.12
813.989	138.24
814.168	224.25
814.347	207.87
814.526	263.16
814.704	312.32
814.883	334.84
815.062	240.64
815.24	230.4
815.419	240.64
815.598	281.6
815.776	171.01
815.955	261.12
816.133	134.14
816.312	211.96
816.49	162.81
816.669	269.31
816.847	228.35
817.026	171.01
817.204	261.12
817.383	203.77
817.561	136.19
817.74	234.49
817.918	214.01
818.097	220.16
818.275	95.23
818.453	228.35
818.632	183.29
818.81	177.15
818.988	185.34
819.167	138.24
819.345	211.96
819.523	197.63
819.701	203.77
819.879	156.67
820.058	240.64
820.236	189.44
820.414	228.35
820.592	189.44
820.77	191.49
820.948	187.39
821.127	171.01
821.305	150.53
821.483	216.06
821.661	232.44
821.839	281.6
822.017	146.43
822.195	175.1
822.373	261.12
822.551	218.11
822.729	248.83
822.907	197.63
823.085	230.4
823.262	246.78
823.44	220.16
823.618	156.67
823.796	236.54
823.974	179.2
824.152	95.23
824.329	128
824.507	199.68
824.685	128
824.863	97.28
825.04	220.16
825.218	211.96
825.396	162.81
825.574	179.2
825.751	140.29
825.929	128
826.107	205.82
826.284	236.54
826.462	207.87
826.639	130.05
826.817	168.96
826.994	146.43
827.172	105.47
827.349	171.01
827.527	158.72
827.704	175.1
827.882	175.1
828.059	164.86
828.237	146.43
828.414	177.15
828.591	134.14
828.769	115.71
828.946	107.52
829.124	173.05
829.301	234.49
829.478	121.85
829.655	154.62
829.833	166.91
830.01	113.66
830.187	148.48
830.364	109.57
830.542	187.39
830.719	142.33
830.896	224.25
831.073	187.39
831.25	191.49
831.427	162.81
831.604	201.72
831.782	142.33
831.959	144.38
832.136	197.63
832.313	148.48
832.49	121.85
832.667	181.25
832.844	140.29
833.021	156.67
833.198	97.28
833.374	193.53
833.551	140.29
833.728	187.39
833.905	109.57
834.082	101.37
834.259	146.43
834.436	162.81
834.612	142.33
834.789	148.48
834.966	148.48
835.143	134.14
835.319	58.37
835.496	130.05
835.673	39.94
835.85	142.33
836.026	142.33
836.203	144.38
836.38	44.03
836.556	187.39
836.733	66.56
836.909	179.2
837.086	150.53
837.262	3.07
837.439	97.28
837.616	130.05
837.792	115.71
837.968	93.18
838.145	109.57
838.321	74.75
838.498	68.61
838.674	154.62
838.851	146.43
839.027	76.8
839.203	105.47
839.38	162.81
839.556	117.76
839.732	152.57
839.909	44.03
840.085	138.24
840.261	25.6
840.437	101.37
840.614	60.42
840.79	74.75
840.966	84.99
841.142	150.53
841.318	37.89
841.494	103.42
841.671	171.01
841.847	123.9
842.023	13.31
842.199	199.68
842.375	105.47
842.551	23.55
842.727	-31.74
842.903	183.29
843.079	58.37
843.255	109.57
843.431	113.66
843.607	105.47
843.783	-15.36
843.959	76.8
844.134	80.89
844.31	91.13
844.486	89.09
844.662	123.9
844.838	27.65
845.013	142.33
845.189	115.71
845.365	113.66
845.541	123.9
845.716	121.85
845.892	119.81
846.068	101.37
846.244	89.09
846.419	103.42
846.595	132.09
846.77	7.17
846.946	105.47
847.122	80.89
847.297	-9.22
847.473	160.77
847.648	76.8
847.824	76.8
847.999	52.22
848.175	64.51
848.35	74.75
848.526	113.66
848.701	175.1
848.876	152.57
849.052	80.89
849.227	37.89
849.403	60.42
849.578	68.61
849.753	58.37
849.929	97.28
850.104	29.7
850.279	74.75
850.454	146.43
850.63	56.32
850.805	23.55
850.98	140.29
851.155	80.89
851.33	82.94
851.505	115.71
851.681	1.02
851.856	27.65
852.031	119.81
852.206	91.13
852.381	33.79
852.556	109.57
852.731	56.32
852.906	74.75
853.081	-21.5
853.256	70.65
853.431	31.74
853.606	60.42
853.781	31.74
853.956	11.26
854.131	89.09
854.305	113.66
854.48	64.51
854.655	15.36
854.83	39.94
855.005	-5.12
855.18	97.28
855.354	115.71
855.529	97.28
855.704	72.7
855.879	87.04
856.053	64.51
856.228	76.8
856.403	-15.36
856.577	82.94
856.752	-5.12
856.926	76.8
857.101	62.46
857.276	60.42
857.45	72.7
857.625	58.37
857.799	99.33
857.974	54.27
858.148	72.7
858.323	60.42
858.497	-23.55
858.672	82.94
858.846	17.41
859.02	50.18
859.195	46.08
859.369	95.23
859.543	-5.12
859.718	31.74
859.892	125.95
860.066	23.55
860.241	-52.22
860.415	44.03
860.589	113.66
860.763	58.37
860.938	35.84
861.112	13.31
861.286	56.32
861.46	52.22
861.634	54.27
861.808	101.37
861.982	50.18
862.157	13.31
862.331	72.7
862.505	13.31
862.679	27.65
862.853	91.13
863.027	-15.36
863.201	146.43
863.375	11.26
863.549	60.42
863.722	31.74
863.896	41.98
864.07	-7.17
864.244	-25.6
864.418	-33.79
864.592	23.55
864.766	-13.31
864.939	58.37
865.113	87.04
865.287	82.94
865.461	-3.07
865.634	58.37
865.808	66.56
865.982	17.41
866.156	82.94
866.329	-17.41
866.503	37.89
866.676	87.04
866.85	93.18
867.024	-25.6
867.197	82.94
867.371	35.84
867.544	-29.7
867.718	11.26
867.891	130.05
868.065	27.65
868.238	-13.31
868.412	54.27
868.585	78.85
868.759	29.7
868.932	60.42
869.105	15.36
869.279	19.46
869.452	39.94
869.625	-1.02
869.799	41.98
869.972	-15.36
870.145	41.98
870.319	66.56
870.492	48.13
870.665	-41.98
870.838	48.13
871.011	-1.02
871.185	93.18
871.358	15.36
871.531	62.46
871.704	17.41
871.877	33.79
872.05	56.32
872.223	-7.17
872.396	113.66
872.569	31.74
872.742	11.26
872.915	72.7
873.088	-39.94
873.261	1.02
873.434	56.32
873.607	-21.5
873.78	13.31
873.953	11.26
874.126	101.37
874.299	9.22
874.471	9.22
874.644	95.23
874.817	31.74
874.99	62.46
875.163	60.42
875.335	89.09
875.508	27.65
875.681	52.22
875.853	66.56
876.026	-25.6
876.199	93.18
876.371	103.42
876.544	64.51
876.717	48.13
876.889	74.75
877.062	101.37
877.234	23.55
877.407	13.31
877.579	-50.18
877.752	-1.02
877.924	31.74
878.097	-9.22
878.269	35.84
878.442	7.17
878.614	78.85
878.786	-1.02
878.959	60.42
879.131	56.32
879.303	-29.7
879.476	-5.12
879.648	33.79
879.82	-44.03
879.993	-1.02
880.165	-7.17
880.337	21.5
880.509	-7.17
880.681	-41.98
880.854	52.22
881.026	11.26
881.198	31.74
881.37	109.57
881.542	56.32
881.714	25.6
881.886	-9.22
882.058	44.03
882.23	25.6
882.402	44.03
882.574	60.42
882.746	50.18
882.918	37.89
883.09	3.07
883.262	3.07
883.434	48.13
883.606	-17.41
883.778	23.55
883.95	74.75
884.122	52.22
884.293	64.51
884.465	-52.22
884.637	-13.31
884.809	-82.94
884.98	25.6
885.152	78.85
885.324	35.84
885.496	39.94
885.667	9.22
885.839	52.22
886.011	78.85
886.182	39.94
886.354	117.76
886.525	-23.55
886.697	7.17
886.869	25.6
887.04	-15.36
887.212	78.85
887.383	58.37
887.555	25.6
887.726	-19.46
887.897	5.12
888.069	56.32
888.24	21.5
888.412	64.51
888.583	27.65
888.754	25.6
888.926	-15.36
889.097	19.46
889.268	7.17
889.44	23.55
889.611	-44.03
889.782	-66.56
889.953	13.31
890.125	23.55
890.296	-27.65
890.467	-31.74
890.638	-7.17
890.809	78.85
890.98	-66.56
891.151	66.56
891.323	99.33
891.494	-15.36
891.665	44.03
891.836	58.37
892.007	-5.12
892.178	9.22
892.349	74.75
892.52	7.17
892.691	58.37
892.862	60.42
893.032	-50.18
893.203	-72.7
893.374	23.55
893.545	84.99
893.716	-31.74
893.887	35.84
894.057	-19.46
894.228	-11.26
894.399	-5.12
894.57	95.23
894.74	23.55
894.911	-21.5
895.082	-31.74
895.253	-17.41
895.423	-1.02
895.594	7.17
895.764	3.07
895.935	-76.8
896.106	7.17
896.276	44.03
896.447	66.56
896.617	17.41
896.788	-48.13
896.958	25.6
897.129	-56.32
897.299	60.42
897.47	25.6
897.64	37.89
897.81	91.13
897.981	9.22
898.151	-17.41
898.322	33.79
898.492	5.12
898.662	-15.36
898.832	7.17
899.003	13.31
899.173	95.23
899.343	1.02
899.513	-25.6
