Data from USB4F104151__38__13-05-06-645.txt Node

Date: Fri Mar 14 13:05:06 EDT 2025
User: louis
Spectrometer: USB4F10415
Trigger mode: 4
Integration Time (sec): 4.000000E-2
Scans to average: 1
Electric dark correction enabled: true
Nonlinearity correction enabled: false
Boxcar width: 0
XAxis mode: Wavelengths
Number of Pixels in Spectrum: 3648
>>>>>Begin Spectral Data<<<<<
178.204	-104.45
178.424	-104.45
178.644	-104.45
178.864	-217.08
179.084	-163.84
179.304	24.58
179.524	2.05
179.744	12.29
179.964	34.82
180.184	-28.67
180.404	8.19
180.624	-75.77
180.844	-55.3
181.064	-71.68
181.283	43.01
181.503	57.34
181.723	49.15
181.943	2.05
182.163	165.89
182.383	-26.62
182.602	67.58
182.822	83.97
183.042	-43.01
183.262	49.15
183.482	43.01
183.701	116.73
183.921	55.3
184.141	-63.49
184.361	114.69
184.58	43.01
184.8	63.49
185.02	28.67
185.239	116.73
185.459	43.01
185.679	47.1
185.898	16.38
186.118	98.3
186.338	38.91
186.557	88.06
186.777	6.14
186.997	-28.67
187.216	-4.1
187.436	92.16
187.655	94.21
187.875	90.11
188.095	53.25
188.314	73.73
188.534	92.16
188.753	18.43
188.973	86.01
189.192	108.54
189.412	28.67
189.631	36.86
189.851	36.86
190.07	106.49
190.29	-6.14
190.509	47.1
190.729	55.3
190.948	36.86
191.168	245.76
191.387	81.92
191.607	6.14
191.826	69.63
192.045	53.25
192.265	49.15
192.484	45.06
192.704	22.53
192.923	-57.34
193.142	147.45
193.362	-20.48
193.581	90.11
193.8	59.39
194.02	65.53
194.239	59.39
194.458	53.25
194.678	16.38
194.897	32.77
195.116	40.96
195.335	4.1
195.555	100.35
195.774	38.91
195.993	133.12
196.212	67.58
196.432	8.19
196.651	49.15
196.87	24.58
197.089	100.35
197.308	4.1
197.528	116.73
197.747	20.48
197.966	16.38
198.185	108.54
198.404	94.21
198.623	73.73
198.842	81.92
199.062	92.16
199.281	40.96
199.5	49.15
199.719	139.26
199.938	34.82
200.157	45.06
200.376	20.48
200.595	122.88
200.814	34.82
201.033	65.53
201.252	143.36
201.471	133.12
201.69	71.68
201.909	55.3
202.128	94.21
202.347	110.59
202.566	20.48
202.785	-4.1
203.004	-10.24
203.223	192.51
203.442	43.01
203.661	26.62
203.879	106.49
204.098	79.87
204.317	61.44
204.536	88.06
204.755	20.48
204.974	141.31
205.193	36.86
205.411	94.21
205.63	34.82
205.849	34.82
206.068	4.1
206.287	47.1
206.505	43.01
206.724	-30.72
206.943	65.53
207.162	69.63
207.381	110.59
207.599	-24.58
207.818	18.43
208.037	2.05
208.255	28.67
208.474	106.49
208.693	126.97
208.911	57.34
209.13	86.01
209.349	57.34
209.567	57.34
209.786	90.11
210.005	100.35
210.223	114.69
210.442	8.19
210.661	122.88
210.879	94.21
211.098	114.69
211.316	59.39
211.535	61.44
211.753	26.62
211.972	75.77
212.191	53.25
212.409	49.15
212.628	106.49
212.846	45.06
213.065	98.3
213.283	110.59
213.502	63.49
213.72	102.4
213.938	116.73
214.157	67.58
214.375	73.73
214.594	-14.34
214.812	20.48
215.031	30.72
215.249	69.63
215.467	159.74
215.686	106.49
215.904	120.83
216.122	10.24
216.341	100.35
216.559	69.63
216.778	49.15
216.996	86.01
217.214	79.87
217.432	20.48
217.651	92.16
217.869	57.34
218.087	24.58
218.306	26.62
218.524	75.77
218.742	16.38
218.96	-4.1
219.179	67.58
219.397	135.17
219.615	188.41
219.833	81.92
220.051	104.45
220.27	106.49
220.488	88.06
220.706	10.24
220.924	-8.19
221.142	75.77
221.36	45.06
221.578	67.58
221.796	12.29
222.015	96.25
222.233	16.38
222.451	141.31
222.669	-14.34
222.887	122.88
223.105	38.91
223.323	129.02
223.541	47.1
223.759	90.11
223.977	100.35
224.195	57.34
224.413	96.25
224.631	88.06
224.849	51.2
225.067	182.27
225.285	45.06
225.503	57.34
225.721	4.1
225.939	94.21
226.157	81.92
226.375	198.65
226.592	30.72
226.81	-16.38
227.028	98.3
227.246	81.92
227.464	81.92
227.682	98.3
227.9	73.73
228.117	94.21
228.335	90.11
228.553	24.58
228.771	49.15
228.989	40.96
229.206	69.63
229.424	131.07
229.642	8.19
229.86	-40.96
230.077	79.87
230.295	118.78
230.513	51.2
230.731	32.77
230.948	90.11
231.166	137.21
231.384	104.45
231.601	26.62
231.819	98.3
232.037	43.01
232.254	88.06
232.472	75.77
232.689	43.01
232.907	34.82
233.125	40.96
233.342	51.2
233.56	45.06
233.777	98.3
233.995	20.48
234.213	98.3
234.43	61.44
234.648	43.01
234.865	118.78
235.083	51.2
235.3	51.2
235.518	73.73
235.735	73.73
235.953	96.25
236.17	8.19
236.388	32.77
236.605	98.3
236.822	61.44
237.04	94.21
237.257	0
237.475	-30.72
237.692	49.15
237.909	96.25
238.127	53.25
238.344	83.97
238.562	12.29
238.779	0
238.996	98.3
239.214	94.21
239.431	182.27
239.648	53.25
239.865	71.68
240.083	71.68
240.3	40.96
240.517	32.77
240.735	71.68
240.952	57.34
241.169	122.88
241.386	53.25
241.603	0
241.821	0
242.038	96.25
242.255	108.54
242.472	88.06
242.689	106.49
242.907	79.87
243.124	98.3
243.341	55.3
243.558	-2.05
243.775	51.2
243.992	-22.53
244.209	98.3
244.426	126.97
244.643	100.35
244.86	-6.14
245.078	73.73
245.295	92.16
245.512	122.88
245.729	-24.58
245.946	112.64
246.163	59.39
246.38	14.34
246.597	81.92
246.814	75.77
247.031	71.68
247.248	24.58
247.464	67.58
247.681	-12.29
247.898	96.25
248.115	106.49
248.332	73.73
248.549	96.25
248.766	149.5
248.983	143.36
249.2	55.3
249.417	73.73
249.633	43.01
249.85	26.62
250.067	65.53
250.284	102.4
250.501	116.73
250.717	65.53
250.934	65.53
251.151	59.39
251.368	32.77
251.585	59.39
251.801	98.3
252.018	18.43
252.235	36.86
252.451	34.82
252.668	-16.38
252.885	61.44
253.102	28.67
253.318	45.06
253.535	47.1
253.752	26.62
253.968	57.34
254.185	43.01
254.401	32.77
254.618	104.45
254.835	24.58
255.051	79.87
255.268	90.11
255.484	108.54
255.701	63.49
255.917	67.58
256.134	49.15
256.351	167.93
256.567	-77.82
256.784	26.62
257	65.53
257.217	114.69
257.433	88.06
257.65	49.15
257.866	96.25
258.082	-100.35
258.299	53.25
258.515	24.58
258.732	61.44
258.948	69.63
259.165	96.25
259.381	49.15
259.597	30.72
259.814	124.93
260.03	26.62
260.246	-26.62
260.463	67.58
260.679	98.3
260.895	53.25
261.112	120.83
261.328	51.2
261.544	-14.34
261.761	155.65
261.977	73.73
262.193	34.82
262.409	53.25
262.626	10.24
262.842	108.54
263.058	-22.53
263.274	57.34
263.49	92.16
263.707	100.35
263.923	159.74
264.139	-4.1
264.355	40.96
264.571	112.64
264.787	79.87
265.004	110.59
265.22	-22.53
265.436	55.3
265.652	20.48
265.868	92.16
266.084	36.86
266.3	92.16
266.516	51.2
266.732	32.77
266.948	75.77
267.164	75.77
267.38	92.16
267.596	59.39
267.812	106.49
268.028	96.25
268.244	28.67
268.46	86.01
268.676	10.24
268.892	61.44
269.108	112.64
269.324	81.92
269.54	8.19
269.756	120.83
269.972	-14.34
270.188	73.73
270.403	0
270.619	163.84
270.835	90.11
271.051	30.72
271.267	55.3
271.483	-49.15
271.698	34.82
271.914	75.77
272.13	69.63
272.346	110.59
272.562	59.39
272.777	106.49
272.993	79.87
273.209	32.77
273.425	135.17
273.64	47.1
273.856	73.73
274.072	81.92
274.287	4.1
274.503	79.87
274.719	75.77
274.934	45.06
275.15	40.96
275.366	24.58
275.581	57.34
275.797	18.43
276.012	79.87
276.228	79.87
276.444	69.63
276.659	131.07
276.875	6.14
277.09	83.97
277.306	65.53
277.521	43.01
277.737	45.06
277.952	81.92
278.168	-32.77
278.383	106.49
278.599	102.4
278.814	57.34
279.03	75.77
279.245	137.21
279.461	-12.29
279.676	75.77
279.892	32.77
280.107	63.49
280.322	40.96
280.538	112.64
280.753	43.01
280.969	86.01
281.184	67.58
281.399	81.92
281.615	0
281.83	8.19
282.045	8.19
282.26	59.39
282.476	94.21
282.691	59.39
282.906	65.53
283.122	83.97
283.337	-26.62
283.552	94.21
283.767	-14.34
283.983	79.87
284.198	0
284.413	110.59
284.628	38.91
284.843	16.38
285.058	96.25
285.274	51.2
285.489	63.49
285.704	90.11
285.919	147.45
286.134	114.69
286.349	57.34
286.564	2.05
286.779	147.45
286.995	36.86
287.21	0
287.425	69.63
287.64	75.77
287.855	73.73
288.07	10.24
288.285	32.77
288.5	67.58
288.715	26.62
288.93	77.82
289.145	69.63
289.36	133.12
289.575	34.82
289.79	163.84
290.004	10.24
290.219	129.02
290.434	90.11
290.649	32.77
290.864	108.54
291.079	-14.34
291.294	0
291.509	118.78
291.724	104.45
291.938	-16.38
292.153	83.97
292.368	67.58
292.583	98.3
292.798	79.87
293.012	100.35
293.227	47.1
293.442	49.15
293.657	20.48
293.871	77.82
294.086	94.21
294.301	133.12
294.516	8.19
294.73	110.59
294.945	6.14
295.16	65.53
295.374	114.69
295.589	124.93
295.804	63.49
296.018	94.21
296.233	124.93
296.447	92.16
296.662	-49.15
296.877	73.73
297.091	176.13
297.306	43.01
297.52	49.15
297.735	49.15
297.949	114.69
298.164	116.73
298.378	116.73
298.593	75.77
298.807	98.3
299.022	116.73
299.236	157.69
299.451	102.4
299.665	49.15
299.88	57.34
300.094	57.34
300.309	6.14
300.523	49.15
300.737	2.05
300.952	77.82
301.166	57.34
301.381	-8.19
301.595	-8.19
301.809	114.69
302.024	63.49
302.238	49.15
302.452	77.82
302.667	47.1
302.881	139.26
303.095	67.58
303.309	10.24
303.524	73.73
303.738	63.49
303.952	20.48
304.166	57.34
304.381	34.82
304.595	122.88
304.809	-6.14
305.023	61.44
305.237	73.73
305.452	36.86
305.666	79.87
305.88	73.73
306.094	73.73
306.308	100.35
306.522	176.13
306.736	79.87
306.95	73.73
307.164	32.77
307.379	-16.38
307.593	155.65
307.807	92.16
308.021	77.82
308.235	77.82
308.449	22.53
308.663	45.06
308.877	124.93
309.091	100.35
309.305	145.41
309.519	4.1
309.733	65.53
309.947	20.48
310.161	77.82
310.374	100.35
310.588	106.49
310.802	155.65
311.016	57.34
311.23	77.82
311.444	120.83
311.658	55.3
311.872	114.69
312.085	83.97
312.299	131.07
312.513	65.53
312.727	77.82
312.941	0
313.154	69.63
313.368	55.3
313.582	73.73
313.796	40.96
314.009	49.15
314.223	122.88
314.437	36.86
314.651	153.6
314.864	28.67
315.078	104.45
315.292	8.19
315.505	49.15
315.719	65.53
315.933	75.77
316.146	57.34
316.36	90.11
316.573	40.96
316.787	51.2
317.001	75.77
317.214	69.63
317.428	92.16
317.641	51.2
317.855	65.53
318.068	24.58
318.282	-6.14
318.495	124.93
318.709	71.68
318.922	92.16
319.136	24.58
319.349	38.91
319.563	32.77
319.776	36.86
319.99	53.25
320.203	98.3
320.417	24.58
320.63	155.65
320.843	110.59
321.057	77.82
321.27	28.67
321.483	65.53
321.697	104.45
321.91	75.77
322.124	40.96
322.337	47.1
322.55	12.29
322.763	69.63
322.977	63.49
323.19	126.97
323.403	96.25
323.617	65.53
323.83	34.82
324.043	88.06
324.256	45.06
324.469	57.34
324.683	104.45
324.896	0
325.109	92.16
325.322	47.1
325.535	83.97
325.748	67.58
325.962	83.97
326.175	118.78
326.388	73.73
326.601	110.59
326.814	159.74
327.027	94.21
327.24	83.97
327.453	43.01
327.666	40.96
327.879	65.53
328.092	153.6
328.305	108.54
328.518	86.01
328.731	51.2
328.944	36.86
329.157	20.48
329.37	114.69
329.583	108.54
329.796	126.97
330.009	2.05
330.222	69.63
330.435	81.92
330.648	131.07
330.861	118.78
331.073	73.73
331.286	149.5
331.499	59.39
331.712	49.15
331.925	59.39
332.138	49.15
332.35	116.73
332.563	40.96
332.776	75.77
332.989	73.73
333.202	12.29
333.414	98.3
333.627	12.29
333.84	108.54
334.053	45.06
334.265	32.77
334.478	57.34
334.691	133.12
334.903	51.2
335.116	-30.72
335.329	-2.05
335.541	131.07
335.754	172.03
335.966	30.72
336.179	49.15
336.392	77.82
336.604	40.96
336.817	49.15
337.029	163.84
337.242	67.58
337.454	88.06
337.667	32.77
337.88	100.35
338.092	49.15
338.305	143.36
338.517	4.1
338.729	69.63
338.942	67.58
339.154	34.82
339.367	110.59
339.579	112.64
339.792	53.25
340.004	110.59
340.217	14.34
340.429	94.21
340.641	0
340.854	75.77
341.066	92.16
341.278	159.74
341.491	69.63
341.703	79.87
341.915	-4.1
342.128	106.49
342.34	14.34
342.552	133.12
342.764	108.54
342.977	59.39
343.189	86.01
343.401	69.63
343.613	22.53
343.826	57.34
344.038	24.58
344.25	63.49
344.462	102.4
344.674	57.34
344.886	-6.14
345.099	102.4
345.311	79.87
345.523	108.54
345.735	45.06
345.947	110.59
346.159	28.67
346.371	18.43
346.583	38.91
346.795	122.88
347.007	49.15
347.219	94.21
347.431	112.64
347.643	55.3
347.855	67.58
348.067	114.69
348.279	10.24
348.491	69.63
348.703	96.25
348.915	47.1
349.127	20.48
349.339	106.49
349.551	10.24
349.763	61.44
349.975	57.34
350.187	167.93
350.399	145.41
350.61	81.92
350.822	100.35
351.034	40.96
351.246	90.11
351.458	147.45
351.669	133.12
351.881	88.06
352.093	88.06
352.305	81.92
352.517	75.77
352.728	77.82
352.94	49.15
353.152	92.16
353.363	59.39
353.575	90.11
353.787	159.74
353.999	122.88
354.21	16.38
354.422	49.15
354.633	65.53
354.845	55.3
355.057	40.96
355.268	45.06
355.48	114.69
355.692	59.39
355.903	69.63
356.115	-34.82
356.326	45.06
356.538	145.41
356.749	149.5
356.961	61.44
357.172	92.16
357.384	120.83
357.595	157.69
357.807	57.34
358.018	108.54
358.23	8.19
358.441	92.16
358.653	126.97
358.864	81.92
359.075	94.21
359.287	16.38
359.498	81.92
359.709	81.92
359.921	24.58
360.132	129.02
360.344	83.97
360.555	16.38
360.766	122.88
360.977	-2.05
361.189	172.03
361.4	0
361.611	137.21
361.823	114.69
362.034	112.64
362.245	43.01
362.456	49.15
362.667	180.22
362.879	65.53
363.09	69.63
363.301	88.06
363.512	129.02
363.723	34.82
363.935	69.63
364.146	20.48
364.357	14.34
364.568	151.55
364.779	43.01
364.99	186.37
365.201	108.54
365.412	79.87
365.623	-14.34
365.834	83.97
366.045	114.69
366.256	143.36
366.467	118.78
366.678	36.86
366.889	100.35
367.1	112.64
367.311	155.65
367.522	77.82
367.733	69.63
367.944	53.25
368.155	26.62
368.366	147.45
368.577	106.49
368.788	124.93
368.999	-8.19
369.209	135.17
369.42	190.46
369.631	157.69
369.842	139.26
370.053	69.63
370.264	57.34
370.474	61.44
370.685	112.64
370.896	0
371.107	114.69
371.317	147.45
371.528	94.21
371.739	20.48
371.95	77.82
372.16	51.2
372.371	47.1
372.582	43.01
372.792	112.64
373.003	71.68
373.214	118.78
373.424	81.92
373.635	10.24
373.846	159.74
374.056	65.53
374.267	77.82
374.477	116.73
374.688	98.3
374.898	20.48
375.109	81.92
375.319	102.4
375.53	212.99
375.74	108.54
375.951	69.63
376.161	24.58
376.372	182.27
376.582	36.86
376.793	106.49
377.003	98.3
377.214	75.77
377.424	61.44
377.635	118.78
377.845	71.68
378.055	126.97
378.266	90.11
378.476	75.77
378.686	120.83
378.897	118.78
379.107	16.38
379.317	124.93
379.528	-104.45
379.738	106.49
379.948	34.82
380.158	190.46
380.369	98.3
380.579	172.03
380.789	102.4
380.999	34.82
381.21	59.39
381.42	126.97
381.63	43.01
381.84	124.93
382.05	149.5
382.261	90.11
382.471	120.83
382.681	32.77
382.891	139.26
383.101	139.26
383.311	24.58
383.521	65.53
383.731	98.3
383.941	182.27
384.151	96.25
384.361	38.91
384.571	98.3
384.781	133.12
384.991	204.8
385.201	124.93
385.411	83.97
385.621	61.44
385.831	96.25
386.041	51.2
386.251	38.91
386.461	98.3
386.671	49.15
386.881	32.77
387.091	77.82
387.301	47.1
387.511	55.3
387.72	26.62
387.93	88.06
388.14	65.53
388.35	122.88
388.56	131.07
388.769	45.06
388.979	116.73
389.189	43.01
389.399	36.86
389.609	129.02
389.818	65.53
390.028	77.82
390.238	69.63
390.447	106.49
390.657	135.17
390.867	143.36
391.076	16.38
391.286	88.06
391.496	34.82
391.705	55.3
391.915	112.64
392.125	79.87
392.334	108.54
392.544	90.11
392.753	143.36
392.963	71.68
393.172	106.49
393.382	73.73
393.591	172.03
393.801	139.26
394.01	178.17
394.22	98.3
394.429	90.11
394.639	102.4
394.848	104.45
395.058	155.65
395.267	120.83
395.477	83.97
395.686	90.11
395.895	180.22
396.105	196.6
396.314	145.41
396.524	77.82
396.733	124.93
396.942	233.47
397.152	126.97
397.361	106.49
397.57	141.31
397.78	157.69
397.989	192.51
398.198	174.08
398.407	145.41
398.617	38.91
398.826	231.42
399.035	172.03
399.244	167.93
399.453	104.45
399.663	98.3
399.872	118.78
400.081	137.21
400.29	233.47
400.499	180.22
400.708	163.84
400.917	112.64
401.127	165.89
401.336	34.82
401.545	186.37
401.754	249.85
401.963	243.71
402.172	139.26
402.381	118.78
402.59	169.98
402.799	106.49
403.008	196.6
403.217	188.41
403.426	176.13
403.635	174.08
403.844	129.02
404.053	202.75
404.262	129.02
404.471	223.23
404.68	229.37
404.888	239.61
405.097	204.8
405.306	260.09
405.515	212.99
405.724	208.89
405.933	264.19
406.142	190.46
406.35	309.24
406.559	180.22
406.768	219.13
406.977	239.61
407.185	231.42
407.394	264.19
407.603	196.6
407.812	262.14
408.02	337.91
408.229	241.66
408.438	276.48
408.646	260.09
408.855	270.33
409.064	337.91
409.272	284.67
409.481	358.39
409.69	237.56
409.898	270.33
410.107	329.72
410.315	368.63
410.524	376.83
410.733	393.21
410.941	464.89
411.15	448.51
411.358	528.38
411.567	593.91
411.775	458.74
411.984	493.56
412.192	491.51
412.401	462.84
412.609	555
412.818	663.54
413.026	526.33
413.234	499.7
413.443	546.81
413.651	595.96
413.86	684.02
414.068	712.69
414.276	706.55
414.485	632.82
414.693	706.55
414.901	765.94
415.11	804.85
415.318	862.19
415.526	880.63
415.734	884.72
415.943	878.58
416.151	954.35
416.359	968.69
416.567	991.22
416.776	1089.52
416.984	1038.32
417.192	1187.82
417.4	1118.19
417.608	1200.11
417.817	1191.92
418.025	1363.95
418.233	1363.95
418.441	1193.97
418.649	1277.93
418.857	1345.52
419.065	1495.02
419.273	1503.21
419.481	1439.72
419.689	1703.91
419.897	1632.23
420.105	1544.17
420.313	1642.47
420.521	1832.93
420.729	1789.92
420.937	1824.74
421.145	1892.32
421.353	2080.74
421.561	2179.04
421.769	2222.05
421.977	2338.78
422.185	2170.85
422.393	2414.56
422.601	2582.49
422.809	2605.02
423.017	2590.68
423.224	2631.64
423.432	2766.81
423.64	2818
423.848	3131.34
424.056	3024.85
424.263	3168.21
424.471	3102.67
424.679	3319.76
424.887	3436.49
425.094	3579.85
425.302	3532.75
425.51	3561.42
425.718	3778.5
425.925	3753.93
426.133	3907.52
426.341	4339.65
426.548	4362.17
426.756	4341.69
426.964	4396.99
427.171	4665.27
427.379	4847.54
427.586	4970.42
427.794	5070.77
428.001	5357.49
428.209	5453.74
428.417	5535.66
428.624	5717.93
428.832	5771.18
429.039	5855.14
429.247	5842.85
429.454	6268.83
429.662	6823.83
429.869	6252.45
430.076	6967.19
430.284	6504.35
430.491	6778.78
430.699	7264.15
430.906	7307.15
431.114	7212.95
431.321	7579.53
431.528	7798.66
431.736	8167.3
431.943	8619.9
432.15	8306.56
432.358	8517.5
432.565	8978.3
432.772	9019.25
432.979	9547.63
433.187	9490.29
433.394	9547.63
433.601	10274.66
433.808	10458.98
434.016	10104.68
434.223	10600.29
434.43	11288.4
434.637	11038.55
434.844	11738.96
435.052	11917.13
435.259	12035.91
435.466	12218.18
435.673	11849.55
435.88	12619.58
436.087	13401.91
436.294	13360.95
436.501	13033.27
436.708	13213.49
436.915	13907.76
437.122	14217
437.329	14186.28
437.537	14800.67
437.743	15382.29
437.95	14657.31
438.157	15746.83
438.364	16072.46
438.571	16146.19
438.778	16398.09
438.985	17891.05
439.192	17094.4
439.399	17417.97
439.606	17403.64
439.813	18222.83
440.02	19642.07
440.227	19177.18
440.433	18697.95
440.64	19551.96
440.847	19318.49
441.054	20057.81
441.261	21046.97
441.467	21096.13
441.674	21272.25
441.881	21862.07
442.088	21966.51
442.294	21540.54
442.501	22386.35
442.708	23082.66
442.914	24006.29
443.121	24542.86
443.328	24000.15
443.534	25534.07
443.741	24843.91
443.948	24397.45
444.154	26631.79
444.361	26248.82
444.568	26576.49
444.774	26855.01
444.981	26736.23
445.187	27795.03
445.394	29013.57
445.6	28309.07
445.807	31295.01
446.013	30113.33
446.22	30201.4
446.426	31577.63
446.633	32259.6
446.839	33316.36
447.046	31733.28
447.252	33203.72
447.459	33721.85
447.665	33383.94
447.871	35507.68
448.078	36548.05
448.284	34498.03
448.491	36009.43
448.697	36978.12
448.903	38118.84
449.11	37631.43
449.316	37096.91
449.522	37850.56
449.728	38649.27
449.935	39075.24
450.141	38950.32
450.347	39906.72
450.553	38987.18
450.76	39685.54
450.966	40920.46
451.172	40029.6
451.378	41188.75
451.584	40291.74
451.791	41381.26
451.997	41409.93
452.203	42014.08
452.409	41813.38
452.615	41655.68
452.821	40166.81
453.027	39792.03
453.233	42147.2
453.44	40453.53
453.646	40865.17
453.852	40695.19
454.058	41454.98
454.264	40326.55
454.47	41137.55
454.676	40050.08
454.882	41790.85
455.088	38157.75
455.294	38387.13
455.5	39128.49
455.705	39495.08
455.911	38483.38
456.117	37076.43
456.323	37076.43
456.529	34915.82
456.735	36658.64
456.941	35677.66
457.147	35065.32
457.352	34063.86
457.558	33889.79
457.764	33488.38
457.97	32923.15
458.176	32509.46
458.381	32282.13
458.587	30510.64
458.793	30731.82
458.999	28902.98
459.204	31286.82
459.41	30043.7
459.616	28532.3
459.821	28511.82
460.027	28368.46
460.233	27835.99
460.438	26181.23
460.644	26611.31
460.85	25861.75
461.055	24970.88
461.261	24952.45
461.466	23221.92
461.672	22552.23
461.878	24110.74
462.083	22546.09
462.289	21954.22
462.494	21841.59
462.7	20801.22
462.905	20289.23
463.111	21012.16
463.316	21124.8
463.522	20569.8
463.727	20551.37
463.932	20596.42
464.138	20436.68
464.343	20428.49
464.549	19891.92
464.754	20467.4
464.959	20403.91
465.165	19959.5
465.37	19449.56
465.575	18812.64
465.781	19603.16
465.986	19488.47
466.191	18882.27
466.397	18622.18
466.602	17833.71
466.807	18407.14
467.012	18282.22
467.218	18161.39
467.423	18077.42
467.628	18282.22
467.833	18618.08
468.038	18310.89
468.244	17612.53
468.449	18300.65
468.654	17563.38
468.859	17626.87
469.064	17647.35
469.269	16770.82
469.474	17032.96
469.679	17573.62
469.885	16838.4
470.09	17231.61
470.295	16973.56
470.5	16494.34
470.705	16342.79
470.91	16432.9
471.115	16219.91
471.32	16422.66
471.525	16244.49
471.73	16174.86
471.935	15605.52
472.139	15243.03
472.344	15599.38
472.549	15499.03
472.754	15441.68
472.959	14747.42
473.164	14567.2
473.369	14538.53
473.574	14946.08
473.778	14849.82
473.983	14683.94
474.188	14819.1
474.393	13743.92
474.598	14087.98
474.802	14004.01
475.007	13842.22
475.212	13682.48
475.417	13254.45
475.621	13309.75
475.826	13348.66
476.031	13068.09
476.235	12691.26
476.44	13199.16
476.645	12793.66
476.849	12906.3
477.054	12547.9
477.259	12443.46
477.463	12607.3
477.668	12302.15
477.872	12453.7
478.077	11951.95
478.282	11829.07
478.486	11589.46
478.691	11657.04
478.895	11700.05
479.1	11439.95
479.304	11501.39
479.509	11052.89
479.713	11312.98
479.918	11312.98
480.122	10987.35
480.326	11251.54
480.531	11155.29
480.735	10907.48
480.94	10815.32
481.144	11282.26
481.348	10725.21
481.553	11067.22
481.757	10577.76
481.961	10817.37
482.166	10985.3
482.37	10843.99
482.574	10686.3
482.778	10479.46
482.983	10813.27
483.187	10727.26
483.391	10704.73
483.595	10690.4
483.8	10557.28
484.004	10649.44
484.208	10631.01
484.412	10635.1
484.616	10637.15
484.821	10876.76
485.025	10612.57
485.229	10592.09
485.433	10811.23
485.637	10633.05
485.841	10313.57
486.045	10528.61
486.249	10661.73
486.453	10624.86
486.657	10596.19
486.861	10465.12
487.065	10567.52
487.269	10495.84
487.473	10565.47
487.677	10860.38
487.881	10897.24
488.085	10612.57
488.289	10708.83
488.493	10448.74
488.697	10831.71
488.901	10858.33
489.105	10776.41
489.309	10856.28
489.512	10901.34
489.716	10780.51
489.92	10641.25
490.124	10757.98
490.328	11067.22
490.531	10708.83
490.735	11067.22
490.939	10958.68
491.143	11206.49
491.346	11118.42
491.55	10983.26
491.754	11001.69
491.958	11280.21
492.161	10893.15
492.365	11114.33
492.569	11405.14
492.772	11108.18
492.976	11181.91
493.18	11564.88
493.383	11804.49
493.587	11630.41
493.79	11730.76
493.994	11691.85
494.197	11710.29
494.401	11837.26
494.605	11882.31
494.808	12003.14
495.012	12083.02
495.215	12074.82
495.419	12261.19
495.622	11990.86
495.825	12287.81
496.029	12234.57
496.232	12537.66
496.436	12605.25
496.639	13082.42
496.843	12453.7
497.046	13004.6
497.249	13168.44
497.453	13231.93
497.656	13477.68
497.859	13141.82
498.063	13559.6
498.266	13827.89
498.469	13543.22
498.673	14057.26
498.876	14237.48
499.079	14331.69
499.282	14137.13
499.485	14466.85
499.689	14864.16
499.892	14890.78
500.095	14690.08
500.298	15214.36
500.501	15122.2
500.705	15466.26
500.908	15537.94
501.111	15767.31
501.314	15902.48
501.517	16021.26
501.72	16277.26
501.923	16178.95
502.126	16725.76
502.329	16887.55
502.532	16899.84
502.735	17084.16
502.938	17555.19
503.141	17581.81
503.344	17927.92
503.547	17977.07
503.75	18128.62
503.953	18343.66
504.156	18331.37
504.359	18659.04
504.562	18847.46
504.765	19187.42
504.968	19541.72
505.17	19400.41
505.373	19490.52
505.576	19891.92
505.779	20041.42
505.982	20469.45
506.185	20522.69
506.387	20559.56
506.59	20893.38
506.793	21171.9
506.996	21096.13
507.198	21733.04
507.401	21675.7
507.604	22038.19
507.807	22503.08
508.009	22437.55
508.212	22656.68
508.415	22986.4
508.617	23408.28
508.82	23244.45
509.022	23260.83
509.225	23795.35
509.428	24073.87
509.63	24077.97
509.833	24370.83
510.035	25036.42
510.238	24522.38
510.44	24802.95
510.643	25466.49
510.845	25910.9
511.048	25806.45
511.25	25978.48
511.453	26015.35
511.655	27293.28
511.858	26834.53
512.06	27166.31
512.262	27457.12
512.465	27500.12
512.667	27965.01
512.87	27944.53
513.072	28266.06
513.274	28388.94
513.477	28638.79
513.679	29300.29
513.881	29341.25
514.084	29638.2
514.286	29799.99
514.488	30203.44
514.69	30766.63
514.893	30533.17
515.095	30866.98
515.297	31354.4
515.499	31340.07
515.701	31731.23
515.904	32304.66
516.106	32368.15
516.308	32574.99
516.51	33170.95
516.712	33302.02
516.914	33570.3
517.116	33674.75
517.318	33865.21
517.52	34319.86
517.722	34424.31
517.925	35104.23
518.127	35401.19
518.329	35450.34
518.531	35470.82
518.733	36156.89
518.935	36027.87
519.136	36294.1
519.338	37127.63
519.54	36808.14
519.742	37623.23
519.944	37385.67
520.146	38278.58
520.348	38352.31
520.55	38604.21
520.752	38972.85
520.954	39564.71
521.155	39275.94
521.357	39626.15
521.559	39667.11
521.761	40785.3
521.963	40271.26
522.164	40582.55
522.366	40916.37
522.568	41289.1
522.77	41508.23
522.971	42349.95
523.173	41901.44
523.375	42190.2
523.576	42526.07
523.778	42712.44
523.98	43371.88
524.181	43060.59
524.383	43685.22
524.584	44105.05
524.786	43922.79
524.988	43777.38
525.189	44402.01
525.391	44637.53
525.592	44969.3
525.794	44864.85
525.995	45204.81
526.197	45294.92
526.398	45368.65
526.6	45337.93
526.801	45878.6
527.003	46165.31
527.204	45921.6
527.406	46263.61
527.607	46535.99
527.808	47019.31
528.01	46073.15
528.211	46984.5
528.412	47607.08
528.614	47351.09
528.815	47576.36
529.016	47971.62
529.218	47047.99
529.419	47492.4
529.62	47953.19
529.822	47760.68
530.023	48194.85
530.224	48016.68
530.425	48155.94
530.626	47973.67
530.828	47826.21
531.029	49161.49
531.23	48461.08
531.431	48170.27
531.632	48573.72
531.833	48696.6
532.035	48446.75
532.236	48704.79
532.437	48964.88
532.638	48856.34
532.839	49093.91
533.04	49261.84
533.241	48721.18
533.442	49550.6
533.643	49122.58
533.844	48946.45
534.045	49270.03
534.246	48610.59
534.447	49419.53
534.648	49155.35
534.849	49274.13
535.05	49327.38
535.251	49329.42
535.451	49075.48
535.652	49655.05
535.853	49370.38
536.054	49859.85
536.255	49394.96
536.456	48964.88
536.657	50144.51
536.857	49519.88
537.058	49339.66
537.259	49487.12
537.46	49792.26
537.66	49138.96
537.861	49749.26
538.062	49237.26
538.263	49956.1
538.463	49474.83
538.664	49181.97
538.865	50056.45
539.065	49564.94
539.266	49106.19
539.466	49872.13
539.667	48983.32
539.868	49614.09
540.068	50175.23
540.269	49224.98
540.469	49919.24
540.67	49257.74
540.87	49433.87
541.071	49419.53
541.271	49597.71
541.472	49390.86
541.672	49050.9
541.873	49239.31
542.073	48704.79
542.274	49569.04
542.474	49294.61
542.675	48692.5
542.875	49155.35
543.075	49233.17
543.276	48704.79
543.476	49730.83
543.676	48917.78
543.877	49710.35
544.077	49184.02
544.277	48989.46
544.478	49593.61
544.678	49229.07
544.878	49038.61
545.078	49321.23
545.279	48788.76
545.479	49198.35
545.679	48770.33
545.879	49345.81
546.079	49212.69
546.28	48633.11
546.48	48647.45
546.68	49024.28
546.88	49546.51
547.08	49132.82
547.28	48700.7
547.48	48573.72
547.68	49390.86
547.88	48721.18
548.081	48739.61
548.281	49087.76
548.481	48725.27
548.681	49298.7
548.881	49026.32
549.081	49245.46
549.28	48758.04
549.48	49298.7
549.68	48948.5
549.88	49687.82
550.08	48616.73
550.28	48950.55
550.48	48676.12
550.68	49380.62
550.88	48719.13
551.08	48839.96
551.279	48534.81
551.479	48416.03
551.679	48688.41
551.879	48520.48
552.079	48819.48
552.278	48815.38
552.478	48590.11
552.678	48708.89
552.878	48921.88
553.077	48340.25
553.277	48135.46
553.477	48682.27
553.676	48092.45
553.876	48528.67
554.076	48078.11
554.275	48528.67
554.475	47772.97
554.674	48211.23
554.874	48401.69
555.074	48231.71
555.273	48239.9
555.473	48325.92
555.672	47658.28
555.872	47918.37
556.071	48155.94
556.271	48157.99
556.47	47549.74
556.67	47379.76
556.869	47787.3
557.068	47672.62
557.268	47498.54
557.467	47525.16
557.667	47766.82
557.866	47365.42
558.065	47441.2
558.265	47455.53
558.464	46751.03
558.663	47611.18
558.863	47334.7
559.062	47801.64
559.261	46912.82
559.461	47449.39
559.66	46294.33
559.859	46841.14
560.058	46501.18
560.258	46439.74
560.457	46388.54
560.656	46959.92
560.855	46628.15
561.054	46712.12
561.253	46167.36
561.453	46220.61
561.652	46521.66
561.851	46179.65
562.05	45831.49
562.249	45903.17
562.448	46359.87
562.647	46007.62
562.846	45884.74
563.045	46021.95
563.244	45475.15
563.443	45354.32
563.642	45282.64
563.841	45331.79
564.04	45057.36
564.239	45720.9
564.438	45018.45
564.637	45139.28
564.836	44895.57
565.035	44754.26
565.234	45192.53
565.432	44649.81
565.631	44174.69
565.83	44510.55
566.029	44096.86
566.228	44318.04
566.427	44158.3
566.625	43750.76
566.824	43631.97
567.023	44070.24
567.222	43298.16
567.42	44008.8
567.619	43584.87
567.818	43515.24
568.016	43500.9
568.215	43816.29
568.414	43027.82
568.612	43613.54
568.811	43220.33
569.01	42802.55
569.208	42810.74
569.407	42919.28
569.605	42517.88
569.804	42698.1
570.002	42227.07
570.201	42579.32
570.4	42468.73
570.598	42333.56
570.797	41901.44
570.995	41973.12
571.193	41829.76
571.392	42007.93
571.59	41350.54
571.789	41594.25
571.987	41424.26
572.186	41667.97
572.384	41002.38
572.582	40955.28
572.781	41358.73
572.979	41188.75
573.177	40631.7
573.376	40631.7
573.574	40252.83
573.772	40942.99
573.971	40316.31
574.169	40451.48
574.367	40357.27
574.565	40168.86
574.763	40164.76
574.962	40025.5
575.16	39382.44
575.358	39976.35
575.556	39587.24
575.754	39597.48
575.952	39886.24
576.151	39568.8
576.349	39079.34
576.547	38841.78
576.745	38839.73
576.943	39026.09
577.141	39091.63
577.339	39032.24
577.537	38350.26
577.735	39148.97
577.933	38491.57
578.131	38469.04
578.329	38178.23
578.527	38149.56
578.725	38256.06
578.923	38043.07
579.121	37809.6
579.319	37731.78
579.516	37801.41
579.714	37508.55
579.912	37608.9
580.11	37410.25
580.308	37608.9
580.506	37393.86
580.704	36609.49
580.901	37041.61
581.099	37580.23
581.297	36656.59
581.495	36978.12
581.692	36961.74
581.89	36203.99
582.088	36597.2
582.285	36468.18
582.483	36505.04
582.681	36056.54
582.878	36388.31
583.076	36109.78
583.274	36400.6
583.471	35757.53
583.669	35927.52
583.866	35722.72
584.064	35628.51
584.262	34936.3
584.459	35661.28
584.657	35182.06
584.854	35548.64
585.052	34827.76
585.249	35235.3
585.447	35390.95
585.644	34541.04
585.841	34819.56
586.039	34985.45
586.236	34563.57
586.434	34405.88
586.631	34096.63
586.828	34422.26
587.026	34366.96
587.223	34229.75
587.42	33988.09
587.618	34330.1
587.815	33541.63
588.012	33646.08
588.21	33478.15
588.407	33627.65
588.604	33445.38
588.801	33332.74
588.999	33218.05
589.196	33252.87
589.393	32632.33
589.59	33070.6
589.787	32937.48
589.984	32728.59
590.182	32329.23
590.379	32695.82
590.576	32558.61
590.773	32431.63
590.97	32232.98
591.167	32419.35
591.364	31831.58
591.561	31995.42
591.758	31864.35
591.955	31759.9
592.152	31893.02
592.349	31526.43
592.546	31419.94
592.743	31804.95
592.94	31467.04
593.137	31100.45
593.334	31493.66
593.531	31075.88
593.727	31122.98
593.924	31202.85
594.121	30729.77
594.318	30866.98
594.515	30592.56
594.712	30336.56
594.908	30553.65
595.105	30486.06
595.302	30344.75
595.499	30350.9
595.696	30170.68
595.892	30078.52
596.089	30273.07
596.286	29967.93
596.482	29595.2
596.679	30080.56
596.876	29503.04
597.072	29781.56
597.269	29470.27
597.466	29247.04
597.662	29046.34
597.859	29154.88
598.055	29355.58
598.252	29017.67
598.448	28835.4
598.645	28888.65
598.841	28364.37
599.038	28536.4
599.234	28550.73
599.431	28239.44
599.627	28407.37
599.824	28632.65
600.02	28003.92
600.217	28409.42
600.413	28161.62
600.609	27954.77
600.806	27807.32
601.002	28036.69
601.198	27911.77
601.395	27436.64
601.591	27342.43
601.787	27459.16
601.984	27285.09
602.18	27455.07
602.376	27154.02
602.572	27053.67
602.769	27297.38
602.965	26875.49
603.161	27151.97
603.357	26898.02
603.553	26797.67
603.75	26949.22
603.946	26576.49
604.142	26871.4
604.338	26279.53
604.534	26682.98
604.73	26054.26
604.926	25779.83
605.122	26201.71
605.318	25953.91
605.514	25958
605.71	25910.9
605.906	25814.65
606.102	25765.49
606.298	25880.18
606.494	25575.03
606.69	25702.01
606.886	25814.65
607.082	25204.35
607.278	25456.25
607.474	25128.58
607.67	25323.13
607.866	24710.79
608.062	25364.09
608.257	24772.23
608.453	25345.66
608.649	25165.44
608.845	24899.2
609.041	24764.04
609.236	24780.42
609.432	24764.04
609.628	24278.67
609.824	24456.84
610.019	24577.67
610.215	24516.23
610.411	24581.77
610.606	24336.01
610.802	24135.31
610.998	24092.3
611.193	24364.68
611.389	24196.75
611.584	24241.81
611.78	23807.64
611.976	24094.35
612.171	24131.22
612.367	23840.4
612.562	23889.56
612.758	23500.44
612.953	23727.77
613.149	24096.4
613.344	23490.2
613.539	23580.31
613.735	23705.24
613.93	23695
614.126	23395.99
614.321	23907.99
614.517	23365.28
614.712	23375.52
614.907	23135.9
615.103	23361.18
615.298	23439
615.493	23365.28
615.688	22781.6
615.884	23453.34
616.079	22695.59
616.274	22804.13
616.47	22767.27
616.665	22890.15
616.86	23088.8
617.055	22632.1
617.25	22630.05
617.445	22888.1
617.641	22441.64
617.836	22601.38
618.031	22224.56
618.226	22503.08
618.421	22529.7
618.616	22458.03
618.811	22001.33
619.006	22177.45
619.201	21745.33
619.396	22167.21
619.591	21810.87
619.786	21827.25
619.981	21503.67
620.176	22015.66
620.371	21552.82
620.566	21649.08
620.761	21397.18
620.956	21735.09
621.151	21010.11
621.346	21391.03
621.541	20754.12
621.735	21059.26
621.93	20858.56
622.125	20989.63
622.32	20491.98
622.515	20477.64
622.709	20321.99
622.904	20512.45
623.099	20334.28
623.294	20262.6
623.488	20010.7
623.683	20109.01
623.878	19660.5
624.072	19762.9
624.267	19709.65
624.462	19515.09
624.656	19433.18
624.851	19394.26
625.046	19136.22
625.24	19162.84
625.435	18935.52
625.629	18923.23
625.824	18880.22
626.018	18630.37
626.213	18214.63
626.407	18300.65
626.602	18224.87
626.796	18607.84
626.991	18245.35
627.185	18161.39
627.38	18079.47
627.574	18007.79
627.768	17776.37
627.963	17522.42
628.157	17663.73
628.352	17725.17
628.546	17499.89
628.74	17530.61
628.935	17260.28
629.129	17477.37
629.323	17137.4
629.517	16924.41
629.712	16957.18
629.906	16867.07
630.1	16518.92
630.294	16733.95
630.489	16490.24
630.683	16451.33
630.877	16205.58
631.071	16252.68
631.265	16340.74
631.459	16434.95
631.653	16244.49
631.848	16264.97
632.042	15777.55
632.236	15789.84
632.43	15777.55
632.624	15728.4
632.818	15478.55
633.012	15544.08
633.206	15099.67
633.4	15421.2
633.594	15429.4
633.788	15124.25
633.982	15091.48
634.176	15228.7
634.369	14991.13
634.563	14710.56
634.757	14747.42
634.951	14808.86
635.145	14931.74
635.339	14524.19
635.533	14376.74
635.726	14827.29
635.92	14403.36
636.114	14268.2
636.308	14128.94
636.501	14333.73
636.695	14104.36
636.889	13995.82
637.083	13995.82
637.276	13678.38
637.47	13870.89
637.664	13778.73
637.857	13735.73
638.051	13635.38
638.244	13522.74
638.438	13377.33
638.632	13289.27
638.825	13094.71
639.019	13254.45
639.212	13084.47
639.406	12879.68
639.599	13047.61
639.793	13076.28
639.986	12885.82
640.18	12795.71
640.373	12705.6
640.567	12730.17
640.76	12633.92
640.954	12480.32
641.147	12613.44
641.34	12361.54
641.534	12281.67
641.727	12226.37
641.92	12166.98
642.114	12074.82
642.307	12197.7
642.5	12156.74
642.694	11904.84
642.887	11982.67
643.08	11908.94
643.273	11847.5
643.467	11642.7
643.66	11603.79
643.853	11609.93
644.046	11306.84
644.239	11546.45
644.432	11218.77
644.626	11304.79
644.819	11478.86
645.012	11089.75
645.205	11294.55
645.398	10985.3
645.591	10966.87
645.784	10833.75
645.977	10882.91
646.17	10708.83
646.363	10559.33
646.556	10628.96
646.749	10682.2
646.942	10653.53
647.135	10712.92
647.328	10321.76
647.521	10540.9
647.714	10381.15
647.907	10477.41
648.099	10002.28
648.292	10569.57
648.485	10061.67
648.678	10037.09
648.871	10104.68
649.064	10061.67
649.256	10100.58
649.449	10035.05
649.642	9815.91
649.835	9598.83
650.027	9678.7
650.22	9764.72
650.413	9752.43
650.605	9379.7
650.798	9537.39
650.991	9424.75
651.183	9504.62
651.376	9437.04
651.568	9252.72
651.761	9357.17
651.954	9279.35
652.146	9316.21
652.339	9400.18
652.531	9113.46
652.724	9146.23
652.916	8937.34
653.109	8963.96
653.301	8888.18
653.494	8947.58
653.686	8744.83
653.879	8888.18
654.071	8699.77
654.263	8894.33
654.456	8634.24
654.648	8671.1
654.84	8558.46
655.033	8509.31
655.225	8503.17
655.417	8494.97
655.61	8449.92
655.802	8359.81
655.994	8705.92
656.186	8398.72
656.379	8302.47
656.571	8212.35
656.763	8071.04
656.955	8165.25
657.148	8181.64
657.34	8015.75
657.532	8021.89
657.724	7958.41
657.916	7962.5
658.108	7956.36
658.3	7837.58
658.492	7993.22
658.684	7862.15
658.876	7831.43
659.068	7714.7
659.26	7679.88
659.452	7614.35
659.644	7526.29
659.836	7557
660.028	7653.26
660.22	7344.02
660.412	7567.24
660.604	7579.53
660.796	7511.95
660.988	7444.37
661.18	7249.81
661.372	7360.4
661.563	7364.5
661.755	7298.96
661.947	7245.71
662.139	7104.4
662.331	7126.93
662.522	6946.71
662.714	7159.7
662.906	7030.68
663.097	7006.1
663.289	6981.53
663.481	6895.51
663.673	6899.61
663.864	6877.08
664.056	6815.64
664.247	6915.99
664.439	6678.43
664.631	6729.63
664.822	6782.87
665.014	6772.63
665.205	6653.85
665.397	6768.54
665.588	6680.47
665.78	6504.35
665.971	6479.77
666.163	6739.87
666.354	6612.89
666.546	6580.12
666.737	6375.33
666.929	6432.67
667.12	6438.81
667.311	6268.83
667.503	6391.71
667.694	6317.98
667.885	6293.41
668.077	6426.53
668.268	6272.93
668.459	6084.52
668.651	6207.39
668.842	6207.39
669.033	6201.25
669.224	6135.71
669.416	6317.98
669.607	6223.78
669.798	6184.87
669.989	6045.6
670.18	6193.06
670.371	5930.92
670.563	5875.62
670.754	5982.12
670.945	5980.07
671.136	5969.83
671.327	5832.61
671.518	5758.89
671.709	5898.15
671.9	5928.87
672.091	6055.84
672.282	5849
672.473	5836.71
672.664	5748.65
672.855	5777.32
673.046	5808.04
673.237	5871.53
673.428	5859.24
673.619	5810.09
673.809	5754.79
674	5703.59
674.191	5762.98
674.382	5603.24
674.573	5656.49
674.764	5644.2
674.954	5699.5
675.145	5603.24
675.336	5767.08
675.527	5586.86
675.717	5644.2
675.908	5498.8
676.099	5545.9
676.289	5644.2
676.48	5570.47
676.671	5480.36
676.861	5515.18
677.052	5572.52
677.243	5451.69
677.433	5472.17
677.624	5511.08
677.814	5570.47
678.005	5599.15
678.195	5627.82
678.386	5461.93
678.576	5455.79
678.767	5541.8
678.957	5463.98
679.148	5631.91
679.338	5576.62
679.529	5570.47
679.719	5529.52
679.909	5474.22
680.1	5384.11
680.29	5433.26
680.481	5384.11
680.671	5476.27
680.861	5359.53
681.052	5509.04
681.242	5425.07
681.432	5570.47
681.622	5461.93
681.813	5496.75
682.003	5375.92
682.193	5375.92
682.383	5296.05
682.573	5326.77
682.764	5367.73
682.954	5365.68
683.144	5457.84
683.334	5339.05
683.524	5455.79
683.714	5511.08
683.904	5296.05
684.094	5314.48
684.284	5273.52
684.474	5504.94
684.664	5416.88
684.854	5459.88
685.044	5267.38
685.234	5423.02
685.424	5373.87
685.614	5361.58
685.804	5334.96
685.994	5244.85
686.184	5285.81
686.374	5265.33
686.564	5250.99
686.753	5117.87
686.943	4890.55
687.133	4982.71
687.323	5009.33
687.513	5081.01
687.702	5109.68
687.892	4868.02
688.082	5081.01
688.272	5072.82
688.461	4984.76
688.651	5074.87
688.841	4990.9
689.03	4906.93
689.22	4863.93
689.41	4984.76
689.599	4849.59
689.789	4890.55
689.979	4800.44
690.168	4868.02
690.358	4788.15
690.547	4698.04
690.737	4779.96
690.926	4650.94
691.116	4620.22
691.305	4677.56
691.495	4521.91
691.684	4761.53
691.874	4614.07
692.063	4511.68
692.252	4612.03
692.442	4521.91
692.631	4390.84
692.82	4620.22
693.01	4478.91
693.199	4448.19
693.388	4411.32
693.578	4358.08
693.767	4528.06
693.956	4440
694.146	4368.32
694.335	4442.04
694.524	4483
694.713	4394.94
694.902	4415.42
695.092	4390.84
695.281	4341.69
695.47	4251.58
695.659	4417.47
695.848	4208.58
696.037	4321.21
696.226	4229.06
696.415	4186.05
696.604	4327.36
696.793	4186.05
696.982	4253.63
697.171	4339.65
697.36	4214.72
697.549	4149.18
697.738	4278.21
697.927	4157.38
698.116	4163.52
698.305	4065.22
698.494	4249.54
698.683	4261.82
698.872	4173.76
699.061	4130.75
699.25	4143.04
699.438	4153.28
699.627	4165.57
699.816	4208.58
700.005	4177.86
700.193	4024.26
700.382	4102.08
700.571	4261.82
700.76	4198.34
700.948	4218.82
701.137	4167.62
701.326	4278.21
701.514	4194.24
701.703	4169.66
701.892	4155.33
702.08	4249.54
702.269	4184
702.457	4208.58
702.646	4044.74
702.834	4177.86
703.023	4018.11
703.212	4140.99
703.4	4216.77
703.589	4194.24
703.777	4087.75
703.965	4063.17
704.154	4036.55
704.342	4136.9
704.531	4079.55
704.719	4233.15
704.907	4132.8
705.096	4138.94
705.284	4251.58
705.472	4192.19
705.661	4149.18
705.849	4231.1
706.037	4171.71
706.226	4298.69
706.414	4057.03
706.602	4267.97
706.79	4069.31
706.979	4057.03
707.167	4265.92
707.355	4181.95
707.543	4210.62
707.731	4204.48
707.919	4212.67
708.107	4229.06
708.296	4126.66
708.484	3997.63
708.672	4179.9
708.86	4108.23
709.048	4282.3
709.236	4288.45
709.424	4159.42
709.612	4321.21
709.8	4149.18
709.988	4220.86
710.176	4272.06
710.364	4188.1
710.551	4292.54
710.739	4396.99
710.927	4155.33
711.115	4145.09
711.303	4306.88
711.491	4300.73
711.679	4151.23
711.866	4362.17
712.054	4267.97
712.242	4296.64
712.43	4257.73
712.617	4349.89
712.805	4263.87
712.993	4458.43
713.181	4132.8
713.368	4229.06
713.556	4319.17
713.744	4241.34
713.931	4460.48
714.119	4249.54
714.306	4384.7
714.494	4313.02
714.682	4399.04
714.869	4374.46
715.057	4315.07
715.244	4335.55
715.432	4372.41
715.619	4349.89
715.807	4564.92
715.994	4483
716.182	4378.56
716.369	4315.07
716.556	4442.04
716.744	4468.67
716.931	4253.63
717.119	4609.98
717.306	4411.32
717.493	4542.39
717.681	4571.07
717.868	4462.52
718.055	4558.78
718.242	4620.22
718.43	4515.77
718.617	4485.05
718.804	4337.6
718.991	4501.44
719.179	4530.11
719.366	4515.77
719.553	4487.1
719.74	4450.24
719.927	4489.15
720.114	4470.72
720.301	4548.54
720.488	4476.86
720.676	4513.72
720.863	4595.64
721.05	4509.63
721.237	4528.06
721.424	4632.51
721.611	4607.93
721.798	4444.09
721.985	4609.98
722.172	4423.61
722.358	4599.74
722.545	4550.59
722.732	4624.31
722.919	4601.79
723.106	4534.2
723.293	4523.96
723.48	4554.68
723.667	4526.01
723.853	4564.92
724.04	4792.25
724.227	4583.35
724.414	4626.36
724.6	4636.6
724.787	4523.96
724.974	4704.18
725.161	4730.81
725.347	4472.76
725.534	4569.02
725.72	4616.12
725.907	4659.13
726.094	4585.4
726.28	4528.06
726.467	4589.5
726.653	4599.74
726.84	4579.26
727.027	4667.32
727.213	4597.69
727.4	4679.61
727.586	4710.33
727.773	4739
727.959	4722.62
728.145	4687.8
728.332	4712.38
728.518	4796.34
728.705	4818.87
728.891	4480.96
729.077	4609.98
729.264	4722.62
729.45	4583.35
729.636	4732.86
729.823	4667.32
730.009	4677.56
730.195	4636.6
730.382	4741.05
730.568	4743.1
730.754	4849.59
730.94	4767.67
731.126	4677.56
731.313	4736.95
731.499	4747.19
731.685	4788.15
731.871	4669.37
732.057	4761.53
732.243	4749.24
732.429	4657.08
732.615	4794.29
732.801	4665.27
732.987	4736.95
733.173	4739
733.359	4827.06
733.545	4726.71
733.731	4714.42
733.917	4796.34
734.103	4816.82
734.289	4730.81
734.475	4698.04
734.661	4679.61
734.847	4855.73
735.033	4595.64
735.219	4710.33
735.404	4765.62
735.59	4771.77
735.776	4728.76
735.962	4804.53
736.148	4775.86
736.333	4718.52
736.519	4552.63
736.705	4704.18
736.89	4741.05
737.076	4839.35
737.262	4542.39
737.447	4618.17
737.633	4609.98
737.819	4693.94
738.004	4589.5
738.19	4640.7
738.375	4616.12
738.561	4691.9
738.747	4573.11
738.932	4571.07
739.118	4579.26
739.303	4509.63
739.489	4609.98
739.674	4569.02
739.859	4474.81
740.045	4652.98
740.23	4655.03
740.416	4413.37
740.601	4429.76
740.786	4718.52
740.972	4501.44
741.157	4280.25
741.342	4353.98
741.528	4364.22
741.713	4487.1
741.898	4423.61
742.084	4442.04
742.269	4433.85
742.454	4374.46
742.639	4431.8
742.824	4566.97
743.01	4396.99
743.195	4270.01
743.38	4251.58
743.565	4235.2
743.75	4440
743.935	4251.58
744.12	4335.55
744.305	4310.97
744.49	4136.9
744.675	4134.85
744.86	4181.95
745.045	4171.71
745.23	4218.82
745.415	4054.98
745.6	4106.18
745.785	4054.98
745.97	4102.08
746.155	3999.68
746.34	3876.8
746.525	4063.17
746.71	4054.98
746.895	3985.35
747.079	3856.33
747.264	3848.13
747.449	3960.77
747.634	3946.44
747.819	3835.85
748.003	3725.26
748.188	3731.4
748.373	3790.79
748.557	3735.49
748.742	3751.88
748.927	3727.3
749.111	3665.86
749.296	3647.43
749.481	3635.14
749.665	3588.04
749.85	3704.78
750.034	3504.07
750.219	3426.25
750.404	3663.82
750.588	3461.07
750.773	3399.63
750.957	3571.66
751.141	3450.83
751.326	3319.76
751.51	3366.86
751.695	3297.23
751.879	3325.9
752.064	3260.37
752.248	3373
752.432	3370.96
752.617	3368.91
752.801	3213.26
752.985	3233.74
753.17	3211.21
753.354	3243.98
753.538	3104.72
753.722	3063.76
753.907	2983.89
754.091	3039.19
754.275	2990.03
754.459	3002.32
754.643	2994.13
754.828	3004.37
755.012	3012.56
755.196	2918.36
755.38	2820.05
755.564	2891.73
755.748	2822.1
755.932	2910.16
756.116	2879.44
756.3	2932.69
756.484	2707.41
756.668	2805.72
756.852	2828.24
757.036	2744.28
757.22	2594.78
757.404	2686.93
757.588	2668.5
757.772	2713.56
757.956	2580.44
758.14	2629.59
758.323	2555.86
758.507	2625.5
758.691	2547.67
758.875	2588.63
759.059	2541.53
759.242	2596.82
759.426	2467.8
759.61	2465.75
759.794	2412.51
759.977	2375.64
760.161	2494.43
760.345	2328.54
760.528	2549.72
760.712	2400.22
760.895	2396.12
761.079	2312.16
761.263	2263.01
761.446	2326.49
761.63	2299.87
761.813	2322.4
761.997	2297.82
762.18	2179.04
762.364	2344.92
762.547	2185.18
762.731	2254.81
762.914	2220
763.098	2166.75
763.281	2238.43
763.464	2058.21
763.648	2183.13
763.831	2154.46
764.015	2125.79
764.198	2109.41
764.381	2115.55
764.564	2172.89
764.748	2148.32
764.931	2150.37
765.114	2060.26
765.297	2056.16
765.481	2060.26
765.664	2066.4
765.847	1986.53
766.03	2103.26
766.213	2052.06
766.397	2007.01
766.58	1986.53
766.763	1984.48
766.946	1959.91
767.129	1959.91
767.312	1966.05
767.495	1978.34
767.678	2007.01
767.861	1961.95
768.044	1804.26
768.227	2007.01
768.41	1937.38
768.593	1935.33
768.776	1832.93
768.959	1947.62
769.142	1914.85
769.324	1843.17
769.507	1920.99
769.69	1769.44
769.873	1791.97
770.056	1974.24
770.239	1894.37
770.421	1906.66
770.604	1869.8
770.787	1800.16
770.97	1779.68
771.152	1742.82
771.335	1710.05
771.518	1703.91
771.7	1853.41
771.883	1638.37
772.066	1851.36
772.248	1658.85
772.431	1828.84
772.613	1773.54
772.796	1652.71
772.978	1693.67
773.161	1728.49
773.343	1648.61
773.526	1490.92
773.708	1576.94
773.891	1484.78
774.073	1626.09
774.256	1621.99
774.438	1681.38
774.621	1599.46
774.803	1492.97
774.985	1511.4
775.168	1550.31
775.35	1472.49
775.532	1527.78
775.715	1468.39
775.897	1482.73
776.079	1474.54
776.261	1435.63
776.444	1398.76
776.626	1466.35
776.808	1533.93
776.99	1417.19
777.173	1372.14
777.355	1372.14
777.537	1376.23
777.719	1402.86
777.901	1398.76
778.083	1296.36
778.265	1302.51
778.447	1386.47
778.629	1320.94
778.811	1343.47
778.993	1351.66
779.175	1269.74
779.357	1298.41
779.539	1189.87
779.721	1234.93
779.903	1261.55
780.085	1187.82
780.267	1214.45
780.449	1277.93
780.631	1220.59
780.812	1263.6
780.994	1234.93
781.176	1210.35
781.358	1179.63
781.54	1218.54
781.721	1146.86
781.903	1087.47
782.085	1048.56
782.267	1107.95
782.448	1052.66
782.63	1087.47
782.812	1122.29
782.993	1060.85
783.175	1066.99
783.357	1120.24
783.538	1146.86
783.72	1026.03
783.901	1093.62
784.083	991.22
784.264	1066.99
784.446	962.55
784.627	878.58
784.809	1044.46
784.99	997.36
785.172	989.17
785.353	909.3
785.535	894.96
785.716	962.55
785.897	1034.22
786.079	921.59
786.26	950.26
786.441	894.96
786.623	833.52
786.804	892.91
786.985	876.53
787.167	923.63
787.348	819.19
787.529	819.19
787.71	901.11
787.891	919.54
788.073	796.66
788.254	745.46
788.435	888.82
788.616	839.67
788.797	839.67
788.978	808.95
789.159	790.52
789.34	806.9
789.522	690.17
789.703	763.89
789.884	698.36
790.065	819.19
790.246	808.95
790.427	823.28
790.607	829.43
790.788	749.56
790.969	724.98
791.15	753.65
791.331	722.93
791.512	698.36
791.693	684.02
791.874	647.16
792.054	833.52
792.235	702.45
792.416	741.36
792.597	641.01
792.778	727.03
792.958	708.6
793.139	698.36
793.32	671.73
793.5	692.21
793.681	710.65
793.862	671.73
794.042	636.92
794.223	624.63
794.404	598.01
794.584	649.21
794.765	655.35
794.945	720.88
795.126	669.69
795.306	641.01
795.487	606.2
795.667	598.01
795.848	696.31
796.028	565.24
796.209	606.2
796.389	587.77
796.57	569.34
796.75	626.68
796.93	589.81
797.111	606.2
797.291	530.42
797.471	587.77
797.652	499.7
797.832	583.67
798.012	673.78
798.192	550.9
798.373	534.52
798.553	595.96
798.733	612.34
798.913	518.14
799.093	499.7
799.274	493.56
799.454	569.34
799.634	516.09
799.814	548.86
799.994	489.46
800.174	507.9
800.354	540.66
800.534	436.22
800.714	518.14
800.894	425.98
801.074	497.66
801.254	425.98
801.434	569.34
801.614	481.27
801.794	532.47
801.974	1501.16
802.154	522.23
802.334	454.65
802.514	391.16
802.693	491.51
802.873	475.13
803.053	491.51
803.233	516.09
803.413	436.22
803.592	464.89
803.772	456.7
803.952	458.74
804.131	376.83
804.311	477.18
804.491	495.61
804.67	430.07
804.85	395.26
805.03	360.44
805.209	524.28
805.389	405.5
805.568	393.21
805.748	456.7
805.928	405.5
806.107	458.74
806.287	395.26
806.466	491.51
806.646	397.31
806.825	423.93
807.004	407.55
807.184	372.73
807.363	479.22
807.543	403.45
807.722	346.11
807.901	448.51
808.081	428.03
808.26	397.31
808.439	368.63
808.619	452.6
808.798	417.79
808.977	370.68
809.156	399.35
809.336	372.73
809.515	385.02
809.694	327.67
809.873	296.96
810.052	311.29
810.231	368.63
810.411	303.1
810.59	376.83
810.769	393.21
810.948	391.16
811.127	288.76
811.306	301.05
811.485	333.82
811.664	491.51
811.843	440.31
812.022	382.97
812.201	382.97
812.38	395.26
812.559	311.29
812.737	319.48
812.916	260.09
813.095	223.23
813.274	339.96
813.453	317.44
813.632	417.79
813.811	323.58
813.989	282.62
814.168	319.48
814.347	339.96
814.526	323.58
814.704	337.91
814.883	417.79
815.062	239.61
815.24	329.72
815.419	294.91
815.598	339.96
815.776	299
815.955	270.33
816.133	163.84
816.312	237.56
816.49	311.29
816.669	307.2
816.847	286.72
817.026	319.48
817.204	268.28
817.383	215.04
817.561	262.14
817.74	258.04
817.918	307.2
818.097	270.33
818.275	292.86
818.453	364.54
818.632	397.31
818.81	307.2
818.988	231.42
819.167	196.6
819.345	241.66
819.523	317.44
819.701	249.85
819.879	331.77
820.058	247.8
820.236	286.72
820.414	339.96
820.592	223.23
820.77	292.86
820.948	262.14
821.127	139.26
821.305	301.05
821.483	233.47
821.661	245.76
821.839	239.61
822.017	210.94
822.195	268.28
822.373	268.28
822.551	249.85
822.729	286.72
822.907	241.66
823.085	327.67
823.262	268.28
823.44	212.99
823.618	264.19
823.796	215.04
823.974	239.61
824.152	186.37
824.329	262.14
824.507	223.23
824.685	325.63
824.863	215.04
825.04	221.18
825.218	225.28
825.396	227.32
825.574	260.09
825.751	192.51
825.929	260.09
826.107	188.41
826.284	225.28
826.462	196.6
826.639	184.32
826.817	131.07
826.994	225.28
827.172	59.39
827.349	227.32
827.527	294.91
827.704	286.72
827.882	172.03
828.059	163.84
828.237	303.1
828.414	155.65
828.591	110.59
828.769	184.32
828.946	225.28
829.124	186.37
829.301	204.8
829.478	180.22
829.655	249.85
829.833	182.27
830.01	167.93
830.187	206.84
830.364	169.98
830.542	180.22
830.719	247.8
830.896	245.76
831.073	172.03
831.25	114.69
831.427	155.65
831.604	198.65
831.782	200.7
831.959	116.73
832.136	204.8
832.313	129.02
832.49	237.56
832.667	178.17
832.844	106.49
833.021	241.66
833.198	198.65
833.374	206.84
833.551	186.37
833.728	118.78
833.905	245.76
834.082	98.3
834.259	124.93
834.436	231.42
834.612	167.93
834.789	212.99
834.966	116.73
835.143	114.69
835.319	139.26
835.496	155.65
835.673	118.78
835.85	122.88
836.026	237.56
836.203	149.5
836.38	180.22
836.556	180.22
836.733	200.7
836.909	256
837.086	81.92
837.262	61.44
837.439	86.01
837.616	114.69
837.792	77.82
837.968	149.5
838.145	24.58
838.321	151.55
838.498	100.35
838.674	122.88
838.851	147.45
839.027	147.45
839.203	90.11
839.38	247.8
839.556	65.53
839.732	196.6
839.909	110.59
840.085	135.17
840.261	59.39
840.437	149.5
840.614	73.73
840.79	124.93
840.966	186.37
841.142	172.03
841.318	131.07
841.494	135.17
841.671	210.94
841.847	133.12
842.023	120.83
842.199	122.88
842.375	278.52
842.551	45.06
842.727	75.77
842.903	202.75
843.079	43.01
843.255	161.79
843.431	143.36
843.607	141.31
843.783	28.67
843.959	188.41
844.134	86.01
844.31	174.08
844.486	114.69
844.662	51.2
844.838	131.07
845.013	159.74
845.189	90.11
845.365	77.82
845.541	106.49
845.716	63.49
845.892	147.45
846.068	75.77
846.244	71.68
846.419	75.77
846.595	124.93
846.77	83.97
846.946	83.97
847.122	59.39
847.297	79.87
847.473	180.22
847.648	53.25
847.824	100.35
847.999	90.11
848.175	161.79
848.35	120.83
848.526	139.26
848.701	165.89
848.876	122.88
849.052	167.93
849.227	73.73
849.403	94.21
849.578	43.01
849.753	10.24
849.929	161.79
850.104	22.53
850.279	57.34
850.454	122.88
850.63	34.82
850.805	182.27
850.98	69.63
851.155	63.49
851.33	77.82
851.505	12.29
851.681	165.89
851.856	-22.53
852.031	47.1
852.206	53.25
852.381	73.73
852.556	86.01
852.731	114.69
852.906	114.69
853.081	86.01
853.256	118.78
853.431	86.01
853.606	26.62
853.781	-12.29
853.956	-55.3
854.131	110.59
854.305	55.3
854.48	73.73
854.655	90.11
854.83	57.34
855.005	108.54
855.18	108.54
855.354	129.02
855.529	139.26
855.704	116.73
855.879	100.35
856.053	47.1
856.228	57.34
856.403	16.38
856.577	204.8
856.752	83.97
856.926	59.39
857.101	34.82
857.276	102.4
857.45	81.92
857.625	178.17
857.799	131.07
857.974	59.39
858.148	69.63
858.323	30.72
858.497	81.92
858.672	90.11
858.846	30.72
859.02	223.23
859.195	49.15
859.369	65.53
859.543	59.39
859.718	165.89
859.892	73.73
860.066	116.73
860.241	47.1
860.415	53.25
860.589	18.43
860.763	83.97
860.938	71.68
861.112	57.34
861.286	45.06
861.46	180.22
861.634	73.73
861.808	92.16
861.982	51.2
862.157	55.3
862.331	100.35
862.505	75.77
862.679	-6.14
862.853	24.58
863.027	81.92
863.201	129.02
863.375	-2.05
863.549	65.53
863.722	49.15
863.896	118.78
864.07	45.06
864.244	86.01
864.418	51.2
864.592	79.87
864.766	28.67
864.939	45.06
865.113	-22.53
865.287	36.86
865.461	-57.34
865.634	69.63
865.808	-69.63
865.982	-38.91
866.156	-8.19
866.329	57.34
866.503	61.44
866.676	57.34
866.85	73.73
867.024	59.39
867.197	139.26
867.371	122.88
867.544	112.64
867.718	38.91
867.891	53.25
868.065	24.58
868.238	98.3
868.412	63.49
868.585	24.58
868.759	65.53
868.932	106.49
869.105	16.38
869.279	28.67
869.452	51.2
869.625	55.3
869.799	34.82
869.972	-47.1
870.145	10.24
870.319	65.53
870.492	59.39
870.665	104.45
870.838	-28.67
871.011	-14.34
871.185	51.2
871.358	59.39
871.531	69.63
871.704	-8.19
871.877	28.67
872.05	30.72
872.223	20.48
872.396	53.25
872.569	55.3
872.742	10.24
872.915	81.92
873.088	75.77
873.261	12.29
873.434	40.96
873.607	-8.19
873.78	49.15
873.953	0
874.126	26.62
874.299	36.86
874.471	49.15
874.644	40.96
874.817	92.16
874.99	81.92
875.163	28.67
875.335	40.96
875.508	40.96
875.681	118.78
875.853	24.58
876.026	96.25
876.199	69.63
876.371	73.73
876.544	65.53
876.717	90.11
876.889	43.01
877.062	32.77
877.234	-30.72
877.407	16.38
877.579	12.29
877.752	28.67
877.924	69.63
878.097	145.41
878.269	83.97
878.442	86.01
878.614	71.68
878.786	43.01
878.959	8.19
879.131	77.82
879.303	-26.62
879.476	26.62
879.648	24.58
879.82	86.01
879.993	34.82
880.165	53.25
880.337	40.96
880.509	49.15
880.681	61.44
880.854	59.39
881.026	86.01
881.198	18.43
881.37	20.48
881.542	38.91
881.714	108.54
881.886	30.72
882.058	22.53
882.23	112.64
882.402	-114.69
882.574	53.25
882.746	63.49
882.918	71.68
883.09	59.39
883.262	20.48
883.434	55.3
883.606	-10.24
883.778	24.58
883.95	79.87
884.122	22.53
884.293	49.15
884.465	69.63
884.637	83.97
884.809	4.1
884.98	61.44
885.152	98.3
885.324	104.45
885.496	28.67
885.667	77.82
885.839	-16.38
886.011	83.97
886.182	147.45
886.354	24.58
886.525	26.62
886.697	61.44
886.869	88.06
887.04	8.19
887.212	75.77
887.383	69.63
887.555	47.1
887.726	24.58
887.897	0
888.069	8.19
888.24	63.49
888.412	18.43
888.583	79.87
888.754	-12.29
888.926	-32.77
889.097	2.05
889.268	47.1
889.44	0
889.611	2.05
889.782	22.53
889.953	8.19
890.125	-6.14
890.296	47.1
890.467	40.96
890.638	73.73
890.809	12.29
890.98	-12.29
891.151	8.19
891.323	63.49
891.494	30.72
891.665	-6.14
891.836	73.73
892.007	63.49
892.178	63.49
892.349	92.16
892.52	73.73
892.691	92.16
892.862	36.86
893.032	14.34
893.203	-8.19
893.374	86.01
893.545	94.21
893.716	6.14
893.887	8.19
894.057	65.53
894.228	75.77
894.399	18.43
894.57	34.82
894.74	-24.58
894.911	45.06
895.082	28.67
895.253	6.14
895.423	45.06
895.594	55.3
895.764	36.86
895.935	-32.77
896.106	63.49
896.276	10.24
896.447	55.3
896.617	16.38
896.788	28.67
896.958	-8.19
897.129	-49.15
897.299	-24.58
897.47	102.4
897.64	83.97
897.81	79.87
897.981	6.14
898.151	18.43
898.322	94.21
898.492	-14.34
898.662	26.62
898.832	0
899.003	75.77
899.173	26.62
899.343	30.72
899.513	49.15
