Data from USB4F104151__53__13-05-34-763.txt Node

Date: Fri Mar 14 13:05:34 EDT 2025
User: louis
Spectrometer: USB4F10415
Trigger mode: 4
Integration Time (sec): 4.000000E-2
Scans to average: 1
Electric dark correction enabled: true
Nonlinearity correction enabled: false
Boxcar width: 0
XAxis mode: Wavelengths
Number of Pixels in Spectrum: 3648
>>>>>Begin Spectral Data<<<<<
178.204	-193.53
178.424	-193.53
178.644	-193.53
178.864	-230.4
179.084	-154.62
179.304	23.55
179.524	-3.07
179.744	11.26
179.964	39.94
180.184	-13.31
180.404	-41.98
180.624	19.46
180.844	-21.5
181.064	25.6
181.283	11.26
181.503	-39.94
181.723	-11.26
181.943	-52.22
182.163	48.13
182.383	113.66
182.602	25.6
182.822	132.09
183.042	52.22
183.262	-9.22
183.482	72.7
183.701	60.42
183.921	50.18
184.141	-87.04
184.361	107.52
184.58	19.46
184.8	105.47
185.02	44.03
185.239	82.94
185.459	54.27
185.679	37.89
185.898	-37.89
186.118	95.23
186.338	46.08
186.557	37.89
186.777	-68.61
186.997	25.6
187.216	31.74
187.436	125.95
187.655	27.65
187.875	80.89
188.095	33.79
188.314	78.85
188.534	91.13
188.753	56.32
188.973	62.46
189.192	82.94
189.412	52.22
189.631	60.42
189.851	-3.07
190.07	3.07
190.29	-70.65
190.509	21.5
190.729	113.66
190.948	23.55
191.168	238.59
191.387	50.18
191.607	39.94
191.826	91.13
192.045	41.98
192.265	91.13
192.484	78.85
192.704	15.36
192.923	-46.08
193.142	117.76
193.362	37.89
193.581	150.53
193.8	117.76
194.02	54.27
194.239	60.42
194.458	48.13
194.678	52.22
194.897	68.61
195.116	41.98
195.335	9.22
195.555	25.6
195.774	-21.5
195.993	84.99
196.212	41.98
196.432	91.13
196.651	-1.02
196.87	13.31
197.089	136.19
197.308	80.89
197.528	-13.31
197.747	-1.02
197.966	-27.65
198.185	29.7
198.404	-19.46
198.623	52.22
198.842	58.37
199.062	97.28
199.281	99.33
199.5	15.36
199.719	54.27
199.938	60.42
200.157	66.56
200.376	35.84
200.595	138.24
200.814	23.55
201.033	-5.12
201.252	66.56
201.471	9.22
201.69	60.42
201.909	31.74
202.128	87.04
202.347	33.79
202.566	68.61
202.785	-27.65
203.004	-15.36
203.223	201.72
203.442	3.07
203.661	-46.08
203.879	91.13
204.098	109.57
204.317	-39.94
204.536	31.74
204.755	84.99
204.974	95.23
205.193	13.31
205.411	138.24
205.63	35.84
205.849	-9.22
206.068	31.74
206.287	-15.36
206.505	39.94
206.724	89.09
206.943	31.74
207.162	39.94
207.381	21.5
207.599	33.79
207.818	39.94
208.037	-50.18
208.255	-27.65
208.474	5.12
208.693	15.36
208.911	11.26
209.13	101.37
209.349	-46.08
209.567	62.46
209.786	93.18
210.005	62.46
210.223	39.94
210.442	-46.08
210.661	52.22
210.879	60.42
211.098	13.31
211.316	54.27
211.535	84.99
211.753	3.07
211.972	60.42
212.191	-11.26
212.409	48.13
212.628	74.75
212.846	-48.13
213.065	54.27
213.283	64.51
213.502	31.74
213.72	50.18
213.938	41.98
214.157	-5.12
214.375	72.7
214.594	7.17
214.812	72.7
215.031	15.36
215.249	-25.6
215.467	74.75
215.686	5.12
215.904	74.75
216.122	44.03
216.341	-19.46
216.559	62.46
216.778	52.22
216.996	50.18
217.214	52.22
217.432	-21.5
217.651	52.22
217.869	91.13
218.087	27.65
218.306	13.31
218.524	62.46
218.742	3.07
218.96	13.31
219.179	93.18
219.397	39.94
219.615	152.57
219.833	82.94
220.051	-27.65
220.27	138.24
220.488	91.13
220.706	95.23
220.924	39.94
221.142	21.5
221.36	-35.84
221.578	93.18
221.796	-3.07
222.015	31.74
222.233	31.74
222.451	113.66
222.669	-27.65
222.887	-37.89
223.105	21.5
223.323	-3.07
223.541	9.22
223.759	7.17
223.977	72.7
224.195	119.81
224.413	91.13
224.631	50.18
224.849	52.22
225.067	125.95
225.285	33.79
225.503	80.89
225.721	-17.41
225.939	7.17
226.157	21.5
226.375	138.24
226.592	-11.26
226.81	-17.41
227.028	140.29
227.246	185.34
227.464	-3.07
227.682	115.71
227.9	44.03
228.117	101.37
228.335	39.94
228.553	-54.27
228.771	17.41
228.989	84.99
229.206	-3.07
229.424	87.04
229.642	-25.6
229.86	-66.56
230.077	17.41
230.295	35.84
230.513	154.62
230.731	74.75
230.948	134.14
231.166	99.33
231.384	-5.12
231.601	35.84
231.819	37.89
232.037	-9.22
232.254	15.36
232.472	44.03
232.689	-29.7
232.907	-39.94
233.125	-5.12
233.342	19.46
233.56	-44.03
233.777	54.27
233.995	29.7
234.213	76.8
234.43	-5.12
234.648	64.51
234.865	-5.12
235.083	87.04
235.3	46.08
235.518	41.98
235.735	115.71
235.953	-23.55
236.17	54.27
236.388	23.55
236.605	33.79
236.822	109.57
237.04	11.26
237.257	37.89
237.475	1.02
237.692	44.03
237.909	72.7
238.127	7.17
238.344	97.28
238.562	41.98
238.779	-1.02
238.996	-35.84
239.214	11.26
239.431	93.18
239.648	52.22
239.865	125.95
240.083	105.47
240.3	7.17
240.517	21.5
240.735	60.42
240.952	82.94
241.169	138.24
241.386	44.03
241.603	60.42
241.821	-9.22
242.038	95.23
242.255	-19.46
242.472	25.6
242.689	64.51
242.907	82.94
243.124	35.84
243.341	54.27
243.558	33.79
243.775	5.12
243.992	-29.7
244.209	117.76
244.426	136.19
244.643	68.61
244.86	-1.02
245.078	27.65
245.295	-9.22
245.512	87.04
245.729	17.41
245.946	109.57
246.163	80.89
246.38	21.5
246.597	52.22
246.814	-44.03
247.031	19.46
247.248	-1.02
247.464	89.09
247.681	-21.5
247.898	33.79
248.115	68.61
248.332	11.26
248.549	113.66
248.766	103.42
248.983	93.18
249.2	64.51
249.417	-5.12
249.633	54.27
249.85	68.61
250.067	58.37
250.284	64.51
250.501	9.22
250.717	44.03
250.934	-1.02
251.151	3.07
251.368	44.03
251.585	48.13
251.801	33.79
252.018	37.89
252.235	130.05
252.451	54.27
252.668	29.7
252.885	-19.46
253.102	125.95
253.318	1.02
253.535	-5.12
253.752	-5.12
253.968	-33.79
254.185	5.12
254.401	35.84
254.618	113.66
254.835	87.04
255.051	44.03
255.268	19.46
255.484	60.42
255.701	15.36
255.917	13.31
256.134	84.99
256.351	3.07
256.567	3.07
256.784	25.6
257	9.22
257.217	78.85
257.433	99.33
257.65	54.27
257.866	1.02
258.082	9.22
258.299	29.7
258.515	84.99
258.732	15.36
258.948	11.26
259.165	-11.26
259.381	-17.41
259.597	37.89
259.814	97.28
260.03	58.37
260.246	-1.02
260.463	-5.12
260.679	62.46
260.895	56.32
261.112	46.08
261.328	5.12
261.544	31.74
261.761	109.57
261.977	66.56
262.193	-41.98
262.409	54.27
262.626	-3.07
262.842	46.08
263.058	-60.42
263.274	76.8
263.49	3.07
263.707	97.28
263.923	37.89
264.139	-41.98
264.355	-19.46
264.571	82.94
264.787	44.03
265.004	68.61
265.22	72.7
265.436	9.22
265.652	44.03
265.868	21.5
266.084	-80.89
266.3	27.65
266.516	101.37
266.732	39.94
266.948	68.61
267.164	80.89
267.38	60.42
267.596	21.5
267.812	189.44
268.028	29.7
268.244	3.07
268.46	48.13
268.676	60.42
268.892	46.08
269.108	17.41
269.324	91.13
269.54	11.26
269.756	62.46
269.972	7.17
270.188	44.03
270.403	-35.84
270.619	35.84
270.835	35.84
271.051	11.26
271.267	80.89
271.483	3.07
271.698	46.08
271.914	68.61
272.13	93.18
272.346	-3.07
272.562	60.42
272.777	5.12
272.993	60.42
273.209	37.89
273.425	11.26
273.64	-15.36
273.856	97.28
274.072	54.27
274.287	7.17
274.503	35.84
274.719	15.36
274.934	35.84
275.15	-91.13
275.366	-7.17
275.581	-54.27
275.797	78.85
276.012	1.02
276.228	64.51
276.444	35.84
276.659	-11.26
276.875	-54.27
277.09	76.8
277.306	-27.65
277.521	41.98
277.737	-3.07
277.952	78.85
278.168	25.6
278.383	60.42
278.599	-9.22
278.814	101.37
279.03	25.6
279.245	54.27
279.461	62.46
279.676	15.36
279.892	-72.7
280.107	29.7
280.322	21.5
280.538	66.56
280.753	11.26
280.969	105.47
281.184	33.79
281.399	136.19
281.615	121.85
281.83	60.42
282.045	-60.42
282.26	13.31
282.476	-52.22
282.691	87.04
282.906	27.65
283.122	11.26
283.337	-31.74
283.552	68.61
283.767	-44.03
283.983	119.81
284.198	19.46
284.413	68.61
284.628	-50.18
284.843	19.46
285.058	105.47
285.274	33.79
285.489	35.84
285.704	62.46
285.919	21.5
286.134	101.37
286.349	-21.5
286.564	-3.07
286.779	136.19
286.995	-31.74
287.21	-27.65
287.425	48.13
287.64	21.5
287.855	41.98
288.07	-64.51
288.285	101.37
288.5	68.61
288.715	17.41
288.93	23.55
289.145	44.03
289.36	101.37
289.575	39.94
289.79	7.17
290.004	29.7
290.219	17.41
290.434	19.46
290.649	62.46
290.864	35.84
291.079	91.13
291.294	29.7
291.509	9.22
291.724	-9.22
291.938	19.46
292.153	74.75
292.368	29.7
292.583	-56.32
292.798	117.76
293.012	68.61
293.227	9.22
293.442	17.41
293.657	64.51
293.871	95.23
294.086	60.42
294.301	138.24
294.516	56.32
294.73	23.55
294.945	-13.31
295.16	-23.55
295.374	107.52
295.589	70.65
295.804	-29.7
296.018	87.04
296.233	27.65
296.447	-46.08
296.662	80.89
296.877	35.84
297.091	76.8
297.306	-19.46
297.52	64.51
297.735	-17.41
297.949	1.02
298.164	-35.84
298.378	48.13
298.593	70.65
298.807	60.42
299.022	103.42
299.236	50.18
299.451	-11.26
299.665	66.56
299.88	21.5
300.094	29.7
300.309	33.79
300.523	101.37
300.737	-46.08
300.952	-7.17
301.166	13.31
301.381	3.07
301.595	27.65
301.809	-1.02
302.024	23.55
302.238	19.46
302.452	31.74
302.667	70.65
302.881	121.85
303.095	64.51
303.309	70.65
303.524	-7.17
303.738	-9.22
303.952	3.07
304.166	93.18
304.381	-31.74
304.595	99.33
304.809	-7.17
305.023	7.17
305.237	31.74
305.452	35.84
305.666	19.46
305.88	60.42
306.094	84.99
306.308	-15.36
306.522	74.75
306.736	25.6
306.95	27.65
307.164	37.89
307.379	134.14
307.593	119.81
307.807	76.8
308.021	-7.17
308.235	-3.07
308.449	19.46
308.663	23.55
308.877	99.33
309.091	60.42
309.305	64.51
309.519	-3.07
309.733	80.89
309.947	-7.17
310.161	-27.65
310.374	111.61
310.588	39.94
310.802	44.03
311.016	54.27
311.23	68.61
311.444	11.26
311.658	21.5
311.872	87.04
312.085	62.46
312.299	93.18
312.513	50.18
312.727	84.99
312.941	7.17
313.154	101.37
313.368	9.22
313.582	5.12
313.796	-11.26
314.009	60.42
314.223	70.65
314.437	46.08
314.651	64.51
314.864	-21.5
315.078	11.26
315.292	19.46
315.505	-46.08
315.719	3.07
315.933	21.5
316.146	48.13
316.36	52.22
316.573	103.42
316.787	95.23
317.001	27.65
317.214	-29.7
317.428	68.61
317.641	91.13
317.855	52.22
318.068	64.51
318.282	15.36
318.495	117.76
318.709	19.46
318.922	13.31
319.136	68.61
319.349	21.5
319.563	-11.26
319.776	9.22
319.99	39.94
320.203	-25.6
320.417	21.5
320.63	33.79
320.843	111.61
321.057	13.31
321.27	23.55
321.483	78.85
321.697	87.04
321.91	103.42
322.124	50.18
322.337	19.46
322.55	72.7
322.763	5.12
322.977	56.32
323.19	-35.84
323.403	27.65
323.617	72.7
323.83	-19.46
324.043	52.22
324.256	84.99
324.469	39.94
324.683	54.27
324.896	48.13
325.109	19.46
325.322	-50.18
325.535	134.14
325.748	21.5
325.962	37.89
326.175	70.65
326.388	17.41
326.601	119.81
326.814	58.37
327.027	48.13
327.24	162.81
327.453	-9.22
327.666	121.85
327.879	58.37
328.092	82.94
328.305	97.28
328.518	11.26
328.731	7.17
328.944	21.5
329.157	82.94
329.37	44.03
329.583	78.85
329.796	82.94
330.009	-39.94
330.222	121.85
330.435	93.18
330.648	21.5
330.861	64.51
331.073	113.66
331.286	125.95
331.499	142.33
331.712	13.31
331.925	13.31
332.138	-37.89
332.35	125.95
332.563	15.36
332.776	1.02
332.989	-21.5
333.202	54.27
333.414	37.89
333.627	50.18
333.84	23.55
334.053	46.08
334.265	119.81
334.478	52.22
334.691	19.46
334.903	35.84
335.116	37.89
335.329	-37.89
335.541	95.23
335.754	76.8
335.966	3.07
336.179	48.13
336.392	25.6
336.604	70.65
336.817	123.9
337.029	56.32
337.242	52.22
337.454	101.37
337.667	93.18
337.88	103.42
338.092	48.13
338.305	82.94
338.517	3.07
338.729	27.65
338.942	160.77
339.154	11.26
339.367	-5.12
339.579	54.27
339.792	132.09
340.004	134.14
340.217	27.65
340.429	27.65
340.641	44.03
340.854	-33.79
341.066	-25.6
341.278	113.66
341.491	103.42
341.703	109.57
341.915	15.36
342.128	117.76
342.34	72.7
342.552	-41.98
342.764	58.37
342.977	5.12
343.189	23.55
343.401	60.42
343.613	-52.22
343.826	7.17
344.038	19.46
344.25	93.18
344.462	56.32
344.674	-7.17
344.886	37.89
345.099	41.98
345.311	35.84
345.523	-52.22
345.735	13.31
345.947	-44.03
346.159	23.55
346.371	41.98
346.583	60.42
346.795	64.51
347.007	-17.41
347.219	58.37
347.431	7.17
347.643	109.57
347.855	17.41
348.067	93.18
348.279	-23.55
348.491	29.7
348.703	44.03
348.915	27.65
349.127	39.94
349.339	44.03
349.551	19.46
349.763	11.26
349.975	41.98
350.187	205.82
350.399	37.89
350.61	89.09
350.822	44.03
351.034	11.26
351.246	37.89
351.458	-41.98
351.669	52.22
351.881	156.67
352.093	91.13
352.305	-1.02
352.517	1.02
352.728	95.23
352.94	29.7
353.152	46.08
353.363	-3.07
353.575	97.28
353.787	103.42
353.999	5.12
354.21	70.65
354.422	80.89
354.633	56.32
354.845	15.36
355.057	37.89
355.268	44.03
355.48	111.61
355.692	-68.61
355.903	31.74
356.115	-37.89
356.326	35.84
356.538	76.8
356.749	50.18
356.961	119.81
357.172	84.99
357.384	25.6
357.595	117.76
357.807	60.42
358.018	48.13
358.23	44.03
358.441	97.28
358.653	109.57
358.864	37.89
359.075	3.07
359.287	82.94
359.498	60.42
359.709	31.74
359.921	82.94
360.132	3.07
360.344	52.22
360.555	46.08
360.766	68.61
360.977	-50.18
361.189	84.99
361.4	37.89
361.611	48.13
361.823	56.32
362.034	74.75
362.245	-3.07
362.456	44.03
362.667	91.13
362.879	-21.5
363.09	60.42
363.301	150.53
363.512	13.31
363.723	62.46
363.935	21.5
364.146	37.89
364.357	-25.6
364.568	-13.31
364.779	11.26
364.99	160.77
365.201	35.84
365.412	150.53
365.623	-11.26
365.834	78.85
366.045	15.36
366.256	97.28
366.467	-21.5
366.678	60.42
366.889	80.89
367.1	101.37
367.311	84.99
367.522	15.36
367.733	93.18
367.944	62.46
368.155	44.03
368.366	31.74
368.577	29.7
368.788	84.99
368.999	58.37
369.209	56.32
369.42	123.9
369.631	136.19
369.842	132.09
370.053	21.5
370.264	19.46
370.474	11.26
370.685	33.79
370.896	35.84
371.107	123.9
371.317	72.7
371.528	11.26
371.739	119.81
371.95	62.46
372.16	97.28
372.371	-21.5
372.582	56.32
372.792	91.13
373.003	60.42
373.214	62.46
373.424	78.85
373.635	27.65
373.846	25.6
374.056	-37.89
374.267	95.23
374.477	72.7
374.688	-11.26
374.898	11.26
375.109	60.42
375.319	58.37
375.53	95.23
375.74	103.42
375.951	-9.22
376.161	87.04
376.372	125.95
376.582	31.74
376.793	87.04
377.003	21.5
377.214	5.12
377.424	62.46
377.635	50.18
377.845	23.55
378.055	80.89
378.266	-15.36
378.476	29.7
378.686	68.61
378.897	33.79
379.107	41.98
379.317	60.42
379.528	74.75
379.738	72.7
379.948	-27.65
380.158	111.61
380.369	35.84
380.579	101.37
380.789	68.61
380.999	74.75
381.21	68.61
381.42	140.29
381.63	7.17
381.84	46.08
382.05	-37.89
382.261	60.42
382.471	70.65
382.681	46.08
382.891	140.29
383.101	105.47
383.311	19.46
383.521	-60.42
383.731	11.26
383.941	58.37
384.151	66.56
384.361	134.14
384.571	72.7
384.781	93.18
384.991	103.42
385.201	171.01
385.411	123.9
385.621	134.14
385.831	89.09
386.041	95.23
386.251	91.13
386.461	95.23
386.671	144.38
386.881	27.65
387.091	80.89
387.301	84.99
387.511	76.8
387.72	95.23
387.93	-5.12
388.14	-37.89
388.35	89.09
388.56	121.85
388.769	-13.31
388.979	11.26
389.189	-11.26
389.399	74.75
389.609	56.32
389.818	93.18
390.028	50.18
390.238	66.56
390.447	-7.17
390.657	68.61
390.867	66.56
391.076	66.56
391.286	95.23
391.496	105.47
391.705	37.89
391.915	87.04
392.125	76.8
392.334	54.27
392.544	162.81
392.753	101.37
392.963	-7.17
393.172	19.46
393.382	19.46
393.591	93.18
393.801	15.36
394.01	183.29
394.22	33.79
394.429	60.42
394.639	52.22
394.848	119.81
395.058	35.84
395.267	105.47
395.477	62.46
395.686	52.22
395.895	168.96
396.105	162.81
396.314	119.81
396.524	97.28
396.733	48.13
396.942	121.85
397.152	66.56
397.361	76.8
397.57	78.85
397.78	136.19
397.989	164.86
398.198	52.22
398.407	11.26
398.617	97.28
398.826	54.27
399.035	70.65
399.244	144.38
399.453	41.98
399.663	74.75
399.872	72.7
400.081	-1.02
400.29	189.44
400.499	52.22
400.708	162.81
400.917	21.5
401.127	52.22
401.336	52.22
401.545	150.53
401.754	125.95
401.963	168.96
402.172	93.18
402.381	78.85
402.59	33.79
402.799	140.29
403.008	148.48
403.217	113.66
403.426	160.77
403.635	25.6
403.844	54.27
404.053	99.33
404.262	-5.12
404.471	134.14
404.68	207.87
404.888	111.61
405.097	144.38
405.306	166.91
405.515	185.34
405.724	191.49
405.933	144.38
406.142	171.01
406.35	201.72
406.559	103.42
406.768	132.09
406.977	269.31
407.185	220.16
407.394	142.33
407.603	23.55
407.812	242.68
408.02	316.41
408.229	177.15
408.438	175.1
408.646	181.25
408.855	187.39
409.064	240.64
409.272	125.95
409.481	291.84
409.69	267.26
409.898	257.02
410.107	246.78
410.315	318.46
410.524	308.22
410.733	334.84
410.941	263.16
411.15	373.75
411.358	355.32
411.567	377.85
411.775	340.99
411.984	433.15
412.192	519.16
412.401	388.09
412.609	513.02
412.818	484.34
413.026	502.78
413.234	490.49
413.443	496.63
413.651	488.44
413.86	648.18
414.068	662.52
414.276	658.42
414.485	611.32
414.693	678.9
414.901	717.81
415.11	683
415.318	715.77
415.526	693.24
415.734	799.73
415.943	803.83
416.151	867.31
416.359	867.31
416.567	887.79
416.776	1002.48
416.984	1041.39
417.192	1010.67
417.4	1027.06
417.608	975.86
417.817	1059.82
418.025	1141.74
418.233	1170.41
418.441	1141.74
418.649	1272.81
418.857	1428.46
419.065	1354.73
419.273	1303.53
419.481	1420.27
419.689	1450.99
419.897	1668.07
420.105	1696.74
420.313	1692.65
420.521	1752.04
420.729	1879.01
420.937	1815.52
421.145	1870.82
421.353	2122.72
421.561	2008.03
421.769	2161.63
421.977	2261.98
422.185	2296.8
422.393	2124.77
422.601	2479.07
422.809	2427.87
423.017	2448.35
423.224	2647
423.432	2804.69
423.64	2655.19
423.848	2997.2
424.056	2968.53
424.263	3056.59
424.471	3066.83
424.679	3306.45
424.887	3193.81
425.094	3562.44
425.302	3435.47
425.51	3541.96
425.718	3658.7
425.925	3855.3
426.133	3926.98
426.341	4197.31
426.548	4363.2
426.756	4320.19
426.964	4465.6
427.171	4707.26
427.379	4670.39
427.586	4789.17
427.794	4959.16
428.001	5221.3
428.209	5456.81
428.417	5432.24
428.624	5839.78
428.832	5680.04
429.039	5594.03
429.247	5682.09
429.454	6288.29
429.662	6683.55
429.869	6138.79
430.076	6755.22
430.284	6632.35
430.491	6822.81
430.699	7113.62
430.906	7125.91
431.114	7392.14
431.321	7469.97
431.528	7785.35
431.736	8199.04
431.943	8530.81
432.15	8131.46
432.358	8309.63
432.565	8797.05
432.772	8801.15
432.979	9352.05
433.187	9517.93
433.394	9542.51
433.601	9964.39
433.808	10195.81
434.016	10079.08
434.223	10568.54
434.43	11232.08
434.637	11000.66
434.844	11744.08
435.052	11776.84
435.259	11826
435.466	11750.22
435.673	11782.99
435.88	12567.36
436.087	13308.72
436.294	13087.54
436.501	13028.15
436.708	13075.26
436.915	13384.5
437.122	14113.58
437.329	14254.89
437.537	14486.31
437.743	14897.95
437.95	14660.38
438.157	15514.39
438.364	15926.03
438.571	15874.83
438.778	16163.59
438.985	17533.68
439.192	17003.26
439.399	17171.19
439.606	17109.75
439.813	18197.23
440.02	19098.33
440.227	18918.11
440.433	18572
440.64	19241.69
440.847	19278.55
441.054	19516.12
441.261	20933.31
441.467	20458.18
441.674	21017.28
441.881	21658.29
442.088	21658.29
442.294	21476.02
442.501	22401.71
442.708	22813.35
442.914	23349.92
443.121	24572.55
443.328	24027.79
443.534	25555.58
443.741	24584.84
443.948	24529.55
444.154	26385.01
444.361	26301.04
444.568	26382.96
444.774	26157.68
444.981	26724.97
445.187	27576.92
445.394	28684.87
445.6	28148.31
445.807	31013.41
446.013	29676.09
446.22	29968.95
446.426	31248.93
446.633	31627.81
446.839	32686.61
447.046	31390.24
447.252	33143.3
447.459	32848.39
447.665	33098.25
447.871	34580.98
448.078	36155.86
448.284	34290.16
448.491	35539.43
448.697	36803.02
448.903	36952.52
449.11	37331.4
449.316	36901.32
449.522	37775.81
449.728	38810.03
449.935	38855.09
450.141	38498.74
450.347	39414.18
450.553	38570.42
450.76	38877.61
450.966	40241.56
451.172	40055.2
451.378	40771.99
451.584	39745.95
451.791	41220.49
451.997	40780.18
452.203	41644.42
452.409	41460.1
452.615	41617.8
452.821	39791.01
453.027	39408.04
453.233	41576.84
453.44	40264.09
453.646	40284.57
453.852	40507.8
454.058	41339.27
454.264	40114.59
454.47	40980.88
454.676	40243.61
454.882	41259.4
455.088	37831.1
455.294	38558.13
455.5	39604.64
455.705	39522.72
455.911	37841.34
456.117	37231.05
456.323	36753.87
456.529	35015.15
456.735	36213.21
456.941	34894.32
457.147	34847.21
457.352	33810.94
457.558	33655.29
457.764	33608.19
457.97	32866.83
458.176	32262.68
458.381	32012.82
458.587	30437.94
458.793	30878.25
458.999	28738.12
459.204	30829.1
459.41	30075.45
459.616	28275.28
459.821	28648.01
460.027	28172.88
460.233	27892.31
460.438	26733.16
460.644	26704.49
460.85	25631.35
461.055	25109.12
461.261	24973.95
461.466	23104.16
461.672	22274.73
461.878	23788.18
462.083	22301.36
462.289	21729.97
462.494	21746.36
462.7	20775.62
462.905	20234.96
463.111	20564.68
463.316	20912.83
463.522	20636.36
463.727	20474.57
463.932	20503.24
464.138	20200.14
464.343	20161.23
464.549	19731.15
464.754	20521.67
464.959	20296.39
465.165	19993.29
465.37	19221.21
465.575	18606.82
465.781	19765.97
465.986	19776.21
466.191	18959.07
466.397	18504.42
466.602	17500.92
466.807	18408.17
467.012	18391.78
467.218	18158.31
467.423	17779.44
467.628	18318.06
467.833	18688.74
468.038	17949.42
468.244	17593.08
468.449	18430.69
468.654	17830.64
468.859	17834.74
469.064	17486.58
469.269	16585.47
469.474	16827.14
469.679	17335.03
469.885	16730.88
470.09	17132.28
470.295	16806.66
470.5	16251.66
470.705	16544.52
470.91	16216.84
471.115	16024.33
471.32	16329.48
471.525	16149.26
471.73	15840.01
471.935	15895.31
472.139	15256.34
472.344	15409.94
472.549	15303.45
472.754	15289.11
472.959	14830.37
473.164	14506.79
473.369	14373.67
473.574	14943
473.778	14678.82
473.983	14502.69
474.188	14373.67
474.393	13923.12
474.598	13759.28
474.802	13609.78
475.007	13534
475.212	13669.17
475.417	13230.9
475.621	13314.87
475.826	13267.77
476.031	13116.22
476.235	12815.16
476.44	12880.7
476.645	12624.7
476.849	12591.94
477.054	12555.07
477.259	12415.81
477.463	12182.34
477.668	12110.66
477.872	12368.71
478.077	12108.62
478.282	11744.08
478.486	11690.83
478.691	11502.42
478.895	11500.37
479.1	11436.88
479.304	11422.55
479.509	11035.48
479.713	11473.74
479.918	11017.05
480.122	11125.59
480.326	10914.65
480.531	11203.41
480.735	10836.83
480.94	10761.05
481.144	11146.07
481.348	10552.16
481.553	10726.24
481.757	10644.32
481.961	10697.56
482.166	10781.53
482.37	10703.71
482.574	10378.08
482.778	10511.2
482.983	10687.32
483.187	10650.46
483.391	10433.38
483.595	10511.2
483.8	10300.26
484.004	10640.22
484.208	10570.59
484.412	10705.76
484.616	10435.42
484.821	10773.34
485.025	10408.8
485.229	10761.05
485.433	10560.35
485.637	10699.61
485.841	10470.24
486.045	10304.35
486.249	10664.8
486.453	10074.98
486.657	10646.37
486.861	10466.14
487.065	10335.07
487.269	10476.38
487.473	10265.44
487.677	10525.54
487.881	10642.27
488.085	10396.51
488.289	10558.3
488.493	10345.31
488.697	10660.7
488.901	10621.79
489.105	10513.25
489.309	10765.15
489.512	10627.93
489.716	10754.91
489.92	10638.17
490.124	10525.54
490.328	10765.15
490.531	10695.52
490.735	10781.53
490.939	10806.11
491.143	10812.25
491.346	10822.49
491.55	11004.76
491.754	10863.45
491.958	10992.47
492.161	11021.14
492.365	11006.81
492.569	11058.01
492.772	11004.76
492.976	11148.12
493.18	11418.45
493.383	11227.99
493.587	11406.16
493.79	11713.36
493.994	11205.46
494.197	11311.96
494.401	11580.24
494.605	11660.11
494.808	11766.6
495.012	12055.37
495.215	11840.33
495.419	11920.2
495.622	12090.18
495.825	12186.44
496.029	12270.4
496.232	12352.32
496.436	12352.32
496.639	12806.97
496.843	12692.29
497.046	12714.81
497.249	13073.21
497.453	12983.1
497.656	13095.74
497.859	13282.1
498.063	13392.69
498.266	13464.37
498.469	13585.2
498.673	13738.8
498.876	13880.11
499.079	13990.7
499.282	13959.98
499.485	14496.55
499.689	14463.78
499.892	14441.25
500.095	14967.58
500.298	15033.11
500.501	14777.12
500.705	15452.95
500.908	15278.87
501.111	15727.38
501.314	15764.24
501.517	15799.05
501.72	16155.4
501.923	16139.02
502.126	16407.3
502.329	16720.64
502.532	16780.03
502.735	16849.66
502.938	17234.68
503.141	17222.39
503.344	17404.66
503.547	17486.58
503.75	17744.63
503.953	17986.29
504.156	18340.58
504.359	18434.79
504.562	18629.35
504.765	18649.83
504.968	19127
505.17	19213.02
505.373	19395.29
505.576	19528.41
505.779	19589.85
505.982	19661.52
506.185	20009.68
506.387	20189.9
506.59	20441.8
506.793	21068.48
506.996	20697.8
507.198	21541.56
507.401	21246.65
507.604	21932.72
507.807	21701.3
508.009	21928.63
508.212	22311.6
508.415	22583.98
508.617	22624.93
508.82	22938.27
509.022	22842.02
509.225	23556.76
509.428	23642.78
509.63	23777.94
509.833	23997.07
510.035	24365.71
510.238	24418.96
510.44	24677
510.643	24828.55
510.845	25117.31
511.048	24986.24
511.25	25414.27
511.453	25795.19
511.655	26747.5
511.858	26057.33
512.06	26686.06
512.262	26925.67
512.465	26784.36
512.667	27232.86
512.87	27224.67
513.072	27279.97
513.274	27738.71
513.477	28140.11
513.679	28244.56
513.881	28856.9
514.084	29102.66
514.286	29022.79
514.488	29088.32
514.69	29936.18
514.893	29860.41
515.095	30259.76
515.297	30485.04
515.499	30681.64
515.701	31201.83
515.904	31232.55
516.106	31525.41
516.308	31762.97
516.51	31881.75
516.712	32301.59
516.914	32580.11
517.116	32977.42
517.318	32965.13
517.52	33339.91
517.722	33434.11
517.925	33565.18
518.127	34406.9
518.329	34423.28
518.531	34007.55
518.733	34779.63
518.935	35140.07
519.136	35455.46
519.338	36098.52
519.54	35817.95
519.742	36202.97
519.944	36211.16
520.146	37030.35
520.348	37065.16
520.55	36950.48
520.752	37462.47
520.954	37804.48
521.155	37669.31
521.357	38224.31
521.559	38674.87
521.761	39121.32
521.963	38910.38
522.164	39092.65
522.366	39334.31
522.568	39932.32
522.77	39633.32
522.971	40481.17
523.173	40266.14
523.375	40860.05
523.576	41025.93
523.778	40624.53
523.98	41351.56
524.181	41712
524.383	41400.71
524.584	42166.65
524.786	41783.68
524.988	42312.06
525.189	42877.3
525.391	43155.82
525.592	42903.92
525.794	43286.89
525.995	43114.86
526.197	43506.02
526.398	43399.53
526.6	44091.74
526.801	43712.87
527.003	43856.23
527.204	44095.84
527.406	44564.82
527.607	44740.95
527.808	45125.97
528.01	44331.36
528.211	44597.59
528.412	45410.64
528.614	45013.33
528.815	45230.41
529.016	45492.55
529.218	45363.53
529.419	45678.92
529.62	45930.82
529.822	45988.16
530.023	46203.2
530.224	45971.78
530.425	45873.48
530.626	45715.78
530.828	45816.13
531.029	46655.8
531.23	46256.45
531.431	46418.24
531.632	46358.84
531.833	46565.69
532.035	46375.23
532.236	46698.81
532.437	46784.82
532.638	46319.93
532.839	46743.86
533.04	47051.06
533.241	46754.1
533.442	47335.73
533.643	47122.74
533.844	46967.09
534.045	47087.92
534.246	46555.45
534.447	47221.04
534.648	46670.14
534.849	47141.17
535.05	46819.64
535.251	47030.58
535.451	46893.36
535.652	47161.65
535.853	46889.27
536.054	46735.67
536.255	47296.81
536.456	46471.48
536.657	47857.96
536.857	46940.47
537.058	46672.18
537.259	47018.29
537.46	47403.31
537.66	47110.45
537.861	47266.09
538.062	47010.1
538.263	47335.73
538.463	47147.31
538.664	47225.14
538.865	47372.59
539.065	46985.52
539.266	46623.03
539.466	47245.62
539.667	46692.66
539.868	47317.29
540.068	47024.43
540.269	47003.95
540.469	47235.38
540.67	47059.25
540.87	47161.65
541.071	47020.34
541.271	46948.66
541.472	46762.29
541.672	46682.42
541.873	46651.7
542.073	46573.88
542.274	47323.44
542.474	46903.6
542.675	46647.61
542.875	46922.04
543.075	46643.51
543.276	46344.51
543.476	47204.66
543.676	46747.96
543.877	46819.64
544.077	46653.75
544.277	46829.88
544.478	46903.6
544.678	47028.53
544.878	47042.87
545.078	46864.69
545.279	46860.6
545.479	46063.94
545.679	46903.6
545.879	46627.13
546.079	46258.49
546.28	46629.18
546.48	46354.75
546.68	46831.93
546.88	46831.93
547.08	46369.08
547.28	46375.23
547.48	45832.52
547.68	46451
547.88	46045.51
548.081	46432.57
548.281	46315.84
548.481	46238.01
548.681	46606.65
548.881	46385.47
549.081	46524.73
549.28	46184.77
549.48	46276.93
549.68	46453.05
549.88	47024.43
550.08	45953.35
550.28	46489.91
550.48	46346.56
550.68	46528.83
550.88	46037.31
551.08	46115.14
551.279	46467.39
551.479	46215.49
551.679	46491.96
551.879	46147.9
552.079	46352.7
552.278	46260.54
552.478	45807.94
552.678	46258.49
552.878	46463.29
553.077	46102.85
553.277	45750.6
553.477	46403.9
553.676	45881.67
553.876	45979.97
554.076	45347.15
554.275	46072.13
554.475	45285.71
554.674	45818.18
554.874	45482.31
555.074	45609.29
555.273	45707.59
555.473	45646.15
555.672	45140.3
555.872	45850.95
556.071	45375.82
556.271	46111.04
556.47	45072.72
556.67	44984.66
556.869	45459.79
557.068	45553.99
557.268	45175.12
557.467	45037.9
557.667	45238.61
557.866	45005.14
558.065	44497.24
558.265	44663.13
558.464	44841.3
558.663	45465.93
558.863	44472.67
559.062	45214.03
559.261	44274.01
559.461	45359.44
559.66	43993.44
559.859	44269.92
560.058	44228.96
560.258	44683.61
560.457	44304.73
560.656	44792.15
560.855	44233.05
561.054	44423.51
561.253	43794.79
561.453	43841.89
561.652	44427.61
561.851	44462.43
562.05	43454.82
562.249	43714.92
562.448	44110.17
562.647	43716.96
562.846	43219.31
563.045	43643.24
563.244	43254.12
563.443	43503.98
563.642	42774.9
563.841	43170.16
564.04	42764.66
564.239	43100.53
564.438	43084.14
564.637	42826.1
564.836	43188.59
565.035	42475.9
565.234	42408.31
565.432	42664.31
565.631	42502.52
565.83	42174.84
566.029	42348.92
566.228	42195.32
566.427	42107.26
566.625	42396.03
566.824	41488.77
567.023	42150.27
567.222	41214.35
567.42	42000.77
567.619	41845.12
567.818	41499.01
568.016	41320.84
568.215	41787.78
568.414	41163.15
568.612	41666.95
568.811	41030.03
569.01	41179.53
569.208	40786.32
569.407	41054.61
569.605	40466.84
569.804	41066.89
570.002	40499.61
570.201	40606.1
570.4	40313.24
570.598	40432.02
570.797	40325.53
570.995	40141.21
571.193	39905.7
571.392	40278.43
571.59	39723.43
571.789	39768.48
571.987	39928.22
572.186	39731.62
572.384	39627.17
572.582	39352.74
572.781	39760.29
572.979	38869.42
573.177	39463.33
573.376	39657.89
573.574	38910.38
573.772	39080.36
573.971	38922.67
574.169	38623.67
574.367	38697.39
574.565	39057.84
574.763	38699.44
574.962	38185.4
575.16	37734.85
575.358	38138.3
575.556	37753.28
575.754	38406.58
575.952	37943.74
576.151	38085.05
576.349	37587.39
576.547	37601.73
576.745	37718.46
576.943	37784
577.141	37530.05
577.339	37165.51
577.537	37243.34
577.735	37300.68
577.933	36835.79
578.131	37255.62
578.329	36878.8
578.527	36663.76
578.725	36876.75
578.923	36835.79
579.121	36788.69
579.319	36358.61
579.516	36680.14
579.714	36317.65
579.912	35637.73
580.11	36280.79
580.308	36151.77
580.506	35887.58
580.704	35518.95
580.901	36012.51
581.099	35443.17
581.297	35178.98
581.495	35361.25
581.692	35498.47
581.89	35215.85
582.088	35389.92
582.285	35254.76
582.483	35002.86
582.681	35275.24
582.878	34877.93
583.076	34501.11
583.274	35058.15
583.471	34564.59
583.669	34501.11
583.866	34195.96
584.064	34652.66
584.262	33868.28
584.459	34429.43
584.657	34101.75
584.854	34306.55
585.052	33683.97
585.249	33948.15
585.447	33993.21
585.644	33538.56
585.841	33393.15
586.039	33888.76
586.236	33475.07
586.434	33333.76
586.631	33139.21
586.828	33393.15
587.026	33219.08
587.223	33196.55
587.42	32743.95
587.618	32934.41
587.815	32573.97
588.012	32911.88
588.21	32401.94
588.407	32864.78
588.604	32256.53
588.801	32272.92
588.999	32393.75
589.196	31713.82
589.393	32018.97
589.59	32070.17
589.787	31730.2
589.984	31599.13
590.182	31670.81
590.379	31324.71
590.576	31369.76
590.773	31603.23
590.97	31269.41
591.167	31408.67
591.364	30820.91
591.561	31369.76
591.758	30784.04
591.955	30958.12
592.152	31042.09
592.349	30632.49
592.546	30575.15
592.743	30966.31
592.94	30095.92
593.137	30497.33
593.334	30378.54
593.531	29706.81
593.727	30351.92
593.924	30288.43
594.121	29467.2
594.318	30081.59
594.515	29657.66
594.712	29854.26
594.908	29508.16
595.105	29715
595.302	29289.03
595.499	29508.16
595.696	29377.09
595.892	28838.47
596.089	29352.51
596.286	29094.47
596.482	28885.58
596.679	29033.03
596.876	28826.18
597.072	28863.05
597.269	28783.18
597.466	28529.23
597.662	28301.9
597.859	28093.01
598.055	28469.84
598.252	28183.12
598.448	28271.18
598.645	27900.5
598.841	27839.06
599.038	27935.32
599.234	27904.6
599.431	27495
599.627	27617.88
599.824	27624.03
600.02	27136.61
600.217	27716.19
600.413	27146.85
600.609	27069.03
600.806	27107.94
601.002	27120.23
601.198	27171.43
601.395	26667.63
601.591	26585.71
601.787	26806.89
601.984	26544.75
602.18	26899.05
602.376	26385.01
602.572	26249.84
602.769	26542.7
602.965	26024.56
603.161	26403.44
603.357	26028.66
603.553	25928.31
603.75	25541.24
603.946	26081.91
604.142	25899.64
604.338	25401.98
604.534	25635.45
604.73	25234.05
604.926	25492.09
605.122	25488
605.318	25315.97
605.514	25422.46
605.71	24896.13
605.906	25039.49
606.102	25029.25
606.298	25088.64
606.494	25164.42
606.69	24836.74
606.886	24834.69
607.082	24547.98
607.278	24607.37
607.474	24390.28
607.67	24552.07
607.866	24103.57
608.062	24883.84
608.257	24513.16
608.453	23829.14
608.649	24117.9
608.845	24162.96
609.041	24132.24
609.236	24277.65
609.432	24195.73
609.628	23816.85
609.824	23734.93
610.019	23732.89
610.215	23837.33
610.411	23872.15
610.606	23421.59
610.802	23841.43
610.998	23739.03
611.193	23558.81
611.389	23466.65
611.584	23394.97
611.78	23214.75
611.976	23159.45
612.171	23587.48
612.367	23341.72
612.562	23399.07
612.758	23116.45
612.953	22872.74
613.149	23337.63
613.344	22848.16
613.539	23206.56
613.735	23366.3
613.93	23098.02
614.126	22543.02
614.321	22923.94
614.517	23149.21
614.712	22676.13
614.907	22833.83
615.103	22739.62
615.298	22790.82
615.493	23005.86
615.688	22313.64
615.884	22657.7
616.079	22217.39
616.274	22647.46
616.47	22254.25
616.665	22266.54
616.86	22311.6
617.055	22039.22
617.25	22135.47
617.445	22196.91
617.641	22117.04
617.836	22268.59
618.031	21742.26
618.226	22006.45
618.421	21815.99
618.616	22160.05
618.811	21600.95
619.006	21957.3
619.201	21301.95
619.396	21820.08
619.591	21177.02
619.786	21494.46
619.981	21099.2
620.176	21373.63
620.371	20808.39
620.566	21183.16
620.761	20800.19
620.956	20687.56
621.151	20632.26
621.346	20925.12
621.541	20400.84
621.735	20718.28
621.93	20187.85
622.125	20323.02
622.32	20026.06
622.515	20280.01
622.709	19763.92
622.904	19983.06
623.099	19747.54
623.294	19735.25
623.488	19436.25
623.683	19532.5
623.878	19253.98
624.072	19272.41
624.267	19219.16
624.462	19120.86
624.656	18885.34
624.851	18897.63
625.046	18758.37
625.24	18731.75
625.435	18619.11
625.629	18451.17
625.824	18481.89
626.018	18279.15
626.213	18053.87
626.407	18256.62
626.602	17842.93
626.796	18084.59
626.991	18008.81
627.185	17787.63
627.38	17742.58
627.574	17603.32
627.768	17515.25
627.963	17601.27
628.157	17222.39
628.352	17263.35
628.546	16935.68
628.74	16974.59
628.935	16945.92
629.129	16958.21
629.323	16671.49
629.517	16466.69
629.712	16495.36
629.906	16448.26
630.1	16177.93
630.294	16218.89
630.489	16542.47
630.683	16182.03
630.877	15758.1
631.071	15907.6
631.265	15831.82
631.459	15659.79
631.653	15647.51
631.848	15706.9
632.042	15713.04
632.236	15471.38
632.43	15336.21
632.624	15377.17
632.818	15364.89
633.012	14826.27
633.206	14920.48
633.4	14932.76
633.594	14947.1
633.788	14586.66
633.982	14877.47
634.176	14818.08
634.369	14770.97
634.563	14570.27
634.757	14410.53
634.951	14553.89
635.145	14349.09
635.339	14078.76
635.533	14334.76
635.726	14121.77
635.92	13994.79
636.114	14158.63
636.308	13833
636.501	13843.24
636.695	13808.43
636.889	13499.19
637.083	13849.39
637.276	13517.62
637.47	13378.36
637.664	13316.92
637.857	13398.84
638.051	13372.21
638.244	13060.92
638.438	13052.73
638.632	13316.92
638.825	13198.13
639.019	13118.26
639.212	12876.6
639.406	13036.35
639.599	12743.49
639.793	12634.94
639.986	12481.35
640.18	12628.8
640.373	12477.25
640.567	12172.1
640.76	12555.07
640.954	12327.75
641.147	12219.21
641.34	11864.91
641.534	12151.62
641.727	12129.09
641.92	12200.77
642.114	12079.94
642.307	11803.47
642.5	11809.61
642.694	11799.37
642.887	11645.77
643.08	11713.36
643.273	11486.03
643.467	11506.51
643.66	11295.57
643.853	11541.33
644.046	11266.9
644.239	11248.47
644.432	11305.81
644.626	11086.68
644.819	10951.51
645.012	10928.99
645.205	10859.35
645.398	11010.9
645.591	10963.8
645.784	10826.59
645.977	10756.96
646.17	10636.13
646.363	10439.52
646.556	10423.14
646.749	10541.92
646.942	10568.54
647.135	10384.23
647.328	10269.54
647.521	10285.92
647.714	9995.11
647.907	10050.41
648.099	10165.09
648.292	10287.97
648.485	10161
648.678	9812.84
648.871	9808.75
649.064	9905
649.256	9804.65
649.449	9644.91
649.642	9759.6
649.835	9546.61
650.027	9581.42
650.22	9415.54
650.413	9505.65
650.605	9485.17
650.798	9280.37
650.991	9218.93
651.183	9331.57
651.376	9272.18
651.568	9335.67
651.761	9220.98
651.954	9313.14
652.146	9141.11
652.339	9065.33
652.531	9149.3
652.724	9026.42
652.916	8698.75
653.109	9001.85
653.301	8805.24
653.494	8842.11
653.686	8639.36
653.879	8610.68
654.071	8641.4
654.263	8649.6
654.456	8465.28
654.648	8618.88
654.84	8446.85
655.033	8356.74
655.225	8387.46
655.417	8278.91
655.61	8334.21
655.802	8237.95
655.994	8192.9
656.186	8182.66
656.379	8055.69
656.571	8106.88
656.763	8045.45
656.955	8135.56
657.148	7975.81
657.34	7928.71
657.532	7857.03
657.724	7914.38
657.916	7873.42
658.108	7762.83
658.3	7746.44
658.492	7633.8
658.684	7687.05
658.876	7494.54
659.068	7537.55
659.26	7404.43
659.452	7429.01
659.644	7582.6
659.836	7441.29
660.028	7474.06
660.22	7125.91
660.412	7277.46
660.604	7224.21
660.796	7082.9
660.988	7222.16
661.18	7054.23
661.372	7248.79
661.563	7050.13
661.755	7035.8
661.947	7011.22
662.139	6953.88
662.331	6951.83
662.522	6783.9
662.714	6820.76
662.906	6849.43
663.097	6828.95
663.289	6736.79
663.481	6749.08
663.673	6575
663.864	6413.21
664.056	6783.9
664.247	6460.32
664.439	6663.07
664.631	6656.92
664.822	6777.75
665.014	6427.55
665.205	6462.37
665.397	6255.52
665.588	6513.56
665.78	6290.34
665.971	6454.17
666.163	6364.06
666.354	6200.23
666.546	6347.68
666.737	6316.96
666.929	6310.82
667.12	6136.74
667.311	6175.65
667.503	6011.81
667.694	6099.87
667.885	5950.37
668.077	6163.36
668.268	6040.48
668.459	6017.96
668.651	6052.77
668.842	5888.93
669.033	5884.84
669.224	5721
669.416	5995.43
669.607	5993.38
669.798	5819.3
669.989	5897.13
670.18	5667.75
670.371	5829.54
670.563	5915.56
670.754	5813.16
670.945	5735.34
671.136	5856.17
671.327	5555.12
671.518	5589.93
671.709	5809.06
671.9	5669.8
672.091	5587.88
672.282	5440.43
672.473	5526.44
672.664	5428.14
672.855	5419.95
673.046	5682.09
673.237	5555.12
673.428	5485.48
673.619	5450.67
673.809	5411.76
674	5458.86
674.191	5403.57
674.382	5350.32
674.573	5483.44
674.764	5360.56
674.954	5417.9
675.145	5202.86
675.336	5260.21
675.527	5307.31
675.717	5282.74
675.908	5247.92
676.099	5290.93
676.289	5168.05
676.48	5151.67
676.671	5282.74
676.861	5290.93
677.052	5122.99
677.243	5096.37
677.433	5227.44
677.624	5270.45
677.814	5215.15
678.005	5094.32
678.195	5096.37
678.386	5254.06
678.576	5200.82
678.767	5190.58
678.957	5079.99
679.148	5106.61
679.338	5112.75
679.529	5122.99
679.719	5000.12
679.909	5131.19
680.1	5043.12
680.29	5223.34
680.481	5022.64
680.671	5137.33
680.861	4840.37
681.052	4905.91
681.242	5059.51
681.432	5036.98
681.622	4901.81
681.813	4864.95
682.003	4993.97
682.193	4885.43
682.383	4998.07
682.573	4940.72
682.764	4905.91
682.954	4914.1
683.144	5000.12
683.334	5000.12
683.524	4961.2
683.714	4875.19
683.904	4877.24
684.094	4920.24
684.284	4883.38
684.474	4807.61
684.664	4817.85
684.854	4713.4
685.044	4881.33
685.234	4748.22
685.424	4682.68
685.614	4557.75
685.804	4668.34
685.994	4709.3
686.184	4713.4
686.374	4629.43
686.564	4645.82
686.753	4617.15
686.943	4541.37
687.133	4608.95
687.323	4508.6
687.513	4572.09
687.702	4418.49
687.892	4502.46
688.082	4383.68
688.272	4430.78
688.461	4375.49
688.651	4473.79
688.841	4297.66
689.03	4262.85
689.22	4287.42
689.41	4287.42
689.599	4223.94
689.789	4225.98
689.979	4217.79
690.168	4133.82
690.358	4025.28
690.547	4211.65
690.737	4113.35
690.926	4080.58
691.116	3990.47
691.305	4176.83
691.495	4117.44
691.684	3984.32
691.874	3916.74
692.063	3800.01
692.252	3939.27
692.442	3851.21
692.631	3881.92
692.82	3992.52
693.01	3781.57
693.199	3814.34
693.388	3726.28
693.578	3730.38
693.767	3898.31
693.956	3804.1
694.146	3623.88
694.335	3666.89
694.524	3800.01
694.713	3738.57
694.902	3625.93
695.092	3636.17
695.281	3720.14
695.47	3673.03
695.659	3646.41
695.848	3640.26
696.037	3486.67
696.226	3441.61
696.415	3537.87
696.604	3568.59
696.793	3509.19
696.982	3478.47
697.171	3509.19
697.36	3630.02
697.549	3439.56
697.738	3550.15
697.927	3404.75
698.116	3609.54
698.305	3476.43
698.494	3517.39
698.683	3402.7
698.872	3431.37
699.061	3367.88
699.25	3431.37
699.438	3464.14
699.627	3310.54
699.816	3410.89
700.005	3328.97
700.193	3363.79
700.382	3462.09
700.571	3324.88
700.76	3410.89
700.948	3396.56
701.137	3312.59
701.326	3472.33
701.514	3388.36
701.703	3439.56
701.892	3273.68
702.08	3464.14
702.269	3439.56
702.457	3312.59
702.646	3328.97
702.834	3316.69
703.023	3277.77
703.212	3396.56
703.4	3304.4
703.589	3355.6
703.777	3392.46
703.965	3294.16
704.154	3197.9
704.342	3230.67
704.531	3353.55
704.719	3206.1
704.907	3374.03
705.096	3230.67
705.284	3308.49
705.472	3285.97
705.661	3367.88
705.849	3392.46
706.037	3347.4
706.226	3363.79
706.414	3361.74
706.602	3355.6
706.79	3337.17
706.979	3335.12
707.167	3355.6
707.355	3326.93
707.543	3390.41
707.731	3425.23
707.919	3292.11
708.107	3349.45
708.296	3339.21
708.484	3234.77
708.672	3232.72
708.86	3324.88
709.048	3255.25
709.236	3134.42
709.424	3392.46
709.612	3320.78
709.8	3216.33
709.988	3357.64
710.176	3290.06
710.364	3376.08
710.551	3212.24
710.739	3206.1
710.927	3429.32
711.115	3337.17
711.303	3298.25
711.491	3347.4
711.679	3322.83
711.866	3269.58
712.054	3492.81
712.242	3255.25
712.43	3488.71
712.617	3414.99
712.805	3371.98
712.993	3306.45
713.181	3312.59
713.368	3363.79
713.556	3419.08
713.744	3339.21
713.931	3517.39
714.119	3281.87
714.306	3414.99
714.494	3367.88
714.682	3419.08
714.869	3480.52
715.057	3462.09
715.244	3402.7
715.432	3453.9
715.619	3380.17
715.807	3277.77
715.994	3406.8
716.182	3480.52
716.369	3406.8
716.556	3404.75
716.744	3439.56
716.931	3367.88
717.119	3359.69
717.306	3253.2
717.493	3521.48
717.681	3380.17
717.868	3429.32
718.055	3568.59
718.242	3394.51
718.43	3310.54
718.617	3523.53
718.804	3380.17
718.991	3419.08
719.179	3558.35
719.366	3445.71
719.553	3417.04
719.74	3419.08
719.927	3410.89
720.114	3331.02
720.301	3419.08
720.488	3472.33
720.676	3363.79
720.863	3501
721.05	3584.97
721.237	3384.27
721.424	3591.11
721.611	3394.51
721.798	3378.12
721.985	3464.14
722.172	3414.99
722.358	3537.87
722.545	3423.18
722.732	3378.12
722.919	3509.19
723.106	3521.48
723.293	3394.51
723.48	3390.41
723.667	3521.48
723.853	3525.58
724.04	3435.47
724.227	3562.44
724.414	3513.29
724.6	3501
724.787	3417.04
724.974	3410.89
725.161	3412.94
725.347	3404.75
725.534	3482.57
725.72	3382.22
725.907	3472.33
726.094	3398.6
726.28	3427.28
726.467	3353.55
726.653	3374.03
726.84	3570.63
727.027	3607.5
727.213	3402.7
727.4	3513.29
727.586	3394.51
727.773	3474.38
727.959	3394.51
728.145	3468.24
728.332	3359.69
728.518	3572.68
728.705	3550.15
728.891	3513.29
729.077	3605.45
729.264	3431.37
729.45	3410.89
729.636	3576.78
729.823	3484.62
730.009	3433.42
730.195	3382.22
730.382	3501
730.568	3470.28
730.754	3529.67
730.94	3541.96
731.126	3384.27
731.313	3404.75
731.499	3396.56
731.685	3531.72
731.871	3451.85
732.057	3488.71
732.243	3599.31
732.429	3509.19
732.615	3537.87
732.801	3331.02
732.987	3431.37
733.173	3404.75
733.359	3333.07
733.545	3386.32
733.731	3363.79
733.917	3478.47
734.103	3466.19
734.289	3322.83
734.475	3421.13
734.661	3507.15
734.847	3537.87
735.033	3345.36
735.219	3410.89
735.404	3316.69
735.59	3331.02
735.776	3378.12
735.962	3339.21
736.148	3515.34
736.333	3507.15
736.519	3371.98
736.705	3460.04
736.89	3353.55
737.076	3380.17
737.262	3271.63
737.447	3183.57
737.633	3316.69
737.819	3267.53
738.004	3279.82
738.19	3441.61
738.375	3257.29
738.561	3386.32
738.747	3300.3
738.932	3222.48
739.118	3345.36
739.303	3259.34
739.489	3398.6
739.674	3175.38
739.859	3298.25
740.045	3279.82
740.23	3234.77
740.416	3165.14
740.601	3314.64
740.786	3150.8
740.972	3044.31
741.157	3136.46
741.342	3150.8
741.528	3036.11
741.713	3179.47
741.898	3027.92
742.084	3068.88
742.269	3206.1
742.454	3202
742.639	3072.98
742.824	3158.99
743.01	3173.33
743.195	3148.75
743.38	2995.15
743.565	3132.37
743.75	2933.72
743.935	2968.53
744.12	3124.18
744.305	2776.02
744.49	3050.45
744.675	2886.61
744.86	2837.46
745.045	2927.57
745.23	2946
745.415	2974.67
745.6	2960.34
745.785	2872.28
745.97	2788.31
746.155	2857.94
746.34	2708.44
746.525	2862.04
746.71	2743.25
746.895	2554.84
747.079	2722.77
747.264	2761.69
747.449	2788.31
747.634	2661.34
747.819	2821.08
748.003	2634.71
748.188	2745.3
748.373	2651.1
748.557	2694.1
748.742	2663.38
748.927	2544.6
749.111	2563.03
749.296	2528.22
749.481	2550.75
749.665	2626.52
749.85	2599.9
750.034	2716.63
750.219	2438.11
750.404	2391
750.588	2544.6
750.773	2450.39
750.957	2489.31
751.141	2423.77
751.326	2503.64
751.51	2317.28
751.695	2268.13
751.879	2339.8
752.064	2411.48
752.248	2286.56
752.432	2364.38
752.617	2255.84
752.801	2241.5
752.985	2304.99
753.17	2151.39
753.354	2292.7
753.538	2255.84
753.722	2087.9
753.907	2169.82
754.091	2200.54
754.275	2182.11
754.459	2114.53
754.643	2124.77
754.828	2200.54
755.012	2046.94
755.196	2092
755.38	2130.91
755.564	2046.94
755.748	2040.8
755.932	2003.94
756.116	2001.89
756.3	1887.2
756.484	1905.63
756.668	1979.36
756.852	1864.68
757.036	1911.78
757.22	1922.02
757.404	1915.87
757.588	1813.48
757.772	1854.44
757.956	1879.01
758.14	1922.02
758.323	1862.63
758.507	1897.44
758.691	1868.77
758.875	1895.4
759.059	1805.28
759.242	1737.7
759.426	1774.56
759.61	1692.65
759.794	1776.61
759.977	1760.23
760.161	1780.71
760.345	1788.9
760.528	1739.75
760.712	1739.75
760.895	1731.56
761.079	1651.69
761.263	1520.62
761.446	1608.68
761.63	1594.34
761.813	1694.69
761.997	1528.81
762.18	1584.1
762.364	1580.01
762.547	1563.62
762.731	1545.19
762.914	1516.52
763.098	1649.64
763.281	1543.14
763.464	1489.9
763.648	1553.38
763.831	1520.62
764.015	1510.38
764.198	1610.73
764.381	1485.8
764.564	1567.72
764.748	1502.19
764.931	1565.67
765.114	1461.23
765.297	1551.34
765.481	1414.12
765.664	1440.75
765.847	1418.22
766.03	1500.14
766.213	1397.74
766.397	1383.4
766.58	1375.21
766.763	1450.99
766.946	1420.27
767.129	1416.17
767.312	1340.4
767.495	1373.16
767.678	1377.26
767.861	1379.31
768.044	1459.18
768.227	1430.51
768.41	1416.17
768.593	1379.31
768.776	1330.16
768.959	1317.87
769.142	1436.65
769.324	1151.98
769.507	1352.68
769.69	1268.72
769.873	1295.34
770.056	1432.55
770.239	1233.9
770.421	1391.59
770.604	1350.64
770.787	1268.72
770.97	1358.83
771.152	1209.33
771.335	1330.16
771.518	1309.68
771.7	1326.06
771.883	1303.53
772.066	1176.56
772.248	1326.06
772.431	1313.77
772.613	1227.76
772.796	1244.14
772.978	1235.95
773.161	1270.76
773.343	1158.13
773.526	1151.98
773.708	1068.02
773.891	1135.6
774.073	1227.76
774.256	1178.61
774.438	1213.42
774.621	1106.93
774.803	1211.37
774.985	1031.15
775.168	1176.56
775.35	1076.21
775.532	1059.82
775.715	1080.3
775.897	1037.3
776.079	1088.5
776.261	1016.82
776.444	1086.45
776.626	973.81
776.808	961.52
776.99	988.14
777.173	1037.3
777.355	996.34
777.537	986.1
777.719	1006.58
777.901	986.1
778.083	990.19
778.265	934.9
778.447	1031.15
778.629	871.41
778.811	979.95
778.993	949.23
779.175	883.7
779.357	936.95
779.539	865.27
779.721	836.6
779.903	898.03
780.085	932.85
780.267	881.65
780.449	893.94
780.631	898.03
780.812	949.23
780.994	840.69
781.176	871.41
781.358	797.68
781.54	791.54
781.721	873.46
781.903	820.21
782.085	693.24
782.267	865.27
782.448	728.05
782.63	850.93
782.812	879.6
782.993	818.16
783.175	742.39
783.357	740.34
783.538	764.92
783.72	728.05
783.901	740.34
784.083	803.83
784.264	752.63
784.446	762.87
784.627	719.86
784.809	713.72
784.99	607.22
785.172	644.09
785.353	674.81
785.535	637.94
785.716	738.29
785.897	644.09
786.079	664.57
786.26	599.03
786.441	644.09
786.623	603.13
786.804	543.74
786.985	644.09
787.167	736.24
787.348	590.84
787.529	642.04
787.71	666.61
787.891	629.75
788.073	635.89
788.254	584.7
788.435	629.75
788.616	650.23
788.797	609.27
788.978	570.36
789.159	637.94
789.34	658.42
789.522	615.41
789.703	556.02
789.884	564.22
790.065	570.36
790.246	635.89
790.427	560.12
790.607	572.41
790.788	642.04
790.969	545.78
791.15	510.97
791.331	470.01
791.512	537.59
791.693	439.29
791.874	531.45
792.054	627.7
792.235	607.22
792.416	453.63
792.597	447.48
792.778	447.48
792.958	578.55
793.139	521.21
793.32	478.2
793.5	465.91
793.681	529.4
793.862	506.87
794.042	461.82
794.223	410.62
794.404	427
794.584	420.86
794.765	349.18
794.945	513.02
795.126	457.72
795.306	420.86
795.487	586.74
795.667	443.39
795.848	513.02
796.028	334.84
796.209	404.47
796.389	445.43
796.57	427
796.75	410.62
796.93	429.05
797.111	338.94
797.291	326.65
797.471	453.63
797.652	379.9
797.832	369.66
798.012	453.63
798.192	371.71
798.373	326.65
798.553	373.75
798.733	369.66
798.913	332.79
799.093	392.19
799.274	332.79
799.454	394.23
799.634	365.56
799.814	455.67
799.994	435.19
800.174	416.76
800.354	332.79
800.534	326.65
800.714	330.75
800.894	322.56
801.074	283.64
801.254	322.56
801.434	345.08
801.614	308.22
801.794	281.6
801.974	1321.96
802.154	308.22
802.334	359.42
802.514	355.32
802.693	314.36
802.873	343.03
803.053	357.37
803.233	316.41
803.413	238.59
803.592	267.26
803.772	336.89
803.952	248.83
804.131	216.06
804.311	314.36
804.491	367.61
804.67	351.23
804.85	324.6
805.03	275.45
805.209	390.14
805.389	234.49
805.568	297.98
805.748	269.31
805.928	347.13
806.107	326.65
806.287	252.92
806.466	291.84
806.646	318.46
806.825	320.51
807.004	224.25
807.184	244.73
807.363	308.22
807.543	211.96
807.722	271.36
807.901	316.41
808.081	365.56
808.26	140.29
808.439	254.97
808.619	222.2
808.798	265.21
808.977	273.4
809.156	246.78
809.336	195.58
809.515	308.22
809.694	183.29
809.873	322.56
810.052	269.31
810.231	244.73
810.411	297.98
810.59	246.78
810.769	185.34
810.948	302.08
811.127	216.06
811.306	179.2
811.485	201.72
811.664	203.77
811.843	252.92
812.022	295.93
812.201	236.54
812.38	154.62
812.559	150.53
812.737	324.6
812.916	199.68
813.095	193.53
813.274	146.43
813.453	218.11
813.632	244.73
813.811	222.2
813.989	56.32
814.168	244.73
814.347	154.62
814.526	205.82
814.704	228.35
814.883	177.15
815.062	218.11
815.24	230.4
815.419	236.54
815.598	158.72
815.776	125.95
815.955	162.81
816.133	123.9
816.312	164.86
816.49	156.67
816.669	193.53
816.847	140.29
817.026	140.29
817.204	201.72
817.383	191.49
817.561	138.24
817.74	271.36
817.918	171.01
818.097	136.19
818.275	185.34
818.453	228.35
818.632	152.57
818.81	125.95
818.988	207.87
819.167	226.3
819.345	195.58
819.523	211.96
819.701	121.85
819.879	187.39
820.058	162.81
820.236	211.96
820.414	152.57
820.592	179.2
820.77	148.48
820.948	64.51
821.127	125.95
821.305	121.85
821.483	158.72
821.661	125.95
821.839	181.25
822.017	136.19
822.195	150.53
822.373	230.4
822.551	125.95
822.729	195.58
822.907	191.49
823.085	226.3
823.262	158.72
823.44	97.28
823.618	-5.12
823.796	175.1
823.974	166.91
824.152	123.9
824.329	191.49
824.507	154.62
824.685	117.76
824.863	156.67
825.04	148.48
825.218	142.33
825.396	109.57
825.574	150.53
825.751	144.38
825.929	168.96
826.107	125.95
826.284	193.53
826.462	228.35
826.639	199.68
826.817	84.99
826.994	80.89
827.172	125.95
827.349	156.67
827.527	156.67
827.704	150.53
827.882	97.28
828.059	130.05
828.237	117.76
828.414	95.23
828.591	134.14
828.769	125.95
828.946	119.81
829.124	113.66
829.301	136.19
829.478	164.86
829.655	162.81
829.833	158.72
830.01	144.38
830.187	197.63
830.364	125.95
830.542	105.47
830.719	164.86
830.896	179.2
831.073	50.18
831.25	209.92
831.427	173.05
831.604	121.85
831.782	125.95
831.959	117.76
832.136	76.8
832.313	97.28
832.49	46.08
832.667	128
832.844	80.89
833.021	115.71
833.198	103.42
833.374	68.61
833.551	125.95
833.728	144.38
833.905	173.05
834.082	37.89
834.259	68.61
834.436	168.96
834.612	68.61
834.789	121.85
834.966	19.46
835.143	168.96
835.319	64.51
835.496	80.89
835.673	132.09
835.85	103.42
836.026	91.13
836.203	117.76
836.38	78.85
836.556	103.42
836.733	111.61
836.909	152.57
837.086	117.76
837.262	9.22
837.439	109.57
837.616	109.57
837.792	128
837.968	97.28
838.145	7.17
838.321	84.99
838.498	44.03
838.674	89.09
838.851	62.46
839.027	76.8
839.203	70.65
839.38	80.89
839.556	111.61
839.732	50.18
839.909	23.55
840.085	148.48
840.261	58.37
840.437	152.57
840.614	119.81
840.79	134.14
840.966	121.85
841.142	125.95
841.318	25.6
841.494	3.07
841.671	87.04
841.847	27.65
842.023	-21.5
842.199	60.42
842.375	203.77
842.551	70.65
842.727	39.94
842.903	48.13
843.079	35.84
843.255	158.72
843.431	105.47
843.607	138.24
843.783	68.61
843.959	68.61
844.134	60.42
844.31	121.85
844.486	62.46
844.662	25.6
844.838	72.7
845.013	125.95
845.189	80.89
845.365	80.89
845.541	89.09
845.716	27.65
845.892	70.65
846.068	41.98
846.244	-21.5
846.419	113.66
846.595	48.13
846.77	84.99
846.946	80.89
847.122	39.94
847.297	27.65
847.473	142.33
847.648	15.36
847.824	117.76
847.999	7.17
848.175	68.61
848.35	68.61
848.526	91.13
848.701	142.33
848.876	76.8
849.052	87.04
849.227	76.8
849.403	70.65
849.578	46.08
849.753	56.32
849.929	70.65
850.104	-25.6
850.279	95.23
850.454	166.91
850.63	64.51
850.805	52.22
850.98	89.09
851.155	121.85
851.33	27.65
851.505	7.17
851.681	130.05
851.856	27.65
852.031	68.61
852.206	89.09
852.381	48.13
852.556	68.61
852.731	-19.46
852.906	3.07
853.081	113.66
853.256	117.76
853.431	5.12
853.606	-7.17
853.781	25.6
853.956	-7.17
854.131	109.57
854.305	68.61
854.48	44.03
854.655	41.98
854.83	56.32
855.005	5.12
855.18	68.61
855.354	11.26
855.529	134.14
855.704	11.26
855.879	21.5
856.053	48.13
856.228	74.75
856.403	-37.89
856.577	76.8
856.752	-105.47
856.926	35.84
857.101	78.85
857.276	5.12
857.45	37.89
857.625	70.65
857.799	37.89
857.974	21.5
858.148	-5.12
858.323	44.03
858.497	-3.07
858.672	-27.65
858.846	-17.41
859.02	62.46
859.195	15.36
859.369	117.76
859.543	60.42
859.718	101.37
859.892	111.61
860.066	58.37
860.241	1.02
860.415	70.65
860.589	-33.79
860.763	54.27
860.938	84.99
861.112	84.99
861.286	25.6
861.46	-19.46
861.634	46.08
861.808	109.57
861.982	11.26
862.157	56.32
862.331	17.41
862.505	54.27
862.679	37.89
862.853	44.03
863.027	19.46
863.201	103.42
863.375	23.55
863.549	62.46
863.722	33.79
863.896	35.84
864.07	72.7
864.244	-9.22
864.418	87.04
864.592	-52.22
864.766	17.41
864.939	48.13
865.113	48.13
865.287	103.42
865.461	-11.26
865.634	-11.26
865.808	50.18
865.982	46.08
866.156	-15.36
866.329	-25.6
866.503	58.37
866.676	48.13
866.85	-1.02
867.024	-3.07
867.197	46.08
867.371	68.61
867.544	-19.46
867.718	-62.46
867.891	109.57
868.065	-48.13
868.238	-76.8
868.412	31.74
868.585	21.5
868.759	-3.07
868.932	44.03
869.105	-17.41
869.279	72.7
869.452	21.5
869.625	76.8
869.799	3.07
869.972	-35.84
870.145	44.03
870.319	3.07
870.492	44.03
870.665	80.89
870.838	-21.5
871.011	23.55
871.185	-5.12
871.358	74.75
871.531	11.26
871.704	25.6
871.877	29.7
872.05	-5.12
872.223	11.26
872.396	-1.02
872.569	56.32
872.742	-31.74
872.915	68.61
873.088	-29.7
873.261	-1.02
873.434	84.99
873.607	62.46
873.78	5.12
873.953	3.07
874.126	84.99
874.299	46.08
874.471	21.5
874.644	-21.5
874.817	25.6
874.99	93.18
875.163	7.17
875.335	37.89
875.508	21.5
875.681	134.14
875.853	-21.5
876.026	19.46
876.199	-5.12
876.371	21.5
876.544	-87.04
876.717	19.46
876.889	87.04
877.062	1.02
877.234	-1.02
877.407	19.46
877.579	-3.07
877.752	50.18
877.924	89.09
878.097	29.7
878.269	50.18
878.442	1.02
878.614	35.84
878.786	27.65
878.959	-9.22
879.131	-3.07
879.303	-70.65
879.476	27.65
879.648	80.89
879.82	23.55
879.993	-39.94
880.165	76.8
880.337	-62.46
880.509	23.55
880.681	-29.7
880.854	-54.27
881.026	13.31
881.198	80.89
881.37	1.02
881.542	68.61
881.714	23.55
881.886	25.6
882.058	11.26
882.23	31.74
882.402	-7.17
882.574	56.32
882.746	82.94
882.918	93.18
883.09	3.07
883.262	-11.26
883.434	11.26
883.606	-76.8
883.778	7.17
883.95	144.38
884.122	-19.46
884.293	97.28
884.465	44.03
884.637	46.08
884.809	-27.65
884.98	-11.26
885.152	17.41
885.324	23.55
885.496	19.46
885.667	23.55
885.839	-33.79
886.011	82.94
886.182	13.31
886.354	70.65
886.525	-35.84
886.697	21.5
886.869	-9.22
887.04	-7.17
887.212	87.04
887.383	5.12
887.555	-13.31
887.726	-17.41
887.897	-48.13
888.069	29.7
888.24	64.51
888.412	-15.36
888.583	5.12
888.754	-35.84
888.926	-37.89
889.097	-52.22
889.268	-13.31
889.44	56.32
889.611	-29.7
889.782	39.94
889.953	-52.22
890.125	11.26
890.296	-60.42
890.467	95.23
890.638	19.46
890.809	-23.55
890.98	-54.27
891.151	-50.18
891.323	72.7
891.494	72.7
891.665	50.18
891.836	25.6
892.007	-37.89
892.178	-48.13
892.349	33.79
892.52	-17.41
892.691	-13.31
892.862	21.5
893.032	-87.04
893.203	-11.26
893.374	-62.46
893.545	97.28
893.716	54.27
893.887	113.66
894.057	-17.41
894.228	11.26
894.399	-1.02
894.57	5.12
894.74	-60.42
894.911	-5.12
895.082	29.7
895.253	-5.12
895.423	29.7
895.594	54.27
895.764	41.98
895.935	-27.65
896.106	29.7
896.276	19.46
896.447	-5.12
896.617	-50.18
896.788	-93.18
896.958	-21.5
897.129	-64.51
897.299	-3.07
897.47	17.41
897.64	3.07
897.81	-7.17
897.981	35.84
898.151	-11.26
898.322	5.12
898.492	11.26
898.662	5.12
898.832	29.7
899.003	70.65
899.173	7.17
899.343	-80.89
899.513	50.18
