Data from USB4F104151__37__13-05-06-246.txt Node

Date: Fri Mar 14 13:05:06 EDT 2025
User: louis
Spectrometer: USB4F10415
Trigger mode: 4
Integration Time (sec): 4.000000E-2
Scans to average: 1
Electric dark correction enabled: true
Nonlinearity correction enabled: false
Boxcar width: 0
XAxis mode: Wavelengths
Number of Pixels in Spectrum: 3648
>>>>>Begin Spectral Data<<<<<
178.204	-147.8
178.424	-147.8
178.644	-147.8
178.864	-172.37
179.084	-192.85
179.304	-22.87
179.524	-78.16
179.744	3.75
179.964	61.1
180.184	11.95
180.404	1.71
180.624	3.75
180.844	7.85
181.064	1.71
181.283	61.1
181.503	-16.73
181.723	-35.16
181.943	-49.49
182.163	75.43
182.383	-65.88
182.602	57
182.822	95.91
183.042	26.28
183.262	-41.3
183.482	-8.53
183.701	-6.49
183.921	18.09
184.141	-65.88
184.361	75.43
184.58	18.09
184.8	57
185.02	32.43
185.239	79.53
185.459	1.71
185.679	116.39
185.898	-24.92
186.118	48.81
186.338	40.62
186.557	97.96
186.777	-24.92
186.997	73.39
187.216	-6.49
187.436	63.15
187.655	59.05
187.875	104.11
188.095	54.95
188.314	220.84
188.534	52.91
188.753	18.09
188.973	26.28
189.192	65.19
189.412	24.23
189.631	-16.73
189.851	28.33
190.07	44.71
190.29	-57.68
190.509	42.67
190.729	-39.25
190.948	50.86
191.168	214.7
191.387	52.91
191.607	52.91
191.826	61.1
192.045	26.28
192.265	32.43
192.484	34.47
192.704	38.57
192.923	-0.34
193.142	210.6
193.362	65.19
193.581	67.24
193.8	28.33
194.02	83.63
194.239	38.57
194.458	22.19
194.678	1.71
194.897	93.87
195.116	44.71
195.335	69.29
195.555	122.54
195.774	81.58
195.993	3.75
196.212	11.95
196.432	89.77
196.651	48.81
196.87	11.95
197.089	138.92
197.308	52.91
197.528	-39.25
197.747	-33.11
197.966	22.19
198.185	34.47
198.404	-39.25
198.623	54.95
198.842	34.47
199.062	57
199.281	-10.58
199.5	28.33
199.719	11.95
199.938	40.62
200.157	77.48
200.376	81.58
200.595	48.81
200.814	32.43
201.033	102.06
201.252	48.81
201.471	9.9
201.69	108.2
201.909	48.81
202.128	-37.2
202.347	16.04
202.566	65.19
202.785	77.48
203.004	-63.83
203.223	61.1
203.442	24.23
203.661	97.96
203.879	-16.73
204.098	93.87
204.317	-35.16
204.536	89.77
204.755	30.38
204.974	28.33
205.193	46.76
205.411	124.58
205.63	3.75
205.849	65.19
206.068	-31.06
206.287	13.99
206.505	3.75
206.724	36.52
206.943	50.86
207.162	24.23
207.381	-61.78
207.599	24.23
207.818	40.62
208.037	65.19
208.255	71.34
208.474	-18.77
208.693	81.58
208.911	73.39
209.13	87.72
209.349	95.91
209.567	110.25
209.786	124.58
210.005	106.15
210.223	42.67
210.442	1.71
210.661	44.71
210.879	-16.73
211.098	9.9
211.316	18.09
211.535	26.28
211.753	52.91
211.972	-6.49
212.191	-24.92
212.409	50.86
212.628	-8.53
212.846	65.19
213.065	-2.39
213.283	1.71
213.502	20.14
213.72	-18.77
213.938	-33.11
214.157	-14.68
214.375	-10.58
214.594	-0.34
214.812	83.63
215.031	85.67
215.249	28.33
215.467	97.96
215.686	-57.68
215.904	118.44
216.122	-37.2
216.341	26.28
216.559	-2.39
216.778	83.63
216.996	97.96
217.214	-0.34
217.432	3.75
217.651	28.33
217.869	38.57
218.087	69.29
218.306	83.63
218.524	-31.06
218.742	-6.49
218.96	44.71
219.179	-8.53
219.397	40.62
219.615	104.11
219.833	48.81
220.051	-8.53
220.27	126.63
220.488	93.87
220.706	85.67
220.924	-69.97
221.142	50.86
221.36	-12.63
221.578	-2.39
221.796	65.19
222.015	67.24
222.233	93.87
222.451	153.26
222.669	-22.87
222.887	-39.25
223.105	36.52
223.323	108.2
223.541	-65.88
223.759	30.38
223.977	24.23
224.195	48.81
224.413	110.25
224.631	9.9
224.849	13.99
225.067	132.78
225.285	48.81
225.503	30.38
225.721	1.71
225.939	18.09
226.157	36.52
226.375	204.46
226.592	-18.77
226.81	1.71
227.028	65.19
227.246	87.72
227.464	85.67
227.682	134.82
227.9	67.24
228.117	65.19
228.335	32.43
228.553	73.39
228.771	40.62
228.989	-2.39
229.206	89.77
229.424	-63.83
229.642	32.43
229.86	-16.73
230.077	34.47
230.295	36.52
230.513	61.1
230.731	-8.53
230.948	132.78
231.166	77.48
231.384	46.76
231.601	-47.44
231.819	132.78
232.037	11.95
232.254	-20.82
232.472	-4.44
232.689	57
232.907	106.15
233.125	32.43
233.342	-8.53
233.56	-20.82
233.777	9.9
233.995	71.34
234.213	138.92
234.43	46.76
234.648	-0.34
234.865	24.23
235.083	38.57
235.3	73.39
235.518	-16.73
235.735	85.67
235.953	9.9
236.17	59.05
236.388	-0.34
236.605	44.71
236.822	134.82
237.04	48.81
237.257	73.39
237.475	44.71
237.692	87.72
237.909	28.33
238.127	-0.34
238.344	106.15
238.562	-16.73
238.779	-12.63
238.996	42.67
239.214	54.95
239.431	36.52
239.648	36.52
239.865	18.09
240.083	52.91
240.3	46.76
240.517	48.81
240.735	42.67
240.952	91.82
241.169	104.11
241.386	54.95
241.603	50.86
241.821	65.19
242.038	32.43
242.255	32.43
242.472	-16.73
242.689	32.43
242.907	110.25
243.124	71.34
243.341	42.67
243.558	34.47
243.775	-10.58
243.992	-8.53
244.209	-18.77
244.426	104.11
244.643	100.01
244.86	69.29
245.078	106.15
245.295	59.05
245.512	32.43
245.729	-8.53
245.946	-10.58
246.163	48.81
246.38	-22.87
246.597	65.19
246.814	42.67
247.031	48.81
247.248	34.47
247.464	22.19
247.681	-31.06
247.898	13.99
248.115	65.19
248.332	1.71
248.549	106.15
248.766	124.58
248.983	91.82
249.2	7.85
249.417	97.96
249.633	-0.34
249.85	61.1
250.067	75.43
250.284	30.38
250.501	24.23
250.717	-41.3
250.934	26.28
251.151	18.09
251.368	-14.68
251.585	40.62
251.801	-8.53
252.018	20.14
252.235	122.54
252.451	-33.11
252.668	36.52
252.885	104.11
253.102	54.95
253.318	52.91
253.535	32.43
253.752	50.86
253.968	1.71
254.185	-31.06
254.401	3.75
254.618	65.19
254.835	-0.34
255.051	97.96
255.268	75.43
255.484	54.95
255.701	-0.34
255.917	34.47
256.134	-4.44
256.351	38.57
256.567	9.9
256.784	42.67
257	-37.2
257.217	155.3
257.433	-49.49
257.65	61.1
257.866	73.39
258.082	22.19
258.299	30.38
258.515	89.77
258.732	-0.34
258.948	38.57
259.165	22.19
259.381	-2.39
259.597	13.99
259.814	71.34
260.03	16.04
260.246	-20.82
260.463	95.91
260.679	97.96
260.895	3.75
261.112	110.25
261.328	95.91
261.544	-26.96
261.761	69.29
261.977	26.28
262.193	1.71
262.409	97.96
262.626	54.95
262.842	11.95
263.058	65.19
263.274	48.81
263.49	108.2
263.707	36.52
263.923	59.05
264.139	40.62
264.355	73.39
264.571	118.44
264.787	48.81
265.004	40.62
265.22	40.62
265.436	-0.34
265.652	18.09
265.868	50.86
266.084	16.04
266.3	30.38
266.516	-24.92
266.732	65.19
266.948	28.33
267.164	40.62
267.38	3.75
267.596	118.44
267.812	118.44
268.028	-22.87
268.244	38.57
268.46	-16.73
268.676	54.95
268.892	5.8
269.108	9.9
269.324	-0.34
269.54	11.95
269.756	59.05
269.972	-35.16
270.188	40.62
270.403	-39.25
270.619	11.95
270.835	24.23
271.051	42.67
271.267	11.95
271.483	-8.53
271.698	83.63
271.914	-2.39
272.13	9.9
272.346	11.95
272.562	95.91
272.777	57
272.993	-53.59
273.209	54.95
273.425	9.9
273.64	-0.34
273.856	20.14
274.072	26.28
274.287	-78.16
274.503	42.67
274.719	75.43
274.934	13.99
275.15	-49.49
275.366	28.33
275.581	-31.06
275.797	110.25
276.012	100.01
276.228	26.28
276.444	81.58
276.659	61.1
276.875	7.85
277.09	114.34
277.306	81.58
277.521	116.39
277.737	77.48
277.952	87.72
278.168	36.52
278.383	24.23
278.599	77.48
278.814	20.14
279.03	-18.77
279.245	50.86
279.461	16.04
279.676	57
279.892	67.24
280.107	42.67
280.322	-0.34
280.538	54.95
280.753	-4.44
280.969	30.38
281.184	65.19
281.399	161.45
281.615	30.38
281.83	91.82
282.045	40.62
282.26	32.43
282.476	22.19
282.691	77.48
282.906	42.67
283.122	44.71
283.337	16.04
283.552	106.15
283.767	42.67
283.983	-6.49
284.198	114.34
284.413	59.05
284.628	-0.34
284.843	1.71
285.058	-6.49
285.274	32.43
285.489	24.23
285.704	181.93
285.919	30.38
286.134	22.19
286.349	26.28
286.564	24.23
286.779	75.43
286.995	42.67
287.21	30.38
287.425	106.15
287.64	-16.73
287.855	54.95
288.07	-26.96
288.285	36.52
288.5	36.52
288.715	61.1
288.93	-53.59
289.145	22.19
289.36	75.43
289.575	100.01
289.79	-0.34
290.004	-65.88
290.219	46.76
290.434	81.58
290.649	-14.68
290.864	-18.77
291.079	16.04
291.294	59.05
291.509	-8.53
291.724	-0.34
291.938	9.9
292.153	30.38
292.368	1.71
292.583	24.23
292.798	63.15
293.012	67.24
293.227	7.85
293.442	-16.73
293.657	71.34
293.871	138.92
294.086	32.43
294.301	59.05
294.516	65.19
294.73	36.52
294.945	61.1
295.16	57
295.374	24.23
295.589	83.63
295.804	-57.68
296.018	83.63
296.233	143.02
296.447	83.63
296.662	-10.58
296.877	85.67
297.091	79.53
297.306	32.43
297.52	16.04
297.735	67.24
297.949	100.01
298.164	110.25
298.378	9.9
298.593	-61.78
298.807	18.09
299.022	-10.58
299.236	57
299.451	-14.68
299.665	48.81
299.88	13.99
300.094	85.67
300.309	87.72
300.523	75.43
300.737	110.25
300.952	57
301.166	67.24
301.381	-26.96
301.595	138.92
301.809	36.52
302.024	65.19
302.238	22.19
302.452	97.96
302.667	128.68
302.881	71.34
303.095	-29.01
303.309	32.43
303.524	40.62
303.738	-29.01
303.952	20.14
304.166	50.86
304.381	-123.22
304.595	26.28
304.809	65.19
305.023	40.62
305.237	59.05
305.452	7.85
305.666	34.47
305.88	65.19
306.094	3.75
306.308	-0.34
306.522	140.97
306.736	69.29
306.95	20.14
307.164	40.62
307.379	24.23
307.593	97.96
307.807	89.77
308.021	130.73
308.235	57
308.449	-22.87
308.663	24.23
308.877	159.4
309.091	136.87
309.305	48.81
309.519	-24.92
309.733	50.86
309.947	1.71
310.161	159.4
310.374	-2.39
310.588	102.06
310.802	65.19
311.016	40.62
311.23	73.39
311.444	-16.73
311.658	132.78
311.872	67.24
312.085	20.14
312.299	124.58
312.513	32.43
312.727	24.23
312.941	18.09
313.154	93.87
313.368	28.33
313.582	73.39
313.796	46.76
314.009	36.52
314.223	153.26
314.437	-16.73
314.651	54.95
314.864	81.58
315.078	44.71
315.292	-20.82
315.505	52.91
315.719	28.33
315.933	65.19
316.146	40.62
316.36	18.09
316.573	130.73
316.787	75.43
317.001	71.34
317.214	57
317.428	18.09
317.641	65.19
317.855	61.1
318.068	57
318.282	81.58
318.495	75.43
318.709	13.99
318.922	73.39
319.136	73.39
319.349	126.63
319.563	36.52
319.776	114.34
319.99	18.09
320.203	130.73
320.417	-8.53
320.63	11.95
320.843	128.68
321.057	61.1
321.27	63.15
321.483	57
321.697	85.67
321.91	-4.44
322.124	95.91
322.337	65.19
322.55	32.43
322.763	-67.92
322.977	77.48
323.19	50.86
323.403	20.14
323.617	13.99
323.83	95.91
324.043	77.48
324.256	69.29
324.469	52.91
324.683	40.62
324.896	-14.68
325.109	18.09
325.322	-74.07
325.535	100.01
325.748	24.23
325.962	13.99
326.175	-31.06
326.388	143.02
326.601	157.35
326.814	5.8
327.027	69.29
327.24	83.63
327.453	-6.49
327.666	13.99
327.879	71.34
328.092	42.67
328.305	116.39
328.518	5.8
328.731	-26.96
328.944	16.04
329.157	69.29
329.37	100.01
329.583	91.82
329.796	91.82
330.009	102.06
330.222	59.05
330.435	85.67
330.648	81.58
330.861	40.62
331.073	-4.44
331.286	81.58
331.499	40.62
331.712	73.39
331.925	67.24
332.138	32.43
332.35	138.92
332.563	57
332.776	77.48
332.989	-6.49
333.202	9.9
333.414	46.76
333.627	-51.54
333.84	112.3
334.053	69.29
334.265	13.99
334.478	73.39
334.691	11.95
334.903	-10.58
335.116	7.85
335.329	81.58
335.541	67.24
335.754	85.67
335.966	36.52
336.179	85.67
336.392	128.68
336.604	-24.92
336.817	120.49
337.029	46.76
337.242	61.1
337.454	69.29
337.667	44.71
337.88	116.39
338.092	65.19
338.305	1.71
338.517	59.05
338.729	97.96
338.942	61.1
339.154	75.43
339.367	36.52
339.579	32.43
339.792	26.28
340.004	24.23
340.217	-67.92
340.429	77.48
340.641	-4.44
340.854	-65.88
341.066	83.63
341.278	-8.53
341.491	34.47
341.703	36.52
341.915	-63.83
342.128	1.71
342.34	54.95
342.552	-33.11
342.764	42.67
342.977	36.52
343.189	36.52
343.401	1.71
343.613	61.1
343.826	73.39
344.038	7.85
344.25	32.43
344.462	-22.87
344.674	67.24
344.886	34.47
345.099	52.91
345.311	89.77
345.523	89.77
345.735	-10.58
345.947	102.06
346.159	30.38
346.371	71.34
346.583	-14.68
346.795	89.77
347.007	-43.35
347.219	54.95
347.431	30.38
347.643	71.34
347.855	48.81
348.067	159.4
348.279	-6.49
348.491	5.8
348.703	65.19
348.915	-12.63
349.127	26.28
349.339	67.24
349.551	28.33
349.763	7.85
349.975	91.82
350.187	44.71
350.399	34.47
350.61	-18.77
350.822	24.23
351.034	95.91
351.246	36.52
351.458	3.75
351.669	71.34
351.881	102.06
352.093	-0.34
352.305	145.06
352.517	44.71
352.728	91.82
352.94	50.86
353.152	89.77
353.363	9.9
353.575	36.52
353.787	50.86
353.999	34.47
354.21	65.19
354.422	83.63
354.633	73.39
354.845	-35.16
355.057	20.14
355.268	95.91
355.48	3.75
355.692	-16.73
355.903	36.52
356.115	34.47
356.326	36.52
356.538	97.96
356.749	7.85
356.961	157.35
357.172	28.33
357.384	-37.2
357.595	93.87
357.807	32.43
358.018	7.85
358.23	36.52
358.441	145.06
358.653	30.38
358.864	46.76
359.075	44.71
359.287	93.87
359.498	100.01
359.709	30.38
359.921	-10.58
360.132	97.96
360.344	95.91
360.555	26.28
360.766	24.23
360.977	85.67
361.189	-20.82
361.4	9.9
361.611	91.82
361.823	126.63
362.034	54.95
362.245	24.23
362.456	36.52
362.667	85.67
362.879	81.58
363.09	73.39
363.301	61.1
363.512	28.33
363.723	110.25
363.935	-29.01
364.146	77.48
364.357	-8.53
364.568	65.19
364.779	-18.77
364.99	81.58
365.201	73.39
365.412	50.86
365.623	-24.92
365.834	61.1
366.045	69.29
366.256	108.2
366.467	54.95
366.678	69.29
366.889	81.58
367.1	26.28
367.311	61.1
367.522	46.76
367.733	-12.63
367.944	69.29
368.155	30.38
368.366	122.54
368.577	108.2
368.788	44.71
368.999	9.9
369.209	28.33
369.42	91.82
369.631	159.4
369.842	75.43
370.053	-2.39
370.264	24.23
370.474	42.67
370.685	71.34
370.896	48.81
371.107	108.2
371.317	110.25
371.528	81.58
371.739	61.1
371.95	81.58
372.16	100.01
372.371	7.85
372.582	87.72
372.792	102.06
373.003	114.34
373.214	73.39
373.424	42.67
373.635	-14.68
373.846	118.44
374.056	-45.4
374.267	52.91
374.477	65.19
374.688	-14.68
374.898	54.95
375.109	91.82
375.319	52.91
375.53	48.81
375.74	48.81
375.951	5.8
376.161	50.86
376.372	112.3
376.582	54.95
376.793	40.62
377.003	-8.53
377.214	87.72
377.424	32.43
377.635	112.3
377.845	16.04
378.055	124.58
378.266	48.81
378.476	11.95
378.686	100.01
378.897	63.15
379.107	67.24
379.317	48.81
379.528	-6.49
379.738	140.97
379.948	-10.58
380.158	-37.2
380.369	73.39
380.579	-8.53
380.789	54.95
380.999	114.34
381.21	57
381.42	153.26
381.63	-4.44
381.84	108.2
382.05	95.91
382.261	106.15
382.471	20.14
382.681	32.43
382.891	126.63
383.101	122.54
383.311	91.82
383.521	34.47
383.731	50.86
383.941	122.54
384.151	136.87
384.361	-0.34
384.571	97.96
384.781	57
384.991	171.69
385.201	67.24
385.411	79.53
385.621	40.62
385.831	89.77
386.041	132.78
386.251	97.96
386.461	198.31
386.671	63.15
386.881	79.53
387.091	83.63
387.301	67.24
387.511	114.34
387.72	75.43
387.93	-0.34
388.14	-29.01
388.35	59.05
388.56	85.67
388.769	65.19
388.979	155.3
389.189	18.09
389.399	40.62
389.609	169.64
389.818	69.29
390.028	32.43
390.238	134.82
390.447	85.67
390.657	71.34
390.867	57
391.076	81.58
391.286	38.57
391.496	89.77
391.705	3.75
391.915	165.54
392.125	34.47
392.334	83.63
392.544	36.52
392.753	102.06
392.963	38.57
393.172	108.2
393.382	44.71
393.591	65.19
393.801	24.23
394.01	132.78
394.22	130.73
394.429	91.82
394.639	97.96
394.848	57
395.058	95.91
395.267	171.69
395.477	42.67
395.686	28.33
395.895	112.3
396.105	161.45
396.314	114.34
396.524	186.02
396.733	32.43
396.942	42.67
397.152	149.16
397.361	130.73
397.57	128.68
397.78	116.39
397.989	128.68
398.198	97.96
398.407	171.69
398.617	87.72
398.826	89.77
399.035	40.62
399.244	147.11
399.453	138.92
399.663	75.43
399.872	198.31
400.081	32.43
400.29	157.35
400.499	93.87
400.708	190.12
400.917	130.73
401.127	40.62
401.336	120.49
401.545	190.12
401.754	108.2
401.963	120.49
402.172	89.77
402.381	140.97
402.59	124.58
402.799	149.16
403.008	116.39
403.217	161.45
403.426	59.05
403.635	81.58
403.844	130.73
404.053	169.64
404.262	165.54
404.471	163.5
404.68	114.34
404.888	143.02
405.097	102.06
405.306	218.79
405.515	233.13
405.724	212.65
405.933	198.31
406.142	245.41
406.35	245.41
406.559	222.89
406.768	220.84
406.977	218.79
407.185	175.78
407.394	224.94
407.603	190.12
407.812	321.19
408.02	280.23
408.229	245.41
408.438	265.89
408.646	241.32
408.855	286.37
409.064	261.8
409.272	282.28
409.481	288.42
409.69	302.76
409.898	267.94
410.107	306.85
410.315	310.95
410.524	343.72
410.733	327.33
410.941	351.91
411.15	362.15
411.358	439.97
411.567	550.56
411.775	476.84
411.984	474.79
412.192	425.64
412.401	462.5
412.609	532.13
412.818	525.99
413.026	478.88
413.234	528.03
413.443	571.04
413.651	511.65
413.86	632.48
414.068	712.35
414.276	728.74
414.485	704.16
414.693	704.16
414.901	759.46
415.11	796.32
415.318	685.73
415.526	804.51
415.734	716.45
415.943	886.43
416.151	966.3
416.359	865.95
416.567	880.29
416.776	984.73
416.984	992.92
417.192	1126.04
417.4	1017.5
417.608	1046.17
417.817	1101.47
418.025	1171.1
418.233	1408.66
418.441	1197.72
418.649	1238.68
418.857	1390.23
419.065	1459.86
419.273	1386.13
419.481	1552.02
419.689	1605.27
419.897	1613.46
420.105	1609.36
420.313	1691.28
420.521	1687.18
420.729	1762.96
420.937	1810.06
421.145	1885.84
421.353	2039.44
421.561	2047.63
421.769	2152.07
421.977	2174.6
422.185	2197.13
422.393	2340.49
422.601	2651.78
422.809	2498.18
423.017	2354.82
423.224	2500.23
423.432	2692.74
423.64	2670.21
423.848	2924.16
424.056	2866.81
424.263	3157.63
424.471	3038.84
424.679	3192.44
424.887	3309.18
425.094	3526.26
425.302	3495.54
425.51	3505.78
425.718	3757.68
425.925	3778.16
426.133	3931.76
426.341	4107.88
426.548	4345.45
426.756	4284.01
426.964	4488.81
427.171	4550.25
427.379	4648.55
427.586	4910.69
427.794	4953.7
428.001	5164.64
428.209	5387.86
428.417	5250.65
428.624	5588.57
428.832	5676.63
429.039	5641.81
429.247	5652.05
429.454	6186.57
429.662	6688.32
429.869	6272.59
430.076	6510.15
430.284	6450.76
430.491	6870.59
430.699	7122.49
430.906	6993.47
431.114	7173.69
431.321	7517.75
431.528	7609.91
431.736	8046.13
431.943	8375.85
432.15	8136.24
432.358	8353.32
432.565	8934.95
432.772	8818.21
432.979	9156.13
433.187	9352.73
433.394	9436.7
433.601	10200.59
433.808	10323.47
434.016	10081.81
434.223	10499.59
434.43	10956.29
434.637	10921.48
434.844	11488.76
435.052	11654.65
435.259	11773.43
435.466	11914.74
435.673	11808.25
435.88	12506.6
436.087	13188.58
436.294	13039.08
436.501	13037.03
436.708	13313.5
436.915	13747.67
437.122	13948.37
437.329	14050.77
437.537	14722.51
437.743	14785.99
437.95	14732.75
438.157	15449.53
438.364	15934.9
438.571	15936.95
438.778	16199.09
438.985	17720.73
439.192	16940.46
439.399	17292.71
439.606	16934.31
439.813	18052.5
440.02	19060.1
440.227	18607.5
440.433	18570.64
440.64	19299.72
440.847	18941.32
441.054	19672.45
441.261	20790.64
441.467	20389.24
441.674	20927.85
441.881	21628.26
442.088	21710.18
442.294	21435.75
442.501	21947.74
442.708	22510.93
442.914	23510.34
443.121	24241.46
443.328	23700.8
443.534	25404.71
443.741	24425.78
443.948	24399.16
444.154	25826.59
444.361	26066.2
444.568	26391.83
444.774	26285.34
444.981	26373.4
445.187	27305.23
445.394	28695.8
445.6	28181.76
445.807	30713.05
446.013	29406.44
446.22	30153.95
446.426	30717.14
446.633	31347.92
446.839	32566.46
447.046	31280.33
447.252	33139.89
447.459	32867.51
447.665	32801.97
447.871	34499.74
448.078	35554.44
448.284	34528.41
448.491	34987.16
448.697	36478.08
448.903	37131.38
449.11	37364.85
449.316	36691.07
449.522	37301.36
449.728	38417.5
449.935	38732.89
450.141	38456.42
450.347	39593.04
450.553	38317.15
450.76	38997.08
450.966	40121.41
451.172	39650.38
451.378	40766.52
451.584	39980.1
451.791	40862.78
451.997	41026.62
452.203	41483.31
452.409	41380.92
452.615	41479.22
452.821	40189
453.027	39494.74
453.233	41481.27
453.44	39601.23
453.646	40281.16
453.852	40434.75
454.058	41376.82
454.264	39873.61
454.47	40475.71
454.676	39750.73
454.882	41059.38
455.088	37616.75
455.294	38032.49
455.5	38784.09
455.705	39367.76
455.911	37870.7
456.117	36727.93
456.323	36455.55
456.529	34512.03
456.735	35859.59
456.941	35327.12
457.147	34614.43
457.352	33442.99
457.558	33086.64
457.764	33135.79
457.97	32658.62
458.176	31837.38
458.381	31767.75
458.587	30481.63
458.793	30495.96
458.999	28843.25
459.204	30831.83
459.41	29934.82
459.616	27612.42
459.821	27897.09
460.027	27852.03
460.233	27417.86
460.438	26131.74
460.644	26397.98
460.85	25111.85
461.055	24548.66
461.261	24735.03
461.466	22562.13
461.672	22164.82
461.878	23524.68
462.083	22070.62
462.289	21767.52
462.494	21521.76
462.7	20561.26
462.905	20014.46
463.111	20776.3
463.316	20856.17
463.522	20118.9
463.727	20383.09
463.932	20440.43
464.138	19953.02
464.343	20049.27
464.549	19402.11
464.754	20018.55
464.959	19821.95
465.165	19873.15
465.37	19191.17
465.575	18587.02
465.781	19158.41
465.986	19221.89
466.191	18900.36
466.397	18386.32
466.602	17577.37
466.807	18333.07
467.012	18072.98
467.218	17825.18
467.423	17730.97
467.628	17638.81
467.833	18759.05
468.038	18126.23
468.244	17345.95
468.449	18222.48
468.654	17501.6
468.859	17690.01
469.064	17345.95
469.269	16674.22
469.474	16924.07
469.679	17094.05
469.885	16848.3
470.09	16831.91
470.295	17028.52
470.5	16270.77
470.705	16375.22
470.91	16020.92
471.115	16000.44
471.32	16203.19
471.525	16004.53
471.73	15640
471.935	15697.34
472.139	15076.8
472.344	15246.79
472.549	15214.02
472.754	15015.37
472.959	14675.4
473.164	14413.26
473.369	14095.83
473.574	14869.96
473.778	14599.63
473.983	14419.41
474.188	14396.88
474.393	13833.69
474.598	13655.51
474.802	13749.72
475.007	13671.9
475.212	13581.79
475.417	13366.75
475.621	13084.13
475.826	13245.92
476.031	12928.49
476.235	12494.32
476.44	12832.23
476.645	12565.99
476.849	12449.26
477.054	12353.01
477.259	12475.88
477.463	12142.07
477.668	12017.14
477.872	12223.98
478.077	11816.44
478.282	11609.59
478.486	11550.2
478.691	11527.67
478.895	11492.86
479.1	11464.19
479.304	11378.17
479.509	11191.81
479.713	11374.08
479.918	10995.2
480.122	10743.3
480.326	11083.27
480.531	11091.46
480.735	10886.66
480.94	10597.9
481.144	11105.79
481.348	10563.08
481.553	10688.01
481.757	10323.47
481.961	10698.25
482.166	10776.07
482.37	10763.78
482.574	10622.47
482.778	10515.98
482.983	10714.63
483.187	10546.7
483.391	10575.37
483.595	10599.94
483.8	10176.02
484.004	10581.51
484.208	10454.54
484.412	10356.24
484.616	10690.06
484.821	10509.83
485.025	10282.51
485.229	10415.63
485.433	10284.56
485.637	10520.07
485.841	10376.72
486.045	10370.57
486.249	10618.38
486.453	10227.21
486.657	10372.62
486.861	10595.85
487.065	10264.08
487.269	10561.03
487.473	10264.08
487.677	10610.18
487.881	10618.38
488.085	10556.94
488.289	10610.18
488.493	10401.29
488.697	10493.45
488.901	10374.67
489.105	10655.24
489.309	10628.62
489.512	10468.87
489.716	10735.11
489.92	10745.35
490.124	10583.56
490.328	10765.83
490.531	10755.59
490.735	10733.06
490.939	10880.52
491.143	10694.15
491.346	10737.16
491.55	10847.75
491.754	10952.2
491.958	11224.58
492.161	11058.69
492.365	11189.76
492.569	11077.12
492.772	10935.81
492.976	11232.77
493.18	11077.12
493.383	11519.48
493.587	11279.87
493.79	11478.52
493.994	11230.72
494.197	11374.08
494.401	11707.9
494.605	11535.87
494.808	11908.6
495.012	11847.16
495.215	11875.83
495.419	11941.36
495.622	11755
495.825	12148.21
496.029	12082.67
496.232	12561.9
496.436	12133.87
496.639	12637.67
496.843	12686.83
497.046	13024.74
497.249	12908.01
497.453	13030.88
497.656	13223.39
497.859	13170.15
498.063	13463.01
498.266	13657.56
498.469	13647.32
498.673	13622.75
498.876	13872.6
499.079	14063.06
499.282	13966.81
499.485	14433.74
499.689	14673.35
499.892	14560.72
500.095	14630.35
500.298	15005.13
500.501	14892.49
500.705	15220.16
500.908	15486.4
501.111	15840.7
501.314	15812.03
501.517	15975.86
501.72	16182.71
501.923	15934.9
502.126	16512.43
502.329	16625.07
502.532	16809.39
502.735	17073.57
502.938	17108.39
503.141	17094.05
503.344	17499.55
503.547	17679.77
503.75	18046.36
503.953	18474.38
504.156	18072.98
504.359	18374.03
504.562	18437.52
504.765	18789.77
504.968	19281.28
505.17	19348.87
505.373	19678.59
505.576	20116.86
505.779	19832.19
505.982	19918.2
506.185	20079.99
506.387	20415.86
506.59	20706.67
506.793	20893.04
506.996	21060.97
507.198	21570.91
507.401	21548.39
507.604	21765.47
507.807	22218.07
508.009	22357.33
508.212	22623.57
508.415	22572.37
508.617	22963.53
508.82	23072.07
509.022	22814.03
509.225	23661.89
509.428	23854.4
509.63	23780.67
509.833	23860.54
510.035	24634.67
510.238	24321.34
510.44	24632.63
510.643	25128.24
510.845	25460.01
511.048	25230.63
511.25	25554.21
511.453	25857.31
511.655	26637.59
511.858	26551.57
512.06	26797.33
512.262	27057.42
512.465	26930.45
512.667	27604.23
512.87	27520.26
513.072	27481.35
513.274	28392.7
513.477	28536.06
513.679	28777.72
513.881	28988.66
514.084	29396.2
514.286	29203.69
514.488	29781.22
514.69	30299.36
514.893	30479.58
515.095	30930.13
515.297	31153.36
515.499	30981.33
515.701	31577.29
515.904	31870.15
516.106	31976.64
516.308	31876.29
516.51	32427.2
516.712	32806.07
516.914	32937.14
517.116	33703.08
517.318	33516.72
517.52	33592.49
517.722	34182.31
517.925	34364.57
518.127	34725.02
518.329	35116.18
518.531	34962.58
518.733	35171.47
518.935	35710.09
519.136	36048
519.338	36109.44
519.54	36613.24
519.742	37354.61
519.944	36914.3
520.146	37289.07
520.348	37905.51
520.55	38048.87
520.752	38380.64
520.954	39007.32
521.155	38585.44
521.357	39306.32
521.559	39498.83
521.761	40160.33
521.963	40244.29
522.164	40176.71
522.366	40401.99
522.568	40721.47
522.77	41092.15
522.971	41219.13
523.173	41153.59
523.375	42028.07
523.576	41729.07
523.778	41917.48
523.98	42644.51
524.181	42875.93
524.383	43273.24
524.584	43263
524.786	43318.29
524.988	43023.39
525.189	43719.7
525.391	43990.03
525.592	44420.1
525.794	44307.46
525.995	44260.36
526.197	44712.96
526.398	44506.12
526.6	45296.63
526.801	45143.03
527.003	45415.41
527.204	45665.27
527.406	45761.52
527.607	45820.91
527.808	46302.18
528.01	45415.41
528.211	46339.05
528.412	47012.83
528.614	46613.48
528.815	46586.85
529.016	47326.17
529.218	46785.5
529.419	46961.63
529.62	47375.32
529.822	47211.48
530.023	47350.74
530.224	47406.04
530.425	47594.45
530.626	47084.51
530.828	47264.73
531.029	48311.24
531.23	47641.56
531.431	47885.26
531.632	47963.09
531.833	48022.48
532.035	47961.04
532.236	47653.84
532.437	48407.5
532.638	48257.99
532.839	48321.48
533.04	48659.4
533.241	48034.77
533.442	49220.54
533.643	48376.78
533.844	48726.98
534.045	48370.63
534.246	48114.64
534.447	48798.66
534.648	48694.21
534.849	48722.88
535.05	48761.79
535.251	48712.64
535.451	49157.05
535.652	49513.4
535.853	48866.24
536.054	49171.39
536.255	49011.65
536.456	48663.49
536.657	49263.55
536.857	48903.1
537.058	48819.14
537.259	49331.13
537.46	48729.03
537.66	48688.07
537.861	48931.78
538.062	48933.82
538.263	49081.28
538.463	48352.2
538.664	48700.36
538.865	49044.41
539.065	49023.93
539.266	48735.17
539.466	49288.12
539.667	48092.11
539.868	49630.13
540.068	48819.14
540.269	48638.92
540.469	48864.19
540.67	48649.16
540.87	48778.18
541.071	48665.54
541.271	48968.64
541.472	48606.15
541.672	48737.22
541.873	48874.43
542.073	48243.66
542.274	48956.35
542.474	48774.08
542.675	48266.19
542.875	49200.06
543.075	48532.42
543.276	48085.96
543.476	48899.01
543.676	48384.97
543.877	48649.16
544.077	48538.57
544.277	48241.61
544.478	48747.46
544.678	48786.37
544.878	48647.11
545.078	48280.52
545.279	48151.5
545.479	48356.3
545.679	48751.55
545.879	49255.36
546.079	48751.55
546.28	48389.06
546.48	47940.56
546.68	48600.01
546.88	48499.65
547.08	48419.78
547.28	48270.28
547.48	48214.99
547.68	48493.51
547.88	48278.47
548.081	48301
548.281	48194.51
548.481	48171.98
548.681	48270.28
548.881	48008.14
549.081	48180.17
549.28	48434.12
549.48	48503.75
549.68	48032.72
549.88	49030.08
550.08	47897.55
550.28	48401.35
550.48	48047.05
550.68	48710.6
550.88	48004.05
551.08	47993.81
551.279	48221.13
551.479	47705.04
551.679	48239.56
551.879	48075.73
552.079	48200.65
552.278	47690.71
552.478	48294.86
552.678	47746
552.878	47985.61
553.077	47686.61
553.277	47940.56
553.477	48430.02
553.676	47850.45
553.876	48214.99
554.076	47860.69
554.275	47494.1
554.475	47285.21
554.674	47948.75
554.874	47393.75
555.074	47778.77
555.273	47508.44
555.473	47932.37
555.672	47322.07
555.872	47346.65
556.071	47690.71
556.271	47739.86
556.47	47049.69
556.67	47131.61
556.869	47084.51
557.068	47262.68
557.268	47205.34
557.467	47379.42
557.667	47672.28
557.866	46713.83
558.065	46832.61
558.265	46484.45
558.464	46380.01
558.663	47078.36
558.863	46371.82
559.062	46627.81
559.261	46474.21
559.461	47154.14
559.66	45802.48
559.859	46369.77
560.058	45855.73
560.258	46207.98
560.457	45782
560.656	46083.05
560.855	45442.04
561.054	45837.3
561.253	45411.32
561.453	45626.35
561.652	45841.39
561.851	45872.11
562.05	45278.2
562.249	45257.72
562.448	45503.48
562.647	45155.32
562.846	45511.67
563.045	44975.1
563.244	44895.23
563.443	45851.63
563.642	44344.33
563.841	45091.83
564.04	44817.41
564.239	44882.94
564.438	44391.43
564.637	44954.62
564.836	44233.74
565.035	43883.53
565.234	44315.65
565.432	44100.62
565.631	43547.67
565.83	44266.5
566.029	43832.33
566.228	43803.66
566.427	43844.62
566.625	43742.22
566.824	43138.07
567.023	43971.6
567.222	42820.64
567.42	43818
567.619	43435.03
567.818	43066.39
568.016	42961.95
568.215	43324.44
568.414	42472.48
568.612	42839.07
568.811	42267.69
569.01	42409
569.208	41776.17
569.407	42359.84
569.605	41595.95
569.804	42052.65
570.002	41569.33
570.201	41921.58
570.4	41452.59
570.598	41303.09
570.797	41192.5
570.995	41628.72
571.193	40891.45
571.392	41376.82
571.59	40952.89
571.789	41307.19
571.987	41153.59
572.186	40582.21
572.384	40606.78
572.582	40674.37
572.781	40793.15
572.979	40086.6
573.177	40379.46
573.376	40563.78
573.574	40098.89
573.772	39922.76
573.971	39461.97
574.169	39570.51
574.367	38997.08
574.565	39785.55
574.763	39517.26
574.962	39040.09
575.16	38978.65
575.358	39560.27
575.556	38800.47
575.754	39603.28
575.952	38581.34
576.151	38892.63
576.349	38415.46
576.547	38311.01
576.745	38487.14
576.943	38311.01
577.141	38526.05
577.339	38689.88
577.537	38276.19
577.735	38143.08
577.933	37555.31
578.131	38286.43
578.329	37794.92
578.527	37489.77
578.725	37506.16
578.923	37813.35
579.121	37399.66
579.319	37409.9
579.516	37110.9
579.714	37512.3
579.912	36947.06
580.11	36756.6
580.308	37184.63
580.506	36793.47
580.704	36385.92
580.901	36428.93
581.099	36742.27
581.297	36287.62
581.495	36752.51
581.692	36306.05
581.89	35996.81
582.088	35898.5
582.285	35869.83
582.483	36441.21
582.681	35761.29
582.878	35613.84
583.076	35617.93
583.274	35566.73
583.471	34903.19
583.669	35566.73
583.866	35103.89
584.064	35304.59
584.262	34583.71
584.459	35110.03
584.657	34477.21
584.854	35304.59
585.052	34245.79
585.249	34598.04
585.447	34276.51
585.644	34403.49
585.841	34385.05
586.039	34602.14
586.236	33932.45
586.434	33995.94
586.631	33729.7
586.828	33756.33
587.026	33868.97
587.223	33526.96
587.42	33731.75
587.618	33541.29
587.815	33303.73
588.012	33002.68
588.21	32822.45
588.407	33146.03
588.604	32918.71
588.801	32390.33
588.999	32353.47
589.196	32701.62
589.393	32695.48
589.59	32482.49
589.787	32468.16
589.984	32378.04
590.182	31984.83
590.379	32345.28
590.576	31753.41
590.773	32101.57
590.97	31478.99
591.167	31845.57
591.364	31339.72
591.561	31608.01
591.758	31337.68
591.955	31450.31
592.152	31511.75
592.349	31231.18
592.546	31395.02
592.743	31194.32
592.94	30706.9
593.137	31050.96
593.334	31014.1
593.531	30708.95
593.727	30993.62
593.924	30670.04
594.121	30473.43
594.318	30659.8
594.515	30356.7
594.712	30352.6
594.908	30100.7
595.105	30170.33
595.302	29594.86
595.499	29967.59
595.696	29840.61
595.892	29326.57
596.089	29709.54
596.286	29502.7
596.482	29562.09
596.679	29345
596.876	29564.14
597.072	28863.73
597.269	29281.52
597.466	28654.84
597.662	28581.11
597.859	28609.78
598.055	28892.4
598.252	28566.77
598.448	28812.53
598.645	28329.21
598.841	28351.74
599.038	28413.18
599.234	28368.12
599.431	28376.31
599.627	28005.63
599.824	27987.2
600.02	27811.07
600.217	27862.27
600.413	27931.9
600.609	27690.24
600.806	27966.72
601.002	27661.57
601.198	27106.57
601.395	27086.09
601.591	27372.81
601.787	26981.65
601.984	27307.27
602.18	27284.75
602.376	26955.02
602.572	26588.44
602.769	26674.45
602.965	26522.9
603.161	26473.75
603.357	26340.63
603.553	26701.08
603.75	26301.72
603.946	26236.19
604.142	26189.08
604.338	25531.69
604.534	26397.98
604.73	25656.61
604.926	25675.04
605.122	25765.15
605.318	26027.29
605.514	25523.49
605.71	25400.62
605.906	25345.32
606.102	25593.12
606.298	25466.15
606.494	25402.66
606.69	25150.76
606.886	25363.75
607.082	24925.49
607.278	25140.52
607.474	25048.36
607.67	24925.49
607.866	24685.87
608.062	25214.25
608.257	25058.6
608.453	24550.71
608.649	24569.14
608.845	24653.11
609.041	24540.47
609.236	24528.18
609.432	24571.19
609.628	24372.53
609.824	24403.25
610.019	24177.98
610.215	24399.16
610.411	24175.93
610.606	24116.54
610.802	24053.05
610.998	24059.2
611.193	24114.49
611.389	23813.44
611.584	24038.72
611.78	23463.24
611.976	23764.29
612.171	23532.87
612.367	23354.69
612.562	23522.63
612.758	23192.9
612.953	23199.05
613.149	23469.38
613.344	23371.08
613.539	23418.18
613.735	23551.3
613.93	23504.2
614.126	23262.54
614.321	23070.03
614.517	23254.34
614.712	23053.64
614.907	22723.92
615.103	23041.36
615.298	22728.02
615.493	23229.77
615.688	22621.52
615.884	23299.4
616.079	22271.32
616.274	22562.13
616.47	22574.42
616.665	22723.92
616.86	22383.96
617.055	22207.83
617.25	22400.34
617.445	22265.17
617.641	22390.1
617.836	22539.6
618.031	21808.48
618.226	22291.8
618.421	22023.51
618.616	22087
618.811	21599.59
619.006	21812.57
619.201	21736.8
619.396	21669.22
619.591	21507.43
619.786	21835.1
619.981	21136.74
620.176	21591.39
620.371	21265.77
620.566	21388.64
620.761	20671.86
620.956	21118.31
621.151	20602.22
621.346	20890.99
621.541	20800.88
621.735	20790.64
621.93	20417.91
622.125	20489.59
622.32	20010.36
622.515	20137.34
622.709	19875.2
622.904	20219.25
623.099	19828.09
623.294	19891.58
623.488	19694.97
623.683	19801.47
623.878	19512.7
624.072	19449.22
624.267	19492.23
624.462	19103.11
624.656	19010.95
624.851	19219.85
625.046	19215.75
625.24	18898.31
625.435	18732.43
625.629	18613.65
625.824	18335.12
626.018	18371.99
626.213	18242.96
626.407	18400.66
626.602	17995.16
626.796	18060.7
626.991	18052.5
627.185	18105.75
627.38	17859.99
627.574	17710.49
627.768	17587.61
627.963	17438.11
628.157	17526.18
628.352	17223.08
628.546	16919.98
628.74	17384.87
628.935	16946.6
629.129	17094.05
629.323	16731.56
629.517	16799.15
629.712	16635.31
629.906	16571.82
630.1	16489.9
630.294	16608.69
630.489	16401.84
630.683	16123.32
630.877	16096.69
631.071	15873.46
631.265	16072.12
631.459	15730.11
631.653	15769.02
631.848	15803.83
632.042	15465.92
632.236	15592.89
632.43	15353.28
632.624	15590.84
632.818	15295.94
633.012	15332.8
633.206	15334.85
633.4	15222.21
633.594	14927.3
633.788	14986.69
633.982	15087.04
634.176	14826.95
634.369	14575.05
634.563	14558.67
634.757	14491.09
634.951	14679.5
635.145	14497.23
635.339	14282.19
635.533	14458.32
635.726	14255.57
635.92	14110.16
636.114	14110.16
636.308	14026.2
636.501	14036.44
636.695	13903.32
636.889	13665.75
637.083	13628.89
637.276	13506.01
637.47	13776.34
637.664	13612.51
637.857	13551.07
638.051	13487.58
638.244	13329.89
638.438	13143.52
638.632	13190.63
638.825	12860.9
639.019	12901.86
639.212	12789.22
639.406	12705.26
639.599	12795.37
639.793	12758.5
639.986	12664.3
640.18	12674.54
640.373	12830.18
640.567	12447.21
640.76	12504.56
640.954	12011
641.147	12301.81
641.34	11884.02
641.534	12148.21
641.727	12154.35
641.92	12076.53
642.114	11967.99
642.307	12023.28
642.5	11984.37
642.694	11675.13
642.887	11728.38
643.08	11990.52
643.273	11568.63
643.467	11576.83
643.66	11468.28
643.853	11369.98
644.046	11060.74
644.239	11369.98
644.432	11390.46
644.626	10980.87
644.819	10870.28
645.012	11122.18
645.205	11171.33
645.398	10984.96
645.591	10984.96
645.784	10948.1
645.977	10694.15
646.17	10636.81
646.363	10659.34
646.556	10425.87
646.749	10518.03
646.942	10403.34
647.135	10493.45
647.328	10288.65
647.521	10096.14
647.714	10020.37
647.907	10309.13
648.099	10210.83
648.292	10380.81
648.485	10186.26
648.678	10028.56
648.871	9645.59
649.064	9690.65
649.256	9989.65
649.449	9774.61
649.642	9592.34
649.835	9657.88
650.027	9592.34
650.22	9643.54
650.413	9506.33
650.605	9508.38
650.798	9373.21
650.991	9610.78
651.183	9393.69
651.376	9240.09
651.568	9205.28
651.761	9190.94
651.954	9176.61
652.146	8996.39
652.339	9078.3
652.531	8926.75
652.724	8789.54
652.916	8805.92
653.109	8930.85
653.301	8822.31
653.494	8846.88
653.686	8597.03
653.879	8750.63
654.071	8783.4
654.263	8631.85
654.456	8576.55
654.648	8609.32
654.84	8400.43
655.033	8357.42
655.225	8449.58
655.417	8316.46
655.61	8461.87
655.802	8388.14
655.994	8162.86
656.186	8273.45
656.379	7962.16
656.571	8212.01
656.763	8070.7
656.955	7972.4
657.148	8085.04
657.34	7935.54
657.532	7970.35
657.724	7800.37
657.916	7765.56
658.108	7722.55
658.3	7720.5
658.492	7800.37
658.684	7452.22
658.876	7650.87
659.068	7618.1
659.26	7517.75
659.452	7632.44
659.644	7564.86
659.836	7478.84
660.028	7546.42
660.22	7358.01
660.412	7474.74
660.604	7339.58
660.796	7489.08
660.988	7284.28
661.18	7237.18
661.372	7147.07
661.563	7253.56
661.755	7099.97
661.947	7091.77
662.139	7200.32
662.331	7034.43
662.522	6897.22
662.714	6876.74
662.906	6899.27
663.097	6780.48
663.289	6809.15
663.481	6717
663.673	6788.68
663.864	6825.54
664.056	6835.78
664.247	6655.56
664.439	6729.28
664.631	6628.93
664.822	6567.49
665.014	6618.69
665.205	6399.56
665.397	6569.54
665.588	6303.31
665.78	6585.93
665.971	6481.48
666.163	6612.55
666.354	6340.17
666.546	6399.56
666.737	6327.88
666.929	6358.6
667.12	6250.06
667.311	6436.42
667.503	6245.96
667.694	6104.65
667.885	6180.43
668.077	6162
668.268	6182.48
668.459	6112.85
668.651	6143.56
668.842	6047.31
669.033	6026.83
669.224	5951.06
669.416	6129.23
669.607	5916.24
669.798	5801.55
669.989	6100.56
670.18	5967.44
670.371	5875.28
670.563	5832.27
670.754	5977.68
670.945	5693.01
671.136	5942.86
671.327	5742.16
671.518	5754.45
671.709	5770.83
671.9	5971.54
672.091	5809.75
672.282	5815.89
672.473	5807.7
672.664	5701.2
672.855	5652.05
673.046	5727.83
673.237	5832.27
673.428	5783.12
673.619	5656.15
673.809	5695.06
674	5637.72
674.191	5596.76
674.382	5670.48
674.573	5596.76
674.764	5529.17
674.954	5729.88
675.145	5465.69
675.336	5533.27
675.527	5561.94
675.717	5666.39
675.908	5512.79
676.099	5520.98
676.289	5543.51
676.48	5394.01
676.671	5570.13
676.861	5549.65
677.052	5500.5
677.243	5465.69
677.433	5379.67
677.624	5572.18
677.814	5387.86
678.005	5297.75
678.195	5310.04
678.386	5375.58
678.576	5531.22
678.767	5283.42
678.957	5398.1
679.148	5592.66
679.338	5443.16
679.529	5412.44
679.719	5459.54
679.909	5402.2
680.1	5439.06
680.29	5439.06
680.481	5201.5
680.671	5361.24
680.861	5293.66
681.052	5365.34
681.242	5305.95
681.432	5434.97
681.622	5475.93
681.813	5367.38
682.003	5357.14
682.193	5078.62
682.383	5451.35
682.573	5334.62
682.764	5291.61
682.954	5375.58
683.144	5389.91
683.334	5424.73
683.524	5320.28
683.714	5535.32
683.904	5332.57
684.094	5324.38
684.284	5086.81
684.474	5189.21
684.664	5301.85
684.854	5365.34
685.044	5283.42
685.234	5342.81
685.424	5103.2
685.614	5277.27
685.804	5154.4
685.994	5084.77
686.184	5025.37
686.374	5314.14
686.564	5058.14
686.753	5178.97
686.943	5117.53
687.133	4992.61
687.323	4961.89
687.513	5056.09
687.702	4947.55
687.892	5031.52
688.082	4910.69
688.272	4976.22
688.461	4976.22
688.651	4861.54
688.841	5015.13
689.03	4847.2
689.22	4869.73
689.41	4826.72
689.599	4828.77
689.789	4703.84
689.979	4847.2
690.168	4734.56
690.358	4640.36
690.547	4679.27
690.737	4785.76
690.926	4499.05
691.116	4589.16
691.305	4613.73
691.495	4658.79
691.684	4507.24
691.874	4486.76
692.063	4419.18
692.252	4494.95
692.442	4449.89
692.631	4552.29
692.82	4591.2
693.01	4367.98
693.199	4337.26
693.388	4406.89
693.578	4497
693.767	4447.85
693.956	4378.22
694.146	4419.18
694.335	4312.68
694.524	4355.69
694.713	4277.87
694.902	4154.99
695.092	4195.95
695.281	4296.3
695.47	4232.81
695.659	4212.33
695.848	4154.99
696.037	4107.88
696.226	4163.18
696.415	4181.61
696.604	4376.17
696.793	4142.7
696.982	4068.97
697.171	4238.95
697.36	4181.61
697.549	4087.4
697.738	4054.64
697.927	4144.75
698.116	4269.67
698.305	4083.31
698.494	4124.27
698.683	4021.87
698.872	4138.6
699.061	4009.58
699.25	4056.68
699.438	3976.81
699.627	4193.9
699.816	4118.12
700.005	3995.25
700.193	3954.29
700.382	4075.12
700.571	4130.41
700.76	4267.63
700.948	4091.5
701.137	4171.37
701.326	4261.48
701.514	3991.15
701.703	4120.17
701.892	4163.18
702.08	4177.51
702.269	3952.24
702.457	4015.73
702.646	4134.51
702.834	4030.06
703.023	4103.79
703.212	3944.05
703.4	4058.73
703.589	4044.4
703.777	4171.37
703.965	4284.01
704.154	4091.5
704.342	4052.59
704.531	4161.13
704.719	4148.84
704.907	4079.21
705.096	3997.29
705.284	4179.56
705.472	4054.64
705.661	4210.28
705.849	4189.8
706.037	4019.82
706.226	4101.74
706.414	4300.39
706.602	4056.68
706.79	4173.42
706.979	3948.14
707.167	4038.25
707.355	4191.85
707.543	4195.95
707.731	4116.08
707.919	4030.06
708.107	4226.67
708.296	4150.89
708.484	4044.4
708.672	4118.12
708.86	4040.3
709.048	4181.61
709.236	3982.96
709.424	4208.23
709.612	4195.95
709.8	4189.8
709.988	4152.94
710.176	4202.09
710.364	4140.65
710.551	4114.03
710.739	4183.66
710.927	4259.43
711.115	4267.63
711.303	4361.83
711.491	4308.58
711.679	4165.23
711.866	4081.26
712.054	4343.4
712.242	4185.71
712.43	4294.25
712.617	4306.54
712.805	4255.34
712.993	4277.87
713.181	4097.64
713.368	4357.74
713.556	4327.02
713.744	4279.91
713.931	4443.75
714.119	4404.84
714.306	4384.36
714.494	4279.91
714.682	4259.43
714.869	4220.52
715.057	4286.06
715.244	4099.69
715.432	4243.05
715.619	4177.51
715.807	4210.28
715.994	4327.02
716.182	4316.78
716.369	4347.5
716.556	4456.04
716.744	4406.89
716.931	4247.15
717.119	4474.47
717.306	4425.32
717.493	4339.3
717.681	4572.77
717.868	4410.98
718.055	4396.65
718.242	4441.7
718.43	4425.32
718.617	4505.19
718.804	4384.36
718.991	4382.31
719.179	4384.36
719.366	4370.02
719.553	4576.87
719.74	4335.21
719.927	4415.08
720.114	4343.4
720.301	4406.89
720.488	4419.18
720.676	4621.92
720.863	4554.34
721.05	4669.03
721.237	4365.93
721.424	4488.81
721.611	4497
721.798	4398.7
721.985	4652.64
722.172	4531.81
722.358	4587.11
722.545	4560.49
722.732	4486.76
722.919	4595.3
723.106	4453.99
723.293	4509.29
723.48	4554.34
723.667	4435.56
723.853	4486.76
724.04	4689.51
724.227	4691.56
724.414	4607.59
724.6	4570.72
724.787	4658.79
724.974	4578.92
725.161	4652.64
725.347	4658.79
725.534	4679.27
725.72	4507.24
725.907	4501.09
726.094	4578.92
726.28	4544.1
726.467	4576.87
726.653	4652.64
726.84	4648.55
727.027	4781.67
727.213	4736.61
727.4	4816.48
727.586	4709.99
727.773	4632.16
727.959	4714.08
728.145	4693.6
728.332	4642.4
728.518	4761.19
728.705	4644.45
728.891	4783.71
729.077	4646.5
729.264	4699.75
729.45	4685.41
729.636	4656.74
729.823	4755.04
730.009	4714.08
730.195	4673.12
730.382	4658.79
730.568	4650.6
730.754	4714.08
730.94	4771.43
731.126	4775.52
731.313	4763.23
731.499	4683.36
731.685	4718.18
731.871	4746.85
732.057	4699.75
732.243	4740.71
732.429	4652.64
732.615	4644.45
732.801	4529.77
732.987	4791.91
733.173	4486.76
733.359	4828.77
733.545	4558.44
733.731	4750.95
733.917	4714.08
734.103	4638.31
734.289	4685.41
734.475	4580.96
734.661	4734.56
734.847	4671.08
735.033	4785.76
735.219	4687.46
735.404	4562.53
735.59	4632.16
735.776	4640.36
735.962	4554.34
736.148	4787.81
736.333	4716.13
736.519	4656.74
736.705	4718.18
736.89	4593.25
737.076	4640.36
737.262	4513.38
737.447	4556.39
737.633	4632.16
737.819	4497
738.004	4603.49
738.19	4685.41
738.375	4374.12
738.561	4703.84
738.747	4566.63
738.932	4677.22
739.118	4660.84
739.303	4644.45
739.489	4666.98
739.674	4529.77
739.859	4585.06
740.045	4607.59
740.23	4400.74
740.416	4435.56
740.601	4456.04
740.786	4609.64
740.972	4423.27
741.157	4505.19
741.342	4327.02
741.528	4327.02
741.713	4474.47
741.898	4478.57
742.084	4347.5
742.269	4341.35
742.454	4290.15
742.639	4386.41
742.824	4241
743.01	4249.19
743.195	4318.82
743.38	4388.46
743.565	4310.63
743.75	4187.75
743.935	4234.86
744.12	4429.42
744.305	4171.37
744.49	4179.56
744.675	4210.28
744.86	4099.69
745.045	4152.94
745.23	4071.02
745.415	4091.5
745.6	4142.7
745.785	4044.4
745.97	3968.62
746.155	3853.94
746.34	4064.88
746.525	3849.84
746.71	4116.08
746.895	3837.55
747.079	4034.16
747.264	3894.9
747.449	3919.47
747.634	3892.85
747.819	3823.22
748.003	3731.06
748.188	3821.17
748.373	3696.24
748.557	3841.65
748.742	3630.71
748.927	3679.86
749.111	3622.52
749.296	3571.32
749.481	3669.62
749.665	3747.44
749.85	3538.55
750.034	3501.69
750.219	3522.16
750.404	3507.83
750.588	3444.34
750.773	3333.75
750.957	3452.53
751.141	3397.24
751.326	3380.86
751.51	3253.88
751.695	3286.65
751.879	3313.27
752.064	3352.18
752.248	3208.83
752.432	3300.98
752.617	3212.92
752.801	3300.98
752.985	3231.35
753.17	3092.09
753.354	3159.67
753.538	3155.58
753.722	3124.86
753.907	3049.08
754.091	2913.92
754.275	3026.56
754.459	3001.98
754.643	2926.21
754.828	2850.43
755.012	2967.17
755.196	2924.16
755.38	2842.24
755.564	2944.64
755.748	2850.43
755.932	2924.16
756.116	2864.77
756.3	2723.46
756.484	2760.32
756.668	2727.55
756.852	2819.71
757.036	2754.18
757.22	2774.66
757.404	2612.87
757.588	2563.72
757.772	2745.98
757.956	2649.73
758.14	2565.76
758.323	2508.42
758.507	2623.11
758.691	2533
758.875	2580.1
759.059	2485.89
759.242	2403.97
759.426	2424.45
759.61	2565.76
759.794	2393.73
759.977	2381.45
760.161	2506.37
760.345	2500.23
760.528	2465.41
760.712	2451.08
760.895	2465.41
761.079	2215.56
761.263	2270.86
761.446	2334.34
761.63	2285.19
761.813	2330.25
761.997	2162.31
762.18	2231.94
762.364	2266.76
762.547	2162.31
762.731	2211.46
762.914	2162.31
763.098	2170.51
763.281	2213.51
763.464	2162.31
763.648	2199.18
763.831	2111.11
764.015	2156.17
764.198	2172.55
764.381	2113.16
764.564	2111.11
764.748	2047.63
764.931	2156.17
765.114	2023.05
765.297	2109.07
765.481	2006.67
765.664	1920.65
765.847	1955.47
766.03	1891.98
766.213	1957.52
766.397	2006.67
766.58	2010.76
766.763	1982.09
766.946	2043.53
767.129	1941.13
767.312	1902.22
767.495	1949.32
767.678	1908.37
767.861	1863.31
768.044	1918.61
768.227	1902.22
768.41	1957.52
768.593	1871.5
768.776	1920.65
768.959	1822.35
769.142	2000.52
769.324	1781.39
769.507	1844.88
769.69	1877.65
769.873	1947.28
770.056	1902.22
770.239	1744.53
770.421	1949.32
770.604	1869.45
770.787	1693.33
770.97	1777.3
771.152	1746.58
771.335	1740.43
771.518	1652.37
771.7	1785.49
771.883	1762.96
772.066	1644.18
772.248	1793.68
772.431	1681.04
772.613	1676.95
772.796	1726.1
772.978	1597.07
773.161	1691.28
773.343	1580.69
773.526	1646.23
773.708	1574.55
773.891	1537.68
774.073	1601.17
774.256	1521.3
774.438	1572.5
774.621	1523.35
774.803	1615.51
774.985	1506.96
775.168	1541.78
775.35	1605.27
775.532	1425.04
775.715	1490.58
775.897	1457.81
776.079	1445.52
776.261	1592.98
776.444	1547.92
776.626	1375.89
776.808	1416.85
776.99	1359.51
777.173	1404.57
777.355	1287.83
777.537	1390.23
777.719	1486.48
777.901	1339.03
778.083	1257.11
778.265	1359.51
778.447	1361.56
778.629	1203.86
778.811	1253.02
778.993	1330.84
779.175	1306.26
779.357	1318.55
779.539	1263.26
779.721	1296.02
779.903	1191.58
780.085	1250.97
780.267	1242.78
780.449	1240.73
780.631	1230.49
780.812	1167
780.994	1072.79
781.176	1220.25
781.358	1128.09
781.54	1089.18
781.721	1097.37
781.903	1146.52
782.085	1054.36
782.267	1111.71
782.448	1113.75
782.63	1050.27
782.812	1091.23
782.993	1064.6
783.175	999.07
783.357	945.82
783.538	1037.98
783.72	1021.6
783.901	986.78
784.083	1001.12
784.264	1019.55
784.446	958.11
784.627	884.38
784.809	1003.16
784.99	1033.88
785.172	994.97
785.353	978.59
785.535	966.3
785.716	933.53
785.897	874.14
786.079	919.2
786.26	927.39
786.441	966.3
786.623	704.16
786.804	861.85
786.985	937.63
787.167	902.81
787.348	841.37
787.529	874.14
787.71	824.99
787.891	812.7
788.073	868
788.254	855.71
788.435	796.32
788.616	847.52
788.797	853.66
788.978	810.65
789.159	767.65
789.34	716.45
789.522	747.17
789.703	820.89
789.884	736.93
790.065	863.9
790.246	714.4
790.427	734.88
790.607	741.02
790.788	794.27
790.969	632.48
791.15	665.25
791.331	722.59
791.512	679.58
791.693	722.59
791.874	661.15
792.054	769.69
792.235	712.35
792.416	671.39
792.597	657.06
792.778	724.64
792.958	755.36
793.139	681.63
793.32	714.4
793.5	585.38
793.681	675.49
793.862	706.21
794.042	673.44
794.223	675.49
794.404	542.37
794.584	532.13
794.765	589.47
794.945	628.39
795.126	665.25
795.306	700.06
795.487	601.76
795.667	566.95
795.848	620.19
796.028	593.57
796.209	661.15
796.389	612
796.57	493.22
796.75	534.18
796.93	530.08
797.111	581.28
797.291	554.66
797.471	603.81
797.652	609.95
797.832	519.84
798.012	630.43
798.192	462.5
798.373	538.27
798.553	505.51
798.733	609.95
798.913	538.27
799.093	575.14
799.274	603.81
799.454	532.13
799.634	540.32
799.814	474.79
799.994	468.64
800.174	599.71
800.354	480.93
800.534	446.12
800.714	491.17
800.894	444.07
801.074	476.84
801.254	464.55
801.434	442.02
801.614	517.79
801.794	407.2
801.974	1427.09
802.154	368.29
802.334	507.55
802.514	335.53
802.693	435.88
802.873	405.16
803.053	493.22
803.233	491.17
803.413	384.68
803.592	419.49
803.772	429.73
803.952	439.97
804.131	417.44
804.311	394.92
804.491	403.11
804.67	417.44
804.85	472.74
805.03	450.21
805.209	429.73
805.389	413.35
805.568	333.48
805.748	411.3
805.928	489.12
806.107	525.99
806.287	405.16
806.466	366.25
806.646	362.15
806.825	360.1
807.004	388.77
807.184	401.06
807.363	507.55
807.543	380.58
807.722	335.53
807.901	470.69
808.081	353.96
808.26	288.42
808.439	405.16
808.619	368.29
808.798	353.96
808.977	390.82
809.156	386.72
809.336	339.62
809.515	446.12
809.694	327.33
809.873	364.2
810.052	339.62
810.231	403.11
810.411	362.15
810.59	417.44
810.769	302.76
810.948	392.87
811.127	249.51
811.306	286.37
811.485	325.29
811.664	421.54
811.843	390.82
812.022	319.14
812.201	321.19
812.38	263.85
812.559	341.67
812.737	319.14
812.916	278.18
813.095	210.6
813.274	396.96
813.453	286.37
813.632	257.7
813.811	302.76
813.989	220.84
814.168	358.05
814.347	319.14
814.526	317.09
814.704	304.81
814.883	306.85
815.062	331.43
815.24	321.19
815.419	245.41
815.598	337.57
815.776	233.13
815.955	282.28
816.133	253.61
816.312	261.8
816.49	239.27
816.669	302.76
816.847	306.85
817.026	290.47
817.204	237.22
817.383	237.22
817.561	212.65
817.74	329.38
817.918	239.27
818.097	222.89
818.275	243.37
818.453	294.57
818.632	372.39
818.81	263.85
818.988	204.46
819.167	128.68
819.345	288.42
819.523	245.41
819.701	310.95
819.879	247.46
820.058	280.23
820.236	218.79
820.414	257.7
820.592	169.64
820.77	206.5
820.948	237.22
821.127	247.46
821.305	290.47
821.483	177.83
821.661	261.8
821.839	214.7
822.017	173.74
822.195	259.75
822.373	302.76
822.551	175.78
822.729	290.47
822.907	204.46
823.085	280.23
823.262	237.22
823.44	286.37
823.618	194.22
823.796	179.88
823.974	198.31
824.152	247.46
824.329	206.5
824.507	163.5
824.685	196.26
824.863	237.22
825.04	161.45
825.218	265.89
825.396	143.02
825.574	245.41
825.751	153.26
825.929	237.22
826.107	114.34
826.284	163.5
826.462	235.18
826.639	112.3
826.817	210.6
826.994	220.84
827.172	122.54
827.349	259.75
827.527	192.17
827.704	183.98
827.882	190.12
828.059	190.12
828.237	132.78
828.414	243.37
828.591	145.06
828.769	179.88
828.946	161.45
829.124	186.02
829.301	177.83
829.478	155.3
829.655	114.34
829.833	239.27
830.01	143.02
830.187	204.46
830.364	218.79
830.542	165.54
830.719	249.51
830.896	167.59
831.073	145.06
831.25	233.13
831.427	110.25
831.604	110.25
831.782	83.63
831.959	183.98
832.136	192.17
832.313	194.22
832.49	155.3
832.667	198.31
832.844	106.15
833.021	157.35
833.198	118.44
833.374	116.39
833.551	147.11
833.728	116.39
833.905	188.07
834.082	143.02
834.259	97.96
834.436	163.5
834.612	120.49
834.789	134.82
834.966	210.6
835.143	175.78
835.319	171.69
835.496	104.11
835.673	171.69
835.85	177.83
836.026	216.74
836.203	140.97
836.38	46.76
836.556	130.73
836.733	42.67
836.909	188.07
837.086	77.48
837.262	-4.44
837.439	85.67
837.616	151.21
837.792	130.73
837.968	110.25
838.145	48.81
838.321	40.62
838.498	97.96
838.674	81.58
838.851	167.59
839.027	116.39
839.203	79.53
839.38	130.73
839.556	102.06
839.732	171.69
839.909	145.06
840.085	116.39
840.261	87.72
840.437	77.48
840.614	83.63
840.79	149.16
840.966	79.53
841.142	165.54
841.318	100.01
841.494	97.96
841.671	91.82
841.847	61.1
842.023	48.81
842.199	100.01
842.375	108.2
842.551	-14.68
842.727	89.77
842.903	124.58
843.079	54.95
843.255	79.53
843.431	138.92
843.607	118.44
843.783	20.14
843.959	65.19
844.134	106.15
844.31	155.3
844.486	102.06
844.662	16.04
844.838	108.2
845.013	77.48
845.189	157.35
845.365	153.26
845.541	93.87
845.716	122.54
845.892	106.15
846.068	57
846.244	-14.68
846.419	153.26
846.595	24.23
846.77	52.91
846.946	93.87
847.122	102.06
847.297	69.29
847.473	155.3
847.648	-47.44
847.824	75.43
847.999	67.24
848.175	48.81
848.35	50.86
848.526	183.98
848.701	97.96
848.876	112.3
849.052	106.15
849.227	75.43
849.403	30.38
849.578	132.78
849.753	116.39
849.929	42.67
850.104	87.72
850.279	20.14
850.454	97.96
850.63	147.11
850.805	77.48
850.98	110.25
851.155	85.67
851.33	110.25
851.505	79.53
851.681	159.4
851.856	30.38
852.031	59.05
852.206	38.57
852.381	-2.39
852.556	-22.87
852.731	106.15
852.906	153.26
853.081	77.48
853.256	163.5
853.431	91.82
853.606	65.19
853.781	50.86
853.956	63.15
854.131	40.62
854.305	-0.34
854.48	81.58
854.655	46.76
854.83	3.75
855.005	83.63
855.18	69.29
855.354	20.14
855.529	65.19
855.704	91.82
855.879	1.71
856.053	16.04
856.228	63.15
856.403	-4.44
856.577	65.19
856.752	100.01
856.926	22.19
857.101	32.43
857.276	11.95
857.45	67.24
857.625	85.67
857.799	-4.44
857.974	67.24
858.148	24.23
858.323	54.95
858.497	26.28
858.672	73.39
858.846	13.99
859.02	97.96
859.195	42.67
859.369	69.29
859.543	44.71
859.718	65.19
859.892	48.81
860.066	108.2
860.241	108.2
860.415	-2.39
860.589	18.09
860.763	57
860.938	24.23
861.112	79.53
861.286	65.19
861.46	32.43
861.634	48.81
861.808	48.81
861.982	52.91
862.157	91.82
862.331	-2.39
862.505	52.91
862.679	57
862.853	-24.92
863.027	26.28
863.201	136.87
863.375	75.43
863.549	40.62
863.722	-14.68
863.896	149.16
864.07	57
864.244	24.23
864.418	126.63
864.592	38.57
864.766	7.85
864.939	7.85
865.113	65.19
865.287	61.1
865.461	-65.88
865.634	81.58
865.808	34.47
865.982	16.04
866.156	-106.84
866.329	-2.39
866.503	-14.68
866.676	87.72
866.85	67.24
867.024	-16.73
867.197	40.62
867.371	108.2
867.544	97.96
867.718	-18.77
867.891	7.85
868.065	-41.3
868.238	20.14
868.412	140.97
868.585	-45.4
868.759	-8.53
868.932	-6.49
869.105	-80.21
869.279	5.8
869.452	20.14
869.625	89.77
869.799	11.95
869.972	-0.34
870.145	32.43
870.319	61.1
870.492	-65.88
870.665	28.33
870.838	22.19
871.011	-22.87
871.185	9.9
871.358	-4.44
871.531	28.33
871.704	9.9
871.877	192.17
872.05	-8.53
872.223	-39.25
872.396	-35.16
872.569	59.05
872.742	-8.53
872.915	9.9
873.088	-29.01
873.261	-31.06
873.434	73.39
873.607	1.71
873.78	30.38
873.953	-18.77
874.126	11.95
874.299	11.95
874.471	-49.49
874.644	28.33
874.817	81.58
874.99	140.97
875.163	26.28
875.335	13.99
875.508	24.23
875.681	54.95
875.853	-49.49
876.026	-119.12
876.199	59.05
876.371	9.9
876.544	40.62
876.717	91.82
876.889	24.23
877.062	57
877.234	67.24
877.407	-2.39
877.579	42.67
877.752	9.9
877.924	24.23
878.097	50.86
878.269	9.9
878.442	59.05
878.614	-39.25
878.786	38.57
878.959	-0.34
879.131	-8.53
879.303	-115.03
879.476	13.99
879.648	143.02
879.82	69.29
879.993	40.62
880.165	54.95
880.337	52.91
880.509	26.28
880.681	-16.73
880.854	-14.68
881.026	-29.01
881.198	93.87
881.37	-31.06
881.542	-22.87
881.714	38.57
881.886	-2.39
882.058	79.53
882.23	-37.2
882.402	18.09
882.574	13.99
882.746	1.71
882.918	65.19
883.09	-2.39
883.262	-26.96
883.434	73.39
883.606	-33.11
883.778	-49.49
883.95	26.28
884.122	40.62
884.293	67.24
884.465	3.75
884.637	48.81
884.809	59.05
884.98	42.67
885.152	83.63
885.324	71.34
885.496	18.09
885.667	9.9
885.839	-8.53
886.011	44.71
886.182	28.33
886.354	38.57
886.525	-16.73
886.697	81.58
886.869	61.1
887.04	32.43
887.212	16.04
887.383	81.58
887.555	50.86
887.726	-55.64
887.897	16.04
888.069	73.39
888.24	-8.53
888.412	-2.39
888.583	-6.49
888.754	24.23
888.926	-49.49
889.097	-16.73
889.268	-69.97
889.44	77.48
889.611	-82.26
889.782	-35.16
889.953	-57.68
890.125	57
890.296	-57.68
890.467	-49.49
890.638	-98.64
890.809	9.9
890.98	-82.26
891.151	11.95
891.323	63.15
891.494	13.99
891.665	16.04
891.836	24.23
892.007	-12.63
892.178	-2.39
892.349	18.09
892.52	18.09
892.691	28.33
892.862	-4.44
893.032	-14.68
893.203	-55.64
893.374	91.82
893.545	-8.53
893.716	30.38
893.887	95.91
894.057	-2.39
894.228	-74.07
894.399	-94.55
894.57	143.02
894.74	7.85
894.911	73.39
895.082	9.9
895.253	-57.68
895.423	30.38
895.594	57
895.764	106.15
895.935	-37.2
896.106	-2.39
896.276	-8.53
896.447	18.09
896.617	-4.44
896.788	-69.97
896.958	-102.74
897.129	32.43
897.299	-6.49
897.47	-63.83
897.64	52.91
897.81	71.34
897.981	7.85
898.151	-24.92
898.322	42.67
898.492	32.43
898.662	11.95
898.832	-33.11
899.003	50.86
899.173	1.71
899.343	-55.64
899.513	3.75
