Data from USB4F104151__62__13-05-51-361.txt Node

Date: Fri Mar 14 13:05:51 EDT 2025
User: louis
Spectrometer: USB4F10415
Trigger mode: 4
Integration Time (sec): 4.000000E-2
Scans to average: 1
Electric dark correction enabled: true
Nonlinearity correction enabled: false
Boxcar width: 0
XAxis mode: Wavelengths
Number of Pixels in Spectrum: 3648
>>>>>Begin Spectral Data<<<<<
178.204	-152.57
178.424	-152.57
178.644	-152.57
178.864	-211.96
179.084	-191.49
179.304	54.27
179.524	7.17
179.744	-103.42
179.964	48.13
180.184	-17.41
180.404	117.76
180.624	-1.02
180.844	-17.41
181.064	-50.18
181.283	-5.12
181.503	-52.22
181.723	19.46
181.943	-52.22
182.163	76.8
182.383	7.17
182.602	9.22
182.822	31.74
183.042	-15.36
183.262	33.79
183.482	60.42
183.701	7.17
183.921	39.94
184.141	52.22
184.361	31.74
184.58	-11.26
184.8	23.55
185.02	39.94
185.239	13.31
185.459	-19.46
185.679	105.47
185.898	-13.31
186.118	-1.02
186.338	7.17
186.557	21.5
186.777	46.08
186.997	-1.02
187.216	76.8
187.436	142.33
187.655	130.05
187.875	113.66
188.095	54.27
188.314	93.18
188.534	82.94
188.753	-27.65
188.973	44.03
189.192	150.53
189.412	60.42
189.631	3.07
189.851	74.75
190.07	62.46
190.29	-27.65
190.509	27.65
190.729	9.22
190.948	68.61
191.168	230.4
191.387	82.94
191.607	13.31
191.826	44.03
192.045	46.08
192.265	-5.12
192.484	3.07
192.704	-5.12
192.923	-35.84
193.142	138.24
193.362	66.56
193.581	72.7
193.8	140.29
194.02	39.94
194.239	60.42
194.458	9.22
194.678	50.18
194.897	89.09
195.116	37.89
195.335	78.85
195.555	72.7
195.774	44.03
195.993	39.94
196.212	58.37
196.432	1.02
196.651	-5.12
196.87	5.12
197.089	48.13
197.308	134.14
197.528	66.56
197.747	-35.84
197.966	31.74
198.185	121.85
198.404	9.22
198.623	50.18
198.842	37.89
199.062	158.72
199.281	62.46
199.5	70.65
199.719	35.84
199.938	76.8
200.157	29.7
200.376	144.38
200.595	58.37
200.814	80.89
201.033	46.08
201.252	1.02
201.471	52.22
201.69	64.51
201.909	50.18
202.128	70.65
202.347	33.79
202.566	76.8
202.785	25.6
203.004	-37.89
203.223	128
203.442	11.26
203.661	48.13
203.879	35.84
204.098	66.56
204.317	19.46
204.536	78.85
204.755	46.08
204.974	48.13
205.193	74.75
205.411	158.72
205.63	46.08
205.849	70.65
206.068	58.37
206.287	5.12
206.505	107.52
206.724	66.56
206.943	35.84
207.162	7.17
207.381	142.33
207.599	115.71
207.818	60.42
208.037	23.55
208.255	136.19
208.474	-13.31
208.693	78.85
208.911	21.5
209.13	44.03
209.349	134.14
209.567	87.04
209.786	134.14
210.005	132.09
210.223	60.42
210.442	-31.74
210.661	60.42
210.879	64.51
211.098	84.99
211.316	19.46
211.535	66.56
211.753	68.61
211.972	64.51
212.191	-19.46
212.409	-21.5
212.628	35.84
212.846	15.36
213.065	91.13
213.283	62.46
213.502	31.74
213.72	23.55
213.938	66.56
214.157	31.74
214.375	78.85
214.594	21.5
214.812	72.7
215.031	23.55
215.249	87.04
215.467	44.03
215.686	-13.31
215.904	158.72
216.122	62.46
216.341	50.18
216.559	52.22
216.778	3.07
216.996	84.99
217.214	48.13
217.432	-9.22
217.651	-1.02
217.869	39.94
218.087	35.84
218.306	-21.5
218.524	31.74
218.742	5.12
218.96	130.05
219.179	54.27
219.397	13.31
219.615	117.76
219.833	29.7
220.051	23.55
220.27	68.61
220.488	62.46
220.706	82.94
220.924	56.32
221.142	117.76
221.36	66.56
221.578	76.8
221.796	80.89
222.015	35.84
222.233	33.79
222.451	134.14
222.669	101.37
222.887	13.31
223.105	13.31
223.323	21.5
223.541	-29.7
223.759	121.85
223.977	84.99
224.195	72.7
224.413	80.89
224.631	84.99
224.849	31.74
225.067	62.46
225.285	29.7
225.503	31.74
225.721	-60.42
225.939	70.65
226.157	-76.8
226.375	89.09
226.592	-19.46
226.81	3.07
227.028	70.65
227.246	152.57
227.464	58.37
227.682	68.61
227.9	70.65
228.117	23.55
228.335	93.18
228.553	134.14
228.771	62.46
228.989	99.33
229.206	5.12
229.424	19.46
229.642	-13.31
229.86	29.7
230.077	64.51
230.295	19.46
230.513	56.32
230.731	46.08
230.948	80.89
231.166	128
231.384	68.61
231.601	17.41
231.819	125.95
232.037	-9.22
232.254	11.26
232.472	35.84
232.689	37.89
232.907	54.27
233.125	17.41
233.342	11.26
233.56	-15.36
233.777	3.07
233.995	27.65
234.213	70.65
234.43	27.65
234.648	44.03
234.865	48.13
235.083	68.61
235.3	52.22
235.518	44.03
235.735	97.28
235.953	60.42
236.17	33.79
236.388	60.42
236.605	35.84
236.822	39.94
237.04	48.13
237.257	35.84
237.475	105.47
237.692	80.89
237.909	19.46
238.127	64.51
238.344	99.33
238.562	93.18
238.779	-19.46
238.996	50.18
239.214	58.37
239.431	93.18
239.648	-21.5
239.865	54.27
240.083	3.07
240.3	56.32
240.517	-50.18
240.735	54.27
240.952	56.32
241.169	84.99
241.386	33.79
241.603	9.22
241.821	-29.7
242.038	74.75
242.255	166.91
242.472	35.84
242.689	62.46
242.907	66.56
243.124	115.71
243.341	21.5
243.558	44.03
243.775	-15.36
243.992	25.6
244.209	44.03
244.426	105.47
244.643	29.7
244.86	5.12
245.078	44.03
245.295	-15.36
245.512	78.85
245.729	17.41
245.946	44.03
246.163	29.7
246.38	68.61
246.597	33.79
246.814	7.17
247.031	97.28
247.248	-3.07
247.464	15.36
247.681	1.02
247.898	35.84
248.115	109.57
248.332	17.41
248.549	119.81
248.766	74.75
248.983	60.42
249.2	48.13
249.417	13.31
249.633	37.89
249.85	142.33
250.067	54.27
250.284	31.74
250.501	46.08
250.717	52.22
250.934	21.5
251.151	89.09
251.368	60.42
251.585	76.8
251.801	48.13
252.018	46.08
252.235	50.18
252.451	-9.22
252.668	23.55
252.885	39.94
253.102	-5.12
253.318	58.37
253.535	-11.26
253.752	17.41
253.968	84.99
254.185	44.03
254.401	50.18
254.618	27.65
254.835	46.08
255.051	62.46
255.268	48.13
255.484	23.55
255.701	64.51
255.917	101.37
256.134	29.7
256.351	-1.02
256.567	35.84
256.784	-5.12
257	41.98
257.217	66.56
257.433	144.38
257.65	52.22
257.866	128
258.082	48.13
258.299	11.26
258.515	56.32
258.732	-39.94
258.948	31.74
259.165	41.98
259.381	21.5
259.597	60.42
259.814	-13.31
260.03	-23.55
260.246	25.6
260.463	52.22
260.679	21.5
260.895	50.18
261.112	91.13
261.328	13.31
261.544	35.84
261.761	89.09
261.977	3.07
262.193	-19.46
262.409	78.85
262.626	101.37
262.842	62.46
263.058	13.31
263.274	111.61
263.49	13.31
263.707	68.61
263.923	33.79
264.139	-46.08
264.355	39.94
264.571	93.18
264.787	50.18
265.004	70.65
265.22	21.5
265.436	35.84
265.652	46.08
265.868	64.51
266.084	41.98
266.3	52.22
266.516	-58.37
266.732	66.56
266.948	91.13
267.164	-13.31
267.38	97.28
267.596	19.46
267.812	154.62
268.028	95.23
268.244	29.7
268.46	70.65
268.676	11.26
268.892	46.08
269.108	48.13
269.324	-1.02
269.54	91.13
269.756	66.56
269.972	-19.46
270.188	31.74
270.403	48.13
270.619	-7.17
270.835	72.7
271.051	62.46
271.267	5.12
271.483	-19.46
271.698	7.17
271.914	46.08
272.13	31.74
272.346	54.27
272.562	76.8
272.777	64.51
272.993	35.84
273.209	52.22
273.425	64.51
273.64	-33.79
273.856	93.18
274.072	60.42
274.287	11.26
274.503	105.47
274.719	76.8
274.934	37.89
275.15	-39.94
275.366	107.52
275.581	68.61
275.797	64.51
276.012	9.22
276.228	21.5
276.444	27.65
276.659	113.66
276.875	1.02
277.09	56.32
277.306	103.42
277.521	48.13
277.737	-5.12
277.952	80.89
278.168	56.32
278.383	39.94
278.599	101.37
278.814	70.65
279.03	33.79
279.245	35.84
279.461	5.12
279.676	70.65
279.892	-35.84
280.107	39.94
280.322	-11.26
280.538	109.57
280.753	17.41
280.969	15.36
281.184	1.02
281.399	80.89
281.615	19.46
281.83	60.42
282.045	-44.03
282.26	-25.6
282.476	-9.22
282.691	117.76
282.906	-17.41
283.122	35.84
283.337	15.36
283.552	23.55
283.767	7.17
283.983	74.75
284.198	3.07
284.413	3.07
284.628	11.26
284.843	58.37
285.058	44.03
285.274	19.46
285.489	56.32
285.704	113.66
285.919	-29.7
286.134	103.42
286.349	54.27
286.564	11.26
286.779	97.28
286.995	-17.41
287.21	-21.5
287.425	33.79
287.64	21.5
287.855	93.18
288.07	15.36
288.285	105.47
288.5	78.85
288.715	46.08
288.93	84.99
289.145	50.18
289.36	101.37
289.575	-7.17
289.79	21.5
290.004	70.65
290.219	107.52
290.434	29.7
290.649	58.37
290.864	87.04
291.079	3.07
291.294	27.65
291.509	78.85
291.724	11.26
291.938	117.76
292.153	13.31
292.368	9.22
292.583	46.08
292.798	54.27
293.012	48.13
293.227	46.08
293.442	41.98
293.657	80.89
293.871	62.46
294.086	99.33
294.301	87.04
294.516	179.2
294.73	17.41
294.945	21.5
295.16	37.89
295.374	148.48
295.589	-3.07
295.804	15.36
296.018	29.7
296.233	107.52
296.447	134.14
296.662	21.5
296.877	140.29
297.091	109.57
297.306	11.26
297.52	25.6
297.735	109.57
297.949	62.46
298.164	56.32
298.378	125.95
298.593	-70.65
298.807	97.28
299.022	70.65
299.236	54.27
299.451	-5.12
299.665	97.28
299.88	-27.65
300.094	44.03
300.309	48.13
300.523	80.89
300.737	95.23
300.952	7.17
301.166	-19.46
301.381	-17.41
301.595	31.74
301.809	52.22
302.024	74.75
302.238	7.17
302.452	140.29
302.667	87.04
302.881	123.9
303.095	41.98
303.309	44.03
303.524	-29.7
303.738	19.46
303.952	48.13
304.166	19.46
304.381	-56.32
304.595	84.99
304.809	-25.6
305.023	78.85
305.237	52.22
305.452	-46.08
305.666	95.23
305.88	60.42
306.094	70.65
306.308	41.98
306.522	62.46
306.736	130.05
306.95	62.46
307.164	41.98
307.379	68.61
307.593	44.03
307.807	99.33
308.021	-13.31
308.235	89.09
308.449	35.84
308.663	44.03
308.877	84.99
309.091	87.04
309.305	76.8
309.519	7.17
309.733	109.57
309.947	5.12
310.161	66.56
310.374	23.55
310.588	7.17
310.802	-33.79
311.016	11.26
311.23	70.65
311.444	37.89
311.658	-17.41
311.872	179.2
312.085	70.65
312.299	27.65
312.513	113.66
312.727	-27.65
312.941	31.74
313.154	121.85
313.368	35.84
313.582	64.51
313.796	99.33
314.009	60.42
314.223	154.62
314.437	21.5
314.651	41.98
314.864	-5.12
315.078	19.46
315.292	9.22
315.505	-33.79
315.719	76.8
315.933	72.7
316.146	7.17
316.36	19.46
316.573	125.95
316.787	99.33
317.001	113.66
317.214	13.31
317.428	107.52
317.641	66.56
317.855	48.13
318.068	7.17
318.282	17.41
318.495	76.8
318.709	64.51
318.922	19.46
319.136	72.7
319.349	87.04
319.563	15.36
319.776	29.7
319.99	44.03
320.203	80.89
320.417	-35.84
320.63	56.32
320.843	136.19
321.057	66.56
321.27	76.8
321.483	107.52
321.697	144.38
321.91	39.94
322.124	-5.12
322.337	-1.02
322.55	7.17
322.763	46.08
322.977	54.27
323.19	72.7
323.403	103.42
323.617	158.72
323.83	33.79
324.043	130.05
324.256	168.96
324.469	37.89
324.683	107.52
324.896	-39.94
325.109	54.27
325.322	-29.7
325.535	56.32
325.748	78.85
325.962	21.5
326.175	64.51
326.388	78.85
326.601	105.47
326.814	48.13
327.027	130.05
327.24	107.52
327.453	-17.41
327.666	132.09
327.879	68.61
328.092	109.57
328.305	35.84
328.518	62.46
328.731	39.94
328.944	123.9
329.157	27.65
329.37	78.85
329.583	107.52
329.796	78.85
330.009	109.57
330.222	78.85
330.435	113.66
330.648	70.65
330.861	19.46
331.073	23.55
331.286	111.61
331.499	58.37
331.712	19.46
331.925	27.65
332.138	109.57
332.35	130.05
332.563	31.74
332.776	97.28
332.989	29.7
333.202	3.07
333.414	21.5
333.627	50.18
333.84	52.22
334.053	66.56
334.265	15.36
334.478	78.85
334.691	54.27
334.903	80.89
335.116	29.7
335.329	107.52
335.541	56.32
335.754	138.24
335.966	132.09
336.179	1.02
336.392	41.98
336.604	101.37
336.817	27.65
337.029	60.42
337.242	33.79
337.454	48.13
337.667	74.75
337.88	148.48
338.092	15.36
338.305	11.26
338.517	25.6
338.729	3.07
338.942	35.84
339.154	23.55
339.367	46.08
339.579	93.18
339.792	35.84
340.004	70.65
340.217	-9.22
340.429	64.51
340.641	84.99
340.854	46.08
341.066	171.01
341.278	101.37
341.491	97.28
341.703	76.8
341.915	27.65
342.128	91.13
342.34	17.41
342.552	25.6
342.764	46.08
342.977	21.5
343.189	130.05
343.401	-39.94
343.613	-23.55
343.826	78.85
344.038	105.47
344.25	46.08
344.462	101.37
344.674	27.65
344.886	31.74
345.099	84.99
345.311	105.47
345.523	-3.07
345.735	-21.5
345.947	48.13
346.159	11.26
346.371	64.51
346.583	-7.17
346.795	130.05
347.007	39.94
347.219	84.99
347.431	62.46
347.643	58.37
347.855	13.31
348.067	84.99
348.279	-35.84
348.491	31.74
348.703	109.57
348.915	46.08
349.127	19.46
349.339	74.75
349.551	68.61
349.763	72.7
349.975	119.81
350.187	115.71
350.399	72.7
350.61	64.51
350.822	13.31
351.034	46.08
351.246	121.85
351.458	70.65
351.669	93.18
351.881	93.18
352.093	27.65
352.305	103.42
352.517	113.66
352.728	160.77
352.94	97.28
353.152	101.37
353.363	37.89
353.575	119.81
353.787	134.14
353.999	101.37
354.21	168.96
354.422	37.89
354.633	3.07
354.845	52.22
355.057	128
355.268	105.47
355.48	97.28
355.692	-13.31
355.903	1.02
356.115	3.07
356.326	-1.02
356.538	62.46
356.749	15.36
356.961	132.09
357.172	111.61
357.384	109.57
357.595	142.33
357.807	56.32
358.018	37.89
358.23	-9.22
358.441	138.24
358.653	80.89
358.864	103.42
359.075	37.89
359.287	115.71
359.498	134.14
359.709	60.42
359.921	93.18
360.132	44.03
360.344	44.03
360.555	56.32
360.766	103.42
360.977	25.6
361.189	84.99
361.4	17.41
361.611	48.13
361.823	160.77
362.034	44.03
362.245	66.56
362.456	15.36
362.667	113.66
362.879	15.36
363.09	9.22
363.301	33.79
363.512	52.22
363.723	-23.55
363.935	-21.5
364.146	93.18
364.357	41.98
364.568	31.74
364.779	41.98
364.99	89.09
365.201	17.41
365.412	93.18
365.623	5.12
365.834	87.04
366.045	84.99
366.256	35.84
366.467	99.33
366.678	58.37
366.889	33.79
367.1	132.09
367.311	68.61
367.522	125.95
367.733	132.09
367.944	93.18
368.155	68.61
368.366	70.65
368.577	146.43
368.788	117.76
368.999	29.7
369.209	52.22
369.42	97.28
369.631	128
369.842	37.89
370.053	39.94
370.264	93.18
370.474	19.46
370.685	87.04
370.896	82.94
371.107	97.28
371.317	125.95
371.528	60.42
371.739	44.03
371.95	29.7
372.16	121.85
372.371	37.89
372.582	48.13
372.792	97.28
373.003	101.37
373.214	72.7
373.424	74.75
373.635	3.07
373.846	109.57
374.056	72.7
374.267	82.94
374.477	84.99
374.688	23.55
374.898	107.52
375.109	60.42
375.319	39.94
375.53	142.33
375.74	62.46
375.951	74.75
376.161	97.28
376.372	74.75
376.582	121.85
376.793	76.8
377.003	121.85
377.214	-11.26
377.424	84.99
377.635	52.22
377.845	25.6
378.055	138.24
378.266	50.18
378.476	-1.02
378.686	37.89
378.897	76.8
379.107	52.22
379.317	101.37
379.528	68.61
379.738	15.36
379.948	5.12
380.158	91.13
380.369	115.71
380.579	134.14
380.789	-56.32
380.999	37.89
381.21	121.85
381.42	171.01
381.63	70.65
381.84	89.09
382.05	121.85
382.261	173.05
382.471	37.89
382.681	-7.17
382.891	95.23
383.101	105.47
383.311	-37.89
383.521	46.08
383.731	105.47
383.941	64.51
384.151	78.85
384.361	44.03
384.571	27.65
384.781	35.84
384.991	109.57
385.201	128
385.411	95.23
385.621	156.67
385.831	87.04
386.041	78.85
386.251	62.46
386.461	97.28
386.671	87.04
386.881	84.99
387.091	82.94
387.301	70.65
387.511	70.65
387.72	5.12
387.93	109.57
388.14	-60.42
388.35	97.28
388.56	130.05
388.769	91.13
388.979	56.32
389.189	66.56
389.399	156.67
389.609	93.18
389.818	183.29
390.028	89.09
390.238	93.18
390.447	62.46
390.657	99.33
390.867	152.57
391.076	13.31
391.286	111.61
391.496	44.03
391.705	44.03
391.915	128
392.125	160.77
392.334	80.89
392.544	64.51
392.753	31.74
392.963	48.13
393.172	68.61
393.382	113.66
393.591	177.15
393.801	111.61
394.01	142.33
394.22	105.47
394.429	128
394.639	68.61
394.848	74.75
395.058	183.29
395.267	105.47
395.477	113.66
395.686	84.99
395.895	234.49
396.105	183.29
396.314	142.33
396.524	140.29
396.733	103.42
396.942	119.81
397.152	218.11
397.361	168.96
397.57	144.38
397.78	117.76
397.989	150.53
398.198	226.3
398.407	128
398.617	128
398.826	181.25
399.035	113.66
399.244	156.67
399.453	119.81
399.663	207.87
399.872	150.53
400.081	115.71
400.29	128
400.499	101.37
400.708	246.78
400.917	291.84
401.127	87.04
401.336	103.42
401.545	236.54
401.754	185.34
401.963	134.14
402.172	166.91
402.381	80.89
402.59	105.47
402.799	130.05
403.008	214.01
403.217	183.29
403.426	185.34
403.635	181.25
403.844	177.15
404.053	179.2
404.262	89.09
404.471	179.2
404.68	240.64
404.888	171.01
405.097	125.95
405.306	187.39
405.515	144.38
405.724	138.24
405.933	183.29
406.142	181.25
406.35	281.6
406.559	199.68
406.768	201.72
406.977	267.26
407.185	222.2
407.394	281.6
407.603	146.43
407.812	254.97
408.02	291.84
408.229	275.45
408.438	322.56
408.646	248.83
408.855	252.92
409.064	332.79
409.272	304.12
409.481	361.47
409.69	279.55
409.898	304.12
410.107	340.99
410.315	429.05
410.524	322.56
410.733	392.19
410.941	404.47
411.15	549.88
411.358	433.15
411.567	531.45
411.775	510.97
411.984	465.91
412.192	560.12
412.401	531.45
412.609	635.89
412.818	672.76
413.026	621.56
413.234	631.8
413.443	617.46
413.651	674.81
413.86	578.55
414.068	764.92
414.276	766.96
414.485	693.24
414.693	781.3
414.901	867.31
415.11	824.31
415.318	848.88
415.526	895.99
415.734	1031.15
415.943	947.19
416.151	1065.97
416.359	934.9
416.567	1051.63
416.776	1057.78
416.984	1229.81
417.192	1223.66
417.4	1133.55
417.608	1272.81
417.817	1180.65
418.025	1342.44
418.233	1414.12
418.441	1405.93
418.649	1403.88
418.857	1623.02
419.065	1696.74
419.273	1479.66
419.481	1641.45
419.689	1805.28
419.897	1725.41
420.105	1852.39
420.313	1827.81
420.521	2083.81
420.729	1960.93
420.937	2055.14
421.145	2122.72
421.353	2270.17
421.561	2452.44
421.769	2315.23
421.977	2403.29
422.185	2393.05
422.393	2657.24
422.601	2831.32
422.809	2755.54
423.017	2794.45
423.224	2915.28
423.432	2952.15
423.64	2966.48
423.848	3304.4
424.056	3013.59
424.263	3544.01
424.471	3484.62
424.679	3552.2
424.887	3660.74
425.094	3791.81
425.302	3984.32
425.51	3982.28
425.718	4096.96
425.925	4262.85
426.133	4393.92
426.341	4533.18
426.548	4799.41
426.756	4813.75
426.964	4654.01
427.171	4893.62
427.379	5166
427.586	5368.75
427.794	5469.1
428.001	5729.19
428.209	5905.32
428.417	6024.1
428.624	6351.78
428.832	6284.19
429.039	6116.26
429.247	6251.42
429.454	6886.29
429.662	7623.56
429.869	7017.36
430.076	7365.52
430.284	7027.6
430.491	7414.67
430.699	7973.77
430.906	8078.21
431.114	7949.19
431.321	8141.7
431.528	8369.02
431.736	8801.15
431.943	9190.26
432.15	9051
432.358	9315.19
432.565	9866.09
432.772	9614.19
432.979	10150.76
433.187	10132.33
433.394	10333.03
433.601	11322.2
433.808	11289.43
434.016	11006.81
434.223	11565.9
434.43	12444.48
434.637	12018.5
434.844	12712.77
435.052	13009.72
435.259	12901.18
435.466	13030.2
435.673	12927.8
435.88	13603.63
436.087	14183.21
436.294	14318.37
436.501	14318.37
436.708	14406.44
436.915	14934.81
437.122	15510.29
437.329	15483.67
437.537	16204.55
437.743	16319.24
437.95	16417.54
438.157	16978.68
438.364	17566.45
438.571	17648.37
438.778	17797.87
438.985	19372.76
439.192	18582.24
439.399	19030.75
439.606	18789.09
439.813	20091.6
440.02	20882.11
440.227	20607.69
440.433	20482.76
440.64	21009.09
440.847	21164.73
441.054	21441.21
441.261	22923.94
441.467	22397.61
441.674	22997.67
441.881	23767.7
442.088	23872.15
442.294	23605.91
442.501	24132.24
442.708	24707.72
442.914	25741.94
443.121	26737.26
443.328	26266.22
443.534	28373.58
443.741	27353.69
443.948	26704.49
444.154	28965.45
444.361	28611.15
444.568	28856.9
444.774	28809.8
444.981	29069.89
445.187	30028.34
445.394	31578.65
445.6	30886.44
445.807	33753.6
446.013	32395.79
446.22	33024.52
446.426	34159.09
446.633	34382.32
446.839	35668.45
447.046	34349.56
447.252	36264.41
447.459	36096.47
447.665	35959.26
447.871	37591.49
448.078	39637.41
448.284	37611.97
448.491	38521.27
448.697	40229.27
448.903	40692.12
449.11	40929.68
449.316	40116.64
449.522	40690.07
449.728	42084.73
449.935	42201.47
450.141	41992.58
450.347	43366.76
450.553	42203.52
450.76	42529.14
450.966	43759.97
451.172	43442.54
451.378	44415.32
451.584	43546.98
451.791	45007.19
451.997	44366.17
452.203	45697.35
452.409	45488.46
452.615	45375.82
452.821	43870.56
453.027	43264.36
453.233	45637.96
453.44	44085.6
453.646	44255.58
453.852	44505.43
454.058	45375.82
454.264	44310.88
454.47	44581.21
454.676	43628.9
454.882	44970.32
455.088	41290.12
455.294	42047.87
455.5	42353.02
455.705	42971.5
455.911	41339.27
456.117	40792.47
456.323	40524.18
456.529	38150.59
456.735	39965.09
456.941	38838.7
457.147	38109.63
457.352	36915.66
457.558	36708.82
457.764	36581.84
457.97	35848.67
458.176	35199.46
458.381	35437.03
458.587	33493.5
458.793	33495.55
458.999	32031.26
459.204	34308.6
459.41	33198.6
459.616	31070.76
459.821	31124.01
460.027	31222.31
460.233	30132.79
460.438	29186.63
460.644	29309.5
460.85	27785.82
461.055	27044.45
461.261	26897
461.466	25260.67
461.672	24588.94
461.878	26206.83
462.083	24277.65
462.289	24220.3
462.494	23851.67
462.7	22704.81
462.905	21904.05
463.111	22786.72
463.316	22739.62
463.522	22416.04
463.727	22366.89
463.932	22233.77
464.138	22053.55
464.343	22338.22
464.549	21484.22
464.754	22315.69
464.959	22088.37
465.165	21867.19
465.37	21240.51
465.575	20406.98
465.781	21387.96
465.986	21342.91
466.191	20851.39
466.397	20073.17
466.602	19344.09
466.807	20357.83
467.012	20067.02
467.218	20089.55
467.423	19557.08
467.628	19954.38
467.833	20562.63
468.038	19993.29
468.244	19114.72
468.449	19909.33
468.654	19307.23
468.859	19321.56
469.064	19249.88
469.269	18576.1
469.474	18580.2
469.679	18797.28
469.885	18399.98
470.09	18531.05
470.295	18285.29
470.5	18031.34
470.705	18283.24
470.91	17834.74
471.115	17668.85
471.32	17902.32
471.525	17949.42
471.73	17199.87
471.935	17169.15
472.139	16626.43
472.344	16976.64
472.549	16679.68
472.754	16491.27
472.959	16182.03
473.164	15837.97
473.369	15862.54
473.574	16413.45
473.778	16114.44
473.983	16028.43
474.188	15883.02
474.393	15201.05
474.598	14969.63
474.802	15051.55
475.007	15123.23
475.212	14918.43
475.417	14631.71
475.621	14334.76
475.826	14617.38
476.031	14306.09
476.235	13845.29
476.44	14306.09
476.645	13783.85
476.849	13970.22
477.054	13781.81
477.259	13527.86
477.463	13626.16
477.668	13521.71
477.872	13286.2
478.077	13153.08
478.282	13019.96
478.486	12833.6
478.691	12772.16
478.895	12772.16
479.1	12634.94
479.304	12686.14
479.509	12200.77
479.713	12428.1
479.918	12100.42
480.122	12110.66
480.326	11967.31
480.531	12022.6
480.735	12004.17
480.94	11744.08
481.144	12202.82
481.348	11688.78
481.553	11860.81
481.757	11690.83
481.961	11606.86
482.166	11883.34
482.37	11737.93
482.574	11617.1
482.778	11748.17
482.983	11858.76
483.187	11676.49
483.391	11492.18
483.595	11449.17
483.8	11391.83
484.004	11594.58
484.208	11744.08
484.412	11713.36
484.616	11617.1
484.821	11875.15
485.025	11512.66
485.229	11572.05
485.433	11506.51
485.637	11682.64
485.841	11438.93
486.045	11506.51
486.249	11684.69
486.453	11541.33
486.657	11518.8
486.861	11559.76
487.065	11354.96
487.269	11635.53
487.473	11395.92
487.677	11709.26
487.881	11766.6
488.085	11610.96
488.289	11684.69
488.493	11545.42
488.697	11725.65
488.901	11529.04
489.105	11496.27
489.309	11647.82
489.512	11744.08
489.716	11651.92
489.92	11711.31
490.124	11821.9
490.328	11971.4
490.531	11555.66
490.735	11914.06
490.939	11846.48
491.143	12049.22
491.346	12079.94
491.55	12045.13
491.754	11895.63
491.958	12034.89
492.161	12028.74
492.365	12161.86
492.569	12190.53
492.772	12137.29
492.976	12356.42
493.18	12264.26
493.383	12311.36
493.587	12579.65
493.79	12657.47
493.994	12391.23
494.197	12405.57
494.401	12913.47
494.605	12907.32
494.808	12811.07
495.012	12991.29
495.215	13126.46
495.419	13069.11
495.622	13146.94
495.825	13343.54
496.029	13316.92
496.232	13779.76
496.436	13339.44
496.639	13933.36
496.843	13806.38
497.046	14170.92
497.249	14156.58
497.453	14514.98
497.656	14469.92
497.859	14494.5
498.063	14687.01
498.266	14961.44
498.469	14963.48
498.673	15123.23
498.876	15155.99
499.079	15354.65
499.282	15389.46
499.485	15733.52
499.689	15788.82
499.892	16337.67
500.095	16161.55
500.298	16505.6
500.501	16175.88
500.705	16591.62
500.908	16780.03
501.111	17021.69
501.314	17466.1
501.517	17380.09
501.72	17629.94
501.923	17314.55
502.126	17949.42
502.329	18617.06
502.532	18412.26
502.735	18397.93
502.938	18668.26
503.141	18985.69
503.344	19145.44
503.547	19505.88
503.75	19456.73
503.953	19888.85
504.156	20069.07
504.359	20101.84
504.562	20359.88
504.765	20560.58
504.968	20751.04
505.17	21238.46
505.373	21099.2
505.576	21504.7
505.779	21613.24
505.982	21865.14
506.185	22182.57
506.387	22598.31
506.59	22573.74
506.793	23114.4
506.996	22790.82
507.198	23612.06
507.401	23464.6
507.604	23567
507.807	23937.68
508.009	24269.45
508.212	24470.15
508.415	24586.89
508.617	25236.09
508.82	25000.58
509.022	24791.69
509.225	25657.98
509.428	25766.52
509.63	26169.97
509.833	26126.96
510.035	26765.93
510.238	26655.34
510.44	27146.85
510.643	27449.95
510.845	27613.79
511.048	27390.56
511.25	27707.99
511.453	28144.21
511.655	29063.75
511.858	28490.32
512.06	28703.31
512.262	29317.7
512.465	29207.11
512.667	29553.21
512.87	30347.82
513.072	30304.82
513.274	30718.51
513.477	30855.72
513.679	31193.64
513.881	31468.06
514.084	31740.44
514.286	31812.12
514.488	32184.85
514.69	32989.7
514.893	32449.04
515.095	32983.56
515.297	33303.04
515.499	33554.94
515.701	33778.17
515.904	34089.46
516.106	34593.26
516.308	34478.58
516.51	35123.69
516.712	35027.43
516.914	35336.68
517.116	36270.55
517.318	36186.58
517.52	36467.16
517.722	36014.55
517.925	36792.78
518.127	37255.62
518.329	37419.46
518.531	37366.21
518.733	37939.65
518.935	38390.2
519.136	38298.04
519.338	38867.37
519.54	39299.5
519.742	39436.71
519.944	39571.88
520.146	40288.67
520.348	40497.56
520.55	40788.37
520.752	40546.71
520.954	41329.03
521.155	41197.96
521.357	41419.14
521.559	41828.74
521.761	42576.25
521.963	42715.51
522.164	42910.07
522.366	42977.65
522.568	43139.44
522.77	43360.62
522.971	44087.65
523.173	43682.15
523.375	44370.27
523.576	44063.07
523.778	44253.53
523.98	44829.01
524.181	45009.23
524.383	44390.75
524.584	45388.11
524.786	45527.37
524.988	45445.45
525.189	45818.18
525.391	46403.9
525.592	46571.83
525.794	46518.59
525.995	46661.94
526.197	47180.08
526.398	47155.5
526.6	47423.79
526.801	47620.39
527.003	47425.84
527.204	47401.26
527.406	47956.26
527.607	48234.78
527.808	48392.48
528.01	47540.52
528.211	48234.78
528.412	49316.11
528.614	48488.73
528.815	48671
529.016	49467.66
529.218	48863.51
529.419	49361.17
529.62	49176.85
529.822	49219.86
530.023	48953.62
530.224	49242.38
530.425	49551.63
530.626	48707.86
530.828	48949.53
531.029	50249.99
531.23	49217.81
531.431	49654.03
531.632	49643.79
531.833	49948.93
532.035	49893.64
532.236	49977.61
532.437	50409.73
532.638	49879.3
532.839	50129.16
533.04	50182.4
533.241	49957.13
533.442	50172.16
533.643	50254.08
533.844	50393.34
534.045	50252.03
534.246	49977.61
534.447	50675.96
534.648	49879.3
534.849	50209.03
535.05	50112.77
535.251	50366.72
535.451	50204.93
535.652	50536.7
535.853	50411.77
536.054	50589.95
536.255	50231.55
536.456	49649.93
536.657	50696.44
536.857	50589.95
537.058	50536.7
537.259	50786.55
537.46	49963.27
537.66	50096.39
537.861	50577.66
538.062	50258.18
538.263	50721.02
538.463	50426.11
538.664	50493.69
538.865	50868.47
539.065	51222.77
539.266	50364.67
539.466	50927.86
539.667	49799.43
539.868	50577.66
540.068	50499.84
540.269	50129.16
540.469	50798.84
540.67	50075.91
540.87	50258.18
541.071	50503.93
541.271	50573.56
541.472	50395.39
541.672	49867.02
541.873	50084.1
542.073	49678.6
542.274	50376.96
542.474	49895.69
542.675	49682.7
542.875	50354.43
543.075	50133.25
543.276	49867.02
543.476	50331.9
543.676	50037
543.877	50290.94
544.077	50147.59
544.277	50452.73
544.478	49918.21
544.678	50223.36
544.878	50284.8
545.078	49918.21
545.279	49750.28
545.479	49731.85
545.679	50123.01
545.879	50047.24
546.079	49924.36
546.28	49797.38
546.48	49477.9
546.68	49907.97
546.88	49928.45
547.08	49629.45
547.28	49789.19
547.48	49539.34
547.68	49875.21
547.88	49531.15
548.081	50307.33
548.281	49447.18
548.481	49494.28
548.681	49699.08
548.881	50098.44
549.081	49668.36
549.28	49193.23
549.48	49912.07
549.68	49260.82
549.88	50120.96
550.08	49076.5
550.28	49289.49
550.48	49168.66
550.68	50221.31
550.88	49305.87
551.08	49164.56
551.279	49725.71
551.479	49410.32
551.679	49684.75
551.879	48867.61
552.079	49187.09
552.278	49168.66
552.478	49305.87
552.678	49099.03
552.878	49496.33
553.077	49324.3
553.277	48429.34
553.477	49352.97
553.676	49029.4
553.876	49312.02
554.076	48886.04
554.275	49133.84
554.475	48836.89
554.674	49213.71
554.874	49017.11
555.074	48773.4
555.273	48855.32
555.473	48894.23
555.672	48632.09
555.872	49013.01
556.071	49008.92
556.271	49228.05
556.47	48736.54
556.67	48324.89
556.869	48519.45
557.068	48789.78
557.268	47931.68
557.467	48752.92
557.667	48232.74
557.866	48183.58
558.065	48085.28
558.265	48185.63
558.464	48173.34
558.663	48146.72
558.863	47788.33
559.062	48406.81
559.261	47675.69
559.461	48390.43
559.66	47776.04
559.859	47706.41
560.058	47227.18
560.258	47784.23
560.457	47175.98
560.656	47849.77
560.855	47325.49
561.054	47628.59
561.253	47198.51
561.453	47307.05
561.652	47667.5
561.851	47591.72
562.05	47348.01
562.249	46821.69
562.448	47589.67
562.647	47208.75
562.846	46723.38
563.045	46758.2
563.244	46295.36
563.443	46987.57
563.642	46145.86
563.841	46600.5
564.04	45859.14
564.239	46672.18
564.438	45926.72
564.637	46162.24
564.836	46410.04
565.035	45816.13
565.234	46141.76
565.432	46111.04
565.631	45805.89
565.83	45850.95
566.029	45265.23
566.228	45422.92
566.427	45607.24
566.625	45310.28
566.824	44767.57
567.023	45185.36
567.222	44564.82
567.42	45414.73
567.619	45230.41
567.818	44480.86
568.016	44718.42
568.215	45392.2
568.414	44573.02
568.612	44622.17
568.811	43981.15
569.01	44603.74
569.208	44001.63
569.407	44538.2
569.605	44204.38
569.804	44306.78
570.002	43901.28
570.201	44218.72
570.4	43721.06
570.598	43518.31
570.797	43448.68
570.995	43379.05
571.193	43094.38
571.392	44198.24
571.59	43170.16
571.789	43211.12
571.987	43053.42
572.186	43194.73
572.384	42967.41
572.582	43055.47
572.781	42957.17
572.979	42469.75
573.177	42789.24
573.376	42662.26
573.574	42461.56
573.772	42475.9
573.971	41853.31
574.169	41908.61
574.367	42054.01
574.565	42385.79
574.763	41902.46
574.962	42119.55
575.16	41138.57
575.358	41957.76
575.556	41187.72
575.754	41669
575.952	41300.36
576.151	41482.63
576.349	41245.07
576.547	40802.71
576.745	40937.87
576.943	40847.76
577.141	41070.99
577.339	40604.05
577.537	40579.48
577.735	40389.02
577.933	40581.52
578.131	40442.26
578.329	40010.14
578.527	40069.53
578.725	39911.84
578.923	40165.79
579.121	39960.99
579.319	39897.5
579.516	39793.06
579.714	39784.86
579.912	39176.62
580.11	39596.45
580.308	39573.92
580.506	39444.9
580.704	38599.09
580.901	39317.93
581.099	39319.98
581.297	38529.46
581.495	38668.72
581.692	38707.63
581.89	38316.47
582.088	38756.78
582.285	37763.52
582.483	38769.07
582.681	38216.12
582.878	38187.45
583.076	37872.06
583.274	38474.16
583.471	37792.19
583.669	37648.83
583.866	37562.82
584.064	37968.32
584.262	36960.72
584.459	37910.97
584.657	37310.92
584.854	37599.68
585.052	36886.99
585.249	37509.57
585.447	36973
585.644	36942.28
585.841	36755.92
586.039	36954.57
586.236	36487.64
586.434	36309.46
586.631	36270.55
586.828	36174.3
587.026	36368.85
587.223	36692.43
587.42	36215.26
587.618	35903.96
587.815	35885.53
588.012	35764.7
588.21	35676.64
588.407	35838.43
588.604	35228.13
588.801	35015.15
588.999	35342.82
589.196	35140.07
589.393	35164.65
589.59	35234.28
589.787	34920.94
589.984	34626.03
590.182	34331.12
590.379	34781.68
590.576	34445.81
590.773	34089.46
590.97	34066.94
591.167	34408.95
591.364	33733.12
591.561	34060.79
591.758	33839.61
591.955	33923.58
592.152	34470.39
592.349	33356.29
592.546	33640.96
592.743	33612.29
592.94	33274.37
593.137	33194.5
593.334	33681.92
593.531	32995.85
593.727	32909.83
593.924	32803.34
594.121	32881.16
594.318	33055.24
594.515	32647.69
594.712	32967.18
594.908	32213.52
595.105	32436.75
595.302	32264.72
595.499	32487.95
595.696	32061.97
595.892	31871.51
596.089	31873.56
596.286	32018.97
596.482	31267.36
596.679	31382.05
596.876	31531.55
597.072	31525.41
597.269	31545.89
597.466	31207.97
597.662	31234.6
597.859	31066.66
598.055	31025.7
598.252	30896.68
598.448	30847.53
598.645	30609.96
598.841	30792.23
599.038	30661.16
599.234	30427.7
599.431	30149.17
599.627	30329.39
599.824	30059.06
600.02	29991.48
600.217	30159.41
600.413	30126.64
600.609	29542.97
600.806	29358.66
601.002	29930.04
601.198	29372.99
601.395	29254.21
601.591	29434.43
601.787	29188.67
601.984	29084.23
602.18	29973.05
602.376	29194.82
602.572	28879.43
602.769	29100.61
602.965	28674.63
603.161	28678.73
603.357	28484.17
603.553	28691.02
603.75	28523.08
603.946	28467.79
604.142	28355.15
604.338	27916.89
604.534	28119.63
604.73	27920.98
604.926	28242.51
605.122	28301.9
605.318	27841.11
605.514	27826.78
605.71	27284.06
605.906	27353.69
606.102	27546.2
606.298	27660.89
606.494	27720.28
606.69	27687.51
606.886	27359.84
607.082	27136.61
607.278	27597.4
607.474	26901.09
607.67	27257.44
607.866	26788.46
608.062	26946.15
608.257	26892.9
608.453	26952.29
608.649	27056.74
608.845	26622.57
609.041	26749.54
609.236	26790.5
609.432	26358.38
609.628	26708.58
609.824	26665.58
610.019	26178.16
610.215	26272.37
610.411	26329.71
610.606	26167.92
610.802	26215.02
610.998	26292.85
611.193	25737.85
611.389	26012.28
611.584	25870.97
611.78	25901.68
611.976	25905.78
612.171	25842.29
612.367	26042.99
612.562	25481.85
612.758	25469.56
612.953	25154.18
613.149	25490.04
613.344	25412.22
613.539	25719.42
613.735	25358.97
613.93	25653.88
614.126	25080.45
614.321	25361.02
614.517	25313.92
614.712	25139.84
614.907	24812.17
615.103	25164.42
615.298	25213.57
615.493	25297.53
615.688	24777.35
615.884	25016.96
616.079	24840.84
616.274	25094.79
616.47	24529.55
616.665	24881.8
616.86	24521.35
617.055	24543.88
617.25	24394.38
617.445	24584.84
617.641	24150.67
617.836	24633.99
618.031	23823
618.226	24388.24
618.421	23866
618.616	24412.81
618.811	23388.83
619.006	24314.51
619.201	23638.68
619.396	23638.68
619.591	23624.34
619.786	23947.92
619.981	23292.57
620.176	23648.92
620.371	23030.43
620.566	23130.78
620.761	22874.79
620.956	23089.82
621.151	22669.99
621.346	22979.23
621.541	22536.87
621.735	22856.36
621.93	22583.98
622.125	22403.75
622.32	22045.36
622.515	22031.02
622.709	22024.88
622.904	22039.22
623.099	21559.99
623.294	21873.33
623.488	21322.43
623.683	21459.64
623.878	21404.35
624.072	21322.43
624.267	21273.28
624.462	21062.33
624.656	20820.67
624.851	20843.2
625.046	20730.56
625.24	20603.59
625.435	20409.03
625.629	20681.41
625.824	20159.18
626.018	20437.7
626.213	19933.9
626.407	20234.96
626.602	19747.54
626.796	19952.34
626.991	19851.99
627.185	19473.11
627.38	19518.17
627.574	19491.54
627.768	19278.55
627.963	19299.03
628.157	18780.9
628.352	19069.66
628.546	18750.18
628.74	19352.28
628.935	18610.92
629.129	18924.26
629.323	18309.86
629.517	18240.23
629.712	18346.73
629.906	18193.13
630.1	18121.45
630.294	18111.21
630.489	17885.94
630.683	17810.16
630.877	17834.74
631.071	17611.51
631.265	17324.79
631.459	17472.25
631.653	17474.29
631.848	17199.87
632.042	17095.42
632.236	17261.3
632.43	16982.78
632.624	17201.91
632.818	16872.19
633.012	16612.1
633.206	16620.29
633.4	16700.16
633.594	16319.24
633.788	16587.52
633.982	16648.96
634.176	16474.88
634.369	16182.03
634.563	16278.28
634.757	15985.42
634.951	16018.19
635.145	15872.78
635.339	15854.35
635.533	15639.31
635.726	15897.36
635.92	15469.33
636.114	15647.51
636.308	15231.77
636.501	15473.43
636.695	15196.95
636.889	15311.64
637.083	15149.85
637.276	14859.04
637.47	14871.33
637.664	14791.45
637.857	14850.85
638.051	14697.25
638.244	14660.38
638.438	14463.78
638.632	14349.09
638.825	14291.75
639.019	14306.09
639.212	14240.55
639.406	14031.66
639.599	13982.51
639.793	14062.38
639.986	13914.92
640.18	13990.7
640.373	13736.75
640.567	13574.96
640.76	13724.46
640.954	13538.1
641.147	13480.75
641.34	13298.49
641.534	13304.63
641.727	13189.94
641.92	13243.19
642.114	13103.93
642.307	13179.7
642.5	13099.83
642.694	12536.64
642.887	12882.75
643.08	12788.54
643.273	12727.1
643.467	12725.05
643.66	12546.88
643.853	12624.7
644.046	12499.78
644.239	12639.04
644.432	12290.88
644.626	12356.42
644.819	12313.41
645.012	12297.03
645.205	12194.63
645.398	12241.73
645.591	12084.04
645.784	11805.52
645.977	11948.87
646.17	12038.98
646.363	11903.82
646.556	11647.82
646.749	11426.64
646.942	11656.01
647.135	11475.79
647.328	11520.85
647.521	11262.8
647.714	11490.13
647.907	11330.39
648.099	11221.84
648.292	11084.63
648.485	11146.07
648.678	10890.07
648.871	11045.72
649.064	10920.79
649.256	10947.42
649.449	10730.33
649.642	10773.34
649.835	10648.41
650.027	10742.62
650.22	10808.16
650.413	10562.4
650.605	10449.76
650.798	10607.45
650.991	10535.78
651.183	10171.24
651.376	10300.26
651.568	10363.75
651.761	10083.17
651.954	10130.28
652.146	10187.62
652.339	10046.31
652.531	9929.58
652.724	10087.27
652.916	9667.44
653.109	9907.05
653.301	9886.57
653.494	9763.69
653.686	9530.22
653.879	9655.15
654.071	9603.95
654.263	9460.59
654.456	9640.81
654.648	9577.33
654.84	9411.44
655.033	9397.1
655.225	9253.75
655.417	9247.6
655.61	9284.47
655.802	9218.93
655.994	9089.91
656.186	9149.3
656.379	9143.16
656.571	9048.95
656.763	8967.03
656.955	8932.22
657.148	9014.13
657.34	8964.98
657.532	8639.36
657.724	8854.39
657.916	8575.87
658.108	8751.99
658.3	8715.13
658.492	8768.38
658.684	8317.83
658.876	8516.48
659.068	8315.78
659.26	8295.3
659.452	8407.94
659.644	8383.36
659.836	8264.58
660.028	8362.88
660.22	8151.94
660.412	8137.6
660.604	8129.41
660.796	8199.04
660.988	8000.39
661.18	8096.64
661.372	7973.77
661.563	8070.02
661.755	7822.22
661.947	7967.62
662.139	7873.42
662.331	7711.63
662.522	7574.41
662.714	7662.48
662.906	7611.28
663.097	7709.58
663.289	7533.45
663.481	7408.53
663.673	7682.95
663.864	7451.53
664.056	7424.91
664.247	7252.88
664.439	7326.61
664.631	7365.52
664.822	7517.07
665.014	7269.27
665.205	7394.19
665.397	7078.8
665.588	7326.61
665.78	7228.31
665.971	6910.87
666.163	7224.21
666.354	7230.35
666.546	7064.47
666.737	7060.37
666.929	6996.89
667.12	6882.2
667.311	6925.21
667.503	6749.08
667.694	6894.49
667.885	6859.67
668.077	6943.64
668.268	6658.97
668.459	6744.99
668.651	6910.87
668.842	6732.7
669.033	6706.07
669.224	6415.26
669.416	6679.45
669.607	6648.73
669.798	6476.7
669.989	6693.79
670.18	6626.2
670.371	6484.89
670.563	6474.65
670.754	6503.32
670.945	6417.31
671.136	6458.27
671.327	6349.73
671.518	6445.98
671.709	6359.97
671.9	6400.93
672.091	6460.32
672.282	6339.49
672.473	6267.81
672.664	6271.9
672.855	6302.62
673.046	6431.65
673.237	6230.94
673.428	6224.8
673.619	6247.33
673.809	6069.16
674	6294.43
674.191	6065.06
674.382	6171.55
674.573	6417.31
674.764	6249.38
674.954	6226.85
675.145	6091.68
675.336	6189.99
675.527	6130.59
675.717	6136.74
675.908	6001.57
676.099	5977
676.289	6020
676.48	6079.4
676.671	6050.72
676.861	5997.48
677.052	5929.89
677.243	5993.38
677.433	5944.23
677.624	6120.35
677.814	5919.65
678.005	5956.52
678.195	5888.93
678.386	5829.54
678.576	5843.88
678.767	5917.61
678.957	5847.97
679.148	5874.6
679.338	5882.79
679.529	6073.25
679.719	5854.12
679.909	6124.45
680.1	5755.82
680.29	5858.21
680.481	5680.04
680.671	6005.67
680.861	5843.88
681.052	5770.15
681.242	5749.67
681.432	5850.02
681.622	5837.73
681.813	5942.18
682.003	5712.81
682.193	5796.78
682.383	5893.03
682.573	5692.33
682.764	5788.58
682.954	5901.22
683.144	5786.54
683.334	5811.11
683.524	5786.54
683.714	5651.37
683.904	5809.06
684.094	5733.29
684.284	5729.19
684.474	5641.13
684.664	5630.89
684.854	5534.64
685.044	5653.42
685.234	5620.65
685.424	5569.45
685.614	5528.49
685.804	5616.55
685.994	5544.88
686.184	5741.48
686.374	5335.98
686.564	5424.05
686.753	5565.36
686.943	5249.97
687.133	5454.76
687.323	5471.15
687.513	5522.35
687.702	5278.64
687.892	5366.7
688.082	5305.26
688.272	5282.74
688.461	5354.41
688.651	5213.1
688.841	5079.99
689.03	5170.1
689.22	5059.51
689.41	5079.99
689.599	5034.93
689.789	5116.85
689.979	5131.19
690.168	5137.33
690.358	4916.15
690.547	4950.96
690.737	4914.1
690.926	4914.1
691.116	4983.73
691.305	4957.11
691.495	4709.3
691.684	4649.91
691.874	4805.56
692.063	4744.12
692.252	4701.11
692.442	4588.47
692.631	4529.08
692.82	4639.67
693.01	4545.47
693.199	4547.51
693.388	4635.58
693.578	4539.32
693.767	4508.6
693.956	4668.34
694.146	4596.67
694.335	4666.3
694.524	4387.77
694.713	4398.01
694.902	4189.12
695.092	4322.24
695.281	4330.43
695.47	4328.38
695.659	4361.15
695.848	4277.18
696.037	4193.22
696.226	4246.46
696.415	4283.33
696.604	4320.19
696.793	4219.84
696.982	4082.63
697.171	4244.42
697.36	4178.88
697.549	4146.11
697.738	4060.1
697.927	4156.35
698.116	4139.97
698.305	3982.28
698.494	4193.22
698.683	4010.95
698.872	4058.05
699.061	4086.72
699.25	4010.95
699.438	4107.2
699.627	3992.52
699.816	3912.64
700.005	3935.17
700.193	3994.56
700.382	4060.1
700.571	4195.26
700.76	3957.7
700.948	4010.95
701.137	4060.1
701.326	3998.66
701.514	3935.17
701.703	3980.23
701.892	3922.88
702.08	4017.09
702.269	3969.99
702.457	3863.49
702.646	3867.59
702.834	3935.17
703.023	4025.28
703.212	3875.78
703.4	3834.82
703.589	3910.6
703.777	3720.14
703.965	3888.07
704.154	3771.33
704.342	3881.92
704.531	3896.26
704.719	3875.78
704.907	3959.75
705.096	3879.88
705.284	3840.97
705.472	3953.6
705.661	3861.45
705.849	3830.73
706.037	3871.68
706.226	3898.31
706.414	3808.2
706.602	3795.91
706.79	3881.92
706.979	3785.67
707.167	3869.64
707.355	3892.16
707.543	3838.92
707.731	3959.75
707.919	3701.7
708.107	3818.44
708.296	3877.83
708.484	3832.77
708.672	3881.92
708.86	3787.72
709.048	3806.15
709.236	3806.15
709.424	3924.93
709.612	3859.4
709.8	3814.34
709.988	3873.73
710.176	3855.3
710.364	3920.84
710.551	3812.29
710.739	3791.81
710.927	3812.29
711.115	3832.77
711.303	3961.8
711.491	3998.66
711.679	3967.94
711.866	3972.04
712.054	3910.6
712.242	3943.36
712.43	3976.13
712.617	3998.66
712.805	3984.32
712.993	3918.79
713.181	3910.6
713.368	3902.4
713.556	3945.41
713.744	3871.68
713.931	3943.36
714.119	4006.85
714.306	3845.06
714.494	4074.43
714.682	3924.93
714.869	3929.03
715.057	3912.64
715.244	3951.56
715.432	4084.67
715.619	3955.65
715.807	3998.66
715.994	3926.98
716.182	3955.65
716.369	4010.95
716.556	3972.04
716.744	3779.53
716.931	3929.03
717.119	3957.7
717.306	3929.03
717.493	3824.58
717.681	4131.78
717.868	4066.24
718.055	3963.84
718.242	4033.47
718.43	4113.35
718.617	4078.53
718.804	4084.67
718.991	4076.48
719.179	4086.72
719.366	4051.91
719.553	4123.59
719.74	4139.97
719.927	4088.77
720.114	4051.91
720.301	4164.54
720.488	4139.97
720.676	3904.45
720.863	4082.63
721.05	4215.74
721.237	4045.76
721.424	4148.16
721.611	4084.67
721.798	4090.82
721.985	4125.63
722.172	4191.17
722.358	4166.59
722.545	4148.16
722.732	4086.72
722.919	4131.78
723.106	4256.7
723.293	4195.26
723.48	4207.55
723.667	4027.33
723.853	4144.06
724.04	4295.61
724.227	4225.98
724.414	4154.3
724.6	4152.26
724.787	4205.5
724.974	4277.18
725.161	4146.11
725.347	4160.45
725.534	4291.52
725.72	4219.84
725.907	4236.22
726.094	4189.12
726.28	4213.7
726.467	4107.2
726.653	4230.08
726.84	4281.28
727.027	4367.29
727.213	4086.72
727.4	4287.42
727.586	4359.1
727.773	4312
727.959	4285.37
728.145	4322.24
728.332	4180.93
728.518	4230.08
728.705	4142.02
728.891	4344.77
729.077	4279.23
729.264	4154.3
729.45	4205.5
729.636	4514.75
729.823	4230.08
730.009	4348.86
730.195	4424.64
730.382	4254.66
730.568	4369.34
730.754	4209.6
730.94	4518.84
731.126	4355.01
731.313	4549.56
731.499	4340.67
731.685	4496.32
731.871	4475.84
732.057	4355.01
732.243	4389.82
732.429	4285.37
732.615	4426.68
732.801	4266.94
732.987	4441.02
733.173	4174.78
733.359	4484.03
733.545	4185.02
733.731	4328.38
733.917	4355.01
734.103	4342.72
734.289	4475.84
734.475	4336.57
734.661	4412.35
734.847	4350.91
735.033	4295.61
735.219	4262.85
735.404	4303.81
735.59	4297.66
735.776	4346.81
735.962	4240.32
736.148	4328.38
736.333	4291.52
736.519	4271.04
736.705	4340.67
736.89	4219.84
737.076	4365.25
737.262	4189.12
737.447	4277.18
737.633	4213.7
737.819	4361.15
738.004	4242.37
738.19	4273.09
738.375	4322.24
738.561	4404.16
738.747	4203.46
738.932	4346.81
739.118	4328.38
739.303	4342.72
739.489	4402.11
739.674	4221.89
739.859	4223.94
740.045	4279.23
740.23	4166.59
740.416	4109.25
740.601	4228.03
740.786	4127.68
740.972	4207.55
741.157	4137.92
741.342	4033.47
741.528	4031.43
741.713	4127.68
741.898	4127.68
742.084	3992.52
742.269	4205.5
742.454	4225.98
742.639	4170.69
742.824	4058.05
743.01	4107.2
743.195	4045.76
743.38	4103.11
743.565	3898.31
743.75	3953.6
743.935	4021.19
744.12	4033.47
744.305	3824.58
744.49	3873.73
744.675	3943.36
744.86	3812.29
745.045	3879.88
745.23	3734.47
745.415	3834.82
745.6	3984.32
745.785	3789.77
745.97	3701.7
746.155	3720.14
746.34	3668.94
746.525	3718.09
746.71	3822.53
746.895	3685.32
747.079	3591.11
747.264	3757
747.449	3800.01
747.634	3568.59
747.819	3552.2
748.003	3593.16
748.188	3724.23
748.373	3572.68
748.557	3541.96
748.742	3519.43
748.927	3554.25
749.111	3382.22
749.296	3296.21
749.481	3503.05
749.665	3378.12
749.85	3324.88
750.034	3339.21
750.219	3273.68
750.404	3285.97
750.588	3265.49
750.773	3183.57
750.957	3236.81
751.141	3316.69
751.326	3177.42
751.51	3048.4
751.695	3128.27
751.879	3036.11
752.064	3181.52
752.248	3163.09
752.432	3068.88
752.617	3001.3
752.801	3085.26
752.985	2917.33
753.17	2927.57
753.354	2960.34
753.538	3021.78
753.722	2749.4
753.907	2898.9
754.091	2880.47
754.275	2833.36
754.459	2747.35
754.643	2679.77
754.828	2960.34
755.012	2816.98
755.196	2636.76
755.38	2712.53
755.564	2755.54
755.748	2659.29
755.932	2714.58
756.116	2636.76
756.3	2647
756.484	2573.27
756.668	2567.13
756.852	2528.22
757.036	2427.87
757.22	2462.68
757.404	2526.17
757.588	2501.59
757.772	2540.51
757.956	2360.28
758.14	2489.31
758.323	2313.18
758.507	2448.35
758.691	2313.18
758.875	2520.03
759.059	2362.33
759.242	2350.04
759.426	2333.66
759.61	2356.19
759.794	2362.33
759.977	2313.18
760.161	2388.96
760.345	2284.51
760.528	2188.25
760.712	2159.58
760.895	2180.06
761.079	2288.61
761.263	2149.34
761.446	2151.39
761.63	2206.69
761.813	2196.45
761.997	2126.82
762.18	2192.35
762.364	2003.94
762.547	2030.56
762.731	2143.2
762.914	2126.82
763.098	2135.01
763.281	2055.14
763.464	2132.96
763.648	2034.66
763.831	1985.51
764.015	1868.77
764.198	2034.66
764.381	1989.6
764.564	1967.07
764.748	2016.23
764.931	1954.79
765.114	1922.02
765.297	1948.64
765.481	1850.34
765.664	1956.83
765.847	1858.53
766.03	1940.45
766.213	1776.61
766.397	1774.56
766.58	1862.63
766.763	1960.93
766.946	1907.68
767.129	1866.72
767.312	1817.57
767.495	1815.52
767.678	1829.86
767.861	1749.99
768.044	1754.09
768.227	1905.63
768.41	1709.03
768.593	1922.02
768.776	1731.56
768.959	1788.9
769.142	1813.48
769.324	1749.99
769.507	1723.37
769.69	1696.74
769.873	1651.69
770.056	1733.61
770.239	1631.21
770.421	1813.48
770.604	1684.45
770.787	1620.97
770.97	1686.5
771.152	1526.76
771.335	1741.8
771.518	1649.64
771.7	1633.26
771.883	1663.97
772.066	1502.19
772.248	1537
772.431	1620.97
772.613	1592.3
772.796	1573.86
772.978	1551.34
773.161	1625.06
773.343	1524.71
773.526	1473.51
773.708	1432.55
773.891	1448.94
774.073	1489.9
774.256	1530.86
774.438	1557.48
774.621	1414.12
774.803	1465.32
774.985	1465.32
775.168	1516.52
775.35	1475.56
775.532	1332.2
775.715	1475.56
775.897	1346.54
776.079	1266.67
776.261	1387.5
776.444	1354.73
776.626	1448.94
776.808	1190.89
776.99	1266.67
777.173	1395.69
777.355	1309.68
777.537	1315.82
777.719	1348.59
777.901	1321.96
778.083	1111.02
778.265	1170.41
778.447	1188.85
778.629	1215.47
778.811	1238
778.993	1147.89
779.175	1244.14
779.357	1176.56
779.539	1190.89
779.721	1242.09
779.903	1108.98
780.085	1078.26
780.267	1192.94
780.449	1168.37
780.631	1184.75
780.812	1143.79
780.994	1141.74
781.176	1080.3
781.358	1117.17
781.54	1092.59
781.721	1119.21
781.903	1100.78
782.085	1100.78
782.267	1000.43
782.448	1051.63
782.63	1031.15
782.812	977.91
782.993	1022.96
783.175	1096.69
783.357	957.43
783.538	1051.63
783.72	1033.2
783.901	934.9
784.083	924.66
784.264	910.32
784.446	898.03
784.627	902.13
784.809	982
784.99	914.42
785.172	867.31
785.353	928.75
785.535	938.99
785.716	895.99
785.897	775.16
786.079	830.45
786.26	916.47
786.441	922.61
786.623	676.85
786.804	803.83
786.985	883.7
787.167	836.6
787.348	836.6
787.529	797.68
787.71	898.03
787.891	818.16
788.073	762.87
788.254	666.61
788.435	898.03
788.616	723.96
788.797	697.33
788.978	709.62
789.159	715.77
789.34	721.91
789.522	719.86
789.703	754.68
789.884	764.92
790.065	732.15
790.246	771.06
790.427	693.24
790.607	723.96
790.788	732.15
790.969	676.85
791.15	689.14
791.331	680.95
791.512	644.09
791.693	637.94
791.874	644.09
792.054	689.14
792.235	666.61
792.416	590.84
792.597	605.17
792.778	625.65
792.958	635.89
793.139	623.61
793.32	676.85
793.5	588.79
793.681	705.53
793.862	605.17
794.042	586.74
794.223	592.89
794.404	654.33
794.584	496.63
794.765	556.02
794.945	625.65
795.126	572.41
795.306	592.89
795.487	576.5
795.667	547.83
795.848	537.59
796.028	494.58
796.209	621.56
796.389	541.69
796.57	529.4
796.75	474.1
796.93	488.44
797.111	484.34
797.291	427
797.471	492.54
797.652	527.35
797.832	527.35
798.012	590.84
798.192	429.05
798.373	457.72
798.553	617.46
798.733	611.32
798.913	513.02
799.093	486.39
799.274	486.39
799.454	510.97
799.634	515.06
799.814	451.58
799.994	543.74
800.174	470.01
800.354	513.02
800.534	392.19
800.714	566.26
800.894	388.09
801.074	429.05
801.254	410.62
801.434	371.71
801.614	375.8
801.794	402.43
801.974	1473.51
802.154	445.43
802.334	488.44
802.514	396.28
802.693	408.57
802.873	404.47
803.053	513.02
803.233	437.24
803.413	410.62
803.592	371.71
803.772	371.71
803.952	392.19
804.131	363.51
804.311	396.28
804.491	433.15
804.67	386.04
804.85	355.32
805.03	361.47
805.209	394.23
805.389	414.71
805.568	357.37
805.748	328.7
805.928	320.51
806.107	359.42
806.287	381.95
806.466	396.28
806.646	359.42
806.825	359.42
807.004	347.13
807.184	330.75
807.363	355.32
807.543	392.19
807.722	310.27
807.901	355.32
808.081	470.01
808.26	295.93
808.439	349.18
808.619	340.99
808.798	271.36
808.977	310.27
809.156	300.03
809.336	293.88
809.515	322.56
809.694	244.73
809.873	347.13
810.052	285.69
810.231	392.19
810.411	328.7
810.59	367.61
810.769	332.79
810.948	320.51
811.127	246.78
811.306	230.4
811.485	267.26
811.664	328.7
811.843	297.98
812.022	259.07
812.201	361.47
812.38	269.31
812.559	205.82
812.737	293.88
812.916	263.16
813.095	242.68
813.274	357.37
813.453	226.3
813.632	363.51
813.811	310.27
813.989	281.6
814.168	314.36
814.347	308.22
814.526	254.97
814.704	367.61
814.883	334.84
815.062	263.16
815.24	297.98
815.419	216.06
815.598	265.21
815.776	207.87
815.955	199.68
816.133	134.14
816.312	224.25
816.49	214.01
816.669	293.88
816.847	234.49
817.026	254.97
817.204	263.16
817.383	295.93
817.561	185.34
817.74	224.25
817.918	236.54
818.097	136.19
818.275	207.87
818.453	304.12
818.632	277.5
818.81	261.12
818.988	224.25
819.167	228.35
819.345	228.35
819.523	269.31
819.701	248.83
819.879	273.4
820.058	297.98
820.236	275.45
820.414	164.86
820.592	259.07
820.77	269.31
820.948	230.4
821.127	220.16
821.305	273.4
821.483	240.64
821.661	226.3
821.839	211.96
822.017	152.57
822.195	236.54
822.373	218.11
822.551	232.44
822.729	238.59
822.907	156.67
823.085	195.58
823.262	240.64
823.44	183.29
823.618	158.72
823.796	175.1
823.974	216.06
824.152	125.95
824.329	214.01
824.507	187.39
824.685	177.15
824.863	250.88
825.04	226.3
825.218	228.35
825.396	203.77
825.574	228.35
825.751	136.19
825.929	257.02
826.107	173.05
826.284	140.29
826.462	201.72
826.639	123.9
826.817	181.25
826.994	218.11
827.172	60.42
827.349	277.5
827.527	279.55
827.704	134.14
827.882	183.29
828.059	185.34
828.237	154.62
828.414	171.01
828.591	125.95
828.769	162.81
828.946	93.18
829.124	199.68
829.301	203.77
829.478	189.44
829.655	154.62
829.833	146.43
830.01	66.56
830.187	175.1
830.364	199.68
830.542	187.39
830.719	220.16
830.896	74.75
831.073	97.28
831.25	150.53
831.427	199.68
831.604	128
831.782	144.38
831.959	191.49
832.136	154.62
832.313	93.18
832.49	84.99
832.667	74.75
832.844	146.43
833.021	218.11
833.198	130.05
833.374	146.43
833.551	132.09
833.728	117.76
833.905	134.14
834.082	64.51
834.259	175.1
834.436	160.77
834.612	111.61
834.789	123.9
834.966	84.99
835.143	109.57
835.319	156.67
835.496	144.38
835.673	125.95
835.85	216.06
836.026	171.01
836.203	160.77
836.38	125.95
836.556	138.24
836.733	128
836.909	179.2
837.086	76.8
837.262	84.99
837.439	91.13
837.616	128
837.792	97.28
837.968	134.14
838.145	48.13
838.321	11.26
838.498	134.14
838.674	134.14
838.851	107.52
839.027	56.32
839.203	58.37
839.38	76.8
839.556	115.71
839.732	136.19
839.909	97.28
840.085	185.34
840.261	84.99
840.437	19.46
840.614	48.13
840.79	166.91
840.966	156.67
841.142	166.91
841.318	93.18
841.494	68.61
841.671	132.09
841.847	101.37
842.023	50.18
842.199	130.05
842.375	72.7
842.551	56.32
842.727	54.27
842.903	130.05
843.079	48.13
843.255	54.27
843.431	128
843.607	109.57
843.783	-31.74
843.959	158.72
844.134	41.98
844.31	130.05
844.486	21.5
844.662	84.99
844.838	87.04
845.013	115.71
845.189	107.52
845.365	91.13
845.541	35.84
845.716	105.47
845.892	11.26
846.068	64.51
846.244	44.03
846.419	152.57
846.595	3.07
846.77	17.41
846.946	91.13
847.122	3.07
847.297	58.37
847.473	89.09
847.648	46.08
847.824	125.95
847.999	37.89
848.175	13.31
848.35	125.95
848.526	152.57
848.701	89.09
848.876	105.47
849.052	101.37
849.227	76.8
849.403	93.18
849.578	44.03
849.753	74.75
849.929	62.46
850.104	-1.02
850.279	136.19
850.454	97.28
850.63	166.91
850.805	91.13
850.98	68.61
851.155	-7.17
851.33	84.99
851.505	70.65
851.681	44.03
851.856	41.98
852.031	70.65
852.206	25.6
852.381	-13.31
852.556	11.26
852.731	138.24
852.906	119.81
853.081	101.37
853.256	111.61
853.431	13.31
853.606	29.7
853.781	7.17
853.956	-46.08
854.131	183.29
854.305	48.13
854.48	35.84
854.655	44.03
854.83	1.02
855.005	89.09
855.18	93.18
855.354	78.85
855.529	121.85
855.704	130.05
855.879	58.37
856.053	-58.37
856.228	119.81
856.403	-17.41
856.577	146.43
856.752	-7.17
856.926	19.46
857.101	140.29
857.276	-11.26
857.45	70.65
857.625	68.61
857.799	39.94
857.974	60.42
858.148	21.5
858.323	87.04
858.497	58.37
858.672	-23.55
858.846	27.65
859.02	78.85
859.195	19.46
859.369	21.5
859.543	60.42
859.718	78.85
859.892	46.08
860.066	19.46
860.241	-41.98
860.415	95.23
860.589	56.32
860.763	142.33
860.938	93.18
861.112	99.33
861.286	19.46
861.46	3.07
861.634	17.41
861.808	19.46
861.982	76.8
862.157	-103.42
862.331	3.07
862.505	-21.5
862.679	11.26
862.853	19.46
863.027	-21.5
863.201	140.29
863.375	56.32
863.549	39.94
863.722	113.66
863.896	76.8
864.07	56.32
864.244	5.12
864.418	109.57
864.592	52.22
864.766	87.04
864.939	37.89
865.113	3.07
865.287	105.47
865.461	29.7
865.634	3.07
865.808	41.98
865.982	60.42
866.156	27.65
866.329	21.5
866.503	46.08
866.676	121.85
866.85	37.89
867.024	48.13
867.197	60.42
867.371	91.13
867.544	80.89
867.718	3.07
867.891	62.46
868.065	27.65
868.238	13.31
868.412	21.5
868.585	-9.22
868.759	46.08
868.932	3.07
869.105	-62.46
869.279	-9.22
869.452	17.41
869.625	78.85
869.799	-5.12
869.972	-50.18
870.145	5.12
870.319	11.26
870.492	-54.27
870.665	54.27
870.838	76.8
871.011	31.74
871.185	27.65
871.358	-35.84
871.531	89.09
871.704	1.02
871.877	46.08
872.05	-29.7
872.223	48.13
872.396	68.61
872.569	68.61
872.742	1.02
872.915	60.42
873.088	1.02
873.261	-13.31
873.434	52.22
873.607	-11.26
873.78	115.71
873.953	-29.7
874.126	48.13
874.299	-1.02
874.471	-1.02
874.644	44.03
874.817	72.7
874.99	66.56
875.163	-9.22
875.335	82.94
875.508	-46.08
875.681	29.7
875.853	82.94
876.026	7.17
876.199	74.75
876.371	15.36
876.544	-29.7
876.717	52.22
876.889	35.84
877.062	95.23
877.234	25.6
877.407	-52.22
877.579	3.07
877.752	37.89
877.924	80.89
878.097	9.22
878.269	-60.42
878.442	-35.84
878.614	111.61
878.786	35.84
878.959	35.84
879.131	19.46
879.303	-113.66
879.476	21.5
879.648	74.75
879.82	35.84
879.993	41.98
880.165	-58.37
880.337	-37.89
880.509	37.89
880.681	-41.98
880.854	-82.94
881.026	54.27
881.198	99.33
881.37	41.98
881.542	3.07
881.714	-44.03
881.886	52.22
882.058	74.75
882.23	23.55
882.402	11.26
882.574	93.18
882.746	41.98
882.918	64.51
883.09	-17.41
883.262	56.32
883.434	1.02
883.606	-37.89
883.778	25.6
883.95	101.37
884.122	56.32
884.293	11.26
884.465	19.46
884.637	11.26
884.809	-39.94
884.98	35.84
885.152	76.8
885.324	78.85
885.496	7.17
885.667	-48.13
885.839	31.74
886.011	91.13
886.182	39.94
886.354	-13.31
886.525	70.65
886.697	15.36
886.869	-31.74
887.04	35.84
887.212	41.98
887.383	105.47
887.555	80.89
887.726	-33.79
887.897	37.89
888.069	54.27
888.24	13.31
888.412	46.08
888.583	21.5
888.754	39.94
888.926	-54.27
889.097	29.7
889.268	3.07
889.44	11.26
889.611	-64.51
889.782	15.36
889.953	-50.18
890.125	3.07
890.296	-29.7
890.467	-27.65
890.638	39.94
890.809	31.74
890.98	17.41
891.151	128
891.323	3.07
891.494	-46.08
891.665	97.28
891.836	-44.03
892.007	17.41
892.178	13.31
892.349	76.8
892.52	-13.31
892.691	39.94
892.862	7.17
893.032	15.36
893.203	-74.75
893.374	64.51
893.545	48.13
893.716	48.13
893.887	109.57
894.057	3.07
894.228	-21.5
894.399	-5.12
894.57	64.51
894.74	-11.26
894.911	-9.22
895.082	37.89
895.253	-64.51
895.423	23.55
895.594	50.18
895.764	-9.22
895.935	3.07
896.106	33.79
896.276	-13.31
896.447	-1.02
896.617	-5.12
896.788	-15.36
896.958	25.6
897.129	-44.03
897.299	19.46
897.47	-9.22
897.64	27.65
897.81	-11.26
897.981	-9.22
898.151	-21.5
898.322	21.5
898.492	-13.31
898.662	-5.12
898.832	-3.07
899.003	-7.17
899.173	60.42
899.343	-11.26
899.513	-46.08
