Data from USB4F104151__94__13-06-26-236.txt Node

Date: Fri Mar 14 13:06:26 EDT 2025
User: louis
Spectrometer: USB4F10415
Trigger mode: 4
Integration Time (sec): 4.000000E-2
Scans to average: 1
Electric dark correction enabled: true
Nonlinearity correction enabled: false
Boxcar width: 0
XAxis mode: Wavelengths
Number of Pixels in Spectrum: 3648
>>>>>Begin Spectral Data<<<<<
178.204	-202.41
178.424	-202.41
178.644	-202.41
178.864	-237.22
179.084	-220.84
179.304	-54.95
179.524	-30.38
179.744	-40.62
179.964	123.22
180.184	57.68
180.404	37.2
180.624	-24.23
180.844	8.53
181.064	-28.33
181.283	6.49
181.503	-63.15
181.723	8.53
181.943	-81.58
182.163	76.12
182.383	-13.99
182.602	129.36
182.822	80.21
183.042	-28.33
183.262	4.44
183.482	24.92
183.701	41.3
183.921	-48.81
184.141	39.25
184.361	98.64
184.58	37.2
184.8	53.59
185.02	-7.85
185.239	76.12
185.459	-54.95
185.679	123.22
185.898	-54.95
186.118	33.11
186.338	26.96
186.557	74.07
186.777	-30.38
186.997	-3.75
187.216	-18.09
187.436	125.27
187.655	-32.43
187.875	119.12
188.095	33.11
188.314	67.92
188.534	59.73
188.753	63.83
188.973	33.11
189.192	129.36
189.412	67.92
189.631	57.68
189.851	33.11
190.07	59.73
190.29	31.06
190.509	-22.19
190.729	10.58
190.948	106.84
191.168	201.04
191.387	96.6
191.607	-3.75
191.826	123.22
192.045	-32.43
192.265	63.83
192.484	90.45
192.704	14.68
192.923	24.92
193.142	82.26
193.362	6.49
193.581	65.88
193.8	20.82
194.02	86.36
194.239	-120.49
194.458	63.83
194.678	33.11
194.897	24.92
195.116	41.3
195.335	18.77
195.555	129.36
195.774	6.49
195.993	98.64
196.212	22.87
196.432	20.82
196.651	59.73
196.87	20.82
197.089	133.46
197.308	86.36
197.528	53.59
197.747	-34.47
197.966	-24.23
198.185	86.36
198.404	-32.43
198.623	16.73
198.842	57.68
199.062	108.88
199.281	82.26
199.5	-11.95
199.719	41.3
199.938	-3.75
200.157	37.2
200.376	67.92
200.595	57.68
200.814	8.53
201.033	4.44
201.252	90.45
201.471	-18.09
201.69	65.88
201.909	100.69
202.128	74.07
202.347	112.98
202.566	98.64
202.785	12.63
203.004	39.25
203.223	196.95
203.442	51.54
203.661	-24.23
203.879	26.96
204.098	43.35
204.317	16.73
204.536	69.97
204.755	94.55
204.974	74.07
205.193	104.79
205.411	147.8
205.63	29.01
205.849	69.97
206.068	37.2
206.287	-57
206.505	90.45
206.724	39.25
206.943	80.21
207.162	-38.57
207.381	24.92
207.599	33.11
207.818	123.22
208.037	24.92
208.255	82.26
208.474	18.77
208.693	24.92
208.911	16.73
209.13	49.49
209.349	80.21
209.567	41.3
209.786	94.55
210.005	49.49
210.223	-1.71
210.442	-16.04
210.661	29.01
210.879	96.6
211.098	-42.67
211.316	39.25
211.535	65.88
211.753	-1.71
211.972	49.49
212.191	78.16
212.409	2.39
212.628	59.73
212.846	43.35
213.065	78.16
213.283	98.64
213.502	0.34
213.72	49.49
213.938	12.63
214.157	-7.85
214.375	90.45
214.594	29.01
214.812	88.4
215.031	45.4
215.249	35.16
215.467	100.69
215.686	24.92
215.904	8.53
216.122	94.55
216.341	61.78
216.559	49.49
216.778	108.88
216.996	72.02
217.214	31.06
217.432	74.07
217.651	8.53
217.869	49.49
218.087	-7.85
218.306	-20.14
218.524	37.2
218.742	31.06
218.96	51.54
219.179	-7.85
219.397	-1.71
219.615	78.16
219.833	41.3
220.051	-26.28
220.27	86.36
220.488	121.17
220.706	80.21
220.924	49.49
221.142	49.49
221.36	98.64
221.578	-24.23
221.796	67.92
222.015	39.25
222.233	-65.19
222.451	166.23
222.669	-28.33
222.887	106.84
223.105	-20.14
223.323	4.44
223.541	31.06
223.759	69.97
223.977	24.92
224.195	117.08
224.413	117.08
224.631	65.88
224.849	57.68
225.067	123.22
225.285	20.82
225.503	61.78
225.721	-7.85
225.939	57.68
226.157	65.88
226.375	123.22
226.592	39.25
226.81	37.2
227.028	55.64
227.246	121.17
227.464	-44.71
227.682	18.77
227.9	43.35
228.117	20.82
228.335	14.68
228.553	65.88
228.771	61.78
228.989	117.08
229.206	39.25
229.424	57.68
229.642	24.92
229.86	-63.15
230.077	69.97
230.295	78.16
230.513	51.54
230.731	127.32
230.948	86.36
231.166	41.3
231.384	57.68
231.601	-3.75
231.819	127.32
232.037	65.88
232.254	-59.05
232.472	49.49
232.689	12.63
232.907	102.74
233.125	37.2
233.342	-16.04
233.56	45.4
233.777	12.63
233.995	45.4
234.213	100.69
234.43	8.53
234.648	31.06
234.865	98.64
235.083	67.92
235.3	43.35
235.518	0.34
235.735	139.6
235.953	57.68
236.17	49.49
236.388	41.3
236.605	49.49
236.822	67.92
237.04	33.11
237.257	141.65
237.475	-22.19
237.692	47.44
237.909	33.11
238.127	-24.23
238.344	37.2
238.562	123.22
238.779	26.96
238.996	-16.04
239.214	57.68
239.431	155.99
239.648	-28.33
239.865	43.35
240.083	65.88
240.3	55.64
240.517	61.78
240.735	110.93
240.952	106.84
241.169	78.16
241.386	12.63
241.603	67.92
241.821	33.11
242.038	37.2
242.255	43.35
242.472	2.39
242.689	94.55
242.907	29.01
243.124	29.01
243.341	8.53
243.558	0.34
243.775	-3.75
243.992	0.34
244.209	67.92
244.426	131.41
244.643	-65.19
244.86	-7.85
245.078	110.93
245.295	82.26
245.512	35.16
245.729	-81.58
245.946	24.92
246.163	102.74
246.38	8.53
246.597	-9.9
246.814	51.54
247.031	53.59
247.248	-18.09
247.464	-13.99
247.681	61.78
247.898	80.21
248.115	47.44
248.332	16.73
248.549	82.26
248.766	178.51
248.983	37.2
249.2	94.55
249.417	108.88
249.633	-48.81
249.85	51.54
250.067	57.68
250.284	123.22
250.501	37.2
250.717	80.21
250.934	-24.23
251.151	-7.85
251.368	43.35
251.585	10.58
251.801	45.4
252.018	51.54
252.235	110.93
252.451	4.44
252.668	49.49
252.885	125.27
253.102	67.92
253.318	82.26
253.535	35.16
253.752	24.92
253.968	-85.67
254.185	-28.33
254.401	-16.04
254.618	84.31
254.835	-28.33
255.051	115.03
255.268	131.41
255.484	84.31
255.701	-32.43
255.917	45.4
256.134	0.34
256.351	6.49
256.567	0.34
256.784	51.54
257	-52.91
257.217	69.97
257.433	49.49
257.65	59.73
257.866	110.93
258.082	-24.23
258.299	-1.71
258.515	61.78
258.732	12.63
258.948	41.3
259.165	33.11
259.381	-20.14
259.597	49.49
259.814	43.35
260.03	-30.38
260.246	61.78
260.463	106.84
260.679	49.49
260.895	24.92
261.112	55.64
261.328	-38.57
261.544	-24.23
261.761	135.51
261.977	33.11
262.193	-30.38
262.409	67.92
262.626	26.96
262.842	65.88
263.058	29.01
263.274	26.96
263.49	4.44
263.707	61.78
263.923	106.84
264.139	-20.14
264.355	4.44
264.571	74.07
264.787	-1.71
265.004	94.55
265.22	86.36
265.436	-11.95
265.652	6.49
265.868	16.73
266.084	45.4
266.3	0.34
266.516	-34.47
266.732	20.82
266.948	78.16
267.164	4.44
267.38	2.39
267.596	110.93
267.812	49.49
268.028	82.26
268.244	6.49
268.46	47.44
268.676	59.73
268.892	67.92
269.108	29.01
269.324	2.39
269.54	-42.67
269.756	43.35
269.972	-40.62
270.188	41.3
270.403	-54.95
270.619	33.11
270.835	65.88
271.051	80.21
271.267	35.16
271.483	2.39
271.698	143.7
271.914	53.59
272.13	92.5
272.346	108.88
272.562	47.44
272.777	33.11
272.993	16.73
273.209	31.06
273.425	53.59
273.64	-16.04
273.856	84.31
274.072	14.68
274.287	-28.33
274.503	90.45
274.719	26.96
274.934	55.64
275.15	26.96
275.366	51.54
275.581	18.77
275.797	35.16
276.012	24.92
276.228	35.16
276.444	90.45
276.659	35.16
276.875	65.88
277.09	65.88
277.306	57.68
277.521	45.4
277.737	37.2
277.952	98.64
278.168	18.77
278.383	65.88
278.599	10.58
278.814	45.4
279.03	57.68
279.245	121.17
279.461	-16.04
279.676	78.16
279.892	45.4
280.107	-46.76
280.322	29.01
280.538	53.59
280.753	31.06
280.969	59.73
281.184	37.2
281.399	84.31
281.615	45.4
281.83	59.73
282.045	88.4
282.26	2.39
282.476	53.59
282.691	31.06
282.906	65.88
283.122	6.49
283.337	-13.99
283.552	69.97
283.767	82.26
283.983	12.63
284.198	35.16
284.413	2.39
284.628	51.54
284.843	26.96
285.058	61.78
285.274	45.4
285.489	8.53
285.704	96.6
285.919	-3.75
286.134	29.01
286.349	43.35
286.564	55.64
286.779	84.31
286.995	-3.75
287.21	-22.19
287.425	0.34
287.64	0.34
287.855	61.78
288.07	2.39
288.285	10.58
288.5	123.22
288.715	53.59
288.93	69.97
289.145	8.53
289.36	74.07
289.575	59.73
289.79	133.46
290.004	2.39
290.219	145.75
290.434	-16.04
290.649	67.92
290.864	61.78
291.079	8.53
291.294	18.77
291.509	74.07
291.724	16.73
291.938	35.16
292.153	51.54
292.368	-5.8
292.583	-13.99
292.798	82.26
293.012	67.92
293.227	74.07
293.442	57.68
293.657	112.98
293.871	198.99
294.086	47.44
294.301	145.75
294.516	112.98
294.73	10.58
294.945	16.73
295.16	24.92
295.374	51.54
295.589	104.79
295.804	8.53
296.018	-13.99
296.233	90.45
296.447	2.39
296.662	2.39
296.877	117.08
297.091	53.59
297.306	49.49
297.52	20.82
297.735	55.64
297.949	10.58
298.164	47.44
298.378	57.68
298.593	20.82
298.807	-16.04
299.022	-36.52
299.236	117.08
299.451	37.2
299.665	-18.09
299.88	-3.75
300.094	35.16
300.309	-11.95
300.523	53.59
300.737	45.4
300.952	59.73
301.166	78.16
301.381	-3.75
301.595	90.45
301.809	45.4
302.024	6.49
302.238	-48.81
302.452	39.25
302.667	94.55
302.881	55.64
303.095	-5.8
303.309	49.49
303.524	65.88
303.738	51.54
303.952	4.44
304.166	125.27
304.381	-50.86
304.595	69.97
304.809	8.53
305.023	65.88
305.237	121.17
305.452	8.53
305.666	80.21
305.88	43.35
306.094	141.65
306.308	82.26
306.522	96.6
306.736	45.4
306.95	35.16
307.164	84.31
307.379	90.45
307.593	18.77
307.807	59.73
308.021	31.06
308.235	-22.19
308.449	-9.9
308.663	16.73
308.877	135.51
309.091	43.35
309.305	69.97
309.519	-69.29
309.733	90.45
309.947	4.44
310.161	59.73
310.374	76.12
310.588	92.5
310.802	20.82
311.016	35.16
311.23	-11.95
311.444	14.68
311.658	35.16
311.872	80.21
312.085	80.21
312.299	88.4
312.513	119.12
312.727	49.49
312.941	22.87
313.154	16.73
313.368	29.01
313.582	16.73
313.796	67.92
314.009	67.92
314.223	106.84
314.437	41.3
314.651	26.96
314.864	45.4
315.078	26.96
315.292	-5.8
315.505	49.49
315.719	-3.75
315.933	139.6
316.146	65.88
316.36	-28.33
316.573	57.68
316.787	69.97
317.001	67.92
317.214	-16.04
317.428	100.69
317.641	63.83
317.855	53.59
318.068	90.45
318.282	45.4
318.495	115.03
318.709	96.6
318.922	76.12
319.136	112.98
319.349	59.73
319.563	67.92
319.776	47.44
319.99	2.39
320.203	80.21
320.417	41.3
320.63	-18.09
320.843	131.41
321.057	92.5
321.27	94.55
321.483	106.84
321.697	90.45
321.91	49.49
322.124	59.73
322.337	82.26
322.55	18.77
322.763	106.84
322.977	59.73
323.19	12.63
323.403	-3.75
323.617	51.54
323.83	121.17
324.043	-7.85
324.256	55.64
324.469	65.88
324.683	92.5
324.896	33.11
325.109	74.07
325.322	10.58
325.535	43.35
325.748	135.51
325.962	143.7
326.175	55.64
326.388	31.06
326.601	43.35
326.814	160.08
327.027	0.34
327.24	102.74
327.453	-7.85
327.666	74.07
327.879	92.5
328.092	104.79
328.305	53.59
328.518	16.73
328.731	-34.47
328.944	16.73
329.157	55.64
329.37	22.87
329.583	106.84
329.796	94.55
330.009	57.68
330.222	100.69
330.435	45.4
330.648	86.36
330.861	67.92
331.073	35.16
331.286	49.49
331.499	14.68
331.712	14.68
331.925	61.78
332.138	110.93
332.35	63.83
332.563	74.07
332.776	143.7
332.989	74.07
333.202	-32.43
333.414	69.97
333.627	82.26
333.84	76.12
334.053	139.6
334.265	-11.95
334.478	76.12
334.691	51.54
334.903	8.53
335.116	29.01
335.329	2.39
335.541	45.4
335.754	61.78
335.966	51.54
336.179	4.44
336.392	45.4
336.604	59.73
336.817	135.51
337.029	94.55
337.242	82.26
337.454	98.64
337.667	90.45
337.88	139.6
338.092	63.83
338.305	88.4
338.517	-7.85
338.729	141.65
338.942	135.51
339.154	29.01
339.367	16.73
339.579	-5.8
339.792	53.59
340.004	98.64
340.217	0.34
340.429	14.68
340.641	51.54
340.854	41.3
341.066	8.53
341.278	78.16
341.491	61.78
341.703	-5.8
341.915	22.87
342.128	69.97
342.34	67.92
342.552	37.2
342.764	41.3
342.977	100.69
343.189	31.06
343.401	18.77
343.613	-42.67
343.826	61.78
344.038	33.11
344.25	61.78
344.462	22.87
344.674	53.59
344.886	106.84
345.099	16.73
345.311	12.63
345.523	-13.99
345.735	-11.95
345.947	94.55
346.159	65.88
346.371	12.63
346.583	24.92
346.795	65.88
347.007	41.3
347.219	59.73
347.431	51.54
347.643	41.3
347.855	90.45
348.067	90.45
348.279	-13.99
348.491	69.97
348.703	72.02
348.915	33.11
349.127	18.77
349.339	35.16
349.551	43.35
349.763	-22.19
349.975	-3.75
350.187	108.88
350.399	18.77
350.61	78.16
350.822	26.96
351.034	41.3
351.246	59.73
351.458	143.7
351.669	29.01
351.881	117.08
352.093	69.97
352.305	192.85
352.517	47.44
352.728	63.83
352.94	74.07
353.152	94.55
353.363	20.82
353.575	43.35
353.787	49.49
353.999	41.3
354.21	133.46
354.422	-48.81
354.633	-7.85
354.845	84.31
355.057	69.97
355.268	33.11
355.48	131.41
355.692	61.78
355.903	35.16
356.115	82.26
356.326	-69.29
356.538	106.84
356.749	123.22
356.961	196.95
357.172	74.07
357.384	0.34
357.595	133.46
357.807	74.07
358.018	33.11
358.23	49.49
358.441	168.27
358.653	-22.19
358.864	35.16
359.075	35.16
359.287	29.01
359.498	119.12
359.709	76.12
359.921	61.78
360.132	-5.8
360.344	-11.95
360.555	65.88
360.766	123.22
360.977	-11.95
361.189	149.84
361.4	10.58
361.611	31.06
361.823	22.87
362.034	10.58
362.245	-11.95
362.456	78.16
362.667	65.88
362.879	-7.85
363.09	55.64
363.301	88.4
363.512	33.11
363.723	57.68
363.935	-7.85
364.146	98.64
364.357	49.49
364.568	106.84
364.779	35.16
364.99	59.73
365.201	51.54
365.412	53.59
365.623	65.88
365.834	51.54
366.045	65.88
366.256	45.4
366.467	102.74
366.678	29.01
366.889	33.11
367.1	41.3
367.311	33.11
367.522	8.53
367.733	57.68
367.944	41.3
368.155	37.2
368.366	49.49
368.577	74.07
368.788	84.31
368.999	59.73
369.209	18.77
369.42	119.12
369.631	166.23
369.842	98.64
370.053	63.83
370.264	84.31
370.474	24.92
370.685	37.2
370.896	67.92
371.107	131.41
371.317	86.36
371.528	67.92
371.739	125.27
371.95	29.01
372.16	49.49
372.371	16.73
372.582	26.96
372.792	67.92
373.003	37.2
373.214	102.74
373.424	63.83
373.635	86.36
373.846	80.21
374.056	51.54
374.267	26.96
374.477	-38.57
374.688	74.07
374.898	100.69
375.109	-7.85
375.319	14.68
375.53	67.92
375.74	78.16
375.951	84.31
376.161	33.11
376.372	145.75
376.582	33.11
376.793	67.92
377.003	55.64
377.214	35.16
377.424	84.31
377.635	90.45
377.845	29.01
378.055	139.6
378.266	57.68
378.476	41.3
378.686	84.31
378.897	51.54
379.107	135.51
379.317	51.54
379.528	80.21
379.738	-30.38
379.948	-20.14
380.158	125.27
380.369	8.53
380.579	65.88
380.789	84.31
380.999	123.22
381.21	61.78
381.42	158.03
381.63	29.01
381.84	14.68
382.05	139.6
382.261	98.64
382.471	88.4
382.681	24.92
382.891	129.36
383.101	82.26
383.311	100.69
383.521	90.45
383.731	155.99
383.941	43.35
384.151	98.64
384.361	-7.85
384.571	139.6
384.781	135.51
384.991	174.42
385.201	92.5
385.411	65.88
385.621	59.73
385.831	63.83
386.041	106.84
386.251	100.69
386.461	135.51
386.671	41.3
386.881	139.6
387.091	14.68
387.301	51.54
387.511	125.27
387.72	22.87
387.93	57.68
388.14	33.11
388.35	67.92
388.56	12.63
388.769	201.04
388.979	51.54
389.189	74.07
389.399	125.27
389.609	121.17
389.818	76.12
390.028	123.22
390.238	74.07
390.447	22.87
390.657	84.31
390.867	164.18
391.076	26.96
391.286	100.69
391.496	76.12
391.705	86.36
391.915	65.88
392.125	57.68
392.334	45.4
392.544	98.64
392.753	96.6
392.963	-1.71
393.172	92.5
393.382	33.11
393.591	141.65
393.801	-28.33
394.01	166.23
394.22	82.26
394.429	41.3
394.639	24.92
394.848	31.06
395.058	135.51
395.267	8.53
395.477	207.19
395.686	49.49
395.895	172.37
396.105	180.56
396.314	123.22
396.524	69.97
396.733	106.84
396.942	123.22
397.152	147.8
397.361	106.84
397.57	104.79
397.78	129.36
397.989	104.79
398.198	168.27
398.407	123.22
398.617	94.55
398.826	86.36
399.035	139.6
399.244	147.8
399.453	160.08
399.663	160.08
399.872	123.22
400.081	149.84
400.29	155.99
400.499	92.5
400.708	106.84
400.917	76.12
401.127	129.36
401.336	74.07
401.545	166.23
401.754	112.98
401.963	239.95
402.172	211.28
402.381	215.38
402.59	80.21
402.799	135.51
403.008	221.52
403.217	192.85
403.426	129.36
403.635	94.55
403.844	96.6
404.053	129.36
404.262	135.51
404.471	225.62
404.68	215.38
404.888	117.08
405.097	217.43
405.306	215.38
405.515	207.19
405.724	205.14
405.933	184.66
406.142	188.75
406.35	205.14
406.559	151.89
406.768	207.19
406.977	258.39
407.185	258.39
407.394	229.71
407.603	244.05
407.812	246.1
408.02	264.53
408.229	291.15
408.438	295.25
408.646	246.1
408.855	260.43
409.064	303.44
409.272	364.88
409.481	368.98
409.69	305.49
409.898	239.95
410.107	364.88
410.315	336.21
410.524	362.83
410.733	389.46
410.941	360.78
411.15	469.33
411.358	463.18
411.567	469.33
411.775	495.95
411.984	522.57
412.192	502.09
412.401	411.98
412.609	553.29
412.818	588.11
413.026	543.05
413.234	569.68
413.443	641.36
413.651	682.31
413.86	616.78
414.068	729.42
414.276	659.79
414.485	704.84
414.693	778.57
414.901	864.58
415.11	717.13
415.318	735.56
415.526	762.19
415.734	823.62
415.943	868.68
416.151	971.08
416.359	942.41
416.567	985.41
416.776	977.22
416.984	1106.24
417.192	1104.2
417.4	1098.05
417.608	1026.37
417.817	1122.63
418.025	1202.5
418.233	1263.94
418.441	1235.27
418.649	1239.36
418.857	1413.44
419.065	1466.69
419.273	1399.1
419.481	1388.86
419.689	1569.09
419.897	1724.73
420.105	1732.92
420.313	1843.51
420.521	1839.42
420.729	1800.51
420.937	1818.94
421.145	1804.6
421.353	2107.7
421.561	2117.94
421.769	2169.14
421.977	2310.45
422.185	2230.58
422.393	2398.51
422.601	2568.49
422.809	2531.63
423.017	2560.3
423.224	2709.8
423.432	2756.91
423.64	2752.81
423.848	3078.44
424.056	2976.04
424.263	3186.98
424.471	3074.34
424.679	3289.38
424.887	3332.39
425.094	3520.8
425.302	3422.5
425.51	3752.22
425.718	3690.78
425.925	3887.39
426.133	3979.54
426.341	4204.82
426.548	4415.76
426.756	4268.31
426.964	4436.24
427.171	4694.29
427.379	4643.09
427.586	4722.96
427.794	5062.92
428.001	5206.28
428.209	5613.82
428.417	5390.6
428.624	5910.78
428.832	5595.39
429.039	5767.42
429.247	5730.56
429.454	6330.61
429.662	6758.64
429.869	6150.39
430.076	6643.95
430.284	6514.93
430.491	6752.49
430.699	7256.29
430.906	7104.74
431.114	7174.38
431.321	7342.31
431.528	7563.49
431.736	8321.24
431.943	8388.82
432.15	8315.09
432.358	8335.57
432.565	8894.67
432.772	8767.7
432.979	9461.96
433.187	9576.64
433.394	9547.97
433.601	9922.75
433.808	10268.86
434.016	10176.7
434.223	10655.92
434.43	11157.68
434.637	10877.1
434.844	11667.62
435.052	12052.64
435.259	11618.47
435.466	12042.4
435.673	11718.82
435.88	12677.27
436.087	12994.7
436.294	13215.88
436.501	12898.45
436.708	13244.56
436.915	13672.58
437.122	14309.5
437.329	14116.99
437.537	14737.52
437.743	15003.76
437.95	15040.62
438.157	15755.36
438.364	16236.64
438.571	16210.01
438.778	16111.71
438.985	17901.64
439.192	17018.96
439.399	17721.41
439.606	17395.79
439.813	18083.91
440.02	19159.09
440.227	18935.86
440.433	18911.28
440.64	19388.46
440.847	19492.91
441.054	19623.98
441.261	21248.02
441.467	20764.7
441.674	21313.55
441.881	22112.26
442.088	21973
442.294	21698.57
442.501	22497.28
442.708	22788.09
442.914	23965.67
443.121	24811.48
443.328	23914.47
443.534	25956.3
443.741	24936.41
443.948	24838.11
444.154	26423.23
444.361	26494.91
444.568	26904.51
444.774	26441.67
444.981	27047.86
445.187	27881.39
445.394	28438.44
445.6	28680.1
445.807	31188.86
446.013	29697.94
446.22	30203.78
446.426	31903.6
446.633	32186.22
446.839	32886.62
447.046	31547.25
447.252	33564.5
447.459	33546.07
447.665	33709.91
447.871	34783.04
448.078	36280.11
448.284	34606.92
448.491	35383.1
448.697	37013.28
448.903	37656.34
449.11	38008.59
449.316	37230.37
449.522	37881.62
449.728	38586.12
449.935	38682.38
450.141	38977.28
450.347	40218.35
450.553	38756.1
450.76	39462.65
450.966	40812.26
451.172	40722.15
451.378	41307.87
451.584	40392.43
451.791	41494.24
451.997	41969.36
452.203	42069.72
452.409	41760.47
452.615	41899.73
452.821	40410.86
453.027	40441.58
453.233	42348.24
453.44	40439.53
453.646	41182.94
453.852	41459.42
454.058	42090.2
454.264	40599.27
454.47	41969.36
454.676	40546.03
454.882	41766.62
455.088	38485.77
455.294	38942.47
455.5	39882.48
455.705	39956.21
455.911	38829.83
456.117	37967.63
456.323	37027.62
456.529	35553.08
456.735	37287.71
456.941	35778.36
457.147	35419.96
457.352	34160.46
457.558	34017.1
457.764	34318.15
457.97	33754.96
458.176	33062.75
458.381	33159
458.587	31231.86
458.793	31207.29
458.999	29806.48
459.204	32137.07
459.41	30816.13
459.616	29009.82
459.821	28710.82
460.027	28903.32
460.233	28379.04
460.438	26826.68
460.644	27258.81
460.85	25755.6
461.055	25438.16
461.261	25507.79
461.466	23730.16
461.672	22915.06
461.878	24465.38
462.083	22896.63
462.289	22519.81
462.494	22181.89
462.7	21112.85
462.905	20697.11
463.111	21487.63
463.316	21327.89
463.522	21026.84
463.727	21037.08
463.932	20973.59
464.138	20836.38
464.343	20719.64
464.549	19918.89
464.754	20838.42
464.959	20715.55
465.165	20250.66
465.37	19472.43
465.575	19068.98
465.781	19773.48
465.986	20111.39
466.191	19171.38
466.397	18894.9
466.602	17885.25
466.807	18573.37
467.012	18665.53
467.218	18507.83
467.423	18374.72
467.628	18401.34
467.833	18966.58
468.038	18440.25
468.244	17711.18
468.449	18700.34
468.654	18049.09
468.859	17850.44
469.064	17563.72
469.269	17113.17
469.474	17152.08
469.679	17784.9
469.885	16668.76
470.09	17438.8
470.295	17315.92
470.5	16808.02
470.705	17004.63
470.91	16629.85
471.115	16482.39
471.32	16527.45
471.525	16500.83
471.73	16097.38
471.935	15851.62
472.139	15603.82
472.344	15876.2
472.549	15319.15
472.754	15458.41
472.959	15186.03
473.164	14882.93
473.369	14854.26
473.574	15140.97
473.778	14819.44
473.983	14594.17
474.188	14923.89
474.393	14237.82
474.598	14114.94
474.802	13920.38
475.007	13842.56
475.212	14114.94
475.417	13582.47
475.621	13684.87
475.826	13707.4
476.031	13330.57
476.235	13123.73
476.44	13043.85
476.645	12976.27
476.849	12976.27
477.054	12746.9
477.259	12662.93
477.463	12722.32
477.668	12484.76
477.872	12470.42
478.077	12333.21
478.282	11843.74
478.486	11851.94
478.691	11788.45
478.895	11790.5
479.1	11792.55
479.304	11729.06
479.509	11194.54
479.713	11425.96
479.918	11419.82
480.122	10959.02
480.326	11172.01
480.531	11387.05
480.735	11057.32
480.94	11061.42
481.144	11337.9
481.348	11086
481.553	10889.39
481.757	10797.23
481.961	10846.38
482.166	11073.71
482.37	10852.53
482.574	10442.93
482.778	10817.71
482.983	10954.93
483.187	10803.38
483.391	10965.17
483.595	10746.03
483.8	10631.35
484.004	10776.75
484.208	10866.86
484.412	10938.54
484.616	10856.62
484.821	10897.58
485.025	10535.09
485.229	10866.86
485.433	10600.63
485.637	10698.93
485.841	10754.23
486.045	10576.05
486.249	10811.57
486.453	10549.43
486.657	10664.11
486.861	10854.58
487.065	10428.6
487.269	10610.87
487.473	10477.75
487.677	10766.51
487.881	11051.18
488.085	10682.55
488.289	10766.51
488.493	10707.12
488.697	10952.88
488.901	10660.02
489.105	10840.24
489.309	10944.69
489.512	11053.23
489.716	10973.36
489.92	10711.22
490.124	10877.1
490.328	11124.91
490.531	11098.28
490.735	11131.05
490.939	11186.35
491.143	10989.74
491.346	11010.22
491.55	11149.48
491.754	11247.79
491.958	11307.18
492.161	10950.83
492.365	11165.87
492.569	11126.96
492.772	11159.72
492.976	11331.75
493.18	11456.68
493.383	11659.43
493.587	11559.08
493.79	11823.26
493.994	11651.24
494.197	11751.59
494.401	11892.9
494.605	11851.94
494.808	12193.95
495.012	12005.53
495.215	12193.95
495.419	12273.82
495.622	12019.87
495.825	12495
496.029	12263.58
496.232	12738.71
496.436	12359.83
496.639	12978.32
496.843	12740.75
497.046	13025.42
497.249	13424.78
497.453	13377.67
497.656	13443.21
497.859	13545.61
498.063	13629.57
498.266	13926.53
498.469	13725.83
498.673	13832.32
498.876	14194.81
499.079	14014.59
499.282	14510.2
499.485	14856.31
499.689	14825.59
499.892	14813.3
500.095	14835.83
500.298	15360.11
500.501	15118.45
500.705	15462.51
500.908	15724.65
501.111	15890.53
501.314	16183.39
501.517	16132.19
501.72	16339.04
501.923	16072.8
502.126	16810.07
502.329	17057.87
502.532	17064.02
502.735	17324.11
502.938	17487.95
503.141	17430.6
503.344	17760.33
503.547	17815.62
503.75	18067.52
503.953	18493.5
504.156	18374.72
504.359	18839.61
504.562	18833.46
504.765	19404.85
504.968	19728.42
505.17	19593.26
505.373	19580.97
505.576	19857.45
505.779	19994.66
505.982	20273.18
506.185	20625.43
506.387	20498.46
506.59	20891.67
506.793	21409.81
506.996	21479.44
507.198	21821.45
507.401	21979.14
507.604	22071.3
507.807	22509.57
508.009	22722.55
508.212	22773.75
508.415	22933.5
508.617	23027.7
508.82	23486.45
509.022	23066.61
509.225	23558.13
509.428	24092.65
509.63	24256.48
509.833	24233.96
510.035	24698.84
510.238	24889.31
510.44	25116.63
510.643	25341.91
510.845	25771.98
511.048	25284.56
511.25	25952.2
511.453	26146.76
511.655	26974.14
511.858	26787.77
512.06	26961.85
512.262	27451.31
512.465	27396.02
512.667	27479.99
512.87	28121
513.072	27838.38
513.274	28729.25
513.477	29247.38
513.679	29335.45
513.881	29366.17
514.084	29808.53
514.286	29843.34
514.488	29796.24
514.69	30764.93
514.893	30568.32
515.095	30912.38
515.297	31147.9
515.499	31117.18
515.701	31954.8
515.904	32280.42
516.106	32249.71
516.308	32753.51
516.51	32937.82
516.712	32802.66
516.914	33343.32
517.116	33775.44
517.318	33830.74
517.52	34074.45
517.722	34193.23
517.925	34606.92
518.127	35245.88
518.329	35309.37
518.531	35174.2
518.733	35755.83
518.935	36058.93
519.136	36128.56
519.338	36681.51
519.54	36648.74
519.742	37201.69
519.944	37238.56
520.146	38051.6
520.348	38217.49
520.55	37934.87
520.752	38348.56
520.954	39051.01
521.155	38967.04
521.357	39200.51
521.559	39466.75
521.761	39823.09
521.963	39790.33
522.164	40410.86
522.366	40707.82
522.568	40830.69
522.77	41086.69
522.971	41789.14
523.173	41307.87
523.375	41451.23
523.576	41692.89
523.778	41903.83
523.98	42458.83
524.181	42710.73
524.383	43056.84
524.584	43278.02
524.786	43382.46
524.988	42536.65
525.189	43595.45
525.391	44125.88
525.592	44105.4
525.794	44027.57
525.995	44056.25
526.197	44318.39
526.398	44455.6
526.6	44897.96
526.801	45362.85
527.003	45147.81
527.204	45086.37
527.406	45760.16
527.607	45584.03
527.808	45641.37
528.01	45622.94
528.211	45469.34
528.412	46237.33
528.614	46364.31
528.815	46087.83
529.016	46773.9
529.218	46186.13
529.419	46241.43
529.62	46708.36
529.822	47001.22
530.023	46917.26
530.224	46636.69
530.425	47152.77
530.626	46399.12
530.828	46411.41
531.029	47584.9
531.23	47224.45
531.431	47074.95
531.632	47421.06
531.833	47627.9
532.035	47163.01
532.236	47769.21
532.437	47990.39
532.638	47238.79
532.839	47521.41
533.04	47267.46
533.241	47177.35
533.442	48311.92
533.643	48092.79
533.844	47748.73
534.045	47967.87
534.246	47849.08
534.447	48148.09
534.648	47922.81
534.849	48133.75
535.05	47507.07
535.251	47806.08
535.451	48064.12
535.652	48035.45
535.853	47939.19
536.054	48537.2
536.255	48338.55
536.456	47515.26
536.657	48432.75
536.857	48189.05
537.058	47556.22
537.259	48232.05
537.46	48387.7
537.66	47924.86
537.861	48539.25
538.062	48111.22
538.263	48174.71
538.463	48195.19
538.664	47605.37
538.865	48328.31
539.065	48324.21
539.266	47765.12
539.466	48318.07
539.667	47644.29
539.868	48596.59
540.068	47883.9
540.269	47566.46
540.469	48117.37
540.67	47830.65
540.87	48125.56
541.071	47857.28
541.271	47740.54
541.472	47865.47
541.672	48017.02
541.873	47664.77
542.073	47132.29
542.274	48242.29
542.474	47943.29
542.675	47664.77
542.875	48397.94
543.075	48100.98
543.276	47453.83
543.476	48152.18
543.676	47814.27
543.877	47945.34
544.077	47867.51
544.277	47701.63
544.478	47623.81
544.678	47607.42
544.878	47779.45
545.078	47650.43
545.279	47584.9
545.479	47126.15
545.679	47775.36
545.879	47734.4
546.079	47887.99
546.28	47715.97
546.48	47339.14
546.68	47824.51
546.88	47556.22
547.08	47455.87
547.28	47509.12
547.48	47048.33
547.68	47715.97
547.88	47347.33
548.081	47244.93
548.281	47482.5
548.481	47326.85
548.681	47931
548.881	47541.89
549.081	47783.55
549.28	46988.94
549.48	47566.46
549.68	47308.42
549.88	47853.18
550.08	47451.78
550.28	47859.32
550.48	47072.9
550.68	47836.8
550.88	47156.87
551.08	46792.33
551.279	47574.66
551.479	46775.95
551.679	47199.88
551.879	47357.57
552.079	47521.41
552.278	46786.19
552.478	47376
552.678	47134.34
552.878	47138.44
553.077	47228.55
553.277	46583.44
553.477	47627.9
553.676	47009.42
553.876	47050.38
554.076	46737.04
554.275	46818.95
554.475	46401.17
554.674	46866.06
554.874	46765.71
555.074	46186.13
555.273	46851.72
555.473	46907.02
555.672	46448.27
555.872	46755.47
556.071	46706.32
556.271	47027.85
556.47	46321.3
556.67	46132.89
556.869	46388.88
557.068	46487.18
557.268	46153.37
557.467	46392.98
557.667	46438.03
557.866	46089.88
558.065	46149.27
558.265	45854.36
558.464	45848.22
558.663	46059.16
558.863	45477.54
559.062	46251.67
559.261	45301.41
559.461	46124.69
559.66	45774.49
559.859	45858.46
560.058	45389.47
560.258	45385.38
560.457	44949.16
560.656	45846.17
560.855	45223.59
561.054	45385.38
561.253	44873.38
561.453	45164.2
561.652	45461.15
561.851	45665.95
562.05	45127.33
562.249	44721.83
562.448	45375.14
562.647	44736.17
562.846	44703.4
563.045	44680.88
563.244	44789.42
563.443	44766.89
563.642	43808.44
563.841	43841.21
564.04	44150.45
564.239	44336.82
564.438	43957.94
564.637	44244.66
564.836	44048.05
565.035	43597.5
565.234	43673.27
565.432	43462.33
565.631	43732.67
565.83	43564.73
566.029	43626.17
566.228	43407.04
566.427	43062.98
566.625	43263.68
566.824	42589.9
567.023	43222.72
567.222	42452.69
567.42	43271.87
567.619	42753.74
567.818	42720.97
568.016	42409.68
568.215	42895.05
568.414	42364.62
568.612	42452.69
568.811	42231.5
569.01	42477.26
569.208	41854.68
569.407	42372.81
569.605	41866.97
569.804	42292.94
570.002	41572.06
570.201	41596.63
570.4	41314.01
570.598	41668.31
570.797	40675.05
570.995	41604.83
571.193	41111.27
571.392	41289.44
571.59	40572.65
571.789	41111.27
571.987	40855.27
572.186	40890.09
572.384	40668.9
572.582	40730.34
572.781	40910.57
572.979	40277.74
573.177	40539.88
573.376	40777.45
573.574	39950.07
573.772	40679.14
573.971	39808.76
574.169	39900.92
574.367	39519.99
574.565	40046.32
574.763	39565.05
574.962	39737.08
575.16	39008
575.358	39679.74
575.556	38795.01
575.754	39519.99
575.952	39038.72
576.151	39239.42
576.349	38958.85
576.547	39034.63
576.745	38952.71
576.943	38936.32
577.141	38651.66
577.339	38907.65
577.537	38508.3
577.735	38141.71
577.933	38233.87
578.131	38344.46
578.329	38168.33
578.527	37801.75
578.725	38078.22
578.923	38297.36
579.121	37635.86
579.319	37308.19
579.516	37605.14
579.714	37861.14
579.912	37334.81
580.11	36855.59
580.308	37519.13
580.506	37267.23
580.704	36650.79
580.901	37054.24
581.099	37039.9
581.297	36822.82
581.495	36585.26
581.692	36984.61
581.89	36108.08
582.088	36728.61
582.285	36271.92
582.483	36673.32
582.681	36171.57
582.878	36249.39
583.076	35845.94
583.274	36263.72
583.471	35686.2
583.669	35665.72
583.866	35231.55
584.064	35721.01
584.262	35608.37
584.459	35417.91
584.657	35348.28
584.854	35487.54
585.052	34733.89
585.249	35110.72
585.447	34701.12
585.644	34414.41
585.841	34627.4
586.039	34764.61
586.236	34371.4
586.434	34492.23
586.631	34273.1
586.828	34238.28
587.026	34152.27
587.223	33865.55
587.42	33906.51
587.618	33795.92
587.815	33668.95
588.012	33617.75
588.21	33439.58
588.407	33732.43
588.604	33492.82
588.801	32984.93
588.999	33386.33
589.196	33103.71
589.393	33111.9
589.59	33263.45
589.787	32812.9
589.984	32700.26
590.182	32452.45
590.379	32587.62
590.576	32264.04
590.773	32446.31
590.97	32550.76
591.167	32429.93
591.364	31672.18
591.561	32227.18
591.758	31922.03
591.955	31854.45
592.152	31774.58
592.349	31336.31
592.546	31590.26
592.743	31631.22
592.94	31104.89
593.137	31567.73
593.334	31633.27
593.531	30873.47
593.727	31416.18
593.924	31354.74
594.121	30906.24
594.318	30953.34
594.515	30506.88
594.712	30949.25
594.908	30488.45
595.105	30283.66
595.302	30072.71
595.499	30582.66
595.696	30224.26
595.892	30070.67
596.089	29747.09
596.286	30209.93
596.482	29876.11
596.679	29908.88
596.876	29906.83
597.072	29671.31
597.269	29654.93
597.466	29536.15
597.662	29175.7
597.859	29302.68
598.055	29276.05
598.252	29116.31
598.448	29200.28
598.645	28848.03
598.841	28477.35
599.038	28682.14
599.234	28913.56
599.431	28700.58
599.627	28559.27
599.824	28503.97
600.02	28295.08
600.217	28372.9
600.413	27828.14
600.609	28051.37
600.806	27908.01
601.002	28323.75
601.198	27580.34
601.395	27488.18
601.591	27522.99
601.787	27752.37
601.984	27596.72
602.18	27744.17
602.376	27197.37
602.572	27164.6
602.769	27152.31
602.965	26984.38
603.161	27205.56
603.357	27037.62
603.553	27027.38
603.75	26904.51
603.946	26787.77
604.142	26886.08
604.338	26419.14
604.534	26625.98
604.73	26482.63
604.926	26105.8
605.122	26384.32
605.318	26134.47
605.514	26320.84
605.71	25763.79
605.906	26021.83
606.102	25952.2
606.298	26030.02
606.494	25690.06
606.69	25683.92
606.886	25694.16
607.082	25335.76
607.278	25683.92
607.474	25300.95
607.67	25094.1
607.866	24960.98
608.062	25020.38
608.257	25065.43
608.453	25114.58
608.649	25110.49
608.845	24877.02
609.041	24791
609.236	25018.33
609.432	24963.03
609.628	24614.88
609.824	24799.19
610.019	24678.36
610.215	24727.52
610.411	24442.85
610.606	24547.29
610.802	24428.51
610.998	24473.57
611.193	24498.14
611.389	23980.01
611.584	24211.43
611.78	23830.51
611.976	24100.84
612.171	24258.53
612.367	23885.8
612.562	24106.98
612.758	23689.2
612.953	23693.29
613.149	23812.07
613.344	23519.21
613.539	24031.21
613.735	23836.65
613.93	23926.76
614.126	23367.66
614.321	23996.39
614.517	23390.19
614.712	23416.82
614.907	23705.58
615.103	23377.9
615.298	23105.52
615.493	23361.52
615.688	23080.95
615.884	23529.45
616.079	23064.57
616.274	23183.35
616.47	23064.57
616.665	22994.93
616.86	22851.58
617.055	23033.85
617.25	22779.9
617.445	22900.73
617.641	22538.24
617.836	22757.37
618.031	22425.6
618.226	22718.46
618.421	22454.27
618.616	22433.79
618.811	22069.25
619.006	22626.3
619.201	21839.88
619.396	22355.97
619.591	21540.88
619.786	22108.16
619.981	21565.45
620.176	21762.06
620.371	21643.28
620.566	21866.5
620.761	21393.42
620.956	21669.9
621.151	21176.34
621.346	21426.19
621.541	20961.3
621.735	21184.53
621.93	20875.29
622.125	20785.18
622.32	20566.04
622.515	20893.72
622.709	20578.33
622.904	20449.31
623.099	20054.05
623.294	20367.39
623.488	20226.08
623.683	20006.95
623.878	19886.12
624.072	20013.09
624.267	19677.23
624.462	19765.29
624.656	19439.66
624.851	19634.22
625.046	19206.19
625.24	19451.95
625.435	19007.54
625.629	19177.52
625.824	19198
626.018	18888.76
626.213	18688.06
626.407	18583.61
626.602	18593.85
626.796	18520.12
626.991	18370.62
627.185	18317.37
627.38	18235.46
627.574	17748.04
627.768	17678.41
627.963	17819.72
628.157	17596.49
628.352	17576.01
628.546	17369.16
628.74	17569.87
628.935	17422.41
629.129	17571.91
629.323	17141.84
629.517	17168.46
629.712	17053.78
629.906	17154.13
630.1	16916.56
630.294	16834.64
630.489	16658.52
630.683	16588.89
630.877	16386.14
631.071	16447.58
631.265	16242.78
631.459	16207.97
631.653	16363.61
631.848	16177.25
632.042	15992.93
632.236	15872.1
632.43	15775.84
632.624	15775.84
632.818	15634.53
633.012	15542.38
633.206	15700.07
633.4	15407.21
633.594	15188.08
633.788	15370.35
633.982	15411.31
634.176	15116.4
634.369	15204.46
634.563	14911.6
634.757	14815.35
634.951	14692.47
635.145	14850.16
635.339	14549.11
635.533	14651.51
635.726	14635.13
635.92	14268.54
636.114	14239.87
636.308	14284.92
636.501	14069.89
636.695	14311.55
636.889	14207.1
637.083	14127.23
637.276	14153.85
637.47	13676.68
637.664	13840.51
637.857	13813.89
638.051	13334.67
638.244	13553.8
638.438	13301.9
638.632	13660.29
638.825	13332.62
639.019	13093.01
639.212	13140.11
639.406	13308.04
639.599	12990.61
639.793	13074.57
639.986	12742.8
640.18	13045.9
640.373	12834.96
640.567	12814.48
640.76	12814.48
640.954	12578.97
641.147	12337.31
641.34	12419.22
641.534	12566.68
641.727	12386.46
641.92	12470.42
642.114	12220.57
642.307	12198.04
642.5	12325.02
642.694	11810.98
642.887	11794.59
643.08	12144.8
643.273	12032.16
643.467	11839.65
643.66	11700.39
643.853	11559.08
644.046	11628.71
644.239	11688.1
644.432	11446.44
644.626	11325.61
644.819	11501.73
645.012	11419.82
645.205	11278.51
645.398	11253.93
645.591	11129
645.784	11122.86
645.977	10827.95
646.17	10879.15
646.363	10840.24
646.556	10842.29
646.749	10717.36
646.942	10834.1
647.135	10485.94
647.328	10580.15
647.521	10471.61
647.714	10383.54
647.907	10551.48
648.099	10277.05
648.292	10420.41
648.485	10354.87
648.678	10205.37
648.871	10086.59
649.064	10041.53
649.256	10250.42
649.449	10002.62
649.642	10021.05
649.835	9765.06
650.027	9840.83
650.22	9820.35
650.413	9947.33
650.605	9701.57
650.798	9617.6
650.991	9658.56
651.183	9648.32
651.376	9562.31
651.568	9484.48
651.761	9425.09
651.954	9502.92
652.146	9267.4
652.339	9238.73
652.531	9349.32
652.724	9173.19
652.916	8929.49
653.109	8954.06
653.301	9093.32
653.494	9064.65
653.686	8808.65
653.879	9068.75
654.071	8816.85
654.263	8878.29
654.456	8816.85
654.648	8943.82
654.84	8691.92
655.033	8779.98
655.225	8634.58
655.417	8411.35
655.61	8569.04
655.802	8628.43
655.994	8472.79
656.186	8483.03
656.379	8339.67
656.571	8288.47
656.763	8163.54
656.955	8128.73
657.148	8196.31
657.34	8202.46
657.532	7991.52
657.724	8001.76
657.916	8206.55
658.108	8079.58
658.3	7948.51
658.492	7850.21
658.684	7788.77
658.876	7690.46
659.068	7801.05
659.26	7712.99
659.452	7626.98
659.644	7676.13
659.836	7698.66
660.028	7579.87
660.22	7420.13
660.412	7594.21
660.604	7485.67
660.796	7467.24
660.988	7604.45
661.18	7162.09
661.372	7317.73
661.563	7424.23
661.755	7141.61
661.947	7307.49
662.139	7151.85
662.331	7145.7
662.522	7084.27
662.714	7190.76
662.906	7047.4
663.097	6963.44
663.289	7033.07
663.481	6914.28
663.673	6869.23
663.864	6826.22
664.056	6699.25
664.247	6824.17
664.439	6717.68
664.631	6689.01
664.822	6826.22
665.014	6754.54
665.205	6666.48
665.397	6584.56
665.588	6670.58
665.78	6463.73
665.971	6613.23
666.163	6559.99
666.354	6588.66
666.546	6404.34
666.737	6299.89
666.929	6428.92
667.12	6191.35
667.311	6279.41
667.503	6381.81
667.694	6211.83
667.885	6228.21
668.077	6373.62
668.268	6269.17
668.459	6353.14
668.651	6172.92
668.842	6193.4
669.033	6160.63
669.224	6076.66
669.416	6007.03
669.607	6107.38
669.798	5966.07
669.989	6283.51
670.18	5873.92
670.371	5980.41
670.563	5875.96
670.754	6050.04
670.945	5826.81
671.136	5976.31
671.327	5832.96
671.518	6035.71
671.709	5859.58
671.9	5869.82
672.091	5890.3
672.282	5748.99
672.473	5677.31
672.664	5765.37
672.855	5599.49
673.046	5624.06
673.237	5769.47
673.428	5626.11
673.619	5662.97
673.809	5773.57
674	5667.07
674.191	5490.95
674.382	5605.63
674.573	5566.72
674.764	5404.93
674.954	5554.43
675.145	5544.19
675.336	5513.47
675.527	5431.55
675.717	5513.47
675.908	5341.44
676.099	5343.49
676.289	5402.88
676.48	5415.17
676.671	5419.27
676.861	5460.23
677.052	5304.58
677.243	5271.81
677.433	5398.79
677.624	5304.58
677.814	5368.07
678.005	5402.88
678.195	5331.2
678.386	5449.99
678.576	5329.16
678.767	5308.68
678.957	5308.68
679.148	5337.35
679.338	5277.96
679.529	5374.21
679.719	5368.07
679.909	5298.44
680.1	5234.95
680.29	5284.1
680.481	5230.85
680.671	5271.81
680.861	5118.22
681.052	5204.23
681.242	5099.78
681.432	5193.99
681.622	5114.12
681.813	5193.99
682.003	5148.93
682.193	5056.78
682.383	5202.18
682.573	5153.03
682.764	5079.3
682.954	5206.28
683.144	5243.14
683.334	5060.87
683.524	5069.06
683.714	5140.74
683.904	4968.71
684.094	5075.21
684.284	5277.96
684.474	5153.03
684.664	5071.11
684.854	4995.34
685.044	4966.67
685.234	4907.27
685.424	4739.34
685.614	4935.95
685.804	4905.23
685.994	5054.73
686.184	4862.22
686.374	4942.09
686.564	4882.7
686.753	4862.22
686.943	4659.47
687.133	4714.77
687.323	4882.7
687.513	4692.24
687.702	4800.78
687.892	4706.57
688.082	4677.9
688.272	4645.13
688.461	4595.98
688.651	4782.35
688.841	4528.4
689.03	4630.8
689.22	4485.39
689.41	4591.89
689.599	4522.26
689.789	4645.13
689.979	4530.45
690.168	4497.68
690.358	4481.3
690.547	4430.1
690.737	4251.92
690.926	4389.14
691.116	4133.14
691.305	4370.71
691.495	4253.97
691.684	4247.83
691.874	4221.2
692.063	4346.13
692.252	4376.85
692.442	4337.94
692.631	4157.72
692.82	4227.35
693.01	4077.85
693.199	4034.84
693.388	3991.83
693.578	4170.01
693.767	4073.75
693.956	4155.67
694.146	4081.94
694.335	3883.29
694.524	4010.26
694.713	3985.69
694.902	4032.79
695.092	3985.69
695.281	3942.68
695.47	3948.83
695.659	3873.05
695.848	3768.6
696.037	3940.63
696.226	4045.08
696.415	3860.76
696.604	4012.31
696.793	3895.58
696.982	3983.64
697.171	3948.83
697.36	3856.67
697.549	3744.03
697.738	3729.69
697.927	3803.42
698.116	3756.32
698.305	3731.74
698.494	3922.2
698.683	3823.9
698.872	3907.87
699.061	3871
699.25	3830.04
699.438	3830.04
699.627	3776.8
699.816	3825.95
700.005	3746.08
700.193	3807.52
700.382	3686.69
700.571	3744.03
700.76	3746.08
700.948	3752.22
701.137	3928.35
701.326	3733.79
701.514	3672.35
701.703	3817.76
701.892	3748.12
702.08	3873.05
702.269	3744.03
702.457	3690.78
702.646	3817.76
702.834	3754.27
703.023	3580.19
703.212	3715.36
703.4	3582.24
703.589	3612.96
703.777	3711.26
703.965	3731.74
704.154	3735.84
704.342	3615.01
704.531	3645.73
704.719	3645.73
704.907	3852.57
705.096	3541.28
705.284	3574.05
705.472	3690.78
705.661	3572
705.849	3756.32
706.037	3698.97
706.226	3649.82
706.414	3565.85
706.602	3672.35
706.79	3770.65
706.979	3543.33
707.167	3764.51
707.355	3514.66
707.543	3658.01
707.731	3676.45
707.919	3588.38
708.107	3580.19
708.296	3688.73
708.484	3637.53
708.672	3717.4
708.86	3633.44
709.048	3686.69
709.236	3633.44
709.424	3696.92
709.612	3633.44
709.8	3619.1
709.988	3557.66
710.176	3598.62
710.364	3735.84
710.551	3752.22
710.739	3696.92
710.927	3729.69
711.115	3612.96
711.303	3709.21
711.491	3590.43
711.679	3789.08
711.866	3610.91
712.054	3670.3
712.242	3612.96
712.43	3787.04
712.617	3715.36
712.805	3729.69
712.993	3705.12
713.181	3629.34
713.368	3631.39
713.556	3721.5
713.744	3649.82
713.931	3774.75
714.119	3744.03
714.306	3782.94
714.494	3764.51
714.682	3674.4
714.869	3744.03
715.057	3848.47
715.244	3631.39
715.432	3733.79
715.619	3805.47
715.807	3850.52
715.994	3840.28
716.182	3746.08
716.369	3858.71
716.556	3787.04
716.744	3764.51
716.931	3639.58
717.119	3838.23
717.306	3760.41
717.493	3752.22
717.681	3809.56
717.868	3735.84
718.055	3701.02
718.242	3760.41
718.43	3760.41
718.617	3795.23
718.804	3770.65
718.991	3879.19
719.179	3897.63
719.366	3701.02
719.553	3795.23
719.74	3668.25
719.927	3823.9
720.114	3825.95
720.301	3901.72
720.488	3735.84
720.676	3799.32
720.863	3787.04
721.05	3744.03
721.237	3871
721.424	3844.38
721.611	3918.11
721.798	3760.41
721.985	3889.43
722.172	3791.13
722.358	3744.03
722.545	3817.76
722.732	3660.06
722.919	3875.1
723.106	3875.1
723.293	3639.58
723.48	3827.99
723.667	3840.28
723.853	3850.52
724.04	4008.22
724.227	3825.95
724.414	3846.43
724.6	3701.02
724.787	3889.43
724.974	3817.76
725.161	3842.33
725.347	3733.79
725.534	3805.47
725.72	3830.04
725.907	3871
726.094	3827.99
726.28	3868.95
726.467	3803.42
726.653	3764.51
726.84	3852.57
727.027	3930.39
727.213	3924.25
727.4	3815.71
727.586	3811.61
727.773	3959.06
727.959	3809.56
728.145	3948.83
728.332	3862.81
728.518	3787.04
728.705	3926.3
728.891	3928.35
729.077	3883.29
729.264	3850.52
729.45	3852.57
729.636	3864.86
729.823	3754.27
730.009	4094.23
730.195	3844.38
730.382	4129.05
730.568	3911.96
730.754	3887.39
730.94	3895.58
731.126	3883.29
731.313	3840.28
731.499	3770.65
731.685	3807.52
731.871	3776.8
732.057	3961.11
732.243	3889.43
732.429	3860.76
732.615	3997.98
732.801	3899.67
732.987	3875.1
733.173	3825.95
733.359	3838.23
733.545	3789.08
733.731	3928.35
733.917	3875.1
734.103	3819.8
734.289	3918.11
734.475	3932.44
734.661	3868.95
734.847	3946.78
735.033	3985.69
735.219	3852.57
735.404	3793.18
735.59	3823.9
735.776	3670.3
735.962	3887.39
736.148	3965.21
736.333	3852.57
736.519	3731.74
736.705	3864.86
736.89	3760.41
737.076	3834.14
737.262	3799.32
737.447	3768.6
737.633	3817.76
737.819	3858.71
738.004	3858.71
738.19	3698.97
738.375	3741.98
738.561	3993.88
738.747	3621.15
738.932	3617.05
739.118	3715.36
739.303	3768.6
739.489	3782.94
739.674	3621.15
739.859	3658.01
740.045	3664.16
740.23	3602.72
740.416	3500.32
740.601	3711.26
740.786	3641.63
740.972	3692.83
741.157	3762.46
741.342	3590.43
741.528	3621.15
741.713	3641.63
741.898	3565.85
742.084	3369.25
742.269	3543.33
742.454	3694.88
742.639	3574.05
742.824	3494.18
743.01	3526.94
743.195	3629.34
743.38	3549.47
743.565	3510.56
743.75	3518.75
743.935	3393.83
744.12	3383.59
744.305	3203.36
744.49	3416.35
744.675	3342.63
744.86	3352.87
745.045	3440.93
745.23	3332.39
745.415	3326.24
745.6	3399.97
745.785	3281.19
745.97	3359.01
746.155	3285.28
746.34	3316
746.525	3215.65
746.71	3324.19
746.895	3068.2
747.079	3154.21
747.264	3148.07
747.449	3084.58
747.634	3109.16
747.819	3146.02
748.003	3148.07
748.188	3088.68
748.373	3103.01
748.557	2949.42
748.742	3002.66
748.927	2951.46
749.111	3047.72
749.296	2955.56
749.481	2863.4
749.665	2898.22
749.85	2808.11
750.034	2951.46
750.219	2851.11
750.404	2941.22
750.588	2865.45
750.773	2718
750.957	2722.09
751.141	2820.39
751.326	2666.8
751.51	2697.52
751.695	2756.91
751.879	2666.8
752.064	2773.29
752.248	2646.32
752.432	2679.08
752.617	2668.84
752.801	2703.66
752.985	2611.5
753.17	2656.56
753.354	2574.64
753.538	2558.25
753.722	2363.7
753.907	2468.14
754.091	2466.1
754.275	2447.66
754.459	2498.86
754.643	2443.57
754.828	2429.23
755.012	2429.23
755.196	2292.02
755.38	2363.7
755.564	2218.29
755.748	2349.36
755.932	2447.66
756.116	2244.92
756.3	2279.73
756.484	2185.52
756.668	2246.96
756.852	2212.15
757.036	2273.59
757.22	2208.05
757.404	2187.57
757.588	2132.28
757.772	2236.72
757.956	2197.81
758.14	2242.87
758.323	2046.26
758.507	2115.89
758.691	2163
758.875	2134.32
759.059	2017.59
759.242	2040.12
759.426	2072.89
759.61	1990.97
759.794	2019.64
759.977	2013.49
760.161	2115.89
760.345	2013.49
760.528	2052.41
760.712	1861.94
760.895	1958.2
761.079	1872.18
761.263	1888.57
761.446	1855.8
761.63	1849.66
761.813	1882.42
761.997	1872.18
762.18	1960.25
762.364	1962.3
762.547	1802.55
762.731	1818.94
762.914	1763.64
763.098	1814.84
763.281	1681.72
763.464	1712.44
763.648	1843.51
763.831	1755.45
764.015	1745.21
764.198	1716.54
764.381	1591.61
764.564	1675.58
764.748	1802.55
764.931	1749.31
765.114	1644.86
765.297	1792.31
765.481	1653.05
765.664	1587.52
765.847	1544.51
766.03	1614.14
766.213	1696.06
766.397	1648.96
766.58	1616.19
766.763	1591.61
766.946	1681.72
767.129	1515.84
767.312	1700.16
767.495	1603.9
767.678	1560.89
767.861	1540.41
768.044	1560.89
768.227	1591.61
768.41	1605.95
768.593	1622.33
768.776	1571.13
768.959	1630.52
769.142	1456.45
769.324	1444.16
769.507	1501.5
769.69	1542.46
769.873	1448.26
770.056	1560.89
770.239	1540.41
770.421	1460.54
770.604	1450.3
770.787	1409.34
770.97	1425.73
771.152	1403.2
771.335	1405.25
771.518	1470.78
771.7	1454.4
771.883	1366.34
772.066	1405.25
772.248	1335.62
772.431	1384.77
772.613	1386.82
772.796	1282.37
772.978	1423.68
773.161	1419.58
773.343	1294.66
773.526	1356.1
773.708	1212.74
773.891	1317.19
774.073	1327.43
774.256	1319.23
774.438	1364.29
774.621	1163.59
774.803	1306.95
774.985	1153.35
775.168	1227.07
775.35	1151.3
775.532	1276.23
775.715	1169.73
775.897	1278.27
776.079	1245.51
776.261	1159.49
776.444	1204.55
776.626	1155.4
776.808	1108.29
776.99	1145.16
777.173	1179.97
777.355	1081.67
777.537	1130.82
777.719	1130.82
777.901	1063.24
778.083	1122.63
778.265	1061.19
778.447	1091.91
778.629	1024.33
778.811	1012.04
778.993	1032.52
779.175	1208.64
779.357	1003.85
779.539	942.41
779.721	1003.85
779.903	1009.99
780.085	1036.61
780.267	934.22
780.449	1001.8
780.631	1038.66
780.812	936.26
780.994	983.37
781.176	971.08
781.358	827.72
781.54	999.75
781.721	885.06
781.903	1040.71
782.085	803.15
782.267	950.6
782.448	868.68
782.63	833.86
782.812	848.2
782.993	897.35
783.175	823.62
783.357	837.96
783.538	731.47
783.72	821.58
783.901	827.72
784.083	774.47
784.264	844.1
784.446	743.75
784.627	721.23
784.809	846.15
784.99	758.09
785.172	866.63
785.353	715.08
785.535	758.09
785.716	743.75
785.897	782.67
786.079	817.48
786.26	719.18
786.441	667.98
786.623	633.16
786.804	733.51
786.985	729.42
787.167	733.51
787.348	713.03
787.529	737.61
787.71	698.7
787.891	682.31
788.073	672.08
788.254	600.4
788.435	649.55
788.616	606.54
788.797	604.49
788.978	657.74
789.159	563.53
789.34	547.15
789.522	608.59
789.703	612.68
789.884	627.02
790.065	696.65
790.246	680.27
790.427	608.59
790.607	567.63
790.788	629.07
790.969	557.39
791.15	612.68
791.331	557.39
791.512	565.58
791.693	598.35
791.874	559.44
792.054	663.88
792.235	553.29
792.416	575.82
792.597	567.63
792.778	516.43
792.958	475.47
793.139	541.01
793.32	586.06
793.5	467.28
793.681	565.58
793.862	557.39
794.042	586.06
794.223	506.19
794.404	534.86
794.584	502.09
794.765	502.09
794.945	461.13
795.126	545.1
795.306	491.85
795.487	557.39
795.667	393.55
795.848	561.48
796.028	459.09
796.209	518.48
796.389	504.14
796.57	502.09
796.75	498
796.93	446.8
797.111	436.56
797.291	422.22
797.471	520.53
797.652	403.79
797.832	381.26
798.012	463.18
798.192	344.4
798.373	409.94
798.553	377.17
798.733	411.98
798.913	418.13
799.093	420.17
799.274	364.88
799.454	375.12
799.634	405.84
799.814	475.47
799.994	438.61
800.174	385.36
800.354	426.32
800.534	350.54
800.714	411.98
800.894	309.58
801.074	328.02
801.254	321.87
801.434	422.22
801.614	313.68
801.794	368.98
801.974	1225.03
802.154	354.64
802.334	385.36
802.514	315.73
802.693	254.29
802.873	340.3
803.053	354.64
803.233	368.98
803.413	411.98
803.592	282.96
803.772	280.91
803.952	342.35
804.131	313.68
804.311	315.73
804.491	393.55
804.67	264.53
804.85	352.59
805.03	358.74
805.209	368.98
805.389	377.17
805.568	274.77
805.748	303.44
805.928	373.07
806.107	289.1
806.287	393.55
806.466	344.4
806.646	332.11
806.825	276.82
807.004	297.3
807.184	330.06
807.363	307.54
807.543	289.1
807.722	317.78
807.901	393.55
808.081	291.15
808.26	213.33
808.439	303.44
808.619	346.45
808.798	285.01
808.977	256.34
809.156	493.9
809.336	311.63
809.515	356.69
809.694	239.95
809.873	213.33
810.052	301.39
810.231	321.87
810.411	319.82
810.59	262.48
810.769	321.87
810.948	340.3
811.127	260.43
811.306	280.91
811.485	291.15
811.664	311.63
811.843	336.21
812.022	289.1
812.201	219.47
812.38	162.13
812.559	248.15
812.737	303.44
812.916	215.38
813.095	215.38
813.274	262.48
813.453	264.53
813.632	278.87
813.811	313.68
813.989	176.47
814.168	227.67
814.347	227.67
814.526	211.28
814.704	307.54
814.883	272.72
815.062	235.86
815.24	244.05
815.419	229.71
815.598	258.39
815.776	153.94
815.955	137.56
816.133	192.85
816.312	237.91
816.49	190.8
816.669	215.38
816.847	221.52
817.026	244.05
817.204	244.05
817.383	180.56
817.561	205.14
817.74	196.95
817.918	237.91
818.097	168.27
818.275	160.08
818.453	328.02
818.632	182.61
818.81	231.76
818.988	172.37
819.167	201.04
819.345	155.99
819.523	180.56
819.701	207.19
819.879	192.85
820.058	287.06
820.236	174.42
820.414	149.84
820.592	139.6
820.77	119.12
820.948	184.66
821.127	137.56
821.305	213.33
821.483	133.46
821.661	248.15
821.839	198.99
822.017	215.38
822.195	133.46
822.373	237.91
822.551	94.55
822.729	239.95
822.907	182.61
823.085	207.19
823.262	174.42
823.44	233.81
823.618	135.51
823.796	104.79
823.974	147.8
824.152	117.08
824.329	143.7
824.507	139.6
824.685	196.95
824.863	233.81
825.04	129.36
825.218	205.14
825.396	174.42
825.574	153.94
825.751	90.45
825.929	166.23
826.107	115.03
826.284	153.94
826.462	192.85
826.639	172.37
826.817	182.61
826.994	192.85
827.172	119.12
827.349	194.9
827.527	135.51
827.704	168.27
827.882	203.09
828.059	149.84
828.237	155.99
828.414	127.32
828.591	39.25
828.769	176.47
828.946	117.08
829.124	147.8
829.301	149.84
829.478	76.12
829.655	186.71
829.833	180.56
830.01	57.68
830.187	76.12
830.364	141.65
830.542	67.92
830.719	182.61
830.896	229.71
831.073	92.5
831.25	155.99
831.427	205.14
831.604	123.22
831.782	149.84
831.959	170.32
832.136	170.32
832.313	168.27
832.49	119.12
832.667	205.14
832.844	49.49
833.021	164.18
833.198	141.65
833.374	178.51
833.551	164.18
833.728	108.88
833.905	100.69
834.082	98.64
834.259	115.03
834.436	188.75
834.612	80.21
834.789	158.03
834.966	151.89
835.143	182.61
835.319	59.73
835.496	125.27
835.673	106.84
835.85	84.31
836.026	188.75
836.203	143.7
836.38	57.68
836.556	57.68
836.733	0.34
836.909	172.37
837.086	63.83
837.262	55.64
837.439	149.84
837.616	74.07
837.792	35.16
837.968	94.55
838.145	33.11
838.321	98.64
838.498	151.89
838.674	147.8
838.851	102.74
839.027	82.26
839.203	94.55
839.38	133.46
839.556	110.93
839.732	131.41
839.909	84.31
840.085	160.08
840.261	137.56
840.437	33.11
840.614	37.2
840.79	98.64
840.966	37.2
841.142	84.31
841.318	35.16
841.494	74.07
841.671	106.84
841.847	137.56
842.023	96.6
842.199	115.03
842.375	80.21
842.551	76.12
842.727	131.41
842.903	76.12
843.079	61.78
843.255	153.94
843.431	78.16
843.607	94.55
843.783	24.92
843.959	98.64
844.134	-13.99
844.31	149.84
844.486	-9.9
844.662	53.59
844.838	74.07
845.013	110.93
845.189	61.78
845.365	129.36
845.541	55.64
845.716	76.12
845.892	0.34
846.068	59.73
846.244	-32.43
846.419	104.79
846.595	0.34
846.77	90.45
846.946	33.11
847.122	123.22
847.297	-7.85
847.473	100.69
847.648	-38.57
847.824	72.02
847.999	22.87
848.175	119.12
848.35	69.97
848.526	123.22
848.701	137.56
848.876	143.7
849.052	141.65
849.227	86.36
849.403	74.07
849.578	82.26
849.753	78.16
849.929	147.8
850.104	-3.75
850.279	74.07
850.454	47.44
850.63	67.92
850.805	61.78
850.98	110.93
851.155	96.6
851.33	98.64
851.505	55.64
851.681	155.99
851.856	104.79
852.031	24.92
852.206	80.21
852.381	14.68
852.556	14.68
852.731	123.22
852.906	123.22
853.081	63.83
853.256	131.41
853.431	59.73
853.606	-20.14
853.781	41.3
853.956	31.06
854.131	31.06
854.305	33.11
854.48	65.88
854.655	33.11
854.83	31.06
855.005	78.16
855.18	108.88
855.354	33.11
855.529	51.54
855.704	102.74
855.879	90.45
856.053	47.44
856.228	108.88
856.403	43.35
856.577	8.53
856.752	0.34
856.926	41.3
857.101	24.92
857.276	22.87
857.45	24.92
857.625	47.44
857.799	16.73
857.974	74.07
858.148	-40.62
858.323	98.64
858.497	33.11
858.672	78.16
858.846	100.69
859.02	117.08
859.195	16.73
859.369	37.2
859.543	67.92
859.718	20.82
859.892	47.44
860.066	47.44
860.241	43.35
860.415	12.63
860.589	33.11
860.763	90.45
860.938	31.06
861.112	72.02
861.286	92.5
861.46	65.88
861.634	94.55
861.808	65.88
861.982	22.87
862.157	78.16
862.331	51.54
862.505	43.35
862.679	10.58
862.853	14.68
863.027	20.82
863.201	117.08
863.375	45.4
863.549	35.16
863.722	24.92
863.896	55.64
864.07	57.68
864.244	45.4
864.418	123.22
864.592	0.34
864.766	14.68
864.939	18.77
865.113	33.11
865.287	84.31
865.461	84.31
865.634	94.55
865.808	45.4
865.982	53.59
866.156	-9.9
866.329	0.34
866.503	-65.19
866.676	90.45
866.85	49.49
867.024	26.96
867.197	59.73
867.371	57.68
867.544	8.53
867.718	29.01
867.891	49.49
868.065	49.49
868.238	53.59
868.412	84.31
868.585	90.45
868.759	-3.75
868.932	43.35
869.105	55.64
869.279	33.11
869.452	-28.33
869.625	-5.8
869.799	82.26
869.972	-11.95
870.145	61.78
870.319	18.77
870.492	92.5
870.665	74.07
870.838	10.58
871.011	-85.67
871.185	29.01
871.358	-32.43
871.531	29.01
871.704	-24.23
871.877	22.87
872.05	-36.52
872.223	16.73
872.396	78.16
872.569	84.31
872.742	-71.34
872.915	98.64
873.088	8.53
873.261	84.31
873.434	65.88
873.607	8.53
873.78	57.68
873.953	-42.67
874.126	41.3
874.299	41.3
874.471	4.44
874.644	29.01
874.817	147.8
874.99	110.93
875.163	-65.19
875.335	37.2
875.508	26.96
875.681	74.07
875.853	4.44
876.026	45.4
876.199	35.16
876.371	57.68
876.544	51.54
876.717	-24.23
876.889	22.87
877.062	90.45
877.234	-22.19
877.407	45.4
877.579	-9.9
877.752	65.88
877.924	98.64
878.097	-38.57
878.269	-79.53
878.442	-44.71
878.614	16.73
878.786	33.11
878.959	69.97
879.131	45.4
879.303	-52.91
879.476	-1.71
879.648	12.63
879.82	-24.23
879.993	4.44
880.165	26.96
880.337	-48.81
880.509	26.96
880.681	-108.2
880.854	16.73
881.026	26.96
881.198	74.07
881.37	-7.85
881.542	24.92
881.714	10.58
881.886	43.35
882.058	72.02
882.23	98.64
882.402	-57
882.574	29.01
882.746	90.45
882.918	76.12
883.09	76.12
883.262	-16.04
883.434	41.3
883.606	-11.95
883.778	-7.85
883.95	65.88
884.122	10.58
884.293	67.92
884.465	41.3
884.637	78.16
884.809	0.34
884.98	-30.38
885.152	-22.19
885.324	49.49
885.496	-36.52
885.667	67.92
885.839	-7.85
886.011	65.88
886.182	61.78
886.354	2.39
886.525	65.88
886.697	0.34
886.869	-120.49
887.04	51.54
887.212	10.58
887.383	106.84
887.555	4.44
887.726	0.34
887.897	-1.71
888.069	-24.23
888.24	33.11
888.412	-22.19
888.583	-11.95
888.754	-9.9
888.926	-11.95
889.097	-34.47
889.268	-81.58
889.44	35.16
889.611	-3.75
889.782	-42.67
889.953	-7.85
890.125	133.46
890.296	-9.9
890.467	-69.29
890.638	41.3
890.809	-3.75
890.98	14.68
891.151	100.69
891.323	26.96
891.494	88.4
891.665	-24.23
891.836	4.44
892.007	12.63
892.178	8.53
892.349	-13.99
892.52	39.25
892.691	67.92
892.862	-71.34
893.032	-24.23
893.203	-32.43
893.374	-59.05
893.545	37.2
893.716	-24.23
893.887	-11.95
894.057	69.97
894.228	69.97
894.399	-34.47
894.57	53.59
894.74	65.88
894.911	47.44
895.082	-18.09
895.253	-16.04
895.423	35.16
895.594	49.49
895.764	86.36
895.935	-20.14
896.106	8.53
896.276	-97.96
896.447	-13.99
896.617	-59.05
896.788	-52.91
896.958	22.87
897.129	10.58
897.299	-30.38
897.47	100.69
897.64	98.64
897.81	-3.75
897.981	-13.99
898.151	-36.52
898.322	35.16
898.492	8.53
898.662	-40.62
898.832	2.39
899.003	-28.33
899.173	47.44
899.343	-30.38
899.513	-79.53
