Data from USB4F104151__65__12-24-13-157.txt Node

Date: Fri Mar 14 12:24:13 EDT 2025
User: louis
Spectrometer: USB4F10415
Trigger mode: 4
Integration Time (sec): 3.500000E-2
Scans to average: 1
Electric dark correction enabled: true
Nonlinearity correction enabled: false
Boxcar width: 0
XAxis mode: Wavelengths
Number of Pixels in Spectrum: 3648
>>>>>Begin Spectral Data<<<<<
178.204	-146.26
178.424	-146.26
178.644	-146.26
178.864	-99.16
179.084	-156.5
179.304	9.39
179.524	-11.09
179.744	-54.1
179.964	101.55
180.184	-17.24
180.404	66.73
180.624	11.43
180.844	-33.62
181.064	-66.39
181.283	-9.05
181.503	-2.9
181.723	5.29
181.943	-70.48
182.163	66.73
182.383	-0.85
182.602	42.15
182.822	46.25
183.042	38.06
183.262	11.43
183.482	-15.19
183.701	-90.96
183.921	3.24
184.141	-23.38
184.361	68.78
184.58	62.63
184.8	64.68
185.02	9.39
185.239	87.21
185.459	17.58
185.679	-0.85
185.898	36.01
186.118	15.53
186.338	23.72
186.557	-4.95
186.777	72.87
186.997	56.49
187.216	17.58
187.436	101.55
187.655	-88.92
187.875	36.01
188.095	-21.33
188.314	1.19
188.534	91.31
188.753	-37.72
188.973	21.67
189.192	31.91
189.412	9.39
189.631	50.35
189.851	-13.14
190.07	60.59
190.29	-80.72
190.509	25.77
190.729	40.11
190.948	-17.24
191.168	185.51
191.387	40.11
191.607	13.48
191.826	40.11
192.045	-25.43
192.265	9.39
192.484	44.2
192.704	66.73
192.923	-39.76
193.142	136.36
193.362	1.19
193.581	83.11
193.8	36.01
194.02	50.35
194.239	79.02
194.458	99.5
194.678	-9.05
194.897	40.11
195.116	74.92
195.335	-9.05
195.555	44.2
195.774	17.58
195.993	85.16
196.212	3.24
196.432	-9.05
196.651	40.11
196.87	19.63
197.089	128.17
197.308	-29.52
197.528	101.55
197.747	-54.1
197.966	56.49
198.185	25.77
198.404	-70.48
198.623	44.2
198.842	68.78
199.062	109.74
199.281	54.44
199.5	-0.85
199.719	-68.44
199.938	109.74
200.157	38.06
200.376	81.07
200.595	-39.76
200.814	107.69
201.033	-47.96
201.252	-9.05
201.471	60.59
201.69	25.77
201.909	25.77
202.128	13.48
202.347	33.96
202.566	15.53
202.785	1.19
203.004	-15.19
203.223	50.35
203.442	11.43
203.661	-52.05
203.879	-37.72
204.098	62.63
204.317	13.48
204.536	93.35
204.755	50.35
204.974	58.54
205.193	15.53
205.411	122.02
205.63	-29.52
205.849	79.02
206.068	17.58
206.287	15.53
206.505	23.72
206.724	-2.9
206.943	9.39
207.162	17.58
207.381	42.15
207.599	21.67
207.818	85.16
208.037	-39.76
208.255	33.96
208.474	19.63
208.693	-0.85
208.911	42.15
209.13	60.59
209.349	-52.05
209.567	64.68
209.786	31.91
210.005	64.68
210.223	7.34
210.442	-21.33
210.661	52.39
210.879	38.06
211.098	-25.43
211.316	9.39
211.535	36.01
211.753	40.11
211.972	62.63
212.191	40.11
212.409	-13.14
212.628	-13.14
212.846	-68.44
213.065	5.29
213.283	54.44
213.502	-47.96
213.72	40.11
213.938	38.06
214.157	44.2
214.375	17.58
214.594	-37.72
214.812	50.35
215.031	29.87
215.249	-93.01
215.467	-7
215.686	-27.48
215.904	-0.85
216.122	-41.81
216.341	130.22
216.559	-4.95
216.778	74.92
216.996	76.97
217.214	11.43
217.432	60.59
217.651	-7
217.869	21.67
218.087	17.58
218.306	33.96
218.524	15.53
218.742	15.53
218.96	5.29
219.179	7.34
219.397	23.72
219.615	19.63
219.833	25.77
220.051	23.72
220.27	62.63
220.488	56.49
220.706	60.59
220.924	11.43
221.142	-33.62
221.36	31.91
221.578	115.88
221.796	54.44
222.015	-54.1
222.233	-27.48
222.451	-15.19
222.669	9.39
222.887	70.83
223.105	11.43
223.323	-72.53
223.541	70.83
223.759	97.45
223.977	-31.57
224.195	124.07
224.413	66.73
224.631	40.11
224.849	-33.62
225.067	81.07
225.285	40.11
225.503	-13.14
225.721	58.54
225.939	-17.24
226.157	46.25
226.375	66.73
226.592	9.39
226.81	-2.9
227.028	7.34
227.246	148.65
227.464	38.06
227.682	25.77
227.9	74.92
228.117	81.07
228.335	27.82
228.553	-2.9
228.771	93.35
228.989	72.87
229.206	3.24
229.424	-54.1
229.642	93.35
229.86	42.15
230.077	13.48
230.295	19.63
230.513	31.91
230.731	83.11
230.948	79.02
231.166	66.73
231.384	74.92
231.601	58.54
231.819	44.2
232.037	44.2
232.254	-50
232.472	3.24
232.689	-45.91
232.907	21.67
233.125	3.24
233.342	3.24
233.56	33.96
233.777	25.77
233.995	-17.24
234.213	119.98
234.43	17.58
234.648	17.58
234.865	-7
235.083	31.91
235.3	31.91
235.518	13.48
235.735	50.35
235.953	44.2
236.17	38.06
236.388	5.29
236.605	7.34
236.822	-7
237.04	-31.57
237.257	46.25
237.475	-2.9
237.692	66.73
237.909	117.93
238.127	7.34
238.344	44.2
238.562	-33.62
238.779	3.24
238.996	-7
239.214	7.34
239.431	-19.29
239.648	-84.82
239.865	42.15
240.083	-29.52
240.3	1.19
240.517	-23.38
240.735	50.35
240.952	66.73
241.169	58.54
241.386	13.48
241.603	85.16
241.821	-27.48
242.038	128.17
242.255	27.82
242.472	11.43
242.689	-43.86
242.907	19.63
243.124	-37.72
243.341	7.34
243.558	58.54
243.775	9.39
243.992	-17.24
244.209	36.01
244.426	214.18
244.643	103.59
244.86	1.19
245.078	40.11
245.295	58.54
245.512	1.19
245.729	-37.72
245.946	29.87
246.163	85.16
246.38	46.25
246.597	25.77
246.814	33.96
247.031	25.77
247.248	-39.76
247.464	3.24
247.681	68.78
247.898	5.29
248.115	29.87
248.332	-9.05
248.549	81.07
248.766	68.78
248.983	101.55
249.2	-19.29
249.417	44.2
249.633	27.82
249.85	19.63
250.067	-13.14
250.284	111.78
250.501	109.74
250.717	66.73
250.934	-19.29
251.151	48.3
251.368	11.43
251.585	31.91
251.801	42.15
252.018	-50
252.235	13.48
252.451	36.01
252.668	11.43
252.885	23.72
253.102	66.73
253.318	50.35
253.535	54.44
253.752	21.67
253.968	-37.72
254.185	-19.29
254.401	3.24
254.618	48.3
254.835	25.77
255.051	54.44
255.268	70.83
255.484	29.87
255.701	13.48
255.917	89.26
256.134	-27.48
256.351	-64.34
256.567	-15.19
256.784	74.92
257	-39.76
257.217	50.35
257.433	72.87
257.65	-7
257.866	48.3
258.082	-25.43
258.299	-2.9
258.515	27.82
258.732	-21.33
258.948	-25.43
259.165	7.34
259.381	-7
259.597	1.19
259.814	-15.19
260.03	72.87
260.246	31.91
260.463	23.72
260.679	93.35
260.895	23.72
261.112	46.25
261.328	9.39
261.544	-52.05
261.761	33.96
261.977	-13.14
262.193	3.24
262.409	54.44
262.626	85.16
262.842	-15.19
263.058	58.54
263.274	40.11
263.49	56.49
263.707	85.16
263.923	-25.43
264.139	-47.96
264.355	40.11
264.571	103.59
264.787	99.5
265.004	21.67
265.22	21.67
265.436	40.11
265.652	7.34
265.868	15.53
266.084	-15.19
266.3	54.44
266.516	-41.81
266.732	58.54
266.948	17.58
267.164	31.91
267.38	19.63
267.596	95.4
267.812	-4.95
268.028	105.64
268.244	33.96
268.46	29.87
268.676	-7
268.892	-0.85
269.108	50.35
269.324	-50
269.54	7.34
269.756	136.36
269.972	-60.24
270.188	36.01
270.403	-33.62
270.619	-33.62
270.835	74.92
271.051	58.54
271.267	25.77
271.483	40.11
271.698	11.43
271.914	60.59
272.13	66.73
272.346	-25.43
272.562	5.29
272.777	101.55
272.993	46.25
273.209	15.53
273.425	-29.52
273.64	-17.24
273.856	-4.95
274.072	64.68
274.287	-25.43
274.503	50.35
274.719	74.92
274.934	-19.29
275.15	-21.33
275.366	-27.48
275.581	17.58
275.797	40.11
276.012	9.39
276.228	109.74
276.444	44.2
276.659	23.72
276.875	36.01
277.09	25.77
277.306	3.24
277.521	25.77
277.737	52.39
277.952	31.91
278.168	64.68
278.383	7.34
278.599	17.58
278.814	58.54
279.03	-58.2
279.245	70.83
279.461	109.74
279.676	124.07
279.892	-13.14
280.107	-23.38
280.322	1.19
280.538	113.83
280.753	-35.67
280.969	46.25
281.184	115.88
281.399	138.41
281.615	-27.48
281.83	21.67
282.045	13.48
282.26	3.24
282.476	17.58
282.691	17.58
282.906	70.83
283.122	11.43
283.337	-50
283.552	56.49
283.767	64.68
283.983	74.92
284.198	13.48
284.413	-4.95
284.628	-11.09
284.843	83.11
285.058	50.35
285.274	40.11
285.489	76.97
285.704	40.11
285.919	64.68
286.134	-19.29
286.349	-54.1
286.564	36.01
286.779	48.3
286.995	-7
287.21	-15.19
287.425	44.2
287.64	-0.85
287.855	62.63
288.07	-52.05
288.285	95.4
288.5	76.97
288.715	40.11
288.93	56.49
289.145	-9.05
289.36	97.45
289.575	-33.62
289.79	89.26
290.004	-33.62
290.219	40.11
290.434	9.39
290.649	13.48
290.864	-4.95
291.079	60.59
291.294	46.25
291.509	29.87
291.724	27.82
291.938	-25.43
292.153	46.25
292.368	38.06
292.583	60.59
292.798	3.24
293.012	113.83
293.227	85.16
293.442	-4.95
293.657	87.21
293.871	76.97
294.086	19.63
294.301	44.2
294.516	83.11
294.73	79.02
294.945	-60.24
295.16	44.2
295.374	17.58
295.589	50.35
295.804	19.63
296.018	83.11
296.233	101.55
296.447	91.31
296.662	17.58
296.877	25.77
297.091	13.48
297.306	74.92
297.52	-2.9
297.735	54.44
297.949	-17.24
298.164	44.2
298.378	-7
298.593	-9.05
298.807	-35.67
299.022	76.97
299.236	70.83
299.451	70.83
299.665	7.34
299.88	-56.15
300.094	9.39
300.309	-7
300.523	25.77
300.737	-66.39
300.952	144.55
301.166	62.63
301.381	40.11
301.595	15.53
301.809	17.58
302.024	48.3
302.238	-66.39
302.452	99.5
302.667	13.48
302.881	3.24
303.095	103.59
303.309	83.11
303.524	50.35
303.738	-27.48
303.952	70.83
304.166	-0.85
304.381	-11.09
304.595	142.5
304.809	-17.24
305.023	38.06
305.237	33.96
305.452	70.83
305.666	56.49
305.88	-4.95
306.094	-25.43
306.308	68.78
306.522	128.17
306.736	46.25
306.95	42.15
307.164	79.02
307.379	36.01
307.593	74.92
307.807	7.34
308.021	27.82
308.235	17.58
308.449	19.63
308.663	3.24
308.877	128.17
309.091	68.78
309.305	40.11
309.519	-0.85
309.733	83.11
309.947	25.77
310.161	-11.09
310.374	25.77
310.588	54.44
310.802	40.11
311.016	-2.9
311.23	36.01
311.444	-13.14
311.658	19.63
311.872	148.65
312.085	91.31
312.299	68.78
312.513	31.91
312.727	-33.62
312.941	48.3
313.154	29.87
313.368	-11.09
313.582	-50
313.796	54.44
314.009	74.92
314.223	25.77
314.437	81.07
314.651	27.82
314.864	17.58
315.078	19.63
315.292	54.44
315.505	23.72
315.719	66.73
315.933	29.87
316.146	-4.95
316.36	11.43
316.573	79.02
316.787	56.49
317.001	91.31
317.214	-17.24
317.428	7.34
317.641	85.16
317.855	7.34
318.068	66.73
318.282	-19.29
318.495	46.25
318.709	36.01
318.922	-0.85
319.136	89.26
319.349	87.21
319.563	62.63
319.776	-15.19
319.99	42.15
320.203	83.11
320.417	105.64
320.63	7.34
320.843	58.54
321.057	33.96
321.27	9.39
321.483	27.82
321.697	85.16
321.91	42.15
322.124	66.73
322.337	21.67
322.55	62.63
322.763	21.67
322.977	97.45
323.19	-21.33
323.403	-2.9
323.617	101.55
323.83	89.26
324.043	-99.16
324.256	58.54
324.469	72.87
324.683	-19.29
324.896	7.34
325.109	117.93
325.322	-27.48
325.535	15.53
325.748	27.82
325.962	-17.24
326.175	25.77
326.388	85.16
326.601	146.6
326.814	9.39
327.027	19.63
327.24	7.34
327.453	19.63
327.666	60.59
327.879	87.21
328.092	105.64
328.305	56.49
328.518	38.06
328.731	21.67
328.944	19.63
329.157	70.83
329.37	23.72
329.583	136.36
329.796	119.98
330.009	-23.38
330.222	85.16
330.435	91.31
330.648	99.5
330.861	58.54
331.073	11.43
331.286	138.41
331.499	76.97
331.712	48.3
331.925	-23.38
332.138	-60.24
332.35	103.59
332.563	-2.9
332.776	128.17
332.989	7.34
333.202	54.44
333.414	-0.85
333.627	36.01
333.84	66.73
334.053	15.53
334.265	74.92
334.478	76.97
334.691	79.02
334.903	-9.05
335.116	-64.34
335.329	17.58
335.541	66.73
335.754	-37.72
335.966	-7
336.179	103.59
336.392	31.91
336.604	19.63
336.817	25.77
337.029	60.59
337.242	50.35
337.454	5.29
337.667	31.91
337.88	58.54
338.092	31.91
338.305	81.07
338.517	-62.29
338.729	50.35
338.942	99.5
339.154	-23.38
339.367	25.77
339.579	19.63
339.792	13.48
340.004	79.02
340.217	25.77
340.429	74.92
340.641	-33.62
340.854	40.11
341.066	-25.43
341.278	46.25
341.491	136.36
341.703	44.2
341.915	31.91
342.128	85.16
342.34	60.59
342.552	-25.43
342.764	11.43
342.977	89.26
343.189	148.65
343.401	54.44
343.613	-15.19
343.826	46.25
344.038	-4.95
344.25	33.96
344.462	13.48
344.674	23.72
344.886	15.53
345.099	97.45
345.311	54.44
345.523	87.21
345.735	-27.48
345.947	-23.38
346.159	40.11
346.371	56.49
346.583	25.77
346.795	117.93
347.007	62.63
347.219	52.39
347.431	19.63
347.643	103.59
347.855	-23.38
348.067	64.68
348.279	5.29
348.491	124.07
348.703	52.39
348.915	101.55
349.127	46.25
349.339	21.67
349.551	13.48
349.763	62.63
349.975	1.19
350.187	70.83
350.399	105.64
350.61	27.82
350.822	50.35
351.034	1.19
351.246	9.39
351.458	62.63
351.669	3.24
351.881	72.87
352.093	33.96
352.305	93.35
352.517	7.34
352.728	52.39
352.94	31.91
353.152	-0.85
353.363	-11.09
353.575	-27.48
353.787	74.92
353.999	33.96
354.21	27.82
354.422	15.53
354.633	-70.48
354.845	48.3
355.057	21.67
355.268	42.15
355.48	56.49
355.692	-19.29
355.903	89.26
356.115	13.48
356.326	3.24
356.538	-0.85
356.749	115.88
356.961	109.74
357.172	23.72
357.384	25.77
357.595	111.78
357.807	46.25
358.018	5.29
358.23	64.68
358.441	93.35
358.653	-23.38
358.864	15.53
359.075	38.06
359.287	40.11
359.498	58.54
359.709	17.58
359.921	111.78
360.132	-29.52
360.344	40.11
360.555	-43.86
360.766	1.19
360.977	21.67
361.189	56.49
361.4	29.87
361.611	107.69
361.823	60.59
362.034	7.34
362.245	21.67
362.456	19.63
362.667	64.68
362.879	50.35
363.09	76.97
363.301	25.77
363.512	52.39
363.723	17.58
363.935	23.72
364.146	31.91
364.357	-0.85
364.568	68.78
364.779	-13.14
364.99	134.31
365.201	19.63
365.412	93.35
365.623	9.39
365.834	-11.09
366.045	46.25
366.256	21.67
366.467	38.06
366.678	19.63
366.889	64.68
367.1	19.63
367.311	66.73
367.522	19.63
367.733	27.82
367.944	60.59
368.155	27.82
368.366	76.97
368.577	42.15
368.788	83.11
368.999	-19.29
369.209	36.01
369.42	101.55
369.631	46.25
369.842	44.2
370.053	-35.67
370.264	95.4
370.474	58.54
370.685	48.3
370.896	11.43
371.107	50.35
371.317	83.11
371.528	11.43
371.739	140.46
371.95	56.49
372.16	-9.05
372.371	21.67
372.582	-25.43
372.792	111.78
373.003	42.15
373.214	21.67
373.424	54.44
373.635	-11.09
373.846	64.68
374.056	76.97
374.267	27.82
374.477	54.44
374.688	31.91
374.898	38.06
375.109	38.06
375.319	89.26
375.53	68.78
375.74	62.63
375.951	44.2
376.161	33.96
376.372	-15.19
376.582	11.43
376.793	70.83
377.003	-17.24
377.214	42.15
377.424	54.44
377.635	21.67
377.845	5.29
378.055	134.31
378.266	23.72
378.476	3.24
378.686	46.25
378.897	44.2
379.107	70.83
379.317	44.2
379.528	87.21
379.738	27.82
379.948	58.54
380.158	54.44
380.369	33.96
380.579	97.45
380.789	46.25
380.999	93.35
381.21	76.97
381.42	113.83
381.63	36.01
381.84	70.83
382.05	46.25
382.261	56.49
382.471	97.45
382.681	40.11
382.891	173.22
383.101	42.15
383.311	74.92
383.521	76.97
383.731	124.07
383.941	87.21
384.151	66.73
384.361	101.55
384.571	81.07
384.781	76.97
384.991	99.5
385.201	152.74
385.411	31.91
385.621	62.63
385.831	66.73
386.041	83.11
386.251	21.67
386.461	54.44
386.671	36.01
386.881	-43.86
387.091	-2.9
387.301	113.83
387.511	93.35
387.72	117.93
387.93	-2.9
388.14	42.15
388.35	101.55
388.56	101.55
388.769	48.3
388.979	87.21
389.189	-2.9
389.399	81.07
389.609	19.63
389.818	74.92
390.028	31.91
390.238	74.92
390.447	36.01
390.657	95.4
390.867	119.98
391.076	-27.48
391.286	93.35
391.496	-43.86
391.705	40.11
391.915	115.88
392.125	70.83
392.334	62.63
392.544	105.64
392.753	33.96
392.963	21.67
393.172	40.11
393.382	29.87
393.591	72.87
393.801	89.26
394.01	113.83
394.22	91.31
394.429	97.45
394.639	38.06
394.848	38.06
395.058	99.5
395.267	64.68
395.477	-4.95
395.686	81.07
395.895	95.4
396.105	95.4
396.314	107.69
396.524	87.21
396.733	74.92
396.942	85.16
397.152	134.31
397.361	113.83
397.57	132.26
397.78	97.45
397.989	89.26
398.198	181.42
398.407	181.42
398.617	31.91
398.826	97.45
399.035	156.84
399.244	38.06
399.453	130.22
399.663	150.7
399.872	117.93
400.081	107.69
400.29	50.35
400.499	142.5
400.708	126.12
400.917	105.64
401.127	87.21
401.336	42.15
401.545	185.51
401.754	150.7
401.963	76.97
402.172	126.12
402.381	130.22
402.59	81.07
402.799	91.31
403.008	117.93
403.217	64.68
403.426	113.83
403.635	142.5
403.844	89.26
404.053	134.31
404.262	130.22
404.471	181.42
404.68	113.83
404.888	122.02
405.097	74.92
405.306	212.14
405.515	109.74
405.724	187.56
405.933	199.85
406.142	148.65
406.35	167.08
406.559	165.03
406.768	189.61
406.977	183.46
407.185	173.22
407.394	158.89
407.603	115.88
407.812	171.18
408.02	154.79
408.229	236.71
408.438	255.14
408.646	181.42
408.855	242.85
409.064	228.52
409.272	238.76
409.481	289.96
409.69	281.77
409.898	210.09
410.107	205.99
410.315	289.96
410.524	322.73
410.733	289.96
410.941	281.77
411.15	349.35
411.358	394.4
411.567	320.68
411.775	375.97
411.984	306.34
412.192	324.77
412.401	353.45
412.609	375.97
412.818	443.56
413.026	378.02
413.234	404.64
413.443	433.32
413.651	466.08
413.86	427.17
414.068	498.85
414.276	531.62
414.485	535.71
414.693	646.3
414.901	650.4
415.11	644.26
415.318	574.63
415.526	642.21
415.734	738.46
415.943	713.89
416.151	783.52
416.359	722.08
416.567	775.33
416.776	853.15
416.984	887.97
417.192	828.57
417.4	826.53
417.608	871.58
417.817	898.2
418.025	902.3
418.233	1076.38
418.441	971.93
418.649	976.03
418.857	1193.11
419.065	1172.63
419.273	1189.02
419.481	1111.19
419.689	1266.84
419.897	1287.32
420.105	1344.66
420.313	1393.81
420.521	1389.72
420.729	1586.32
420.937	1440.92
421.145	1512.6
421.353	1635.47
421.561	1744.02
421.769	1811.6
421.977	1694.86
422.185	1791.12
422.393	1903.76
422.601	2051.21
422.809	1950.86
423.017	2018.44
423.224	2145.42
423.432	2108.55
423.64	2137.23
423.848	2366.6
424.056	2159.75
424.263	2509.96
424.471	2489.48
424.679	2612.35
424.887	2770.05
425.094	2747.52
425.302	2753.66
425.51	2839.68
425.718	3097.72
425.925	2989.18
426.133	3187.83
426.341	3216.51
426.548	3540.08
426.756	3445.88
426.964	3538.04
427.171	3687.54
427.379	3669.11
427.586	3974.25
427.794	3947.63
428.001	4250.73
428.209	4392.04
428.417	4287.59
428.624	4535.4
428.832	4557.93
429.039	4621.41
429.247	4437.09
429.454	5065.82
429.662	5297.24
429.869	4930.66
430.076	5354.58
430.284	5248.09
430.491	5467.22
430.699	5938.26
430.906	5639.25
431.114	5692.5
431.321	5979.22
431.528	6046.8
431.736	6528.07
431.943	6798.4
432.15	6618.18
432.358	6706.24
432.565	7023.68
432.772	7044.16
432.979	7427.13
433.187	7552.06
433.394	7582.77
433.601	8215.6
433.808	8006.7
434.016	8049.71
434.223	8408.11
434.43	8991.78
434.637	8639.53
434.844	9272.35
435.052	9503.77
435.259	9425.95
435.466	9536.54
435.673	9421.85
435.88	10062.87
436.087	10316.81
436.294	10679.3
436.501	10284.05
436.708	10394.64
436.915	10798.09
437.122	11326.46
437.329	11305.98
437.537	11770.87
437.743	11822.07
437.95	11799.54
438.157	12651.5
438.364	12801
438.571	12864.49
438.778	12757.99
438.985	13986.77
439.192	13505.5
439.399	13933.53
439.606	13485.02
439.813	14595.02
440.02	15451.07
440.227	15057.86
440.433	15127.49
440.64	15201.22
440.847	15348.67
441.054	15631.29
441.261	16798.63
441.467	16524.21
441.674	16808.87
441.881	17560.48
442.088	17335.2
442.294	17488.8
442.501	17728.41
442.708	17888.15
442.914	18684.81
443.121	19610.5
443.328	19260.29
443.534	20441.97
443.741	19852.16
443.948	19854.2
444.154	21197.67
444.361	20886.38
444.568	21222.25
444.774	21191.53
444.981	21502.82
445.187	21965.66
445.394	23008.08
445.6	22645.59
445.807	24746.8
446.013	23610.18
446.22	24128.31
446.426	24877.87
446.633	25400.1
446.839	26157.85
447.046	25223.98
447.252	26319.64
447.459	26682.13
447.665	26452.76
447.871	27693.83
448.078	28752.63
448.284	27648.77
448.491	28351.23
448.697	29434.6
448.903	30024.42
449.11	29915.87
449.316	29252.33
449.522	30272.22
449.728	30552.79
449.935	31460.04
450.141	30952.15
450.347	31775.43
450.553	30417.63
450.76	31046.35
450.966	32072.39
451.172	31818.44
451.378	32549.56
451.584	32146.11
451.791	32987.83
451.997	32836.28
452.203	33090.23
452.409	33360.56
452.615	33233.58
452.821	31859.4
453.027	31345.36
453.233	33176.24
453.44	31591.11
453.646	31890.12
453.852	32541.37
454.058	33036.98
454.264	31621.83
454.47	32037.57
454.676	31769.29
454.882	32348.86
455.088	29833.96
455.294	30415.58
455.5	30632.66
455.705	31228.62
455.911	30143.2
456.117	29162.22
456.323	29244.14
456.529	27771.65
456.735	28365.56
456.941	28064.51
457.147	27415.3
457.352	26463
457.558	26442.52
457.764	26010.4
457.97	25715.49
458.176	25328.42
458.381	24668.98
458.587	23948.09
458.793	24097.59
458.999	22616.91
459.204	24271.67
459.41	23634.75
459.616	22063.96
459.821	22037.34
460.027	22113.11
460.233	21713.76
460.438	20269.94
460.644	20542.32
460.85	20038.52
461.055	19481.47
461.261	19360.64
461.466	17970.07
461.672	17724.32
461.878	18805.64
462.083	17363.87
462.289	16905.13
462.494	16870.31
462.7	16354.23
462.905	15711.16
463.111	16055.22
463.316	16403.38
463.522	15889.34
463.727	15901.62
463.932	15721.4
464.138	15682.49
464.343	16061.37
464.549	15489.98
464.754	15811.51
464.959	15780.79
465.165	15711.16
465.37	14922.69
465.575	14789.58
465.781	15043.53
465.986	15506.37
466.191	14633.93
466.397	14509.01
466.602	13829.08
466.807	14363.6
467.012	14046.16
467.218	14111.7
467.423	14210
467.628	14210
467.833	14670.79
468.038	14140.37
468.244	13650.91
468.449	14336.98
468.654	13908.95
468.859	13587.42
469.064	13478.88
469.269	13079.52
469.474	13312.99
469.679	13525.98
469.885	12891.11
470.09	13136.87
470.295	13368.29
470.5	12960.74
470.705	13089.76
470.91	12706.79
471.115	12639.21
471.32	12725.22
471.525	12811.24
471.73	12311.53
471.935	12350.45
472.139	11791.35
472.344	12078.07
472.549	11846.65
472.754	11764.73
472.959	11656.18
473.164	11078.66
473.369	11123.71
473.574	11432.96
473.778	11521.02
473.983	11344.89
474.188	11074.56
474.393	10806.28
474.598	10859.52
474.802	10695.69
475.007	10607.62
475.212	10714.12
475.417	10279.95
475.621	10126.35
475.826	10243.09
476.031	10073.1
476.235	9884.69
476.44	10183.7
476.645	9860.12
476.849	9722.9
477.054	9813.01
477.259	9454.62
477.463	9831.44
477.668	9483.29
477.872	9563.16
478.077	9079.84
478.282	8940.58
478.486	9002.02
478.691	9026.59
478.895	8963.11
479.1	8889.38
479.304	8920.1
479.509	8723.49
479.713	8766.5
479.918	8668.2
480.122	8504.36
480.326	8715.3
480.531	8653.86
480.735	8299.56
480.94	8367.15
481.144	8698.92
481.348	8223.79
481.553	8412.2
481.757	8109.1
481.961	8139.82
482.166	8334.38
482.37	8168.49
482.574	8250.41
482.778	8213.55
482.983	8242.22
483.187	8152.11
483.391	8193.07
483.595	8256.56
483.8	8123.44
484.004	8303.66
484.208	8307.76
484.412	8162.35
484.616	8236.08
484.821	8293.42
485.025	8145.97
485.229	8209.45
485.433	8248.36
485.637	8092.72
485.841	8105.01
486.045	8170.54
486.249	8365.1
486.453	8193.07
486.657	8197.17
486.861	8377.39
487.065	8029.23
487.269	8184.88
487.473	8115.25
487.677	8262.7
487.881	8248.36
488.085	8365.1
488.289	8256.56
488.493	8287.28
488.697	8238.12
488.901	8328.24
489.105	8145.97
489.309	8264.75
489.512	8346.67
489.716	8205.36
489.92	8379.43
490.124	8291.37
490.328	8576.04
490.531	8361
490.735	8533.03
490.939	8432.68
491.143	8365.1
491.346	8479.79
491.55	8516.65
491.754	8471.59
491.958	8559.66
492.161	8539.18
492.365	8670.25
492.569	8426.54
492.772	8668.2
492.976	8705.06
493.18	8674.34
493.383	8965.15
493.587	9028.64
493.79	9100.32
493.994	9053.22
494.197	8948.77
494.401	9069.6
494.605	9092.13
494.808	9329.69
495.012	9233.44
495.215	9243.68
495.419	9389.08
495.622	9378.84
495.825	9669.66
496.029	9645.08
496.232	9772.05
496.436	9727
496.639	10073.1
496.843	9948.18
497.046	10355.72
497.249	10275.85
497.453	10013.71
497.656	10445.84
497.859	10365.96
498.063	10619.91
498.266	10843.14
498.469	10847.24
498.673	10849.29
498.876	10994.69
499.079	11006.98
499.282	11031.55
499.485	11389.95
499.689	11414.52
499.892	11432.96
500.095	11453.44
500.298	12002.29
500.501	11811.83
500.705	12039.15
500.908	12248.05
501.111	12327.92
501.314	12647.4
501.517	12714.98
501.72	12940.26
501.923	12811.24
502.126	13161.44
502.329	13323.23
502.532	13278.18
502.735	13437.92
502.938	13626.33
503.141	13636.57
503.344	13700.06
503.547	13835.22
503.75	13921.24
503.953	14019.54
504.156	14275.54
504.359	14650.32
504.562	14631.88
504.765	15137.73
504.968	15119.3
505.17	15369.15
505.373	15549.37
505.576	15883.19
505.779	15918.01
505.982	16169.91
506.185	16221.11
506.387	16370.61
506.59	16749.48
506.793	16829.35
506.996	16841.64
507.198	17204.13
507.401	17243.04
507.604	17466.27
507.807	17433.5
508.009	17746.84
508.212	17873.82
508.415	18295.7
508.617	18443.15
508.82	18652.05
509.022	18666.38
509.225	19133.32
509.428	19301.25
509.63	19327.88
509.833	19731.33
510.035	20061.05
510.238	19938.17
510.44	19788.67
510.643	20458.35
510.845	20605.81
511.048	20374.39
511.25	20966.25
511.453	21109.61
511.655	21752.67
511.858	21404.52
512.06	21670.75
512.262	22127.45
512.465	21889.88
512.667	22152.02
512.87	22758.22
513.072	22960.97
513.274	23192.39
513.477	23569.22
513.679	23706.43
513.881	23872.32
514.084	24367.93
514.286	23950.14
514.488	24208.19
514.69	24976.17
514.893	25082.67
515.095	24900.4
515.297	25738.02
515.499	25547.56
515.701	26037.02
515.904	26204.95
516.106	26356.5
516.308	26645.27
516.51	27464.46
516.712	27280.14
516.914	27548.42
517.116	27876.1
517.318	28394.23
517.52	28105.47
517.722	28310.27
517.925	28730.1
518.127	28914.42
518.329	29008.62
518.531	29291.24
518.733	29899.49
518.935	29956.83
519.136	30018.27
519.338	30343.9
519.54	30714.58
519.742	31060.69
519.944	31320.78
520.146	31738.57
520.348	31859.4
520.55	32191.17
520.752	32289.47
520.954	32899.76
521.155	32727.74
521.357	33301.17
521.559	33653.42
521.761	33872.55
521.963	33899.17
522.164	33921.7
522.366	34321.05
522.568	34548.38
522.77	34931.35
522.971	35359.38
523.173	35449.49
523.375	35246.74
523.576	35328.66
523.778	36059.78
523.98	36229.76
524.181	36319.87
524.383	36375.17
524.584	36866.68
524.786	36618.88
524.988	36821.62
525.189	37724.78
525.391	37849.71
525.592	37632.62
525.794	38058.6
525.995	38068.84
526.197	38468.19
526.398	38431.33
526.6	38500.96
526.801	39035.48
527.003	38976.09
527.204	38994.52
527.406	39266.9
527.607	38955.61
527.808	39725.64
528.01	39203.41
528.211	39852.62
528.412	40467.01
528.614	40202.82
528.815	40108.61
529.016	40868.41
529.218	40489.54
529.419	40964.67
529.62	40446.53
529.822	40309.32
530.023	40774.2
530.224	40946.23
530.425	40880.7
530.626	40575.55
530.828	40704.57
531.029	42203.69
531.23	41366.07
531.431	40958.52
531.632	41746.99
531.833	41601.58
532.035	41910.83
532.236	41871.92
532.437	41740.85
532.638	41771.57
532.839	41880.11
533.04	41650.74
533.241	41601.58
533.442	42080.81
533.643	41839.15
533.844	41871.92
534.045	42138.15
534.246	41953.83
534.447	42062.38
534.648	42211.88
534.849	42050.09
535.05	41691.69
535.251	42138.15
535.451	41992.75
535.652	42519.07
535.853	42187.3
536.054	42322.47
536.255	42361.38
536.456	41708.08
536.657	42863.13
536.857	41923.11
537.058	42185.25
537.259	42633.76
537.46	42629.66
537.66	42451.49
537.861	42453.54
538.062	41939.5
538.263	42459.68
538.463	41929.26
538.664	41826.86
538.865	42635.81
539.065	42584.61
539.266	42185.25
539.466	42715.68
539.667	42314.28
539.868	42889.76
540.068	42263.08
540.269	42338.85
540.469	42396.2
540.67	41892.4
540.87	42502.69
541.071	42463.78
541.271	42533.41
541.472	41904.68
541.672	42312.23
541.873	42154.54
542.073	42084.9
542.274	42445.35
542.474	42318.37
542.675	41820.72
542.875	42140.2
543.075	41916.97
543.276	41665.07
543.476	42390.05
543.676	42222.12
543.877	42158.63
544.077	42052.14
544.277	42023.47
544.478	41794.09
544.678	42400.29
544.878	41886.25
545.078	42199.59
545.279	41863.72
545.479	41665.07
545.679	42099.24
545.879	42113.58
546.079	42101.29
546.28	41892.4
546.48	41812.52
546.68	41609.78
546.88	42025.51
547.08	41878.06
547.28	41980.46
547.48	41486.9
547.68	42021.42
547.88	41478.71
548.081	41626.16
548.281	41804.33
548.481	41321.01
548.681	41620.02
548.881	41716.27
549.081	41687.6
549.28	41560.62
549.48	41970.22
549.68	42138.15
549.88	42377.76
550.08	41398.83
550.28	41775.66
550.48	41642.54
550.68	41970.22
550.88	41738.8
551.08	41458.23
551.279	41525.81
551.479	41196.09
551.679	41570.86
551.879	41411.12
552.079	41812.52
552.278	41552.43
552.478	41968.17
552.678	41728.56
552.878	41888.3
553.077	41511.47
553.277	41105.98
553.477	41605.68
553.676	41550.38
553.876	41241.14
554.076	41163.32
554.275	41247.29
554.475	40899.13
554.674	41228.85
554.874	41290.29
555.074	41216.57
555.273	40976.95
555.473	41278
555.672	40659.52
555.872	40757.82
556.071	41015.86
556.271	41128.5
556.47	40837.69
556.67	40546.88
556.869	40548.93
557.068	40923.71
557.268	40401.47
557.467	40243.78
557.667	40743.48
557.866	40839.74
558.065	40698.43
558.265	40094.28
558.464	39993.93
558.663	40446.53
558.863	39967.3
559.062	40364.61
559.261	39666.25
559.461	40385.09
559.66	39776.84
559.859	40256.07
560.058	39504.46
560.258	40043.08
560.457	39635.53
560.656	39604.81
560.855	39348.82
561.054	39737.93
561.253	39000.66
561.453	39598.67
561.652	39500.37
561.851	39406.16
562.05	38730.33
562.249	39004.76
562.448	39148.12
562.647	38883.93
562.846	38734.43
563.045	39111.25
563.244	38511.2
563.443	38885.98
563.642	38480.48
563.841	38763.1
564.04	38271.59
564.239	38845.02
564.438	38023.78
564.637	38058.6
564.836	38281.83
565.035	37997.16
565.234	37988.97
565.432	37927.53
565.631	37780.07
565.83	37982.82
566.029	37792.36
566.228	37616.24
566.427	37364.34
566.625	37079.67
566.824	36897.4
567.023	36883.06
567.222	36844.15
567.42	37165.68
567.619	37028.47
567.818	36539.01
568.016	36469.37
568.215	36688.51
568.414	36237.95
568.612	36958.84
568.811	36166.27
569.01	36397.7
569.208	35863.18
569.407	36104.84
569.605	35555.98
569.804	35797.64
570.002	35560.08
570.201	35312.27
570.4	35467.92
570.598	34769.56
570.797	35089.04
570.995	35342.99
571.193	34087.59
571.392	34554.52
571.59	34398.88
571.789	34519.71
571.987	35187.35
572.186	34683.55
572.384	34288.29
572.582	34491.04
572.781	34591.39
572.979	33639.08
573.177	33876.65
573.376	34325.15
573.574	33667.75
573.772	33905.32
573.971	33673.9
574.169	33532.59
574.367	33096.37
574.565	33505.96
574.763	33315.5
574.962	33342.13
575.16	32848.57
575.358	33094.32
575.556	32830.13
575.754	33008.31
575.952	32481.98
576.151	32826.04
576.349	32246.46
576.547	32260.8
576.745	32490.17
576.943	32381.63
577.141	32428.73
577.339	32312
577.537	32160.45
577.735	32172.74
577.933	31544.01
578.131	31877.83
578.329	31724.23
578.527	30960.34
578.725	31697.61
578.923	31476.43
579.121	31187.66
579.319	30853.84
579.516	31423.18
579.714	30894.8
579.912	30921.43
580.11	31136.46
580.308	30724.82
580.506	30839.51
580.704	30255.84
580.901	30483.16
581.099	30610.14
581.297	30173.92
581.495	29915.87
581.692	30286.56
581.89	29735.65
582.088	30302.94
582.285	30026.46
582.483	30038.75
582.681	29862.63
582.878	29758.18
583.076	29405.93
583.274	29661.93
583.471	28951.28
583.669	29209.32
583.866	29160.17
584.064	29539.05
584.262	28791.54
584.459	29324.01
584.657	28906.23
584.854	29119.21
585.052	28265.21
585.249	28756.72
585.447	28601.08
585.644	28080.89
585.841	28531.45
586.039	28705.52
586.236	28091.13
586.434	28156.67
586.631	27671.3
586.828	27736.84
587.026	28177.15
587.223	27773.7
587.42	27597.57
587.618	27910.91
587.815	27478.79
588.012	27525.89
588.21	27005.71
588.407	27566.85
588.604	27448.07
588.801	27097.87
588.999	27069.2
589.196	26612.5
589.393	26948.37
589.59	26864.4
589.787	26546.97
589.984	26510.1
590.182	26008.35
590.379	26389.27
590.576	26630.93
590.773	26555.16
590.97	25922.34
591.167	26309.4
591.364	25506.6
591.561	26014.49
591.758	25815.84
591.955	25991.97
592.152	26256.15
592.349	25656.1
592.546	25877.28
592.743	25895.71
592.94	25291.56
593.137	25430.82
593.334	25461.54
593.531	25029.42
593.727	25283.37
593.924	25232.17
594.121	24906.54
594.318	25293.61
594.515	24736.56
594.712	24974.13
594.908	24679.22
595.105	24748.85
595.302	24509.24
595.499	24638.26
595.696	24488.76
595.892	24419.13
596.089	24089.4
596.286	24277.82
596.482	24421.17
596.679	24331.06
596.876	23966.52
597.072	23993.15
597.269	23825.22
597.466	23722.82
597.662	23522.12
597.859	23870.27
598.055	23487.3
598.252	23423.81
598.448	23595.84
598.645	23057.23
598.841	22879.05
599.038	23352.13
599.234	23368.52
599.431	22952.78
599.627	22874.96
599.824	23042.89
600.02	22815.57
600.217	22752.08
600.413	22872.91
600.609	22698.83
600.806	22362.97
601.002	22782.8
601.198	22510.42
601.395	22305.62
601.591	22207.32
601.787	22551.38
601.984	22211.42
602.18	22502.23
602.376	22063.96
602.572	21654.37
602.769	21898.08
602.965	21527.39
603.161	22014.81
603.357	21906.27
603.553	21685.09
603.75	21726.05
603.946	21408.61
604.142	21341.03
604.338	21293.93
604.534	21328.74
604.73	20956.01
604.926	21113.7
605.122	21330.79
605.318	21148.52
605.514	20849.52
605.71	20808.56
605.906	20949.87
606.102	21142.38
606.298	20816.75
606.494	20794.22
606.69	20642.67
606.886	20601.71
607.082	20429.68
607.278	20757.36
607.474	20411.25
607.67	20276.09
607.866	20003.71
608.062	20441.97
608.257	20312.95
608.453	19991.42
608.649	20036.47
608.845	20124.54
609.041	20134.78
609.236	20124.54
609.432	19614.59
609.628	19665.79
609.824	19831.68
610.019	19680.13
610.215	19719.04
610.411	19602.3
610.606	19258.24
610.802	19569.54
610.998	19553.15
611.193	19624.83
611.389	19508.1
611.584	19250.05
611.78	18942.86
611.976	19374.98
612.171	19313.54
612.367	19104.65
612.562	19161.99
612.758	18727.82
612.953	18854.79
613.149	19227.53
613.344	18809.74
613.539	19143.56
613.735	19000.2
613.93	18742.16
614.126	18977.67
614.321	18961.29
614.517	18619.28
614.712	18779.02
614.907	18758.54
615.103	18541.46
615.298	18572.18
615.493	18586.51
615.688	18305.94
615.884	18738.06
616.079	18426.77
616.274	18285.46
616.47	18178.97
616.665	18178.97
616.86	18236.31
617.055	18056.09
617.25	18119.57
617.445	18113.43
617.641	17922.97
617.836	18119.57
618.031	17800.09
618.226	17945.5
618.421	17814.43
618.616	17918.87
618.811	17380.26
619.006	17816.47
619.201	17546.14
619.396	17372.07
619.591	17312.67
619.786	17288.1
619.981	17019.81
620.176	17429.41
620.371	17173.41
620.566	17093.54
620.761	17052.58
620.956	16944.04
621.151	16835.5
621.346	16915.37
621.541	16477.1
621.735	16726.96
621.93	16268.21
622.125	16464.82
622.32	16131
622.515	16292.79
622.709	16098.23
622.904	16200.63
623.099	16270.26
623.294	15934.39
623.488	15883.19
623.683	15819.71
623.878	15487.93
624.072	15719.35
624.267	15514.56
624.462	15418.3
624.656	15266.75
624.851	15553.47
625.046	15064
625.24	15154.12
625.435	15025.09
625.629	15145.92
625.824	14826.44
626.018	14765
626.213	14599.12
626.407	14810.06
626.602	14404.56
626.796	14744.52
626.991	14408.65
627.185	14326.74
627.38	14281.68
627.574	14201.81
627.768	14019.54
627.963	13931.48
628.157	13882.33
628.352	14056.4
628.546	13698.01
628.74	13882.33
628.935	13661.15
629.129	13616.09
629.323	13611.99
629.517	13401.05
629.712	13427.68
629.906	13292.51
630.1	13059.04
630.294	13083.62
630.489	13126.63
630.683	13196.26
630.877	12770.28
631.071	12755.94
631.265	12934.12
631.459	12817.38
631.653	12487.66
631.848	12504.04
632.042	12360.69
632.236	12418.03
632.43	12585.96
632.624	12291.06
632.818	12344.3
633.012	12104.69
633.206	12241.9
633.4	12282.86
633.594	12086.26
633.788	12119.03
633.982	12080.11
634.176	11885.56
634.369	11934.71
634.563	11772.92
634.757	11514.87
634.951	11705.34
635.145	11527.16
635.339	11615.23
635.533	11244.54
635.726	11514.87
635.92	11172.86
636.114	11265.02
636.308	11193.34
636.501	11240.45
636.695	11187.2
636.889	10789.89
637.083	10939.4
637.276	10898.44
637.47	10834.95
637.664	11006.98
637.857	10587.15
638.051	10707.98
638.244	10544.14
638.438	10617.86
638.632	10556.43
638.825	10435.6
639.019	10529.8
639.212	10361.87
639.406	10382.35
639.599	10206.22
639.793	10208.27
639.986	10015.76
640.18	9991.19
640.373	10030.1
640.567	9708.57
640.76	9950.23
640.954	9624.6
641.147	9538.59
641.34	9538.59
641.534	9665.56
641.727	9847.83
641.92	9507.87
642.114	9569.3
642.307	9307.16
642.5	9370.65
642.694	9307.16
642.887	9294.88
643.08	9264.16
643.273	9247.77
643.467	8997.92
643.66	8905.76
643.853	8883.24
644.046	9059.36
644.239	8809.51
644.432	8940.58
644.626	8846.37
644.819	8647.72
645.012	8580.14
645.205	8705.06
645.398	8801.32
645.591	8555.56
645.784	8432.68
645.977	8473.64
646.17	8410.15
646.363	8379.43
646.556	8309.8
646.749	8387.63
646.942	8455.21
647.135	8320.04
647.328	8156.21
647.521	8238.12
647.714	8021.04
647.907	8080.43
648.099	8072.24
648.292	8074.29
648.485	7937.07
648.678	7818.29
648.871	7648.31
649.064	7625.78
649.256	7803.96
649.449	7648.31
649.642	7713.84
649.835	7470.14
650.027	7597.11
650.22	7531.58
650.413	7627.83
650.605	7459.9
650.798	7343.16
650.991	7535.67
651.183	7367.74
651.376	7316.54
651.568	7427.13
651.761	7269.44
651.954	6945.86
652.146	7033.92
652.339	7035.97
652.531	7097.41
652.724	7085.12
652.916	6831.17
653.109	6874.18
653.301	7042.11
653.494	7031.87
653.686	6761.54
653.879	6900.8
654.071	6865.99
654.263	6745.16
654.456	6716.48
654.648	6892.61
654.84	6505.54
655.033	6667.33
655.225	6681.67
655.417	6632.52
655.61	6628.42
655.802	6487.11
655.994	6528.07
656.186	6550.6
656.379	6476.87
656.571	6323.27
656.763	6394.95
656.955	6274.12
657.148	6235.21
657.34	6280.27
657.532	6249.55
657.724	6265.93
657.916	6003.79
658.108	6016.08
658.3	5993.55
658.492	6036.56
658.684	5866.58
658.876	6036.56
659.068	5827.67
659.26	5831.76
659.452	5993.55
659.644	5844.05
659.836	5850.19
660.028	5678.16
660.22	5604.44
660.412	5692.5
660.604	5694.55
660.796	5792.85
660.988	5633.11
661.18	5725.27
661.372	5721.17
661.563	5577.81
661.755	5418.07
661.947	5522.52
662.139	5483.61
662.331	5336.15
662.522	5250.14
662.714	5147.74
662.906	5340.25
663.097	5360.73
663.289	5248.09
663.481	5325.91
663.673	5241.95
663.864	5393.5
664.056	5108.83
664.247	5123.16
664.439	5043.29
664.631	5287
664.822	5121.12
665.014	5069.92
665.205	5031.01
665.397	4940.9
665.588	5024.86
665.78	5039.2
665.971	4916.32
666.163	4912.22
666.354	5094.49
666.546	4897.89
666.737	4799.59
666.929	4918.37
667.12	4854.88
667.311	4977.76
667.503	4906.08
667.694	4818.02
667.885	4787.3
668.077	4742.24
668.268	4586.6
668.459	4844.64
668.651	4768.87
668.842	4846.69
669.033	4541.54
669.224	4533.35
669.416	4656.23
669.607	4600.93
669.798	4586.6
669.989	4689
670.18	4576.36
670.371	4682.85
670.563	4496.49
670.754	4643.94
670.945	4394.09
671.136	4629.6
671.327	4473.96
671.518	4568.16
671.709	4527.21
671.9	4480.1
672.091	4529.25
672.282	4533.35
672.473	4471.91
672.664	4441.19
672.855	4467.81
673.046	4230.25
673.237	4332.65
673.428	4439.14
673.619	4455.53
673.809	4277.35
674	4424.81
674.191	4369.51
674.382	4308.07
674.573	4295.79
674.764	4426.86
674.954	4486.25
675.145	4211.82
675.336	4230.25
675.527	4365.42
675.717	4289.64
675.908	4346.98
676.099	4265.07
676.289	4240.49
676.48	4322.41
676.671	4185.19
676.861	4289.64
677.052	4273.26
677.243	4234.35
677.433	4275.31
677.624	4215.91
677.814	4242.54
678.005	4295.79
678.195	4234.35
678.386	4217.96
678.576	4199.53
678.767	4117.61
678.957	4179.05
679.148	4320.36
679.338	4148.33
679.529	4301.93
679.719	4162.67
679.909	4127.85
680.1	4183.15
680.29	4295.79
680.481	4236.39
680.671	4189.29
680.861	4105.32
681.052	4260.97
681.242	4086.89
681.432	4351.08
681.622	4007.02
681.813	4060.27
682.003	4197.48
682.193	4002.93
682.383	4134
682.573	4000.88
682.764	4050.03
682.954	4134
683.144	4236.39
683.334	4156.52
683.524	4011.12
683.714	4029.55
683.904	4004.97
684.094	4074.6
684.284	4162.67
684.474	4201.58
684.664	4082.8
684.854	4068.46
685.044	4099.18
685.234	4148.33
685.424	3986.54
685.614	4027.5
685.804	4017.26
685.994	4062.32
686.184	4162.67
686.374	4002.93
686.564	3892.34
686.753	4033.65
686.943	3878
687.133	3902.58
687.323	3808.37
687.513	3808.37
687.702	3810.42
687.892	3679.35
688.082	3767.41
688.272	3914.86
688.461	3837.04
688.651	3748.98
688.841	3748.98
689.03	3787.89
689.22	3769.46
689.41	3822.7
689.599	3644.53
689.789	3675.25
689.979	3753.07
690.168	3619.96
690.358	3689.59
690.547	3574.9
690.737	3636.34
690.926	3585.14
691.116	3476.6
691.305	3638.39
691.495	3568.76
691.684	3517.56
691.874	3462.26
692.063	3492.98
692.252	3497.08
692.442	3443.83
692.631	3312.76
692.82	3443.83
693.01	3239.03
693.199	3476.6
693.388	3415.16
693.578	3304.57
693.767	3392.63
693.956	3251.32
694.146	3294.33
694.335	3179.64
694.524	3284.09
694.713	3310.71
694.902	3323
695.092	3167.35
695.281	3228.79
695.47	3255.42
695.659	3089.53
695.848	3230.84
696.037	3220.6
696.226	3224.7
696.415	3091.58
696.604	3212.41
696.793	3208.31
696.982	3105.92
697.171	3157.11
697.36	3110.01
697.549	3097.72
697.738	3155.07
697.927	3001.47
698.116	3165.31
698.305	3077.24
698.494	3130.49
698.683	3118.2
698.872	3038.33
699.061	3212.41
699.25	2964.61
699.438	3030.14
699.627	3099.77
699.816	3112.06
700.005	3099.77
700.193	3110.01
700.382	3005.56
700.571	3089.53
700.76	2888.83
700.948	2993.28
701.137	3110.01
701.326	3044.48
701.514	2917.5
701.703	3024
701.892	3042.43
702.08	3024
702.269	3103.87
702.457	3058.81
702.646	3056.76
702.834	3017.85
703.023	2997.37
703.212	3144.83
703.4	3005.56
703.589	2980.99
703.777	3075.2
703.965	3071.1
704.154	2997.37
704.342	3087.48
704.531	3085.44
704.719	2917.5
704.907	2993.28
705.096	2845.82
705.284	3093.63
705.472	3054.72
705.661	2991.23
705.849	3052.67
706.037	3067
706.226	3146.87
706.414	2946.17
706.602	2987.13
706.79	3157.11
706.979	3153.02
707.167	3001.47
707.355	2929.79
707.543	3067
707.731	3054.72
707.919	2944.13
708.107	3034.24
708.296	3056.76
708.484	2925.69
708.672	3011.71
708.86	3095.68
709.048	3075.2
709.236	3079.29
709.424	3161.21
709.612	3003.52
709.8	2935.93
709.988	3028.09
710.176	3040.38
710.364	3089.53
710.551	3087.48
710.739	2954.37
710.927	3048.57
711.115	3030.14
711.303	3097.72
711.491	3163.26
711.679	2956.41
711.866	3093.63
712.054	3067
712.242	3032.19
712.43	3114.11
712.617	3005.56
712.805	3056.76
712.993	3011.71
713.181	2876.54
713.368	3021.95
713.556	3103.87
713.744	3021.95
713.931	3316.86
714.119	2997.37
714.306	2991.23
714.494	3210.36
714.682	3089.53
714.869	3093.63
715.057	3085.44
715.244	3083.39
715.432	3282.04
715.619	3107.96
715.807	3105.92
715.994	3077.24
716.182	3107.96
716.369	3163.26
716.556	3198.07
716.744	3017.85
716.931	3142.78
717.119	3189.88
717.306	3101.82
717.493	3202.17
717.681	3130.49
717.868	3173.5
718.055	3210.36
718.242	3259.51
718.43	3153.02
718.617	3150.97
718.804	3271.8
718.991	3212.41
719.179	3198.07
719.366	3062.91
719.553	3171.45
719.74	3165.31
719.927	3130.49
720.114	3193.98
720.301	3232.89
720.488	3193.98
720.676	3181.69
720.863	3298.42
721.05	3208.31
721.237	3224.7
721.424	3302.52
721.611	3265.66
721.798	3157.11
721.985	3236.99
722.172	3282.04
722.358	3255.42
722.545	3191.93
722.732	3273.85
722.919	3239.03
723.106	3249.27
723.293	3177.59
723.48	3284.09
723.667	3251.32
723.853	3142.78
724.04	3220.6
724.227	3241.08
724.414	3294.33
724.6	3355.77
724.787	3243.13
724.974	3423.35
725.161	3175.55
725.347	3413.11
725.534	3429.49
725.72	3378.3
725.907	3257.46
726.094	3241.08
726.28	3298.42
726.467	3292.28
726.653	3443.83
726.84	3341.43
727.027	3445.88
727.213	3431.54
727.4	3374.2
727.586	3318.9
727.773	3392.63
727.959	3218.55
728.145	3339.38
728.332	3589.24
728.518	3392.63
728.705	3343.48
728.891	3368.06
729.077	3435.64
729.264	3359.86
729.45	3351.67
729.636	3439.73
729.823	3462.26
730.009	3466.36
730.195	3384.44
730.382	3431.54
730.568	3310.71
730.754	3427.45
730.94	3376.25
731.126	3366.01
731.313	3495.03
731.499	3388.53
731.685	3437.69
731.871	3525.75
732.057	3505.27
732.243	3462.26
732.429	3513.46
732.615	3267.7
732.801	3468.41
732.987	3480.69
733.173	3392.63
733.359	3538.04
733.545	3478.65
733.731	3380.34
733.917	3466.36
734.103	3396.73
734.289	3593.33
734.475	3509.37
734.661	3538.04
734.847	3515.51
735.033	3542.13
735.219	3523.7
735.404	3548.28
735.59	3462.26
735.776	3505.27
735.962	3441.78
736.148	3423.35
736.333	3427.45
736.519	3417.21
736.705	3525.75
736.89	3439.73
737.076	3441.78
737.262	3447.93
737.447	3558.52
737.633	3544.18
737.819	3390.58
738.004	3458.17
738.19	3427.45
738.375	3513.46
738.561	3353.72
738.747	3495.03
738.932	3376.25
739.118	3411.06
739.303	3511.41
739.489	3443.83
739.674	3339.38
739.859	3341.43
740.045	3413.11
740.23	3411.06
740.416	3388.53
740.601	3374.2
740.786	3312.76
740.972	3253.37
741.157	3429.49
741.342	3325.05
741.528	3247.23
741.713	3310.71
741.898	3361.91
742.084	3202.17
742.269	3370.1
742.454	3511.41
742.639	3349.62
742.824	3298.42
743.01	3222.65
743.195	3222.65
743.38	3218.55
743.565	3224.7
743.75	3222.65
743.935	3357.82
744.12	3353.72
744.305	3128.44
744.49	3191.93
744.675	3146.87
744.86	3095.68
745.045	3284.09
745.23	3144.83
745.415	3128.44
745.6	3103.87
745.785	3079.29
745.97	3122.3
746.155	3083.39
746.34	3032.19
746.525	2999.42
746.71	3138.68
746.895	2919.55
747.079	3112.06
747.264	2964.61
747.449	3075.2
747.634	2995.32
747.819	2868.35
748.003	2737.28
748.188	2962.56
748.373	2942.08
748.557	2776.19
748.742	2827.39
748.927	2884.73
749.111	2858.11
749.296	2823.3
749.481	2872.45
749.665	2790.53
749.85	2679.94
750.034	2804.86
750.219	2651.27
750.404	2815.1
750.588	2710.66
750.773	2661.51
750.957	2620.55
751.141	2720.9
751.326	2575.49
751.51	2610.31
751.695	2638.98
751.879	2598.02
752.064	2675.84
752.248	2630.79
752.432	2471.04
752.617	2579.59
752.801	2630.79
752.985	2446.47
753.17	2413.7
753.354	2577.54
753.538	2530.44
753.722	2444.42
753.907	2245.77
754.091	2405.51
754.275	2471.04
754.459	2311.3
754.643	2335.88
754.828	2313.35
755.012	2305.16
755.196	2284.68
755.38	2311.3
755.564	2274.44
755.748	2305.16
755.932	2251.91
756.116	2204.81
756.3	2206.86
756.484	2147.47
756.668	2096.27
756.852	2096.27
757.036	2086.03
757.22	2135.18
757.404	2104.46
757.588	2145.42
757.772	2069.64
757.956	2167.95
758.14	2073.74
758.323	2002.06
758.507	2038.92
758.691	2088.07
758.875	2116.75
759.059	2061.45
759.242	1997.96
759.426	1924.24
759.61	1948.81
759.794	1844.37
759.977	1901.71
760.161	1973.39
760.345	1979.53
760.528	1932.43
760.712	1875.09
760.895	1936.53
761.079	1954.96
761.263	1844.37
761.446	1916.05
761.63	1870.99
761.813	1938.57
761.997	1787.02
762.18	1782.93
762.364	1879.18
762.547	1715.34
762.731	1641.62
762.914	1735.82
763.098	1805.46
763.281	1703.06
763.464	1662.1
763.648	1842.32
763.831	1784.98
764.015	1690.77
764.198	1727.63
764.381	1617.04
764.564	1737.87
764.748	1664.15
764.931	1731.73
765.114	1485.97
765.297	1768.59
765.481	1547.41
765.664	1696.91
765.847	1658
766.03	1660.05
766.213	1744.02
766.397	1586.32
766.58	1490.07
766.763	1557.65
766.946	1604.75
767.129	1621.14
767.312	1514.64
767.495	1574.03
767.678	1533.08
767.861	1531.03
768.044	1426.58
768.227	1539.22
768.41	1502.36
768.593	1465.49
768.776	1496.21
768.959	1459.35
769.142	1479.83
769.324	1512.6
769.507	1453.2
769.69	1528.98
769.873	1395.86
770.056	1553.55
770.239	1555.6
770.421	1567.89
770.604	1428.63
770.787	1498.26
770.97	1442.96
771.152	1320.09
771.335	1393.81
771.518	1418.39
771.7	1404.05
771.883	1449.11
772.066	1354.9
772.248	1369.24
772.431	1414.29
772.613	1318.04
772.796	1268.89
772.978	1287.32
773.161	1383.57
773.343	1318.04
773.526	1277.08
773.708	1223.83
773.891	1221.78
774.073	1252.5
774.256	1248.41
774.438	1346.71
774.621	1254.55
774.803	1207.45
774.985	1242.26
775.168	1146.01
775.35	1162.39
775.532	1174.68
775.715	1168.54
775.897	1172.63
776.079	1211.54
776.261	1176.73
776.444	1133.72
776.626	1201.3
776.808	1100.95
776.99	1076.38
777.173	1156.25
777.355	1129.63
777.537	1119.39
777.719	1062.04
777.901	1074.33
778.083	1064.09
778.265	1008.8
778.447	1107.1
778.629	1023.13
778.811	1098.91
778.993	1078.43
779.175	1000.6
779.357	1008.8
779.539	1029.27
779.721	978.08
779.903	1012.89
780.085	969.88
780.267	1002.65
780.449	930.97
780.631	928.92
780.812	953.5
780.994	920.73
781.176	939.16
781.358	967.84
781.54	842.91
781.721	941.21
781.903	914.59
782.085	865.44
782.267	851.1
782.448	816.29
782.63	918.68
782.812	851.1
782.993	771.23
783.175	865.44
783.357	816.29
783.538	822.43
783.72	765.09
783.901	894.11
784.083	818.33
784.264	771.23
784.446	758.94
784.627	722.08
784.809	808.09
784.99	654.5
785.172	783.52
785.353	734.37
785.535	693.41
785.716	738.46
785.897	705.7
786.079	836.77
786.26	736.42
786.441	658.59
786.623	631.97
786.804	734.37
786.985	681.12
787.167	711.84
787.348	660.64
787.529	623.78
787.71	679.07
787.891	683.17
788.073	660.64
788.254	646.3
788.435	726.18
788.616	709.79
788.797	695.46
788.978	582.82
789.159	601.25
789.34	597.15
789.522	500.9
789.703	548
789.884	615.59
790.065	621.73
790.246	695.46
790.427	593.06
790.607	636.06
790.788	674.98
790.969	556.19
791.15	599.2
791.331	564.39
791.512	556.19
791.693	515.23
791.874	566.43
792.054	566.43
792.235	660.64
792.416	513.19
792.597	482.47
792.778	578.72
792.958	533.67
793.139	586.91
793.32	488.61
793.5	521.38
793.681	562.34
793.862	533.67
794.042	509.09
794.223	435.36
794.404	478.37
794.584	461.99
794.765	421.03
794.945	425.12
795.126	507.04
795.306	500.9
795.487	445.6
795.667	529.57
795.848	572.58
796.028	484.52
796.209	502.95
796.389	453.8
796.57	537.76
796.75	433.32
796.93	480.42
797.111	474.28
797.291	511.14
797.471	414.88
797.652	363.69
797.832	439.46
798.012	511.14
798.192	447.65
798.373	418.98
798.553	406.69
798.733	363.69
798.913	474.28
799.093	373.92
799.274	351.4
799.454	441.51
799.634	404.64
799.814	449.7
799.994	330.92
800.174	363.69
800.354	441.51
800.534	300.2
800.714	414.88
800.894	361.64
801.074	361.64
801.254	359.59
801.434	423.08
801.614	386.21
801.794	328.87
801.974	984.22
802.154	316.58
802.334	408.74
802.514	332.97
802.693	339.11
802.873	390.31
803.053	435.36
803.233	359.59
803.413	375.97
803.592	267.43
803.772	283.81
803.952	271.53
804.131	341.16
804.311	332.97
804.491	341.16
804.67	312.49
804.85	292.01
805.03	273.57
805.209	441.51
805.389	279.72
805.568	320.68
805.748	310.44
805.928	361.64
806.107	308.39
806.287	312.49
806.466	392.36
806.646	324.77
806.825	316.58
807.004	298.15
807.184	328.87
807.363	363.69
807.543	326.82
807.722	281.77
807.901	306.34
808.081	337.06
808.26	199.85
808.439	335.01
808.619	253.09
808.798	302.25
808.977	232.62
809.156	253.09
809.336	246.95
809.515	375.97
809.694	275.62
809.873	267.43
810.052	365.73
810.231	318.63
810.411	283.81
810.59	230.57
810.769	304.29
810.948	259.24
811.127	216.23
811.306	222.38
811.485	318.63
811.664	363.69
811.843	261.29
812.022	263.33
812.201	271.53
812.38	216.23
812.559	185.51
812.737	265.38
812.916	171.18
813.095	265.38
813.274	232.62
813.453	212.14
813.632	214.18
813.811	187.56
813.989	271.53
814.168	273.57
814.347	146.6
814.526	205.99
814.704	267.43
814.883	332.97
815.062	244.9
815.24	322.73
815.419	222.38
815.598	273.57
815.776	210.09
815.955	212.14
816.133	165.03
816.312	261.29
816.49	216.23
816.669	212.14
816.847	259.24
817.026	158.89
817.204	197.8
817.383	167.08
817.561	130.22
817.74	249
817.918	222.38
818.097	205.99
818.275	111.78
818.453	158.89
818.632	242.85
818.81	181.42
818.988	152.74
819.167	244.9
819.345	160.94
819.523	240.81
819.701	150.7
819.879	249
820.058	212.14
820.236	117.93
820.414	173.22
820.592	199.85
820.77	134.31
820.948	171.18
821.127	130.22
821.305	162.98
821.483	259.24
821.661	158.89
821.839	175.27
822.017	167.08
822.195	113.83
822.373	140.46
822.551	181.42
822.729	146.6
822.907	160.94
823.085	218.28
823.262	158.89
823.44	195.75
823.618	173.22
823.796	169.13
823.974	179.37
824.152	70.83
824.329	138.41
824.507	226.47
824.685	113.83
824.863	105.64
825.04	173.22
825.218	232.62
825.396	95.4
825.574	183.46
825.751	140.46
825.929	142.5
826.107	122.02
826.284	208.04
826.462	167.08
826.639	171.18
826.817	144.55
826.994	167.08
827.172	140.46
827.349	175.27
827.527	201.9
827.704	191.66
827.882	124.07
828.059	132.26
828.237	113.83
828.414	119.98
828.591	15.53
828.769	144.55
828.946	101.55
829.124	138.41
829.301	154.79
829.478	162.98
829.655	158.89
829.833	89.26
830.01	38.06
830.187	154.79
830.364	165.03
830.542	89.26
830.719	152.74
830.896	136.36
831.073	152.74
831.25	158.89
831.427	128.17
831.604	72.87
831.782	56.49
831.959	107.69
832.136	101.55
832.313	115.88
832.49	128.17
832.667	52.39
832.844	158.89
833.021	132.26
833.198	128.17
833.374	228.52
833.551	9.39
833.728	140.46
833.905	101.55
834.082	105.64
834.259	134.31
834.436	95.4
834.612	44.2
834.789	115.88
834.966	68.78
835.143	150.7
835.319	76.97
835.496	40.11
835.673	72.87
835.85	134.31
836.026	101.55
836.203	115.88
836.38	113.83
836.556	101.55
836.733	52.39
836.909	132.26
837.086	85.16
837.262	130.22
837.439	11.43
837.616	117.93
837.792	87.21
837.968	56.49
838.145	64.68
838.321	119.98
838.498	140.46
838.674	138.41
838.851	119.98
839.027	91.31
839.203	103.59
839.38	130.22
839.556	21.67
839.732	144.55
839.909	136.36
840.085	105.64
840.261	95.4
840.437	38.06
840.614	93.35
840.79	113.83
840.966	148.65
841.142	95.4
841.318	134.31
841.494	85.16
841.671	54.44
841.847	40.11
842.023	25.77
842.199	138.41
842.375	5.29
842.551	17.58
842.727	-4.95
842.903	81.07
843.079	33.96
843.255	150.7
843.431	79.02
843.607	36.01
843.783	5.29
843.959	81.07
844.134	15.53
844.31	91.31
844.486	46.25
844.662	97.45
844.838	23.72
845.013	97.45
845.189	23.72
845.365	62.63
845.541	27.82
845.716	126.12
845.892	25.77
846.068	50.35
846.244	52.39
846.419	138.41
846.595	40.11
846.77	11.43
846.946	68.78
847.122	33.96
847.297	-21.33
847.473	113.83
847.648	17.58
847.824	74.92
847.999	25.77
848.175	70.83
848.35	113.83
848.526	87.21
848.701	70.83
848.876	40.11
849.052	140.46
849.227	52.39
849.403	9.39
849.578	74.92
849.753	95.4
849.929	85.16
850.104	76.97
850.279	95.4
850.454	111.78
850.63	13.48
850.805	70.83
850.98	113.83
851.155	27.82
851.33	42.15
851.505	99.5
851.681	42.15
851.856	60.59
852.031	62.63
852.206	101.55
852.381	42.15
852.556	15.53
852.731	83.11
852.906	46.25
853.081	70.83
853.256	31.91
853.431	33.96
853.606	54.44
853.781	33.96
853.956	-4.95
854.131	3.24
854.305	79.02
854.48	58.54
854.655	27.82
854.83	64.68
855.005	52.39
855.18	44.2
855.354	15.53
855.529	117.93
855.704	3.24
855.879	83.11
856.053	36.01
856.228	29.87
856.403	-78.68
856.577	17.58
856.752	68.78
856.926	36.01
857.101	-43.86
857.276	-13.14
857.45	17.58
857.625	85.16
857.799	74.92
857.974	-39.76
858.148	-47.96
858.323	83.11
858.497	33.96
858.672	7.34
858.846	-11.09
859.02	152.74
859.195	5.29
859.369	1.19
859.543	56.49
859.718	105.64
859.892	72.87
860.066	42.15
860.241	74.92
860.415	42.15
860.589	-27.48
860.763	50.35
860.938	27.82
861.112	52.39
861.286	56.49
861.46	-4.95
861.634	70.83
861.808	115.88
861.982	-0.85
862.157	9.39
862.331	-54.1
862.505	5.29
862.679	5.29
862.853	7.34
863.027	38.06
863.201	91.31
863.375	-19.29
863.549	48.3
863.722	17.58
863.896	48.3
864.07	40.11
864.244	23.72
864.418	36.01
864.592	85.16
864.766	-23.38
864.939	50.35
865.113	-4.95
865.287	-17.24
865.461	-37.72
865.634	58.54
865.808	5.29
865.982	46.25
866.156	-45.91
866.329	15.53
866.503	81.07
866.676	5.29
866.85	33.96
867.024	-7
867.197	70.83
867.371	79.02
867.544	7.34
867.718	-19.29
867.891	62.63
868.065	-2.9
868.238	-23.38
868.412	107.69
868.585	-2.9
868.759	-13.14
868.932	3.24
869.105	38.06
869.279	74.92
869.452	-50
869.625	38.06
869.799	17.58
869.972	58.54
870.145	1.19
870.319	42.15
870.492	7.34
870.665	15.53
870.838	72.87
871.011	-31.57
871.185	40.11
871.358	-45.91
871.531	-27.48
871.704	-15.19
871.877	-19.29
872.05	72.87
872.223	-70.48
872.396	11.43
872.569	38.06
872.742	-33.62
872.915	60.59
873.088	-4.95
873.261	-0.85
873.434	70.83
873.607	15.53
873.78	29.87
873.953	-37.72
874.126	58.54
874.299	64.68
874.471	36.01
874.644	5.29
874.817	-9.05
874.99	103.59
875.163	-29.52
875.335	76.97
875.508	-27.48
875.681	70.83
875.853	-11.09
876.026	-7
876.199	64.68
876.371	-15.19
876.544	52.39
876.717	62.63
876.889	-17.24
877.062	64.68
877.234	-29.52
877.407	-4.95
877.579	52.39
877.752	-0.85
877.924	54.44
878.097	-37.72
878.269	-2.9
878.442	-19.29
878.614	46.25
878.786	-45.91
878.959	19.63
879.131	27.82
879.303	-29.52
879.476	27.82
879.648	-37.72
879.82	60.59
879.993	-37.72
880.165	29.87
880.337	-103.25
880.509	56.49
880.681	-45.91
880.854	33.96
881.026	29.87
881.198	29.87
881.37	-19.29
881.542	-0.85
881.714	-11.09
881.886	23.72
882.058	25.77
882.23	40.11
882.402	29.87
882.574	-9.05
882.746	-25.43
882.918	81.07
883.09	-7
883.262	-35.67
883.434	62.63
883.606	-35.67
883.778	21.67
883.95	101.55
884.122	17.58
884.293	52.39
884.465	36.01
884.637	5.29
884.809	-7
884.98	36.01
885.152	-0.85
885.324	7.34
885.496	-15.19
885.667	-19.29
885.839	-47.96
886.011	85.16
886.182	19.63
886.354	17.58
886.525	23.72
886.697	19.63
886.869	17.58
887.04	-2.9
887.212	-37.72
887.383	56.49
887.555	-15.19
887.726	-41.81
887.897	-35.67
888.069	66.73
888.24	38.06
888.412	1.19
888.583	81.07
888.754	46.25
888.926	-25.43
889.097	-9.05
889.268	1.19
889.44	1.19
889.611	-60.24
889.782	-33.62
889.953	-2.9
890.125	25.77
890.296	-45.91
890.467	-7
890.638	-21.33
890.809	-27.48
890.98	-27.48
891.151	50.35
891.323	128.17
891.494	19.63
891.665	33.96
891.836	-76.63
892.007	-23.38
892.178	17.58
892.349	-19.29
892.52	9.39
892.691	40.11
892.862	-2.9
893.032	-99.16
893.203	15.53
893.374	25.77
893.545	17.58
893.716	19.63
893.887	-50
894.057	1.19
894.228	-13.14
894.399	-50
894.57	72.87
894.74	11.43
894.911	-15.19
895.082	-9.05
895.253	-19.29
895.423	-4.95
895.594	19.63
895.764	-11.09
895.935	21.67
896.106	-43.86
896.276	13.48
896.447	3.24
896.617	-78.68
896.788	-7
896.958	-54.1
897.129	-9.05
897.299	7.34
897.47	56.49
897.64	23.72
897.81	9.39
897.981	27.82
898.151	-50
898.322	-11.09
898.492	-21.33
898.662	-37.72
898.832	-13.14
899.003	3.24
899.173	-88.92
899.343	-0.85
899.513	19.63
