Data from USB4F104151__78__12-24-22-816.txt Node

Date: Fri Mar 14 12:24:22 EDT 2025
User: louis
Spectrometer: USB4F10415
Trigger mode: 4
Integration Time (sec): 3.500000E-2
Scans to average: 1
Electric dark correction enabled: true
Nonlinearity correction enabled: false
Boxcar width: 0
XAxis mode: Wavelengths
Number of Pixels in Spectrum: 3648
>>>>>Begin Spectral Data<<<<<
178.204	-165.54
178.424	-165.54
178.644	-165.54
178.864	-204.46
179.084	-159.4
179.304	12.63
179.524	-36.52
179.744	22.87
179.964	-3.75
180.184	-3.75
180.404	-5.8
180.624	-22.19
180.844	-42.67
181.064	-28.33
181.283	65.88
181.503	-5.8
181.723	47.44
181.943	-16.04
182.163	47.44
182.383	-36.52
182.602	65.88
182.822	106.84
183.042	51.54
183.262	-46.76
183.482	18.77
183.701	-20.14
183.921	37.2
184.141	-32.43
184.361	86.36
184.58	8.53
184.8	80.21
185.02	-16.04
185.239	65.88
185.459	-5.8
185.679	18.77
185.898	-77.48
186.118	41.3
186.338	14.68
186.557	39.25
186.777	-1.71
186.997	-22.19
187.216	24.92
187.436	110.93
187.655	18.77
187.875	16.73
188.095	33.11
188.314	123.22
188.534	76.12
188.753	-16.04
188.973	53.59
189.192	55.64
189.412	61.78
189.631	24.92
189.851	127.32
190.07	29.01
190.29	8.53
190.509	39.25
190.729	-9.9
190.948	-13.99
191.168	170.32
191.387	41.3
191.607	-22.19
191.826	22.87
192.045	4.44
192.265	2.39
192.484	31.06
192.704	57.68
192.923	0.34
193.142	63.83
193.362	6.49
193.581	76.12
193.8	112.98
194.02	55.64
194.239	78.16
194.458	51.54
194.678	22.87
194.897	59.73
195.116	49.49
195.335	14.68
195.555	78.16
195.774	37.2
195.993	39.25
196.212	26.96
196.432	2.39
196.651	106.84
196.87	16.73
197.089	80.21
197.308	43.35
197.528	102.74
197.747	43.35
197.966	61.78
198.185	67.92
198.404	14.68
198.623	10.58
198.842	39.25
199.062	61.78
199.281	78.16
199.5	43.35
199.719	59.73
199.938	33.11
200.157	12.63
200.376	35.16
200.595	88.4
200.814	76.12
201.033	16.73
201.252	-18.09
201.471	41.3
201.69	72.02
201.909	45.4
202.128	22.87
202.347	94.55
202.566	16.73
202.785	-7.85
203.004	24.92
203.223	100.69
203.442	-7.85
203.661	-26.28
203.879	69.97
204.098	88.4
204.317	61.78
204.536	133.46
204.755	37.2
204.974	24.92
205.193	102.74
205.411	110.93
205.63	61.78
205.849	57.68
206.068	-59.05
206.287	12.63
206.505	69.97
206.724	-11.95
206.943	18.77
207.162	45.4
207.381	57.68
207.599	84.31
207.818	55.64
208.037	39.25
208.255	26.96
208.474	96.6
208.693	20.82
208.911	31.06
209.13	53.59
209.349	-20.14
209.567	20.82
209.786	65.88
210.005	33.11
210.223	72.02
210.442	-3.75
210.661	31.06
210.879	-9.9
211.098	82.26
211.316	31.06
211.535	141.65
211.753	-40.62
211.972	43.35
212.191	65.88
212.409	47.44
212.628	-11.95
212.846	29.01
213.065	67.92
213.283	26.96
213.502	-79.53
213.72	63.83
213.938	26.96
214.157	53.59
214.375	41.3
214.594	26.96
214.812	59.73
215.031	-42.67
215.249	55.64
215.467	39.25
215.686	47.44
215.904	59.73
216.122	53.59
216.341	92.5
216.559	39.25
216.778	96.6
216.996	43.35
217.214	16.73
217.432	67.92
217.651	33.11
217.869	10.58
218.087	43.35
218.306	24.92
218.524	96.6
218.742	16.73
218.96	80.21
219.179	35.16
219.397	72.02
219.615	63.83
219.833	33.11
220.051	-32.43
220.27	67.92
220.488	37.2
220.706	74.07
220.924	49.49
221.142	18.77
221.36	41.3
221.578	63.83
221.796	-28.33
222.015	72.02
222.233	43.35
222.451	115.03
222.669	-5.8
222.887	8.53
223.105	43.35
223.323	20.82
223.541	6.49
223.759	43.35
223.977	16.73
224.195	67.92
224.413	53.59
224.631	29.01
224.849	6.49
225.067	110.93
225.285	16.73
225.503	59.73
225.721	-85.67
225.939	-7.85
226.157	29.01
226.375	117.08
226.592	76.12
226.81	78.16
227.028	2.39
227.246	104.79
227.464	33.11
227.682	20.82
227.9	-3.75
228.117	31.06
228.335	78.16
228.553	86.36
228.771	55.64
228.989	-7.85
229.206	-7.85
229.424	-1.71
229.642	-16.04
229.86	-61.1
230.077	41.3
230.295	39.25
230.513	53.59
230.731	53.59
230.948	12.63
231.166	-1.71
231.384	29.01
231.601	-20.14
231.819	162.13
232.037	18.77
232.254	-7.85
232.472	-22.19
232.689	14.68
232.907	117.08
233.125	24.92
233.342	26.96
233.56	98.64
233.777	22.87
233.995	119.12
234.213	137.56
234.43	26.96
234.648	37.2
234.865	45.4
235.083	67.92
235.3	24.92
235.518	6.49
235.735	100.69
235.953	102.74
236.17	4.44
236.388	-13.99
236.605	51.54
236.822	55.64
237.04	51.54
237.257	100.69
237.475	31.06
237.692	86.36
237.909	4.44
238.127	22.87
238.344	55.64
238.562	106.84
238.779	-46.76
238.996	20.82
239.214	12.63
239.431	84.31
239.648	2.39
239.865	69.97
240.083	65.88
240.3	-16.04
240.517	4.44
240.735	-36.52
240.952	76.12
241.169	133.46
241.386	51.54
241.603	-11.95
241.821	-54.95
242.038	10.58
242.255	69.97
242.472	2.39
242.689	-11.95
242.907	43.35
243.124	92.5
243.341	-1.71
243.558	-1.71
243.775	26.96
243.992	29.01
244.209	45.4
244.426	94.55
244.643	10.58
244.86	51.54
245.078	110.93
245.295	31.06
245.512	2.39
245.729	121.17
245.946	29.01
246.163	22.87
246.38	69.97
246.597	-18.09
246.814	22.87
247.031	-11.95
247.248	65.88
247.464	67.92
247.681	80.21
247.898	14.68
248.115	43.35
248.332	-13.99
248.549	76.12
248.766	92.5
248.983	88.4
249.2	6.49
249.417	86.36
249.633	39.25
249.85	74.07
250.067	51.54
250.284	-1.71
250.501	0.34
250.717	18.77
250.934	47.44
251.151	2.39
251.368	43.35
251.585	61.78
251.801	33.11
252.018	6.49
252.235	74.07
252.451	18.77
252.668	20.82
252.885	24.92
253.102	59.73
253.318	33.11
253.535	6.49
253.752	51.54
253.968	-32.43
254.185	-24.23
254.401	57.68
254.618	10.58
254.835	24.92
255.051	92.5
255.268	18.77
255.484	20.82
255.701	78.16
255.917	117.08
256.134	-36.52
256.351	14.68
256.567	112.98
256.784	43.35
257	-50.86
257.217	78.16
257.433	106.84
257.65	33.11
257.866	37.2
258.082	12.63
258.299	6.49
258.515	33.11
258.732	33.11
258.948	0.34
259.165	41.3
259.381	47.44
259.597	53.59
259.814	65.88
260.03	31.06
260.246	10.58
260.463	2.39
260.679	88.4
260.895	6.49
261.112	76.12
261.328	127.32
261.544	57.68
261.761	82.26
261.977	39.25
262.193	-104.11
262.409	88.4
262.626	45.4
262.842	74.07
263.058	49.49
263.274	72.02
263.49	37.2
263.707	59.73
263.923	24.92
264.139	31.06
264.355	29.01
264.571	90.45
264.787	26.96
265.004	76.12
265.22	-44.71
265.436	-1.71
265.652	-1.71
265.868	39.25
266.084	14.68
266.3	39.25
266.516	4.44
266.732	78.16
266.948	55.64
267.164	6.49
267.38	55.64
267.596	65.88
267.812	106.84
268.028	98.64
268.244	4.44
268.46	-7.85
268.676	26.96
268.892	43.35
269.108	-11.95
269.324	12.63
269.54	61.78
269.756	57.68
269.972	-42.67
270.188	10.58
270.403	-3.75
270.619	33.11
270.835	-36.52
271.051	29.01
271.267	-20.14
271.483	-3.75
271.698	-11.95
271.914	39.25
272.13	69.97
272.346	12.63
272.562	86.36
272.777	-7.85
272.993	57.68
273.209	141.65
273.425	145.75
273.64	6.49
273.856	55.64
274.072	-13.99
274.287	-75.43
274.503	49.49
274.719	104.79
274.934	51.54
275.15	-87.72
275.366	67.92
275.581	-7.85
275.797	-36.52
276.012	35.16
276.228	53.59
276.444	-34.47
276.659	39.25
276.875	63.83
277.09	35.16
277.306	76.12
277.521	98.64
277.737	59.73
277.952	37.2
278.168	47.44
278.383	72.02
278.599	45.4
278.814	143.7
279.03	59.73
279.245	20.82
279.461	22.87
279.676	69.97
279.892	-32.43
280.107	6.49
280.322	-3.75
280.538	43.35
280.753	94.55
280.969	96.6
281.184	37.2
281.399	47.44
281.615	69.97
281.83	65.88
282.045	61.78
282.26	41.3
282.476	35.16
282.691	63.83
282.906	18.77
283.122	43.35
283.337	29.01
283.552	-7.85
283.767	24.92
283.983	104.79
284.198	26.96
284.413	133.46
284.628	-16.04
284.843	39.25
285.058	22.87
285.274	67.92
285.489	35.16
285.704	127.32
285.919	53.59
286.134	14.68
286.349	88.4
286.564	57.68
286.779	74.07
286.995	18.77
287.21	-9.9
287.425	-1.71
287.64	-7.85
287.855	20.82
288.07	10.58
288.285	45.4
288.5	45.4
288.715	59.73
288.93	31.06
289.145	90.45
289.36	45.4
289.575	61.78
289.79	-18.09
290.004	16.73
290.219	61.78
290.434	-38.57
290.649	8.53
290.864	24.92
291.079	-75.43
291.294	4.44
291.509	-9.9
291.724	112.98
291.938	-7.85
292.153	33.11
292.368	-20.14
292.583	121.17
292.798	74.07
293.012	94.55
293.227	59.73
293.442	110.93
293.657	72.02
293.871	170.32
294.086	67.92
294.301	92.5
294.516	49.49
294.73	100.69
294.945	-18.09
295.16	18.77
295.374	84.31
295.589	80.21
295.804	14.68
296.018	80.21
296.233	119.12
296.447	51.54
296.662	29.01
296.877	61.78
297.091	57.68
297.306	96.6
297.52	35.16
297.735	53.59
297.949	39.25
298.164	63.83
298.378	102.74
298.593	-40.62
298.807	-9.9
299.022	-48.81
299.236	80.21
299.451	26.96
299.665	65.88
299.88	-7.85
300.094	100.69
300.309	4.44
300.523	59.73
300.737	29.01
300.952	65.88
301.166	59.73
301.381	10.58
301.595	22.87
301.809	43.35
302.024	61.78
302.238	4.44
302.452	80.21
302.667	-38.57
302.881	55.64
303.095	90.45
303.309	49.49
303.524	45.4
303.738	37.2
303.952	-34.47
304.166	51.54
304.381	-61.1
304.595	88.4
304.809	74.07
305.023	-16.04
305.237	20.82
305.452	57.68
305.666	4.44
305.88	76.12
306.094	65.88
306.308	41.3
306.522	47.44
306.736	45.4
306.95	92.5
307.164	-20.14
307.379	61.78
307.593	84.31
307.807	45.4
308.021	-40.62
308.235	51.54
308.449	35.16
308.663	29.01
308.877	88.4
309.091	121.17
309.305	80.21
309.519	47.44
309.733	55.64
309.947	-44.71
310.161	31.06
310.374	35.16
310.588	82.26
310.802	-48.81
311.016	67.92
311.23	80.21
311.444	74.07
311.658	-30.38
311.872	76.12
312.085	98.64
312.299	61.78
312.513	47.44
312.727	88.4
312.941	-3.75
313.154	51.54
313.368	29.01
313.582	10.58
313.796	2.39
314.009	84.31
314.223	61.78
314.437	45.4
314.651	29.01
314.864	47.44
315.078	16.73
315.292	-52.91
315.505	0.34
315.719	88.4
315.933	51.54
316.146	12.63
316.36	53.59
316.573	10.58
316.787	51.54
317.001	22.87
317.214	-9.9
317.428	29.01
317.641	37.2
317.855	-5.8
318.068	45.4
318.282	61.78
318.495	176.47
318.709	72.02
318.922	106.84
319.136	55.64
319.349	72.02
319.563	72.02
319.776	72.02
319.99	-61.1
320.203	14.68
320.417	49.49
320.63	35.16
320.843	63.83
321.057	59.73
321.27	31.06
321.483	-16.04
321.697	41.3
321.91	-5.8
322.124	31.06
322.337	43.35
322.55	45.4
322.763	-32.43
322.977	57.68
323.19	35.16
323.403	102.74
323.617	-1.71
323.83	0.34
324.043	98.64
324.256	90.45
324.469	-18.09
324.683	67.92
324.896	-11.95
325.109	24.92
325.322	-20.14
325.535	-34.47
325.748	-7.85
325.962	4.44
326.175	-9.9
326.388	55.64
326.601	98.64
326.814	16.73
327.027	37.2
327.24	41.3
327.453	-20.14
327.666	88.4
327.879	45.4
328.092	88.4
328.305	45.4
328.518	102.74
328.731	8.53
328.944	37.2
329.157	43.35
329.37	53.59
329.583	88.4
329.796	67.92
330.009	12.63
330.222	92.5
330.435	94.55
330.648	31.06
330.861	104.79
331.073	53.59
331.286	57.68
331.499	14.68
331.712	69.97
331.925	61.78
332.138	47.44
332.35	43.35
332.563	6.49
332.776	24.92
332.989	90.45
333.202	6.49
333.414	92.5
333.627	61.78
333.84	41.3
334.053	69.97
334.265	31.06
334.478	6.49
334.691	84.31
334.903	16.73
335.116	-11.95
335.329	65.88
335.541	76.12
335.754	57.68
335.966	72.02
336.179	39.25
336.392	-32.43
336.604	39.25
336.817	59.73
337.029	29.01
337.242	35.16
337.454	84.31
337.667	24.92
337.88	53.59
338.092	106.84
338.305	24.92
338.517	39.25
338.729	37.2
338.942	86.36
339.154	-30.38
339.367	31.06
339.579	33.11
339.792	-32.43
340.004	-22.19
340.217	74.07
340.429	69.97
340.641	55.64
340.854	-13.99
341.066	55.64
341.278	6.49
341.491	127.32
341.703	-5.8
341.915	-54.95
342.128	96.6
342.34	84.31
342.552	-7.85
342.764	80.21
342.977	22.87
343.189	67.92
343.401	65.88
343.613	-38.57
343.826	74.07
344.038	24.92
344.25	22.87
344.462	45.4
344.674	65.88
344.886	-3.75
345.099	137.56
345.311	22.87
345.523	63.83
345.735	12.63
345.947	-9.9
346.159	37.2
346.371	26.96
346.583	0.34
346.795	115.03
347.007	-11.95
347.219	90.45
347.431	35.16
347.643	84.31
347.855	76.12
348.067	115.03
348.279	43.35
348.491	2.39
348.703	72.02
348.915	4.44
349.127	10.58
349.339	143.7
349.551	18.77
349.763	6.49
349.975	-20.14
350.187	22.87
350.399	76.12
350.61	14.68
350.822	6.49
351.034	80.21
351.246	33.11
351.458	57.68
351.669	14.68
351.881	4.44
352.093	45.4
352.305	104.79
352.517	-34.47
352.728	84.31
352.94	-5.8
353.152	35.16
353.363	22.87
353.575	29.01
353.787	55.64
353.999	102.74
354.21	88.4
354.422	37.2
354.633	45.4
354.845	-22.19
355.057	84.31
355.268	110.93
355.48	100.69
355.692	10.58
355.903	57.68
356.115	2.39
356.326	-5.8
356.538	137.56
356.749	45.4
356.961	55.64
357.172	29.01
357.384	-26.28
357.595	133.46
357.807	69.97
358.018	-79.53
358.23	57.68
358.441	133.46
358.653	-1.71
358.864	14.68
359.075	-1.71
359.287	94.55
359.498	100.69
359.709	86.36
359.921	18.77
360.132	88.4
360.344	4.44
360.555	61.78
360.766	29.01
360.977	-7.85
361.189	18.77
361.4	22.87
361.611	55.64
361.823	35.16
362.034	61.78
362.245	-34.47
362.456	-1.71
362.667	33.11
362.879	-30.38
363.09	29.01
363.301	12.63
363.512	0.34
363.723	121.17
363.935	22.87
364.146	69.97
364.357	88.4
364.568	63.83
364.779	51.54
364.99	31.06
365.201	-1.71
365.412	106.84
365.623	12.63
365.834	94.55
366.045	112.98
366.256	82.26
366.467	67.92
366.678	16.73
366.889	41.3
367.1	168.27
367.311	84.31
367.522	12.63
367.733	61.78
367.944	92.5
368.155	94.55
368.366	67.92
368.577	55.64
368.788	59.73
368.999	-13.99
369.209	22.87
369.42	137.56
369.631	112.98
369.842	102.74
370.053	117.08
370.264	61.78
370.474	6.49
370.685	-9.9
370.896	6.49
371.107	94.55
371.317	69.97
371.528	49.49
371.739	49.49
371.95	59.73
372.16	94.55
372.371	-65.19
372.582	26.96
372.792	49.49
373.003	115.03
373.214	110.93
373.424	37.2
373.635	49.49
373.846	47.44
374.056	69.97
374.267	65.88
374.477	41.3
374.688	37.2
374.898	43.35
375.109	22.87
375.319	-57
375.53	127.32
375.74	67.92
375.951	104.79
376.161	67.92
376.372	43.35
376.582	55.64
376.793	67.92
377.003	22.87
377.214	37.2
377.424	55.64
377.635	61.78
377.845	72.02
378.055	98.64
378.266	12.63
378.476	-5.8
378.686	80.21
378.897	55.64
379.107	63.83
379.317	92.5
379.528	49.49
379.738	135.51
379.948	43.35
380.158	61.78
380.369	78.16
380.579	112.98
380.789	26.96
380.999	37.2
381.21	26.96
381.42	51.54
381.63	14.68
381.84	20.82
382.05	69.97
382.261	16.73
382.471	96.6
382.681	41.3
382.891	82.26
383.101	69.97
383.311	6.49
383.521	22.87
383.731	57.68
383.941	39.25
384.151	39.25
384.361	20.82
384.571	90.45
384.781	39.25
384.991	110.93
385.201	141.65
385.411	96.6
385.621	145.75
385.831	55.64
386.041	104.79
386.251	55.64
386.461	143.7
386.671	12.63
386.881	53.59
387.091	37.2
387.301	96.6
387.511	26.96
387.72	141.65
387.93	121.17
388.14	-3.75
388.35	78.16
388.56	155.99
388.769	108.88
388.979	88.4
389.189	94.55
389.399	106.84
389.609	55.64
389.818	96.6
390.028	12.63
390.238	102.74
390.447	-16.04
390.657	160.08
390.867	35.16
391.076	26.96
391.286	131.41
391.496	8.53
391.705	108.88
391.915	29.01
392.125	78.16
392.334	121.17
392.544	117.08
392.753	108.88
392.963	18.77
393.172	0.34
393.382	43.35
393.591	41.3
393.801	100.69
394.01	84.31
394.22	80.21
394.429	39.25
394.639	78.16
394.848	51.54
395.058	12.63
395.267	96.6
395.477	108.88
395.686	80.21
395.895	110.93
396.105	94.55
396.314	43.35
396.524	135.51
396.733	119.12
396.942	162.13
397.152	190.8
397.361	119.12
397.57	88.4
397.78	67.92
397.989	69.97
398.198	110.93
398.407	82.26
398.617	98.64
398.826	84.31
399.035	96.6
399.244	129.36
399.453	78.16
399.663	145.75
399.872	94.55
400.081	98.64
400.29	135.51
400.499	84.31
400.708	137.56
400.917	88.4
401.127	37.2
401.336	80.21
401.545	143.7
401.754	94.55
401.963	135.51
402.172	112.98
402.381	69.97
402.59	84.31
402.799	82.26
403.008	143.7
403.217	72.02
403.426	96.6
403.635	47.44
403.844	149.84
404.053	174.42
404.262	82.26
404.471	115.03
404.68	137.56
404.888	143.7
405.097	149.84
405.306	147.8
405.515	102.74
405.724	147.8
405.933	133.46
406.142	170.32
406.35	211.28
406.559	143.7
406.768	133.46
406.977	207.19
407.185	190.8
407.394	147.8
407.603	145.75
407.812	180.56
408.02	205.14
408.229	215.38
408.438	194.9
408.646	137.56
408.855	160.08
409.064	217.43
409.272	242
409.481	246.1
409.69	188.75
409.898	164.18
410.107	262.48
410.315	278.87
410.524	268.63
410.733	328.02
410.941	301.39
411.15	342.35
411.358	328.02
411.567	401.74
411.775	342.35
411.984	350.54
412.192	319.82
412.401	346.45
412.609	467.28
412.818	416.08
413.026	420.17
413.234	395.6
413.443	424.27
413.651	432.46
413.86	436.56
414.068	506.19
414.276	553.29
414.485	479.57
414.693	663.88
414.901	545.1
415.11	557.39
415.318	631.12
415.526	651.6
415.734	721.23
415.943	704.84
416.151	751.95
416.359	760.14
416.567	737.61
416.776	893.26
416.984	807.24
417.192	872.78
417.4	809.29
417.608	760.14
417.817	815.43
418.025	893.26
418.233	1046.85
418.441	932.17
418.649	983.37
418.857	1063.24
419.065	1155.4
419.273	1073.48
419.481	1112.39
419.689	1161.54
419.897	1143.11
420.105	1114.44
420.313	1216.83
420.521	1364.29
420.729	1390.91
420.937	1374.53
421.145	1478.97
421.353	1577.28
421.561	1616.19
421.769	1726.78
421.977	1708.35
422.185	1747.26
422.393	1761.59
422.601	1861.94
422.809	1841.47
423.017	1886.52
423.224	1999.16
423.432	2068.79
423.64	2054.45
423.848	2283.83
424.056	2222.39
424.263	2326.83
424.471	2332.98
424.679	2244.92
424.887	2433.33
425.094	2638.13
425.302	2609.45
425.51	2734.38
425.718	2847.02
425.925	2789.67
426.133	2902.31
426.341	3047.72
426.548	3270.95
426.756	3201.32
426.964	3258.66
427.171	3485.98
427.379	3522.85
427.586	3541.28
427.794	3799.32
428.001	3860.76
428.209	3946.78
428.417	4139.29
428.624	4327.7
428.832	4374.8
429.039	4186.39
429.247	4180.25
429.454	4659.47
429.662	5163.27
429.869	4602.13
430.076	5112.07
430.284	4808.97
430.491	5138.69
430.699	5329.16
430.906	5462.27
431.114	5517.57
431.321	5583.1
431.528	5740.8
431.736	6170.87
431.943	6410.48
432.15	6154.49
432.358	6070.52
432.565	6695.15
432.772	6459.63
432.979	7045.35
433.187	7162.09
433.394	7100.65
433.601	7690.46
433.808	7500
434.016	7530.72
434.223	7880.93
434.43	8378.58
434.637	8093.91
434.844	8706.26
435.052	8882.38
435.259	8786.13
435.466	8874.19
435.673	8915.15
435.88	9222.34
436.087	9814.21
436.294	9930.94
436.501	9746.62
436.708	10039.48
436.915	10201.27
437.122	10660.02
437.329	10684.59
437.537	10985.65
437.743	11104.43
437.95	11143.34
438.157	11462.82
438.364	12044.45
438.571	11882.66
438.778	12038.3
438.985	13093.01
439.192	12644.5
439.399	12976.27
439.606	12785.81
439.813	13389.96
440.02	14080.13
440.227	14131.33
440.433	13891.71
440.64	14422.14
440.847	14282.88
441.054	14751.86
441.261	15767.65
441.467	15482.99
441.674	15806.56
441.881	16265.31
442.088	16455.77
442.294	16009.31
442.501	16521.31
442.708	17082.45
442.914	17592.39
443.121	18403.39
443.328	17825.86
443.534	19075.12
443.741	18593.85
443.948	18247.74
444.154	19669.03
444.361	19634.22
444.568	19634.22
444.774	19728.42
444.981	19949.6
445.187	20455.45
445.394	21329.94
445.6	21129.23
445.807	23173.11
446.013	22149.12
446.22	22523.9
446.426	23459.82
446.633	23742.44
446.839	24471.52
447.046	23533.55
447.252	24915.93
447.459	24612.83
447.665	24537.05
447.871	25948.11
448.078	26841.02
448.284	25587.66
448.491	25987.02
448.697	27412.4
448.903	27664.3
449.11	27959.21
449.316	27568.05
449.522	28180.39
449.728	28518.31
449.935	28995.48
450.141	28817.31
450.347	29450.13
450.553	28526.5
450.76	29028.25
450.966	30050.19
451.172	29433.75
451.378	30322.57
451.584	29798.29
451.791	30842.75
451.997	30242.7
452.203	30844.8
452.409	30893.95
452.615	30975.87
452.821	29847.44
453.027	29312.92
453.233	30844.8
453.44	29824.91
453.646	29708.18
453.852	30060.43
454.058	30568.32
454.264	29458.32
454.47	30150.54
454.676	29269.91
454.882	30668.67
455.088	27740.08
455.294	28245.93
455.5	28585.89
455.705	29003.67
455.911	27629.49
456.117	27070.39
456.323	27000.76
456.529	25391.06
456.735	26611.65
456.941	25999.3
457.147	25454.54
457.352	24448.99
457.558	24111.08
457.764	24467.42
457.97	23703.53
458.176	23328.75
458.381	23365.62
458.587	22142.98
458.793	22220.8
458.999	20781.08
459.204	22478.85
459.41	21747.72
459.616	20387.87
459.821	20420.64
460.027	20387.87
460.233	19662.89
460.438	19154.99
460.644	19146.8
460.85	18180.16
461.055	17872.96
461.261	17733.7
461.466	16738.39
461.672	16050.27
461.878	17381.45
462.083	15937.63
462.289	15847.52
462.494	15749.22
462.7	15003.76
462.905	14512.25
463.111	15071.34
463.316	15196.27
463.522	14731.38
463.727	14741.62
463.932	14801.01
464.138	14639.22
464.343	14581.88
464.549	14334.07
464.754	14811.25
464.959	14710.9
465.165	14366.84
465.37	13979.78
465.575	13807.75
465.781	14002.3
465.986	14141.57
466.191	13740.16
466.397	13369.48
466.602	12753.04
466.807	13168.78
467.012	13285.51
467.218	13275.27
467.423	13074.57
467.628	13197.45
467.833	13766.79
468.038	13156.49
468.244	12826.77
468.449	13195.4
468.654	12851.35
468.859	12857.49
469.064	12464.28
469.269	12245.15
469.474	12456.09
469.679	12527.77
469.885	12165.28
470.09	12191.9
470.295	12228.76
470.5	11831.46
470.705	12032.16
470.91	11774.11
471.115	11788.45
471.32	11729.06
471.525	11788.45
471.73	11452.58
471.935	11395.24
472.139	10983.6
472.344	11188.39
472.549	11069.61
472.754	10870.96
472.959	10836.14
473.164	10512.56
473.369	10561.72
473.574	10660.02
473.778	10719.41
473.983	10391.73
474.188	10471.61
474.393	10092.73
474.598	10094.78
474.802	10029.24
475.007	9795.78
475.212	9881.79
475.417	9558.21
475.621	9781.44
475.826	9464
476.031	9451.72
476.235	9197.77
476.44	9394.37
476.645	9214.15
476.849	9066.7
477.054	8943.82
477.259	9050.32
477.463	8972.49
477.668	8782.03
477.872	8761.55
478.077	8675.54
478.282	8431.83
478.486	8569.04
478.691	8409.3
478.895	8229.08
479.1	8339.67
479.304	8386.77
479.509	8009.95
479.713	8100.06
479.918	8110.3
480.122	8007.9
480.326	8130.78
480.531	8040.67
480.735	7899.36
480.94	7872.73
481.144	8106.2
481.348	7768.29
481.553	7866.59
481.757	7741.66
481.961	7772.38
482.166	8001.76
482.37	7604.45
482.574	7770.33
482.778	7649.5
482.983	7901.4
483.187	7790.81
483.391	7887.07
483.595	7618.79
483.8	7694.56
484.004	7698.66
484.208	7686.37
484.412	7729.38
484.616	7799.01
484.821	7745.76
485.025	7635.17
485.229	7571.68
485.433	7733.47
485.637	7696.61
485.841	7762.14
486.045	7743.71
486.249	7758.05
486.453	7604.45
486.657	7768.29
486.861	7555.3
487.065	7563.49
487.269	7854.3
487.473	7655.65
487.677	7600.35
487.881	7799.01
488.085	7667.94
488.289	7813.34
488.493	7626.98
488.697	7749.86
488.901	7774.43
489.105	7712.99
489.309	7661.79
489.512	7766.24
489.716	7753.95
489.92	7807.2
490.124	7694.56
490.328	7989.47
490.531	7778.53
490.735	7942.36
490.939	7936.22
491.143	7760.09
491.346	7813.34
491.55	8112.35
491.754	8081.63
491.958	8124.63
492.161	7985.37
492.365	7993.56
492.569	7925.98
492.772	8038.62
492.976	8077.53
493.18	8218.84
493.383	8419.54
493.587	8423.64
493.79	8480.98
493.994	8382.68
494.197	8575.19
494.401	8589.52
494.605	8589.52
494.808	8607.95
495.012	8732.88
495.215	8941.77
495.419	8736.98
495.622	8919.25
495.825	8986.83
496.029	8984.78
496.232	9244.87
496.436	9281.74
496.639	9255.11
496.843	9291.98
497.046	9459.91
497.249	9642.18
497.453	9699.52
497.656	9961.66
497.859	9797.82
498.063	9937.09
498.266	10160.31
498.469	10006.72
498.673	10141.88
498.876	10315.96
499.079	10426.55
499.282	10438.84
499.485	10729.65
499.689	10676.4
499.892	10901.68
500.095	10959.02
500.298	11139.24
500.501	11024.56
500.705	11395.24
500.908	11395.24
501.111	11481.25
501.314	11735.2
501.517	11907.23
501.72	12001.44
501.923	11788.45
502.126	12255.39
502.329	12513.43
502.532	12656.79
502.735	12767.38
502.938	12871.82
503.141	12910.74
503.344	13056.14
503.547	13166.73
503.75	13340.81
503.953	13686.92
504.156	13719.68
504.359	13908.1
504.562	13840.51
504.765	14198.91
504.968	14407.8
505.17	14731.38
505.373	14633.08
505.576	14710.9
505.779	14829.68
505.982	15124.59
506.185	15263.85
506.387	15226.99
506.59	15489.13
506.793	15726.69
506.996	15800.42
507.198	16148.57
507.401	16285.79
507.604	16386.14
507.807	16869.46
508.009	16805.97
508.212	16889.94
508.415	17252.43
508.617	17446.99
508.82	17580.11
509.022	17655.88
509.225	18094.15
509.428	17944.64
509.63	18221.12
509.833	18088
510.035	19007.54
510.238	18663.48
510.44	19042.35
510.643	19208.24
510.845	19679.27
511.048	19460.14
511.25	19949.6
511.453	19873.83
511.655	20549.66
511.858	20418.59
512.06	20611.1
512.262	20715.55
512.465	20951.06
512.667	21506.06
512.87	21338.13
513.072	21528.59
513.274	21676.04
513.477	22018.05
513.679	22622.2
513.881	22677.5
514.084	22874.1
514.286	22753.27
514.488	23031.8
514.69	23834.6
514.893	23846.89
515.095	24057.83
515.297	24309.73
515.499	24264.68
515.701	24672.22
515.904	25219.03
516.106	25163.73
516.308	25542.61
516.51	25753.55
516.712	25726.92
516.914	26206.15
517.116	26687.42
517.318	26625.98
517.52	27256.76
517.722	27123.64
517.925	27611.06
518.127	27770.8
518.329	27979.69
518.531	28290.98
518.733	28153.77
518.935	28684.19
519.136	28870.56
519.338	29724.56
519.54	29532.05
519.742	29988.75
519.944	29931.4
520.146	30410.63
520.348	30824.32
520.55	30744.45
520.752	31133.56
520.954	31797.1
521.155	31678.32
521.357	32046.96
521.559	32153.45
521.761	32667.49
521.963	32634.72
522.164	32960.35
522.366	32943.97
522.568	33367.9
522.77	33650.52
522.971	34346.83
523.173	33797.97
523.375	34082.64
523.576	34688.84
523.778	34418.5
523.98	34928.45
524.181	35553.08
524.383	35559.22
524.584	35901.23
524.786	35938.1
524.988	35815.22
525.189	36200.24
525.391	37000.99
525.592	36767.52
525.794	36814.63
525.995	36933.41
526.197	37326.62
526.398	37216.03
526.6	37625.62
526.801	38317.84
527.003	38235.92
527.204	38104.85
527.406	38190.86
527.607	38496.01
527.808	38876.93
528.01	38037.26
528.211	38887.17
528.412	39382.78
528.614	39343.87
528.815	39292.67
529.016	39280.38
529.218	39202.56
529.419	39454.46
529.62	40054.51
529.822	39542.52
530.023	39993.08
530.224	39907.06
530.425	39995.12
530.626	39708.41
530.828	39573.24
531.029	40775.4
531.23	39919.35
531.431	40603.37
531.632	40521.45
531.833	40705.77
532.035	40505.07
532.236	40742.63
532.437	40984.29
532.638	40654.57
532.839	41150.18
533.04	40916.71
533.241	40613.61
533.442	41201.38
533.643	40914.66
533.844	40941.28
534.045	41348.83
534.246	40804.07
534.447	41447.13
534.648	41068.26
534.849	41223.9
535.05	40746.73
535.251	41217.76
535.451	41305.82
535.652	41852.63
535.853	41346.78
536.054	41520.86
536.255	41297.63
536.456	40908.52
536.657	41946.84
536.857	41635.55
537.058	41236.19
537.259	41570.01
537.46	41484
537.66	41250.53
537.861	41344.73
538.062	41408.22
538.263	42073.81
538.463	41416.41
538.664	41352.93
538.865	41402.08
539.065	41959.13
539.266	41148.13
539.466	41604.83
539.667	40969.96
539.868	41746.14
540.068	41426.65
540.269	41211.62
540.469	41387.74
540.67	41334.49
540.87	41350.88
541.071	41768.66
541.271	41486.04
541.472	41221.86
541.672	41019.11
541.873	41522.91
542.073	40947.43
542.274	41780.95
542.474	41449.18
542.675	40885.99
542.875	41582.3
543.075	41432.8
543.276	40642.28
543.476	41664.22
543.676	41127.65
543.877	41201.38
544.077	41309.92
544.277	41318.11
544.478	41574.11
544.678	41195.23
544.878	41019.11
545.078	41336.54
545.279	41182.94
545.479	40949.48
545.679	41244.38
545.879	40943.33
546.079	41295.58
546.28	41088.74
546.48	40849.13
546.68	40799.97
546.88	41733.85
547.08	41277.15
547.28	41422.56
547.48	40867.56
547.68	41522.91
547.88	40918.76
548.081	41139.94
548.281	41119.46
548.481	41168.61
548.681	41440.99
548.881	41189.09
549.081	41086.69
549.28	40716.01
549.48	40816.36
549.68	40902.37
549.88	41129.7
550.08	41330.4
550.28	40883.94
550.48	40865.51
550.68	41135.84
550.88	40828.65
551.08	41275.1
551.279	40994.53
551.479	40713.96
551.679	41058.02
551.879	40900.33
552.079	40902.37
552.278	40912.61
552.478	40881.89
552.678	41070.31
552.878	40902.37
553.077	40894.18
553.277	40419.05
553.477	41393.89
553.676	40509.16
553.876	40742.63
554.076	40576.75
554.275	40679.14
554.475	39978.74
554.674	40345.33
554.874	40578.79
555.074	40677.1
555.273	40705.77
555.473	40621.8
555.672	39737.08
555.872	40533.74
556.071	40357.61
556.271	40462.06
556.47	40308.46
556.67	39862.01
556.869	40103.67
557.068	40574.7
557.268	39870.2
557.467	40015.6
557.667	39890.68
557.866	39927.54
558.065	39519.99
558.265	39550.71
558.464	39356.16
558.663	39911.16
558.863	39298.81
559.062	39956.21
559.261	38704.9
559.461	39597.82
559.66	38897.41
559.859	38907.65
560.058	39116.54
560.258	39259.9
560.457	38842.12
560.656	39036.67
560.855	38782.73
561.054	38870.79
561.253	38827.78
561.453	38645.51
561.652	38567.69
561.851	38780.68
562.05	38410
562.249	38047.5
562.448	38436.62
562.647	38125.33
562.846	37963.54
563.045	37816.08
563.244	37768.98
563.443	38139.66
563.642	37383.96
563.841	37787.41
564.04	37697.3
564.239	37984.02
564.438	37236.51
564.637	37162.78
564.836	37744.41
565.035	37205.79
565.234	37351.2
565.432	36587.3
565.631	37037.86
565.83	37132.06
566.029	36665.13
566.228	36345.64
566.427	36691.75
566.625	36407.08
566.824	35899.19
567.023	36472.62
567.222	35479.35
567.42	36316.97
567.619	35880.75
567.818	35540.79
568.016	35667.77
568.215	35809.07
568.414	35735.35
568.612	35649.33
568.811	35313.47
569.01	35268.41
569.208	34858.82
569.407	35229.5
569.605	34754.37
569.804	34907.97
570.002	34594.63
570.201	34631.49
570.4	34269
570.598	34060.11
570.797	34152.27
570.995	33970
571.193	33763.15
571.392	34168.65
571.59	33632.08
571.789	33623.89
571.987	33546.07
572.186	33445.72
572.384	33136.48
572.582	33636.18
572.781	33247.07
572.979	32798.56
573.177	33099.61
573.376	33107.8
573.574	33054.56
573.772	33036.13
573.971	32247.66
574.169	32006
574.367	32268.14
574.565	32466.79
574.763	32198.51
574.962	31889.26
575.16	31979.37
575.358	32118.64
575.556	31442.81
575.754	31934.32
575.952	31547.25
576.151	31739.76
576.349	31217.53
576.547	31238.01
576.745	31405.94
576.943	31381.37
577.141	30687.11
577.339	31004.54
577.537	30852.99
577.735	30564.23
577.933	30510.98
578.131	30685.06
578.329	30787.46
578.527	30293.9
578.725	30259.08
578.923	30103.43
579.121	30044.04
579.319	29980.56
579.516	30326.66
579.714	30019.47
579.912	29919.12
580.11	29669.26
580.308	29716.37
580.506	29702.03
580.704	28975
580.901	29243.29
581.099	29538.19
581.297	28952.48
581.495	28839.84
581.692	29368.21
581.89	28856.22
582.088	29308.82
582.285	28848.03
582.483	28917.66
582.681	28864.41
582.878	28630.94
583.076	28168.1
583.274	28389.28
583.471	27924.4
583.669	28202.92
583.866	27807.66
584.064	27957.16
584.262	27434.93
584.459	27783.09
584.657	27649.97
584.854	27600.82
585.052	27363.25
585.249	27676.59
585.447	27551.66
585.644	27066.3
585.841	27242.42
586.039	27195.32
586.236	26892.22
586.434	26572.74
586.631	26775.48
586.828	27140.02
587.026	26931.13
587.223	26712
587.42	26552.26
587.618	26537.92
587.815	26058.7
588.012	26113.99
588.21	26410.95
588.407	26408.9
588.604	26136.52
588.801	25685.97
588.999	26001.35
589.196	25780.17
589.393	25528.27
589.59	25780.17
589.787	25706.45
589.984	25778.12
590.182	25370.58
590.379	25599.95
590.576	25303
590.773	25384.91
590.97	24983.51
591.167	25376.72
591.364	24940.5
591.561	24737.76
591.758	24733.66
591.955	24678.36
592.152	24725.47
592.349	24582.11
592.546	24442.85
592.743	24690.65
592.94	23953.38
593.137	24440.8
593.334	24426.46
593.531	23848.94
593.727	23984.1
593.924	24219.62
594.121	24012.77
594.318	23781.35
594.515	23736.3
594.712	24143.84
594.908	23838.7
595.105	23760.87
595.302	23298.03
595.499	23621.61
595.696	23351.28
595.892	23048.18
596.089	23418.86
596.286	22986.74
596.482	23039.99
596.679	23019.51
596.876	23097.33
597.072	22812.67
597.269	22831.1
597.466	22743.03
597.662	22650.88
597.859	22626.3
598.055	22595.58
598.252	22439.93
598.448	22433.79
598.645	22362.11
598.841	22202.37
599.038	21944.33
599.234	22108.16
599.431	22020.1
599.627	21792.78
599.824	22036.49
600.02	21512.21
600.217	21786.63
600.413	21602.32
600.609	21653.51
600.806	21522.44
601.002	21395.47
601.198	21198.87
601.395	21600.27
601.591	21422.09
601.787	21346.32
601.984	21127.19
602.18	21002.26
602.376	21088.28
602.572	20987.93
602.769	21035.03
602.965	20535.32
603.161	21149.71
603.357	20664.35
603.553	20463.65
603.75	20195.36
603.946	20506.65
604.142	20498.46
604.338	20236.32
604.534	20117.54
604.73	20377.63
604.926	19847.21
605.122	20037.67
605.318	20035.62
605.514	19982.37
605.71	20054.05
605.906	19859.49
606.102	19703.85
606.298	20025.38
606.494	19765.29
606.69	19961.89
606.886	19730.47
607.082	19497
607.278	19662.89
607.474	19312.69
607.67	19456.04
607.866	19044.4
608.062	19480.62
608.257	19423.28
608.453	19085.36
608.649	19267.63
608.845	18704.44
609.041	18683.96
609.236	18976.82
609.432	18944.05
609.628	18810.93
609.824	18835.51
610.019	18667.58
610.215	18544.7
610.411	18851.89
610.606	18731.06
610.802	18888.76
610.998	18491.45
611.193	18550.84
611.389	18331.71
611.584	18253.89
611.78	18341.95
611.976	18180.16
612.171	18327.61
612.367	18083.91
612.562	18448.44
612.758	18223.17
612.953	18151.49
613.149	18110.53
613.344	17897.54
613.539	18225.22
613.735	18030.66
613.93	17989.7
614.126	17657.93
614.321	18108.48
614.517	17942.6
614.712	17678.41
614.907	17686.6
615.103	17702.98
615.298	17381.45
615.493	17698.89
615.688	17240.14
615.884	17721.41
616.079	17621.06
616.274	17545.29
616.47	17371.21
616.665	17518.67
616.86	17205.33
617.055	17330.25
617.25	17141.84
617.445	17186.9
617.641	16904.28
617.836	17201.23
618.031	16719.96
618.226	17123.41
618.421	16676.95
618.616	17098.83
618.811	16662.62
619.006	16758.87
619.201	16533.59
619.396	16904.28
619.591	16353.37
619.786	16451.67
619.981	16201.82
620.176	16377.95
620.371	16066.66
620.566	16447.58
620.761	15974.5
620.956	16035.94
621.151	15880.29
621.346	16019.55
621.541	15763.56
621.735	15964.26
621.93	15548.52
622.125	15560.81
622.32	15095.92
622.515	15284.33
622.709	15509.61
622.904	15267.95
623.099	15212.65
623.294	15212.65
623.488	15059.06
623.683	14880.88
623.878	14956.66
624.072	14723.19
624.267	14712.95
624.462	14774.39
624.656	14540.92
624.851	14506.1
625.046	14405.75
625.24	14164.09
625.435	14088.32
625.629	14217.34
625.824	14186.62
626.018	13895.81
626.213	13713.54
626.407	14033.02
626.602	13803.65
626.796	13662.34
626.991	13742.21
627.185	13330.57
627.38	13676.68
627.574	13445.26
627.768	13349
627.963	13224.08
628.157	13107.34
628.352	13312.14
628.546	12834.96
628.74	13336.71
628.935	12925.07
629.129	12888.21
629.323	12619.92
629.517	12642.45
629.712	12404.89
629.906	12640.4
630.1	12402.84
630.294	12351.64
630.489	12413.08
630.683	12255.39
630.877	12255.39
631.071	12214.43
631.265	12314.78
631.459	11860.13
631.653	11972.77
631.848	11710.63
632.042	11829.41
632.236	11661.48
632.43	11632.8
632.624	11657.38
632.818	11710.63
633.012	11536.55
633.206	11610.28
633.4	11419.82
633.594	11307.18
633.788	11466.92
633.982	11501.73
634.176	11514.02
634.369	11143.34
634.563	11094.19
634.757	11024.56
634.951	11002.03
635.145	11036.84
635.339	10922.16
635.533	10862.77
635.726	10801.33
635.92	10825.9
636.114	10754.23
636.308	10737.84
636.501	10494.13
636.695	10440.89
636.889	10324.15
637.083	10426.55
637.276	10168.51
637.47	10256.57
637.664	10164.41
637.857	10072.25
638.051	10131.64
638.244	10084.54
638.438	9906.37
638.632	9967.81
638.825	9892.03
639.019	9701.57
639.212	9775.3
639.406	9916.61
639.599	9488.58
639.793	9830.59
639.986	9582.79
640.18	9377.99
640.373	9339.08
640.567	9212.1
640.76	9306.31
640.954	9234.63
641.147	9294.02
641.34	9277.64
641.534	9230.54
641.727	9126.09
641.92	9009.36
642.114	8992.97
642.307	8722.64
642.5	8863.95
642.694	8577.23
642.887	8749.26
643.08	8902.86
643.273	8610
643.467	8491.22
643.66	8526.04
643.853	8564.95
644.046	8331.48
644.239	8360.15
644.432	8423.64
644.626	8190.17
644.819	8270.04
645.012	8212.7
645.205	8237.27
645.398	8098.01
645.591	8122.59
645.784	8063.19
645.977	8177.88
646.17	7880.93
646.363	7889.12
646.556	7907.55
646.749	7645.41
646.942	7776.48
647.135	7784.67
647.328	7733.47
647.521	7586.02
647.714	7475.43
647.907	7483.62
648.099	7635.17
648.292	7352.55
648.485	7608.55
648.678	7618.79
648.871	7377.12
649.064	7244.01
649.256	7338.21
649.449	7254.25
649.642	7334.12
649.835	7250.15
650.027	7127.27
650.22	7123.18
650.413	7022.83
650.605	7051.5
650.798	6998.25
650.991	6846.7
651.183	7063.79
651.376	6736.11
651.568	6834.41
651.761	6811.89
651.954	6899.95
652.146	6793.45
652.339	6715.63
652.531	6789.36
652.724	6611.18
652.916	6465.78
653.109	6533.36
653.301	6580.46
653.494	6586.61
653.686	6445.3
653.879	6555.89
654.071	6410.48
654.263	6228.21
654.456	6361.33
654.648	6324.47
654.84	6326.52
655.033	6322.42
655.225	6150.39
655.417	6088.95
655.61	6215.93
655.802	6293.75
655.994	6146.3
656.186	6047.99
656.379	5878.01
656.571	6082.81
656.763	5931.26
656.955	5798.14
657.148	5863.68
657.34	5835
657.532	5767.42
657.724	5916.92
657.916	5812.48
658.108	5705.98
658.3	5798.14
658.492	5792
658.684	5695.74
658.876	5654.78
659.068	5685.5
659.26	5683.45
659.452	5654.78
659.644	5435.65
659.836	5476.61
660.028	5550.34
660.22	5507.33
660.412	5447.94
660.604	5351.68
660.796	5329.16
660.988	5273.86
661.18	5247.24
661.372	5249.29
661.563	5386.5
661.755	5210.37
661.947	5169.41
662.139	5165.32
662.331	5087.5
662.522	5282.05
662.714	5185.8
662.906	5134.6
663.097	5048.58
663.289	4962.57
663.481	5075.21
663.673	5054.73
663.864	4997.39
664.056	4890.89
664.247	4962.57
664.439	4899.08
664.631	4970.76
664.822	4929.8
665.014	4802.83
665.205	4847.88
665.397	4843.79
665.588	4733.2
665.78	4765.96
665.971	4694.29
666.163	4878.6
666.354	4716.81
666.546	4774.16
666.737	4604.18
666.929	4604.18
667.12	4624.65
667.311	4602.13
667.503	4614.41
667.694	4534.54
667.885	4729.1
668.077	4557.07
668.268	4524.3
668.459	4483.34
668.651	4536.59
668.842	4569.36
669.033	4530.45
669.224	4577.55
669.416	4544.78
669.607	4411.67
669.798	4380.95
669.989	4407.57
670.18	4501.78
670.371	4405.52
670.563	4256.02
670.754	4391.19
670.945	4284.69
671.136	4352.27
671.327	4423.95
671.518	4376.85
671.709	4522.26
671.9	4260.12
672.091	4305.17
672.282	4311.32
672.473	4376.85
672.664	4323.6
672.855	4213.01
673.046	4278.55
673.237	4352.27
673.428	4256.02
673.619	4280.6
673.809	4194.58
674	4172.05
674.191	4286.74
674.382	4190.49
674.573	4215.06
674.764	4397.33
674.954	4141.33
675.145	4063.51
675.336	4153.62
675.527	4141.33
675.717	4229.4
675.908	4155.67
676.099	4145.43
676.289	4335.89
676.48	4131.09
676.671	4034.84
676.861	4112.66
677.052	4167.96
677.243	4061.46
677.433	4239.64
677.624	4313.36
677.814	4180.25
678.005	4106.52
678.195	4122.9
678.386	4108.57
678.576	4161.81
678.767	4116.76
678.957	4049.18
679.148	4163.86
679.338	4260.12
679.529	4122.9
679.719	4192.53
679.909	4137.24
680.1	4206.87
680.29	4092.18
680.481	4186.39
680.671	4040.98
680.861	4182.29
681.052	4071.7
681.242	3995.93
681.432	4016.41
681.622	4086.04
681.813	4036.89
682.003	4147.48
682.193	3916.06
682.383	4086.04
682.573	4167.96
682.764	4065.56
682.954	4018.46
683.144	4108.57
683.334	4051.22
683.524	4096.28
683.714	4131.09
683.904	4176.15
684.094	3989.78
684.284	4088.09
684.474	4167.96
684.664	3995.93
684.854	4102.42
685.044	3971.35
685.234	3987.74
685.424	3961.11
685.614	3971.35
685.804	4116.76
685.994	3975.45
686.184	3961.11
686.374	3969.3
686.564	4006.17
686.753	3928.35
686.943	3924.25
687.133	3920.15
687.323	3856.67
687.513	4012.31
687.702	4067.61
687.892	3887.39
688.082	3989.78
688.272	3885.34
688.461	3741.98
688.651	3971.35
688.841	3690.78
689.03	3889.43
689.22	3817.76
689.41	3758.36
689.599	3696.92
689.789	3649.82
689.979	3639.58
690.168	3664.16
690.358	3629.34
690.547	3797.28
690.737	3578.14
690.926	3553.57
691.116	3576.09
691.305	3715.36
691.495	3592.48
691.684	3565.85
691.874	3535.14
692.063	3539.23
692.252	3598.62
692.442	3479.84
692.631	3387.68
692.82	3459.36
693.01	3320.1
693.199	3463.46
693.388	3492.13
693.578	3391.78
693.767	3397.92
693.956	3252.52
694.146	3301.67
694.335	3465.5
694.524	3363.11
694.713	3408.16
694.902	3244.32
695.092	3250.47
695.281	3340.58
695.47	3297.57
695.659	3346.72
695.848	3191.08
696.037	3279.14
696.226	3191.08
696.415	3180.84
696.604	3268.9
696.793	3227.94
696.982	3195.17
697.171	3227.94
697.36	3223.84
697.549	3078.44
697.738	3051.81
697.927	3109.16
698.116	3172.64
698.305	3217.7
698.494	3053.86
698.683	3273
698.872	3199.27
699.061	3199.27
699.25	3164.45
699.438	3133.73
699.627	3232.04
699.816	3180.84
700.005	3227.94
700.193	3189.03
700.382	3232.04
700.571	3293.48
700.76	3121.45
700.948	3158.31
701.137	3096.87
701.326	3180.84
701.514	3219.75
701.703	3113.25
701.892	3234.08
702.08	3236.13
702.269	3152.17
702.457	3215.65
702.646	3213.6
702.834	3105.06
703.023	3148.07
703.212	3152.17
703.4	3125.54
703.589	3037.48
703.777	3096.87
703.965	3135.78
704.154	3207.46
704.342	3127.59
704.531	3209.51
704.719	3146.02
704.907	3154.21
705.096	3217.7
705.284	3203.36
705.472	3154.21
705.661	3207.46
705.849	3195.17
706.037	3223.84
706.226	3238.18
706.414	3246.37
706.602	3309.86
706.79	3162.41
706.979	3229.99
707.167	3262.76
707.355	3135.78
707.543	3189.03
707.731	3229.99
707.919	3146.02
708.107	3166.5
708.296	3154.21
708.484	3180.84
708.672	3344.67
708.86	3301.67
709.048	3215.65
709.236	3154.21
709.424	3103.01
709.612	3350.82
709.8	3182.88
709.988	3229.99
710.176	3148.07
710.364	3283.24
710.551	3342.63
710.739	3203.36
710.927	3303.71
711.115	3232.04
711.303	3322.15
711.491	3340.58
711.679	3180.84
711.866	3371.3
712.054	3299.62
712.242	3291.43
712.43	3369.25
712.617	3213.6
712.805	3338.53
712.993	3359.01
713.181	3242.28
713.368	3324.19
713.556	3281.19
713.744	3281.19
713.931	3318.05
714.119	3318.05
714.306	3414.31
714.494	3295.52
714.682	3313.95
714.869	3338.53
715.057	3436.83
715.244	3322.15
715.432	3404.07
715.619	3428.64
715.807	3387.68
715.994	3471.65
716.182	3361.06
716.369	3399.97
716.556	3502.37
716.744	3455.26
716.931	3457.31
717.119	3492.13
717.306	3442.98
717.493	3373.35
717.681	3395.87
717.868	3461.41
718.055	3436.83
718.242	3481.89
718.43	3346.72
718.617	3539.23
718.804	3479.84
718.991	3594.53
719.179	3512.61
719.366	3596.57
719.553	3455.26
719.74	3438.88
719.927	3463.46
720.114	3432.74
720.301	3522.85
720.488	3508.51
720.676	3555.62
720.863	3526.94
721.05	3733.79
721.237	3592.48
721.424	3569.95
721.611	3569.95
721.798	3547.42
721.985	3567.9
722.172	3584.29
722.358	3580.19
722.545	3690.78
722.732	3531.04
722.919	3578.14
723.106	3619.1
723.293	3680.54
723.48	3707.16
723.667	3551.52
723.853	3678.49
724.04	3612.96
724.227	3621.15
724.414	3631.39
724.6	3674.4
724.787	3643.68
724.974	3750.17
725.161	3698.97
725.347	3457.31
725.534	3592.48
725.72	3662.11
725.907	3690.78
726.094	3838.23
726.28	3621.15
726.467	3690.78
726.653	3705.12
726.84	3741.98
727.027	3952.92
727.213	3655.97
727.4	3848.47
727.586	3684.64
727.773	3735.84
727.959	3754.27
728.145	3703.07
728.332	3840.28
728.518	3672.35
728.705	3741.98
728.891	3803.42
729.077	3721.5
729.264	3860.76
729.45	3787.04
729.636	3909.91
729.823	3834.14
730.009	3887.39
730.195	3881.24
730.382	3871
730.568	3817.76
730.754	3782.94
730.94	3819.8
731.126	3936.54
731.313	3914.01
731.499	3805.47
731.685	3768.6
731.871	3918.11
732.057	3866.91
732.243	3819.8
732.429	3903.77
732.615	3930.39
732.801	3862.81
732.987	3809.56
733.173	3934.49
733.359	3836.19
733.545	3930.39
733.731	3805.47
733.917	3741.98
734.103	3991.83
734.289	3950.87
734.475	3950.87
734.661	4098.33
734.847	3856.67
735.033	3959.06
735.219	3946.78
735.404	3971.35
735.59	3903.77
735.776	4024.6
735.962	3920.15
736.148	4024.6
736.333	3967.26
736.519	3940.63
736.705	4024.6
736.89	3940.63
737.076	3963.16
737.262	3703.07
737.447	3965.21
737.633	3911.96
737.819	3803.42
738.004	3899.67
738.19	3991.83
738.375	3817.76
738.561	4010.26
738.747	3918.11
738.932	3801.37
739.118	3844.38
739.303	3827.99
739.489	3854.62
739.674	3793.18
739.859	3959.06
740.045	3817.76
740.23	3957.02
740.416	3721.5
740.601	3819.8
740.786	3766.56
740.972	3809.56
741.157	3813.66
741.342	3811.61
741.528	3819.8
741.713	3756.32
741.898	3754.27
742.084	3764.51
742.269	3725.6
742.454	3604.77
742.639	3819.8
742.824	3782.94
743.01	3621.15
743.195	3836.19
743.38	3696.92
743.565	3639.58
743.75	3772.7
743.935	3518.75
744.12	3674.4
744.305	3635.49
744.49	3504.42
744.675	3586.33
744.86	3504.42
745.045	3528.99
745.23	3512.61
745.415	3541.28
745.6	3664.16
745.785	3479.84
745.97	3561.76
746.155	3410.21
746.34	3512.61
746.525	3397.92
746.71	3586.33
746.895	3305.76
747.079	3371.3
747.264	3354.91
747.449	3375.39
747.634	3356.96
747.819	3395.87
748.003	3275.04
748.188	3520.8
748.373	3250.47
748.557	3346.72
748.742	3273
748.927	3146.02
749.111	3236.13
749.296	3217.7
749.481	3152.17
749.665	3234.08
749.85	3242.28
750.034	3186.98
750.219	3025.19
750.404	2992.42
750.588	3064.1
750.773	3045.67
750.957	3002.66
751.141	3002.66
751.326	2996.52
751.51	2928.94
751.695	3031.34
751.879	2951.46
752.064	2912.55
752.248	2951.46
752.432	2822.44
752.617	2797.87
752.801	2812.2
752.985	2797.87
753.17	2707.76
753.354	2748.72
753.538	2937.13
753.722	2740.52
753.907	2859.31
754.091	2685.23
754.275	2732.33
754.459	2677.04
754.643	2470.19
754.828	2619.69
755.012	2611.5
755.196	2545.97
755.38	2572.59
755.564	2515.25
755.748	2478.38
755.932	2609.45
756.116	2453.81
756.3	2478.38
756.484	2443.57
756.668	2449.71
756.852	2375.99
757.036	2408.75
757.22	2308.4
757.404	2378.03
757.588	2367.79
757.772	2429.23
757.956	2320.69
758.14	2429.23
758.323	2337.07
758.507	2332.98
758.691	2197.81
758.875	2242.87
759.059	2220.34
759.242	2193.72
759.426	2156.85
759.61	2306.35
759.794	2251.06
759.977	2261.3
760.161	2220.34
760.345	2203.96
760.528	2154.8
760.712	2134.32
760.895	2101.56
761.079	2146.61
761.263	2056.5
761.446	2171.19
761.63	2048.31
761.813	2109.75
761.997	1870.14
762.18	2036.02
762.364	2058.55
762.547	2019.64
762.731	1982.78
762.914	2093.37
763.098	1923.38
763.281	1835.32
763.464	2029.88
763.648	1999.16
763.831	1900.86
764.015	1995.06
764.198	1872.18
764.381	1835.32
764.564	1888.57
764.748	1845.56
764.931	1863.99
765.114	1839.42
765.297	1896.76
765.481	1771.83
765.664	1958.2
765.847	1923.38
766.03	1857.85
766.213	1812.79
766.397	1812.79
766.58	1698.11
766.763	1818.94
766.946	1808.7
767.129	1694.01
767.312	1724.73
767.495	1794.36
767.678	1724.73
767.861	1818.94
768.044	1808.7
768.227	1741.11
768.41	1646.91
768.593	1718.59
768.776	1704.25
768.959	1589.57
769.142	1644.86
769.324	1657.15
769.507	1577.28
769.69	1710.4
769.873	1583.42
770.056	1661.24
770.239	1546.56
770.421	1487.17
770.604	1622.33
770.787	1558.85
770.97	1564.99
771.152	1544.51
771.335	1569.09
771.518	1427.78
771.7	1587.52
771.883	1515.84
772.066	1501.5
772.248	1552.7
772.431	1601.85
772.613	1562.94
772.796	1497.41
772.978	1542.46
773.161	1509.69
773.343	1413.44
773.526	1440.06
773.708	1507.65
773.891	1487.17
774.073	1481.02
774.256	1384.77
774.438	1481.02
774.621	1433.92
774.803	1448.26
774.985	1370.43
775.168	1347.9
775.35	1343.81
775.532	1399.1
775.715	1345.86
775.897	1440.06
776.079	1302.85
776.261	1407.3
776.444	1280.32
776.626	1347.9
776.808	1329.47
776.99	1159.49
777.173	1263.94
777.355	1308.99
777.537	1243.46
777.719	1112.39
777.901	1208.64
778.083	1153.35
778.265	1186.12
778.447	1186.12
778.629	1098.05
778.811	1175.88
778.993	1169.73
779.175	1122.63
779.357	1202.5
779.539	1012.04
779.721	1114.44
779.903	1151.3
780.085	1077.57
780.267	1079.62
780.449	1089.86
780.631	1096
780.812	1022.28
780.994	1104.2
781.176	1038.66
781.358	1042.76
781.54	1036.61
781.721	1073.48
781.903	1050.95
782.085	960.84
782.267	1022.28
782.448	958.79
782.63	1046.85
782.812	983.37
782.993	993.61
783.175	932.17
783.357	944.45
783.538	938.31
783.72	907.59
783.901	844.1
784.083	985.41
784.264	903.5
784.446	856.39
784.627	774.47
784.809	926.02
784.99	821.58
785.172	895.3
785.353	840.01
785.535	842.06
785.716	778.57
785.897	815.43
786.079	858.44
786.26	811.34
786.441	772.43
786.623	774.47
786.804	704.84
786.985	764.23
787.167	784.71
787.348	743.75
787.529	823.62
787.71	809.29
787.891	770.38
788.073	731.47
788.254	723.27
788.435	835.91
788.616	700.75
788.797	661.84
788.978	729.42
789.159	700.75
789.34	745.8
789.522	717.13
789.703	604.49
789.884	688.46
790.065	731.47
790.246	694.6
790.427	577.87
790.607	690.51
790.788	702.79
790.969	661.84
791.15	627.02
791.331	610.64
791.512	592.2
791.693	647.5
791.874	649.55
792.054	641.36
792.235	604.49
792.416	594.25
792.597	508.24
792.778	620.88
792.958	721.23
793.139	678.22
793.32	643.4
793.5	622.92
793.681	627.02
793.862	602.44
794.042	561.48
794.223	563.53
794.404	549.2
794.584	498
794.765	561.48
794.945	559.44
795.126	571.72
795.306	536.91
795.487	569.68
795.667	463.18
795.848	581.96
796.028	579.92
796.209	547.15
796.389	569.68
796.57	465.23
796.75	461.13
796.93	541.01
797.111	469.33
797.291	522.57
797.471	475.47
797.652	457.04
797.832	547.15
798.012	487.76
798.192	549.2
798.373	457.04
798.553	379.22
798.733	477.52
798.913	422.22
799.093	457.04
799.274	502.09
799.454	414.03
799.634	518.48
799.814	479.57
799.994	426.32
800.174	432.46
800.354	434.51
800.534	393.55
800.714	373.07
800.894	420.17
801.074	422.22
801.254	393.55
801.434	569.68
801.614	555.34
801.794	389.46
801.974	1139.01
802.154	405.84
802.334	469.33
802.514	342.35
802.693	409.94
802.873	487.76
803.053	393.55
803.233	393.55
803.413	377.17
803.592	428.37
803.772	418.13
803.952	416.08
804.131	280.91
804.311	375.12
804.491	364.88
804.67	436.56
804.85	278.87
805.03	446.8
805.209	430.41
805.389	356.69
805.568	373.07
805.748	354.64
805.928	366.93
806.107	409.94
806.287	348.5
806.466	381.26
806.646	344.4
806.825	336.21
807.004	346.45
807.184	356.69
807.363	428.37
807.543	364.88
807.722	311.63
807.901	489.81
808.081	401.74
808.26	280.91
808.439	303.44
808.619	309.58
808.798	352.59
808.977	356.69
809.156	328.02
809.336	328.02
809.515	334.16
809.694	303.44
809.873	264.53
810.052	395.6
810.231	315.73
810.411	354.64
810.59	323.92
810.769	242
810.948	332.11
811.127	242
811.306	303.44
811.485	311.63
811.664	348.5
811.843	289.1
812.022	301.39
812.201	299.34
812.38	348.5
812.559	301.39
812.737	289.1
812.916	303.44
813.095	272.72
813.274	299.34
813.453	221.52
813.632	260.43
813.811	278.87
813.989	217.43
814.168	291.15
814.347	244.05
814.526	278.87
814.704	295.25
814.883	289.1
815.062	311.63
815.24	262.48
815.419	205.14
815.598	280.91
815.776	186.71
815.955	299.34
816.133	231.76
816.312	276.82
816.49	260.43
816.669	266.58
816.847	270.67
817.026	233.81
817.204	274.77
817.383	229.71
817.561	215.38
817.74	293.2
817.918	172.37
818.097	266.58
818.275	266.58
818.453	260.43
818.632	186.71
818.81	207.19
818.988	203.09
819.167	291.15
819.345	188.75
819.523	274.77
819.701	182.61
819.879	262.48
820.058	252.24
820.236	276.82
820.414	223.57
820.592	190.8
820.77	278.87
820.948	258.39
821.127	217.43
821.305	276.82
821.483	221.52
821.661	258.39
821.839	147.8
822.017	254.29
822.195	274.77
822.373	248.15
822.551	221.52
822.729	244.05
822.907	213.33
823.085	213.33
823.262	221.52
823.44	178.51
823.618	254.29
823.796	137.56
823.974	131.41
824.152	184.66
824.329	223.57
824.507	129.36
824.685	151.89
824.863	201.04
825.04	172.37
825.218	196.95
825.396	184.66
825.574	217.43
825.751	213.33
825.929	217.43
826.107	180.56
826.284	188.75
826.462	158.03
826.639	188.75
826.817	121.17
826.994	213.33
827.172	121.17
827.349	233.81
827.527	170.32
827.704	209.23
827.882	170.32
828.059	153.94
828.237	127.32
828.414	205.14
828.591	151.89
828.769	194.9
828.946	166.23
829.124	129.36
829.301	239.95
829.478	170.32
829.655	225.62
829.833	178.51
830.01	112.98
830.187	121.17
830.364	262.48
830.542	115.03
830.719	180.56
830.896	168.27
831.073	211.28
831.25	98.64
831.427	168.27
831.604	74.07
831.782	127.32
831.959	176.47
832.136	51.54
832.313	184.66
832.49	45.4
832.667	190.8
832.844	123.22
833.021	149.84
833.198	74.07
833.374	80.21
833.551	145.75
833.728	117.08
833.905	186.71
834.082	151.89
834.259	123.22
834.436	219.47
834.612	80.21
834.789	139.6
834.966	153.94
835.143	57.68
835.319	119.12
835.496	221.52
835.673	119.12
835.85	213.33
836.026	121.17
836.203	174.42
836.38	137.56
836.556	160.08
836.733	133.46
836.909	258.39
837.086	100.69
837.262	110.93
837.439	162.13
837.616	145.75
837.792	203.09
837.968	96.6
838.145	33.11
838.321	121.17
838.498	125.27
838.674	213.33
838.851	155.99
839.027	127.32
839.203	153.94
839.38	127.32
839.556	176.47
839.732	88.4
839.909	57.68
840.085	86.36
840.261	106.84
840.437	162.13
840.614	133.46
840.79	106.84
840.966	82.26
841.142	141.65
841.318	78.16
841.494	92.5
841.671	162.13
841.847	135.51
842.023	39.25
842.199	100.69
842.375	176.47
842.551	78.16
842.727	41.3
842.903	174.42
843.079	43.35
843.255	225.62
843.431	121.17
843.607	65.88
843.783	51.54
843.959	115.03
844.134	63.83
844.31	135.51
844.486	110.93
844.662	96.6
844.838	151.89
845.013	149.84
845.189	127.32
845.365	211.28
845.541	158.03
845.716	67.92
845.892	88.4
846.068	125.27
846.244	20.82
846.419	180.56
846.595	33.11
846.77	74.07
846.946	117.08
847.122	47.44
847.297	104.79
847.473	135.51
847.648	108.88
847.824	57.68
847.999	-36.52
848.175	104.79
848.35	29.01
848.526	102.74
848.701	72.02
848.876	74.07
849.052	45.4
849.227	176.47
849.403	63.83
849.578	51.54
849.753	65.88
849.929	45.4
850.104	80.21
850.279	45.4
850.454	-11.95
850.63	41.3
850.805	127.32
850.98	135.51
851.155	69.97
851.33	55.64
851.505	41.3
851.681	178.51
851.856	-13.99
852.031	129.36
852.206	90.45
852.381	45.4
852.556	117.08
852.731	35.16
852.906	123.22
853.081	125.27
853.256	65.88
853.431	90.45
853.606	35.16
853.781	80.21
853.956	2.39
854.131	35.16
854.305	119.12
854.48	43.35
854.655	74.07
854.83	45.4
855.005	117.08
855.18	37.2
855.354	133.46
855.529	76.12
855.704	88.4
855.879	131.41
856.053	29.01
856.228	129.36
856.403	86.36
856.577	35.16
856.752	65.88
856.926	55.64
857.101	20.82
857.276	-11.95
857.45	78.16
857.625	59.73
857.799	104.79
857.974	53.59
858.148	12.63
858.323	80.21
858.497	53.59
858.672	26.96
858.846	37.2
859.02	43.35
859.195	78.16
859.369	104.79
859.543	55.64
859.718	-1.71
859.892	39.25
860.066	96.6
860.241	96.6
860.415	82.26
860.589	41.3
860.763	127.32
860.938	-18.09
861.112	55.64
861.286	22.87
861.46	37.2
861.634	26.96
861.808	94.55
861.982	18.77
862.157	-1.71
862.331	10.58
862.505	57.68
862.679	35.16
862.853	18.77
863.027	96.6
863.201	90.45
863.375	20.82
863.549	72.02
863.722	33.11
863.896	137.56
864.07	90.45
864.244	69.97
864.418	82.26
864.592	61.78
864.766	-36.52
864.939	10.58
865.113	26.96
865.287	84.31
865.461	-16.04
865.634	-20.14
865.808	49.49
865.982	4.44
866.156	-9.9
866.329	37.2
866.503	2.39
866.676	178.51
866.85	33.11
867.024	69.97
867.197	20.82
867.371	82.26
867.544	29.01
867.718	41.3
867.891	112.98
868.065	-22.19
868.238	133.46
868.412	96.6
868.585	20.82
868.759	84.31
868.932	-13.99
869.105	-26.28
869.279	53.59
869.452	10.58
869.625	16.73
869.799	45.4
869.972	26.96
870.145	59.73
870.319	72.02
870.492	49.49
870.665	35.16
870.838	37.2
871.011	2.39
871.185	37.2
871.358	-1.71
871.531	47.44
871.704	-9.9
871.877	55.64
872.05	49.49
872.223	14.68
872.396	16.73
872.569	-3.75
872.742	-16.04
872.915	-16.04
873.088	24.92
873.261	67.92
873.434	67.92
873.607	16.73
873.78	51.54
873.953	45.4
874.126	12.63
874.299	94.55
874.471	0.34
874.644	24.92
874.817	65.88
874.99	82.26
875.163	26.96
875.335	29.01
875.508	63.83
875.681	80.21
875.853	-48.81
876.026	10.58
876.199	26.96
876.371	31.06
876.544	6.49
876.717	-1.71
876.889	16.73
877.062	10.58
877.234	-5.8
877.407	-13.99
877.579	37.2
877.752	100.69
877.924	35.16
878.097	63.83
878.269	31.06
878.442	18.77
878.614	-16.04
878.786	72.02
878.959	51.54
879.131	106.84
879.303	33.11
879.476	16.73
879.648	-11.95
879.82	22.87
879.993	53.59
880.165	18.77
880.337	4.44
880.509	-24.23
880.681	-30.38
880.854	29.01
881.026	20.82
881.198	57.68
881.37	47.44
881.542	0.34
881.714	49.49
881.886	26.96
882.058	49.49
882.23	61.78
882.402	57.68
882.574	35.16
882.746	35.16
882.918	49.49
883.09	20.82
883.262	14.68
883.434	31.06
883.606	49.49
883.778	20.82
883.95	98.64
884.122	-50.86
884.293	55.64
884.465	22.87
884.637	47.44
884.809	-1.71
884.98	80.21
885.152	-16.04
885.324	20.82
885.496	92.5
885.667	18.77
885.839	59.73
886.011	110.93
886.182	49.49
886.354	72.02
886.525	33.11
886.697	65.88
886.869	45.4
887.04	-1.71
887.212	84.31
887.383	92.5
887.555	55.64
887.726	18.77
887.897	-24.23
888.069	24.92
888.24	51.54
888.412	-26.28
888.583	39.25
888.754	43.35
888.926	2.39
889.097	45.4
889.268	-13.99
889.44	-18.09
889.611	-48.81
889.782	39.25
889.953	39.25
890.125	80.21
890.296	-16.04
890.467	20.82
890.638	26.96
890.809	8.53
890.98	26.96
891.151	92.5
891.323	2.39
891.494	31.06
891.665	63.83
891.836	10.58
892.007	2.39
892.178	39.25
892.349	-22.19
892.52	63.83
892.691	-34.47
892.862	-16.04
893.032	-65.19
893.203	-20.14
893.374	16.73
893.545	88.4
893.716	2.39
893.887	-22.19
894.057	-44.71
894.228	86.36
894.399	6.49
894.57	76.12
894.74	-18.09
894.911	39.25
895.082	18.77
895.253	-34.47
895.423	100.69
895.594	26.96
895.764	-108.2
895.935	-38.57
896.106	8.53
896.276	96.6
896.447	51.54
896.617	-26.28
896.788	-48.81
896.958	45.4
897.129	-5.8
897.299	6.49
897.47	47.44
897.64	41.3
897.81	12.63
897.981	24.92
898.151	-26.28
898.322	29.01
898.492	47.44
898.662	-7.85
898.832	10.58
899.003	-7.85
899.173	0.34
899.343	-63.15
899.513	-7.85
