Data from USB4F104151__5__12-23-19-228.txt Node

Date: Fri Mar 14 12:23:19 EDT 2025
User: louis
Spectrometer: USB4F10415
Trigger mode: 4
Integration Time (sec): 3.500000E-2
Scans to average: 1
Electric dark correction enabled: true
Nonlinearity correction enabled: false
Boxcar width: 0
XAxis mode: Wavelengths
Number of Pixels in Spectrum: 3648
>>>>>Begin Spectral Data<<<<<
178.204	-136.7
178.424	-136.7
178.644	-136.7
178.864	-97.79
179.084	-173.57
179.304	-9.73
179.524	-52.74
179.744	64
179.964	14.85
180.184	12.8
180.404	4.61
180.624	43.52
180.844	-44.54
181.064	-40.45
181.283	31.23
181.503	-46.59
181.723	23.04
181.943	-30.21
182.163	82.43
182.383	-36.35
182.602	23.04
182.822	16.9
183.042	55.81
183.262	-13.82
183.482	49.66
183.701	-15.87
183.921	51.71
184.141	4.61
184.361	16.9
184.58	90.62
184.8	-17.92
185.02	35.33
185.239	43.52
185.459	-15.87
185.679	82.43
185.898	-52.74
186.118	49.66
186.338	-7.68
186.557	51.71
186.777	10.75
186.997	55.81
187.216	-36.35
187.436	53.76
187.655	-24.06
187.875	-5.63
188.095	33.28
188.314	152.06
188.534	18.94
188.753	14.85
188.973	-7.68
189.192	25.09
189.412	33.28
189.631	47.62
189.851	57.86
190.07	35.33
190.29	64
190.509	-5.63
190.729	-19.97
190.948	-19.97
191.168	137.73
191.387	49.66
191.607	29.18
191.826	45.57
192.045	39.42
192.265	-50.69
192.484	-32.26
192.704	18.94
192.923	-26.11
193.142	76.29
193.362	31.23
193.581	82.43
193.8	-9.73
194.02	29.18
194.239	70.14
194.458	76.29
194.678	6.66
194.897	-65.02
195.116	-15.87
195.335	10.75
195.555	92.67
195.774	20.99
195.993	61.95
196.212	31.23
196.432	-67.07
196.651	-3.58
196.87	-1.54
197.089	55.81
197.308	-11.78
197.528	35.33
197.747	-9.73
197.966	25.09
198.185	98.81
198.404	-3.58
198.623	29.18
198.842	8.7
199.062	113.15
199.281	135.68
199.5	66.05
199.719	31.23
199.938	-7.68
200.157	66.05
200.376	-19.97
200.595	45.57
200.814	102.91
201.033	18.94
201.252	25.09
201.471	20.99
201.69	53.76
201.909	31.23
202.128	53.76
202.347	41.47
202.566	8.7
202.785	-15.87
203.004	-15.87
203.223	55.81
203.442	35.33
203.661	10.75
203.879	10.75
204.098	104.96
204.317	61.95
204.536	25.09
204.755	31.23
204.974	86.53
205.193	-81.41
205.411	92.67
205.63	53.76
205.849	33.28
206.068	-19.97
206.287	10.75
206.505	64
206.724	29.18
206.943	-24.06
207.162	-3.58
207.381	2.56
207.599	31.23
207.818	51.71
208.037	-46.59
208.255	-73.21
208.474	14.85
208.693	14.85
208.911	43.52
209.13	16.9
209.349	29.18
209.567	14.85
209.786	156.16
210.005	-50.69
210.223	16.9
210.442	-32.26
210.661	119.29
210.879	-40.45
211.098	14.85
211.316	12.8
211.535	49.66
211.753	49.66
211.972	41.47
212.191	39.42
212.409	45.57
212.628	-5.63
212.846	49.66
213.065	104.96
213.283	27.14
213.502	-48.64
213.72	43.52
213.938	4.61
214.157	-34.3
214.375	39.42
214.594	31.23
214.812	61.95
215.031	37.38
215.249	-32.26
215.467	80.38
215.686	0.51
215.904	92.67
216.122	78.33
216.341	107.01
216.559	-5.63
216.778	27.14
216.996	55.81
217.214	-38.4
217.432	2.56
217.651	39.42
217.869	6.66
218.087	55.81
218.306	74.24
218.524	94.72
218.742	18.94
218.96	12.8
219.179	-22.02
219.397	107.01
219.615	129.53
219.833	59.9
220.051	-44.54
220.27	8.7
220.488	-5.63
220.706	12.8
220.924	12.8
221.142	12.8
221.36	18.94
221.578	16.9
221.796	55.81
222.015	84.48
222.233	10.75
222.451	86.53
222.669	25.09
222.887	45.57
223.105	-7.68
223.323	53.76
223.541	-17.92
223.759	76.29
223.977	41.47
224.195	74.24
224.413	61.95
224.631	84.48
224.849	-11.78
225.067	61.95
225.285	6.66
225.503	-62.98
225.721	-7.68
225.939	14.85
226.157	64
226.375	119.29
226.592	-36.35
226.81	37.38
227.028	78.33
227.246	96.77
227.464	31.23
227.682	100.86
227.9	76.29
228.117	20.99
228.335	41.47
228.553	-28.16
228.771	53.76
228.989	-32.26
229.206	20.99
229.424	20.99
229.642	68.09
229.86	18.94
230.077	33.28
230.295	33.28
230.513	23.04
230.731	80.38
230.948	74.24
231.166	2.56
231.384	53.76
231.601	16.9
231.819	64
232.037	-17.92
232.254	25.09
232.472	80.38
232.689	-93.69
232.907	41.47
233.125	31.23
233.342	-9.73
233.56	-19.97
233.777	-32.26
233.995	64
234.213	102.91
234.43	14.85
234.648	70.14
234.865	-50.69
235.083	0.51
235.3	35.33
235.518	6.66
235.735	117.25
235.953	-15.87
236.17	25.09
236.388	-54.78
236.605	74.24
236.822	66.05
237.04	43.52
237.257	2.56
237.475	53.76
237.692	6.66
237.909	57.86
238.127	-42.5
238.344	70.14
238.562	78.33
238.779	-24.06
238.996	-11.78
239.214	33.28
239.431	33.28
239.648	-15.87
239.865	74.24
240.083	-1.54
240.3	47.62
240.517	-3.58
240.735	59.9
240.952	143.87
241.169	-11.78
241.386	39.42
241.603	27.14
241.821	41.47
242.038	49.66
242.255	-1.54
242.472	-9.73
242.689	107.01
242.907	23.04
243.124	20.99
243.341	45.57
243.558	-56.83
243.775	8.7
243.992	-48.64
244.209	31.23
244.426	107.01
244.643	72.19
244.86	27.14
245.078	41.47
245.295	39.42
245.512	-3.58
245.729	31.23
245.946	49.66
246.163	-17.92
246.38	-52.74
246.597	29.18
246.814	70.14
247.031	-28.16
247.248	31.23
247.464	16.9
247.681	-30.21
247.898	41.47
248.115	86.53
248.332	35.33
248.549	98.81
248.766	33.28
248.983	29.18
249.2	41.47
249.417	12.8
249.633	53.76
249.85	37.38
250.067	-13.82
250.284	18.94
250.501	102.91
250.717	98.81
250.934	-7.68
251.151	-9.73
251.368	-1.54
251.585	129.53
251.801	76.29
252.018	25.09
252.235	8.7
252.451	-15.87
252.668	47.62
252.885	57.86
253.102	41.47
253.318	45.57
253.535	-71.17
253.752	37.38
253.968	-17.92
254.185	-42.5
254.401	-19.97
254.618	-22.02
254.835	-7.68
255.051	29.18
255.268	-11.78
255.484	-13.82
255.701	-34.3
255.917	49.66
256.134	-1.54
256.351	41.47
256.567	55.81
256.784	2.56
257	-56.83
257.217	25.09
257.433	-7.68
257.65	20.99
257.866	27.14
258.082	-52.74
258.299	-15.87
258.515	-15.87
258.732	68.09
258.948	-15.87
259.165	4.61
259.381	10.75
259.597	47.62
259.814	-30.21
260.03	37.38
260.246	25.09
260.463	104.96
260.679	80.38
260.895	82.43
261.112	35.33
261.328	-50.69
261.544	45.57
261.761	72.19
261.977	-11.78
262.193	47.62
262.409	12.8
262.626	27.14
262.842	33.28
263.058	-26.11
263.274	27.14
263.49	64
263.707	29.18
263.923	55.81
264.139	-48.64
264.355	43.52
264.571	70.14
264.787	-50.69
265.004	78.33
265.22	23.04
265.436	-5.63
265.652	-5.63
265.868	137.73
266.084	51.71
266.3	-13.82
266.516	-15.87
266.732	59.9
266.948	2.56
267.164	37.38
267.38	27.14
267.596	-13.82
267.812	43.52
268.028	98.81
268.244	35.33
268.46	8.7
268.676	-28.16
268.892	33.28
269.108	0.51
269.324	-30.21
269.54	2.56
269.756	72.19
269.972	41.47
270.188	-44.54
270.403	94.72
270.619	41.47
270.835	-24.06
271.051	-24.06
271.267	68.09
271.483	-77.31
271.698	68.09
271.914	33.28
272.13	-22.02
272.346	-1.54
272.562	27.14
272.777	20.99
272.993	16.9
273.209	-3.58
273.425	-13.82
273.64	-5.63
273.856	72.19
274.072	49.66
274.287	10.75
274.503	16.9
274.719	8.7
274.934	82.43
275.15	49.66
275.366	37.38
275.581	-1.54
275.797	-13.82
276.012	-1.54
276.228	0.51
276.444	-13.82
276.659	-9.73
276.875	-58.88
277.09	35.33
277.306	-5.63
277.521	66.05
277.737	-42.5
277.952	68.09
278.168	25.09
278.383	25.09
278.599	121.34
278.814	96.77
279.03	16.9
279.245	129.53
279.461	59.9
279.676	51.71
279.892	33.28
280.107	139.77
280.322	55.81
280.538	55.81
280.753	-34.3
280.969	12.8
281.184	96.77
281.399	45.57
281.615	43.52
281.83	29.18
282.045	-17.92
282.26	-3.58
282.476	-50.69
282.691	76.29
282.906	31.23
283.122	57.86
283.337	-11.78
283.552	16.9
283.767	18.94
283.983	55.81
284.198	35.33
284.413	-26.11
284.628	-48.64
284.843	-22.02
285.058	43.52
285.274	-32.26
285.489	25.09
285.704	-3.58
285.919	10.75
286.134	53.76
286.349	14.85
286.564	47.62
286.779	8.7
286.995	57.86
287.21	-13.82
287.425	12.8
287.64	31.23
287.855	16.9
288.07	-26.11
288.285	74.24
288.5	47.62
288.715	64
288.93	-17.92
289.145	-22.02
289.36	90.62
289.575	35.33
289.79	55.81
290.004	-73.21
290.219	33.28
290.434	33.28
290.649	31.23
290.864	-26.11
291.079	27.14
291.294	43.52
291.509	-17.92
291.724	0.51
291.938	20.99
292.153	43.52
292.368	-26.11
292.583	27.14
292.798	8.7
293.012	84.48
293.227	4.61
293.442	2.56
293.657	-26.11
293.871	35.33
294.086	31.23
294.301	111.1
294.516	72.19
294.73	0.51
294.945	-11.78
295.16	76.29
295.374	82.43
295.589	76.29
295.804	-3.58
296.018	31.23
296.233	43.52
296.447	18.94
296.662	43.52
296.877	59.9
297.091	121.34
297.306	53.76
297.52	14.85
297.735	16.9
297.949	57.86
298.164	47.62
298.378	27.14
298.593	14.85
298.807	59.9
299.022	102.91
299.236	51.71
299.451	4.61
299.665	-17.92
299.88	57.86
300.094	31.23
300.309	68.09
300.523	-11.78
300.737	55.81
300.952	23.04
301.166	23.04
301.381	27.14
301.595	68.09
301.809	45.57
302.024	57.86
302.238	-26.11
302.452	68.09
302.667	59.9
302.881	41.47
303.095	31.23
303.309	64
303.524	66.05
303.738	4.61
303.952	41.47
304.166	55.81
304.381	-71.17
304.595	4.61
304.809	41.47
305.023	41.47
305.237	-24.06
305.452	-42.5
305.666	23.04
305.88	145.92
306.094	100.86
306.308	82.43
306.522	43.52
306.736	23.04
306.95	55.81
307.164	-15.87
307.379	70.14
307.593	61.95
307.807	90.62
308.021	80.38
308.235	104.96
308.449	-36.35
308.663	20.99
308.877	80.38
309.091	64
309.305	-56.83
309.519	35.33
309.733	72.19
309.947	-38.4
310.161	49.66
310.374	27.14
310.588	23.04
310.802	27.14
311.016	33.28
311.23	23.04
311.444	41.47
311.658	25.09
311.872	29.18
312.085	35.33
312.299	61.95
312.513	84.48
312.727	-15.87
312.941	-1.54
313.154	23.04
313.368	-32.26
313.582	59.9
313.796	12.8
314.009	33.28
314.223	61.95
314.437	25.09
314.651	92.67
314.864	-40.45
315.078	-28.16
315.292	12.8
315.505	70.14
315.719	29.18
315.933	59.9
316.146	53.76
316.36	14.85
316.573	125.44
316.787	66.05
317.001	90.62
317.214	-65.02
317.428	51.71
317.641	-17.92
317.855	31.23
318.068	64
318.282	57.86
318.495	23.04
318.709	61.95
318.922	10.75
319.136	107.01
319.349	70.14
319.563	-46.59
319.776	25.09
319.99	-5.63
320.203	-17.92
320.417	35.33
320.63	82.43
320.843	86.53
321.057	51.71
321.27	4.61
321.483	27.14
321.697	84.48
321.91	55.81
322.124	-46.59
322.337	80.38
322.55	-28.16
322.763	25.09
322.977	64
323.19	27.14
323.403	-13.82
323.617	16.9
323.83	59.9
324.043	74.24
324.256	70.14
324.469	35.33
324.683	33.28
324.896	37.38
325.109	31.23
325.322	51.71
325.535	111.1
325.748	57.86
325.962	51.71
326.175	41.47
326.388	59.9
326.601	35.33
326.814	80.38
327.027	8.7
327.24	8.7
327.453	-52.74
327.666	53.76
327.879	49.66
328.092	25.09
328.305	25.09
328.518	109.05
328.731	0.51
328.944	10.75
329.157	35.33
329.37	47.62
329.583	117.25
329.796	82.43
330.009	-79.36
330.222	104.96
330.435	90.62
330.648	74.24
330.861	29.18
331.073	88.57
331.286	43.52
331.499	16.9
331.712	-56.83
331.925	59.9
332.138	-19.97
332.35	37.38
332.563	-15.87
332.776	86.53
332.989	-22.02
333.202	27.14
333.414	64
333.627	39.42
333.84	68.09
334.053	6.66
334.265	-42.5
334.478	29.18
334.691	-32.26
334.903	49.66
335.116	0.51
335.329	-13.82
335.541	0.51
335.754	92.67
335.966	76.29
336.179	80.38
336.392	-3.58
336.604	61.95
336.817	76.29
337.029	104.96
337.242	27.14
337.454	59.9
337.667	10.75
337.88	86.53
338.092	39.42
338.305	31.23
338.517	10.75
338.729	-3.58
338.942	-3.58
339.154	-5.63
339.367	20.99
339.579	-11.78
339.792	-13.82
340.004	66.05
340.217	35.33
340.429	31.23
340.641	-17.92
340.854	-42.5
341.066	20.99
341.278	125.44
341.491	92.67
341.703	18.94
341.915	43.52
342.128	84.48
342.34	115.2
342.552	-28.16
342.764	-15.87
342.977	88.57
343.189	53.76
343.401	27.14
343.613	-52.74
343.826	-3.58
344.038	-30.21
344.25	76.29
344.462	-19.97
344.674	55.81
344.886	55.81
345.099	84.48
345.311	66.05
345.523	2.56
345.735	14.85
345.947	-36.35
346.159	59.9
346.371	100.86
346.583	96.77
346.795	154.11
347.007	41.47
347.219	37.38
347.431	-28.16
347.643	18.94
347.855	-44.54
348.067	41.47
348.279	14.85
348.491	6.66
348.703	29.18
348.915	39.42
349.127	-22.02
349.339	41.47
349.551	88.57
349.763	57.86
349.975	47.62
350.187	43.52
350.399	80.38
350.61	59.9
350.822	64
351.034	0.51
351.246	-38.4
351.458	43.52
351.669	111.1
351.881	72.19
352.093	0.51
352.305	88.57
352.517	45.57
352.728	72.19
352.94	-7.68
353.152	92.67
353.363	6.66
353.575	25.09
353.787	8.7
353.999	55.81
354.21	49.66
354.422	-26.11
354.633	25.09
354.845	-3.58
355.057	74.24
355.268	37.38
355.48	8.7
355.692	-46.59
355.903	78.33
356.115	14.85
356.326	-65.02
356.538	98.81
356.749	-24.06
356.961	102.91
357.172	37.38
357.384	-26.11
357.595	107.01
357.807	-36.35
358.018	39.42
358.23	18.94
358.441	61.95
358.653	6.66
358.864	37.38
359.075	31.23
359.287	88.57
359.498	123.39
359.709	96.77
359.921	18.94
360.132	119.29
360.344	31.23
360.555	61.95
360.766	29.18
360.977	74.24
361.189	41.47
361.4	-34.3
361.611	33.28
361.823	72.19
362.034	143.87
362.245	-40.45
362.456	53.76
362.667	23.04
362.879	-32.26
363.09	-3.58
363.301	33.28
363.512	29.18
363.723	0.51
363.935	25.09
364.146	66.05
364.357	12.8
364.568	70.14
364.779	-9.73
364.99	94.72
365.201	-17.92
365.412	39.42
365.623	4.61
365.834	35.33
366.045	-30.21
366.256	51.71
366.467	55.81
366.678	25.09
366.889	43.52
367.1	-13.82
367.311	-36.35
367.522	74.24
367.733	33.28
367.944	127.49
368.155	53.76
368.366	35.33
368.577	64
368.788	64
368.999	86.53
369.209	18.94
369.42	102.91
369.631	135.68
369.842	64
370.053	-36.35
370.264	23.04
370.474	76.29
370.685	82.43
370.896	6.66
371.107	74.24
371.317	107.01
371.528	-5.63
371.739	12.8
371.95	0.51
372.16	43.52
372.371	57.86
372.582	25.09
372.792	37.38
373.003	86.53
373.214	70.14
373.424	121.34
373.635	-75.26
373.846	82.43
374.056	39.42
374.267	20.99
374.477	20.99
374.688	-5.63
374.898	31.23
375.109	43.52
375.319	2.56
375.53	12.8
375.74	57.86
375.951	59.9
376.161	78.33
376.372	57.86
376.582	6.66
376.793	100.86
377.003	41.47
377.214	72.19
377.424	102.91
377.635	-11.78
377.845	0.51
378.055	43.52
378.266	-34.3
378.476	12.8
378.686	68.09
378.897	18.94
379.107	66.05
379.317	16.9
379.528	41.47
379.738	94.72
379.948	-28.16
380.158	64
380.369	53.76
380.579	33.28
380.789	8.7
380.999	6.66
381.21	57.86
381.42	125.44
381.63	53.76
381.84	51.71
382.05	111.1
382.261	86.53
382.471	20.99
382.681	35.33
382.891	76.29
383.101	-15.87
383.311	100.86
383.521	6.66
383.731	92.67
383.941	20.99
384.151	20.99
384.361	6.66
384.571	29.18
384.781	68.09
384.991	61.95
385.201	139.77
385.411	68.09
385.621	88.57
385.831	12.8
386.041	82.43
386.251	39.42
386.461	57.86
386.671	33.28
386.881	47.62
387.091	-1.54
387.301	66.05
387.511	18.94
387.72	107.01
387.93	70.14
388.14	27.14
388.35	129.53
388.56	104.96
388.769	53.76
388.979	47.62
389.189	-13.82
389.399	14.85
389.609	102.91
389.818	80.38
390.028	-36.35
390.238	109.05
390.447	59.9
390.657	64
390.867	64
391.076	-54.78
391.286	43.52
391.496	86.53
391.705	123.39
391.915	90.62
392.125	113.15
392.334	35.33
392.544	113.15
392.753	70.14
392.963	-28.16
393.172	14.85
393.382	0.51
393.591	94.72
393.801	37.38
394.01	147.97
394.22	74.24
394.429	41.47
394.639	53.76
394.848	57.86
395.058	84.48
395.267	47.62
395.477	88.57
395.686	182.78
395.895	139.77
396.105	94.72
396.314	-32.26
396.524	4.61
396.733	84.48
396.942	8.7
397.152	96.77
397.361	233.98
397.57	57.86
397.78	76.29
397.989	25.09
398.198	150.01
398.407	57.86
398.617	125.44
398.826	64
399.035	41.47
399.244	121.34
399.453	84.48
399.663	51.71
399.872	76.29
400.081	51.71
400.29	94.72
400.499	92.67
400.708	102.91
400.917	82.43
401.127	162.3
401.336	53.76
401.545	123.39
401.754	109.05
401.963	86.53
402.172	137.73
402.381	66.05
402.59	66.05
402.799	143.87
403.008	121.34
403.217	115.2
403.426	123.39
403.635	16.9
403.844	84.48
404.053	145.92
404.262	111.1
404.471	100.86
404.68	137.73
404.888	41.47
405.097	86.53
405.306	96.77
405.515	190.97
405.724	57.86
405.933	201.21
406.142	162.3
406.35	178.69
406.559	164.35
406.768	115.2
406.977	260.6
407.185	96.77
407.394	168.45
407.603	143.87
407.812	119.29
408.02	129.53
408.229	201.21
408.438	172.54
408.646	215.55
408.855	270.84
409.064	166.4
409.272	242.17
409.481	186.88
409.69	215.55
409.898	127.49
410.107	172.54
410.315	274.94
410.524	238.08
410.733	229.88
410.941	270.84
411.15	295.42
411.358	256.51
411.567	317.95
411.775	301.56
411.984	291.32
412.192	309.76
412.401	311.8
412.609	322.04
412.818	399.87
413.026	377.34
413.234	346.62
413.443	328.19
413.651	375.29
413.86	299.52
414.068	444.92
414.276	492.02
414.485	432.63
414.693	432.63
414.901	551.42
415.11	528.89
415.318	471.54
415.526	479.74
415.734	494.07
415.943	500.22
416.151	629.24
416.359	637.43
416.567	598.52
416.776	575.99
416.984	664.05
417.192	788.98
417.4	649.72
417.608	674.29
417.817	715.25
418.025	809.46
418.233	895.47
418.441	725.49
418.649	840.18
418.857	866.8
419.065	985.58
419.273	858.61
419.481	973.3
419.689	1008.11
419.897	1065.46
420.105	1077.74
420.313	1108.46
420.521	1100.27
420.729	1169.9
420.937	1147.37
421.145	1196.53
421.353	1346.03
421.561	1427.95
421.769	1358.32
421.977	1462.76
422.185	1429.99
422.393	1528.3
422.601	1608.17
422.809	1526.25
423.017	1612.26
423.224	1661.41
423.432	1739.24
423.64	1667.56
423.848	1907.17
424.056	1835.49
424.263	2056.67
424.471	1968.61
424.679	2034.14
424.887	2101.73
425.094	2236.89
425.302	2200.03
425.51	2322.91
425.718	2353.63
425.925	2396.64
426.133	2478.55
426.341	2423.26
426.548	2773.46
426.756	2793.94
426.964	2707.93
427.171	2925.01
427.379	2953.68
427.586	2988.5
427.794	3037.65
428.001	3195.34
428.209	3430.86
428.417	3369.42
428.624	3711.43
428.832	3664.33
429.039	3666.38
429.247	3652.04
429.454	4006.34
429.662	4118.98
429.869	3912.13
430.076	4125.12
430.284	4196.8
430.491	4391.36
430.699	4569.53
430.906	4661.69
431.114	4495.8
431.321	4698.55
431.528	4667.83
431.736	5077.43
431.943	5366.19
432.15	5226.93
432.358	5218.74
432.565	5769.64
432.772	5433.77
432.979	5689.77
433.187	5908.9
433.394	5945.77
433.601	6404.51
433.808	6590.88
434.016	6525.34
434.223	6658.46
434.43	7127.44
434.637	6934.93
434.844	7180.69
435.052	7571.85
435.259	7436.69
435.466	7661.96
435.673	7360.91
435.88	7795.08
436.087	8294.79
436.294	8384.9
436.501	8235.39
436.708	8245.63
436.915	8606.08
437.122	8964.47
437.329	9175.41
437.537	9245.04
437.743	9376.11
437.95	9531.76
438.157	9929.06
438.364	10103.14
438.571	10146.15
438.778	10217.83
438.985	11325.78
439.192	10643.81
439.399	11002.2
439.606	10699.1
439.813	11557.2
440.02	12101.96
440.227	11848.01
440.433	11946.31
440.64	12120.39
440.847	12001.61
441.054	12482.88
441.261	13394.23
441.467	13115.7
441.674	13455.67
441.881	13748.53
442.088	13723.95
442.294	13680.94
442.501	14154.02
442.708	14346.53
442.914	14731.55
443.121	15421.72
443.328	15309.08
443.534	16038.16
443.741	15735.06
443.948	15464.72
444.154	16668.93
444.361	16691.46
444.568	16728.32
444.774	16924.93
444.981	17154.3
445.187	17365.24
445.394	18245.87
445.6	17912.05
445.807	19683.54
446.013	18563.3
446.22	19316.95
446.426	20259.02
446.633	20017.36
446.839	20908.22
447.046	20117.71
447.252	20992.19
447.459	20854.98
447.665	21158.08
447.871	22231.21
448.078	23052.45
448.284	21813.43
448.491	22544.55
448.697	23292.06
448.903	23785.62
449.11	23822.48
449.316	23552.15
449.522	23963.79
449.728	24338.57
449.935	24889.48
450.141	24543.37
450.347	25467
450.553	24461.45
450.76	25061.51
450.966	25399.42
451.172	25307.26
451.378	25845.88
451.584	25374.84
451.791	26183.79
451.997	25858.17
452.203	26488.94
452.409	26478.7
452.615	25985.14
452.821	25153.66
453.027	24987.78
453.233	26579.05
453.44	25567.35
453.646	25712.76
453.852	25542.78
454.058	26151.02
454.264	25335.93
454.47	25784.44
454.676	24987.78
454.882	26249.33
455.088	24080.53
455.294	23875.73
455.5	24703.11
455.705	24666.25
455.911	23826.58
456.117	23376.03
456.323	22833.32
456.529	21608.63
456.735	22462.63
456.941	22311.08
457.147	21704.88
457.352	20906.18
457.558	20623.56
457.764	20668.61
457.97	20308.17
458.176	19661.01
458.381	20115.66
458.587	19009.76
458.793	19054.81
458.999	18039.02
459.204	19282.14
459.41	18792.67
459.616	17381.62
459.821	17760.5
460.027	17443.06
460.233	17035.52
460.438	16204.04
460.644	16447.75
460.85	15608.08
461.055	15452.44
461.261	15239.45
461.466	14086.44
461.672	13879.6
461.878	14573.86
462.083	13963.56
462.289	13578.54
462.494	13560.11
462.7	12736.83
462.905	12659.01
463.111	12790.08
463.316	12849.47
463.522	12558.66
463.727	12831.04
463.932	12775.74
464.138	12470.59
464.343	12613.95
464.549	12241.22
464.754	12380.48
464.959	12593.47
465.165	12556.61
465.37	11790.67
465.575	11571.54
465.781	12265.8
465.986	12032.33
466.191	11698.51
466.397	11422.03
466.602	10625.37
466.807	11460.95
467.012	11444.56
467.218	11149.65
467.423	11034.97
467.628	11217.24
467.833	11514.19
468.038	11282.77
468.244	10860.89
468.449	11424.08
468.654	10971.48
468.859	10680.67
469.064	10774.88
469.269	10383.71
469.474	10445.15
469.679	10719.58
469.885	10234.21
470.09	10643.81
470.295	10408.29
470.5	10170.72
470.705	10250.6
470.91	10166.63
471.115	9834.86
471.32	10154.34
471.525	10041.7
471.73	9922.92
471.935	9562.48
472.139	9443.7
472.344	9537.9
472.549	9406.83
472.754	9337.2
472.959	9109.88
473.164	8896.89
473.369	8880.5
473.574	9306.48
473.778	9079.16
473.983	8921.46
474.188	8919.42
474.393	8520.06
474.598	8739.19
474.802	8515.97
475.007	8323.46
475.212	8249.73
475.417	8001.93
475.621	8212.87
475.826	8163.72
476.031	7969.16
476.235	7827.85
476.44	7948.68
476.645	7801.22
476.849	7741.83
477.054	7819.66
477.259	7469.45
477.463	7530.89
477.668	7408.01
477.872	7479.69
478.077	7281.04
478.282	7199.12
478.486	7227.79
478.691	7215.51
478.895	7061.91
479.1	7119.25
479.304	7121.3
479.509	6857.11
479.713	6973.85
479.918	6916.5
480.122	6416.8
480.326	6834.58
480.531	6859.16
480.735	6650.27
480.94	6748.57
481.144	6732.19
481.348	6678.94
481.553	6648.22
481.757	6568.35
481.961	6623.64
482.166	6619.55
482.37	6562.2
482.574	6592.92
482.778	6601.12
482.983	6726.04
483.187	6750.62
483.391	6582.68
483.595	6502.81
483.8	6390.17
484.004	6463.9
484.208	6574.49
484.412	6541.72
484.616	6640.03
484.821	6543.77
485.025	6568.35
485.229	6533.53
485.433	6424.99
485.637	6494.62
485.841	6472.09
486.045	6586.78
486.249	6408.61
486.453	6519.2
486.657	6556.06
486.861	6621.59
487.065	6285.73
487.269	6535.58
487.473	6576.54
487.677	6644.12
487.881	6672.79
488.085	6502.81
488.289	6603.16
488.493	6531.48
488.697	6736.28
488.901	6451.61
489.105	6547.87
489.309	6498.72
489.512	6515.1
489.716	6740.38
489.92	6584.73
490.124	6666.65
490.328	6824.34
490.531	6465.95
490.735	6734.23
490.939	6654.36
491.143	6818.2
491.346	6558.11
491.55	6883.73
491.754	6783.38
491.958	6941.08
492.161	6803.86
492.365	6908.31
492.569	6848.92
492.772	6941.08
492.976	6943.13
493.18	7051.67
493.383	7188.88
493.587	6998.42
493.79	7186.83
493.994	7182.74
494.197	7135.64
494.401	7182.74
494.605	7278.99
494.808	7387.54
495.012	7455.12
495.215	7496.08
495.419	7586.19
495.622	7635.34
495.825	7471.5
496.029	7655.82
496.232	7797.13
496.436	7895.43
496.639	7938.44
496.843	7840.14
497.046	8020.36
497.249	8122.76
497.453	8130.95
497.656	8329.6
497.859	8311.17
498.063	8432
498.266	8739.19
498.469	8860.02
498.673	8513.92
498.876	8683.9
499.079	8851.83
499.282	8919.42
499.485	9314.67
499.689	9159.03
499.892	9220.47
500.095	9163.12
500.298	9445.74
500.501	9398.64
500.705	9812.33
500.908	9814.38
501.111	10076.52
501.314	10064.23
501.517	10146.15
501.72	10211.68
501.923	10238.31
502.126	10473.82
502.329	10637.66
502.532	10785.12
502.735	10731.87
502.938	10897.75
503.141	11073.88
503.344	11225.43
503.547	11198.81
503.75	11524.43
503.953	11462.99
504.156	11565.39
504.359	11843.92
504.562	11899.21
504.765	12196.17
504.968	12206.41
505.17	12546.37
505.373	12472.64
505.576	12794.17
505.779	12855.61
505.982	12755.26
506.185	12947.77
506.387	13306.16
506.59	13517.11
506.793	13646.13
506.996	13666.61
507.198	14084.39
507.401	13834.54
507.604	14305.57
507.807	14321.96
508.009	14502.18
508.212	14518.56
508.415	15038.75
508.617	15167.77
508.82	15380.76
509.022	15016.22
509.225	15419.67
509.428	15733.01
509.63	15798.54
509.833	15874.32
510.035	16154.89
510.238	16259.34
510.44	16533.76
510.643	16781.57
510.845	16953.6
511.048	16765.18
511.25	17291.51
511.453	17197.31
511.655	17828.08
511.858	17551.6
512.06	17850.61
512.262	18225.39
512.465	18022.64
512.667	18553.06
512.87	18518.25
513.072	18837.73
513.274	19339.48
513.477	19423.45
513.679	19652.82
513.881	19757.27
514.084	19943.63
514.286	20019.41
514.488	20429
514.69	20758.72
514.893	20904.13
515.095	20859.07
515.297	21264.57
515.499	21336.25
515.701	21786.8
515.904	21883.06
516.106	22116.53
516.308	22163.63
516.51	22634.66
516.712	22706.34
516.914	23068.83
517.116	23257.25
517.318	23785.62
517.52	23959.7
517.722	23605.4
517.925	24150.16
518.127	24686.73
518.329	24711.3
518.531	24621.19
518.733	25157.76
518.935	25057.41
519.136	25516.15
519.338	26011.76
519.54	25843.83
519.742	26321.01
519.944	26433.64
520.146	26873.96
520.348	26988.64
520.55	27275.36
520.752	27459.68
520.954	27682.91
521.155	27877.46
521.357	28287.06
521.559	28512.33
521.761	28846.15
521.963	29282.37
522.164	29450.3
522.366	29423.68
522.568	29892.66
522.77	29845.56
522.971	30232.63
523.173	30052.41
523.375	30666.8
523.576	30652.46
523.778	30871.59
523.98	30994.47
524.181	31467.55
524.383	31426.59
524.584	31637.53
524.786	32213.01
524.988	31852.57
525.189	32354.32
525.391	32794.64
525.592	32925.71
525.794	33060.87
525.995	32981
526.197	33196.04
526.398	33480.71
526.6	33832.96
526.801	33734.65
527.003	34269.17
527.204	33837.05
527.406	34611.18
527.607	34340.85
527.808	34619.38
528.01	34105.34
528.211	34627.57
528.412	35071.98
528.614	35358.69
528.815	34813.93
529.016	35739.61
529.218	34879.47
529.419	35534.82
529.62	35692.51
529.822	35897.31
530.023	35911.64
530.224	35813.34
530.425	36120.54
530.626	35436.52
530.828	36102.11
531.029	36237.27
531.23	36112.34
531.431	36202.46
531.632	36528.08
531.833	36714.45
532.035	36313.05
532.236	36945.87
532.437	37081.03
532.638	36579.28
532.839	37232.58
533.04	37136.33
533.241	36548.56
533.442	37111.75
533.643	36861.9
533.844	37064.65
534.045	37521.35
534.246	36898.76
534.447	37101.51
534.648	37298.12
534.849	37158.86
535.05	37162.95
535.251	37140.43
535.451	37103.56
535.652	37466.05
535.853	37339.08
536.054	37515.2
536.255	37474.24
536.456	37240.78
536.657	38027.2
536.857	37132.23
537.058	37644.23
537.259	37670.85
537.46	37466.05
537.66	37363.65
537.861	37040.07
538.062	37605.31
538.263	37744.58
538.463	37441.48
538.664	37308.36
538.865	37408.71
539.065	37973.95
539.266	37312.45
539.466	37861.31
539.667	37396.42
539.868	38033.34
540.068	37128.14
540.269	37291.97
540.469	37789.63
540.67	37476.29
540.87	37384.13
541.071	37750.72
541.271	37640.13
541.472	37482.44
541.672	37308.36
541.873	37384.13
542.073	37496.77
542.274	37937.09
542.474	37388.23
542.675	37224.39
542.875	37822.4
543.075	37564.35
543.276	37306.31
543.476	37482.44
543.676	37320.65
543.877	37949.37
544.077	37765.06
544.277	37271.5
544.478	37373.89
544.678	37765.06
544.878	37609.41
545.078	37212.1
545.279	37326.79
545.479	36962.25
545.679	37382.09
545.879	37713.86
546.079	37371.85
546.28	37326.79
546.48	36988.88
546.68	37349.32
546.88	37767.1
547.08	37251.02
547.28	37433.28
547.48	37320.65
547.68	37375.94
547.88	36876.24
548.081	37304.26
548.281	37615.55
548.481	37212.1
548.681	37691.33
548.881	37582.79
549.081	37310.41
549.28	36964.3
549.48	37705.66
549.68	37316.55
549.88	37769.15
550.08	37257.16
550.28	37017.55
550.48	37160.9
550.68	37480.39
550.88	37253.06
551.08	37349.32
551.279	37361.61
551.479	36861.9
551.679	37429.19
551.879	37025.74
552.079	37064.65
552.278	37341.13
552.478	37275.59
552.678	37160.9
552.878	37421
553.077	37431.24
553.277	36767.69
553.477	37429.19
553.676	36870.09
553.876	37091.27
554.076	37019.6
554.275	36667.34
554.475	36386.77
554.674	37144.52
554.874	36966.35
555.074	36620.24
555.273	36720.59
555.473	37205.96
555.672	36816.85
555.872	36331.48
556.071	36687.82
556.271	36704.21
556.47	36808.65
556.67	36227.03
556.869	36458.45
557.068	36519.89
557.268	36460.5
557.467	36235.22
557.667	36448.21
557.866	36274.13
558.065	36157.4
558.265	35678.18
558.464	35626.98
558.663	36130.78
558.863	35923.93
559.062	36192.22
559.261	35596.26
559.461	36253.65
559.66	35182.57
559.859	35776.48
560.058	35295.21
560.258	35168.23
560.457	35104.74
560.656	35530.72
560.855	34953.19
561.054	35213.29
561.253	34953.19
561.453	34934.76
561.652	34924.52
561.851	34828.27
562.05	34711.53
562.249	34594.8
562.448	34908.14
562.647	34910.19
562.846	34486.26
563.045	34858.99
563.244	33945.59
563.443	34258.93
563.642	34050.04
563.841	34209.78
564.04	34119.67
564.239	34412.53
564.438	33730.56
564.637	33839.1
564.836	33861.63
565.035	33308.68
565.234	33628.16
565.432	33116.17
565.631	33394.69
565.83	32997.38
566.029	33097.73
566.228	33126.41
566.427	33060.87
566.625	32837.64
566.824	32415.76
567.023	32872.46
567.222	32385.04
567.42	32811.02
567.619	32540.69
567.818	32344.08
568.016	32372.75
568.215	32501.78
568.414	31744.03
568.612	32442.38
568.811	31723.55
569.01	31719.45
569.208	31211.56
569.407	31637.53
569.605	31213.6
569.804	31754.27
570.002	31105.06
570.201	31129.64
570.4	30842.92
570.598	30810.15
570.797	30709.8
570.995	30636.08
571.193	30294.07
571.392	30744.62
571.59	30234.67
571.789	30531.63
571.987	30079.03
572.186	29921.34
572.384	29661.24
572.582	30103.6
572.781	29935.67
572.979	29413.44
573.177	29661.24
573.376	29724.73
573.574	29323.33
573.772	29288.51
573.971	29059.14
574.169	29077.57
574.367	28751.95
574.565	28936.26
574.763	28848.2
574.962	28543.05
575.16	28229.71
575.358	28530.76
575.556	28289.1
575.754	28450.89
575.952	28178.51
576.151	28235.86
576.349	27924.57
576.547	27506.78
576.745	28000.34
576.943	28018.77
577.141	27672.67
577.339	27600.99
577.537	27529.31
577.735	27459.68
577.933	27129.95
578.131	27054.18
578.329	27031.65
578.527	26759.27
578.725	26869.86
578.923	27043.94
579.121	26583.15
579.319	26617.96
579.516	26779.75
579.714	26611.82
579.912	26407.02
580.11	26550.38
580.308	26443.88
580.506	26263.66
580.704	25770.1
580.901	26024.05
581.099	26105.97
581.297	25475.2
581.495	25763.96
581.692	25854.07
581.89	25452.67
582.088	25653.37
582.285	25561.21
582.483	25600.12
582.681	25389.18
582.878	25337.98
583.076	25122.94
583.274	25362.56
583.471	24918.15
583.669	25129.09
583.866	24658.06
584.064	24758.41
584.262	24408.2
584.459	24664.2
584.657	24651.91
584.854	24733.83
585.052	24023.19
585.249	24219.79
585.447	24580.23
585.644	24332.43
585.841	23967.89
586.039	24397.96
586.236	24014.99
586.434	23824.53
586.631	24023.19
586.828	23683.22
587.026	23720.09
587.223	23496.86
587.42	23455.9
587.618	23638.17
587.815	23029.92
588.012	23093.41
588.21	23087.26
588.407	23437.47
588.604	23142.56
588.801	23017.63
588.999	22943.91
589.196	22921.38
589.393	22767.78
589.59	22669.48
589.787	22601.9
589.984	22528.17
590.182	22137.01
590.379	22401.19
590.576	22458.54
590.773	22290.6
590.97	22116.53
591.167	22360.23
591.364	21850.29
591.561	21854.39
591.758	21428.41
591.955	21885.11
592.152	21735.6
592.349	21592.25
592.546	21784.76
592.743	21366.97
592.94	21268.67
593.137	21471.42
593.334	21555.38
593.531	20990.14
593.727	21047.49
593.924	21088.45
594.121	21151.93
594.318	21149.89
594.515	20641.99
594.712	21090.49
594.908	21002.43
595.105	20773.06
595.302	20664.52
595.499	20801.73
595.696	20402.38
595.892	20269.26
596.089	20625.61
596.286	20689.09
596.482	20345.03
596.679	20426.95
596.876	20142.28
597.072	20273.35
597.269	20025.55
597.466	19830.99
597.662	19820.75
597.859	19888.34
598.055	19951.82
598.252	19699.92
598.448	19783.89
598.645	19845.33
598.841	19482.84
599.038	19585.24
599.234	19615.96
599.431	19452.12
599.627	19298.52
599.824	19394.78
600.02	19210.46
600.217	19472.6
600.413	19077.34
600.609	18968.8
600.806	19024.09
601.002	19163.36
601.198	18809.06
601.395	18690.27
601.591	18718.95
601.787	18796.77
601.984	18604.26
602.18	18725.09
602.376	18393.32
602.572	18362.6
602.769	18352.36
602.965	18186.47
603.161	18227.43
603.357	18178.28
603.553	18383.08
603.75	18106.6
603.946	17920.24
604.142	18190.57
604.338	17664.24
604.534	18055.4
604.73	17692.91
604.926	17846.51
605.122	17506.55
605.318	17555.7
605.514	17363.19
605.71	17498.36
605.906	17551.6
606.102	17441.01
606.298	17436.92
606.494	17453.3
606.69	17209.59
606.886	17221.88
607.082	17092.86
607.278	17228.03
607.474	16767.23
607.67	17152.25
607.866	16736.51
608.062	17115.39
608.257	16994.56
608.453	16722.18
608.649	17021.18
608.845	16775.42
609.041	16599.3
609.236	16756.99
609.432	16478.47
609.628	16658.69
609.824	16521.48
610.019	16613.63
610.215	16285.96
610.411	16482.56
610.606	16032.01
610.802	16402.69
610.998	16357.64
611.193	16185.61
611.389	16081.16
611.584	16181.51
611.78	15966.48
611.976	16105.74
612.171	16138.51
612.367	16052.49
612.562	15952.14
612.758	15962.38
612.953	15606.03
613.149	15728.91
613.344	15464.72
613.539	15948.04
613.735	15517.97
613.93	15489.3
614.126	15579.41
614.321	15739.15
614.517	15726.86
614.712	15397.14
614.907	15282.45
615.103	15483.16
615.298	15487.25
615.493	15464.72
615.688	15253.78
615.884	15325.46
616.079	15135
616.274	15251.74
616.47	14999.84
616.665	15157.53
616.86	15120.67
617.055	14915.87
617.25	15085.85
617.445	14909.72
617.641	15083.8
617.836	14819.61
618.031	14711.07
618.226	15110.43
618.421	14702.88
618.616	14659.87
618.811	14418.21
619.006	14620.96
619.201	14410.02
619.396	14336.29
619.591	14147.88
619.786	14448.93
619.981	14180.65
620.176	14248.23
620.371	14072.11
620.566	14317.86
620.761	14049.58
620.956	14111.02
621.151	13855.02
621.346	13912.36
621.541	13635.89
621.735	13988.14
621.93	13732.14
622.125	13644.08
622.32	13390.13
622.515	13445.43
622.709	13173.05
622.904	13396.28
623.099	13021.5
623.294	13490.48
623.488	13150.52
623.683	13058.36
623.878	12882.24
624.072	13050.17
624.267	12927.29
624.462	12722.49
624.656	12593.47
624.851	12749.12
625.046	12622.14
625.24	12501.31
625.435	12329.28
625.629	12339.52
625.824	12149.06
626.018	12321.09
626.213	12042.57
626.407	11956.55
626.602	11899.21
626.796	11981.13
626.991	11950.41
627.185	11622.73
627.38	11741.52
627.574	11555.15
627.768	11491.66
627.963	11442.51
628.157	11301.2
628.352	11426.13
628.546	11241.81
628.74	11571.54
628.935	11047.26
629.129	11278.68
629.323	11272.53
629.517	11250
629.712	11063.64
629.906	11059.54
630.1	10735.96
630.294	10930.52
630.489	10705.24
630.683	10735.96
630.877	10518.88
631.071	10660.19
631.265	10637.66
631.459	10697.05
631.653	10545.5
631.848	10432.86
632.042	10416.48
632.236	10174.82
632.43	10170.72
632.624	10279.27
632.818	10058.09
633.012	10076.52
633.206	9949.54
633.4	10187.11
633.594	9836.91
633.788	9886.06
633.982	9951.59
634.176	9795.95
634.369	9775.47
634.563	9660.78
634.757	9769.32
634.951	9642.35
635.145	9556.33
635.339	9359.73
635.533	9406.83
635.726	9308.53
635.92	9290.1
636.114	9193.84
636.308	9161.08
636.501	9181.56
636.695	9290.1
636.889	8884.6
637.083	8917.37
637.276	8853.88
637.47	8763.77
637.664	8931.7
637.857	8735.1
638.051	8542.59
638.244	8804.73
638.438	8487.29
638.632	8456.57
638.825	8579.45
639.019	8683.9
639.212	8409.47
639.406	8497.53
639.599	8364.42
639.793	8300.93
639.986	8112.52
640.18	8372.61
640.373	8130.95
640.567	8130.95
640.76	8040.84
640.954	8094.08
641.147	7891.34
641.34	7936.39
641.534	7823.75
641.727	7840.14
641.92	7772.55
642.114	7756.17
642.307	7698.83
642.5	7768.46
642.694	7403.92
642.887	7479.69
643.08	7641.48
643.273	7551.37
643.467	7534.99
643.66	7037.33
643.853	7233.94
644.046	7336.34
644.239	7358.86
644.432	7432.59
644.626	7233.94
644.819	7061.91
645.012	7070.1
645.205	7192.98
645.398	7123.35
645.591	7014.8
645.784	6934.93
645.977	6990.23
646.17	6914.45
646.363	6670.75
646.556	6816.15
646.749	6590.88
646.942	6656.41
647.135	6646.17
647.328	6640.03
647.521	6689.18
647.714	6511
647.907	6599.07
648.099	6439.33
648.292	6558.11
648.485	6347.17
648.678	6373.79
648.871	6332.83
649.064	6449.57
649.256	6265.25
649.449	6105.51
649.642	6332.83
649.835	6115.75
650.027	6201.76
650.22	6207.91
650.413	6044.07
650.605	6144.42
650.798	5958.05
650.991	5908.9
651.183	5927.33
651.376	5925.29
651.568	5962.15
651.761	5888.42
651.954	5736.87
652.146	5798.31
652.339	5718.44
652.531	5849.51
652.724	5548.46
652.916	5552.56
653.109	5611.95
653.301	5570.99
653.494	5556.65
653.686	5581.23
653.879	5521.84
654.071	5605.8
654.263	5538.22
654.456	5470.64
654.648	5435.82
654.84	5294.51
655.033	5505.45
655.225	5292.46
655.417	5312.94
655.61	5386.67
655.802	5415.34
655.994	5265.84
656.186	5296.56
656.379	5220.78
656.571	5216.69
656.763	5044.66
656.955	5153.2
657.148	5102
657.34	5058.99
657.532	4911.54
657.724	5030.32
657.916	4889.01
658.108	4975.03
658.3	4792.76
658.492	4843.96
658.684	4811.19
658.876	4891.06
659.068	4911.54
659.26	4714.94
659.452	4837.81
659.644	4794.81
659.836	4852.15
660.028	4647.35
660.22	4807.09
660.412	4708.79
660.604	4477.37
660.796	4633.02
660.988	4635.07
661.18	4471.23
661.372	4575.67
661.563	4473.28
661.755	4526.52
661.947	4420.03
662.139	4510.14
662.331	4389.31
662.522	4225.47
662.714	4385.21
662.906	4413.88
663.097	4323.77
663.289	4307.39
663.481	4288.96
663.673	4424.12
663.864	4147.65
664.056	4227.52
664.247	4178.37
664.439	4080.07
664.631	4344.25
664.822	4248
665.014	4151.74
665.205	4194.75
665.397	4213.18
665.588	4233.66
665.78	4209.09
665.971	4129.22
666.163	4127.17
666.354	4004.29
666.546	4045.25
666.737	4028.87
666.929	4061.63
667.12	4090.31
667.311	3963.33
667.503	4035.01
667.694	4000.19
667.885	3926.47
668.077	3940.8
668.268	3815.88
668.459	3754.44
668.651	3905.99
668.842	3762.63
669.033	3987.91
669.224	3922.37
669.416	3850.69
669.607	3891.65
669.798	3752.39
669.989	3951.04
670.18	3695.05
670.371	3713.48
670.563	3783.11
670.754	3750.34
670.945	3725.77
671.136	3744.2
671.327	3832.26
671.518	3697.1
671.709	3873.22
671.9	3903.94
672.091	3785.16
672.282	3711.43
672.473	3703.24
672.664	3822.02
672.855	3705.29
673.046	3684.81
673.237	3834.31
673.428	3764.68
673.619	3688.9
673.809	3740.1
674	3649.99
674.191	3701.19
674.382	3695.05
674.573	3498.44
674.764	3727.82
674.954	3629.51
675.145	3508.68
675.336	3557.83
675.527	3664.33
675.717	3627.46
675.908	3654.09
676.099	3813.83
676.289	3686.86
676.48	3690.95
676.671	3678.66
676.861	3590.6
677.052	3467.72
677.243	3582.41
677.433	3674.57
677.624	3602.89
677.814	3568.07
678.005	3619.27
678.195	3604.94
678.386	3537.35
678.576	3549.64
678.767	3525.07
678.957	3514.83
679.148	3508.68
679.338	3647.94
679.529	3566.03
679.719	3678.66
679.909	3701.19
680.1	3547.59
680.29	3619.27
680.481	3693
680.671	3602.89
680.861	3582.41
681.052	3643.85
681.242	3680.71
681.432	3590.6
681.622	3633.61
681.813	3508.68
682.003	3615.18
682.193	3580.36
682.383	3721.67
682.573	3641.8
682.764	3678.66
682.954	3494.35
683.144	3645.9
683.334	3578.31
683.524	3649.99
683.714	3717.58
683.904	3711.43
684.094	3719.62
684.284	3525.07
684.474	3645.9
684.664	3688.9
684.854	3666.38
685.044	3586.51
685.234	3543.5
685.424	3563.98
685.614	3529.16
685.804	3566.03
685.994	3658.18
686.184	3633.61
686.374	3688.9
686.564	3615.18
686.753	3506.63
686.943	3457.48
687.133	3520.97
687.323	3496.39
687.513	3539.4
687.702	3502.54
687.892	3539.4
688.082	3344.84
688.272	3394
688.461	3318.22
688.651	3430.86
688.841	3437
689.03	3391.95
689.22	3367.37
689.41	3363.28
689.599	3471.82
689.789	3373.52
689.979	3310.03
690.168	3215.82
690.358	3264.97
690.547	3244.49
690.737	3338.7
690.926	3209.68
691.116	3234.25
691.305	3125.71
691.495	3189.2
691.684	3150.29
691.874	3195.34
692.063	3262.93
692.252	3230.16
692.442	3015.12
692.631	3254.73
692.82	3211.73
693.01	3197.39
693.199	3105.23
693.388	2970.07
693.578	3166.67
693.767	3070.42
693.956	3021.27
694.146	3051.99
694.335	3056.08
694.524	3008.98
694.713	2957.78
694.902	2922.96
695.092	3039.7
695.281	2959.83
695.47	2994.64
695.659	3002.83
695.848	3002.83
696.037	2998.74
696.226	2898.39
696.415	2912.72
696.604	3013.07
696.793	2783.7
696.982	3013.07
697.171	2957.78
697.36	2906.58
697.549	2918.87
697.738	3015.12
697.927	2912.72
698.116	2974.16
698.305	2947.54
698.494	3017.17
698.683	2986.45
698.872	2968.02
699.061	3011.03
699.25	2982.35
699.438	2933.2
699.627	2994.64
699.816	3017.17
700.005	2886.1
700.193	3043.79
700.382	3035.6
700.571	2861.52
700.76	2871.76
700.948	2943.44
701.137	2955.73
701.326	2861.52
701.514	2988.5
701.703	2873.81
701.892	2867.67
702.08	2943.44
702.269	3000.79
702.457	3094.99
702.646	3078.61
702.834	2841.04
703.023	2963.92
703.212	3127.76
703.4	3008.98
703.589	2863.57
703.777	3045.84
703.965	2968.02
704.154	2910.68
704.342	2941.4
704.531	2945.49
704.719	2914.77
704.907	3002.83
705.096	2941.4
705.284	3068.37
705.472	2978.26
705.661	3068.37
705.849	3121.62
706.037	3037.65
706.226	2894.29
706.414	3039.7
706.602	2984.4
706.79	3156.43
706.979	2970.07
707.167	2998.74
707.355	3015.12
707.543	3127.76
707.731	3002.83
707.919	3047.89
708.107	3105.23
708.296	2961.87
708.484	3017.17
708.672	3064.27
708.86	3035.6
709.048	3140.05
709.236	3111.38
709.424	3158.48
709.612	3074.51
709.8	3054.03
709.988	3156.43
710.176	3176.91
710.364	3236.3
710.551	3142.1
710.739	3076.56
710.927	3162.58
711.115	3129.81
711.303	3101.14
711.491	3138
711.679	3131.86
711.866	3187.15
712.054	3138
712.242	2976.21
712.43	3160.53
712.617	3074.51
712.805	3289.55
712.993	3140.05
713.181	3119.57
713.368	3082.7
713.556	3178.96
713.744	3324.37
713.931	3316.17
714.119	3195.34
714.306	3185.1
714.494	3236.3
714.682	3162.58
714.869	3156.43
715.057	3217.87
715.244	3283.41
715.432	3205.58
715.619	3215.82
715.807	3211.73
715.994	3242.45
716.182	3148.24
716.369	3262.93
716.556	3326.41
716.744	3183.06
716.931	3264.97
717.119	3269.07
717.306	3385.8
717.493	3320.27
717.681	3338.7
717.868	3246.54
718.055	3297.74
718.242	3430.86
718.43	3332.56
718.617	3359.18
718.804	3385.8
718.991	3383.76
719.179	3367.37
719.366	3439.05
719.553	3377.61
719.74	3350.99
719.927	3387.85
720.114	3332.56
720.301	3441.1
720.488	3232.21
720.676	3301.84
720.863	3344.84
721.05	3410.38
721.237	3465.68
721.424	3332.56
721.611	3420.62
721.798	3267.02
721.985	3332.56
722.172	3396.04
722.358	3371.47
722.545	3471.82
722.732	3408.33
722.919	3514.83
723.106	3494.35
723.293	3437
723.48	3441.1
723.667	3353.04
723.853	3408.33
724.04	3346.89
724.227	3506.63
724.414	3510.73
724.6	3453.39
724.787	3582.41
724.974	3561.93
725.161	3402.19
725.347	3463.63
725.534	3473.87
725.72	3477.96
725.907	3412.43
726.094	3568.07
726.28	3502.54
726.467	3580.36
726.653	3494.35
726.84	3639.75
727.027	3570.12
727.213	3572.17
727.4	3686.86
727.586	3553.74
727.773	3533.26
727.959	3514.83
728.145	3738.05
728.332	3541.45
728.518	3496.39
728.705	3688.9
728.891	3467.72
729.077	3602.89
729.264	3545.55
729.45	3633.61
729.636	3674.57
729.823	3637.7
730.009	3664.33
730.195	3592.65
730.382	3697.1
730.568	3666.38
730.754	3662.28
730.94	3588.55
731.126	3725.77
731.313	3662.28
731.499	3561.93
731.685	3582.41
731.871	3631.56
732.057	3693
732.243	3623.37
732.429	3623.37
732.615	3742.15
732.801	3762.63
732.987	3715.53
733.173	3645.9
733.359	3717.58
733.545	3727.82
733.731	3660.23
733.917	3742.15
734.103	3551.69
734.289	3668.42
734.475	3787.21
734.661	3697.1
734.847	3813.83
735.033	3785.16
735.219	3779.01
735.404	3721.67
735.59	3672.52
735.776	3688.9
735.962	3705.29
736.148	3629.51
736.333	3817.93
736.519	3645.9
736.705	3586.51
736.89	3639.75
737.076	3875.27
737.262	3494.35
737.447	3690.95
737.633	3617.22
737.819	3701.19
738.004	3574.22
738.19	3693
738.375	3637.7
738.561	3758.53
738.747	3592.65
738.932	3588.55
739.118	3729.86
739.303	3645.9
739.489	3566.03
739.674	3668.42
739.859	3549.64
740.045	3635.66
740.23	3662.28
740.416	3559.88
740.601	3639.75
740.786	3578.31
740.972	3523.02
741.157	3631.56
741.342	3531.21
741.528	3555.79
741.713	3441.1
741.898	3635.66
742.084	3707.34
742.269	3469.77
742.454	3455.44
742.639	3523.02
742.824	3547.59
743.01	3586.51
743.195	3457.48
743.38	3414.48
743.565	3529.16
743.75	3557.83
743.935	3400.14
744.12	3500.49
744.305	3328.46
744.49	3396.04
744.675	3469.77
744.86	3234.25
745.045	3441.1
745.23	3373.52
745.415	3332.56
745.6	3506.63
745.785	3340.75
745.97	3336.65
746.155	3248.59
746.34	3234.25
746.525	3273.17
746.71	3353.04
746.895	3281.36
747.079	3115.47
747.264	3156.43
747.449	3228.11
747.634	3205.58
747.819	3054.03
748.003	3045.84
748.188	3078.61
748.373	3230.16
748.557	2992.59
748.742	3049.94
748.927	3049.94
749.111	2988.5
749.296	2978.26
749.481	2929.11
749.665	2941.4
749.85	2996.69
750.034	2877.91
750.219	2826.71
750.404	2976.21
750.588	2871.76
750.773	2750.93
750.957	2982.35
751.141	2859.48
751.326	2826.71
751.51	2769.37
751.695	2730.45
751.879	2791.89
752.064	2818.52
752.248	2841.04
752.432	2843.09
752.617	2709.97
752.801	2673.11
752.985	2640.34
753.17	2580.95
753.354	2695.64
753.538	2599.38
753.722	2515.42
753.907	2519.51
754.091	2617.82
754.275	2474.46
754.459	2433.5
754.643	2417.12
754.828	2554.33
755.012	2451.93
755.196	2376.16
755.38	2365.92
755.564	2324.96
755.748	2396.64
755.932	2408.92
756.116	2341.34
756.3	2335.2
756.484	2320.86
756.668	2324.96
756.852	2243.04
757.036	2300.38
757.22	2181.6
757.404	2281.95
757.588	2234.85
757.772	2261.47
757.956	2349.53
758.14	2310.62
758.323	2130.4
758.507	2071.01
758.691	2157.02
758.875	2144.74
759.059	2183.65
759.242	2032.1
759.426	2179.55
759.61	2093.54
759.794	2034.14
759.977	2109.92
760.161	2159.07
760.345	1966.56
760.528	1997.28
760.712	1937.89
760.895	1950.18
761.079	2009.57
761.263	2001.38
761.446	1937.89
761.63	1946.08
761.813	2001.38
761.997	1894.88
762.18	1868.26
762.364	1817.06
762.547	1835.49
762.731	1851.88
762.914	1901.03
763.098	1827.3
763.281	1835.49
763.464	1831.4
763.648	1788.39
763.831	1815.01
764.015	1747.43
764.198	1858.02
764.381	1784.29
764.564	1769.96
764.748	1716.71
764.931	1872.36
765.114	1726.95
765.297	1772
765.481	1759.72
765.664	1874.4
765.847	1794.53
766.03	1749.48
766.213	1706.47
766.397	1743.33
766.58	1661.41
766.763	1726.95
766.946	1655.27
767.129	1616.36
767.312	1606.12
767.495	1589.74
767.678	1540.58
767.861	1661.41
768.044	1663.46
768.227	1597.93
768.41	1534.44
768.593	1731.05
768.776	1579.5
768.959	1622.5
769.142	1665.51
769.324	1505.77
769.507	1524.2
769.69	1663.46
769.873	1485.29
770.056	1491.43
770.239	1440.23
770.421	1546.73
770.604	1460.71
770.787	1501.67
770.97	1513.96
771.152	1470.95
771.335	1468.91
771.518	1446.38
771.7	1434.09
771.883	1483.24
772.066	1438.19
772.248	1380.84
772.431	1505.77
772.613	1372.65
772.796	1372.65
772.978	1405.42
773.161	1448.43
773.343	1358.32
773.526	1448.43
773.708	1384.94
773.891	1331.69
774.073	1434.09
774.256	1343.98
774.438	1460.71
774.621	1278.44
774.803	1360.36
774.985	1307.12
775.168	1298.92
775.35	1294.83
775.532	1249.77
775.715	1262.06
775.897	1235.44
776.079	1212.91
776.261	1165.81
776.444	1292.78
776.626	1208.81
776.808	1143.28
776.99	1196.53
777.173	1171.95
777.355	1147.37
777.537	1151.47
777.719	1104.37
777.901	1116.65
778.083	1122.8
778.265	1106.42
778.447	1151.47
778.629	1063.41
778.811	1053.17
778.993	1012.21
779.175	1094.13
779.357	1051.12
779.539	969.2
779.721	1016.3
779.903	1010.16
780.085	1036.78
780.267	1028.59
780.449	977.39
780.631	977.39
780.812	993.78
780.994	999.92
781.176	1004.02
781.358	995.82
781.54	932.34
781.721	938.48
781.903	850.42
782.085	977.39
782.267	915.95
782.448	899.57
782.63	854.51
782.812	993.78
782.993	891.38
783.175	940.53
783.357	926.19
783.538	907.76
783.72	764.4
783.901	879.09
784.083	860.66
784.264	819.7
784.446	805.36
784.627	809.46
784.809	821.75
784.99	770.55
785.172	846.32
785.353	692.73
785.535	668.15
785.716	721.4
785.897	725.49
786.079	831.99
786.26	889.33
786.441	739.83
786.623	678.39
786.804	750.07
786.985	680.44
787.167	737.78
787.348	674.29
787.529	754.16
787.71	774.64
787.891	813.56
788.073	707.06
788.254	690.68
788.435	698.87
788.616	633.33
788.797	608.76
788.978	637.43
789.159	678.39
789.34	633.33
789.522	553.46
789.703	567.8
789.884	680.44
790.065	588.28
790.246	657.91
790.427	580.09
790.607	702.97
790.788	596.47
790.969	610.81
791.15	567.8
791.331	541.18
791.512	594.42
791.693	573.94
791.874	543.22
792.054	754.16
792.235	633.33
792.416	494.07
792.597	532.98
792.778	522.74
792.958	575.99
793.139	545.27
793.32	571.9
793.5	489.98
793.681	551.42
793.862	586.23
794.042	500.22
794.223	506.36
794.404	512.5
794.584	549.37
794.765	471.54
794.945	487.93
795.126	598.52
795.306	500.22
795.487	561.66
795.667	485.88
795.848	457.21
796.028	555.51
796.209	518.65
796.389	498.17
796.57	395.77
796.75	401.91
796.93	477.69
797.111	434.68
797.291	459.26
797.471	455.16
797.652	422.39
797.832	553.46
798.012	453.11
798.192	455.16
798.373	360.95
798.553	410.11
798.733	426.49
798.913	473.59
799.093	424.44
799.274	414.2
799.454	465.4
799.634	391.67
799.814	422.39
799.994	430.59
800.174	399.87
800.354	420.35
800.534	451.07
800.714	367.1
800.894	434.68
801.074	360.95
801.254	426.49
801.434	449.02
801.614	367.1
801.794	369.15
801.974	1092.08
802.154	346.62
802.334	338.43
802.514	446.97
802.693	295.42
802.873	408.06
803.053	416.25
803.233	408.06
803.413	395.77
803.592	268.8
803.772	332.28
803.952	309.76
804.131	317.95
804.311	350.71
804.491	348.67
804.67	354.81
804.85	367.1
805.03	424.44
805.209	334.33
805.389	299.52
805.568	344.57
805.748	358.91
805.928	377.34
806.107	342.52
806.287	360.95
806.466	338.43
806.646	324.09
806.825	297.47
807.004	250.36
807.184	287.23
807.363	397.82
807.543	242.17
807.722	315.9
807.901	313.85
808.081	340.47
808.26	289.28
808.439	289.28
808.619	297.47
808.798	307.71
808.977	330.23
809.156	276.99
809.336	244.22
809.515	358.91
809.694	258.56
809.873	328.19
810.052	293.37
810.231	311.8
810.411	338.43
810.59	342.52
810.769	276.99
810.948	293.37
811.127	264.7
811.306	221.69
811.485	231.93
811.664	348.67
811.843	270.84
812.022	283.13
812.201	268.8
812.38	266.75
812.559	279.04
812.737	289.28
812.916	295.42
813.095	160.25
813.274	219.64
813.453	299.52
813.632	260.6
813.811	260.6
813.989	276.99
814.168	238.08
814.347	211.45
814.526	207.36
814.704	264.7
814.883	246.27
815.062	238.08
815.24	307.71
815.419	229.88
815.598	256.51
815.776	164.35
815.955	156.16
816.133	125.44
816.312	209.4
816.49	313.85
816.669	178.69
816.847	285.18
817.026	215.55
817.204	236.03
817.383	264.7
817.561	180.73
817.74	238.08
817.918	195.07
818.097	252.41
818.275	236.03
818.453	270.84
818.632	213.5
818.81	246.27
818.988	201.21
819.167	145.92
819.345	166.4
819.523	246.27
819.701	238.08
819.879	297.47
820.058	170.49
820.236	252.41
820.414	295.42
820.592	190.97
820.77	188.93
820.948	203.26
821.127	240.12
821.305	162.3
821.483	203.26
821.661	156.16
821.839	147.97
822.017	127.49
822.195	107.01
822.373	86.53
822.551	180.73
822.729	188.93
822.907	238.08
823.085	176.64
823.262	172.54
823.44	199.16
823.618	176.64
823.796	211.45
823.974	109.05
824.152	154.11
824.329	176.64
824.507	199.16
824.685	119.29
824.863	117.25
825.04	188.93
825.218	219.64
825.396	152.06
825.574	74.24
825.751	123.39
825.929	152.06
826.107	80.38
826.284	117.25
826.462	168.45
826.639	137.73
826.817	113.15
826.994	131.58
827.172	111.1
827.349	229.88
827.527	125.44
827.704	203.26
827.882	178.69
828.059	199.16
828.237	170.49
828.414	129.53
828.591	88.57
828.769	121.34
828.946	125.44
829.124	141.82
829.301	137.73
829.478	172.54
829.655	180.73
829.833	111.1
830.01	61.95
830.187	150.01
830.364	135.68
830.542	135.68
830.719	215.55
830.896	135.68
831.073	90.62
831.25	162.3
831.427	131.58
831.604	145.92
831.782	125.44
831.959	207.36
832.136	111.1
832.313	78.33
832.49	164.35
832.667	107.01
832.844	111.1
833.021	111.1
833.198	109.05
833.374	64
833.551	80.38
833.728	117.25
833.905	78.33
834.082	53.76
834.259	78.33
834.436	166.4
834.612	53.76
834.789	115.2
834.966	55.81
835.143	205.31
835.319	109.05
835.496	127.49
835.673	143.87
835.85	82.43
836.026	160.25
836.203	172.54
836.38	154.11
836.556	137.73
836.733	100.86
836.909	160.25
837.086	43.52
837.262	25.09
837.439	104.96
837.616	92.67
837.792	84.48
837.968	90.62
838.145	35.33
838.321	37.38
838.498	90.62
838.674	82.43
838.851	88.57
839.027	125.44
839.203	150.01
839.38	90.62
839.556	164.35
839.732	152.06
839.909	98.81
840.085	96.77
840.261	88.57
840.437	100.86
840.614	37.38
840.79	145.92
840.966	131.58
841.142	59.9
841.318	59.9
841.494	115.2
841.671	139.77
841.847	156.16
842.023	68.09
842.199	121.34
842.375	82.43
842.551	43.52
842.727	102.91
842.903	104.96
843.079	8.7
843.255	88.57
843.431	33.28
843.607	117.25
843.783	-5.63
843.959	43.52
844.134	53.76
844.31	55.81
844.486	18.94
844.662	37.38
844.838	76.29
845.013	82.43
845.189	115.2
845.365	27.14
845.541	-13.82
845.716	150.01
845.892	41.47
846.068	82.43
846.244	51.71
846.419	100.86
846.595	35.33
846.77	16.9
846.946	49.66
847.122	102.91
847.297	16.9
847.473	137.73
847.648	100.86
847.824	57.86
847.999	59.9
848.175	88.57
848.35	94.72
848.526	53.76
848.701	88.57
848.876	59.9
849.052	57.86
849.227	27.14
849.403	68.09
849.578	-17.92
849.753	51.71
849.929	86.53
850.104	109.05
850.279	41.47
850.454	72.19
850.63	66.05
850.805	76.29
850.98	43.52
851.155	33.28
851.33	55.81
851.505	39.42
851.681	66.05
851.856	8.7
852.031	92.67
852.206	47.62
852.381	51.71
852.556	84.48
852.731	45.57
852.906	92.67
853.081	109.05
853.256	125.44
853.431	94.72
853.606	12.8
853.781	78.33
853.956	25.09
854.131	109.05
854.305	-3.58
854.48	139.77
854.655	41.47
854.83	57.86
855.005	-32.26
855.18	59.9
855.354	20.99
855.529	78.33
855.704	-7.68
855.879	45.57
856.053	20.99
856.228	-11.78
856.403	33.28
856.577	-5.63
856.752	-1.54
856.926	27.14
857.101	18.94
857.276	-7.68
857.45	0.51
857.625	37.38
857.799	104.96
857.974	143.87
858.148	-17.92
858.323	102.91
858.497	14.85
858.672	10.75
858.846	31.23
859.02	98.81
859.195	23.04
859.369	39.42
859.543	59.9
859.718	88.57
859.892	92.67
860.066	29.18
860.241	2.56
860.415	47.62
860.589	2.56
860.763	78.33
860.938	59.9
861.112	33.28
861.286	-1.54
861.46	29.18
861.634	-5.63
861.808	20.99
861.982	61.95
862.157	0.51
862.331	55.81
862.505	-3.58
862.679	-38.4
862.853	-30.21
863.027	-52.74
863.201	88.57
863.375	-1.54
863.549	29.18
863.722	90.62
863.896	100.86
864.07	-3.58
864.244	55.81
864.418	59.9
864.592	25.09
864.766	27.14
864.939	0.51
865.113	-5.63
865.287	4.61
865.461	10.75
865.634	18.94
865.808	0.51
865.982	57.86
866.156	2.56
866.329	-26.11
866.503	23.04
866.676	51.71
866.85	45.57
867.024	6.66
867.197	-5.63
867.371	-9.73
867.544	43.52
867.718	0.51
867.891	43.52
868.065	27.14
868.238	41.47
868.412	66.05
868.585	51.71
868.759	43.52
868.932	49.66
869.105	-1.54
869.279	-13.82
869.452	39.42
869.625	2.56
869.799	16.9
869.972	10.75
870.145	55.81
870.319	12.8
870.492	-15.87
870.665	-13.82
870.838	-1.54
871.011	2.56
871.185	14.85
871.358	27.14
871.531	45.57
871.704	-28.16
871.877	61.95
872.05	57.86
872.223	-1.54
872.396	35.33
872.569	37.38
872.742	31.23
872.915	90.62
873.088	51.71
873.261	-62.98
873.434	10.75
873.607	39.42
873.78	-7.68
873.953	-13.82
874.126	16.9
874.299	2.56
874.471	14.85
874.644	-17.92
874.817	64
874.99	107.01
875.163	-5.63
875.335	37.38
875.508	31.23
875.681	72.19
875.853	-15.87
876.026	14.85
876.199	-32.26
876.371	51.71
876.544	-7.68
876.717	12.8
876.889	6.66
877.062	-1.54
877.234	33.28
877.407	72.19
877.579	-17.92
877.752	27.14
877.924	8.7
878.097	53.76
878.269	23.04
878.442	41.47
878.614	98.81
878.786	70.14
878.959	-5.63
879.131	10.75
879.303	-30.21
879.476	-13.82
879.648	74.24
879.82	10.75
879.993	6.66
880.165	14.85
880.337	84.48
880.509	59.9
880.681	18.94
880.854	53.76
881.026	64
881.198	109.05
881.37	-40.45
881.542	-13.82
881.714	2.56
881.886	-38.4
882.058	49.66
882.23	53.76
882.402	-3.58
882.574	55.81
882.746	31.23
882.918	92.67
883.09	-3.58
883.262	6.66
883.434	-38.4
883.606	23.04
883.778	-3.58
883.95	92.67
884.122	-40.45
884.293	82.43
884.465	4.61
884.637	-17.92
884.809	-42.5
884.98	20.99
885.152	72.19
885.324	-1.54
885.496	-22.02
885.667	25.09
885.839	2.56
886.011	61.95
886.182	41.47
886.354	59.9
886.525	-60.93
886.697	4.61
886.869	-26.11
887.04	80.38
887.212	64
887.383	133.63
887.555	-42.5
887.726	-22.02
887.897	-85.5
888.069	-17.92
888.24	76.29
888.412	-7.68
888.583	33.28
888.754	35.33
888.926	-9.73
889.097	2.56
889.268	-97.79
889.44	-9.73
889.611	-44.54
889.782	-5.63
889.953	-46.59
890.125	31.23
890.296	33.28
890.467	-50.69
890.638	20.99
890.809	16.9
890.98	-79.36
891.151	8.7
891.323	53.76
891.494	16.9
891.665	33.28
891.836	-28.16
892.007	-19.97
892.178	-34.3
892.349	-42.5
892.52	-15.87
892.691	-32.26
892.862	49.66
893.032	33.28
893.203	-28.16
893.374	57.86
893.545	10.75
893.716	-30.21
893.887	20.99
894.057	59.9
894.228	27.14
894.399	-48.64
894.57	0.51
894.74	33.28
894.911	31.23
895.082	-15.87
895.253	-15.87
895.423	-7.68
895.594	12.8
895.764	41.47
895.935	70.14
896.106	10.75
896.276	-22.02
896.447	-52.74
896.617	20.99
896.788	-65.02
896.958	10.75
897.129	-60.93
897.299	70.14
897.47	27.14
897.64	72.19
897.81	16.9
897.981	-34.3
898.151	-69.12
898.322	-19.97
898.492	-62.98
898.662	-73.21
898.832	-24.06
899.003	-48.64
899.173	-7.68
899.343	0.51
899.513	-50.69
