Data from USB4F104151__45__12-23-56-499.txt Node

Date: Fri Mar 14 12:23:56 EDT 2025
User: louis
Spectrometer: USB4F10415
Trigger mode: 4
Integration Time (sec): 3.500000E-2
Scans to average: 1
Electric dark correction enabled: true
Nonlinearity correction enabled: false
Boxcar width: 0
XAxis mode: Wavelengths
Number of Pixels in Spectrum: 3648
>>>>>Begin Spectral Data<<<<<
178.204	-139.09
178.424	-139.09
178.644	-139.09
178.864	-169.81
179.084	-216.91
179.304	-46.93
179.524	28.84
179.744	-20.31
179.964	96.43
180.184	37.03
180.404	8.36
180.624	0.17
180.844	-5.97
181.064	-77.65
181.283	34.99
181.503	-75.6
181.723	20.65
181.943	-18.26
182.163	73.9
182.383	4.27
182.602	159.91
182.822	110.76
183.042	77.99
183.262	8.36
183.482	-8.02
183.701	65.71
183.921	69.8
184.141	-1.88
184.361	77.99
184.58	49.32
184.8	2.22
185.02	37.03
185.239	129.19
185.459	34.99
185.679	34.99
185.898	-10.07
186.118	100.52
186.338	32.94
186.557	59.56
186.777	14.51
186.997	47.27
187.216	45.23
187.436	94.38
187.655	-10.07
187.875	71.85
188.095	-14.17
188.314	12.46
188.534	61.61
188.753	49.32
188.973	96.43
189.192	49.32
189.412	69.8
189.631	55.47
189.851	123.05
190.07	155.82
190.29	6.31
190.509	51.37
190.729	69.8
190.948	84.14
191.168	149.67
191.387	41.13
191.607	41.13
191.826	67.75
192.045	59.56
192.265	22.7
192.484	18.6
192.704	32.94
192.923	20.65
193.142	102.57
193.362	141.48
193.581	30.89
193.8	57.51
194.02	59.56
194.239	47.27
194.458	53.42
194.678	88.23
194.897	6.31
195.116	71.85
195.335	28.84
195.555	67.75
195.774	94.38
195.993	125.1
196.212	65.71
196.432	-26.45
196.651	43.18
196.87	59.56
197.089	125.1
197.308	53.42
197.528	104.62
197.747	-36.69
197.966	43.18
198.185	133.29
198.404	-5.97
198.623	108.71
198.842	88.23
199.062	100.52
199.281	41.13
199.5	16.55
199.719	63.66
199.938	12.46
200.157	88.23
200.376	82.09
200.595	53.42
200.814	28.84
201.033	26.79
201.252	73.9
201.471	59.56
201.69	110.76
201.909	61.61
202.128	8.36
202.347	41.13
202.566	14.51
202.785	14.51
203.004	34.99
203.223	166.06
203.442	49.32
203.661	63.66
203.879	6.31
204.098	100.52
204.317	18.6
204.536	86.19
204.755	77.99
204.974	34.99
205.193	92.33
205.411	108.71
205.63	-48.98
205.849	32.94
206.068	69.8
206.287	67.75
206.505	88.23
206.724	77.99
206.943	110.76
207.162	-18.26
207.381	86.19
207.599	53.42
207.818	71.85
208.037	32.94
208.255	4.27
208.474	20.65
208.693	-10.07
208.911	26.79
209.13	53.42
209.349	86.19
209.567	82.09
209.786	86.19
210.005	32.94
210.223	47.27
210.442	-26.45
210.661	69.8
210.879	32.94
211.098	104.62
211.316	88.23
211.535	53.42
211.753	51.37
211.972	90.28
212.191	77.99
212.409	61.61
212.628	51.37
212.846	-18.26
213.065	86.19
213.283	94.38
213.502	28.84
213.72	43.18
213.938	90.28
214.157	6.31
214.375	39.08
214.594	96.43
214.812	57.51
215.031	67.75
215.249	104.62
215.467	14.51
215.686	30.89
215.904	104.62
216.122	-12.12
216.341	67.75
216.559	77.99
216.778	129.19
216.996	43.18
217.214	8.36
217.432	69.8
217.651	73.9
217.869	45.23
218.087	18.6
218.306	104.62
218.524	6.31
218.742	22.7
218.96	57.51
219.179	63.66
219.397	45.23
219.615	96.43
219.833	151.72
220.051	-22.36
220.27	53.42
220.488	20.65
220.706	90.28
220.924	34.99
221.142	34.99
221.36	30.89
221.578	80.04
221.796	41.13
222.015	108.71
222.233	47.27
222.451	102.57
222.669	28.84
222.887	139.43
223.105	-18.26
223.323	61.61
223.541	34.99
223.759	100.52
223.977	41.13
224.195	69.8
224.413	59.56
224.631	65.71
224.849	34.99
225.067	41.13
225.285	20.65
225.503	6.31
225.721	-3.93
225.939	39.08
226.157	67.75
226.375	57.51
226.592	-18.26
226.81	98.47
227.028	32.94
227.246	96.43
227.464	4.27
227.682	16.55
227.9	34.99
228.117	43.18
228.335	-32.6
228.553	-36.69
228.771	12.46
228.989	12.46
229.206	100.52
229.424	20.65
229.642	41.13
229.86	0.17
230.077	96.43
230.295	57.51
230.513	71.85
230.731	45.23
230.948	28.84
231.166	90.28
231.384	41.13
231.601	43.18
231.819	82.09
232.037	12.46
232.254	18.6
232.472	30.89
232.689	-16.21
232.907	47.27
233.125	98.47
233.342	-38.74
233.56	59.56
233.777	65.71
233.995	59.56
234.213	84.14
234.43	53.42
234.648	112.81
234.865	30.89
235.083	73.9
235.3	39.08
235.518	82.09
235.735	96.43
235.953	123.05
236.17	139.43
236.388	49.32
236.605	8.36
236.822	63.66
237.04	100.52
237.257	55.47
237.475	26.79
237.692	0.17
237.909	63.66
238.127	45.23
238.344	63.66
238.562	30.89
238.779	22.7
238.996	10.41
239.214	-1.88
239.431	57.51
239.648	55.47
239.865	47.27
240.083	65.71
240.3	43.18
240.517	98.47
240.735	26.79
240.952	92.33
241.169	67.75
241.386	55.47
241.603	116.9
241.821	0.17
242.038	131.24
242.255	65.71
242.472	-26.45
242.689	102.57
242.907	121
243.124	100.52
243.341	43.18
243.558	-46.93
243.775	24.75
243.992	77.99
244.209	114.86
244.426	12.46
244.643	92.33
244.86	-10.07
245.078	43.18
245.295	71.85
245.512	39.08
245.729	-1.88
245.946	121
246.163	77.99
246.38	14.51
246.597	34.99
246.814	86.19
247.031	0.17
247.248	45.23
247.464	4.27
247.681	45.23
247.898	98.47
248.115	182.44
248.332	26.79
248.549	55.47
248.766	77.99
248.983	59.56
249.2	114.86
249.417	110.76
249.633	53.42
249.85	47.27
250.067	6.31
250.284	-5.97
250.501	32.94
250.717	14.51
250.934	14.51
251.151	127.14
251.368	102.57
251.585	49.32
251.801	96.43
252.018	12.46
252.235	96.43
252.451	12.46
252.668	90.28
252.885	102.57
253.102	82.09
253.318	6.31
253.535	63.66
253.752	22.7
253.968	141.48
254.185	-30.55
254.401	-20.31
254.618	-14.17
254.835	43.18
255.051	65.71
255.268	51.37
255.484	2.22
255.701	114.86
255.917	86.19
256.134	-26.45
256.351	59.56
256.567	67.75
256.784	94.38
257	26.79
257.217	104.62
257.433	110.76
257.65	114.86
257.866	102.57
258.082	67.75
258.299	47.27
258.515	149.67
258.732	8.36
258.948	34.99
259.165	84.14
259.381	-12.12
259.597	104.62
259.814	108.71
260.03	24.75
260.246	104.62
260.463	2.22
260.679	-8.02
260.895	133.29
261.112	51.37
261.328	-12.12
261.544	71.85
261.761	143.53
261.977	41.13
262.193	39.08
262.409	37.03
262.626	-22.36
262.842	114.86
263.058	90.28
263.274	47.27
263.49	71.85
263.707	26.79
263.923	75.95
264.139	57.51
264.355	88.23
264.571	53.42
264.787	92.33
265.004	65.71
265.22	-46.93
265.436	43.18
265.652	47.27
265.868	86.19
266.084	-77.65
266.3	90.28
266.516	14.51
266.732	71.85
266.948	-20.31
267.164	71.85
267.38	26.79
267.596	-44.88
267.812	149.67
268.028	102.57
268.244	51.37
268.46	118.95
268.676	49.32
268.892	43.18
269.108	69.8
269.324	22.7
269.54	63.66
269.756	129.19
269.972	22.7
270.188	37.03
270.403	10.41
270.619	51.37
270.835	84.14
271.051	71.85
271.267	-20.31
271.483	20.65
271.698	43.18
271.914	77.99
272.13	59.56
272.346	18.6
272.562	51.37
272.777	96.43
272.993	80.04
273.209	-20.31
273.425	131.24
273.64	30.89
273.856	77.99
274.072	65.71
274.287	2.22
274.503	77.99
274.719	69.8
274.934	69.8
275.15	47.27
275.366	53.42
275.581	63.66
275.797	37.03
276.012	8.36
276.228	121
276.444	26.79
276.659	135.34
276.875	49.32
277.09	121
277.306	14.51
277.521	41.13
277.737	67.75
277.952	41.13
278.168	147.62
278.383	147.62
278.599	-20.31
278.814	77.99
279.03	104.62
279.245	104.62
279.461	69.8
279.676	67.75
279.892	39.08
280.107	32.94
280.322	26.79
280.538	69.8
280.753	16.55
280.969	71.85
281.184	63.66
281.399	88.23
281.615	90.28
281.83	98.47
282.045	45.23
282.26	30.89
282.476	16.55
282.691	100.52
282.906	100.52
283.122	67.75
283.337	28.84
283.552	114.86
283.767	57.51
283.983	75.95
284.198	30.89
284.413	71.85
284.628	123.05
284.843	98.47
285.058	67.75
285.274	-5.97
285.489	-18.26
285.704	67.75
285.919	88.23
286.134	39.08
286.349	-24.4
286.564	-32.6
286.779	51.37
286.995	73.9
287.21	0.17
287.425	14.51
287.64	55.47
287.855	80.04
288.07	34.99
288.285	123.05
288.5	6.31
288.715	88.23
288.93	51.37
289.145	49.32
289.36	34.99
289.575	84.14
289.79	57.51
290.004	90.28
290.219	118.95
290.434	16.55
290.649	-5.97
290.864	-12.12
291.079	18.6
291.294	65.71
291.509	30.89
291.724	-18.26
291.938	-42.84
292.153	94.38
292.368	51.37
292.583	82.09
292.798	147.62
293.012	-38.74
293.227	61.61
293.442	63.66
293.657	86.19
293.871	129.19
294.086	43.18
294.301	37.03
294.516	94.38
294.73	155.82
294.945	98.47
295.16	18.6
295.374	6.31
295.589	125.1
295.804	-3.93
296.018	102.57
296.233	100.52
296.447	57.51
296.662	8.36
296.877	14.51
297.091	102.57
297.306	32.94
297.52	-10.07
297.735	65.71
297.949	178.34
298.164	118.95
298.378	102.57
298.593	16.55
298.807	26.79
299.022	116.9
299.236	123.05
299.451	121
299.665	77.99
299.88	41.13
300.094	104.62
300.309	47.27
300.523	-8.02
300.737	12.46
300.952	129.19
301.166	47.27
301.381	-1.88
301.595	57.51
301.809	82.09
302.024	80.04
302.238	0.17
302.452	102.57
302.667	86.19
302.881	69.8
303.095	90.28
303.309	80.04
303.524	34.99
303.738	90.28
303.952	0.17
304.166	37.03
304.381	59.56
304.595	145.58
304.809	32.94
305.023	26.79
305.237	129.19
305.452	51.37
305.666	22.7
305.88	104.62
306.094	90.28
306.308	100.52
306.522	57.51
306.736	84.14
306.95	77.99
307.164	-10.07
307.379	47.27
307.593	106.67
307.807	73.9
308.021	30.89
308.235	73.9
308.449	16.55
308.663	20.65
308.877	80.04
309.091	41.13
309.305	77.99
309.519	43.18
309.733	84.14
309.947	82.09
310.161	4.27
310.374	51.37
310.588	82.09
310.802	86.19
311.016	80.04
311.23	43.18
311.444	88.23
311.658	34.99
311.872	143.53
312.085	84.14
312.299	61.61
312.513	110.76
312.727	100.52
312.941	34.99
313.154	45.23
313.368	16.55
313.582	8.36
313.796	82.09
314.009	41.13
314.223	98.47
314.437	28.84
314.651	114.86
314.864	47.27
315.078	55.47
315.292	12.46
315.505	18.6
315.719	96.43
315.933	26.79
316.146	30.89
316.36	80.04
316.573	96.43
316.787	59.56
317.001	59.56
317.214	20.65
317.428	82.09
317.641	22.7
317.855	73.9
318.068	12.46
318.282	2.22
318.495	100.52
318.709	82.09
318.922	108.71
319.136	118.95
319.349	100.52
319.563	92.33
319.776	57.51
319.99	43.18
320.203	104.62
320.417	63.66
320.63	71.85
320.843	34.99
321.057	41.13
321.27	131.24
321.483	100.52
321.697	80.04
321.91	145.58
322.124	26.79
322.337	43.18
322.55	-55.12
322.763	61.61
322.977	116.9
323.19	-18.26
323.403	65.71
323.617	88.23
323.83	73.9
324.043	-10.07
324.256	51.37
324.469	63.66
324.683	94.38
324.896	57.51
325.109	34.99
325.322	30.89
325.535	67.75
325.748	102.57
325.962	12.46
326.175	65.71
326.388	98.47
326.601	47.27
326.814	73.9
327.027	94.38
327.24	125.1
327.453	-18.26
327.666	47.27
327.879	61.61
328.092	67.75
328.305	71.85
328.518	98.47
328.731	30.89
328.944	82.09
329.157	131.24
329.37	69.8
329.583	73.9
329.796	63.66
330.009	4.27
330.222	84.14
330.435	114.86
330.648	75.95
330.861	88.23
331.073	125.1
331.286	90.28
331.499	57.51
331.712	53.42
331.925	57.51
332.138	118.95
332.35	90.28
332.563	-12.12
332.776	127.14
332.989	12.46
333.202	127.14
333.414	127.14
333.627	77.99
333.84	20.65
334.053	139.43
334.265	41.13
334.478	80.04
334.691	80.04
334.903	43.18
335.116	-5.97
335.329	57.51
335.541	129.19
335.754	129.19
335.966	-12.12
336.179	102.57
336.392	69.8
336.604	49.32
336.817	96.43
337.029	155.82
337.242	28.84
337.454	104.62
337.667	106.67
337.88	125.1
338.092	102.57
338.305	39.08
338.517	41.13
338.729	16.55
338.942	65.71
339.154	45.23
339.367	80.04
339.579	123.05
339.792	104.62
340.004	20.65
340.217	47.27
340.429	65.71
340.641	67.75
340.854	51.37
341.066	37.03
341.278	129.19
341.491	96.43
341.703	65.71
341.915	96.43
342.128	22.7
342.34	110.76
342.552	22.7
342.764	94.38
342.977	69.8
343.189	98.47
343.401	170.15
343.613	-53.08
343.826	131.24
344.038	59.56
344.25	90.28
344.462	34.99
344.674	57.51
344.886	51.37
345.099	45.23
345.311	73.9
345.523	47.27
345.735	22.7
345.947	55.47
346.159	123.05
346.371	96.43
346.583	55.47
346.795	69.8
347.007	18.6
347.219	30.89
347.431	94.38
347.643	71.85
347.855	41.13
348.067	43.18
348.279	24.75
348.491	94.38
348.703	108.71
348.915	57.51
349.127	-18.26
349.339	61.61
349.551	39.08
349.763	104.62
349.975	90.28
350.187	139.43
350.399	30.89
350.61	75.95
350.822	53.42
351.034	84.14
351.246	59.56
351.458	61.61
351.669	123.05
351.881	94.38
352.093	86.19
352.305	61.61
352.517	53.42
352.728	135.34
352.94	41.13
353.152	153.77
353.363	51.37
353.575	88.23
353.787	61.61
353.999	127.14
354.21	147.62
354.422	26.79
354.633	100.52
354.845	80.04
355.057	106.67
355.268	67.75
355.48	67.75
355.692	73.9
355.903	71.85
356.115	100.52
356.326	4.27
356.538	96.43
356.749	45.23
356.961	53.42
357.172	49.32
357.384	0.17
357.595	94.38
357.807	80.04
358.018	94.38
358.23	41.13
358.441	176.3
358.653	59.56
358.864	41.13
359.075	94.38
359.287	84.14
359.498	65.71
359.709	45.23
359.921	61.61
360.132	37.03
360.344	133.29
360.555	116.9
360.766	116.9
360.977	77.99
361.189	110.76
361.4	8.36
361.611	80.04
361.823	110.76
362.034	67.75
362.245	39.08
362.456	57.51
362.667	65.71
362.879	39.08
363.09	114.86
363.301	45.23
363.512	108.71
363.723	12.46
363.935	22.7
364.146	86.19
364.357	75.95
364.568	88.23
364.779	26.79
364.99	80.04
365.201	39.08
365.412	145.58
365.623	18.6
365.834	92.33
366.045	96.43
366.256	135.34
366.467	145.58
366.678	34.99
366.889	98.47
367.1	41.13
367.311	104.62
367.522	30.89
367.733	80.04
367.944	59.56
368.155	114.86
368.366	69.8
368.577	69.8
368.788	131.24
368.999	43.18
369.209	102.57
369.42	155.82
369.631	168.1
369.842	4.27
370.053	104.62
370.264	106.67
370.474	145.58
370.685	82.09
370.896	51.37
371.107	108.71
371.317	57.51
371.528	69.8
371.739	65.71
371.95	77.99
372.16	86.19
372.371	-3.93
372.582	61.61
372.792	90.28
373.003	39.08
373.214	96.43
373.424	108.71
373.635	112.81
373.846	51.37
374.056	73.9
374.267	159.91
374.477	84.14
374.688	159.91
374.898	73.9
375.109	77.99
375.319	45.23
375.53	59.56
375.74	82.09
375.951	39.08
376.161	61.61
376.372	80.04
376.582	143.53
376.793	49.32
377.003	-22.36
377.214	88.23
377.424	73.9
377.635	96.43
377.845	51.37
378.055	75.95
378.266	80.04
378.476	73.9
378.686	98.47
378.897	67.75
379.107	82.09
379.317	80.04
379.528	84.14
379.738	104.62
379.948	176.3
380.158	114.86
380.369	106.67
380.579	14.51
380.789	47.27
380.999	157.86
381.21	77.99
381.42	110.76
381.63	96.43
381.84	112.81
382.05	88.23
382.261	77.99
382.471	137.38
382.681	57.51
382.891	59.56
383.101	51.37
383.311	63.66
383.521	49.32
383.731	80.04
383.941	98.47
384.151	65.71
384.361	127.14
384.571	118.95
384.781	53.42
384.991	104.62
385.201	209.06
385.411	61.61
385.621	106.67
385.831	73.9
386.041	69.8
386.251	53.42
386.461	182.44
386.671	12.46
386.881	108.71
387.091	129.19
387.301	10.41
387.511	110.76
387.72	102.57
387.93	12.46
388.14	43.18
388.35	125.1
388.56	86.19
388.769	112.81
388.979	59.56
389.189	121
389.399	121
389.609	104.62
389.818	168.1
390.028	43.18
390.238	102.57
390.447	-8.02
390.657	106.67
390.867	143.53
391.076	69.8
391.286	12.46
391.496	100.52
391.705	57.51
391.915	118.95
392.125	100.52
392.334	71.85
392.544	84.14
392.753	118.95
392.963	69.8
393.172	182.44
393.382	121
393.591	161.96
393.801	0.17
394.01	190.63
394.22	116.9
394.429	32.94
394.639	86.19
394.848	94.38
395.058	164.01
395.267	133.29
395.477	200.87
395.686	118.95
395.895	174.25
396.105	180.39
396.314	82.09
396.524	157.86
396.733	63.66
396.942	178.34
397.152	159.91
397.361	102.57
397.57	114.86
397.78	108.71
397.989	159.91
398.198	235.69
398.407	112.81
398.617	200.87
398.826	145.58
399.035	96.43
399.244	135.34
399.453	164.01
399.663	86.19
399.872	174.25
400.081	143.53
400.29	151.72
400.499	55.47
400.708	204.97
400.917	202.92
401.127	133.29
401.336	137.38
401.545	217.26
401.754	221.35
401.963	221.35
402.172	121
402.381	90.28
402.59	217.26
402.799	219.3
403.008	198.82
403.217	180.39
403.426	192.68
403.635	141.48
403.844	192.68
404.053	137.38
404.262	141.48
404.471	219.3
404.68	209.06
404.888	227.5
405.097	159.91
405.306	186.54
405.515	245.93
405.724	280.74
405.933	194.73
406.142	207.02
406.35	264.36
406.559	239.78
406.768	213.16
406.977	178.34
407.185	274.6
407.394	288.93
407.603	270.5
407.812	301.22
408.02	280.74
408.229	307.37
408.438	260.26
408.646	274.6
408.855	348.33
409.064	336.04
409.272	309.41
409.481	317.61
409.69	364.71
409.898	358.57
410.107	438.44
410.315	391.33
410.524	442.53
410.733	383.14
410.941	489.64
411.15	448.68
411.358	481.44
411.567	501.92
411.775	512.16
411.984	557.22
412.192	600.23
412.401	487.59
412.609	594.08
412.818	690.34
413.026	721.06
413.234	706.72
413.443	692.38
413.651	637.09
413.86	696.48
414.068	776.35
414.276	837.79
414.485	802.97
414.693	872.61
414.901	915.61
415.11	807.07
415.318	850.08
415.526	893.09
415.734	991.39
415.943	1079.45
416.151	1058.97
416.359	1085.59
416.567	1196.18
416.776	1087.64
416.984	1294.49
417.192	1233.05
417.4	1210.52
417.608	1226.9
417.817	1249.43
418.025	1355.93
418.233	1415.32
418.441	1480.85
418.649	1431.7
418.857	1714.32
419.065	1663.12
419.273	1548.44
419.481	1745.04
419.689	1824.91
419.897	1896.59
420.105	1910.93
420.313	1951.88
420.521	2035.85
420.729	2134.15
420.937	2066.57
421.145	2209.93
421.353	2363.53
421.561	2334.86
421.769	2492.55
421.977	2463.88
422.185	2558.08
422.393	2812.03
422.601	2930.81
422.809	2914.43
423.017	2906.24
423.224	3020.92
423.432	3225.72
423.64	3133.56
423.848	3598.45
424.056	3227.77
424.263	3729.52
424.471	3584.12
424.679	3651.7
424.887	3950.7
425.094	3962.99
425.302	3991.66
425.51	4032.62
425.718	4251.75
425.925	4239.47
426.133	4481.13
426.341	4698.21
426.548	4882.53
426.756	5013.6
426.964	5075.04
427.171	5292.12
427.379	5298.27
427.586	5613.65
427.794	5722.2
428.001	6092.88
428.209	6168.65
428.417	6113.36
428.624	6453.32
428.832	6598.73
429.039	6377.55
429.247	6537.29
429.454	7135.29
429.662	7686.2
429.869	7112.77
430.076	7743.54
430.284	7624.76
430.491	7790.64
430.699	8349.74
430.906	8259.63
431.114	8206.38
431.321	8491.05
431.528	8792.1
431.736	9455.64
431.943	9779.22
432.15	9420.83
432.358	9578.52
432.565	9973.78
432.772	10178.58
432.979	10522.63
433.187	10829.83
433.394	10858.5
433.601	11630.59
433.808	11675.64
434.016	11610.11
434.223	11847.67
434.43	12742.63
434.637	12404.72
434.844	13307.87
435.052	13582.3
435.259	13637.59
435.466	13727.71
435.673	13559.77
435.88	14321.62
436.087	15175.62
436.294	15169.48
436.501	14966.73
436.708	15132.61
436.915	15456.19
437.122	16453.55
437.329	16297.91
437.537	16828.33
437.743	16672.68
437.95	16930.73
438.157	17551.26
438.364	18603.92
438.571	18272.15
438.778	18665.36
438.985	20154.23
439.192	19640.19
439.399	20297.59
439.606	19644.29
439.813	20692.85
440.02	22173.53
440.227	21440.36
440.433	21241.7
440.64	22067.03
440.847	22169.43
441.054	22632.27
441.261	24059.71
441.467	23809.86
441.674	24141.63
441.881	25018.16
442.088	25112.36
442.294	24844.08
442.501	25702.18
442.708	26025.76
442.914	27068.17
443.121	28368.63
443.328	27213.58
443.534	29411.05
443.741	28542.71
443.948	28061.44
444.154	30099.17
444.361	29957.86
444.568	30506.71
444.774	30209.76
444.981	30529.24
445.187	31268.56
445.394	32626.36
445.6	32579.26
445.807	35794.57
446.013	33924.77
446.22	34692.76
446.426	36101.76
446.633	36511.36
446.839	37688.94
447.046	35804.81
447.252	37967.46
447.459	37885.54
447.665	37668.46
447.871	39343.7
448.078	41303.6
448.284	39362.13
448.491	40425.03
448.697	41467.44
448.903	42931.74
449.11	42790.43
449.316	41541.17
449.522	42632.74
449.728	43955.72
449.935	44119.56
450.141	43941.39
450.347	44934.65
450.553	43767.31
450.76	44131.85
450.966	45510.13
451.172	45168.12
451.378	46226.92
451.584	45180.41
451.791	46378.47
451.997	46147.05
452.203	46896.61
452.409	47146.46
452.615	46745.06
452.821	45141.5
453.027	45051.39
453.233	46886.37
453.44	45200.89
453.646	45798.9
453.852	45708.79
454.058	46669.28
454.264	44563.97
454.47	46040.56
454.676	44684.8
454.882	46501.35
455.088	42399.27
455.294	43419.16
455.5	43363.86
455.705	44150.28
455.911	42341.92
456.117	41631.28
456.323	40932.92
456.529	38839.9
456.735	40779.32
456.941	39616.08
457.147	38846.04
457.352	37645.93
457.558	37064.31
457.764	37246.58
457.97	36462.21
458.176	35636.87
458.381	35632.78
458.587	33840.81
458.793	33789.61
458.999	31960.77
459.204	34582.17
459.41	33943.2
459.616	31356.62
459.821	31434.44
460.027	30916.31
460.233	30615.26
460.438	29128.43
460.644	29417.19
460.85	27965.18
461.055	27557.64
461.261	27750.15
461.466	25374.5
461.672	24549.17
461.878	26441.5
462.083	24522.55
462.289	24317.75
462.494	23947.07
462.7	22916.94
462.905	22239.06
463.111	23045.96
463.316	23385.93
463.522	22607.7
463.727	22812.49
463.932	22722.38
464.138	22460.24
464.343	22794.06
464.549	22243.16
464.754	22824.78
464.959	22327.13
465.165	22241.11
465.37	21432.16
465.575	20813.68
465.781	21548.9
465.986	21995.36
466.191	20868.97
466.397	20551.54
466.602	19947.39
466.807	20313.97
467.012	20377.46
467.218	20277.11
467.423	19953.53
467.628	19957.63
467.833	20791.15
468.038	20123.51
468.244	19357.57
468.449	20334.45
468.654	19783.55
468.859	19648.38
469.064	19361.67
469.269	18626.45
469.474	18757.52
469.679	19152.77
469.885	18552.72
470.09	18778
470.295	18571.15
470.5	18079.64
470.705	18370.45
470.91	17588.13
471.115	17704.86
471.32	18329.49
471.525	17868.7
471.73	17549.21
471.935	17543.07
472.139	16680.88
472.344	17078.18
472.549	17121.19
472.754	16971.69
472.959	16537.52
473.164	16123.83
473.369	15828.92
473.574	16347.06
473.778	15916.98
473.983	15970.23
474.188	16013.24
474.393	15273.92
474.598	15314.88
474.802	15134.66
475.007	15005.64
475.212	15249.35
475.417	14661.58
475.621	14759.88
475.826	14440.4
476.031	14225.36
476.235	13950.93
476.44	14297.04
476.645	13991.89
476.849	14061.52
477.054	13901.78
477.259	13582.3
477.463	13713.37
477.668	13324.26
477.872	13422.56
478.077	13252.58
478.282	12949.48
478.486	12693.48
478.691	12830.69
478.895	12842.98
479.1	12640.23
479.304	12791.78
479.509	12224.5
479.713	12511.21
479.918	12140.53
480.122	12228.59
480.326	12263.41
480.531	12337.13
480.735	12070.9
480.94	12019.7
481.144	12486.64
481.348	11798.52
481.553	12031.99
481.757	11685.88
481.961	11851.77
482.166	11978.74
482.37	11745.27
482.574	11509.76
482.778	11921.4
482.983	11929.59
483.187	11663.35
483.391	11833.33
483.595	11454.46
483.8	11603.96
484.004	11716.6
484.208	11784.18
484.412	11689.98
484.616	11571.19
484.821	11714.55
485.025	11550.71
485.229	11888.63
485.433	11841.53
485.637	11630.59
485.841	11667.45
486.045	11833.33
486.249	11646.97
486.453	11601.91
486.657	11560.95
486.861	11751.42
487.065	11331.58
487.269	11778.04
487.473	11247.62
487.677	11790.33
487.881	11816.95
488.085	11763.7
488.289	11775.99
488.493	11667.45
488.697	11710.46
488.901	11814.9
489.105	11577.34
489.309	11827.19
489.512	11831.29
489.716	11763.7
489.92	11862.01
490.124	11841.53
490.328	12140.53
490.531	11866.1
490.735	11927.54
490.939	11970.55
491.143	11919.35
491.346	12011.51
491.55	12056.56
491.754	12050.42
491.958	12234.74
492.161	12079.09
492.365	12437.48
492.569	12308.46
492.772	12361.71
492.976	12529.64
493.18	12517.36
493.383	12525.55
493.587	12773.35
493.79	13031.4
493.994	12627.95
494.197	12853.22
494.401	13105.12
494.605	12881.89
494.808	13305.82
495.012	13260.77
495.215	13375.45
495.419	13350.88
495.622	13563.87
495.825	13344.74
496.029	13535.2
496.232	13981.65
496.436	13756.38
496.639	14260.18
496.843	13995.99
497.046	14618.57
497.249	14436.3
497.453	14690.25
497.656	14968.77
497.859	14974.92
498.063	14972.87
498.266	15503.29
498.469	15058.88
498.673	15378.37
498.876	15538.11
499.079	15742.91
499.282	15697.85
499.485	16091.06
499.689	16215.99
499.892	16318.39
500.095	16508.85
500.298	16789.42
500.501	16601.01
500.705	17022.89
500.908	17426.34
501.111	17299.36
501.314	17620.89
501.517	17889.18
501.72	18018.2
501.923	17915.8
502.126	18730.89
502.329	18913.16
502.532	18773.9
502.735	18849.68
502.938	19574.66
503.141	19562.37
503.344	19582.85
503.547	19951.48
503.75	20137.85
503.953	20469.62
504.156	20815.73
504.359	20610.93
504.562	20809.58
504.765	21307.24
504.968	21417.83
505.17	21585.76
505.373	22019.93
505.576	22327.13
505.779	22646.61
505.982	22777.68
506.185	22974.28
506.387	23082.83
506.59	23351.11
506.793	23635.78
506.996	23600.96
507.198	24571.7
507.401	24227.64
507.604	24530.74
507.807	25020.2
508.009	24995.63
508.212	25280.3
508.415	25800.48
508.617	25892.64
508.82	25980.7
509.022	25917.22
509.225	26818.32
509.428	26951.44
509.63	27023.12
509.833	27127.56
510.035	27954.94
510.238	27926.27
510.44	28034.81
510.643	28501.75
510.845	28770.04
511.048	28575.48
511.25	29294.32
511.453	29447.91
511.655	30297.82
511.858	30142.17
512.06	30408.41
512.262	30836.44
512.465	30813.91
512.667	31182.54
512.87	31284.94
513.072	31655.62
513.274	32296.64
513.477	32618.17
513.679	33089.2
513.881	33222.32
514.084	33849
514.286	33674.92
514.488	33816.23
514.69	34727.58
514.893	34543.26
515.095	34768.54
515.297	35409.55
515.499	35415.69
515.701	35972.74
515.904	36470.4
516.106	36441.73
516.308	36970.1
516.51	37285.49
516.712	37709.42
516.914	37783.15
517.116	38278.75
517.318	38295.14
517.52	38653.53
517.722	38950.49
517.925	39020.12
518.127	39802.44
518.329	40236.61
518.531	40392.26
518.733	40799.8
518.935	41569.84
519.136	41188.92
519.338	41881.13
519.54	42208.81
519.742	42683.94
519.944	42665.5
520.146	43660.82
520.348	43769.36
520.55	43980.3
520.752	44248.58
520.954	44426.76
521.155	44586.5
521.357	45366.77
521.559	45223.42
521.761	45733.36
521.963	45917.68
522.164	46325.22
522.366	46431.72
522.568	47058.4
522.77	47269.34
522.971	47996.37
523.173	47453.65
523.375	47721.94
523.576	47656.4
523.778	48510.41
523.98	49167.8
524.181	49010.11
524.383	48885.18
524.584	49829.3
524.786	49733.04
524.988	49579.45
525.189	50703.78
525.391	50705.83
525.592	50697.64
525.794	50984.35
525.995	51053.98
526.197	51240.35
526.398	51639.7
526.6	51465.63
526.801	52391.31
527.003	52069.78
527.204	52135.31
527.406	52645.26
527.607	52761.99
527.808	53173.63
528.01	52424.07
528.211	52985.22
528.412	53757.3
528.614	53499.26
528.815	53734.77
529.016	53915
529.218	53429.63
529.419	54111.6
529.62	54193.52
529.822	53937.52
530.023	53972.34
530.224	54289.77
530.425	54449.52
530.626	54152.56
530.828	54187.38
531.029	55201.12
531.23	54439.28
531.431	54613.35
531.632	54881.64
531.833	55586.14
532.035	54846.82
532.236	54996.32
532.437	55459.16
532.638	54992.23
532.839	55252.32
533.04	55446.88
533.241	54824.29
533.442	55709.02
533.643	55639.39
533.844	55201.12
534.045	55489.88
534.246	55154.02
534.447	55930.2
534.648	55258.46
534.849	55657.82
535.05	55240.03
535.251	55629.15
535.451	55483.74
535.652	55829.85
535.853	55747.93
536.054	55588.19
536.255	56104.27
536.456	55336.29
536.657	56552.78
536.857	55713.11
537.058	55524.7
537.259	55414.11
537.46	56061.27
537.66	55606.62
537.861	55795.03
538.062	55788.89
538.263	56008.02
538.463	55438.68
538.664	55809.37
538.865	55786.84
539.065	55760.22
539.266	55436.64
539.466	56106.32
539.667	55000.42
539.868	56032.6
540.068	55770.46
540.269	55786.84
540.469	55885.14
540.67	55545.18
540.87	55752.02
541.071	55506.27
541.271	55737.69
541.472	55713.11
541.672	55317.85
541.873	55012.71
542.073	54820.2
542.274	55840.09
542.474	55500.12
542.675	55475.55
542.875	55840.09
543.075	55659.87
543.276	54969.7
543.476	55364.96
543.676	55027.04
543.877	55416.16
544.077	55569.75
544.277	55442.78
544.478	55018.85
544.678	55500.12
544.878	55620.95
545.078	55346.53
545.279	55149.92
545.479	55192.93
545.679	55657.82
545.879	55387.49
546.079	55397.73
546.28	54687.08
546.48	54875.49
546.68	55467.36
546.88	55342.43
547.08	55229.79
547.28	54840.68
547.48	54506.86
547.68	55211.36
547.88	54629.74
548.081	55354.72
548.281	54953.32
548.481	54822.25
548.681	55113.06
548.881	55113.06
549.081	55008.61
549.28	54918.5
549.48	55074.15
549.68	54556.01
549.88	55674.2
550.08	54664.55
550.28	55113.06
550.48	54898.02
550.68	55053.67
550.88	54787.43
551.08	54840.68
551.279	54924.64
551.479	54463.85
551.679	54904.16
551.879	54687.08
552.079	54881.64
552.278	54426.99
552.478	54699.37
552.678	54881.64
552.878	55211.36
553.077	54734.18
553.277	54707.56
553.477	55174.5
553.676	54754.66
553.876	54322.54
554.076	54527.34
554.275	54400.36
554.475	53753.21
554.674	54451.56
554.874	54216.05
555.074	53878.13
555.273	54259.05
555.473	54404.46
555.672	54295.92
555.872	53835.13
556.071	54275.44
556.271	54447.47
556.47	54070.64
556.67	53474.68
556.869	54029.68
557.068	53808.5
557.268	53785.97
557.467	53814.65
557.667	53562.75
557.866	53341.56
558.065	53263.74
558.265	53183.87
558.464	53265.79
558.663	53532.03
558.863	52835.72
559.062	53564.79
559.261	52858.24
559.461	53171.58
559.66	52620.68
559.859	52954.5
560.058	52770.18
560.258	52800.9
560.457	52342.16
560.656	52981.12
560.855	52116.88
561.054	52526.47
561.253	52047.25
561.453	52317.58
561.652	52336.01
561.851	52594.06
562.05	51973.52
562.249	51758.48
562.448	52313.48
562.647	51815.83
562.846	52112.78
563.045	51776.92
563.244	50879.91
563.443	52022.67
563.642	50904.48
563.841	51592.6
564.04	50918.82
564.239	51688.85
564.438	50845.09
564.637	51142.05
564.836	50935.2
565.035	50625.96
565.234	51076.51
565.432	50527.66
565.631	50329
565.83	50462.12
566.029	50103.73
566.228	50398.63
566.427	50015.66
566.625	50130.35
566.824	49348.03
567.023	50173.36
567.222	49049.02
567.42	49900.98
567.619	49317.31
567.818	49257.92
568.016	49106.37
568.215	49239.48
568.414	48973.25
568.612	49305.02
568.811	48541.13
569.01	48987.58
569.208	48315.85
569.407	48365
569.605	47910.35
569.804	48614.85
570.002	47912.4
570.201	48000.46
570.4	47508.95
570.598	47603.16
570.797	47431.13
570.995	47582.68
571.193	47095.26
571.392	47414.74
571.59	46820.83
571.789	46597.6
571.987	46792.16
572.186	47058.4
572.384	46476.77
572.582	46511.59
572.781	46798.3
572.979	46018.03
573.177	45997.55
573.376	46149.1
573.574	45696.5
573.772	45903.34
573.971	45944.3
574.169	45198.84
574.367	45078.01
574.565	45565.43
574.763	44891.65
574.962	45071.87
575.16	44948.99
575.358	44946.94
575.556	44418.56
575.754	45264.38
575.952	44045.83
576.151	45065.72
576.349	43832.85
576.547	44568.07
576.745	44152.33
576.943	43855.37
577.141	43695.63
577.339	43529.75
577.537	43513.36
577.735	43609.62
577.933	43138.58
578.131	43058.71
578.329	43236.89
578.527	43136.54
578.725	43146.78
578.923	43240.98
579.121	42790.43
579.319	42651.17
579.516	42735.13
579.714	42815.01
579.912	42364.45
580.11	42208.81
580.308	42229.29
580.506	41479.73
580.704	41211.45
580.901	41930.28
581.099	41934.38
581.297	41479.73
581.495	41594.42
581.692	41864.75
581.89	41078.33
582.088	41496.11
582.285	41082.42
582.483	41266.74
582.681	40982.07
582.878	40711.74
583.076	40678.97
583.274	40715.84
583.471	40300.1
583.669	40595.01
583.866	40273.48
584.064	39910.99
584.262	39652.94
584.459	40232.52
584.657	40021.58
584.854	39818.83
585.052	39208.53
585.249	39679.57
585.447	39571.02
585.644	38815.32
585.841	39249.49
586.039	39710.28
586.236	38727.26
586.434	38948.44
586.631	38334.05
586.828	38491.74
587.026	38727.26
587.223	38551.13
587.42	37992.04
587.618	38293.09
587.815	38215.27
588.012	37985.9
588.21	37695.08
588.407	37996.13
588.604	37686.89
588.801	37455.47
588.999	37455.47
589.196	37478
589.393	37330.55
589.59	37088.88
589.787	36806.27
589.984	36957.81
590.182	36605.56
590.379	36832.89
590.576	36415.1
590.773	36726.39
590.97	36310.66
591.167	36195.97
591.364	35778.18
591.561	36255.36
591.758	35595.92
591.955	35739.27
592.152	36312.7
592.349	35448.46
592.546	35653.26
592.743	35589.77
592.94	35223.19
593.137	35423.89
593.334	35460.75
593.531	34692.76
593.727	35284.62
593.924	34993.81
594.121	34289.31
594.318	34483.87
594.515	34014.88
594.712	34428.57
594.908	34199.2
595.105	34231.97
595.302	33965.73
595.499	34258.59
595.696	33932.96
595.892	33902.25
596.089	33820.33
596.286	34021.03
596.482	33509.04
596.679	33468.08
596.876	33447.6
597.072	33140.4
597.269	33361.58
597.466	33222.32
597.662	32849.59
597.859	32970.42
598.055	32880.31
598.252	32732.86
598.448	33078.96
598.645	32601.79
598.841	32394.94
599.038	32474.81
599.234	32440
599.431	32136.9
599.627	32009.92
599.824	32054.98
600.02	31581.9
600.217	31895.24
600.413	31442.63
600.609	31389.39
600.806	31567.56
601.002	31643.34
601.198	31538.89
601.395	31276.75
601.591	30994.13
601.787	30971.6
601.984	30885.59
602.18	30951.12
602.376	30629.59
602.572	30506.71
602.769	30557.91
602.965	30232.29
603.161	30246.62
603.357	30164.7
603.553	29671.14
603.75	30209.76
603.946	30291.68
604.142	29730.53
604.338	29640.42
604.534	29845.22
604.73	29546.22
604.926	29703.91
605.122	29374.19
605.318	29304.56
605.514	29071.09
605.71	28851.95
605.906	29144.81
606.102	29036.27
606.298	29226.73
606.494	28976.88
606.69	28755.7
606.886	28839.67
607.082	28454.65
607.278	28886.77
607.474	28415.74
607.67	28495.61
607.866	28249.85
608.062	28329.72
608.257	28040.96
608.453	27959.04
608.649	28212.99
608.845	27918.08
609.041	27578.12
609.236	27688.71
609.432	27680.52
609.628	27860.74
609.824	27543.3
610.019	27467.53
610.215	27610.89
610.411	28237.56
610.606	27406.09
610.802	27348.75
610.998	27453.19
611.193	27485.96
611.389	27258.63
611.584	27148.04
611.78	26941.2
611.976	26746.64
612.171	27113.23
612.367	27092.75
612.562	26830.61
612.758	26445.59
612.953	26300.19
613.149	26816.27
613.344	26345.24
613.539	26865.42
613.735	26668.82
613.93	26558.23
614.126	26502.93
614.321	26943.25
614.517	26507.03
614.712	26347.29
614.907	26388.25
615.103	26261.27
615.298	25866.02
615.493	26611.48
615.688	25650.98
615.884	26517.27
616.079	25833.25
616.274	25851.68
616.47	25501.48
616.665	25788.19
616.86	25583.4
617.055	25765.67
617.25	25638.69
617.445	25567.01
617.641	25059.12
617.836	25704.23
618.031	25126.7
618.226	25386.79
618.421	25012.01
618.616	25233.19
618.811	24676.15
619.006	25349.93
619.201	24784.69
619.396	24604.47
619.591	24295.22
619.786	24858.42
619.981	24166.2
620.176	24414.01
620.371	23871.29
620.566	24237.88
620.761	23902.01
620.956	24162.11
621.151	23600.96
621.346	23813.95
621.541	23113.55
621.735	23611.2
621.93	23117.64
622.125	23390.02
622.32	22921.04
622.515	22982.48
622.709	22978.38
622.904	22640.47
623.099	22493.01
623.294	22636.37
623.488	22505.3
623.683	22441.81
623.878	22132.57
624.072	22237.02
624.267	21944.16
624.462	21946.2
624.656	21712.74
624.851	21727.07
625.046	21540.71
625.24	21602.15
625.435	21178.22
625.629	21096.3
625.824	21055.34
626.018	21041
626.213	20721.52
626.407	20610.93
626.602	20369.27
626.796	20326.26
626.991	20672.37
627.185	20191.09
627.38	20344.69
627.574	20090.74
627.768	20189.05
627.963	19971.96
628.157	19494.79
628.352	19640.19
628.546	19388.29
628.74	19629.95
628.935	19318.66
629.129	19298.18
629.323	18941.83
629.517	19132.29
629.712	18708.37
629.906	18855.82
630.1	18446.23
630.294	18376.59
630.489	18544.53
630.683	18540.43
630.877	18384.79
631.071	18034.58
631.265	18128.79
631.459	18134.93
631.653	17958.81
631.848	18022.3
632.042	17680.28
632.236	17731.48
632.43	17762.2
632.624	17387.43
632.818	17518.5
633.012	17305.51
633.206	17092.52
633.4	17086.37
633.594	16848.81
633.788	16986.02
633.982	16846.76
634.176	16803.75
634.369	16584.62
634.563	16527.28
634.757	16451.5
634.951	16641.96
635.145	16562.09
635.339	16353.2
635.533	16154.55
635.726	15826.87
635.92	15833.02
636.114	15939.51
636.308	15949.75
636.501	15828.92
636.695	15669.18
636.889	15695.8
637.083	15415.23
637.276	15630.27
637.47	15374.27
637.664	15443.9
637.857	14999.49
638.051	15200.19
638.244	14802.89
638.438	14923.72
638.632	15034.31
638.825	14630.86
639.019	14933.96
639.212	14372.82
639.406	14827.46
639.599	14557.13
639.793	14434.25
639.986	14266.32
640.18	14266.32
640.373	14139.35
640.567	13987.8
640.76	14141.39
640.954	14088.15
641.147	13862.87
641.34	13774.81
641.534	13629.4
641.727	13791.19
641.92	13522.91
642.114	13649.88
642.307	13604.83
642.5	13281.25
642.694	13293.54
642.887	13152.23
643.08	13158.37
643.273	13195.23
643.467	13051.88
643.66	12931.05
643.853	12754.92
644.046	12541.93
644.239	12695.53
644.432	12623.85
644.626	12799.98
644.819	12472.3
645.012	12525.55
645.205	12376.05
645.398	12281.84
645.591	12316.65
645.784	12281.84
645.977	12021.75
646.17	12093.43
646.363	11978.74
646.556	11900.92
646.749	11689.98
646.942	11905.01
647.135	11708.41
647.328	11778.04
647.521	11565.05
647.714	11497.47
647.907	11782.13
648.099	11374.59
648.292	11464.7
648.485	11223.04
648.678	11114.5
648.871	11040.77
649.064	10981.38
649.256	11204.61
649.449	11169.79
649.642	11034.63
649.835	10846.21
650.027	10739.72
650.22	10840.07
650.413	10700.81
650.605	10784.77
650.798	10516.49
650.991	10661.9
651.183	10670.09
651.376	10328.08
651.568	10438.67
651.761	10455.05
651.954	10366.99
652.146	10358.8
652.339	10270.73
652.531	10022.93
652.724	9904.15
652.916	9768.98
653.109	9951.25
653.301	9852.95
653.494	9965.59
653.686	9664.54
653.879	9959.44
654.071	9693.21
654.263	9625.62
654.456	9695.25
654.648	9707.54
654.84	9609.24
655.033	9308.19
655.225	9555.99
655.417	9306.14
655.61	9279.52
655.802	9498.65
655.994	9189.41
656.186	9023.52
656.379	9162.78
656.571	9295.9
656.763	9142.3
656.955	8914.98
657.148	8998.95
657.34	9109.54
657.532	8667.17
657.724	8724.52
657.916	8794.15
658.108	8708.13
658.3	8572.97
658.492	8900.64
658.684	8437.8
658.876	8407.08
659.068	8630.31
659.26	8464.43
659.452	8486.95
659.644	8357.93
659.836	8544.3
660.028	8364.08
660.22	8106.03
660.412	8251.44
660.604	8169.52
660.796	7934
660.988	8093.74
661.18	8046.64
661.372	7813.17
661.563	8028.21
661.755	7905.33
661.947	7962.67
662.139	7966.77
662.331	7735.35
662.522	7821.36
662.714	7581.75
662.906	7618.61
663.097	7667.77
663.289	7585.85
663.481	7428.15
663.673	7663.67
663.864	7639.09
664.056	7563.32
664.247	7559.22
664.439	7286.84
664.631	7315.52
664.822	7346.23
665.014	7264.32
665.205	7452.73
665.397	7149.63
665.588	7200.83
665.78	7264.32
665.971	7028.8
666.163	7200.83
666.354	7008.32
666.546	6993.98
666.737	6950.98
666.929	6828.1
667.12	6920.26
667.311	7024.7
667.503	6776.9
667.694	6809.67
667.885	6854.72
668.077	6758.47
668.268	6680.64
668.459	6658.12
668.651	6860.87
668.842	6813.76
669.033	6481.99
669.224	6578.25
669.416	6651.97
669.607	6611.01
669.798	6561.86
669.989	6645.83
670.18	6633.54
670.371	6463.56
670.563	6383.69
670.754	6635.59
670.945	6385.74
671.136	6297.67
671.327	6215.76
671.518	6379.59
671.709	6438.98
671.9	6242.38
672.091	6408.26
672.282	6320.2
672.473	6299.72
672.664	6178.89
672.855	6131.79
673.046	6125.65
673.237	6129.74
673.428	6252.62
673.619	6074.45
673.809	6053.97
674	6131.79
674.191	6117.45
674.382	6033.49
674.573	6058.06
674.764	6000.72
674.954	5972.05
675.145	5883.98
675.336	6045.77
675.527	5707.86
675.717	5879.89
675.908	5902.42
676.099	5800.02
676.289	5732.44
676.48	5814.35
676.671	5865.55
676.861	5847.12
677.052	5779.54
677.243	5926.99
677.433	5605.46
677.624	5673.04
677.814	5714
678.005	5695.57
678.195	5695.57
678.386	5791.83
678.576	5574.74
678.767	5597.27
678.957	5564.5
679.148	5886.03
679.338	5822.55
679.529	5634.13
679.719	5671
679.909	5789.78
680.1	5591.13
680.29	5562.45
680.481	5494.87
680.671	5634.13
680.861	5611.61
681.052	5560.41
681.242	5656.66
681.432	5576.79
681.622	5541.97
681.813	5488.73
682.003	5474.39
682.193	5591.13
682.383	5654.61
682.573	5515.35
682.764	5470.3
682.954	5474.39
683.144	5312.6
683.334	5425.24
683.524	5429.34
683.714	5535.83
683.904	5320.79
684.094	5390.42
684.284	5288.03
684.474	5333.08
684.664	5331.03
684.854	5365.85
685.044	5234.78
685.234	5226.59
685.424	5146.72
685.614	5202.01
685.804	5154.91
685.994	5171.29
686.184	5242.97
686.374	5220.44
686.564	5169.24
686.753	5177.44
686.943	5189.72
687.133	5068.89
687.323	5089.37
687.513	5320.79
687.702	5040.22
687.892	5001.31
688.082	5085.28
688.272	5001.31
688.461	4982.88
688.651	4956.26
688.841	4804.71
689.03	4972.64
689.22	4776.03
689.41	4890.72
689.599	5079.13
689.789	4730.98
689.979	4700.26
690.168	4708.45
690.358	4870.24
690.547	4718.69
690.737	4794.47
690.926	4749.41
691.116	4595.81
691.305	4546.66
691.495	4481.13
691.684	4550.76
691.874	4591.72
692.063	4538.47
692.252	4454.5
692.442	4481.13
692.631	4610.15
692.82	4327.53
693.01	4345.96
693.199	4352.1
693.388	4327.53
693.578	4317.29
693.767	4325.48
693.956	4350.06
694.146	4259.95
694.335	4245.61
694.524	4321.38
694.713	4423.78
694.902	4223.08
695.092	4241.51
695.281	4233.32
695.47	4216.94
695.659	4198.51
695.848	4153.45
696.037	4225.13
696.226	4118.64
696.415	4178.03
696.604	4264.04
696.793	4198.51
696.982	4098.16
697.171	4118.64
697.36	4147.31
697.549	4149.36
697.738	3991.66
697.927	3948.65
698.116	3907.7
698.305	4053.1
698.494	3907.7
698.683	3999.85
698.872	4106.35
699.061	4018.29
699.25	4030.57
699.438	3874.93
699.627	4014.19
699.816	4001.9
700.005	4018.29
700.193	3940.46
700.382	4026.48
700.571	4075.63
700.76	3913.84
700.948	3948.65
701.137	4110.44
701.326	3919.98
701.514	3727.47
701.703	3919.98
701.892	3973.23
702.08	4049
702.269	3954.8
702.457	3846.26
702.646	3999.85
702.834	3815.54
703.023	3797.1
703.212	3979.37
703.4	3930.22
703.589	3760.24
703.777	3829.87
703.965	3903.6
704.154	3885.17
704.342	3840.11
704.531	3752.05
704.719	3778.67
704.907	3870.83
705.096	3719.28
705.284	3770.48
705.472	3958.89
705.661	3737.71
705.849	4024.43
706.037	4083.82
706.226	3852.4
706.414	3864.69
706.602	3909.74
706.79	3926.13
706.979	3881.07
707.167	3833.97
707.355	3987.57
707.543	3790.96
707.731	3903.6
707.919	3770.48
708.107	3659.89
708.296	3823.73
708.484	3954.8
708.672	3907.7
708.86	3747.95
709.048	3948.65
709.236	3756.15
709.424	3745.91
709.612	3752.05
709.8	3772.53
709.988	3819.63
710.176	3811.44
710.364	3950.7
710.551	3772.53
710.739	3868.78
710.927	3833.97
711.115	3989.61
711.303	3852.4
711.491	3805.3
711.679	3635.32
711.866	3762.29
712.054	3850.35
712.242	3809.39
712.43	4077.68
712.617	3819.63
712.805	3758.19
712.993	3786.86
713.181	3780.72
713.368	3815.54
713.556	3815.54
713.744	3836.02
713.931	3901.55
714.119	3823.73
714.306	3700.85
714.494	3846.26
714.682	3823.73
714.869	3811.44
715.057	3885.17
715.244	3881.07
715.432	3911.79
715.619	3774.58
715.807	3903.6
715.994	3905.65
716.182	3739.76
716.369	3852.4
716.556	3803.25
716.744	3846.26
716.931	3895.41
717.119	4055.15
717.306	3905.65
717.493	3790.96
717.681	3919.98
717.868	3887.22
718.055	3778.67
718.242	3874.93
718.43	4026.48
718.617	3919.98
718.804	3776.63
718.991	3899.5
719.179	4083.82
719.366	3946.61
719.553	4006
719.74	4014.19
719.927	3940.46
720.114	3960.94
720.301	3975.28
720.488	3805.3
720.676	3770.48
720.863	4012.14
721.05	4038.77
721.237	3950.7
721.424	3987.57
721.611	4038.77
721.798	3876.98
721.985	3768.43
722.172	4100.2
722.358	3989.61
722.545	3874.93
722.732	3917.93
722.919	4069.48
723.106	3905.65
723.293	3893.36
723.48	3962.99
723.667	3930.22
723.853	3858.54
724.04	4100.2
724.227	3971.18
724.414	3952.75
724.6	3911.79
724.787	4049
724.974	3905.65
725.161	4059.24
725.347	3950.7
725.534	4153.45
725.72	4022.38
725.907	3952.75
726.094	4042.86
726.28	4032.62
726.467	3942.51
726.653	4104.3
726.84	4122.73
727.027	4026.48
727.213	3971.18
727.4	4153.45
727.586	4040.81
727.773	3958.89
727.959	4003.95
728.145	3956.85
728.332	4012.14
728.518	3891.31
728.705	4003.95
728.891	4016.24
729.077	4061.29
729.264	4026.48
729.45	4006
729.636	3995.76
729.823	3938.41
730.009	4030.57
730.195	3903.6
730.382	4071.53
730.568	4085.87
730.754	4096.11
730.94	4067.44
731.126	3995.76
731.313	3999.85
731.499	4106.35
731.685	3907.7
731.871	4051.05
732.057	4059.24
732.243	4077.68
732.429	4163.69
732.615	3940.46
732.801	4044.91
732.987	4102.25
733.173	4120.68
733.359	4051.05
733.545	4153.45
733.731	4044.91
733.917	4100.2
734.103	3999.85
734.289	4030.57
734.475	4137.07
734.661	4014.19
734.847	4051.05
735.033	4169.84
735.219	4044.91
735.404	4030.57
735.59	4044.91
735.776	4223.08
735.962	4100.2
736.148	3870.83
736.333	4202.6
736.519	3975.28
736.705	3995.76
736.89	4028.53
737.076	4018.29
737.262	3952.75
737.447	3944.56
737.633	3897.46
737.819	3981.42
738.004	3954.8
738.19	3942.51
738.375	4010.09
738.561	4108.4
738.747	4069.48
738.932	3973.23
739.118	3979.37
739.303	4186.22
739.489	4001.9
739.674	3942.51
739.859	4014.19
740.045	4051.05
740.23	4024.43
740.416	3682.42
740.601	3891.31
740.786	3960.94
740.972	3934.32
741.157	3948.65
741.342	3825.78
741.528	3942.51
741.713	3903.6
741.898	3823.73
742.084	3899.5
742.269	3950.7
742.454	3731.57
742.639	3864.69
742.824	3786.86
743.01	3831.92
743.195	3907.7
743.38	3696.75
743.565	3780.72
743.75	3694.71
743.935	3762.29
744.12	3741.81
744.305	3680.37
744.49	3731.57
744.675	3723.38
744.86	3659.89
745.045	3733.62
745.23	3592.31
745.415	3741.81
745.6	3620.98
745.785	3641.46
745.97	3545.2
746.155	3561.59
746.34	3627.12
746.525	3590.26
746.71	3481.72
746.895	3528.82
747.079	3526.77
747.264	3324.02
747.449	3481.72
747.634	3477.62
747.819	3369.08
748.003	3342.46
748.188	3330.17
748.373	3336.31
748.557	3463.29
748.742	3342.46
748.927	3352.7
749.111	3299.45
749.296	3350.65
749.481	3192.95
749.665	3303.54
749.85	3205.24
750.034	3256.44
750.219	3207.29
750.404	3082.36
750.588	3184.76
750.773	3100.8
750.957	3037.31
751.141	3047.55
751.326	3061.88
751.51	3045.5
751.695	3108.99
751.879	2982.01
752.064	3002.49
752.248	2932.86
752.432	2979.97
752.617	2969.73
752.801	2979.97
752.985	2885.76
753.17	2916.48
753.354	2910.33
753.538	2834.56
753.722	2828.42
753.907	2752.64
754.091	2764.93
754.275	2781.31
754.459	2650.24
754.643	2715.78
754.828	2676.87
755.012	2746.5
755.196	2605.19
755.38	2570.37
755.564	2674.82
755.748	2594.95
755.932	2617.47
756.116	2463.88
756.3	2611.33
756.484	2496.64
756.668	2531.46
756.852	2472.07
757.036	2590.85
757.22	2449.54
757.404	2449.54
757.588	2420.87
757.772	2375.81
757.956	2463.88
758.14	2500.74
758.323	2363.53
758.507	2400.39
758.691	2304.14
758.875	2373.77
759.059	2371.72
759.242	2341
759.426	2310.28
759.61	2283.66
759.794	2252.94
759.977	2254.98
760.161	2349.19
760.345	2267.27
760.528	2214.02
760.712	2273.42
760.895	2148.49
761.079	2199.69
761.263	2222.22
761.446	2181.26
761.63	2177.16
761.813	2203.79
761.997	2117.77
762.18	2125.96
762.364	2187.4
762.547	2072.72
762.731	2130.06
762.914	2154.63
763.098	2103.43
763.281	2113.67
763.464	2007.18
763.648	1925.26
763.831	1915.02
764.015	1955.98
764.198	1902.73
764.381	1998.99
764.564	2076.81
764.748	2050.19
764.931	2115.72
765.114	1976.46
765.297	2013.32
765.481	1945.74
765.664	1861.77
765.847	1996.94
766.03	1962.12
766.213	1810.58
766.397	1829.01
766.58	1890.45
766.763	1894.54
766.946	1886.35
767.129	1847.44
767.312	1783.95
767.495	1601.68
767.678	1804.43
767.861	1800.34
768.044	1894.54
768.227	1855.63
768.41	1693.84
768.593	1749.14
768.776	1853.58
768.959	1820.81
769.142	1796.24
769.324	1751.18
769.507	1759.38
769.69	1699.98
769.873	1710.22
770.056	1777.81
770.239	1734.8
770.421	1775.76
770.604	1773.71
770.787	1675.41
770.97	1673.36
771.152	1734.8
771.335	1636.5
771.518	1693.84
771.7	1616.02
771.883	1632.4
772.066	1659.03
772.248	1573.01
772.431	1593.49
772.613	1507.48
772.796	1566.87
772.978	1546.39
773.161	1618.07
773.343	1624.21
773.526	1595.54
773.708	1472.66
773.891	1538.2
774.073	1527.96
774.256	1474.71
774.438	1462.42
774.621	1448.08
774.803	1460.37
774.985	1413.27
775.168	1517.72
775.35	1478.8
775.532	1355.93
775.715	1347.73
775.897	1450.13
776.079	1388.69
776.261	1407.13
776.444	1343.64
776.626	1314.97
776.808	1351.83
776.99	1314.97
777.173	1314.97
777.355	1296.53
777.537	1288.34
777.719	1288.34
777.901	1351.83
778.083	1185.94
778.265	1231
778.447	1390.74
778.629	1200.28
778.811	1112.22
778.993	1233.05
779.175	1286.3
779.357	1237.14
779.539	1161.37
779.721	1134.75
779.903	1257.62
780.085	1222.81
780.267	1101.98
780.449	1140.89
780.631	1298.58
780.812	1159.32
780.994	1147.03
781.176	1075.35
781.358	1114.27
781.54	1028.25
781.721	1065.11
781.903	1054.87
782.085	962.72
782.267	1061.02
782.448	1028.25
782.63	1097.88
782.812	1028.25
782.993	1018.01
783.175	1067.16
783.357	927.9
783.538	936.09
783.72	929.95
783.901	1024.16
784.083	909.47
784.264	948.38
784.446	891.04
784.627	864.41
784.809	915.61
784.99	800.93
785.172	934.04
785.353	854.17
785.535	899.23
785.716	938.14
785.897	819.36
786.079	880.8
786.26	899.23
786.441	856.22
786.623	805.02
786.804	807.07
786.985	858.27
787.167	878.75
787.348	807.07
787.529	843.93
787.71	923.8
787.891	852.13
788.073	749.73
788.254	821.41
788.435	856.22
788.616	768.16
788.797	768.16
788.978	694.43
789.159	673.95
789.34	790.69
789.522	737.44
789.703	721.06
789.884	784.54
790.065	790.69
790.246	721.06
790.427	733.34
790.607	794.78
790.788	792.73
790.969	682.14
791.15	659.62
791.331	647.33
791.512	661.66
791.693	645.28
791.874	637.09
792.054	755.87
792.235	702.62
792.416	725.15
792.597	577.7
792.778	710.82
792.958	688.29
793.139	665.76
793.32	534.69
793.5	612.51
793.681	647.33
793.862	667.81
794.042	630.95
794.223	637.09
794.404	661.66
794.584	532.64
794.765	585.89
794.945	673.95
795.126	716.96
795.306	690.34
795.487	587.94
795.667	481.44
795.848	608.42
796.028	542.88
796.209	569.51
796.389	530.59
796.57	557.22
796.75	522.4
796.93	526.5
797.111	538.79
797.291	538.79
797.471	604.32
797.652	530.59
797.832	446.63
798.012	532.64
798.192	473.25
798.373	483.49
798.553	608.42
798.733	620.71
798.913	495.78
799.093	473.25
799.274	530.59
799.454	469.16
799.634	587.94
799.814	446.63
799.994	463.01
800.174	583.84
800.354	518.31
800.534	520.35
800.714	479.4
800.894	561.31
801.074	420
801.254	473.25
801.434	528.55
801.614	516.26
801.794	463.01
801.974	1257.62
802.154	485.54
802.334	444.58
802.514	432.29
802.693	379.04
802.873	387.24
803.053	514.21
803.233	532.64
803.413	409.76
803.592	444.58
803.772	411.81
803.952	399.52
804.131	428.2
804.311	403.62
804.491	354.47
804.67	307.37
804.85	438.44
805.03	446.63
805.209	508.07
805.389	428.2
805.568	422.05
805.748	350.37
805.928	348.33
806.107	444.58
806.287	374.95
806.466	434.34
806.646	393.38
806.825	420
807.004	407.72
807.184	370.85
807.363	372.9
807.543	354.47
807.722	362.66
807.901	327.85
808.081	370.85
808.26	301.22
808.439	366.76
808.619	319.65
808.798	366.76
808.977	379.04
809.156	401.57
809.336	422.05
809.515	331.94
809.694	413.86
809.873	325.8
810.052	340.13
810.231	350.37
810.411	370.85
810.59	364.71
810.769	319.65
810.948	266.41
811.127	317.61
811.306	362.66
811.485	280.74
811.664	428.2
811.843	307.37
812.022	311.46
812.201	338.09
812.38	315.56
812.559	305.32
812.737	323.75
812.916	311.46
813.095	284.84
813.274	319.65
813.453	301.22
813.632	307.37
813.811	325.8
813.989	325.8
814.168	301.22
814.347	194.73
814.526	362.66
814.704	377
814.883	346.28
815.062	354.47
815.24	276.65
815.419	280.74
815.598	360.61
815.776	344.23
815.955	278.69
816.133	311.46
816.312	256.17
816.49	194.73
816.669	262.31
816.847	233.64
817.026	237.74
817.204	293.03
817.383	268.45
817.561	303.27
817.74	243.88
817.918	329.89
818.097	274.6
818.275	207.02
818.453	276.65
818.632	290.98
818.81	223.4
818.988	243.88
819.167	207.02
819.345	309.41
819.523	270.5
819.701	231.59
819.879	270.5
820.058	241.83
820.236	315.56
820.414	245.93
820.592	227.5
820.77	159.91
820.948	270.5
821.127	217.26
821.305	227.5
821.483	268.45
821.661	268.45
821.839	204.97
822.017	221.35
822.195	219.3
822.373	243.88
822.551	209.06
822.729	211.11
822.907	207.02
823.085	262.31
823.262	202.92
823.44	239.78
823.618	174.25
823.796	204.97
823.974	229.54
824.152	172.2
824.329	325.8
824.507	190.63
824.685	221.35
824.863	241.83
825.04	182.44
825.218	209.06
825.396	174.25
825.574	258.21
825.751	215.21
825.929	250.02
826.107	141.48
826.284	239.78
826.462	186.54
826.639	170.15
826.817	188.58
826.994	262.31
827.172	174.25
827.349	260.26
827.527	190.63
827.704	211.11
827.882	182.44
828.059	219.3
828.237	125.1
828.414	245.93
828.591	114.86
828.769	229.54
828.946	127.14
829.124	213.16
829.301	161.96
829.478	215.21
829.655	243.88
829.833	178.34
830.01	149.67
830.187	182.44
830.364	129.19
830.542	194.73
830.719	243.88
830.896	178.34
831.073	200.87
831.25	188.58
831.427	204.97
831.604	170.15
831.782	96.43
831.959	178.34
832.136	186.54
832.313	182.44
832.49	96.43
832.667	200.87
832.844	145.58
833.021	233.64
833.198	106.67
833.374	157.86
833.551	153.77
833.728	116.9
833.905	229.54
834.082	110.76
834.259	157.86
834.436	164.01
834.612	118.95
834.789	137.38
834.966	125.1
835.143	161.96
835.319	112.81
835.496	243.88
835.673	102.57
835.85	155.82
836.026	178.34
836.203	180.39
836.38	166.06
836.556	188.58
836.733	24.75
836.909	110.76
837.086	98.47
837.262	106.67
837.439	190.63
837.616	108.71
837.792	67.75
837.968	86.19
838.145	67.75
838.321	217.26
838.498	131.24
838.674	104.62
838.851	53.42
839.027	151.72
839.203	108.71
839.38	186.54
839.556	63.66
839.732	102.57
839.909	215.21
840.085	184.49
840.261	121
840.437	176.3
840.614	18.6
840.79	77.99
840.966	141.48
841.142	118.95
841.318	41.13
841.494	149.67
841.671	180.39
841.847	102.57
842.023	147.62
842.199	164.01
842.375	114.86
842.551	67.75
842.727	90.28
842.903	151.72
843.079	88.23
843.255	98.47
843.431	102.57
843.607	100.52
843.783	86.19
843.959	209.06
844.134	104.62
844.31	168.1
844.486	153.77
844.662	98.47
844.838	161.96
845.013	161.96
845.189	141.48
845.365	137.38
845.541	92.33
845.716	127.14
845.892	106.67
846.068	139.43
846.244	59.56
846.419	100.52
846.595	51.37
846.77	61.61
846.946	80.04
847.122	127.14
847.297	57.51
847.473	202.92
847.648	77.99
847.824	141.48
847.999	45.23
848.175	114.86
848.35	39.08
848.526	139.43
848.701	49.32
848.876	190.63
849.052	155.82
849.227	34.99
849.403	39.08
849.578	69.8
849.753	159.91
849.929	159.91
850.104	71.85
850.279	147.62
850.454	104.62
850.63	118.95
850.805	80.04
850.98	100.52
851.155	59.56
851.33	92.33
851.505	26.79
851.681	67.75
851.856	-38.74
852.031	45.23
852.206	153.77
852.381	39.08
852.556	65.71
852.731	161.96
852.906	135.34
853.081	49.32
853.256	129.19
853.431	88.23
853.606	43.18
853.781	59.56
853.956	39.08
854.131	164.01
854.305	51.37
854.48	55.47
854.655	63.66
854.83	102.57
855.005	30.89
855.18	116.9
855.354	86.19
855.529	55.47
855.704	41.13
855.879	145.58
856.053	6.31
856.228	82.09
856.403	47.27
856.577	75.95
856.752	24.75
856.926	102.57
857.101	88.23
857.276	22.7
857.45	141.48
857.625	96.43
857.799	26.79
857.974	53.42
858.148	71.85
858.323	63.66
858.497	30.89
858.672	-16.21
858.846	-1.88
859.02	73.9
859.195	59.56
859.369	82.09
859.543	149.67
859.718	65.71
859.892	28.84
860.066	108.71
860.241	59.56
860.415	57.51
860.589	41.13
860.763	73.9
860.938	10.41
861.112	69.8
861.286	61.61
861.46	77.99
861.634	32.94
861.808	141.48
861.982	39.08
862.157	2.22
862.331	86.19
862.505	16.55
862.679	16.55
862.853	153.77
863.027	32.94
863.201	166.06
863.375	34.99
863.549	43.18
863.722	94.38
863.896	49.32
864.07	6.31
864.244	26.79
864.418	63.66
864.592	151.72
864.766	43.18
864.939	59.56
865.113	24.75
865.287	28.84
865.461	-14.17
865.634	34.99
865.808	26.79
865.982	61.61
866.156	22.7
866.329	32.94
866.503	102.57
866.676	102.57
866.85	24.75
867.024	34.99
867.197	121
867.371	96.43
867.544	45.23
867.718	-12.12
867.891	73.9
868.065	63.66
868.238	73.9
868.412	102.57
868.585	43.18
868.759	57.51
868.932	12.46
869.105	26.79
869.279	123.05
869.452	16.55
869.625	34.99
869.799	55.47
869.972	-32.6
870.145	41.13
870.319	24.75
870.492	34.99
870.665	14.51
870.838	-20.31
871.011	-40.79
871.185	71.85
871.358	57.51
871.531	6.31
871.704	84.14
871.877	-63.32
872.05	90.28
872.223	-18.26
872.396	39.08
872.569	84.14
872.742	65.71
872.915	86.19
873.088	51.37
873.261	20.65
873.434	20.65
873.607	104.62
873.78	108.71
873.953	-16.21
874.126	45.23
874.299	135.34
874.471	51.37
874.644	73.9
874.817	47.27
874.99	71.85
875.163	65.71
875.335	41.13
875.508	16.55
875.681	12.46
875.853	75.95
876.026	84.14
876.199	112.81
876.371	22.7
876.544	-5.97
876.717	37.03
876.889	18.6
877.062	112.81
877.234	41.13
877.407	67.75
877.579	-48.98
877.752	53.42
877.924	121
878.097	55.47
878.269	84.14
878.442	90.28
878.614	34.99
878.786	18.6
878.959	77.99
879.131	39.08
879.303	-28.5
879.476	86.19
879.648	22.7
879.82	18.6
879.993	20.65
880.165	-10.07
880.337	32.94
880.509	47.27
880.681	-73.56
880.854	-20.31
881.026	47.27
881.198	104.62
881.37	49.32
881.542	-42.84
881.714	-1.88
881.886	2.22
882.058	20.65
882.23	43.18
882.402	10.41
882.574	84.14
882.746	86.19
882.918	22.7
883.09	59.56
883.262	57.51
883.434	47.27
883.606	24.75
883.778	90.28
883.95	75.95
884.122	45.23
884.293	28.84
884.465	28.84
884.637	10.41
884.809	88.23
884.98	49.32
885.152	47.27
885.324	41.13
885.496	10.41
885.667	24.75
885.839	100.52
886.011	55.47
886.182	71.85
886.354	90.28
886.525	-24.4
886.697	77.99
886.869	63.66
887.04	6.31
887.212	24.75
887.383	114.86
887.555	80.04
887.726	67.75
887.897	88.23
888.069	82.09
888.24	-3.93
888.412	47.27
888.583	45.23
888.754	47.27
888.926	12.46
889.097	22.7
889.268	-42.84
889.44	14.51
889.611	22.7
889.782	-96.08
889.953	26.79
890.125	77.99
890.296	-5.97
890.467	16.55
890.638	18.6
890.809	6.31
890.98	39.08
891.151	65.71
891.323	16.55
891.494	80.04
891.665	75.95
891.836	28.84
892.007	30.89
892.178	51.37
892.349	4.27
892.52	47.27
892.691	59.56
892.862	51.37
893.032	34.99
893.203	45.23
893.374	49.32
893.545	82.09
893.716	8.36
893.887	63.66
894.057	20.65
894.228	2.22
894.399	2.22
894.57	0.17
894.74	59.56
894.911	51.37
895.082	6.31
895.253	41.13
895.423	92.33
895.594	47.27
895.764	77.99
895.935	-30.55
896.106	18.6
896.276	30.89
896.447	-16.21
896.617	-18.26
896.788	26.79
896.958	-10.07
897.129	22.7
897.299	69.8
897.47	73.9
897.64	69.8
897.81	-24.4
897.981	80.04
898.151	10.41
898.322	20.65
898.492	30.89
898.662	69.8
898.832	53.42
899.003	37.03
899.173	12.46
899.343	14.51
899.513	16.55
