Data from USB4F104151__29__12-23-43-411.txt Node

Date: Fri Mar 14 12:23:43 EDT 2025
User: louis
Spectrometer: USB4F10415
Trigger mode: 4
Integration Time (sec): 3.500000E-2
Scans to average: 1
Electric dark correction enabled: true
Nonlinearity correction enabled: false
Boxcar width: 0
XAxis mode: Wavelengths
Number of Pixels in Spectrum: 3648
>>>>>Begin Spectral Data<<<<<
178.204	-99.67
178.424	-99.67
178.644	-99.67
178.864	-95.57
179.084	-81.24
179.304	66.22
179.524	-30.04
179.744	21.16
179.964	4.78
180.184	-5.46
180.404	-75.09
180.624	-11.61
180.844	17.07
181.064	-60.76
181.283	25.26
181.503	-38.23
181.723	86.7
181.943	-3.41
182.163	80.55
182.383	49.83
182.602	88.75
182.822	88.75
183.042	41.64
183.262	-1.37
183.482	78.51
183.701	10.92
183.921	43.69
184.141	-5.46
184.361	98.99
184.58	45.74
184.8	64.17
185.02	37.55
185.239	53.93
185.459	51.88
185.679	49.83
185.898	-25.94
186.118	105.13
186.338	29.35
186.557	82.6
186.777	43.69
186.997	35.5
187.216	-48.47
187.436	76.46
187.655	82.6
187.875	0.68
188.095	35.5
188.314	96.94
188.534	90.79
188.753	-1.37
188.973	15.02
189.192	17.07
189.412	72.36
189.631	78.51
189.851	47.79
190.07	45.74
190.29	-21.85
190.509	45.74
190.729	51.88
190.948	15.02
191.168	139.94
191.387	88.75
191.607	66.22
191.826	8.87
192.045	76.46
192.265	15.02
192.484	53.93
192.704	105.13
192.923	-15.7
193.142	113.32
193.362	29.35
193.581	88.75
193.8	51.88
194.02	191.14
194.239	37.55
194.458	-21.85
194.678	74.41
194.897	58.03
195.116	103.08
195.335	45.74
195.555	94.89
195.774	8.87
195.993	62.12
196.212	-1.37
196.432	55.98
196.651	-13.65
196.87	135.85
197.089	117.42
197.308	103.08
197.528	43.69
197.747	-15.7
197.966	-3.41
198.185	146.09
198.404	82.6
198.623	-13.65
198.842	37.55
199.062	66.22
199.281	92.84
199.5	45.74
199.719	-7.51
199.938	23.21
200.157	27.31
200.376	117.42
200.595	96.94
200.814	49.83
201.033	41.64
201.252	39.59
201.471	35.5
201.69	113.32
201.909	45.74
202.128	131.75
202.347	64.17
202.566	41.64
202.785	-11.61
203.004	4.78
203.223	115.37
203.442	19.11
203.661	15.02
203.879	29.35
204.098	103.08
204.317	27.31
204.536	84.65
204.755	10.92
204.974	58.03
205.193	35.5
205.411	172.71
205.63	66.22
205.849	60.07
206.068	47.79
206.287	12.97
206.505	66.22
206.724	-7.51
206.943	94.89
207.162	0.68
207.381	137.9
207.599	49.83
207.818	0.68
208.037	45.74
208.255	64.17
208.474	53.93
208.693	72.36
208.911	41.64
209.13	-30.04
209.349	33.45
209.567	123.56
209.786	51.88
210.005	107.18
210.223	-7.51
210.442	29.35
210.661	101.03
210.879	33.45
211.098	23.21
211.316	55.98
211.535	47.79
211.753	23.21
211.972	58.03
212.191	37.55
212.409	45.74
212.628	-7.51
212.846	2.73
213.065	49.83
213.283	74.41
213.502	25.26
213.72	29.35
213.938	72.36
214.157	-40.28
214.375	25.26
214.594	74.41
214.812	60.07
215.031	-3.41
215.249	60.07
215.467	76.46
215.686	31.4
215.904	115.37
216.122	49.83
216.341	37.55
216.559	-1.37
216.778	60.07
216.996	23.21
217.214	4.78
217.432	70.31
217.651	27.31
217.869	58.03
218.087	-17.75
218.306	-21.85
218.524	76.46
218.742	-7.51
218.96	-21.85
219.179	-9.56
219.397	23.21
219.615	111.27
219.833	90.79
220.051	105.13
220.27	60.07
220.488	98.99
220.706	25.26
220.924	12.97
221.142	17.07
221.36	-5.46
221.578	98.99
221.796	49.83
222.015	29.35
222.233	-23.89
222.451	109.23
222.669	70.31
222.887	70.31
223.105	-3.41
223.323	-40.28
223.541	-13.65
223.759	-30.04
223.977	82.6
224.195	129.7
224.413	103.08
224.631	39.59
224.849	31.4
225.067	41.64
225.285	33.45
225.503	-1.37
225.721	-17.75
225.939	78.51
226.157	76.46
226.375	123.56
226.592	29.35
226.81	6.83
227.028	76.46
227.246	168.62
227.464	45.74
227.682	78.51
227.9	25.26
228.117	70.31
228.335	31.4
228.553	-11.61
228.771	103.08
228.989	53.93
229.206	19.11
229.424	-27.99
229.642	68.27
229.86	6.83
230.077	21.16
230.295	15.02
230.513	72.36
230.731	74.41
230.948	92.84
231.166	64.17
231.384	62.12
231.601	94.89
231.819	76.46
232.037	41.64
232.254	49.83
232.472	-19.8
232.689	29.35
232.907	33.45
233.125	41.64
233.342	51.88
233.56	-9.56
233.777	115.37
233.995	76.46
234.213	60.07
234.43	25.26
234.648	47.79
234.865	21.16
235.083	45.74
235.3	131.75
235.518	62.12
235.735	98.99
235.953	86.7
236.17	47.79
236.388	29.35
236.605	-93.52
236.822	82.6
237.04	92.84
237.257	8.87
237.475	51.88
237.692	33.45
237.909	4.78
238.127	47.79
238.344	82.6
238.562	39.59
238.779	39.59
238.996	80.55
239.214	84.65
239.431	58.03
239.648	68.27
239.865	6.83
240.083	148.14
240.3	88.75
240.517	-5.46
240.735	115.37
240.952	45.74
241.169	105.13
241.386	43.69
241.603	80.55
241.821	37.55
242.038	178.86
242.255	27.31
242.472	37.55
242.689	74.41
242.907	82.6
243.124	37.55
243.341	25.26
243.558	86.7
243.775	15.02
243.992	21.16
244.209	31.4
244.426	49.83
244.643	86.7
244.86	45.74
245.078	82.6
245.295	47.79
245.512	96.94
245.729	33.45
245.946	113.32
246.163	60.07
246.38	109.23
246.597	25.26
246.814	80.55
247.031	-9.56
247.248	64.17
247.464	148.14
247.681	33.45
247.898	86.7
248.115	25.26
248.332	-38.23
248.549	55.98
248.766	78.51
248.983	166.57
249.2	39.59
249.417	115.37
249.633	33.45
249.85	19.11
250.067	25.26
250.284	-23.89
250.501	58.03
250.717	58.03
250.934	107.18
251.151	41.64
251.368	62.12
251.585	43.69
251.801	37.55
252.018	25.26
252.235	82.6
252.451	23.21
252.668	86.7
252.885	86.7
253.102	49.83
253.318	51.88
253.535	-7.51
253.752	47.79
253.968	-9.56
254.185	6.83
254.401	60.07
254.618	62.12
254.835	-1.37
255.051	90.79
255.268	131.75
255.484	105.13
255.701	27.31
255.917	119.46
256.134	-9.56
256.351	60.07
256.567	15.02
256.784	43.69
257	-27.99
257.217	103.08
257.433	82.6
257.65	4.78
257.866	84.65
258.082	33.45
258.299	0.68
258.515	80.55
258.732	62.12
258.948	35.5
259.165	51.88
259.381	-30.04
259.597	113.32
259.814	2.73
260.03	64.17
260.246	8.87
260.463	103.08
260.679	31.4
260.895	12.97
261.112	37.55
261.328	-46.42
261.544	-7.51
261.761	109.23
261.977	47.79
262.193	53.93
262.409	66.22
262.626	80.55
262.842	64.17
263.058	-11.61
263.274	35.5
263.49	84.65
263.707	55.98
263.923	115.37
264.139	-17.75
264.355	45.74
264.571	164.52
264.787	144.04
265.004	82.6
265.22	37.55
265.436	17.07
265.652	-9.56
265.868	37.55
266.084	58.03
266.3	72.36
266.516	17.07
266.732	64.17
266.948	37.55
267.164	45.74
267.38	105.13
267.596	19.11
267.812	33.45
268.028	109.23
268.244	109.23
268.46	70.31
268.676	78.51
268.892	74.41
269.108	-15.7
269.324	6.83
269.54	45.74
269.756	70.31
269.972	-62.8
270.188	64.17
270.403	-17.75
270.619	115.37
270.835	0.68
271.051	133.8
271.267	74.41
271.483	37.55
271.698	29.35
271.914	70.31
272.13	70.31
272.346	15.02
272.562	58.03
272.777	37.55
272.993	107.18
273.209	60.07
273.425	66.22
273.64	-95.57
273.856	12.97
274.072	-7.51
274.287	25.26
274.503	82.6
274.719	113.32
274.934	64.17
275.15	33.45
275.366	78.51
275.581	-36.18
275.797	47.79
276.012	-15.7
276.228	111.27
276.444	43.69
276.659	90.79
276.875	49.83
277.09	23.21
277.306	41.64
277.521	47.79
277.737	68.27
277.952	101.03
278.168	33.45
278.383	103.08
278.599	-48.47
278.814	60.07
279.03	53.93
279.245	111.27
279.461	-5.46
279.676	25.26
279.892	-21.85
280.107	21.16
280.322	29.35
280.538	80.55
280.753	8.87
280.969	49.83
281.184	123.56
281.399	115.37
281.615	33.45
281.83	58.03
282.045	-11.61
282.26	62.12
282.476	31.4
282.691	-19.8
282.906	41.64
283.122	17.07
283.337	4.78
283.552	41.64
283.767	55.98
283.983	72.36
284.198	88.75
284.413	90.79
284.628	33.45
284.843	37.55
285.058	49.83
285.274	37.55
285.489	21.16
285.704	78.51
285.919	35.5
286.134	86.7
286.349	62.12
286.564	23.21
286.779	84.65
286.995	33.45
287.21	-5.46
287.425	47.79
287.64	98.99
287.855	74.41
288.07	47.79
288.285	21.16
288.5	72.36
288.715	127.66
288.93	29.35
289.145	-17.75
289.36	37.55
289.575	35.5
289.79	98.99
290.004	43.69
290.219	133.8
290.434	-17.75
290.649	-9.56
290.864	53.93
291.079	0.68
291.294	76.46
291.509	123.56
291.724	17.07
291.938	49.83
292.153	74.41
292.368	-9.56
292.583	2.73
292.798	12.97
293.012	-40.28
293.227	19.11
293.442	-30.04
293.657	133.8
293.871	66.22
294.086	19.11
294.301	115.37
294.516	137.9
294.73	76.46
294.945	47.79
295.16	51.88
295.374	53.93
295.589	8.87
295.804	6.83
296.018	10.92
296.233	88.75
296.447	8.87
296.662	31.4
296.877	96.94
297.091	35.5
297.306	55.98
297.52	-3.41
297.735	31.4
297.949	47.79
298.164	45.74
298.378	117.42
298.593	62.12
298.807	35.5
299.022	43.69
299.236	92.84
299.451	35.5
299.665	55.98
299.88	70.31
300.094	49.83
300.309	74.41
300.523	37.55
300.737	37.55
300.952	62.12
301.166	64.17
301.381	-38.23
301.595	6.83
301.809	60.07
302.024	90.79
302.238	4.78
302.452	101.03
302.667	-3.41
302.881	92.84
303.095	66.22
303.309	80.55
303.524	-13.65
303.738	25.26
303.952	23.21
304.166	62.12
304.381	-15.7
304.595	119.46
304.809	8.87
305.023	35.5
305.237	64.17
305.452	2.73
305.666	43.69
305.88	117.42
306.094	127.66
306.308	62.12
306.522	62.12
306.736	135.85
306.95	53.93
307.164	12.97
307.379	0.68
307.593	76.46
307.807	105.13
308.021	121.51
308.235	125.61
308.449	82.6
308.663	51.88
308.877	64.17
309.091	33.45
309.305	115.37
309.519	-64.85
309.733	74.41
309.947	-34.13
310.161	82.6
310.374	37.55
310.588	117.42
310.802	31.4
311.016	111.27
311.23	8.87
311.444	64.17
311.658	12.97
311.872	68.27
312.085	19.11
312.299	111.27
312.513	19.11
312.727	25.26
312.941	-3.41
313.154	17.07
313.368	53.93
313.582	15.02
313.796	37.55
314.009	10.92
314.223	60.07
314.437	68.27
314.651	68.27
314.864	72.36
315.078	78.51
315.292	-34.13
315.505	82.6
315.719	74.41
315.933	107.18
316.146	27.31
316.36	-11.61
316.573	119.46
316.787	76.46
317.001	105.13
317.214	-36.18
317.428	66.22
317.641	90.79
317.855	47.79
318.068	98.99
318.282	96.94
318.495	53.93
318.709	41.64
318.922	49.83
319.136	84.65
319.349	90.79
319.563	41.64
319.776	-1.37
319.99	-19.8
320.203	72.36
320.417	45.74
320.63	68.27
320.843	98.99
321.057	90.79
321.27	2.73
321.483	72.36
321.697	105.13
321.91	111.27
322.124	80.55
322.337	37.55
322.55	33.45
322.763	125.61
322.977	31.4
323.19	88.75
323.403	51.88
323.617	25.26
323.83	103.08
324.043	45.74
324.256	68.27
324.469	55.98
324.683	94.89
324.896	-7.51
325.109	49.83
325.322	-1.37
325.535	4.78
325.748	58.03
325.962	21.16
326.175	82.6
326.388	37.55
326.601	94.89
326.814	23.21
327.027	41.64
327.24	80.55
327.453	33.45
327.666	74.41
327.879	80.55
328.092	121.51
328.305	43.69
328.518	33.45
328.731	45.74
328.944	55.98
329.157	49.83
329.37	47.79
329.583	33.45
329.796	158.38
330.009	-13.65
330.222	82.6
330.435	31.4
330.648	105.13
330.861	35.5
331.073	58.03
331.286	94.89
331.499	8.87
331.712	10.92
331.925	62.12
332.138	76.46
332.35	88.75
332.563	17.07
332.776	41.64
332.989	23.21
333.202	27.31
333.414	76.46
333.627	66.22
333.84	37.55
334.053	21.16
334.265	4.78
334.478	37.55
334.691	-9.56
334.903	74.41
335.116	66.22
335.329	66.22
335.541	21.16
335.754	92.84
335.966	64.17
336.179	78.51
336.392	21.16
336.604	78.51
336.817	115.37
337.029	51.88
337.242	53.93
337.454	68.27
337.667	123.56
337.88	117.42
338.092	76.46
338.305	72.36
338.517	-36.18
338.729	80.55
338.942	160.42
339.154	10.92
339.367	45.74
339.579	-5.46
339.792	51.88
340.004	60.07
340.217	62.12
340.429	139.94
340.641	33.45
340.854	43.69
341.066	47.79
341.278	174.76
341.491	156.33
341.703	82.6
341.915	82.6
342.128	58.03
342.34	-1.37
342.552	6.83
342.764	8.87
342.977	125.61
343.189	-5.46
343.401	121.51
343.613	-62.8
343.826	115.37
344.038	12.97
344.25	39.59
344.462	55.98
344.674	90.79
344.886	31.4
345.099	86.7
345.311	39.59
345.523	-7.51
345.735	90.79
345.947	76.46
346.159	78.51
346.371	39.59
346.583	101.03
346.795	182.95
347.007	39.59
347.219	19.11
347.431	37.55
347.643	64.17
347.855	62.12
348.067	68.27
348.279	15.02
348.491	47.79
348.703	68.27
348.915	-1.37
349.127	23.21
349.339	70.31
349.551	35.5
349.763	146.09
349.975	55.98
350.187	74.41
350.399	0.68
350.61	33.45
350.822	47.79
351.034	45.74
351.246	64.17
351.458	92.84
351.669	-23.89
351.881	51.88
352.093	94.89
352.305	156.33
352.517	82.6
352.728	162.47
352.94	64.17
353.152	27.31
353.363	70.31
353.575	31.4
353.787	98.99
353.999	170.66
354.21	27.31
354.422	-1.37
354.633	70.31
354.845	4.78
355.057	19.11
355.268	129.7
355.48	74.41
355.692	8.87
355.903	58.03
356.115	31.4
356.326	62.12
356.538	117.42
356.749	10.92
356.961	101.03
357.172	78.51
357.384	-13.65
357.595	105.13
357.807	4.78
358.018	45.74
358.23	37.55
358.441	47.79
358.653	90.79
358.864	107.18
359.075	10.92
359.287	29.35
359.498	41.64
359.709	8.87
359.921	17.07
360.132	35.5
360.344	25.26
360.555	2.73
360.766	86.7
360.977	-3.41
361.189	80.55
361.4	8.87
361.611	105.13
361.823	135.85
362.034	101.03
362.245	39.59
362.456	80.55
362.667	45.74
362.879	90.79
363.09	62.12
363.301	74.41
363.512	74.41
363.723	31.4
363.935	92.84
364.146	141.99
364.357	49.83
364.568	94.89
364.779	86.7
364.99	23.21
365.201	92.84
365.412	60.07
365.623	0.68
365.834	113.32
366.045	105.13
366.256	92.84
366.467	41.64
366.678	31.4
366.889	12.97
367.1	88.75
367.311	107.18
367.522	23.21
367.733	109.23
367.944	55.98
368.155	43.69
368.366	125.61
368.577	139.94
368.788	131.75
368.999	-40.28
369.209	39.59
369.42	123.56
369.631	84.65
369.842	53.93
370.053	62.12
370.264	62.12
370.474	15.02
370.685	78.51
370.896	47.79
371.107	72.36
371.317	6.83
371.528	15.02
371.739	49.83
371.95	51.88
372.16	80.55
372.371	64.17
372.582	58.03
372.792	88.75
373.003	74.41
373.214	105.13
373.424	133.8
373.635	-36.18
373.846	101.03
374.056	33.45
374.267	23.21
374.477	43.69
374.688	82.6
374.898	41.64
375.109	103.08
375.319	133.8
375.53	84.65
375.74	21.16
375.951	98.99
376.161	45.74
376.372	98.99
376.582	21.16
376.793	60.07
377.003	15.02
377.214	55.98
377.424	64.17
377.635	92.84
377.845	17.07
378.055	109.23
378.266	47.79
378.476	78.51
378.686	78.51
378.897	76.46
379.107	55.98
379.317	105.13
379.528	29.35
379.738	78.51
379.948	0.68
380.158	146.09
380.369	96.94
380.579	39.59
380.789	66.22
380.999	115.37
381.21	98.99
381.42	74.41
381.63	15.02
381.84	90.79
382.05	49.83
382.261	43.69
382.471	156.33
382.681	90.79
382.891	29.35
383.101	78.51
383.311	35.5
383.521	37.55
383.731	84.65
383.941	141.99
384.151	4.78
384.361	49.83
384.571	72.36
384.781	148.14
384.991	135.85
385.201	43.69
385.411	152.23
385.621	72.36
385.831	45.74
386.041	84.65
386.251	90.79
386.461	109.23
386.671	101.03
386.881	174.76
387.091	35.5
387.301	109.23
387.511	47.79
387.72	135.85
387.93	107.18
388.14	43.69
388.35	80.55
388.56	49.83
388.769	160.42
388.979	119.46
389.189	19.11
389.399	49.83
389.609	33.45
389.818	133.8
390.028	76.46
390.238	119.46
390.447	10.92
390.657	103.08
390.867	115.37
391.076	15.02
391.286	-15.7
391.496	74.41
391.705	49.83
391.915	84.65
392.125	74.41
392.334	47.79
392.544	129.7
392.753	80.55
392.963	35.5
393.172	70.31
393.382	23.21
393.591	141.99
393.801	41.64
394.01	51.88
394.22	58.03
394.429	82.6
394.639	88.75
394.848	125.61
395.058	84.65
395.267	17.07
395.477	35.5
395.686	107.18
395.895	139.94
396.105	199.34
396.314	45.74
396.524	78.51
396.733	98.99
396.942	162.47
397.152	137.9
397.361	158.38
397.57	139.94
397.78	98.99
397.989	70.31
398.198	152.23
398.407	133.8
398.617	49.83
398.826	107.18
399.035	35.5
399.244	115.37
399.453	148.14
399.663	135.85
399.872	109.23
400.081	107.18
400.29	135.85
400.499	84.65
400.708	76.46
400.917	47.79
401.127	64.17
401.336	113.32
401.545	185
401.754	115.37
401.963	51.88
402.172	105.13
402.381	47.79
402.59	-5.46
402.799	162.47
403.008	121.51
403.217	164.52
403.426	152.23
403.635	113.32
403.844	127.66
404.053	174.76
404.262	94.89
404.471	166.57
404.68	96.94
404.888	88.75
405.097	115.37
405.306	119.46
405.515	141.99
405.724	113.32
405.933	154.28
406.142	107.18
406.35	113.32
406.559	119.46
406.768	154.28
406.977	248.49
407.185	201.38
407.394	189.1
407.603	119.46
407.812	162.47
408.02	219.82
408.229	205.48
408.438	172.71
408.646	164.52
408.855	230.06
409.064	250.53
409.272	211.62
409.481	268.97
409.69	199.34
409.898	230.06
410.107	344.74
410.315	260.77
410.524	273.06
410.733	264.87
410.941	203.43
411.15	275.11
411.358	297.64
411.567	379.56
411.775	240.3
411.984	311.97
412.192	389.8
412.401	318.12
412.609	375.46
412.818	406.18
413.026	367.27
413.234	422.56
413.443	445.09
413.651	348.84
413.86	447.14
414.068	410.28
414.276	477.86
414.485	467.62
414.693	613.03
414.901	492.2
415.11	541.35
415.318	574.11
415.526	580.26
415.734	625.31
415.943	596.64
416.151	662.18
416.359	514.72
416.567	641.7
416.776	664.22
416.984	682.66
417.192	828.06
417.4	774.81
417.608	703.14
417.817	688.8
418.025	852.64
418.233	860.83
418.441	823.97
418.649	936.6
418.857	944.8
419.065	1026.71
419.273	856.73
419.481	1098.39
419.689	1110.68
419.897	1217.18
420.105	1149.59
420.313	1153.69
420.521	1233.56
420.729	1233.56
420.937	1311.38
421.145	1290.9
421.353	1522.32
421.561	1485.46
421.769	1448.6
421.977	1596.05
422.185	1434.26
422.393	1649.3
422.601	1786.51
422.809	1624.72
423.017	1577.62
423.224	1841.81
423.432	1870.48
423.64	1841.81
423.848	2044.56
424.056	1960.59
424.263	2083.47
424.471	2042.51
424.679	2173.58
424.887	2251.4
425.094	2253.45
425.302	2318.98
425.51	2468.48
425.718	2497.16
425.925	2491.01
426.133	2663.04
426.341	2722.43
426.548	2939.52
426.756	2886.27
426.964	2937.47
427.171	3162.75
427.379	3172.99
427.586	3226.23
427.794	3342.97
428.001	3517.05
428.209	3678.83
428.417	3721.84
428.624	3787.38
428.832	3906.16
429.039	3830.38
429.247	3844.72
429.454	4145.77
429.662	4446.82
429.869	4160.11
430.076	4489.83
430.284	4242.03
430.491	4467.3
430.699	4782.69
430.906	4719.2
431.114	4778.59
431.321	5014.11
431.528	5128.8
431.736	5384.79
431.943	5724.76
432.15	5587.54
432.358	5669.46
432.565	5909.07
432.772	5902.93
432.979	6228.56
433.187	6337.1
433.394	6242.89
433.601	6816.32
433.808	6543.94
434.016	6672.96
434.223	7045.7
434.43	7522.87
434.637	7287.36
434.844	7930.42
435.052	7924.27
435.259	7938.61
435.466	7848.5
435.673	8084.02
435.88	8297
436.087	8608.3
436.294	8852
436.501	8645.16
436.708	8866.34
436.915	9040.42
437.122	9546.26
437.329	9374.24
437.537	9789.97
437.743	10033.68
437.95	9943.57
438.157	10224.14
438.364	10779.14
438.571	10738.18
438.778	10854.92
438.985	11639.29
439.192	11364.86
439.399	11690.49
439.606	11426.3
439.813	12022.26
440.02	12964.32
440.227	12610.03
440.433	12431.85
440.64	12906.98
440.847	12775.91
441.054	13171.17
441.261	13957.59
441.467	13777.37
441.674	14283.22
441.881	14537.16
442.088	14651.85
442.294	14402
442.501	15086.02
442.708	15169.99
442.914	15841.72
443.121	16583.09
443.328	16048.57
443.534	17039.78
443.741	16488.88
443.948	16390.58
444.154	17586.59
444.361	17531.3
444.568	17842.59
444.774	17938.84
444.981	17783.2
445.187	18602.38
445.394	19165.57
445.6	18930.06
445.807	20803.95
446.013	19798.4
446.22	20152.7
446.426	21213.54
446.633	21057.9
446.839	22102.36
447.046	21066.09
447.252	22169.94
447.459	22479.19
447.665	22307.16
447.871	23085.39
448.078	24305.98
448.284	22948.17
448.491	23722.3
448.697	24523.06
448.903	25026.86
449.11	25116.97
449.316	24828.21
449.522	25014.57
449.728	25989.41
449.935	25790.75
450.141	25811.23
450.347	26781.97
450.553	25590.05
450.76	25864.48
450.966	27040.01
451.172	26681.62
451.378	27244.81
451.584	26880.27
451.791	27506.95
451.997	27099.41
452.203	27629.83
452.409	27744.52
452.615	27760.9
452.821	26648.85
453.027	26378.52
453.233	27791.62
453.44	26687.76
453.646	26865.94
453.852	26867.98
454.058	27240.72
454.264	26544.41
454.47	27101.45
454.676	26210.59
454.882	27304.2
455.088	24846.64
455.294	25420.07
455.5	25729.31
455.705	25983.26
455.911	24772.91
456.117	24113.47
456.323	24060.22
456.529	22567.25
456.735	23632.19
456.941	23152.97
457.147	22698.32
457.352	21832.03
457.558	21887.32
457.764	21721.44
457.97	21434.72
458.176	20980.07
458.381	21023.08
458.587	20136.31
458.793	19995
458.999	18868.62
459.204	19976.57
459.41	19489.15
459.616	18416.02
459.821	18454.93
460.027	18149.78
460.233	17643.93
460.438	16925.1
460.644	17580.45
460.85	16505.26
461.055	16107.96
461.261	16126.39
461.466	14957
461.672	14604.75
461.878	15286.72
462.083	14653.9
462.289	14189.01
462.494	14170.58
462.7	13230.56
462.905	13132.26
463.111	13656.54
463.316	13685.21
463.522	13128.16
463.727	13515.23
463.932	13253.09
464.138	13201.89
464.343	13238.75
464.549	12806.63
464.754	13079.01
464.959	13187.55
465.165	13023.72
465.37	12163.57
465.575	12171.76
465.781	12409.33
465.986	12775.91
466.191	12003.83
466.397	11975.16
466.602	11500.03
466.807	11751.93
467.012	11868.66
467.218	11674.1
467.423	11717.11
467.628	11676.15
467.833	12360.17
468.038	11815.41
468.244	11489.79
468.449	12012.02
468.654	11561.47
468.859	11270.65
469.064	11135.49
469.269	10781.19
469.474	11051.52
469.679	11059.71
469.885	10785.29
470.09	10996.23
470.295	10865.16
470.5	10697.22
470.705	10598.92
470.91	10545.67
471.115	10344.97
471.32	10416.65
471.525	10467.85
471.73	10322.45
471.935	10019.35
472.139	9818.64
472.344	10105.36
472.549	9728.53
472.754	9744.92
472.959	9634.33
473.164	9167.39
473.369	9323.04
473.574	9658.9
473.778	9402.91
473.983	9337.37
474.188	9482.78
474.393	8829.48
474.598	9056.8
474.802	8860.2
475.007	8829.48
475.212	8673.83
475.417	8497.7
475.621	8725.03
475.826	8448.55
476.031	8313.39
476.235	8176.17
476.44	8329.77
476.645	8264.24
476.849	8135.21
477.054	8122.93
477.259	8043.06
477.463	7832.12
477.668	7768.63
477.872	7930.42
478.077	7529.02
478.282	7440.95
478.486	7469.62
478.691	7399.99
478.895	7451.19
479.1	7334.46
479.304	7391.8
479.509	7160.38
479.713	7289.4
479.918	7078.46
480.122	7084.61
480.326	7103.04
480.531	7197.24
480.735	7109.18
480.94	7057.98
481.144	7213.63
481.348	6881.86
481.553	6906.43
481.757	6857.28
481.961	6867.52
482.166	6783.56
482.37	6844.99
482.574	6820.42
482.778	7090.75
482.983	6890.05
483.187	6904.39
483.391	6910.53
483.595	6832.71
483.8	6785.6
484.004	6990.4
484.208	6789.7
484.412	6859.33
484.616	6783.56
484.821	6912.58
485.025	6558.28
485.229	6881.86
485.433	6767.17
485.637	6838.85
485.841	6783.56
486.045	6840.9
486.249	6804.03
486.453	6871.62
486.657	6863.43
486.861	6840.9
487.065	6810.18
487.269	6842.95
487.473	6722.12
487.677	6935.1
487.881	6896.19
488.085	6892.1
488.289	6812.23
488.493	6867.52
488.697	7076.41
488.901	6816.32
489.105	6830.66
489.309	6828.61
489.512	6955.58
489.716	6994.5
489.92	6808.13
490.124	6974.02
490.328	7074.37
490.531	7037.5
490.735	7074.37
490.939	7064.13
491.143	6898.24
491.346	6990.4
491.55	7129.66
491.754	7109.18
491.958	7250.49
492.161	7109.18
492.365	7170.62
492.569	7103.04
492.772	7371.32
492.976	7326.27
493.18	7379.51
493.383	7477.82
493.587	7639.61
493.79	7617.08
493.994	7363.13
494.197	7547.45
494.401	7612.98
494.605	7514.68
494.808	7574.07
495.012	7600.69
495.215	7871.03
495.419	7834.16
495.622	7866.93
495.825	7952.95
496.029	7989.81
496.232	8098.35
496.436	8120.88
496.639	8305.2
496.843	8215.09
497.046	8520.23
497.249	8682.02
497.453	8563.24
497.656	8569.38
497.859	8696.36
498.063	8610.34
498.266	8858.15
498.469	8952.35
498.673	8856.1
498.876	9011.75
499.079	9169.44
499.282	9247.26
499.485	9576.98
499.689	9730.58
499.892	9812.5
500.095	9519.64
500.298	9923.09
500.501	9613.85
500.705	10170.9
500.908	10269.2
501.111	10359.31
501.314	10535.43
501.517	10586.63
501.72	10879.49
501.923	10686.98
502.126	11117.06
502.329	11207.17
502.532	11000.32
502.735	11192.83
502.938	11334.14
503.141	11450.88
503.344	11801.08
503.547	11721.21
503.75	11989.49
503.953	12018.16
504.156	12251.63
504.359	12288.5
504.562	12016.12
504.765	12616.17
504.968	12679.66
505.17	13005.28
505.373	12630.51
505.576	13177.31
505.779	13193.7
505.982	13543.9
506.185	13609.43
506.387	13787.61
506.59	13826.52
506.793	13892.05
506.996	14066.13
507.198	14356.94
507.401	14320.08
507.604	14719.43
507.807	14791.11
508.009	14868.94
508.212	14922.18
508.415	15059.4
508.617	15589.82
508.82	15649.21
509.022	15466.94
509.225	16003.51
509.428	16028.09
509.63	16095.67
509.833	16210.36
510.035	17066.41
510.238	16630.19
510.44	16841.13
510.643	17215.91
510.845	17381.79
511.048	17344.93
511.25	17537.44
511.453	17596.83
511.655	18348.43
511.858	17850.78
512.06	18596.24
512.262	18684.3
512.465	18420.11
512.667	19102.09
512.87	19265.92
513.072	19378.56
513.274	19681.66
513.477	19562.88
513.679	19841.4
513.881	20267.38
514.084	20439.41
514.286	20199.8
514.488	20578.67
514.69	21074.28
514.893	21307.75
515.095	21623.14
515.297	21647.71
515.499	21690.72
515.701	21838.17
515.904	22614.35
516.106	22298.97
516.308	22798.67
516.51	22927.69
516.712	22831.44
516.914	23494.98
517.116	23621.95
517.318	23744.83
517.52	24023.36
517.722	24174.91
517.925	24596.79
518.127	24756.53
518.329	24805.68
518.531	24873.26
518.733	25411.88
518.935	25389.35
519.136	25749.79
519.338	26059.04
519.54	26394.9
519.742	26573.08
519.944	26638.61
520.146	27234.57
520.348	27056.4
520.55	27615.49
520.752	27179.28
520.954	27631.88
521.155	27998.46
521.357	28543.22
521.559	28678.39
521.761	28956.91
521.963	29024.5
522.164	29174
522.366	29649.13
522.568	29671.65
522.77	29614.31
522.971	30187.74
523.173	29819.11
523.375	30750.93
523.576	30755.03
523.778	30752.98
523.98	31133.9
524.181	31189.2
524.383	31355.08
524.584	31402.19
524.786	31852.74
524.988	31830.21
525.189	32526.52
525.391	32618.68
525.592	32612.54
525.794	32831.67
525.995	33130.67
526.197	33159.34
526.398	32757.94
526.6	33691.82
526.801	33532.07
527.003	33579.18
527.204	33960.1
527.406	34336.93
527.607	34410.65
527.808	34619.55
528.01	34017.44
528.211	34535.58
528.412	35039.38
528.614	34697.37
528.815	34832.54
529.016	35428.49
529.218	35088.53
529.419	35088.53
529.62	35104.92
529.822	35315.86
530.023	35436.69
530.224	35790.98
530.425	35833.99
530.626	35330.19
530.828	35614.86
531.029	36241.54
531.23	35895.43
531.431	35766.41
531.632	36159.62
531.833	36292.74
532.035	36354.18
532.236	36651.13
532.437	36495.49
532.638	36038.79
532.839	36481.15
533.04	36532.35
533.241	36227.2
533.442	37132.4
533.643	36366.46
533.844	36823.16
534.045	37077.11
534.246	36507.77
534.447	37159.03
534.648	36661.37
534.849	37081.2
535.05	36335.74
535.251	36960.37
535.451	36606.08
535.652	37165.17
535.853	37116.02
536.054	36915.32
536.255	36696.19
536.456	36739.19
536.657	37656.68
536.857	36958.33
537.058	36575.36
537.259	37165.17
537.46	36903.03
537.66	36812.92
537.861	36929.66
538.062	37003.38
538.263	37005.43
538.463	37038.2
538.664	37304.43
538.865	37238.9
539.065	37376.11
539.266	36841.59
539.466	37451.89
539.667	36837.5
539.868	37380.21
540.068	36980.85
540.269	37455.98
540.469	37179.51
540.67	36964.47
540.87	37212.27
541.071	36896.89
541.271	37044.34
541.472	37030.01
541.672	36706.43
541.873	37013.62
542.073	36386.94
542.274	36941.94
542.474	37030.01
542.675	36905.08
542.875	36872.31
543.075	36886.65
543.276	36628.6
543.476	37097.59
543.676	36520.06
543.877	37009.53
544.077	37177.46
544.277	36954.23
544.478	36644.99
544.678	36870.26
544.878	36728.95
545.078	36868.22
545.279	36577.4
545.479	36735.1
545.679	37079.16
545.879	37019.77
546.079	36706.43
546.28	36728.95
546.48	36403.33
546.68	36755.58
546.88	37140.6
547.08	36853.88
547.28	36771.96
547.48	36356.22
547.68	37093.49
547.88	36563.07
548.081	36763.77
548.281	36790.39
548.481	36610.17
548.681	36984.95
548.881	36915.32
549.081	36712.57
549.28	36663.42
549.48	36909.18
549.68	36919.42
549.88	36941.94
550.08	36348.03
550.28	36866.17
550.48	36372.61
550.68	36749.43
550.88	36524.16
551.08	36763.77
551.279	36585.6
551.479	36319.36
551.679	36571.26
551.879	36571.26
552.079	37097.59
552.278	36710.52
552.478	36831.35
552.678	36419.71
552.878	36835.45
553.077	36503.68
553.277	36188.29
553.477	36991.09
553.676	36370.56
553.876	36384.9
554.076	35913.86
554.275	36071.56
554.475	35885.19
554.674	36423.81
554.874	36274.31
555.074	35924.1
555.273	36173.95
555.473	36315.26
555.672	35672.2
555.872	35793.03
556.071	36096.13
556.271	36016.26
556.47	35870.86
556.67	35340.43
556.869	35633.29
557.068	35907.72
557.268	35471.5
557.467	36022.4
557.667	35661.96
557.866	35780.74
558.065	35602.57
558.265	35371.15
558.464	35123.35
558.663	35879.05
558.863	34678.94
559.062	35297.42
559.261	34949.27
559.461	35371.15
559.66	34822.3
559.859	34785.43
560.058	34431.13
560.258	35025.04
560.457	34594.97
560.656	34957.46
560.855	34545.82
561.054	34723.99
561.253	34293.92
561.453	34338.97
561.652	34556.06
561.851	34347.17
562.05	34066.59
562.249	33904.81
562.448	34144.42
562.647	33814.69
562.846	33900.71
563.045	34130.08
563.244	33802.41
563.443	34117.79
563.642	33380.53
563.841	33454.25
564.04	33261.74
564.239	33616.04
564.438	33015.99
564.637	33061.04
564.836	33317.04
565.035	32794.81
565.234	33407.15
565.432	32630.97
565.631	32841.91
565.83	32872.63
566.029	32592.06
566.228	32712.89
566.427	32475.32
566.625	32512.19
566.824	31885.51
567.023	32446.65
567.222	31596.74
567.42	32331.97
567.619	31895.75
567.818	31840.45
568.016	31695.05
568.215	31858.88
568.414	31424.72
568.612	31594.7
568.811	31221.97
569.01	31494.35
569.208	31135.95
569.407	31320.27
569.605	31004.88
569.804	31129.81
570.002	30632.15
570.201	30726.36
570.4	30576.86
570.598	30333.15
570.797	30404.83
570.995	30433.5
571.193	29890.79
571.392	30240.99
571.59	29946.08
571.789	30206.17
571.987	30038.24
572.186	29847.78
572.384	29294.83
572.582	29624.55
572.781	29817.06
572.979	29266.16
573.177	29241.58
573.376	29481.19
573.574	28928.24
573.772	29300.97
573.971	28780.79
574.169	28524.79
574.367	28633.33
574.565	28686.58
574.763	28424.44
574.962	28299.51
575.16	28160.25
575.358	28492.02
575.556	28074.24
575.754	28602.61
575.952	27896.06
576.151	28305.66
576.349	27652.36
576.547	28020.99
576.745	28025.09
576.943	27539.72
577.141	27525.38
577.339	28064
577.537	27322.63
577.735	27253
577.933	27052.3
578.131	26962.19
578.329	26896.66
578.527	26573.08
578.725	26687.76
578.923	26802.45
579.121	26503.45
579.319	26425.62
579.516	26534.17
579.714	26585.37
579.912	26657.04
580.11	26190.11
580.308	26278.17
580.506	25897.25
580.704	25819.42
580.901	26093.85
581.099	26272.03
581.297	25776.42
581.495	25579.81
581.692	25930.01
581.89	25440.55
582.088	25579.81
582.285	25303.34
582.483	25235.75
582.681	25299.24
582.878	24887.6
583.076	25129.26
583.274	25180.46
583.471	24910.13
583.669	24703.28
583.866	24729.91
584.064	24664.37
584.262	24553.78
584.459	24813.87
584.657	24564.02
584.854	24840.5
585.052	24195.39
585.249	24246.58
585.447	24189.24
585.644	23765.31
585.841	23929.15
586.039	24377.65
586.236	23755.07
586.434	23855.42
586.631	23658.82
586.828	23906.62
587.026	23656.77
587.223	23642.43
587.42	23558.47
587.618	23281.99
587.815	23314.76
588.012	23279.94
588.21	23228.74
588.407	23212.36
588.604	23126.35
588.801	22751.57
588.999	22950.22
589.196	23036.24
589.393	22645.07
589.59	22665.55
589.787	22620.5
589.984	22530.39
590.182	22034.78
590.379	22624.59
590.576	22341.97
590.773	22081.88
590.97	22192.47
591.167	22133.08
591.364	21696.86
591.561	22161.75
591.758	21743.97
591.955	21594.47
592.152	21832.03
592.349	21588.32
592.546	21897.56
592.743	21430.63
592.94	21354.85
593.137	21555.55
593.334	21524.83
593.531	21387.62
593.727	21424.48
593.924	21100.9
594.121	21111.14
594.318	21336.42
594.515	20904.3
594.712	21242.21
594.908	20711.79
595.105	20662.64
595.302	20728.17
595.499	20885.87
595.696	20939.12
595.892	20451.7
596.089	20535.67
596.286	20812.14
596.482	20314.48
596.679	20380.02
596.876	20359.54
597.072	20171.13
597.269	20117.88
597.466	19818.88
597.662	19720.57
597.859	19990.91
598.055	19921.27
598.252	19790.2
598.448	19779.96
598.645	19730.81
598.841	19536.26
599.038	19556.74
599.234	19452.29
599.431	19290.5
599.627	19315.08
599.824	19308.93
600.02	19157.38
600.217	19300.74
600.413	18997.64
600.609	19085.7
600.806	19233.16
601.002	19202.44
601.198	18821.52
601.395	18692.49
601.591	18727.31
601.787	18952.59
601.984	18698.64
602.18	18618.77
602.376	18534.8
602.572	18397.59
602.769	18379.15
602.965	18323.86
603.161	18215.32
603.357	18358.67
603.553	18299.28
603.75	18233.75
603.946	18108.82
604.142	18237.84
604.338	17654.17
604.534	17987.99
604.73	17828.25
604.926	17762.72
605.122	17662.37
605.318	17506.72
605.514	17523.1
605.71	17648.03
605.906	17719.71
606.102	17553.82
606.298	17539.49
606.494	17476
606.69	17379.75
606.886	17158.56
607.082	17414.56
607.278	17201.57
607.474	16796.07
607.67	17002.92
607.866	17015.21
608.062	16972.2
608.257	16931.24
608.453	16855.47
608.649	16873.9
608.845	16900.52
609.041	16748.97
609.236	16830.89
609.432	16628.14
609.628	16718.25
609.824	16566.7
610.019	16460.21
610.215	16773.55
610.411	16525.74
610.606	16470.45
610.802	16368.05
610.998	16265.65
611.193	16343.47
611.389	16255.41
611.584	16222.64
611.78	15960.5
611.976	16216.5
612.171	15991.22
612.367	15919.54
612.562	16155.06
612.758	15731.13
612.953	15872.44
613.149	15937.98
613.344	15802.81
613.539	15886.78
613.735	15739.32
613.93	15718.84
614.126	15587.77
614.321	15972.79
614.517	15800.76
614.712	15493.57
614.907	15595.96
615.103	15731.13
615.298	15456.7
615.493	15522.24
615.688	15178.18
615.884	15636.92
616.079	15274.43
616.274	15479.23
616.47	15452.61
616.665	15346.11
616.86	14971.33
617.055	15284.67
617.25	15131.08
617.445	15356.35
617.641	14856.65
617.836	15239.62
618.031	14944.71
618.226	15002.05
618.421	14922.18
618.616	14961.09
618.811	14576.08
619.006	14809.54
619.201	14465.49
619.396	14744.01
619.591	14518.73
619.786	14610.89
619.981	14350.8
620.176	14508.49
620.371	14449.1
620.566	14191.06
620.761	14201.3
620.956	14197.2
621.151	13969.88
621.346	14014.93
621.541	13842.9
621.735	13945.3
621.93	13498.84
622.125	13728.22
622.32	13562.33
622.515	13631.96
622.709	13627.87
622.904	13316.58
623.099	13332.96
623.294	13335.01
623.488	13359.58
623.683	13195.75
623.878	13079.01
624.072	13234.66
624.267	12847.59
624.462	12849.64
624.656	12610.03
624.851	12812.78
625.046	12681.71
625.24	12478.96
625.435	12657.13
625.629	12466.67
625.824	12722.66
626.018	12601.83
626.213	12050.93
626.407	12331.5
626.602	11975.16
626.796	12141.04
626.991	12085.75
627.185	12071.41
627.38	11966.96
627.574	11874.81
627.768	11704.82
627.963	11653.62
628.157	11661.82
628.352	11733.5
628.546	11227.65
628.74	11321.85
628.935	11405.82
629.129	11256.32
629.323	11282.94
629.517	11201.02
629.712	11043.33
629.906	11018.75
630.1	10705.42
630.294	10910.21
630.489	10883.59
630.683	10912.26
630.877	10877.44
631.071	10615.3
631.265	10787.33
631.459	10453.52
631.653	10531.34
631.848	10461.71
632.042	10443.28
632.236	10433.04
632.43	10322.45
632.624	10398.22
632.818	9994.77
633.012	10256.91
633.206	10195.47
633.4	10054.16
633.594	10052.11
633.788	10052.11
633.982	9789.97
634.176	9984.53
634.369	10019.35
634.563	9794.07
634.757	9677.33
634.951	9724.44
635.145	9583.13
635.339	9437.72
635.533	9470.49
635.726	9488.92
635.92	9409.05
636.114	9269.79
636.308	9396.76
636.501	9251.36
636.695	9255.45
636.889	8952.35
637.083	9103.9
637.276	9159.2
637.47	8923.68
637.664	9097.76
637.857	8913.44
638.051	8858.15
638.244	8714.79
638.438	8737.32
638.632	8837.67
638.825	8679.97
639.019	8524.33
639.212	8501.8
639.406	8614.44
639.599	8444.46
639.793	8452.65
639.986	8307.24
640.18	8294.96
640.373	8411.69
640.567	8210.99
640.76	8258.09
640.954	8118.83
641.147	8151.6
641.34	8100.4
641.534	8167.98
641.727	7967.28
641.92	8012.34
642.114	7817.78
642.307	7709.24
642.5	7717.43
642.694	7651.89
642.887	7670.33
643.08	7973.42
643.273	7576.12
643.467	7705.14
643.66	7346.75
643.853	7443
644.046	7408.19
644.239	7281.21
644.432	7445.05
644.626	7191.1
644.819	7053.89
645.012	7377.47
645.205	7184.96
645.398	7174.72
645.591	7242.3
645.784	7045.7
645.977	6855.23
646.17	7072.32
646.363	6902.34
646.556	6861.38
646.749	6799.94
646.942	6750.79
647.135	6863.43
647.328	7010.88
647.521	6871.62
647.714	6718.02
647.907	6652.49
648.099	6672.96
648.292	6611.53
648.485	6611.53
648.678	6488.65
648.871	6433.35
649.064	6441.54
649.256	6584.9
649.449	6376.01
649.642	6482.5
649.835	6394.44
650.027	6312.52
650.22	6253.13
650.413	6122.06
650.605	6253.13
650.798	6054.48
650.991	6326.86
651.183	6232.65
651.376	6044.24
651.568	6163.02
651.761	6095.44
651.954	5941.84
652.146	5896.78
652.339	5943.89
652.531	5915.22
652.724	5964.37
652.916	5622.36
653.109	5745.23
653.301	5687.89
653.494	5821.01
653.686	5704.28
653.879	5751.38
654.071	5585.49
654.263	5511.77
654.456	5687.89
654.648	5577.3
654.84	5476.95
655.033	5491.29
655.225	5519.96
655.417	5546.58
655.61	5710.42
655.802	5276.25
655.994	5382.74
656.186	5372.5
656.379	5319.26
656.571	5282.39
656.763	5227.1
656.955	5325.4
657.148	5360.22
657.34	5210.72
657.532	5286.49
657.724	5102.17
657.916	5091.93
658.108	5192.28
658.3	5085.79
658.492	5091.93
658.684	5114.46
658.876	5050.97
659.068	4829.79
659.26	4850.27
659.452	5005.92
659.644	4940.38
659.836	4987.49
660.028	4909.66
660.22	4625
660.412	4737.63
660.604	4668
660.796	4764.26
660.988	4729.44
661.18	4778.59
661.372	4643.43
661.563	4682.34
661.755	4663.91
661.947	4588.13
662.139	4561.51
662.331	4575.84
662.522	4461.16
662.714	4659.81
662.906	4524.65
663.097	4397.67
663.289	4438.63
663.481	4434.53
663.673	4477.54
663.864	4545.13
664.056	4467.3
664.247	4280.94
664.439	4307.56
664.631	4455.01
664.822	4280.94
665.014	4352.62
665.205	4422.25
665.397	4221.55
665.588	4293.23
665.78	4242.03
665.971	4268.65
666.163	4207.21
666.354	4221.55
666.546	4254.31
666.737	4024.94
666.929	4108.91
667.12	4135.53
667.311	4217.45
667.503	4045.42
667.694	4166.25
667.885	4100.72
668.077	4119.15
668.268	4182.63
668.459	4102.76
668.651	4151.92
668.842	3906.16
669.033	3975.79
669.224	4078.19
669.416	4018.8
669.607	4041.32
669.798	3818.1
669.989	4115.05
670.18	3727.99
670.371	3863.15
670.563	3809.9
670.754	4010.61
670.945	3953.26
671.136	3940.97
671.327	3840.62
671.518	3949.17
671.709	3910.25
671.9	3859.06
672.091	3910.25
672.282	3893.87
672.473	3791.47
672.664	3838.58
672.855	3746.42
673.046	3734.13
673.237	3727.99
673.428	3857.01
673.619	3832.43
673.809	3768.95
674	3787.38
674.191	3738.23
674.382	3783.28
674.573	3752.56
674.764	3727.99
674.954	3920.49
675.145	3709.55
675.336	3840.62
675.527	3717.75
675.717	3760.75
675.908	3680.88
676.099	3668.59
676.289	3736.18
676.48	3721.84
676.671	3543.67
676.861	3730.03
677.052	3682.93
677.243	3783.28
677.433	3736.18
677.624	3799.66
677.814	3852.91
678.005	3768.95
678.195	3814
678.386	3738.23
678.576	3715.7
678.767	3713.65
678.957	3758.71
679.148	3844.72
679.338	3791.47
679.529	3793.52
679.719	3852.91
679.909	3871.34
680.1	3883.63
680.29	3850.86
680.481	3701.36
680.671	3928.69
680.861	3777.14
681.052	3715.7
681.242	3791.47
681.432	3871.34
681.622	3672.69
681.813	3824.24
682.003	3750.51
682.193	3852.91
682.383	3727.99
682.573	3803.76
682.764	3803.76
682.954	3818.1
683.144	3691.12
683.334	3764.85
683.524	3777.14
683.714	3707.51
683.904	3717.75
684.094	3762.8
684.284	3777.14
684.474	3715.7
684.664	3699.31
684.854	3787.38
685.044	3846.77
685.234	3584.63
685.424	3877.49
685.614	3613.3
685.804	3770.99
685.994	3746.42
686.184	3736.18
686.374	3611.25
686.564	3709.55
686.753	3629.68
686.943	3695.22
687.133	3537.52
687.323	3572.34
687.513	3562.1
687.702	3637.88
687.892	3588.72
688.082	3576.44
688.272	3445.37
688.461	3447.41
688.651	3490.42
688.841	3474.04
689.03	3377.78
689.22	3555.96
689.41	3488.37
689.599	3453.56
689.789	3381.88
689.979	3388.02
690.168	3367.54
690.358	3357.3
690.547	3285.62
690.737	3441.27
690.926	3414.65
691.116	3334.78
691.305	3392.12
691.495	3312.25
691.684	3220.09
691.874	3256.95
692.063	3181.18
692.252	3234.43
692.442	3267.19
692.631	3160.7
692.82	3179.13
693.01	3125.88
693.199	3136.12
693.388	3218.04
693.578	3099.26
693.767	3132.03
693.956	3068.54
694.146	3076.73
694.335	3025.53
694.524	3013.24
694.713	3109.5
694.902	3035.77
695.092	2970.24
695.281	2992.76
695.47	2916.99
695.659	2978.43
695.848	2947.71
696.037	2992.76
696.226	2951.81
696.415	3021.44
696.604	2990.72
696.793	3003
696.982	2982.53
697.171	3003
697.36	3060.35
697.549	2906.75
697.738	2949.76
697.927	2910.85
698.116	3105.4
698.305	2990.72
698.494	3021.44
698.683	2925.18
698.872	2931.33
699.061	2955.9
699.25	2849.41
699.438	2951.81
699.627	2925.18
699.816	2923.13
700.005	2976.38
700.193	2998.91
700.382	2906.75
700.571	2871.93
700.76	2841.22
700.948	2929.28
701.137	2886.27
701.326	2998.91
701.514	2957.95
701.703	2939.52
701.892	3021.44
702.08	2992.76
702.269	2980.48
702.457	2904.7
702.646	2923.13
702.834	2943.61
703.023	3013.24
703.212	2892.41
703.4	2939.52
703.589	2857.6
703.777	2970.24
703.965	2826.88
704.154	2964.09
704.342	2867.84
704.531	2896.51
704.719	2910.85
704.907	3050.11
705.096	2849.41
705.284	2939.52
705.472	2906.75
705.661	2906.75
705.849	2880.13
706.037	2947.71
706.226	2822.78
706.414	2970.24
706.602	2943.61
706.79	2990.72
706.979	2964.09
707.167	2933.37
707.355	3017.34
707.543	3019.39
707.731	3058.3
707.919	3033.72
708.107	3000.96
708.296	2990.72
708.484	2962.05
708.672	3074.68
708.86	3023.48
709.048	3078.78
709.236	3054.2
709.424	3150.46
709.612	3003
709.8	3011.2
709.988	2906.75
710.176	2935.42
710.364	2933.37
710.551	3121.79
710.739	3021.44
710.927	3043.96
711.115	3043.96
711.303	3181.18
711.491	3125.88
711.679	3084.92
711.866	2976.38
712.054	3156.6
712.242	3224.19
712.43	3256.95
712.617	3084.92
712.805	3142.27
712.993	3095.16
713.181	3166.84
713.368	3121.79
713.556	3189.37
713.744	3140.22
713.931	3166.84
714.119	3160.7
714.306	3099.26
714.494	3172.99
714.682	3123.84
714.869	3103.36
715.057	3160.7
715.244	3099.26
715.432	3162.75
715.619	3105.4
715.807	3138.17
715.994	3183.23
716.182	3304.06
716.369	3211.9
716.556	3254.9
716.744	3170.94
716.931	3160.7
717.119	3326.58
717.306	3336.82
717.493	3179.13
717.681	3213.95
717.868	3168.89
718.055	3273.34
718.242	3250.81
718.43	3318.39
718.617	3246.71
718.804	3273.34
718.991	3357.3
719.179	3347.06
719.366	3324.54
719.553	3383.93
719.74	3306.1
719.927	3330.68
720.114	3408.5
720.301	3363.45
720.488	3428.98
720.676	3402.36
720.863	3332.73
721.05	3437.17
721.237	3314.3
721.424	3449.46
721.611	3527.28
721.798	3369.59
721.985	3365.5
722.172	3453.56
722.358	3355.26
722.545	3404.41
722.732	3291.77
722.919	3443.32
723.106	3406.45
723.293	3310.2
723.48	3529.33
723.667	3381.88
723.853	3355.26
724.04	3523.19
724.227	3502.71
724.414	3439.22
724.6	3447.41
724.787	3527.28
724.974	3611.25
725.161	3529.33
725.347	3457.65
725.534	3517.05
725.72	3633.78
725.907	3576.44
726.094	3533.43
726.28	3578.48
726.467	3578.48
726.653	3590.77
726.84	3580.53
727.027	3609.2
727.213	3644.02
727.4	3549.81
727.586	3547.76
727.773	3555.96
727.959	3646.07
728.145	3707.51
728.332	3719.79
728.518	3682.93
728.705	3756.66
728.891	3723.89
729.077	3705.46
729.264	3736.18
729.45	3613.3
729.636	3693.17
729.823	3654.26
730.009	3754.61
730.195	3654.26
730.382	3760.75
730.568	3766.9
730.754	3607.16
730.94	3684.98
731.126	3748.47
731.313	3611.25
731.499	3770.99
731.685	3744.37
731.871	3717.75
732.057	3842.67
732.243	3715.7
732.429	3660.4
732.615	3947.12
732.801	3799.66
732.987	3770.99
733.173	3744.37
733.359	3693.17
733.545	3920.49
733.731	3848.82
733.917	3824.24
734.103	3793.52
734.289	3850.86
734.475	3781.23
734.661	3799.66
734.847	3723.89
735.033	3857.01
735.219	3912.3
735.404	3764.85
735.59	3727.99
735.776	3734.13
735.962	3924.59
736.148	3768.95
736.333	3873.39
736.519	3730.03
736.705	3990.13
736.89	3955.31
737.076	3863.15
737.262	3779.18
737.447	3857.01
737.633	3773.04
737.819	3803.76
738.004	3947.12
738.19	3760.75
738.375	3750.51
738.561	3844.72
738.747	3754.61
738.932	3816.05
739.118	3875.44
739.303	3828.34
739.489	3799.66
739.674	3795.57
739.859	3799.66
740.045	3783.28
740.23	3791.47
740.416	3701.36
740.601	3654.26
740.786	3723.89
740.972	3670.64
741.157	3648.11
741.342	3736.18
741.528	3732.08
741.713	3693.17
741.898	3734.13
742.084	3707.51
742.269	3799.66
742.454	3697.27
742.639	3629.68
742.824	3551.86
743.01	3631.73
743.195	3811.95
743.38	3517.05
743.565	3627.64
743.75	3723.89
743.935	3623.54
744.12	3617.4
744.305	3555.96
744.49	3635.83
744.675	3621.49
744.86	3402.36
745.045	3562.1
745.23	3519.09
745.415	3463.8
745.6	3482.23
745.785	3449.46
745.97	3541.62
746.155	3558
746.34	3416.69
746.525	3519.09
746.71	3596.92
746.895	3332.73
747.079	3345.02
747.264	3287.67
747.449	3312.25
747.634	3277.43
747.819	3355.26
748.003	3250.81
748.188	3263.1
748.373	3289.72
748.557	3265.14
748.742	3269.24
748.927	3089.02
749.111	3179.13
749.296	3185.27
749.481	3213.95
749.665	3129.98
749.85	3029.63
750.034	2968.19
750.219	3072.64
750.404	2962.05
750.588	3070.59
750.773	2980.48
750.957	3017.34
751.141	3062.4
751.326	2949.76
751.51	2857.6
751.695	2919.04
751.879	2943.61
752.064	2925.18
752.248	2970.24
752.432	2802.3
752.617	2812.54
752.801	2867.84
752.985	2933.37
753.17	2802.3
753.354	2818.69
753.538	2691.71
753.722	2673.28
753.907	2841.22
754.091	2773.63
754.275	2808.45
754.459	2630.27
754.643	2679.43
754.828	2624.13
755.012	2531.97
755.196	2572.93
755.38	2638.47
755.564	2646.66
755.748	2493.06
755.932	2622.08
756.116	2405
756.3	2400.9
756.484	2480.77
756.668	2421.38
756.852	2497.16
757.036	2378.37
757.22	2388.61
757.404	2351.75
757.588	2239.11
757.772	2474.63
757.956	2372.23
758.14	2390.66
758.323	2259.59
758.507	2284.17
758.691	2214.54
758.875	2312.84
759.059	2292.36
759.242	2275.98
759.426	2214.54
759.61	2255.5
759.794	2243.21
759.977	2228.87
760.161	2243.21
760.345	2028.17
760.528	2081.42
760.712	2181.77
760.895	2110.09
761.079	2103.95
761.263	2017.93
761.446	2058.89
761.63	2161.29
761.813	2091.66
761.997	2032.27
762.18	2091.66
762.364	2085.51
762.547	1954.44
762.731	1983.12
762.914	1964.68
763.098	1858.19
763.281	1952.4
763.464	1981.07
763.648	1952.4
763.831	1919.63
764.015	1917.58
764.198	1964.68
764.381	1936.01
764.564	1999.5
764.748	1813.13
764.931	1866.38
765.114	1911.44
765.297	1884.81
765.481	1858.19
765.664	1835.66
765.847	1821.33
766.03	1917.58
766.213	1835.66
766.397	1827.47
766.58	1784.46
766.763	1665.68
766.946	1759.89
767.129	1710.74
767.312	1741.46
767.495	1647.25
767.678	1686.16
767.861	1827.47
768.044	1735.31
768.227	1751.7
768.41	1663.63
768.593	1686.16
768.776	1716.88
768.959	1667.73
769.142	1778.32
769.324	1663.63
769.507	1690.26
769.69	1680.02
769.873	1632.91
770.056	1757.84
770.239	1544.85
770.421	1690.26
770.604	1684.11
770.787	1610.39
770.97	1483.41
771.152	1657.49
771.335	1589.91
771.518	1559.19
771.7	1559.19
771.883	1559.19
772.066	1536.66
772.248	1473.17
772.431	1557.14
772.613	1510.04
772.796	1448.6
772.978	1548.95
773.161	1442.45
773.343	1526.42
773.526	1389.21
773.708	1383.06
773.891	1317.53
774.073	1378.97
774.256	1417.88
774.438	1499.8
774.621	1280.66
774.803	1495.7
774.985	1372.82
775.168	1428.12
775.35	1338.01
775.532	1342.1
775.715	1395.35
775.897	1346.2
776.079	1309.33
776.261	1213.08
776.444	1268.38
776.626	1321.62
776.808	1247.9
776.99	1251.99
777.173	1215.13
777.355	1237.66
777.537	1215.13
777.719	1305.24
777.901	1241.75
778.083	1118.87
778.265	1192.6
778.447	1249.94
778.629	1200.79
778.811	1131.16
778.993	1227.42
779.175	1147.55
779.357	1217.18
779.539	1145.5
779.721	1063.58
779.903	1075.87
780.085	1131.16
780.267	1145.5
780.449	1094.3
780.631	1094.3
780.812	1151.64
780.994	1073.82
781.176	1004.19
781.358	979.61
781.54	1053.34
781.721	1004.19
781.903	989.85
782.085	991.9
782.267	1090.2
782.448	1000.09
782.63	889.5
782.812	1010.33
782.993	928.41
783.175	901.79
783.357	916.12
783.538	903.84
783.72	899.74
783.901	866.97
784.083	918.17
784.264	973.47
784.446	864.93
784.627	817.82
784.809	889.5
784.99	875.17
785.172	787.1
785.353	787.1
785.535	889.5
785.716	811.68
785.897	774.81
786.079	799.39
786.26	717.47
786.441	881.31
786.623	801.44
786.804	764.58
786.985	746.14
787.167	819.87
787.348	651.94
787.529	752.29
787.71	836.25
787.891	756.38
788.073	711.33
788.254	643.74
788.435	744.1
788.616	826.01
788.797	686.75
788.978	772.77
789.159	682.66
789.34	799.39
789.522	717.47
789.703	696.99
789.884	658.08
790.065	686.75
790.246	703.14
790.427	686.75
790.607	653.98
790.788	715.42
790.969	719.52
791.15	604.83
791.331	639.65
791.512	623.27
791.693	633.5
791.874	596.64
792.054	596.64
792.235	676.51
792.416	604.83
792.597	576.16
792.778	643.74
792.958	658.08
793.139	531.11
793.32	678.56
793.5	592.55
793.681	567.97
793.862	549.54
794.042	610.98
794.223	514.72
794.404	610.98
794.584	610.98
794.765	555.68
794.945	516.77
795.126	580.26
795.306	522.91
795.487	608.93
795.667	649.89
795.848	496.29
796.028	551.59
796.209	553.63
796.389	529.06
796.57	498.34
796.75	508.58
796.93	553.63
797.111	510.63
797.291	545.44
797.471	545.44
797.652	559.78
797.832	467.62
798.012	533.15
798.192	449.19
798.373	492.2
798.553	488.1
798.733	459.43
798.913	469.67
799.093	488.1
799.274	473.76
799.454	506.53
799.634	496.29
799.814	443.04
799.994	461.48
800.174	397.99
800.354	467.62
800.534	422.56
800.714	406.18
800.894	395.94
801.074	420.52
801.254	508.58
801.434	504.48
801.614	375.46
801.794	352.93
801.974	1178.26
802.154	445.09
802.334	465.57
802.514	443.04
802.693	402.08
802.873	352.93
803.053	422.56
803.233	475.81
803.413	451.24
803.592	404.13
803.772	432.8
803.952	406.18
804.131	326.31
804.311	424.61
804.491	463.52
804.67	373.41
804.85	473.76
805.03	348.84
805.209	451.24
805.389	322.21
805.568	314.02
805.748	363.17
805.928	318.12
806.107	381.6
806.287	383.65
806.466	404.13
806.646	428.71
806.825	414.37
807.004	334.5
807.184	332.45
807.363	377.51
807.543	338.6
807.722	279.21
807.901	467.62
808.081	404.13
808.26	273.06
808.439	299.69
808.619	348.84
808.798	316.07
808.977	299.69
809.156	375.46
809.336	387.75
809.515	271.01
809.694	324.26
809.873	281.25
810.052	359.08
810.231	350.89
810.411	309.93
810.59	393.89
810.769	354.98
810.948	350.89
811.127	291.49
811.306	334.5
811.485	293.54
811.664	375.46
811.843	275.11
812.022	324.26
812.201	311.97
812.38	326.31
812.559	338.6
812.737	303.78
812.916	268.97
813.095	324.26
813.274	236.2
813.453	285.35
813.632	293.54
813.811	295.59
813.989	254.63
814.168	271.01
814.347	244.39
814.526	336.55
814.704	334.5
814.883	338.6
815.062	264.87
815.24	332.45
815.419	281.25
815.598	258.73
815.776	221.86
815.955	365.22
816.133	301.73
816.312	320.17
816.49	209.58
816.669	287.4
816.847	299.69
817.026	236.2
817.204	299.69
817.383	295.59
817.561	180.9
817.74	256.68
817.918	250.53
818.097	195.24
818.275	281.25
818.453	271.01
818.632	287.4
818.81	246.44
818.988	281.25
819.167	293.54
819.345	260.77
819.523	191.14
819.701	215.72
819.879	242.34
820.058	154.28
820.236	223.91
820.414	242.34
820.592	189.1
820.77	156.33
820.948	160.42
821.127	246.44
821.305	185
821.483	225.96
821.661	223.91
821.839	199.34
822.017	144.04
822.195	242.34
822.373	230.06
822.551	318.12
822.729	236.2
822.907	193.19
823.085	223.91
823.262	213.67
823.44	230.06
823.618	193.19
823.796	123.56
823.974	174.76
824.152	201.38
824.329	191.14
824.507	234.15
824.685	156.33
824.863	160.42
825.04	170.66
825.218	172.71
825.396	182.95
825.574	197.29
825.751	150.18
825.929	191.14
826.107	133.8
826.284	221.86
826.462	166.57
826.639	164.52
826.817	129.7
826.994	150.18
827.172	160.42
827.349	217.77
827.527	172.71
827.704	168.62
827.882	207.53
828.059	176.81
828.237	129.7
828.414	264.87
828.591	144.04
828.769	150.18
828.946	146.09
829.124	271.01
829.301	281.25
829.478	166.57
829.655	195.24
829.833	201.38
830.01	123.56
830.187	178.86
830.364	174.76
830.542	180.9
830.719	211.62
830.896	211.62
831.073	250.53
831.25	117.42
831.427	133.8
831.604	141.99
831.782	109.23
831.959	168.62
832.136	76.46
832.313	176.81
832.49	168.62
832.667	109.23
832.844	187.05
833.021	279.21
833.198	197.29
833.374	117.42
833.551	154.28
833.728	107.18
833.905	166.57
834.082	86.7
834.259	180.9
834.436	119.46
834.612	96.94
834.789	166.57
834.966	185
835.143	187.05
835.319	152.23
835.496	150.18
835.673	125.61
835.85	176.81
836.026	156.33
836.203	170.66
836.38	111.27
836.556	115.37
836.733	90.79
836.909	215.72
837.086	41.64
837.262	78.51
837.439	168.62
837.616	82.6
837.792	74.41
837.968	117.42
838.145	39.59
838.321	185
838.498	158.38
838.674	115.37
838.851	141.99
839.027	27.31
839.203	170.66
839.38	146.09
839.556	68.27
839.732	92.84
839.909	109.23
840.085	125.61
840.261	139.94
840.437	74.41
840.614	158.38
840.79	125.61
840.966	121.51
841.142	21.16
841.318	86.7
841.494	119.46
841.671	131.75
841.847	117.42
842.023	37.55
842.199	180.9
842.375	119.46
842.551	47.79
842.727	113.32
842.903	199.34
843.079	103.08
843.255	166.57
843.431	113.32
843.607	137.9
843.783	53.93
843.959	135.85
844.134	107.18
844.31	141.99
844.486	92.84
844.662	60.07
844.838	80.55
845.013	70.31
845.189	96.94
845.365	141.99
845.541	70.31
845.716	160.42
845.892	107.18
846.068	74.41
846.244	39.59
846.419	76.46
846.595	137.9
846.77	131.75
846.946	111.27
847.122	10.92
847.297	103.08
847.473	123.56
847.648	103.08
847.824	88.75
847.999	78.51
848.175	107.18
848.35	168.62
848.526	146.09
848.701	174.76
848.876	189.1
849.052	98.99
849.227	115.37
849.403	107.18
849.578	96.94
849.753	101.03
849.929	92.84
850.104	82.6
850.279	78.51
850.454	72.36
850.63	76.46
850.805	37.55
850.98	125.61
851.155	35.5
851.33	53.93
851.505	43.69
851.681	64.17
851.856	12.97
852.031	180.9
852.206	115.37
852.381	27.31
852.556	82.6
852.731	139.94
852.906	86.7
853.081	88.75
853.256	117.42
853.431	64.17
853.606	45.74
853.781	113.32
853.956	-5.46
854.131	125.61
854.305	125.61
854.48	101.03
854.655	25.26
854.83	105.13
855.005	82.6
855.18	4.78
855.354	146.09
855.529	92.84
855.704	70.31
855.879	119.46
856.053	135.85
856.228	121.51
856.403	8.87
856.577	158.38
856.752	-23.89
856.926	64.17
857.101	98.99
857.276	-40.28
857.45	121.51
857.625	115.37
857.799	10.92
857.974	96.94
858.148	60.07
858.323	135.85
858.497	53.93
858.672	37.55
858.846	23.21
859.02	129.7
859.195	21.16
859.369	29.35
859.543	146.09
859.718	53.93
859.892	76.46
860.066	72.36
860.241	31.4
860.415	47.79
860.589	6.83
860.763	129.7
860.938	49.83
861.112	29.35
861.286	84.65
861.46	43.69
861.634	82.6
861.808	141.99
861.982	49.83
862.157	8.87
862.331	23.21
862.505	-23.89
862.679	-62.8
862.853	33.45
863.027	19.11
863.201	148.14
863.375	-5.46
863.549	119.46
863.722	8.87
863.896	101.03
864.07	19.11
864.244	76.46
864.418	53.93
864.592	45.74
864.766	72.36
864.939	68.27
865.113	49.83
865.287	51.88
865.461	58.03
865.634	53.93
865.808	-1.37
865.982	35.5
866.156	29.35
866.329	45.74
866.503	82.6
866.676	64.17
866.85	68.27
867.024	-48.47
867.197	51.88
867.371	123.56
867.544	-9.56
867.718	88.75
867.891	109.23
868.065	10.92
868.238	51.88
868.412	109.23
868.585	41.64
868.759	158.38
868.932	-30.04
869.105	53.93
869.279	64.17
869.452	-23.89
869.625	17.07
869.799	-15.7
869.972	31.4
870.145	86.7
870.319	62.12
870.492	53.93
870.665	25.26
870.838	25.26
871.011	25.26
871.185	113.32
871.358	41.64
871.531	47.79
871.704	64.17
871.877	0.68
872.05	33.45
872.223	10.92
872.396	12.97
872.569	137.9
872.742	23.21
872.915	78.51
873.088	94.89
873.261	47.79
873.434	72.36
873.607	4.78
873.78	47.79
873.953	17.07
874.126	84.65
874.299	109.23
874.471	53.93
874.644	19.11
874.817	-1.37
874.99	64.17
875.163	47.79
875.335	105.13
875.508	92.84
875.681	64.17
875.853	-15.7
876.026	96.94
876.199	39.59
876.371	51.88
876.544	58.03
876.717	31.4
876.889	96.94
877.062	119.46
877.234	-7.51
877.407	15.02
877.579	-30.04
877.752	37.55
877.924	49.83
878.097	29.35
878.269	37.55
878.442	10.92
878.614	15.02
878.786	64.17
878.959	70.31
879.131	55.98
879.303	-30.04
879.476	80.55
879.648	96.94
879.82	27.31
879.993	-44.37
880.165	15.02
880.337	-15.7
880.509	39.59
880.681	-9.56
880.854	0.68
881.026	107.18
881.198	64.17
881.37	43.69
881.542	47.79
881.714	64.17
881.886	39.59
882.058	17.07
882.23	-3.41
882.402	29.35
882.574	-5.46
882.746	72.36
882.918	115.37
883.09	152.23
883.262	58.03
883.434	43.69
883.606	19.11
883.778	39.59
883.95	72.36
884.122	4.78
884.293	86.7
884.465	-11.61
884.637	74.41
884.809	-23.89
884.98	60.07
885.152	10.92
885.324	45.74
885.496	37.55
885.667	-46.42
885.839	53.93
886.011	82.6
886.182	-3.41
886.354	12.97
886.525	62.12
886.697	64.17
886.869	72.36
887.04	-23.89
887.212	17.07
887.383	94.89
887.555	12.97
887.726	10.92
887.897	-25.94
888.069	12.97
888.24	-15.7
888.412	55.98
888.583	62.12
888.754	51.88
888.926	-79.19
889.097	29.35
889.268	-15.7
889.44	58.03
889.611	6.83
889.782	72.36
889.953	-1.37
890.125	23.21
890.296	-11.61
890.467	-7.51
890.638	-42.32
890.809	-1.37
890.98	92.84
891.151	-5.46
891.323	8.87
891.494	88.75
891.665	-15.7
891.836	88.75
892.007	76.46
892.178	115.37
892.349	19.11
892.52	-32.08
892.691	21.16
892.862	39.59
893.032	53.93
893.203	-9.56
893.374	84.65
893.545	-23.89
893.716	-27.99
893.887	39.59
894.057	17.07
894.228	-5.46
894.399	-15.7
894.57	98.99
894.74	-38.23
894.911	-7.51
895.082	51.88
895.253	41.64
895.423	49.83
895.594	-27.99
895.764	-9.56
895.935	39.59
896.106	49.83
896.276	21.16
896.447	43.69
896.617	-17.75
896.788	17.07
896.958	74.41
897.129	39.59
897.299	-40.28
897.47	25.26
897.64	66.22
897.81	2.73
897.981	60.07
898.151	86.7
898.322	33.45
898.492	27.31
898.662	33.45
898.832	0.68
899.003	-5.46
899.173	2.73
899.343	-21.85
899.513	-103.76
