Data from USB4F104151__15__12-23-26-193.txt Node

Date: Fri Mar 14 12:23:26 EDT 2025
User: louis
Spectrometer: USB4F10415
Trigger mode: 4
Integration Time (sec): 3.500000E-2
Scans to average: 1
Electric dark correction enabled: true
Nonlinearity correction enabled: false
Boxcar width: 0
XAxis mode: Wavelengths
Number of Pixels in Spectrum: 3648
>>>>>Begin Spectral Data<<<<<
178.204	-160.42
178.424	-160.42
178.644	-160.42
178.864	-223.91
179.084	-119.46
179.304	-35.5
179.524	32.08
179.744	32.08
179.964	34.13
180.184	-37.55
180.404	9.56
180.624	-45.74
180.844	17.75
181.064	-19.11
181.283	-25.26
181.503	21.84
181.723	15.7
181.943	-23.21
182.163	142.68
182.383	-19.11
182.602	60.76
182.822	19.8
183.042	114
183.262	-10.92
183.482	66.9
183.701	71
183.921	126.29
184.141	-4.78
184.361	87.38
184.58	40.28
184.8	19.8
185.02	3.41
185.239	60.76
185.459	40.28
185.679	89.43
185.898	19.8
186.118	62.8
186.338	75.09
186.557	89.43
186.777	11.61
186.997	44.37
187.216	91.48
187.436	54.61
187.655	107.86
187.875	91.48
188.095	11.61
188.314	3.41
188.534	111.96
188.753	38.23
188.973	107.86
189.192	68.95
189.412	132.44
189.631	64.85
189.851	46.42
190.07	30.04
190.29	54.61
190.509	34.13
190.729	-12.97
190.948	107.86
191.168	208.21
191.387	42.32
191.607	56.66
191.826	89.43
192.045	44.37
192.265	60.76
192.484	50.52
192.704	64.85
192.923	71
193.142	71
193.362	36.18
193.581	159.06
193.8	-21.16
194.02	9.56
194.239	54.61
194.458	17.75
194.678	32.08
194.897	15.7
195.116	79.19
195.335	36.18
195.555	87.38
195.774	17.75
195.993	109.91
196.212	46.42
196.432	19.8
196.651	34.13
196.87	46.42
197.089	136.53
197.308	105.81
197.528	73.04
197.747	-19.11
197.966	25.94
198.185	159.06
198.404	27.99
198.623	3.41
198.842	73.04
199.062	111.96
199.281	114
199.5	-12.97
199.719	58.71
199.938	85.33
200.157	124.24
200.376	101.72
200.595	46.42
200.814	54.61
201.033	38.23
201.252	81.24
201.471	60.76
201.69	83.28
201.909	15.7
202.128	62.8
202.347	-25.26
202.566	62.8
202.785	23.89
203.004	23.89
203.223	130.39
203.442	64.85
203.661	19.8
203.879	75.09
204.098	85.33
204.317	-8.87
204.536	101.72
204.755	11.61
204.974	66.9
205.193	60.76
205.411	64.85
205.63	40.28
205.849	83.28
206.068	1.37
206.287	-55.98
206.505	44.37
206.724	68.95
206.943	23.89
207.162	32.08
207.381	128.34
207.599	-17.07
207.818	32.08
208.037	52.56
208.255	114
208.474	136.53
208.693	46.42
208.911	42.32
209.13	27.99
209.349	73.04
209.567	81.24
209.786	75.09
210.005	111.96
210.223	73.04
210.442	-19.11
210.661	34.13
210.879	-8.87
211.098	91.48
211.316	38.23
211.535	95.57
211.753	109.91
211.972	15.7
212.191	50.52
212.409	-17.07
212.628	21.84
212.846	64.85
213.065	17.75
213.283	73.04
213.502	99.67
213.72	1.37
213.938	62.8
214.157	36.18
214.375	62.8
214.594	77.14
214.812	109.91
215.031	1.37
215.249	42.32
215.467	40.28
215.686	38.23
215.904	91.48
216.122	19.8
216.341	32.08
216.559	36.18
216.778	109.91
216.996	171.35
217.214	32.08
217.432	21.84
217.651	-47.79
217.869	64.85
218.087	40.28
218.306	85.33
218.524	48.47
218.742	62.8
218.96	75.09
219.179	52.56
219.397	-10.92
219.615	128.34
219.833	159.06
220.051	36.18
220.27	83.28
220.488	40.28
220.706	68.95
220.924	85.33
221.142	48.47
221.36	87.38
221.578	46.42
221.796	1.37
222.015	-31.4
222.233	-10.92
222.451	56.66
222.669	73.04
222.887	77.14
223.105	60.76
223.323	38.23
223.541	-10.92
223.759	114
223.977	-19.11
224.195	60.76
224.413	148.82
224.631	126.29
224.849	-6.83
225.067	101.72
225.285	71
225.503	13.65
225.721	-15.02
225.939	-10.92
226.157	91.48
226.375	140.63
226.592	-21.16
226.81	40.28
227.028	128.34
227.246	109.91
227.464	44.37
227.682	77.14
227.9	93.52
228.117	122.2
228.335	27.99
228.553	42.32
228.771	95.57
228.989	-12.97
229.206	71
229.424	56.66
229.642	-12.97
229.86	11.61
230.077	95.57
230.295	-10.92
230.513	114
230.731	138.58
230.948	75.09
231.166	17.75
231.384	23.89
231.601	11.61
231.819	93.52
232.037	7.51
232.254	-55.98
232.472	-45.74
232.689	34.13
232.907	58.71
233.125	73.04
233.342	38.23
233.56	120.15
233.777	48.47
233.995	1.37
234.213	89.43
234.43	73.04
234.648	71
234.865	15.7
235.083	75.09
235.3	19.8
235.518	93.52
235.735	101.72
235.953	44.37
236.17	-8.87
236.388	-33.45
236.605	25.94
236.822	60.76
237.04	36.18
237.257	109.91
237.475	32.08
237.692	73.04
237.909	54.61
238.127	75.09
238.344	159.06
238.562	62.8
238.779	13.65
238.996	19.8
239.214	60.76
239.431	40.28
239.648	60.76
239.865	52.56
240.083	60.76
240.3	27.99
240.517	114
240.735	-23.21
240.952	93.52
241.169	83.28
241.386	9.56
241.603	66.9
241.821	30.04
242.038	75.09
242.255	58.71
242.472	32.08
242.689	62.8
242.907	107.86
243.124	23.89
243.341	130.39
243.558	36.18
243.775	32.08
243.992	11.61
244.209	58.71
244.426	66.9
244.643	73.04
244.86	34.13
245.078	1.37
245.295	73.04
245.512	40.28
245.729	30.04
245.946	46.42
246.163	50.52
246.38	15.7
246.597	27.99
246.814	-8.87
247.031	52.56
247.248	114
247.464	95.57
247.681	21.84
247.898	34.13
248.115	132.44
248.332	7.51
248.549	101.72
248.766	68.95
248.983	73.04
249.2	19.8
249.417	48.47
249.633	5.46
249.85	95.57
250.067	73.04
250.284	3.41
250.501	89.43
250.717	87.38
250.934	-17.07
251.151	27.99
251.368	68.95
251.585	34.13
251.801	48.47
252.018	52.56
252.235	25.94
252.451	-62.12
252.668	62.8
252.885	21.84
253.102	23.89
253.318	38.23
253.535	34.13
253.752	23.89
253.968	-25.26
254.185	13.65
254.401	66.9
254.618	124.24
254.835	101.72
255.051	52.56
255.268	118.1
255.484	64.85
255.701	7.51
255.917	101.72
256.134	9.56
256.351	99.67
256.567	-27.31
256.784	60.76
257	-35.5
257.217	107.86
257.433	105.81
257.65	83.28
257.866	58.71
258.082	17.75
258.299	23.89
258.515	40.28
258.732	11.61
258.948	44.37
259.165	30.04
259.381	56.66
259.597	91.48
259.814	71
260.03	97.62
260.246	60.76
260.463	58.71
260.679	71
260.895	23.89
261.112	25.94
261.328	50.52
261.544	64.85
261.761	130.39
261.977	-2.73
262.193	40.28
262.409	114
262.626	-15.02
262.842	58.71
263.058	58.71
263.274	81.24
263.49	68.95
263.707	27.99
263.923	19.8
264.139	-0.68
264.355	91.48
264.571	85.33
264.787	30.04
265.004	48.47
265.22	25.94
265.436	-25.26
265.652	34.13
265.868	64.85
266.084	19.8
266.3	71
266.516	27.99
266.732	89.43
266.948	40.28
267.164	-2.73
267.38	42.32
267.596	118.1
267.812	54.61
268.028	50.52
268.244	38.23
268.46	32.08
268.676	1.37
268.892	-19.11
269.108	50.52
269.324	56.66
269.54	15.7
269.756	54.61
269.972	-53.93
270.188	124.24
270.403	13.65
270.619	48.47
270.835	27.99
271.051	91.48
271.267	68.95
271.483	116.05
271.698	68.95
271.914	27.99
272.13	-47.79
272.346	79.19
272.562	54.61
272.777	107.86
272.993	25.94
273.209	-10.92
273.425	89.43
273.64	132.44
273.856	13.65
274.072	34.13
274.287	7.51
274.503	142.68
274.719	66.9
274.934	73.04
275.15	7.51
275.366	21.84
275.581	36.18
275.797	13.65
276.012	11.61
276.228	91.48
276.444	-6.83
276.659	77.14
276.875	79.19
277.09	19.8
277.306	40.28
277.521	79.19
277.737	13.65
277.952	71
278.168	1.37
278.383	17.75
278.599	62.8
278.814	89.43
279.03	83.28
279.245	91.48
279.461	71
279.676	97.62
279.892	60.76
280.107	-4.78
280.322	-21.16
280.538	56.66
280.753	54.61
280.969	13.65
281.184	30.04
281.399	56.66
281.615	75.09
281.83	81.24
282.045	5.46
282.26	73.04
282.476	62.8
282.691	73.04
282.906	32.08
283.122	-2.73
283.337	73.04
283.552	111.96
283.767	17.75
283.983	42.32
284.198	114
284.413	15.7
284.628	50.52
284.843	66.9
285.058	52.56
285.274	21.84
285.489	50.52
285.704	66.9
285.919	44.37
286.134	152.91
286.349	27.99
286.564	19.8
286.779	124.24
286.995	163.15
287.21	34.13
287.425	75.09
287.64	44.37
287.855	-2.73
288.07	36.18
288.285	101.72
288.5	89.43
288.715	38.23
288.93	-8.87
289.145	-29.35
289.36	111.96
289.575	-4.78
289.79	114
290.004	66.9
290.219	73.04
290.434	46.42
290.649	101.72
290.864	73.04
291.079	11.61
291.294	93.52
291.509	34.13
291.724	42.32
291.938	34.13
292.153	34.13
292.368	-39.59
292.583	13.65
292.798	73.04
293.012	89.43
293.227	111.96
293.442	40.28
293.657	34.13
293.871	103.76
294.086	46.42
294.301	58.71
294.516	79.19
294.73	64.85
294.945	1.37
295.16	1.37
295.374	128.34
295.589	40.28
295.804	15.7
296.018	46.42
296.233	73.04
296.447	1.37
296.662	1.37
296.877	32.08
297.091	5.46
297.306	60.76
297.52	95.57
297.735	77.14
297.949	97.62
298.164	169.3
298.378	140.63
298.593	23.89
298.807	42.32
299.022	75.09
299.236	79.19
299.451	111.96
299.665	77.14
299.88	30.04
300.094	52.56
300.309	128.34
300.523	103.76
300.737	-25.26
300.952	44.37
301.166	85.33
301.381	-19.11
301.595	-6.83
301.809	46.42
302.024	77.14
302.238	-47.79
302.452	116.05
302.667	3.41
302.881	105.81
303.095	64.85
303.309	60.76
303.524	36.18
303.738	32.08
303.952	19.8
304.166	77.14
304.381	32.08
304.595	58.71
304.809	111.96
305.023	64.85
305.237	32.08
305.452	79.19
305.666	11.61
305.88	101.72
306.094	50.52
306.308	34.13
306.522	25.94
306.736	73.04
306.95	50.52
307.164	42.32
307.379	-62.12
307.593	83.28
307.807	50.52
308.021	91.48
308.235	154.96
308.449	52.56
308.663	60.76
308.877	134.48
309.091	38.23
309.305	60.76
309.519	44.37
309.733	73.04
309.947	-12.97
310.161	32.08
310.374	107.86
310.588	13.65
310.802	68.95
311.016	17.75
311.23	44.37
311.444	-23.21
311.658	42.32
311.872	77.14
312.085	36.18
312.299	99.67
312.513	126.29
312.727	101.72
312.941	11.61
313.154	11.61
313.368	68.95
313.582	23.89
313.796	44.37
314.009	-12.97
314.223	91.48
314.437	50.52
314.651	66.9
314.864	36.18
315.078	91.48
315.292	25.94
315.505	-6.83
315.719	107.86
315.933	62.8
316.146	120.15
316.36	62.8
316.573	130.39
316.787	89.43
317.001	50.52
317.214	17.75
317.428	48.47
317.641	-27.31
317.855	93.52
318.068	17.75
318.282	9.56
318.495	93.52
318.709	40.28
318.922	75.09
319.136	58.71
319.349	50.52
319.563	111.96
319.776	36.18
319.99	40.28
320.203	34.13
320.417	107.86
320.63	87.38
320.843	60.76
321.057	103.76
321.27	1.37
321.483	75.09
321.697	101.72
321.91	81.24
322.124	105.81
322.337	79.19
322.55	85.33
322.763	62.8
322.977	17.75
323.19	36.18
323.403	25.94
323.617	114
323.83	130.39
324.043	54.61
324.256	62.8
324.469	44.37
324.683	46.42
324.896	40.28
325.109	-0.68
325.322	-53.93
325.535	75.09
325.748	116.05
325.962	85.33
326.175	56.66
326.388	40.28
326.601	30.04
326.814	-37.55
327.027	50.52
327.24	124.24
327.453	-39.59
327.666	85.33
327.879	52.56
328.092	54.61
328.305	44.37
328.518	-2.73
328.731	48.47
328.944	66.9
329.157	97.62
329.37	54.61
329.583	34.13
329.796	154.96
330.009	-19.11
330.222	32.08
330.435	5.46
330.648	64.85
330.861	46.42
331.073	62.8
331.286	-6.83
331.499	46.42
331.712	95.57
331.925	75.09
332.138	21.84
332.35	105.81
332.563	50.52
332.776	142.68
332.989	52.56
333.202	58.71
333.414	54.61
333.627	71
333.84	77.14
334.053	36.18
334.265	27.99
334.478	27.99
334.691	54.61
334.903	46.42
335.116	9.56
335.329	93.52
335.541	34.13
335.754	75.09
335.966	38.23
336.179	17.75
336.392	73.04
336.604	17.75
336.817	-6.83
337.029	75.09
337.242	130.39
337.454	85.33
337.667	-6.83
337.88	19.8
338.092	-31.4
338.305	144.72
338.517	9.56
338.729	73.04
338.942	77.14
339.154	-19.11
339.367	-0.68
339.579	27.99
339.792	48.47
340.004	66.9
340.217	38.23
340.429	50.52
340.641	66.9
340.854	25.94
341.066	73.04
341.278	21.84
341.491	71
341.703	11.61
341.915	-4.78
342.128	-0.68
342.34	42.32
342.552	48.47
342.764	34.13
342.977	71
343.189	58.71
343.401	34.13
343.613	56.66
343.826	68.95
344.038	71
344.25	68.95
344.462	64.85
344.674	-37.55
344.886	27.99
345.099	73.04
345.311	46.42
345.523	23.89
345.735	19.8
345.947	64.85
346.159	128.34
346.371	52.56
346.583	38.23
346.795	66.9
347.007	62.8
347.219	11.61
347.431	111.96
347.643	208.21
347.855	27.99
348.067	79.19
348.279	-27.31
348.491	81.24
348.703	58.71
348.915	83.28
349.127	5.46
349.339	1.37
349.551	-12.97
349.763	87.38
349.975	54.61
350.187	81.24
350.399	165.2
350.61	77.14
350.822	-60.07
351.034	130.39
351.246	54.61
351.458	93.52
351.669	93.52
351.881	83.28
352.093	109.91
352.305	103.76
352.517	58.71
352.728	73.04
352.94	-2.73
353.152	173.39
353.363	58.71
353.575	120.15
353.787	56.66
353.999	62.8
354.21	116.05
354.422	11.61
354.633	99.67
354.845	11.61
355.057	48.47
355.268	62.8
355.48	91.48
355.692	25.94
355.903	99.67
356.115	13.65
356.326	-58.03
356.538	32.08
356.749	-17.07
356.961	68.95
357.172	107.86
357.384	46.42
357.595	126.29
357.807	105.81
358.018	54.61
358.23	32.08
358.441	71
358.653	116.05
358.864	66.9
359.075	23.89
359.287	-0.68
359.498	111.96
359.709	40.28
359.921	44.37
360.132	50.52
360.344	36.18
360.555	-17.07
360.766	-10.92
360.977	30.04
361.189	58.71
361.4	21.84
361.611	19.8
361.823	21.84
362.034	17.75
362.245	-2.73
362.456	25.94
362.667	120.15
362.879	21.84
363.09	54.61
363.301	140.63
363.512	27.99
363.723	27.99
363.935	52.56
364.146	93.52
364.357	73.04
364.568	95.57
364.779	25.94
364.99	68.95
365.201	64.85
365.412	95.57
365.623	3.41
365.834	148.82
366.045	52.56
366.256	93.52
366.467	142.68
366.678	30.04
366.889	83.28
367.1	130.39
367.311	89.43
367.522	-10.92
367.733	71
367.944	54.61
368.155	34.13
368.366	81.24
368.577	62.8
368.788	128.34
368.999	60.76
369.209	1.37
369.42	165.2
369.631	62.8
369.842	77.14
370.053	130.39
370.264	87.38
370.474	17.75
370.685	15.7
370.896	146.77
371.107	152.91
371.317	83.28
371.528	30.04
371.739	111.96
371.95	27.99
372.16	73.04
372.371	3.41
372.582	83.28
372.792	44.37
373.003	89.43
373.214	91.48
373.424	34.13
373.635	17.75
373.846	101.72
374.056	54.61
374.267	50.52
374.477	30.04
374.688	66.9
374.898	36.18
375.109	97.62
375.319	58.71
375.53	171.35
375.74	60.76
375.951	1.37
376.161	103.76
376.372	60.76
376.582	32.08
376.793	66.9
377.003	1.37
377.214	87.38
377.424	46.42
377.635	5.46
377.845	3.41
378.055	75.09
378.266	-8.87
378.476	87.38
378.686	34.13
378.897	95.57
379.107	116.05
379.317	91.48
379.528	68.95
379.738	93.52
379.948	-2.73
380.158	32.08
380.369	-6.83
380.579	116.05
380.789	71
380.999	64.85
381.21	-12.97
381.42	116.05
381.63	130.39
381.84	71
382.05	107.86
382.261	140.63
382.471	38.23
382.681	52.56
382.891	152.91
383.101	66.9
383.311	81.24
383.521	30.04
383.731	50.52
383.941	71
384.151	132.44
384.361	120.15
384.571	89.43
384.781	105.81
384.991	68.95
385.201	208.21
385.411	107.86
385.621	25.94
385.831	56.66
386.041	116.05
386.251	25.94
386.461	134.48
386.671	-19.11
386.881	9.56
387.091	27.99
387.301	81.24
387.511	95.57
387.72	73.04
387.93	46.42
388.14	-6.83
388.35	50.52
388.56	116.05
388.769	30.04
388.979	60.76
389.189	73.04
389.399	77.14
389.609	73.04
389.818	101.72
390.028	85.33
390.238	105.81
390.447	93.52
390.657	148.82
390.867	83.28
391.076	77.14
391.286	93.52
391.496	34.13
391.705	134.48
391.915	66.9
392.125	13.65
392.334	46.42
392.544	27.99
392.753	71
392.963	-4.78
393.172	114
393.382	9.56
393.591	130.39
393.801	116.05
394.01	75.09
394.22	103.76
394.429	79.19
394.639	144.72
394.848	109.91
395.058	85.33
395.267	97.62
395.477	62.8
395.686	87.38
395.895	154.96
396.105	189.78
396.314	130.39
396.524	89.43
396.733	23.89
396.942	62.8
397.152	173.39
397.361	83.28
397.57	79.19
397.78	21.84
397.989	85.33
398.198	93.52
398.407	144.72
398.617	103.76
398.826	87.38
399.035	124.24
399.244	202.07
399.453	128.34
399.663	64.85
399.872	114
400.081	146.77
400.29	116.05
400.499	58.71
400.708	73.04
400.917	73.04
401.127	58.71
401.336	152.91
401.545	122.2
401.754	97.62
401.963	134.48
402.172	165.2
402.381	54.61
402.59	124.24
402.799	103.76
403.008	107.86
403.217	157.01
403.426	202.07
403.635	81.24
403.844	44.37
404.053	118.1
404.262	101.72
404.471	177.49
404.68	193.87
404.888	99.67
405.097	150.87
405.306	148.82
405.515	142.68
405.724	89.43
405.933	132.44
406.142	111.96
406.35	157.01
406.559	181.59
406.768	222.55
406.977	193.87
407.185	212.31
407.394	173.39
407.603	148.82
407.812	181.59
408.02	208.21
408.229	114
408.438	179.54
408.646	214.35
408.855	165.2
409.064	183.63
409.272	189.78
409.481	251.22
409.69	208.21
409.898	163.15
410.107	197.97
410.315	281.94
410.524	173.39
410.733	261.46
410.941	193.87
411.15	277.84
411.358	220.5
411.567	316.75
411.775	300.37
411.984	263.51
412.192	361.81
412.401	326.99
412.609	326.99
412.818	468.3
413.026	357.71
413.234	300.37
413.443	374.1
413.651	370
413.86	443.73
414.068	441.68
414.276	488.78
414.485	410.96
414.693	410.96
414.901	466.25
415.11	429.39
415.318	453.97
415.526	484.69
415.734	548.17
415.943	503.12
416.151	537.93
416.359	615.76
416.567	615.76
416.776	613.71
416.984	619.85
417.192	709.96
417.4	621.9
417.608	595.28
417.817	640.33
418.025	748.87
418.233	879.94
418.441	832.84
418.649	808.26
418.857	834.89
419.065	953.67
419.273	879.94
419.481	922.95
419.689	965.96
419.897	951.62
420.105	968.01
420.313	1023.3
420.521	1117.51
420.729	1107.27
420.937	1062.21
421.145	1127.75
421.353	1224
421.561	1348.93
421.769	1353.02
421.977	1285.44
422.185	1367.36
422.393	1492.29
422.601	1488.19
422.809	1551.68
423.017	1572.16
423.224	1602.88
423.432	1617.21
423.64	1588.54
423.848	1770.81
424.056	1674.56
424.263	1877.3
424.471	1883.45
424.679	1996.09
424.887	1969.46
425.094	2057.53
425.302	2071.86
425.51	2178.36
425.718	2207.03
425.925	2235.7
426.133	2405.68
426.341	2594.09
426.548	2532.65
426.756	2637.1
426.964	2657.58
427.171	2823.47
427.379	2827.56
427.586	2987.3
427.794	2991.4
428.001	3061.03
428.209	3222.82
428.417	3259.68
428.624	3400.99
428.832	3360.03
429.039	3419.43
429.247	3366.18
429.454	3831.07
429.662	4056.34
429.869	3781.92
430.076	4080.92
430.284	3861.79
430.491	4109.59
430.699	4289.81
430.906	4322.58
431.114	4328.72
431.321	4322.58
431.528	4883.72
431.736	4871.43
431.943	5207.3
432.15	4969.74
432.358	5000.46
432.565	5270.79
432.772	5377.28
432.979	5541.12
433.187	5575.94
433.394	5686.53
433.601	5973.24
433.808	6116.6
434.016	6118.65
434.223	6198.52
434.43	6771.95
434.637	6630.64
434.844	6876.4
435.052	7060.71
435.259	6788.33
435.466	7191.78
435.673	7068.91
435.88	7470.31
436.087	7750.88
436.294	8064.22
436.501	7857.37
436.708	7853.28
436.915	8015.07
437.122	8522.96
437.329	8563.92
437.537	8582.35
437.743	8873.17
437.95	8873.17
438.157	9147.59
438.364	9729.22
438.571	9542.85
438.778	9659.59
438.985	10568.88
439.192	10114.24
439.399	10607.8
439.606	10323.13
439.813	10761.39
440.02	11406.5
440.227	11443.37
440.433	11107.5
440.64	11529.38
440.847	11347.11
441.054	11965.6
441.261	12508.31
441.467	12539.03
441.674	12639.38
441.881	12930.19
442.088	13167.76
442.294	12782.74
442.501	13485.19
442.708	13751.43
442.914	14238.84
443.121	14750.84
443.328	14115.97
443.534	15316.08
443.741	15039.6
443.948	14777.46
444.154	15916.13
444.361	15817.83
444.568	16041.06
444.774	15766.63
444.981	15918.18
445.187	16325.72
445.394	17388.62
445.6	17173.58
445.807	18461.76
446.013	17861.7
446.22	18156.61
446.426	18914.36
446.633	19276.85
446.839	19860.52
447.046	18775.09
447.252	19942.44
447.459	20169.76
447.665	19919.91
447.871	20759.58
448.078	21724.17
448.284	20726.81
448.491	21201.94
448.697	22162.44
448.903	22285.31
449.11	22531.07
449.316	22354.94
449.522	22529.02
449.728	23206.9
449.935	23206.9
450.141	23159.8
450.347	23813.1
450.553	23004.15
450.76	23518.19
450.966	24148.96
451.172	23929.83
451.378	24613.85
451.584	23913.45
451.791	25007.06
451.997	24560.61
452.203	24845.27
452.409	25050.07
452.615	24712.16
452.821	24052.71
453.027	23489.52
453.233	24466.4
453.44	23909.35
453.646	24318.95
453.852	24421.34
454.058	24681.44
454.264	23884.78
454.47	24124.39
454.676	23677.93
454.882	24292.32
455.088	22318.08
455.294	22895.61
455.5	23114.74
455.705	23180.28
455.911	22379.52
456.117	22197.25
456.323	21728.27
456.529	20302.88
456.735	21406.73
456.941	20751.38
457.147	20358.17
457.352	20034.6
457.558	19751.98
457.764	19815.46
457.97	19235.89
458.176	18846.77
458.381	18629.69
458.587	18205.76
458.793	18003.01
458.999	16886.87
459.204	18062.4
459.41	17609.8
459.616	16544.86
459.821	16407.64
460.027	16555.1
460.233	16149.6
460.438	15223.92
460.644	15586.41
460.85	14716.02
461.055	14582.9
461.261	14615.67
461.466	13386.89
461.672	13200.52
461.878	13880.45
462.083	13190.28
462.289	12700.82
462.494	12631.19
462.7	12215.45
462.905	11672.74
463.111	12244.12
463.316	12233.88
463.522	11912.35
463.727	12035.23
463.932	11871.39
464.138	11812
464.343	11908.26
464.549	11451.56
464.754	12020.89
464.959	11756.71
465.165	11588.77
465.37	11330.73
465.575	11064.49
465.781	11398.31
465.986	11365.54
466.191	11062.44
466.397	10841.26
466.602	10357.94
466.807	10673.33
467.012	10726.58
467.218	10593.46
467.423	10523.83
467.628	10652.85
467.833	10896.56
468.038	10599.6
468.244	10327.22
468.449	10507.44
468.654	10222.78
468.859	10298.55
469.064	10159.29
469.269	9895.1
469.474	9907.39
469.679	10069.18
469.885	9587.91
470.09	9983.17
470.295	9759.94
470.5	9508.04
470.705	9651.39
470.91	9532.61
471.115	9385.16
471.32	9446.6
471.525	9399.49
471.73	9141.45
471.935	9174.22
472.139	8860.88
472.344	9190.6
472.549	9178.31
472.754	8854.73
472.959	8625.36
473.164	8391.89
473.369	8383.7
473.574	8821.97
473.778	8455.38
473.983	8492.24
474.188	8496.34
474.393	8076.51
474.598	8180.95
474.802	7927
475.007	8072.41
475.212	7916.76
475.417	7718.11
475.621	7904.48
475.826	7697.63
476.031	7625.95
476.235	7476.45
476.44	7591.14
476.645	7302.37
476.849	7468.26
477.054	7378.15
477.259	7372
477.463	7197.93
477.668	7120.1
477.872	7029.99
478.077	6956.27
478.282	6855.92
478.486	6776.05
478.691	6741.23
478.895	6790.38
479.1	6663.41
479.304	6835.44
479.509	6397.17
479.713	6618.35
479.918	6538.48
480.122	6407.41
480.326	6458.61
480.531	6391.03
480.735	6311.16
480.94	6397.17
481.144	6425.84
481.348	6186.23
481.553	6262.01
481.757	6298.87
481.961	6262.01
482.166	6337.78
482.37	6192.37
482.574	6001.91
482.778	6202.61
482.983	6368.5
483.187	6284.53
483.391	6173.94
483.595	6216.95
483.8	6216.95
484.004	6182.13
484.208	6343.92
484.412	6141.18
484.616	6223.09
484.821	6159.61
485.025	6044.92
485.229	6251.77
485.433	5917.95
485.637	6241.53
485.841	6175.99
486.045	6298.87
486.249	6319.35
486.453	6124.79
486.657	6243.57
486.861	6233.33
487.065	6173.94
487.269	6180.09
487.473	6001.91
487.677	6145.27
487.881	6311.16
488.085	6243.57
488.289	6323.44
488.493	6145.27
488.697	6395.12
488.901	6264.05
489.105	6175.99
489.309	6264.05
489.512	6380.79
489.716	6266.1
489.92	6305.01
490.124	6399.22
490.328	6511.86
490.531	6331.64
490.735	6329.59
490.939	6391.03
491.143	6356.21
491.346	6507.76
491.55	6431.99
491.754	6442.23
491.958	6614.26
492.161	6417.65
492.365	6774
492.569	6556.91
492.772	6372.6
492.976	6618.35
493.18	6741.23
493.383	6669.55
493.587	6829.29
493.79	6874.35
493.994	6796.53
494.197	6751.47
494.401	6737.13
494.605	6937.84
494.808	6898.92
495.012	6864.11
495.215	7165.16
495.419	7234.79
495.622	7142.63
495.825	7242.98
496.029	7216.36
496.232	7501.03
496.436	7298.28
496.639	7654.62
496.843	7437.54
497.046	7515.36
497.249	7722.21
497.453	7769.31
497.656	7765.21
497.859	7808.22
498.063	7967.96
498.266	8121.56
498.469	8101.08
498.673	8250.58
498.876	8279.26
499.079	8463.57
499.282	8535.25
499.485	8762.58
499.689	8672.47
499.892	8733.9
500.095	8838.35
500.298	9061.58
500.501	8770.77
500.705	9239.75
500.908	9323.72
501.111	9229.51
501.314	9557.19
501.517	9612.48
501.72	9776.32
501.923	9497.8
502.126	9960.64
502.329	10104
502.532	10235.07
502.735	10155.19
502.938	10542.26
503.141	10585.27
503.344	10534.07
503.547	10974.38
503.75	10742.96
503.953	10914.99
504.156	11095.21
504.359	11469.99
504.562	11252.91
504.765	11592.87
504.968	11601.06
505.17	11637.92
505.373	11902.11
505.576	12072.09
505.779	12084.38
505.982	12203.16
506.185	12278.94
506.387	12508.31
506.59	12688.53
506.793	12905.62
506.996	12844.18
507.198	13208.72
507.401	13370.51
507.604	13266.06
507.807	13812.87
508.009	13659.27
508.212	13982.85
508.415	14011.52
508.617	14052.48
508.82	14636.15
509.022	14388.35
509.225	14654.58
509.428	14576.76
509.63	14783.6
509.833	15053.94
510.035	15387.75
510.238	15408.23
510.44	15580.26
510.643	15774.82
510.845	16145.5
511.048	15797.35
511.25	16252
511.453	16411.74
511.655	16716.89
511.858	16688.21
512.06	16897.11
512.262	17118.29
512.465	17202.25
512.667	17613.9
512.87	17558.6
513.072	17867.84
513.274	17949.76
513.477	18459.71
513.679	18594.87
513.881	18764.85
514.084	18670.65
514.286	18842.68
514.488	19022.9
514.69	19502.12
514.893	19735.59
515.095	19903.53
515.297	19921.96
515.499	20139.04
515.701	20460.57
515.904	20675.61
516.106	21009.43
516.308	21347.34
516.51	21568.52
516.712	21672.97
516.914	21742.6
517.116	22117.38
517.318	22115.33
517.52	22481.92
517.722	22766.59
517.925	22971.38
518.127	23194.61
518.329	23434.22
518.531	23589.87
518.733	23761.9
518.935	23966.7
519.136	24087.53
519.338	24650.72
519.54	24746.97
519.742	25213.91
519.944	24857.56
520.146	25285.59
520.348	25664.46
520.55	25568.21
520.752	25908.17
520.954	26538.94
521.155	26579.9
521.357	26796.99
521.559	27044.79
521.761	27388.85
521.963	27392.95
522.164	28058.54
522.366	27579.31
522.568	27976.62
522.77	28388.26
522.971	28953.5
523.173	28822.43
523.375	28967.84
523.576	29246.36
523.778	29186.97
523.98	29711.25
524.181	29897.61
524.383	29883.28
524.584	30436.23
524.786	30512
524.988	30495.62
525.189	30745.47
525.391	31013.76
525.592	31251.32
525.794	31255.42
525.995	31204.22
526.197	31417.21
526.398	31871.85
526.6	32213.87
526.801	32170.86
527.003	32498.53
527.204	32148.33
527.406	32484.2
527.607	32717.67
527.808	32795.49
528.01	32443.24
528.211	32926.56
528.412	33444.69
528.614	33577.81
528.815	33616.72
529.016	33999.69
529.218	33502.04
529.419	33936.21
529.62	33747.79
529.822	34132.81
530.023	34145.1
530.224	33815.38
530.425	34151.24
530.626	34388.81
530.828	34138.96
531.029	34763.59
531.23	34437.96
531.431	34650.95
531.632	34650.95
531.833	34884.42
532.035	35195.71
532.236	35031.87
532.437	35183.42
532.638	35085.12
532.839	35550.01
533.04	35248.96
533.241	34702.15
533.442	35443.51
533.643	35431.22
533.844	35277.63
534.045	35754.8
534.246	35308.35
534.447	35703.6
534.648	35511.1
534.849	35599.16
535.05	34876.23
535.251	35806
535.451	35267.39
535.652	35785.52
535.853	35470.14
536.054	35566.39
536.255	35990.32
536.456	35560.25
536.657	35873.59
536.857	35414.84
537.058	35377.98
537.259	36006.7
537.46	35939.12
537.66	35900.21
537.861	35466.04
538.062	35732.28
538.263	36086.57
538.463	35515.19
538.664	35615.54
538.865	35812.15
539.065	35765.04
539.266	35748.66
539.466	36301.61
539.667	35515.19
539.868	36195.12
540.068	36055.86
540.269	35767.09
540.469	36000.56
540.67	35861.3
540.87	35656.5
541.071	35900.21
541.271	35916.59
541.472	35810.1
541.672	35382.07
541.873	35613.49
542.073	35371.83
542.274	36064.05
542.474	36176.69
542.675	35523.38
542.875	35969.84
543.075	35568.44
543.276	35130.17
543.476	35857.2
543.676	35666.74
543.877	35879.73
544.077	35748.66
544.277	35554.1
544.478	35517.24
544.678	35875.63
544.878	35652.41
545.078	35734.32
545.279	35457.85
545.479	35697.46
545.679	35580.73
545.879	35568.44
546.079	35603.25
546.28	35509.05
546.48	35679.03
546.68	35550.01
546.88	35711.8
547.08	36039.47
547.28	35840.82
547.48	35109.69
547.68	35674.93
547.88	35375.93
548.081	35625.78
548.281	35638.07
548.481	35294.01
548.681	35593.01
548.881	35861.3
549.081	35550.01
549.28	35255.1
549.48	35912.5
549.68	35740.47
549.88	35734.32
550.08	35294.01
550.28	35681.08
550.48	35322.68
550.68	35918.64
550.88	35449.66
551.08	35291.96
551.279	35846.96
551.479	35455.8
551.679	35375.93
551.879	35341.11
552.079	35547.96
552.278	35281.72
552.478	35343.16
552.678	35445.56
552.878	35582.77
553.077	35203.9
553.277	35101.5
553.477	35334.97
553.676	35148.6
553.876	35289.91
554.076	35470.14
554.275	35263.29
554.475	34782.02
554.674	35222.33
554.874	35085.12
555.074	34822.98
555.273	35208
555.473	35507
555.672	34700.1
555.872	35042.11
556.071	34820.93
556.271	35425.08
556.47	34952
556.67	34200.4
556.869	34536.26
557.068	34757.44
557.268	34523.97
557.467	34526.02
557.667	34456.39
557.866	34353.99
558.065	34245.45
558.265	34202.44
558.464	34425.67
558.663	34421.58
558.863	34054.99
559.062	34513.73
559.261	33745.75
559.461	34218.83
559.66	33829.71
559.859	33823.57
560.058	33708.88
560.258	33874.77
560.457	33207.13
560.656	33950.54
560.855	33442.65
561.054	33520.47
561.253	33274.71
561.453	33358.68
561.652	33303.39
561.851	33557.33
562.05	33139.55
562.249	33211.23
562.448	33340.25
562.647	33076.06
562.846	32899.94
563.045	32920.42
563.244	32758.63
563.443	32879.46
563.642	31982.45
563.841	32582.5
564.04	32461.67
564.239	32779.11
564.438	31945.58
564.637	32289.64
564.836	32349.03
565.035	31783.79
565.234	32394.09
565.432	31771.5
565.631	31959.92
565.83	31865.71
566.029	31378.29
566.228	31323
566.427	31593.33
566.625	31320.95
566.824	30772.1
567.023	31265.66
567.222	30495.62
567.42	30964.6
567.619	30493.57
567.818	30747.52
568.016	30301.06
568.215	30823.29
568.414	30102.41
568.612	30493.57
568.811	30098.31
569.01	29789.07
569.208	29359
569.407	30159.75
569.605	29547.41
569.804	29922.19
570.002	29352.85
570.201	29782.93
570.4	29557.65
570.598	29299.61
570.797	29250.45
570.995	29332.37
571.193	28767.13
571.392	29356.95
571.59	29082.52
571.789	28797.85
571.987	28720.03
572.186	28691.36
572.384	28498.85
572.582	28246.95
572.781	28263.33
572.979	27868.08
573.177	27952.04
573.376	28242.85
573.574	28001.19
573.772	27761.58
573.971	27497.39
574.169	27329.46
574.367	27147.19
574.565	27411.38
574.763	27026.36
574.962	27569.07
575.16	26766.27
575.358	26733.5
575.556	26751.93
575.754	27272.12
575.952	26667.97
576.151	26893.24
576.349	26454.98
576.547	26434.5
576.745	26225.61
576.943	26301.38
577.141	26217.41
577.339	26207.17
577.537	25979.85
577.735	25770.96
577.933	25963.47
578.131	25998.28
578.329	25557.97
578.527	25371.6
578.725	25469.9
578.923	25697.23
579.121	25697.23
579.319	25310.16
579.516	25553.87
579.714	25422.8
579.912	24919
580.11	25060.31
580.308	25082.84
580.506	25152.47
580.704	24200.16
580.901	24706.01
581.099	24785.88
581.297	24501.22
581.495	24255.46
581.692	24392.67
581.89	24409.06
582.088	24497.12
582.285	24167.4
582.483	24200.16
582.681	23698.41
582.878	24050.66
583.076	23446.51
583.274	24071.14
583.471	23585.77
583.669	23579.63
583.866	23434.22
584.064	23655.4
584.262	23170.04
584.459	23632.88
584.657	23284.72
584.854	23192.56
585.052	23030.77
585.249	23059.45
585.447	23194.61
585.644	22754.3
585.841	22793.21
586.039	23184.37
586.236	22631.42
586.434	22438.91
586.631	22612.99
586.828	22561.79
587.026	22541.31
587.223	21939.21
587.42	22303.74
587.618	22377.47
587.815	21928.97
588.012	21990.41
588.21	21732.36
588.407	22289.41
588.604	21863.43
588.801	21922.82
588.999	21709.83
589.196	21576.72
589.393	21855.24
589.59	21455.89
589.787	21316.62
589.984	21490.7
590.182	20984.85
590.379	21627.92
590.576	20802.58
590.773	20966.42
590.97	20849.69
591.167	21034
591.364	20941.85
591.561	20696.09
591.758	20511.77
591.955	20558.88
592.152	20714.52
592.349	20735
592.546	20618.27
592.743	20485.15
592.94	20497.44
593.137	20227.1
593.334	20292.64
593.531	19903.53
593.727	20323.36
593.924	20065.32
594.121	19831.85
594.318	20128.8
594.515	19655.72
594.712	19936.29
594.908	19887.14
595.105	19792.94
595.302	19418.16
595.499	19504.17
595.696	19326
595.892	19303.47
596.089	19434.54
596.286	19469.36
596.482	19250.22
596.679	19270.7
596.876	19170.35
597.072	19016.76
597.269	19233.84
597.466	18746.42
597.662	18541.63
597.859	18945.08
598.055	19039.28
598.252	18641.98
598.448	18785.33
598.645	18492.48
598.841	18521.15
599.038	18496.57
599.234	18351.17
599.431	18308.16
599.627	18142.27
599.824	18297.92
600.02	18056.26
600.217	18281.53
600.413	18033.73
600.609	17871.94
600.806	18058.31
601.002	18111.55
601.198	17706.06
601.395	17712.2
601.591	17513.55
601.787	17445.96
601.984	17484.87
602.18	17595.46
602.376	17409.1
602.572	17323.08
602.769	17419.34
602.965	17030.23
603.161	17427.53
603.357	17071.18
603.553	17036.37
603.75	17085.52
603.946	16868.44
604.142	17149.01
604.338	16983.12
604.534	17011.79
604.73	16979.03
604.926	16565.34
605.122	16850
605.318	16862.29
605.514	16460.89
605.71	16637.02
605.906	16720.98
606.102	16499.8
606.298	16544.86
606.494	16475.23
606.69	16464.99
606.886	16165.98
607.082	16229.47
607.278	16202.85
607.474	15944.8
607.67	16118.88
607.866	15664.23
608.062	16258.14
608.257	16026.72
608.453	15959.14
608.649	16000.1
608.845	15981.67
609.041	15772.77
609.236	15582.31
609.432	15617.13
609.628	15864.93
609.824	15541.35
610.019	15328.36
610.215	15406.19
610.411	15309.93
610.606	15545.45
610.802	15596.65
610.998	15416.43
611.193	15311.98
611.389	15367.27
611.584	15195.25
611.78	15195.25
611.976	15078.51
612.171	15285.36
612.367	15180.91
612.562	14924.91
612.758	14867.57
612.953	14873.71
613.149	15043.7
613.344	14679.16
613.539	15107.18
613.735	14933.11
613.93	14814.32
614.126	14740.6
614.321	14834.8
614.517	14900.34
614.712	14740.6
614.907	14713.97
615.103	14625.91
615.298	14494.84
615.493	14822.52
615.688	14369.91
615.884	14597.24
616.079	14486.65
616.274	14556.28
616.47	14247.04
616.665	14421.11
616.86	14400.63
617.055	14214.27
617.25	14109.82
617.445	14521.46
617.641	14056.57
617.836	14374.01
618.031	13825.15
618.226	13995.14
618.421	13802.63
618.616	14103.68
618.811	13706.37
619.006	13927.55
619.201	13608.07
619.396	13708.42
619.591	13278.35
619.786	13610.12
619.981	13552.77
620.176	13472.9
620.371	13298.83
620.566	13341.83
620.761	13526.15
620.956	13331.59
621.151	12901.52
621.346	13012.11
621.541	13126.8
621.735	13169.8
621.93	12897.42
622.125	12885.14
622.32	12592.28
622.515	12870.8
622.709	12635.28
622.904	12565.65
623.099	12612.76
623.294	12473.49
623.488	12135.58
623.683	12180.64
623.878	12287.13
624.072	12389.53
624.267	12035.23
624.462	11971.74
624.656	11984.03
624.851	12088.48
625.046	11936.93
625.24	12227.74
625.435	11721.89
625.629	11803.81
625.824	11611.3
626.018	11642.02
626.213	11480.23
626.407	11541.67
626.602	11336.87
626.796	11289.77
626.991	11273.39
627.185	11453.61
627.38	11156.65
627.574	10972.33
627.768	10923.18
627.963	11033.77
628.157	10878.13
628.352	10661.04
628.546	10798.26
628.74	10941.61
628.935	10669.23
629.129	10710.19
629.323	10525.88
629.517	10198.2
629.712	10622.13
629.906	10323.13
630.1	10294.46
630.294	10228.92
630.489	10130.62
630.683	10114.24
630.877	9977.02
631.071	9934.01
631.265	10167.48
631.459	9911.49
631.653	9960.64
631.848	9661.63
632.042	9655.49
632.236	9927.87
632.43	9649.35
632.624	9757.89
632.818	9632.96
633.012	9462.98
633.206	9475.27
633.4	9530.56
633.594	9354.44
633.788	9331.91
633.982	9516.23
634.176	9282.76
634.369	9247.94
634.563	9045.2
634.757	9037
634.951	9022.67
635.145	9088.2
635.339	8748.24
635.533	8885.45
635.726	8783.06
635.92	8791.25
636.114	8633.55
636.308	8721.62
636.501	8797.39
636.695	8637.65
636.889	8615.12
637.083	8621.27
637.276	8439
637.47	8430.8
637.664	8338.65
637.857	8381.65
638.051	8350.93
638.244	8277.21
638.438	8135.9
638.632	8232.15
638.825	7988.44
639.019	8017.11
639.212	7908.57
639.406	8070.36
639.599	7918.81
639.793	8004.83
639.986	7785.69
640.18	7845.09
640.373	7916.76
640.567	7638.24
640.76	7752.93
640.954	7625.95
641.147	7398.63
641.34	7443.68
641.534	7466.21
641.727	7464.16
641.92	7490.79
642.114	7445.73
642.307	7380.2
642.5	7488.74
642.694	7275.75
642.887	7283.94
643.08	7212.26
643.273	6978.79
643.467	7126.25
643.66	6991.08
643.853	6984.94
644.046	6821.1
644.239	6997.23
644.432	6966.51
644.626	6726.89
644.819	6698.22
645.012	6747.37
645.205	6718.7
645.398	6761.71
645.591	6780.14
645.784	6677.74
645.977	6491.38
646.17	6540.53
646.363	6479.09
646.556	6524.15
646.749	6495.47
646.942	6493.43
647.135	6257.91
647.328	6393.08
647.521	6378.74
647.714	6149.37
647.907	6188.28
648.099	6352.12
648.292	6251.77
648.485	6288.63
648.678	6046.97
648.871	6157.56
649.064	6046.97
649.256	6139.13
649.449	6163.7
649.642	5932.28
649.835	5903.61
650.027	5807.36
650.22	5766.4
650.413	5958.91
650.605	5893.37
650.798	5704.96
650.991	5819.64
651.183	5682.43
651.376	5690.62
651.568	5520.64
651.761	5704.96
651.954	5692.67
652.146	5500.16
652.339	5541.12
652.531	5465.35
652.724	5426.43
652.916	5393.67
653.109	5264.64
653.301	5362.95
653.494	5444.87
653.686	5223.69
653.879	5512.45
654.071	5485.83
654.263	5285.12
654.456	5178.63
654.648	5156.1
654.84	5248.26
655.033	5018.89
655.225	5111.05
655.417	5047.56
655.61	5119.24
655.802	5014.79
655.994	4996.36
656.186	5070.09
656.379	4949.26
656.571	5053.7
656.763	4814.09
656.955	4855.05
657.148	4906.25
657.34	4830.48
657.532	4756.75
657.724	4781.32
657.916	4912.39
658.108	4861.2
658.3	4810
658.492	4689.17
658.684	4680.97
658.876	4611.34
659.068	4531.47
659.26	4566.29
659.452	4525.33
659.644	4521.23
659.836	4633.87
660.028	4689.17
660.22	4547.86
660.412	4590.86
660.604	4609.3
660.796	4486.42
660.988	4449.55
661.18	4467.99
661.372	4291.86
661.563	4431.12
661.755	4250.9
661.947	4261.14
662.139	4351.25
662.331	4066.58
662.522	4234.52
662.714	4211.99
662.906	4072.73
663.097	4293.91
663.289	4144.41
663.481	4148.5
663.673	4080.92
663.864	4154.65
664.056	3986.71
664.247	4064.54
664.439	3955.99
664.631	4068.63
664.822	4373.78
665.014	4068.63
665.205	3951.9
665.397	3982.62
665.588	4046.1
665.78	3892.51
665.971	3908.89
666.163	4121.88
666.354	3994.9
666.546	3906.84
666.737	4042.01
666.929	3927.32
667.12	3859.74
667.311	3841.31
667.503	3775.77
667.694	3867.93
667.885	3947.8
668.077	3945.75
668.268	3677.47
668.459	3732.76
668.651	3927.32
668.842	3857.69
669.033	3777.82
669.224	3765.53
669.416	3953.94
669.607	3618.08
669.798	3779.87
669.989	3853.59
670.18	3622.17
670.371	3650.85
670.563	3603.74
670.754	3740.96
670.945	3753.24
671.136	3691.8
671.327	3654.94
671.518	3663.13
671.709	3618.08
671.9	3712.28
672.091	3745.05
672.282	3591.45
672.473	3474.72
672.664	3646.75
672.855	3599.65
673.046	3663.13
673.237	3618.08
673.428	3644.7
673.619	3548.45
673.809	3517.73
674	3636.51
674.191	3759.39
674.382	3509.54
674.573	3554.59
674.764	3450.14
674.954	3648.8
675.145	3556.64
675.336	3671.33
675.527	3446.05
675.717	3564.83
675.908	3505.44
676.099	3542.3
676.289	3671.33
676.48	3482.91
676.671	3407.14
676.861	3568.93
677.052	3458.34
677.243	3472.67
677.433	3591.45
677.624	3665.18
677.814	3407.14
678.005	3472.67
678.195	3513.63
678.386	3517.73
678.576	3431.71
678.767	3372.32
678.957	3554.59
679.148	3560.73
679.338	3652.89
679.529	3548.45
679.719	3595.55
679.909	3568.93
680.1	3583.26
680.29	3646.75
680.481	3570.97
680.671	3597.6
680.861	3628.32
681.052	3599.65
681.242	3607.84
681.432	3595.55
681.622	3474.72
681.813	3507.49
682.003	3624.22
682.193	3607.84
682.383	3700
682.573	3462.43
682.764	3585.31
682.954	3581.21
683.144	3618.08
683.334	3439.9
683.524	3693.85
683.714	3642.65
683.904	3671.33
684.094	3558.69
684.284	3552.54
684.474	3659.04
684.664	3632.41
684.854	3511.58
685.044	3558.69
685.234	3521.82
685.424	3679.52
685.614	3511.58
685.804	3507.49
685.994	3669.28
686.184	3661.09
686.374	3700
686.564	3554.59
686.753	3534.11
686.943	3587.36
687.133	3513.63
687.323	3503.39
687.513	3462.43
687.702	3456.29
687.892	3390.75
688.082	3441.95
688.272	3458.34
688.461	3405.09
688.651	3407.14
688.841	3405.09
689.03	3306.79
689.22	3362.08
689.41	3466.53
689.599	3378.47
689.789	3478.82
689.979	3317.03
690.168	3331.36
690.358	3278.12
690.547	3314.98
690.737	3233.06
690.926	3124.52
691.116	3310.88
691.305	3204.39
691.495	3114.28
691.684	3161.38
691.874	3147.05
692.063	3104.04
692.252	3239.2
692.442	3224.87
692.631	3073.32
692.82	3061.03
693.01	3087.65
693.199	3163.43
693.388	3011.88
693.578	3011.88
693.767	3026.22
693.956	3112.23
694.146	2938.15
694.335	2966.82
694.524	3011.88
694.713	2970.92
694.902	2997.54
695.092	2884.91
695.281	2886.95
695.47	2993.45
695.659	2911.53
695.848	2907.43
696.037	2856.23
696.226	2948.39
696.415	2934.06
696.604	2956.58
696.793	2995.5
696.982	2874.67
697.171	3036.45
697.36	2839.85
697.549	2876.71
697.738	2882.86
697.927	2893.1
698.116	2950.44
698.305	2897.19
698.494	2794.79
698.683	2862.38
698.872	2972.97
699.061	2882.86
699.25	2690.35
699.438	2909.48
699.627	2805.03
699.816	2876.71
700.005	2802.99
700.193	2874.67
700.382	2917.67
700.571	2874.67
700.76	3071.27
700.948	2958.63
701.137	3069.22
701.326	2932.01
701.514	2893.1
701.703	2919.72
701.892	3087.65
702.08	3005.74
702.269	2843.95
702.457	2921.77
702.646	2946.34
702.834	2944.3
703.023	2960.68
703.212	2981.16
703.4	2952.49
703.589	2860.33
703.777	2927.91
703.965	3009.83
704.154	2956.58
704.342	3036.45
704.531	2968.87
704.719	3044.65
704.907	2913.58
705.096	2936.1
705.284	2950.44
705.472	2874.67
705.661	2995.5
705.849	3001.64
706.037	3085.61
706.226	3024.17
706.414	3015.98
706.602	2977.06
706.79	2985.26
706.979	2997.54
707.167	3022.12
707.355	2899.24
707.543	2985.26
707.731	3071.27
707.919	3038.5
708.107	3005.74
708.296	3024.17
708.484	2913.58
708.672	3104.04
708.86	3054.89
709.048	3007.78
709.236	3145
709.424	3013.93
709.612	3020.07
709.8	3075.37
709.988	3099.94
710.176	2999.59
710.364	3147.05
710.551	3147.05
710.739	3071.27
710.927	3106.09
711.115	3128.61
711.303	3304.74
711.491	3228.96
711.679	3005.74
711.866	3212.58
712.054	3249.44
712.242	3056.93
712.43	3280.16
712.617	3081.51
712.805	3366.18
712.993	3282.21
713.181	3251.49
713.368	3280.16
713.556	3188
713.744	3153.19
713.931	3153.19
714.119	3185.96
714.306	3190.05
714.494	3095.85
714.682	3226.92
714.869	3269.92
715.057	3329.31
715.244	3286.31
715.432	3253.54
715.619	3190.05
715.807	3372.32
715.994	3314.98
716.182	3290.4
716.369	3413.28
716.556	3228.96
716.744	3212.58
716.931	3323.17
717.119	3343.65
717.306	3427.62
717.493	3212.58
717.681	3245.35
717.868	3446.05
718.055	3452.19
718.242	3337.51
718.43	3314.98
718.617	3323.17
718.804	3308.83
718.991	3507.49
719.179	3476.77
719.366	3435.81
719.553	3503.39
719.74	3444
719.927	3482.91
720.114	3444
720.301	3474.72
720.488	3286.31
720.676	3372.32
720.863	3478.82
721.05	3497.25
721.237	3423.52
721.424	3538.21
721.611	3540.26
721.798	3511.58
721.985	3433.76
722.172	3525.92
722.358	3437.86
722.545	3564.83
722.732	3394.85
722.919	3495.2
723.106	3491.1
723.293	3458.34
723.48	3556.64
723.667	3394.85
723.853	3552.54
724.04	3521.82
724.227	3505.44
724.414	3542.3
724.6	3450.14
724.787	3669.28
724.974	3570.97
725.161	3595.55
725.347	3487.01
725.534	3556.64
725.72	3568.93
725.907	3644.7
726.094	3687.71
726.28	3667.23
726.467	3648.8
726.653	3618.08
726.84	3577.12
727.027	3708.19
727.213	3484.96
727.4	3730.72
727.586	3575.07
727.773	3636.51
727.959	3630.37
728.145	3708.19
728.332	3665.18
728.518	3640.61
728.705	3796.25
728.891	3636.51
729.077	3757.34
729.264	3687.71
729.45	3704.09
729.636	3779.87
729.823	3675.42
730.009	3650.85
730.195	3669.28
730.382	3808.54
730.568	3669.28
730.754	3847.45
730.94	3814.68
731.126	3835.16
731.313	3808.54
731.499	3851.55
731.685	3769.63
731.871	3882.27
732.057	3904.79
732.243	3677.47
732.429	3906.84
732.615	3933.47
732.801	3786.01
732.987	3745.05
733.173	3884.31
733.359	3900.7
733.545	3779.87
733.731	3939.61
733.917	3773.72
734.103	3882.27
734.289	3884.31
734.475	3736.86
734.661	3960.09
734.847	3798.3
735.033	3859.74
735.219	3902.75
735.404	3874.07
735.59	3839.26
735.776	3779.87
735.962	4021.53
736.148	3869.98
736.333	3845.4
736.519	3939.61
736.705	3996.95
736.89	3890.46
737.076	3898.65
737.262	3833.11
737.447	3847.45
737.633	3822.88
737.819	3886.36
738.004	3790.11
738.19	3734.81
738.375	3800.35
738.561	3794.2
738.747	3888.41
738.932	3716.38
739.118	3894.55
739.303	3829.02
739.489	3849.5
739.674	3722.52
739.859	3767.58
740.045	3767.58
740.23	3841.31
740.416	3786.01
740.601	3800.35
740.786	3654.94
740.972	3757.34
741.157	3726.62
741.342	3644.7
741.528	3665.18
741.713	3577.12
741.898	3595.55
742.084	3675.42
742.269	3667.23
742.454	3601.69
742.639	3777.82
742.824	3581.21
743.01	3743
743.195	3562.78
743.38	3556.64
743.565	3667.23
743.75	3720.48
743.935	3599.65
744.12	3693.85
744.305	3409.19
744.49	3480.86
744.675	3564.83
744.86	3464.48
745.045	3501.34
745.23	3435.81
745.415	3544.35
745.6	3476.77
745.785	3497.25
745.97	3388.71
746.155	3349.79
746.34	3419.43
746.525	3333.41
746.71	3470.62
746.895	3274.02
747.079	3331.36
747.264	3278.12
747.449	3343.65
747.634	3333.41
747.819	3370.27
748.003	3228.96
748.188	3175.72
748.373	3190.05
748.557	3263.78
748.742	3204.39
748.927	3222.82
749.111	3265.83
749.296	3263.78
749.481	3073.32
749.665	3069.22
749.85	3155.24
750.034	3063.08
750.219	3099.94
750.404	3013.93
750.588	3136.81
750.773	2991.4
750.957	2874.67
751.141	3001.64
751.326	2921.77
751.51	2807.08
751.695	2964.78
751.879	2905.38
752.064	2919.72
752.248	2897.19
752.432	2839.85
752.617	2747.69
752.801	2782.51
752.985	2729.26
753.17	2776.36
753.354	2657.58
753.538	2741.55
753.722	2729.26
753.907	2592.05
754.091	2637.1
754.275	2579.76
754.459	2565.42
754.643	2692.4
754.828	2573.61
755.012	2676.01
755.196	2553.13
755.38	2512.17
755.564	2528.56
755.748	2534.7
755.932	2600.24
756.116	2495.79
756.3	2479.41
756.484	2499.89
756.668	2471.22
756.852	2354.48
757.036	2362.67
757.22	2317.62
757.404	2317.62
757.588	2389.3
757.772	2454.83
757.956	2434.35
758.14	2424.11
758.323	2362.67
758.507	2368.82
758.691	2116.92
758.875	2319.67
759.059	2354.48
759.242	2288.95
759.426	2207.03
759.61	2069.81
759.794	2096.44
759.977	2184.5
760.161	2200.88
760.345	2196.79
760.528	2065.72
760.712	2170.16
760.895	2190.64
761.079	2157.88
761.263	2006.33
761.446	2084.15
761.63	2106.68
761.813	2057.53
761.997	2016.57
762.18	1905.98
762.364	2026.81
762.547	1998.13
762.731	1940.79
762.914	1985.85
763.098	1998.13
763.281	1940.79
763.464	2037.05
763.648	1961.27
763.831	1905.98
764.015	1920.31
764.198	1944.89
764.381	1824.06
764.564	1979.7
764.748	1920.31
764.931	1822.01
765.114	1793.34
765.297	1903.93
765.481	1809.72
765.664	1770.81
765.847	1783.1
766.03	1862.97
766.213	1842.49
766.397	1815.87
766.58	1791.29
766.763	1867.06
766.946	1713.47
767.129	1785.15
767.312	1738.04
767.495	1733.95
767.678	1572.16
767.861	1766.71
768.044	1713.47
768.227	1701.18
768.41	1688.89
768.593	1588.54
768.776	1672.51
768.959	1649.98
769.142	1766.71
769.324	1568.06
769.507	1692.99
769.69	1707.32
769.873	1531.2
770.056	1746.23
770.239	1572.16
770.421	1684.8
770.604	1604.92
770.787	1576.25
770.97	1561.92
771.152	1512.77
771.335	1604.92
771.518	1525.05
771.7	1572.16
771.883	1563.97
772.066	1461.57
772.248	1555.77
772.431	1459.52
772.613	1494.33
772.796	1426.75
772.978	1525.05
773.161	1451.33
773.343	1533.25
773.526	1336.64
773.708	1475.9
773.891	1334.59
774.073	1436.99
774.256	1439.04
774.438	1457.47
774.621	1400.13
774.803	1338.69
774.985	1393.98
775.168	1346.88
775.35	1320.26
775.532	1297.73
775.715	1195.33
775.897	1287.49
776.079	1262.91
776.261	1230.15
776.444	1338.69
776.626	1330.5
776.808	1295.68
776.99	1269.06
777.173	1228.1
777.355	1217.86
777.537	1285.44
777.719	1264.96
777.901	1172.8
778.083	1160.52
778.265	1088.84
778.447	1129.8
778.629	1152.32
778.811	1232.19
778.993	1172.8
779.175	1185.09
779.357	1195.33
779.539	1105.22
779.721	1148.23
779.903	1070.4
780.085	918.86
780.267	1031.49
780.449	1146.18
780.631	1113.41
780.812	1088.84
780.994	996.68
781.176	1078.6
781.358	1027.4
781.54	1062.21
781.721	992.58
781.903	937.29
782.085	1006.92
782.267	1025.35
782.448	978.25
782.63	959.81
782.812	951.62
782.993	998.73
783.175	945.48
783.357	904.52
783.538	922.95
783.72	949.57
783.901	916.81
784.083	865.61
784.264	939.34
784.446	865.61
784.627	777.55
784.809	925
784.99	834.89
785.172	869.7
785.353	855.37
785.535	810.31
785.716	812.36
785.897	810.31
786.079	814.41
786.26	922.95
786.441	775.5
786.623	779.59
786.804	843.08
786.985	755.02
787.167	712.01
787.348	726.35
787.529	752.97
787.71	822.6
787.891	742.73
788.073	793.93
788.254	673.1
788.435	746.83
788.616	697.67
788.797	712.01
788.978	722.25
789.159	701.77
789.34	755.02
789.522	632.14
789.703	660.81
789.884	658.76
790.065	613.71
790.246	738.63
790.427	572.75
790.607	660.81
790.788	701.77
790.969	742.73
791.15	623.95
791.331	621.9
791.512	623.95
791.693	595.28
791.874	621.9
792.054	724.3
792.235	777.55
792.416	546.12
792.597	550.22
792.778	628.04
792.958	587.08
793.139	630.09
793.32	587.08
793.5	595.28
793.681	580.94
793.862	539.98
794.042	517.45
794.223	537.93
794.404	572.75
794.584	539.98
794.765	539.98
794.945	519.5
795.126	564.56
795.306	607.56
795.487	560.46
795.667	542.03
795.848	603.47
796.028	470.35
796.209	507.21
796.389	539.98
796.57	431.44
796.75	470.35
796.93	472.4
797.111	535.89
797.291	550.22
797.471	484.69
797.652	462.16
797.832	490.83
798.012	548.17
798.192	447.82
798.373	435.53
798.553	478.54
798.733	486.73
798.913	486.73
799.093	523.6
799.274	437.58
799.454	542.03
799.634	394.58
799.814	503.12
799.994	462.16
800.174	476.49
800.354	400.72
800.534	396.62
800.714	425.29
800.894	417.1
801.074	398.67
801.254	415.05
801.434	466.25
801.614	447.82
801.794	353.62
801.974	1178.95
802.154	443.73
802.334	505.17
802.514	374.1
802.693	351.57
802.873	357.71
803.053	435.53
803.233	431.44
803.413	355.66
803.592	478.54
803.772	283.98
803.952	451.92
804.131	384.34
804.311	376.14
804.491	355.66
804.67	406.86
804.85	367.95
805.03	408.91
805.209	376.14
805.389	398.67
805.568	456.01
805.748	417.1
805.928	347.47
806.107	410.96
806.287	363.86
806.466	453.97
806.646	337.23
806.825	275.79
807.004	347.47
807.184	363.86
807.363	413.01
807.543	380.24
807.722	292.18
807.901	441.68
808.081	322.9
808.26	326.99
808.439	339.28
808.619	329.04
808.798	329.04
808.977	345.42
809.156	343.38
809.336	312.66
809.515	402.77
809.694	292.18
809.873	304.46
810.052	337.23
810.231	357.71
810.411	386.38
810.59	314.7
810.769	329.04
810.948	458.06
811.127	275.79
811.306	245.07
811.485	320.85
811.664	359.76
811.843	351.57
812.022	275.79
812.201	294.22
812.38	386.38
812.559	247.12
812.737	161.11
812.916	304.46
813.095	290.13
813.274	245.07
813.453	314.7
813.632	238.93
813.811	290.13
813.989	212.31
814.168	216.4
814.347	220.5
814.526	316.75
814.704	326.99
814.883	288.08
815.062	230.74
815.24	318.8
815.419	212.31
815.598	388.43
815.776	261.46
815.955	261.46
816.133	222.55
816.312	269.65
816.49	216.4
816.669	204.11
816.847	214.35
817.026	255.31
817.204	267.6
817.383	234.83
817.561	253.27
817.74	263.51
817.918	286.03
818.097	259.41
818.275	212.31
818.453	298.32
818.632	277.84
818.81	283.98
818.988	240.98
819.167	212.31
819.345	232.79
819.523	183.63
819.701	234.83
819.879	306.51
820.058	253.27
820.236	154.96
820.414	236.88
820.592	173.39
820.77	171.35
820.948	220.5
821.127	173.39
821.305	263.51
821.483	259.41
821.661	212.31
821.839	185.68
822.017	204.11
822.195	212.31
822.373	175.44
822.551	208.21
822.729	185.68
822.907	134.48
823.085	187.73
823.262	206.16
823.44	173.39
823.618	146.77
823.796	206.16
823.974	220.5
824.152	146.77
824.329	218.45
824.507	148.82
824.685	183.63
824.863	159.06
825.04	177.49
825.218	210.26
825.396	232.79
825.574	175.44
825.751	214.35
825.929	187.73
826.107	154.96
826.284	193.87
826.462	202.07
826.639	197.97
826.817	152.91
826.994	286.03
827.172	163.15
827.349	200.02
827.527	187.73
827.704	232.79
827.882	259.41
828.059	214.35
828.237	150.87
828.414	171.35
828.591	138.58
828.769	159.06
828.946	154.96
829.124	240.98
829.301	187.73
829.478	193.87
829.655	222.55
829.833	175.44
830.01	116.05
830.187	159.06
830.364	142.68
830.542	146.77
830.719	152.91
830.896	281.94
831.073	216.4
831.25	202.07
831.427	171.35
831.604	189.78
831.782	187.73
831.959	187.73
832.136	185.68
832.313	183.63
832.49	122.2
832.667	179.54
832.844	218.45
833.021	204.11
833.198	202.07
833.374	171.35
833.551	193.87
833.728	169.3
833.905	32.08
834.082	95.57
834.259	173.39
834.436	167.25
834.612	77.14
834.789	157.01
834.966	154.96
835.143	179.54
835.319	120.15
835.496	159.06
835.673	195.92
835.85	173.39
836.026	185.68
836.203	200.02
836.38	62.8
836.556	175.44
836.733	167.25
836.909	243.03
837.086	114
837.262	95.57
837.439	181.59
837.616	99.67
837.792	116.05
837.968	140.63
838.145	52.56
838.321	144.72
838.498	101.72
838.674	148.82
838.851	144.72
839.027	138.58
839.203	210.26
839.38	116.05
839.556	144.72
839.732	134.48
839.909	140.63
840.085	169.3
840.261	128.34
840.437	163.15
840.614	101.72
840.79	138.58
840.966	159.06
841.142	122.2
841.318	48.47
841.494	87.38
841.671	118.1
841.847	134.48
842.023	144.72
842.199	171.35
842.375	214.35
842.551	79.19
842.727	109.91
842.903	148.82
843.079	99.67
843.255	118.1
843.431	27.99
843.607	142.68
843.783	54.61
843.959	118.1
844.134	15.7
844.31	93.52
844.486	146.77
844.662	68.95
844.838	58.71
845.013	148.82
845.189	109.91
845.365	148.82
845.541	134.48
845.716	140.63
845.892	105.81
846.068	148.82
846.244	140.63
846.419	128.34
846.595	50.52
846.77	126.29
846.946	81.24
847.122	111.96
847.297	103.76
847.473	77.14
847.648	9.56
847.824	177.49
847.999	11.61
848.175	75.09
848.35	107.86
848.526	130.39
848.701	146.77
848.876	146.77
849.052	97.62
849.227	83.28
849.403	71
849.578	175.44
849.753	101.72
849.929	99.67
850.104	5.46
850.279	27.99
850.454	177.49
850.63	140.63
850.805	89.43
850.98	91.48
851.155	122.2
851.33	42.32
851.505	77.14
851.681	73.04
851.856	64.85
852.031	91.48
852.206	87.38
852.381	60.76
852.556	136.53
852.731	46.42
852.906	116.05
853.081	50.52
853.256	107.86
853.431	34.13
853.606	114
853.781	30.04
853.956	34.13
854.131	1.37
854.305	-15.02
854.48	79.19
854.655	89.43
854.83	95.57
855.005	40.28
855.18	36.18
855.354	111.96
855.529	146.77
855.704	32.08
855.879	91.48
856.053	-10.92
856.228	93.52
856.403	105.81
856.577	73.04
856.752	23.89
856.926	87.38
857.101	73.04
857.276	101.72
857.45	77.14
857.625	17.75
857.799	27.99
857.974	50.52
858.148	54.61
858.323	-37.55
858.497	142.68
858.672	15.7
858.846	30.04
859.02	118.1
859.195	150.87
859.369	103.76
859.543	38.23
859.718	85.33
859.892	77.14
860.066	73.04
860.241	54.61
860.415	89.43
860.589	36.18
860.763	-4.78
860.938	68.95
861.112	9.56
861.286	40.28
861.46	58.71
861.634	64.85
861.808	95.57
861.982	60.76
862.157	173.39
862.331	50.52
862.505	3.41
862.679	15.7
862.853	107.86
863.027	13.65
863.201	105.81
863.375	-21.16
863.549	58.71
863.722	111.96
863.896	122.2
864.07	44.37
864.244	56.66
864.418	68.95
864.592	103.76
864.766	9.56
864.939	75.09
865.113	-6.83
865.287	52.56
865.461	40.28
865.634	32.08
865.808	71
865.982	11.61
866.156	1.37
866.329	-37.55
866.503	25.94
866.676	50.52
866.85	116.05
867.024	75.09
867.197	48.47
867.371	36.18
867.544	83.28
867.718	7.51
867.891	75.09
868.065	-8.87
868.238	87.38
868.412	34.13
868.585	32.08
868.759	25.94
868.932	-15.02
869.105	50.52
869.279	71
869.452	122.2
869.625	23.89
869.799	13.65
869.972	-43.69
870.145	101.72
870.319	62.8
870.492	44.37
870.665	85.33
870.838	62.8
871.011	66.9
871.185	36.18
871.358	77.14
871.531	101.72
871.704	-8.87
871.877	64.85
872.05	30.04
872.223	-2.73
872.396	60.76
872.569	13.65
872.742	-19.11
872.915	21.84
873.088	15.7
873.261	5.46
873.434	114
873.607	11.61
873.78	25.94
873.953	-55.98
874.126	-12.97
874.299	-15.02
874.471	-41.64
874.644	13.65
874.817	56.66
874.99	142.68
875.163	11.61
875.335	46.42
875.508	13.65
875.681	50.52
875.853	93.52
876.026	79.19
876.199	83.28
876.371	81.24
876.544	71
876.717	30.04
876.889	91.48
877.062	-8.87
877.234	36.18
877.407	36.18
877.579	19.8
877.752	46.42
877.924	17.75
878.097	66.9
878.269	7.51
878.442	71
878.614	79.19
878.786	93.52
878.959	15.7
879.131	64.85
879.303	46.42
879.476	9.56
879.648	50.52
879.82	68.95
879.993	15.7
880.165	42.32
880.337	93.52
880.509	54.61
880.681	-55.98
880.854	25.94
881.026	38.23
881.198	175.44
881.37	83.28
881.542	30.04
881.714	77.14
881.886	34.13
882.058	30.04
882.23	52.56
882.402	60.76
882.574	34.13
882.746	75.09
882.918	56.66
883.09	75.09
883.262	19.8
883.434	50.52
883.606	-12.97
883.778	7.51
883.95	122.2
884.122	40.28
884.293	7.51
884.465	101.72
884.637	38.23
884.809	66.9
884.98	58.71
885.152	38.23
885.324	32.08
885.496	19.8
885.667	56.66
885.839	68.95
886.011	122.2
886.182	-8.87
886.354	77.14
886.525	19.8
886.697	54.61
886.869	1.37
887.04	9.56
887.212	66.9
887.383	91.48
887.555	66.9
887.726	48.47
887.897	30.04
888.069	-43.69
888.24	99.67
888.412	15.7
888.583	23.89
888.754	-0.68
888.926	-51.88
889.097	-10.92
889.268	1.37
889.44	-6.83
889.611	-78.51
889.782	-0.68
889.953	-25.26
890.125	36.18
890.296	9.56
890.467	9.56
890.638	13.65
890.809	-39.59
890.98	97.62
891.151	107.86
891.323	-15.02
891.494	48.47
891.665	83.28
891.836	38.23
892.007	-25.26
892.178	21.84
892.349	60.76
892.52	21.84
892.691	71
892.862	66.9
893.032	-8.87
893.203	38.23
893.374	48.47
893.545	71
893.716	-15.02
893.887	-31.4
894.057	32.08
894.228	27.99
894.399	19.8
894.57	56.66
894.74	81.24
894.911	-27.31
895.082	46.42
895.253	-4.78
895.423	34.13
895.594	56.66
895.764	-10.92
895.935	68.95
896.106	48.47
896.276	11.61
896.447	48.47
896.617	25.94
896.788	-21.16
896.958	17.75
897.129	50.52
897.299	93.52
897.47	60.76
897.64	42.32
897.81	13.65
897.981	23.89
898.151	19.8
898.322	64.85
898.492	105.81
898.662	25.94
898.832	5.46
899.003	-4.78
899.173	109.91
899.343	27.99
899.513	48.47
