Data from USB4F104151__36__12-23-48-065.txt Node

Date: Fri Mar 14 12:23:48 EDT 2025
User: louis
Spectrometer: USB4F10415
Trigger mode: 4
Integration Time (sec): 3.500000E-2
Scans to average: 1
Electric dark correction enabled: true
Nonlinearity correction enabled: false
Boxcar width: 0
XAxis mode: Wavelengths
Number of Pixels in Spectrum: 3648
>>>>>Begin Spectral Data<<<<<
178.204	-188.93
178.424	-188.93
178.644	-188.93
178.864	-170.49
179.084	-178.69
179.304	26.11
179.524	11.78
179.744	-55.81
179.964	-31.23
180.184	50.69
180.404	-12.8
180.624	1.54
180.844	-33.28
181.064	-8.7
181.283	58.88
181.503	-27.14
181.723	19.97
181.943	-78.33
182.163	101.89
182.383	17.92
182.602	93.69
182.822	-8.7
183.042	-59.9
183.262	71.17
183.482	-55.81
183.701	-88.57
183.921	-39.42
184.141	93.69
184.361	-102.91
184.58	101.89
184.8	-33.28
185.02	-8.7
185.239	38.4
185.459	32.26
185.679	-41.47
185.898	38.4
186.118	3.58
186.338	-115.2
186.557	30.21
186.777	-72.19
186.997	-0.51
187.216	19.97
187.436	93.69
187.655	85.5
187.875	-0.51
188.095	-2.56
188.314	9.73
188.534	58.88
188.753	-45.57
188.973	-66.05
189.192	77.31
189.412	-2.56
189.631	-14.85
189.851	13.82
190.07	1.54
190.29	-18.94
190.509	-25.09
190.729	1.54
190.948	52.74
191.168	185.85
191.387	11.78
191.607	11.78
191.826	-16.9
192.045	1.54
192.265	-25.09
192.484	38.4
192.704	-70.14
192.923	-51.71
193.142	132.61
193.362	-12.8
193.581	-4.61
193.8	26.11
194.02	1.54
194.239	26.11
194.458	58.88
194.678	3.58
194.897	-0.51
195.116	44.54
195.335	-23.04
195.555	73.21
195.774	-6.66
195.993	65.02
196.212	19.97
196.432	-16.9
196.651	-12.8
196.87	40.45
197.089	110.08
197.308	79.36
197.528	42.5
197.747	-0.51
197.966	73.21
198.185	108.03
198.404	-41.47
198.623	44.54
198.842	13.82
199.062	69.12
199.281	5.63
199.5	-12.8
199.719	44.54
199.938	46.59
200.157	19.97
200.376	17.92
200.595	118.27
200.814	83.45
201.033	1.54
201.252	-29.18
201.471	-41.47
201.69	83.45
201.909	34.3
202.128	-25.09
202.347	-8.7
202.566	-0.51
202.785	-10.75
203.004	7.68
203.223	126.46
203.442	-12.8
203.661	-29.18
203.879	32.26
204.098	116.22
204.317	-39.42
204.536	120.32
204.755	19.97
204.974	48.64
205.193	71.17
205.411	67.07
205.63	-2.56
205.849	7.68
206.068	65.02
206.287	73.21
206.505	44.54
206.724	-6.66
206.943	19.97
207.162	32.26
207.381	15.87
207.599	-10.75
207.818	44.54
208.037	11.78
208.255	1.54
208.474	30.21
208.693	69.12
208.911	-20.99
209.13	22.02
209.349	-27.14
209.567	-18.94
209.786	114.17
210.005	36.35
210.223	-10.75
210.442	-23.04
210.661	28.16
210.879	28.16
211.098	9.73
211.316	-14.85
211.535	83.45
211.753	-49.66
211.972	38.4
212.191	26.11
212.409	77.31
212.628	28.16
212.846	56.83
213.065	83.45
213.283	22.02
213.502	1.54
213.72	30.21
213.938	32.26
214.157	50.69
214.375	34.3
214.594	-47.62
214.812	73.21
215.031	-4.61
215.249	3.58
215.467	32.26
215.686	19.97
215.904	44.54
216.122	-14.85
216.341	40.45
216.559	50.69
216.778	97.79
216.996	56.83
217.214	-12.8
217.432	-4.61
217.651	-76.29
217.869	32.26
218.087	24.06
218.306	7.68
218.524	46.59
218.742	67.07
218.96	-8.7
219.179	22.02
219.397	-2.56
219.615	44.54
219.833	-10.75
220.051	24.06
220.27	38.4
220.488	79.36
220.706	17.92
220.924	-68.09
221.142	-4.61
221.36	3.58
221.578	52.74
221.796	38.4
222.015	73.21
222.233	-27.14
222.451	108.03
222.669	38.4
222.887	52.74
223.105	-0.51
223.323	-8.7
223.541	-2.56
223.759	-4.61
223.977	19.97
224.195	128.51
224.413	42.5
224.631	32.26
224.849	-23.04
225.067	130.56
225.285	-45.57
225.503	50.69
225.721	-72.19
225.939	34.3
226.157	13.82
226.375	67.07
226.592	-61.95
226.81	11.78
227.028	52.74
227.246	54.78
227.464	44.54
227.682	28.16
227.9	13.82
228.117	30.21
228.335	26.11
228.553	32.26
228.771	60.93
228.989	73.21
229.206	26.11
229.424	3.58
229.642	-23.04
229.86	-25.09
230.077	42.5
230.295	9.73
230.513	-4.61
230.731	54.78
230.948	36.35
231.166	11.78
231.384	24.06
231.601	34.3
231.819	5.63
232.037	1.54
232.254	-12.8
232.472	26.11
232.689	-29.18
232.907	58.88
233.125	-41.47
233.342	-23.04
233.56	-41.47
233.777	50.69
233.995	42.5
234.213	134.65
234.43	-0.51
234.648	-31.23
234.865	22.02
235.083	-37.38
235.3	26.11
235.518	-4.61
235.735	38.4
235.953	-18.94
236.17	11.78
236.388	-39.42
236.605	91.65
236.822	-2.56
237.04	17.92
237.257	-29.18
237.475	36.35
237.692	-41.47
237.909	-51.71
238.127	-10.75
238.344	-31.23
238.562	-23.04
238.779	-4.61
238.996	24.06
239.214	50.69
239.431	13.82
239.648	-35.33
239.865	-51.71
240.083	-2.56
240.3	11.78
240.517	-0.51
240.735	-39.42
240.952	-10.75
241.169	60.93
241.386	40.45
241.603	-16.9
241.821	-10.75
242.038	60.93
242.255	11.78
242.472	-35.33
242.689	7.68
242.907	38.4
243.124	-8.7
243.341	-20.99
243.558	32.26
243.775	-51.71
243.992	52.74
244.209	48.64
244.426	83.45
244.643	34.3
244.86	-4.61
245.078	26.11
245.295	13.82
245.512	46.59
245.729	26.11
245.946	13.82
246.163	-8.7
246.38	-10.75
246.597	56.83
246.814	79.36
247.031	-94.72
247.248	-20.99
247.464	-0.51
247.681	34.3
247.898	-12.8
248.115	56.83
248.332	-45.57
248.549	3.58
248.766	87.55
248.983	38.4
249.2	-4.61
249.417	34.3
249.633	1.54
249.85	3.58
250.067	60.93
250.284	-4.61
250.501	-4.61
250.717	46.59
250.934	-29.18
251.151	34.3
251.368	65.02
251.585	15.87
251.801	42.5
252.018	-45.57
252.235	-0.51
252.451	-25.09
252.668	15.87
252.885	124.41
253.102	46.59
253.318	1.54
253.535	3.58
253.752	38.4
253.968	1.54
254.185	11.78
254.401	22.02
254.618	54.78
254.835	-35.33
255.051	95.74
255.268	50.69
255.484	11.78
255.701	-37.38
255.917	69.12
256.134	-55.81
256.351	22.02
256.567	-27.14
256.784	-12.8
257	-53.76
257.217	15.87
257.433	-2.56
257.65	7.68
257.866	-2.56
258.082	11.78
258.299	-23.04
258.515	99.84
258.732	-47.62
258.948	34.3
259.165	-35.33
259.381	3.58
259.597	13.82
259.814	22.02
260.03	15.87
260.246	32.26
260.463	-80.38
260.679	58.88
260.895	-4.61
261.112	19.97
261.328	42.5
261.544	-88.57
261.761	118.27
261.977	28.16
262.193	-23.04
262.409	36.35
262.626	44.54
262.842	62.98
263.058	-37.38
263.274	54.78
263.49	19.97
263.707	79.36
263.923	-16.9
264.139	-33.28
264.355	5.63
264.571	11.78
264.787	13.82
265.004	75.26
265.22	-0.51
265.436	32.26
265.652	-29.18
265.868	13.82
266.084	-107.01
266.3	22.02
266.516	-35.33
266.732	-12.8
266.948	-31.23
267.164	-41.47
267.38	11.78
267.596	26.11
267.812	22.02
268.028	1.54
268.244	-18.94
268.46	69.12
268.676	-6.66
268.892	-6.66
269.108	1.54
269.324	-0.51
269.54	9.73
269.756	46.59
269.972	17.92
270.188	1.54
270.403	26.11
270.619	34.3
270.835	44.54
271.051	-29.18
271.267	42.5
271.483	36.35
271.698	-0.51
271.914	36.35
272.13	91.65
272.346	-68.09
272.562	-10.75
272.777	-0.51
272.993	54.78
273.209	34.3
273.425	22.02
273.64	-35.33
273.856	48.64
274.072	19.97
274.287	-98.81
274.503	105.98
274.719	15.87
274.934	85.5
275.15	-12.8
275.366	-31.23
275.581	-16.9
275.797	17.92
276.012	30.21
276.228	-4.61
276.444	-29.18
276.659	24.06
276.875	-94.72
277.09	-68.09
277.306	-25.09
277.521	75.26
277.737	-39.42
277.952	48.64
278.168	13.82
278.383	-43.52
278.599	-39.42
278.814	91.65
279.03	28.16
279.245	99.84
279.461	-4.61
279.676	79.36
279.892	-27.14
280.107	32.26
280.322	-39.42
280.538	46.59
280.753	-25.09
280.969	3.58
281.184	-64
281.399	108.03
281.615	-23.04
281.83	83.45
282.045	-49.66
282.26	-14.85
282.476	24.06
282.691	103.93
282.906	26.11
283.122	-12.8
283.337	-31.23
283.552	36.35
283.767	11.78
283.983	15.87
284.198	22.02
284.413	85.5
284.628	-53.76
284.843	-10.75
285.058	-0.51
285.274	40.45
285.489	-27.14
285.704	93.69
285.919	56.83
286.134	-70.14
286.349	-45.57
286.564	-0.51
286.779	77.31
286.995	13.82
287.21	22.02
287.425	40.45
287.64	-47.62
287.855	69.12
288.07	-2.56
288.285	-14.85
288.5	13.82
288.715	122.37
288.93	-53.76
289.145	5.63
289.36	-25.09
289.575	42.5
289.79	-0.51
290.004	-6.66
290.219	73.21
290.434	-70.14
290.649	48.64
290.864	-55.81
291.079	-29.18
291.294	13.82
291.509	56.83
291.724	-8.7
291.938	42.5
292.153	13.82
292.368	56.83
292.583	9.73
292.798	91.65
293.012	95.74
293.227	-8.7
293.442	-6.66
293.657	40.45
293.871	83.45
294.086	7.68
294.301	89.6
294.516	40.45
294.73	24.06
294.945	-45.57
295.16	11.78
295.374	-8.7
295.589	52.74
295.804	-29.18
296.018	-12.8
296.233	97.79
296.447	-51.71
296.662	-10.75
296.877	46.59
297.091	15.87
297.306	19.97
297.52	99.84
297.735	22.02
297.949	17.92
298.164	73.21
298.378	-0.51
298.593	56.83
298.807	-61.95
299.022	-12.8
299.236	11.78
299.451	-0.51
299.665	9.73
299.88	-35.33
300.094	15.87
300.309	-31.23
300.523	-10.75
300.737	-10.75
300.952	11.78
301.166	24.06
301.381	38.4
301.595	30.21
301.809	-25.09
302.024	52.74
302.238	7.68
302.452	54.78
302.667	42.5
302.881	116.22
303.095	44.54
303.309	-4.61
303.524	-59.9
303.738	5.63
303.952	-88.57
304.166	56.83
304.381	-23.04
304.595	126.46
304.809	9.73
305.023	15.87
305.237	-4.61
305.452	-51.71
305.666	1.54
305.88	105.98
306.094	11.78
306.308	17.92
306.522	9.73
306.736	-4.61
306.95	97.79
307.164	-0.51
307.379	30.21
307.593	28.16
307.807	-8.7
308.021	60.93
308.235	1.54
308.449	-12.8
308.663	-31.23
308.877	83.45
309.091	30.21
309.305	-4.61
309.519	-4.61
309.733	19.97
309.947	-53.76
310.161	24.06
310.374	77.31
310.588	17.92
310.802	-6.66
311.016	32.26
311.23	19.97
311.444	-86.53
311.658	1.54
311.872	140.8
312.085	97.79
312.299	13.82
312.513	48.64
312.727	40.45
312.941	-35.33
313.154	3.58
313.368	42.5
313.582	30.21
313.796	-29.18
314.009	5.63
314.223	-49.66
314.437	3.58
314.651	-18.94
314.864	-25.09
315.078	-39.42
315.292	-4.61
315.505	-39.42
315.719	93.69
315.933	46.59
316.146	11.78
316.36	-47.62
316.573	44.54
316.787	7.68
317.001	87.55
317.214	-33.28
317.428	50.69
317.641	-45.57
317.855	-14.85
318.068	-41.47
318.282	40.45
318.495	97.79
318.709	38.4
318.922	3.58
319.136	46.59
319.349	11.78
319.563	-25.09
319.776	32.26
319.99	1.54
320.203	15.87
320.417	75.26
320.63	52.74
320.843	17.92
321.057	75.26
321.27	-84.48
321.483	60.93
321.697	50.69
321.91	11.78
322.124	-39.42
322.337	77.31
322.55	40.45
322.763	5.63
322.977	-29.18
323.19	-2.56
323.403	34.3
323.617	56.83
323.83	89.6
324.043	9.73
324.256	5.63
324.469	-20.99
324.683	44.54
324.896	56.83
325.109	-16.9
325.322	-100.86
325.535	42.5
325.748	-25.09
325.962	9.73
326.175	46.59
326.388	85.5
326.601	15.87
326.814	3.58
327.027	5.63
327.24	22.02
327.453	-4.61
327.666	58.88
327.879	26.11
328.092	85.5
328.305	62.98
328.518	-31.23
328.731	48.64
328.944	-12.8
329.157	36.35
329.37	19.97
329.583	56.83
329.796	26.11
330.009	-84.48
330.222	13.82
330.435	30.21
330.648	1.54
330.861	36.35
331.073	58.88
331.286	44.54
331.499	-23.04
331.712	30.21
331.925	9.73
332.138	-23.04
332.35	83.45
332.563	-2.56
332.776	91.65
332.989	46.59
333.202	75.26
333.414	17.92
333.627	-12.8
333.84	-20.99
334.053	48.64
334.265	19.97
334.478	-27.14
334.691	-31.23
334.903	-4.61
335.116	32.26
335.329	79.36
335.541	34.3
335.754	126.46
335.966	-39.42
336.179	5.63
336.392	50.69
336.604	11.78
336.817	3.58
337.029	48.64
337.242	52.74
337.454	42.5
337.667	24.06
337.88	38.4
338.092	-2.56
338.305	54.78
338.517	7.68
338.729	58.88
338.942	5.63
339.154	60.93
339.367	-31.23
339.579	67.07
339.792	-12.8
340.004	79.36
340.217	83.45
340.429	50.69
340.641	-43.52
340.854	-12.8
341.066	-51.71
341.278	103.93
341.491	67.07
341.703	-0.51
341.915	-16.9
342.128	19.97
342.34	-2.56
342.552	11.78
342.764	26.11
342.977	22.02
343.189	24.06
343.401	13.82
343.613	28.16
343.826	50.69
344.038	-39.42
344.25	-20.99
344.462	46.59
344.674	19.97
344.886	30.21
345.099	54.78
345.311	-12.8
345.523	28.16
345.735	44.54
345.947	19.97
346.159	112.13
346.371	34.3
346.583	62.98
346.795	153.09
347.007	-29.18
347.219	60.93
347.431	1.54
347.643	22.02
347.855	-49.66
348.067	118.27
348.279	-111.1
348.491	17.92
348.703	-6.66
348.915	7.68
349.127	1.54
349.339	26.11
349.551	-29.18
349.763	132.61
349.975	9.73
350.187	-8.7
350.399	97.79
350.61	62.98
350.822	-12.8
351.034	75.26
351.246	71.17
351.458	40.45
351.669	42.5
351.881	5.63
352.093	-18.94
352.305	54.78
352.517	54.78
352.728	17.92
352.94	30.21
353.152	48.64
353.363	-47.62
353.575	69.12
353.787	30.21
353.999	34.3
354.21	7.68
354.422	-14.85
354.633	50.69
354.845	30.21
355.057	24.06
355.268	75.26
355.48	34.3
355.692	52.74
355.903	-10.75
356.115	71.17
356.326	-39.42
356.538	11.78
356.749	71.17
356.961	69.12
357.172	13.82
357.384	9.73
357.595	103.93
357.807	17.92
358.018	9.73
358.23	69.12
358.441	32.26
358.653	22.02
358.864	-23.04
359.075	38.4
359.287	7.68
359.498	65.02
359.709	60.93
359.921	50.69
360.132	-6.66
360.344	11.78
360.555	-33.28
360.766	30.21
360.977	-0.51
361.189	75.26
361.4	-51.71
361.611	5.63
361.823	105.98
362.034	56.83
362.245	-55.81
362.456	36.35
362.667	54.78
362.879	-80.38
363.09	56.83
363.301	26.11
363.512	13.82
363.723	1.54
363.935	11.78
364.146	60.93
364.357	32.26
364.568	52.74
364.779	17.92
364.99	75.26
365.201	5.63
365.412	22.02
365.623	13.82
365.834	-14.85
366.045	71.17
366.256	-29.18
366.467	24.06
366.678	32.26
366.889	3.58
367.1	-35.33
367.311	50.69
367.522	1.54
367.733	-20.99
367.944	42.5
368.155	17.92
368.366	99.84
368.577	56.83
368.788	93.69
368.999	34.3
369.209	36.35
369.42	167.42
369.631	34.3
369.842	19.97
370.053	85.5
370.264	118.27
370.474	3.58
370.685	44.54
370.896	26.11
371.107	110.08
371.317	-12.8
371.528	-4.61
371.739	85.5
371.95	40.45
372.16	-14.85
372.371	-35.33
372.582	54.78
372.792	75.26
373.003	46.59
373.214	54.78
373.424	62.98
373.635	71.17
373.846	75.26
374.056	71.17
374.267	79.36
374.477	-23.04
374.688	1.54
374.898	75.26
375.109	9.73
375.319	-2.56
375.53	22.02
375.74	44.54
375.951	83.45
376.161	48.64
376.372	44.54
376.582	11.78
376.793	15.87
377.003	1.54
377.214	58.88
377.424	-16.9
377.635	-14.85
377.845	1.54
378.055	116.22
378.266	-51.71
378.476	48.64
378.686	19.97
378.897	42.5
379.107	101.89
379.317	56.83
379.528	3.58
379.738	38.4
379.948	-72.19
380.158	-0.51
380.369	56.83
380.579	28.16
380.789	105.98
380.999	50.69
381.21	75.26
381.42	134.65
381.63	34.3
381.84	56.83
382.05	83.45
382.261	52.74
382.471	9.73
382.681	67.07
382.891	75.26
383.101	110.08
383.311	11.78
383.521	52.74
383.731	-10.75
383.941	28.16
384.151	26.11
384.361	-2.56
384.571	19.97
384.781	-29.18
384.991	91.65
385.201	142.85
385.411	17.92
385.621	44.54
385.831	46.59
386.041	56.83
386.251	-12.8
386.461	93.69
386.671	-14.85
386.881	-6.66
387.091	13.82
387.301	97.79
387.511	-4.61
387.72	42.5
387.93	79.36
388.14	30.21
388.35	7.68
388.56	73.21
388.769	62.98
388.979	69.12
389.189	-31.23
389.399	15.87
389.609	48.64
389.818	132.61
390.028	36.35
390.238	58.88
390.447	-10.75
390.657	5.63
390.867	22.02
391.076	46.59
391.286	1.54
391.496	19.97
391.705	3.58
391.915	28.16
392.125	151.04
392.334	58.88
392.544	79.36
392.753	38.4
392.963	30.21
393.172	73.21
393.382	-0.51
393.591	91.65
393.801	42.5
394.01	85.5
394.22	103.93
394.429	116.22
394.639	73.21
394.848	85.5
395.058	73.21
395.267	75.26
395.477	89.6
395.686	9.73
395.895	120.32
396.105	24.06
396.314	99.84
396.524	22.02
396.733	71.17
396.942	151.04
397.152	65.02
397.361	81.41
397.57	50.69
397.78	54.78
397.989	105.98
398.198	151.04
398.407	30.21
398.617	52.74
398.826	56.83
399.035	19.97
399.244	-27.14
399.453	112.13
399.663	120.32
399.872	95.74
400.081	128.51
400.29	165.37
400.499	38.4
400.708	187.9
400.917	87.55
401.127	73.21
401.336	128.51
401.545	112.13
401.754	159.23
401.963	91.65
402.172	69.12
402.381	44.54
402.59	155.13
402.799	75.26
403.008	116.22
403.217	124.41
403.426	171.52
403.635	-12.8
403.844	144.89
404.053	118.27
404.262	114.17
404.471	87.55
404.68	52.74
404.888	89.6
405.097	83.45
405.306	175.61
405.515	128.51
405.724	99.84
405.933	202.24
406.142	130.56
406.35	134.65
406.559	165.37
406.768	112.13
406.977	175.61
407.185	235
407.394	179.71
407.603	159.23
407.812	181.76
408.02	185.85
408.229	155.13
408.438	163.33
408.646	202.24
408.855	214.52
409.064	189.95
409.272	161.28
409.481	169.47
409.69	216.57
409.898	216.57
410.107	157.18
410.315	284.16
410.524	261.63
410.733	325.12
410.941	314.88
411.15	249.34
411.358	368.12
411.567	300.54
411.775	316.92
411.984	396.79
412.192	318.97
412.401	359.93
412.609	349.69
412.818	478.71
413.026	400.89
413.234	447.99
413.443	445.95
413.651	394.75
413.86	527.86
414.068	464.38
414.276	501.24
414.485	546.3
414.693	513.53
414.901	658.93
415.11	714.23
415.318	638.45
415.526	597.49
415.734	595.45
415.943	695.8
416.151	703.99
416.359	681.46
416.567	710.13
416.776	697.85
416.984	775.67
417.192	878.07
417.4	878.07
417.608	845.3
417.817	939.51
418.025	1023.47
418.233	1017.33
418.441	939.51
418.649	1009.14
418.857	1109.49
419.065	1197.55
419.273	1070.58
419.481	1222.13
419.689	1254.89
419.897	1252.84
420.105	1263.08
420.313	1308.14
420.521	1406.44
420.729	1467.88
420.937	1545.7
421.145	1435.11
421.353	1576.42
421.561	1768.93
421.769	1756.65
421.977	1779.17
422.185	1717.73
422.393	1945.06
422.601	2012.64
422.809	2024.93
423.017	2041.31
423.224	2153.95
423.432	2227.68
423.64	2172.38
423.848	2551.26
424.056	2229.73
424.263	2465.24
424.471	2518.49
424.679	2477.53
424.887	2653.66
425.094	2727.38
425.302	2682.33
425.51	2856.4
425.718	3020.24
425.925	2964.95
426.133	3259.85
426.341	3292.62
426.548	3435.98
426.756	3382.73
426.964	3534.28
427.171	3567.05
427.379	3882.44
427.586	3777.99
427.794	3761.61
428.001	4021.7
428.209	4316.61
428.417	4361.66
428.624	4627.9
428.832	4650.43
429.039	4502.97
429.247	4613.56
429.454	4922.8
429.662	5252.53
429.869	4967.86
430.076	5377.45
430.284	5064.11
430.491	5459.37
430.699	5789.1
430.906	5668.27
431.114	5653.93
431.321	6124.96
431.528	6215.07
431.736	6612.38
431.943	6759.83
432.15	6733.21
432.358	6538.65
432.565	7095.7
432.772	6872.47
432.979	7302.54
433.187	7292.3
433.394	7564.68
433.601	8070.53
433.808	8148.36
434.016	8031.62
434.223	8306.05
434.43	9016.69
434.637	8646.01
434.844	9309.55
435.052	9344.37
435.259	9274.74
435.466	9358.71
435.673	9272.69
435.88	10313.06
436.087	10655.07
436.294	10564.96
436.501	10579.29
436.708	10706.27
436.915	10818.91
437.122	11439.44
437.329	11330.9
437.537	11496.78
437.743	12035.4
437.95	11695.44
438.157	12485.95
438.364	12944.7
438.571	12834.11
438.778	12811.58
438.985	14005.55
439.192	13655.34
439.399	13966.63
439.606	13511.99
439.813	14542.11
440.02	15144.22
440.227	15086.87
440.433	15035.67
440.64	15299.86
440.847	15324.44
441.054	15951.12
441.261	16737.54
441.467	16514.31
441.674	16954.62
441.881	17421.56
442.088	17429.75
442.294	17202.43
442.501	17761.52
442.708	18265.32
442.914	19143.9
443.121	19547.35
443.328	19107.04
443.534	20409.54
443.741	19938.51
443.948	19799.25
444.154	21120.19
444.361	21001.41
444.568	21302.46
444.774	21200.06
444.981	21566.65
445.187	22099.12
445.394	22912.16
445.6	22766.76
445.807	24892.55
446.013	23852.18
446.22	24247.44
446.426	24837.25
446.633	25279.61
446.839	26395.76
447.046	24976.51
447.252	26551.4
447.459	26575.98
447.665	26338.41
447.871	27751.51
448.078	28914.76
448.284	27333.73
448.491	28144.72
448.697	29568.06
448.903	30098.48
449.11	30059.57
449.316	29430.85
449.522	30065.72
449.728	30817.32
449.935	31175.72
450.141	30897.19
450.347	31855.64
450.553	30721.07
450.76	31196.2
450.966	32058.39
451.172	32080.92
451.378	32590.86
451.584	32095.25
451.791	32836.62
451.997	32349.2
452.203	33213.45
452.409	33100.81
452.615	32842.76
452.821	31863.83
453.027	31450.14
453.233	33211.4
453.44	31712.28
453.646	32050.2
453.852	32420.88
454.058	32719.88
454.264	31999
454.47	32377.87
454.676	32005.14
454.882	32879.63
455.088	30121.01
455.294	29987.89
455.5	30540.85
455.705	30786.6
455.911	29727.8
456.117	29172.8
456.323	28609.61
456.529	27020.39
456.735	28644.43
456.941	27618.39
457.147	27022.44
457.352	26238.06
457.558	25932.92
457.764	25861.24
457.97	25498.75
458.176	25101.44
458.381	24966.28
458.587	23811.22
458.793	23770.26
458.999	22762.66
459.204	24235.15
459.41	23489.69
459.616	21912.75
459.821	21966
460.027	21927.09
460.233	21441.72
460.438	20460.74
460.644	20384.97
460.85	19684.56
461.055	19352.79
461.261	19246.3
461.466	17730.8
461.672	17454.33
461.878	18527.46
462.083	17083.64
462.289	16938.24
462.494	16794.88
462.7	16188.68
462.905	15645.97
463.111	16293.13
463.316	16229.64
463.522	15904.01
463.727	15899.92
463.932	16086.28
464.138	15699.22
464.343	15774.99
464.549	15295.77
464.754	16012.56
464.959	15637.78
465.165	15541.52
465.37	14855.45
465.575	14546.21
465.781	14992.67
465.986	15332.63
466.191	14724.38
466.397	14302.5
466.602	13747.5
466.807	14042.41
467.012	14347.56
467.218	14007.59
467.423	13899.05
467.628	14081.32
467.833	14499.11
468.038	14005.55
468.244	13737.26
468.449	14095.66
468.654	13802.8
468.859	13511.99
469.064	13483.31
469.269	13055.29
469.474	13182.26
469.679	13278.52
469.885	13180.21
470.09	13174.07
470.295	13008.19
470.5	12651.84
470.705	12703.04
470.91	12584.26
471.115	12571.97
471.32	12557.63
471.525	12662.08
471.73	12270.92
471.935	12227.91
472.139	12064.07
472.344	11935.05
472.549	11965.77
472.754	11734.35
472.959	11361.62
473.164	11171.16
473.369	10947.93
473.574	11484.5
473.778	11398.48
473.983	11203.93
474.188	11113.81
474.393	10708.32
474.598	10812.76
474.802	10677.6
475.007	10538.34
475.212	10534.24
475.417	10114.41
475.621	10163.56
475.826	10151.27
476.031	10014.06
476.235	9848.17
476.44	9981.29
476.645	9672.04
476.849	9876.84
477.054	9735.53
477.259	9465.2
477.463	9600.37
477.668	9127.28
477.872	9497.97
478.077	9112.95
478.282	9006.45
478.486	9006.45
478.691	8891.77
478.895	8846.71
479.1	8920.44
479.304	8895.86
479.509	8621.44
479.713	8754.55
479.918	8437.12
480.122	8295.81
480.326	8582.53
480.531	8678.78
480.735	8400.26
480.94	8371.58
481.144	8703.36
481.348	8265.09
481.553	8351.1
481.757	8105.35
481.961	8398.21
482.166	8484.22
482.37	8418.69
482.574	8312.19
482.778	8086.92
482.983	8277.38
483.187	8328.58
483.391	8291.71
483.595	8121.73
483.8	7980.42
484.004	8279.43
484.208	8287.62
484.412	8211.84
484.616	8191.36
484.821	8148.36
485.025	7988.61
485.229	8377.73
485.433	8152.45
485.637	8140.16
485.841	8095.11
486.045	8211.84
486.249	8228.23
486.453	8068.48
486.657	8162.69
486.861	8117.64
487.065	8060.29
487.269	8109.44
487.473	8076.68
487.677	8492.41
487.881	8334.72
488.085	8170.88
488.289	8349.06
488.493	7976.33
488.697	8353.15
488.901	8449.41
489.105	8248.71
489.309	8166.79
489.512	8342.91
489.716	8228.23
489.92	8234.37
490.124	8390.02
490.328	8490.37
490.531	8320.39
490.735	8340.86
490.939	8514.94
491.143	8359.3
491.346	8525.18
491.55	8658.3
491.754	8707.45
491.958	8652.16
492.161	8469.89
492.365	8607.1
492.569	8686.97
492.772	8660.35
492.976	8854.9
493.18	8713.6
493.383	8854.9
493.587	8914.3
493.79	9016.69
493.994	8848.76
494.197	8930.68
494.401	9119.09
494.605	9014.65
494.808	9299.31
495.012	9528.69
495.215	9430.38
495.419	9487.73
495.622	9309.55
495.825	9553.26
496.029	9772.39
496.232	9825.64
496.436	9737.58
496.639	10057.06
496.843	9940.33
497.046	10161.51
497.249	10284.39
497.453	10106.21
497.656	10480.99
497.859	10448.22
498.063	10413.41
498.266	10757.47
498.469	10614.11
498.673	10661.21
498.876	11068.76
499.079	10904.92
499.282	10962.26
499.485	11646.29
499.689	11478.35
499.892	11660.62
500.095	11373.91
500.298	11982.15
500.501	11773.26
500.705	11992.39
500.908	12289.35
501.111	12203.33
501.314	12565.82
501.517	12909.88
501.72	12690.75
501.923	12723.52
502.126	13057.34
502.329	13204.79
502.532	13325.62
502.735	13634.86
502.938	13708.59
503.141	13491.51
503.344	14157.1
503.547	13866.28
503.75	14181.67
503.953	14482.72
504.156	14564.64
504.359	14832.93
504.562	14859.55
504.765	15129.88
504.968	14972.19
505.17	15291.67
505.373	15402.26
505.576	15811.85
505.779	15824.14
505.982	15863.05
506.185	16237.83
506.387	16514.31
506.59	16489.73
506.793	17048.83
506.996	16928
507.198	17169.66
507.401	17323.26
507.604	17454.33
507.807	17902.83
508.009	17906.93
508.212	18038
508.415	18380.01
508.617	18650.34
508.82	18662.63
509.022	18674.92
509.225	19119.32
509.428	18982.11
509.63	19330.27
509.833	19705.04
510.035	19870.93
510.238	19973.33
510.44	20247.76
510.643	20587.72
510.845	20563.14
511.048	20784.32
511.25	21019.84
511.453	21101.76
511.655	21744.82
511.858	21722.29
512.06	22131.89
512.262	22213.81
512.465	22185.13
512.667	22555.82
512.87	22842.53
513.072	22824.1
513.274	23260.32
513.477	23755.93
513.679	23864.47
513.881	24134.8
514.084	24343.69
514.286	24695.94
514.488	24913.03
514.69	25093.25
514.893	25183.36
515.095	25420.92
515.297	25904.24
515.499	26068.08
515.701	26276.98
515.904	26795.11
516.106	26823.78
516.308	26983.52
516.51	27462.75
516.712	27315.3
516.914	27876.44
517.116	28191.83
517.318	28312.66
517.52	28845.13
517.722	28898.38
517.925	28886.09
518.127	29783.1
518.329	30008.37
518.531	29748.28
518.733	30159.92
518.935	30772.27
519.136	30436.4
519.338	31173.67
519.54	31419.42
519.742	31667.23
519.944	31994.9
520.146	32033.82
520.348	32289.81
520.55	32570.38
520.752	32773.13
520.954	33092.62
521.155	33111.05
521.357	33899.51
521.559	34063.35
521.761	34591.73
521.963	34440.18
522.164	34335.73
522.366	35220.45
522.568	35529.7
522.77	35691.49
522.971	35967.96
523.173	35820.51
523.375	36078.55
523.576	36357.08
523.778	36352.98
523.98	36961.23
524.181	37262.28
524.383	37256.14
524.584	37753.79
524.786	38013.88
524.988	37649.35
525.189	38255.54
525.391	38419.38
525.592	38769.58
525.794	38904.75
525.995	38974.38
526.197	38896.56
526.398	39310.25
526.6	39746.47
526.801	39893.92
527.003	40039.33
527.204	39908.26
527.406	40756.11
527.607	40641.43
527.808	40825.75
528.01	40049.56
528.211	40711.06
528.412	41833.35
528.614	41270.15
528.815	41147.28
529.016	41778.05
529.218	41186.19
529.419	41243.53
529.62	41788.29
529.822	41894.78
530.023	42253.18
530.224	42103.68
530.425	41847.68
530.626	41765.76
530.828	41513.86
531.029	42713.97
531.23	42181.5
531.431	42343.29
531.632	42664.82
531.833	43078.51
532.035	42650.49
532.236	43037.55
532.437	43215.72
532.638	42685.3
532.839	42818.42
533.04	43252.59
533.241	42824.56
533.442	43324.27
533.643	43254.64
533.844	43076.46
534.045	43606.89
534.246	42783.6
534.447	43510.63
534.648	43299.69
534.849	43574.12
535.05	42691.44
535.251	43467.62
535.451	43123.57
535.652	43727.72
535.853	43690.85
536.054	43567.98
536.255	43772.77
536.456	43441
536.657	43774.82
536.857	43430.76
537.058	43340.65
537.259	43393.9
537.46	43811.68
537.66	43348.84
537.861	43670.37
538.062	43336.55
538.263	43545.45
538.463	43584.36
538.664	43586.41
538.865	43907.94
539.065	44067.68
539.266	43199.34
539.466	43901.79
539.667	43232.11
539.868	43944.8
540.068	43504.49
540.269	43496.3
540.469	43545.45
540.67	43717.48
540.87	44010.34
541.071	43361.13
541.271	43770.72
541.472	43459.43
541.672	43432.81
541.873	43228.01
542.073	43070.32
542.274	43653.99
542.474	43455.34
542.675	43131.76
542.875	43281.26
543.075	43438.95
543.276	42859.38
543.476	43524.97
543.676	43287.4
543.877	43760.48
544.077	43602.79
544.277	43467.62
544.478	43168.62
544.678	43813.73
544.878	43414.38
545.078	43516.78
545.279	43008.88
545.479	42853.23
545.679	43287.4
545.879	42836.85
546.079	43412.33
546.28	43316.08
546.48	43004.78
546.68	43651.94
546.88	43467.62
547.08	43295.6
547.28	43615.08
547.48	42750.84
547.68	43185.01
547.88	42718.07
548.081	43094.89
548.281	43133.81
548.481	43123.57
548.681	43447.15
548.881	43127.66
549.081	43246.44
549.28	42879.86
549.48	43393.9
549.68	43328.36
549.88	43719.52
550.08	42912.63
550.28	43350.89
550.48	42961.78
550.68	43328.36
550.88	42926.96
551.08	43039.6
551.279	42980.21
551.479	42720.12
551.679	43152.24
551.879	42943.34
552.079	43201.39
552.278	42654.58
552.478	42943.34
552.678	42992.5
552.878	43142
553.077	42648.44
553.277	42666.87
553.477	42957.68
553.676	43041.65
553.876	42838.9
554.076	42881.91
554.275	42761.08
554.475	42138.49
554.674	42822.51
554.874	42318.71
555.074	42673.01
555.273	42816.37
555.473	42570.61
555.672	42382.2
555.872	42349.43
556.071	42068.86
556.271	42693.49
556.47	42259.32
556.67	41841.54
556.869	42292.09
557.068	42242.94
557.268	42017.66
557.467	41986.94
557.667	42113.92
557.866	42015.61
558.065	41870.21
558.265	41511.81
558.464	41679.75
558.663	41905.02
558.863	41444.23
559.062	42007.42
559.261	41329.55
559.461	41921.41
559.66	41239.43
559.859	41354.12
560.058	40846.22
560.258	41436.04
560.457	40477.59
560.656	41251.72
560.855	40686.48
561.054	41173.9
561.253	40672.15
561.453	40633.24
561.652	40883.09
561.851	40645.52
562.05	40512.41
562.249	40248.22
562.448	40504.21
562.647	40352.66
562.846	40012.7
563.045	40491.93
563.244	39848.86
563.443	40131.48
563.642	39340.97
563.841	40061.85
564.04	39463.85
564.239	39951.26
564.438	39369.64
564.637	39357.35
564.836	39400.36
565.035	38798.26
565.234	39054.25
565.432	39005.1
565.631	38585.27
565.83	38964.14
566.029	38736.82
566.228	38482.87
566.427	38724.53
566.625	38210.49
566.824	38003.64
567.023	38452.15
567.222	37266.38
567.42	38071.23
567.619	37972.92
567.818	37675.97
568.016	37575.62
568.215	37852.09
568.414	37467.08
568.612	37815.23
568.811	37274.57
569.01	37256.14
569.208	36549.59
569.407	37493.7
569.605	36701.14
569.804	37118.92
570.002	36486.1
570.201	37012.43
570.4	36234.2
570.598	36369.37
570.797	36514.77
570.995	36189.14
571.193	35689.44
571.392	36254.68
571.59	35812.32
571.789	35941.34
571.987	35331.04
572.186	35593.18
572.384	35042.28
572.582	35390.44
572.781	35748.83
572.979	34747.37
573.177	34687.98
573.376	35122.15
573.574	34352.12
573.772	34925.55
573.971	34556.91
574.169	34259.96
574.367	34239.48
574.565	34503.67
574.763	34049.02
574.962	33807.36
575.16	33930.23
575.358	33932.28
575.556	33461.25
575.754	33979.39
575.952	33244.16
576.151	33899.51
576.349	33098.76
576.547	33139.72
576.745	33416.19
576.943	33086.47
577.141	32928.78
577.339	33072.14
577.537	32582.67
577.735	32611.34
577.933	32187.41
578.131	32525.33
578.329	32332.82
578.527	31976.47
578.725	32074.77
578.923	32379.92
579.121	31908.89
579.319	31824.92
579.516	31947.8
579.714	31736.86
579.912	31421.47
580.11	31437.86
580.308	31370.27
580.506	31435.81
580.704	31005.73
580.901	30940.2
581.099	31196.2
581.297	30997.54
581.495	30944.3
581.692	30854.19
581.89	30655.53
582.088	30936.1
582.285	30678.06
582.483	30493.74
582.681	30430.26
582.878	30161.97
583.076	30172.21
583.274	30358.58
583.471	29658.17
583.669	30037.05
583.866	29541.44
584.064	29799.48
584.262	29645.88
584.459	29979.7
584.657	29393.98
584.854	29727.8
585.052	28910.66
585.249	29049.92
585.447	29252.67
585.644	28636.24
585.841	29006.92
586.039	29164.61
586.236	28677.19
586.434	28869.7
586.631	28537.93
586.828	28384.33
587.026	28453.97
587.223	28341.33
587.42	28189.78
587.618	28032.08
587.815	28011.6
588.012	28245.07
588.21	28034.13
588.407	27808.86
588.604	27622.49
588.801	27452.51
588.999	27614.3
589.196	27317.34
589.393	27325.54
589.59	27323.49
589.787	27206.75
589.984	27343.97
590.182	26977.38
590.379	27044.96
590.576	26711.14
590.773	26905.7
590.97	26745.96
591.167	26791.02
591.364	26242.16
591.561	26397.81
591.758	26127.47
591.955	26317.93
592.152	26406
592.349	25918.58
592.546	26168.43
592.743	26117.23
592.94	25732.22
593.137	25955.44
593.334	26256.5
593.531	25670.78
593.727	25883.77
593.924	25476.22
594.121	25437.31
594.318	25599.1
594.515	25312.38
594.712	25287.81
594.908	25207.94
595.105	25324.67
595.302	24628.36
595.499	25148.54
595.696	25027.71
595.892	24575.11
596.089	24894.6
596.286	24886.4
596.482	24691.85
596.679	24796.29
596.876	24593.54
597.072	24388.75
597.269	24224.91
597.466	23868.56
597.662	24028.31
597.859	24040.59
598.055	24030.35
598.252	23635.1
598.448	23878.8
598.645	23862.42
598.841	23735.45
599.038	23747.73
599.234	23727.25
599.431	23301.28
599.627	23319.71
599.824	23448.73
600.02	23381.15
600.217	23229.6
600.413	23162.01
600.609	22635.69
600.806	22996.13
601.002	23157.92
601.198	22936.74
601.395	22746.28
601.591	23100.58
601.787	22682.79
601.984	22326.44
602.18	22647.97
602.376	22584.49
602.572	22226.09
602.769	22166.7
602.965	22060.21
603.161	22025.39
603.357	21937.33
603.553	21996.72
603.75	21927.09
603.946	21828.79
604.142	21705.91
604.338	21677.24
604.534	21722.29
604.73	21699.76
604.926	21245.12
605.122	21480.63
605.318	21161.15
605.514	21138.62
605.71	21144.77
605.906	21021.89
606.102	20808.9
606.298	20929.73
606.494	20917.44
606.69	20913.34
606.886	20901.06
607.082	20575.43
607.278	20800.71
607.474	20317.39
607.67	20569.29
607.866	20094.16
608.062	20833.47
608.257	20733.12
608.453	20446.41
608.649	20587.72
608.845	20141.26
609.041	20131.02
609.236	20174.03
609.432	19985.62
609.628	19856.59
609.824	20247.76
610.019	20018.38
610.215	20016.33
610.411	20100.3
610.606	19844.31
610.802	19727.57
610.998	19789.01
611.193	19866.83
611.389	19893.46
611.584	19459.29
611.78	19100.89
611.976	19436.76
612.171	19576.02
612.367	19627.22
612.562	19436.76
612.758	19416.28
612.953	19086.56
613.149	19561.69
613.344	19037.41
613.539	19422.42
613.735	19387.61
613.93	19221.72
614.126	19078.36
614.321	19229.91
614.517	18900.19
614.712	19025.12
614.907	18842.85
615.103	19025.12
615.298	18793.7
615.493	18953.44
615.688	18844.9
615.884	19133.66
616.079	18644.2
616.274	18545.89
616.47	18812.13
616.665	18670.82
616.86	18461.93
617.055	18777.31
617.25	18365.67
617.445	18904.29
617.641	17984.75
617.836	18234.6
618.031	17870.06
618.226	18058.48
618.421	18117.87
618.616	18099.44
618.811	17636.59
619.006	18171.11
619.201	17634.55
619.396	18021.61
619.591	17454.33
619.786	17779.95
619.981	17487.09
620.176	17560.82
620.371	17249.53
620.566	17458.42
620.761	16936.19
620.956	17417.46
621.151	16997.63
621.346	17118.46
621.541	16600.32
621.735	17028.35
621.93	16631.04
622.125	16592.13
622.32	16700.67
622.515	16803.07
622.709	16416.01
622.904	16399.62
623.099	16276.74
623.294	16233.74
623.488	16143.63
623.683	16151.82
623.878	15842.57
624.072	15795.47
624.267	15682.83
624.462	15607.06
624.656	15549.71
624.851	15645.97
625.046	15299.86
625.24	15093.02
625.435	15228.18
625.629	15172.89
625.824	15064.35
626.018	14925.08
626.213	14908.7
626.407	14814.49
626.602	14789.92
626.796	14652.7
626.991	14681.38
627.185	14511.39
627.38	14464.29
627.574	14492.96
627.768	14345.51
627.963	14214.44
628.157	14107.94
628.352	13868.33
628.546	13761.84
628.74	13913.39
628.935	13892.91
629.129	13765.93
629.323	13759.79
629.517	13559.09
629.712	13342
629.906	13294.9
630.1	13374.77
630.294	13161.78
630.489	13161.78
630.683	13421.88
630.877	13032.76
631.071	12973.37
631.265	13147.45
631.459	13032.76
631.653	12864.83
631.848	12885.31
632.042	12586.3
632.236	12559.68
632.43	12578.11
632.624	12678.46
632.818	12363.08
633.012	12248.39
633.206	12236.1
633.4	12371.27
633.594	12115.27
633.788	12109.13
633.982	12070.22
634.176	12016.97
634.369	11973.96
634.563	11871.56
634.757	11707.73
634.951	11691.34
635.145	11791.69
635.339	11683.15
635.533	11480.4
635.726	11552.08
635.92	11498.83
636.114	11445.59
636.308	11357.52
636.501	11267.41
636.695	11220.31
636.889	10999.13
637.083	11031.9
637.276	11160.92
637.47	10872.15
637.664	10831.19
637.857	11019.61
638.051	10927.45
638.244	10769.76
638.438	10595.68
638.632	10739.04
638.825	10368.35
639.019	10583.39
639.212	10556.77
639.406	10407.27
639.599	10175.84
639.793	10145.13
639.986	10141.03
640.18	10261.86
640.373	10087.78
640.567	9958.76
640.76	10005.86
640.954	9923.94
641.147	9727.34
641.34	9768.3
641.534	9905.51
641.727	9792.87
641.92	9727.34
642.114	9792.87
642.307	9682.28
642.5	9579.89
642.694	9295.22
642.887	9358.71
643.08	9403.76
643.273	9137.52
643.467	9233.78
643.66	9192.82
643.853	8938.87
644.046	8971.64
644.239	9049.46
644.432	8959.35
644.626	9006.45
644.819	8863.1
645.012	8830.33
645.205	8766.84
645.398	8580.48
645.591	8607.1
645.784	8680.83
645.977	8461.69
646.17	8709.5
646.363	8453.5
646.556	8377.73
646.749	8467.84
646.942	8428.93
647.135	8371.58
647.328	8289.67
647.521	8209.79
647.714	7904.65
647.907	8273.28
648.099	8174.98
648.292	8127.88
648.485	8117.64
648.678	8043.91
648.871	7949.7
649.064	7861.64
649.256	7918.98
649.449	7671.18
649.642	7904.65
649.835	7718.28
650.027	7468.43
650.22	7759.24
650.413	7601.55
650.605	7556.49
650.798	7652.75
650.991	7515.53
651.183	7433.61
651.376	7290.26
651.568	7288.21
651.761	7509.39
651.954	7204.24
652.146	7132.56
652.339	7198.1
652.531	6923.67
652.724	7079.32
652.916	6987.16
653.109	7153.04
653.301	7095.7
653.494	6995.35
653.686	6946.2
653.879	6923.67
654.071	6989.21
654.263	6679.96
654.456	6772.12
654.648	6858.14
654.84	6636.95
655.033	6544.8
655.225	6591.9
655.417	6692.25
655.61	6632.86
655.802	6581.66
655.994	6440.35
656.186	6610.33
656.379	6473.12
656.571	6428.06
656.763	6499.74
656.955	6366.62
657.148	6337.95
657.34	6229.41
657.532	6219.17
657.724	6278.56
657.916	6084
658.108	6170.02
658.3	6006.18
658.492	6084
658.684	6165.92
658.876	6038.95
659.068	6004.13
659.26	5965.22
659.452	6008.23
659.644	6022.56
659.836	5842.34
660.028	5856.68
660.22	5825.96
660.412	5789.1
660.604	5705.13
660.796	5727.66
660.988	5555.63
661.18	5584.3
661.372	5694.89
661.563	5731.75
661.755	5559.72
661.947	5506.48
662.139	5639.59
662.331	5526.96
662.522	5551.53
662.714	5596.59
662.906	5428.65
663.097	5510.57
663.289	5270.96
663.481	5447.08
663.673	5299.63
663.864	5297.58
664.056	5174.71
664.247	5158.32
664.439	5174.71
664.631	5184.94
664.822	5207.47
665.014	5103.03
665.205	5186.99
665.397	5060.02
665.588	5125.55
665.78	5119.41
665.971	5037.49
666.163	5043.64
666.354	5172.66
666.546	4980.15
666.737	4939.19
666.929	5105.07
667.12	5055.92
667.311	5031.35
667.503	4982.2
667.694	4959.67
667.885	4910.52
668.077	4935.09
668.268	4867.51
668.459	4701.62
668.651	4849.08
668.842	4771.26
669.033	4752.82
669.224	4785.59
669.416	4883.89
669.607	4623.8
669.798	4631.99
669.989	4918.71
670.18	4670.9
670.371	4685.24
670.563	4564.41
670.754	4703.67
670.945	4648.38
671.136	4646.33
671.327	4611.51
671.518	4505.02
671.709	4715.96
671.9	4615.61
672.091	4517.31
672.282	4672.95
672.473	4599.23
672.664	4560.31
672.855	4435.39
673.046	4707.77
673.237	4648.38
673.428	4527.55
673.619	4634.04
673.809	4390.33
674	4386.24
674.191	4470.2
674.382	4394.43
674.573	4480.44
674.764	4320.7
674.954	4468.16
675.145	4353.47
675.336	4310.46
675.527	4328.89
675.717	4410.81
675.908	4347.33
676.099	4308.41
676.289	4378.05
676.48	4294.08
676.671	4326.85
676.861	4324.8
677.052	4425.15
677.243	4349.37
677.433	4427.2
677.624	4623.8
677.814	4226.5
678.005	4277.69
678.195	4335.04
678.386	4294.08
678.576	4332.99
678.767	4255.17
678.957	4335.04
679.148	4265.41
679.338	4365.76
679.529	4312.51
679.719	4390.33
679.909	4337.09
680.1	4324.8
680.29	4392.38
680.481	4332.99
680.671	4265.41
680.861	4281.79
681.052	4441.53
681.242	4365.76
681.432	4285.89
681.622	4322.75
681.813	4406.72
682.003	4349.37
682.193	4343.23
682.383	4394.43
682.573	4242.88
682.764	4269.5
682.954	4269.5
683.144	4302.27
683.334	4171.2
683.524	4236.74
683.714	4294.08
683.904	4259.26
684.094	4332.99
684.284	4156.86
684.474	4328.89
684.664	4263.36
684.854	4255.17
685.044	4189.63
685.234	4224.45
685.424	4255.17
685.614	4304.32
685.804	4234.69
685.994	4081.09
686.184	4271.55
686.374	4122.05
686.564	4140.48
686.753	4218.3
686.943	4019.65
687.133	4042.18
687.323	3999.17
687.513	3988.93
687.702	4066.75
687.892	4003.27
688.082	4101.57
688.272	3984.84
688.461	3964.36
688.651	4085.19
688.841	3902.92
689.03	4068.8
689.22	3980.74
689.41	3937.73
689.599	3997.12
689.789	3898.82
689.979	3814.85
690.168	3843.53
690.358	3706.31
690.547	3749.32
690.737	3853.77
690.926	3878.34
691.116	3677.64
691.305	3610.06
691.495	3595.72
691.684	3583.43
691.874	3749.32
692.063	3644.87
692.252	3644.87
692.442	3595.72
692.631	3499.47
692.82	3538.38
693.01	3503.56
693.199	3507.66
693.388	3538.38
693.578	3464.65
693.767	3429.84
693.956	3399.12
694.146	3521.99
694.335	3587.53
694.524	3452.36
694.713	3491.27
694.902	3481.03
695.092	3653.06
695.281	3352.01
695.47	3333.58
695.659	3399.12
695.848	3431.88
696.037	3425.74
696.226	3562.95
696.415	3376.59
696.604	3409.36
696.793	3382.73
696.982	3349.96
697.171	3427.79
697.36	3341.77
697.549	3343.82
697.738	3360.2
697.927	3192.27
698.116	3182.03
698.305	3274.19
698.494	3325.39
698.683	3114.45
698.872	3313.1
699.061	3347.92
699.25	3331.53
699.438	3354.06
699.627	3341.77
699.816	3239.37
700.005	3309.01
700.193	3204.56
700.382	3438.03
700.571	3251.66
700.76	3311.05
700.948	3392.97
701.137	3145.17
701.326	3202.51
701.514	3159.5
701.703	3206.61
701.892	3251.66
702.08	3214.8
702.269	3415.5
702.457	3280.33
702.646	3306.96
702.834	3165.65
703.023	3202.51
703.212	3245.52
703.4	3249.61
703.589	3089.87
703.777	3157.46
703.965	3300.81
704.154	3263.95
704.342	3173.84
704.531	3179.98
704.719	3253.71
704.907	3329.49
705.096	3266
705.284	3325.39
705.472	3268.05
705.661	3241.42
705.849	3214.8
706.037	3440.08
706.226	3173.84
706.414	3347.92
706.602	3171.79
706.79	3229.13
706.979	3220.94
707.167	3345.87
707.355	3304.91
707.543	3263.95
707.731	3302.86
707.919	3306.96
708.107	3270.09
708.296	3337.68
708.484	3286.48
708.672	3233.23
708.86	3286.48
709.048	3376.59
709.236	3376.59
709.424	3309.01
709.612	3235.28
709.8	3300.81
709.988	3302.86
710.176	3456.46
710.364	3315.15
710.551	3370.44
710.739	3190.22
710.927	3532.23
711.115	3448.27
711.303	3294.67
711.491	3319.25
711.679	3374.54
711.866	3313.1
712.054	3435.98
712.242	3300.81
712.43	3483.08
712.617	3345.87
712.805	3478.99
712.993	3329.49
713.181	3274.19
713.368	3345.87
713.556	3384.78
713.744	3474.89
713.931	3636.68
714.119	3362.25
714.306	3349.96
714.494	3304.91
714.682	3530.19
714.869	3288.53
715.057	3415.5
715.244	3425.74
715.432	3503.56
715.619	3450.32
715.807	3483.08
715.994	3440.08
716.182	3532.23
716.369	3612.1
716.556	3501.51
716.744	3552.71
716.931	3515.85
717.119	3497.42
717.306	3417.55
717.493	3499.47
717.681	3585.48
717.868	3433.93
718.055	3648.97
718.242	3478.99
718.43	3487.18
718.617	3515.85
718.804	3616.2
718.991	3671.5
719.179	3560.91
719.366	3505.61
719.553	3423.69
719.74	3601.87
719.927	3470.8
720.114	3567.05
720.301	3540.43
720.488	3640.78
720.676	3562.95
720.863	3573.19
721.05	3653.06
721.237	3648.97
721.424	3597.77
721.611	3638.73
721.798	3769.8
721.985	3706.31
722.172	3687.88
722.358	3726.79
722.545	3589.58
722.732	3567.05
722.919	3915.2
723.106	3659.21
723.293	3634.63
723.48	3589.58
723.667	3540.43
723.853	3599.82
724.04	3722.7
724.227	3624.39
724.414	3661.26
724.6	3796.42
724.787	3675.59
724.974	3857.86
725.161	3730.89
725.347	3679.69
725.534	3726.79
725.72	3540.43
725.907	3712.46
726.094	3638.73
726.28	3624.39
726.467	3661.26
726.653	3771.85
726.84	3902.92
727.027	3855.81
727.213	3757.51
727.4	3847.62
727.586	3790.28
727.773	3904.96
727.959	3665.35
728.145	3663.3
728.332	3757.51
728.518	3880.39
728.705	3806.66
728.891	3929.54
729.077	3870.15
729.264	3698.12
729.45	3904.96
729.636	3941.83
729.823	3818.95
730.009	3919.3
730.195	3786.18
730.382	3853.77
730.568	3835.33
730.754	3775.94
730.94	3851.72
731.126	3823.05
731.313	3788.23
731.499	3837.38
731.685	3974.6
731.871	3921.35
732.057	3958.21
732.243	3904.96
732.429	3917.25
732.615	4013.51
732.801	3995.08
732.987	3950.02
733.173	3802.57
733.359	3759.56
733.545	3839.43
733.731	3896.77
733.917	4113.86
734.103	3972.55
734.289	3980.74
734.475	3917.25
734.661	3980.74
734.847	3952.07
735.033	3950.02
735.219	3915.2
735.404	3886.53
735.59	3911.11
735.776	3886.53
735.962	4087.23
736.148	3958.21
736.333	3976.64
736.519	3767.75
736.705	3823.05
736.89	3947.97
737.076	3868.1
737.262	3775.94
737.447	3884.48
737.633	3986.88
737.819	4029.89
738.004	3839.43
738.19	3894.72
738.375	3921.35
738.561	3915.2
738.747	3792.33
738.932	3808.71
739.118	3900.87
739.303	4005.31
739.489	3990.98
739.674	3827.14
739.859	3788.23
740.045	3812.81
740.23	3818.95
740.416	3935.68
740.601	3937.73
740.786	3890.63
740.972	3814.85
741.157	3704.26
741.342	3722.7
741.528	3780.04
741.713	3802.57
741.898	3814.85
742.084	3816.9
742.269	3728.84
742.454	3706.31
742.639	3720.65
742.824	3657.16
743.01	3743.17
743.195	3687.88
743.38	3677.64
743.565	3593.67
743.75	3667.4
743.935	3581.39
744.12	3825.09
744.305	3524.04
744.49	3575.24
744.675	3646.92
744.86	3515.85
745.045	3616.2
745.23	3581.39
745.415	3524.04
745.6	3638.73
745.785	3511.75
745.97	3661.26
746.155	3497.42
746.34	3440.08
746.525	3491.27
746.71	3534.28
746.895	3349.96
747.079	3376.59
747.264	3425.74
747.449	3362.25
747.634	3409.36
747.819	3472.84
748.003	3202.51
748.188	3317.2
748.373	3315.15
748.557	3376.59
748.742	3237.33
748.927	3395.02
749.111	3184.08
749.296	3286.48
749.481	3173.84
749.665	3202.51
749.85	3204.56
750.034	3298.77
750.219	3020.24
750.404	3059.15
750.588	3040.72
750.773	3194.32
750.957	3081.68
751.141	3073.49
751.326	2958.8
751.51	2848.21
751.695	3048.91
751.879	2938.32
752.064	2917.84
752.248	2926.04
752.432	2999.76
752.617	2905.56
752.801	2948.56
752.985	2831.83
753.17	2846.16
753.354	2788.82
753.538	2696.66
753.722	2715.09
753.907	2749.91
754.091	2680.28
754.275	2686.42
754.459	2713.05
754.643	2682.33
754.828	2600.41
755.012	2686.42
755.196	2504.15
755.38	2547.16
755.564	2618.84
755.748	2444.76
755.932	2608.6
756.116	2407.9
756.3	2588.12
756.484	2516.44
756.668	2452.95
756.852	2373.08
757.036	2452.95
757.22	2483.67
757.404	2436.57
757.588	2401.76
757.772	2315.74
757.956	2289.12
758.14	2403.8
758.323	2274.78
758.507	2379.23
758.691	2258.4
758.875	2323.93
759.059	2272.73
759.242	2205.15
759.426	2313.69
759.61	2256.35
759.794	2227.68
759.977	2166.24
760.161	2272.73
760.345	2117.09
760.528	2217.44
760.712	2219.49
760.895	2217.44
761.079	2125.28
761.263	2059.74
761.446	1992.16
761.63	2055.65
761.813	2096.61
761.997	1990.11
762.18	2006.5
762.364	2112.99
762.547	1988.07
762.731	1936.87
762.914	2084.32
763.098	1951.2
763.281	2008.55
763.464	1885.67
763.648	2002.4
763.831	2016.74
764.015	1979.87
764.198	1914.34
764.381	1963.49
764.564	1979.87
764.748	1846.76
764.931	1986.02
765.114	1805.8
765.297	1895.91
765.481	1811.94
765.664	1854.95
765.847	1889.76
766.03	1922.53
766.213	1840.61
766.397	1863.14
766.58	1744.36
766.763	1764.84
766.946	1791.46
767.129	1783.27
767.312	1857
767.495	1816.04
767.678	1746.41
767.861	1793.51
768.044	1793.51
768.227	1762.79
768.41	1709.54
768.593	1709.54
768.776	1746.41
768.959	1680.87
769.142	1662.44
769.324	1621.48
769.507	1594.86
769.69	1625.58
769.873	1689.06
770.056	1725.93
770.239	1676.77
770.421	1730.02
770.604	1553.9
770.787	1533.42
770.97	1656.29
771.152	1539.56
771.335	1603.05
771.518	1555.94
771.7	1613.29
771.883	1637.86
772.066	1539.56
772.248	1508.84
772.431	1521.13
772.613	1547.75
772.796	1455.59
772.978	1521.13
773.161	1617.38
773.343	1480.17
773.526	1476.07
773.708	1414.63
773.891	1400.3
774.073	1447.4
774.256	1318.38
774.438	1398.25
774.621	1361.39
774.803	1453.55
774.985	1367.53
775.168	1347.05
775.35	1408.49
775.532	1447.4
775.715	1404.39
775.897	1347.05
776.079	1238.51
776.261	1410.54
776.444	1263.08
776.626	1252.84
776.808	1140.21
776.99	1191.41
777.173	1340.91
777.355	1209.84
777.537	1285.61
777.719	1218.03
777.901	1273.32
778.083	1127.92
778.265	1170.93
778.447	1191.41
778.629	1183.21
778.811	1175.02
778.993	1191.41
779.175	1218.03
779.357	1166.83
779.539	1193.45
779.721	1056.24
779.903	1093.1
780.085	1134.06
780.267	1101.3
780.449	1103.34
780.631	1021.42
780.812	1068.53
780.994	1050.1
781.176	1062.38
781.358	978.42
781.54	951.79
781.721	1050.1
781.903	1097.2
782.085	1023.47
782.267	1021.42
782.448	1007.09
782.63	1037.81
782.812	949.75
782.993	949.75
783.175	1054.19
783.357	994.8
783.538	955.89
783.72	900.59
783.901	947.7
784.083	841.2
784.264	853.49
784.446	902.64
784.627	914.93
784.809	806.39
784.99	892.4
785.172	841.2
785.353	773.62
785.535	853.49
785.716	843.25
785.897	753.14
786.079	828.92
786.26	878.07
786.441	910.83
786.623	757.24
786.804	804.34
786.985	732.66
787.167	765.43
787.348	720.37
787.529	779.76
787.71	816.63
787.891	724.47
788.073	683.51
788.254	790
788.435	798.2
788.616	796.15
788.797	724.47
788.978	699.89
789.159	718.33
789.34	716.28
789.522	716.28
789.703	632.31
789.884	673.27
790.065	609.78
790.246	755.19
790.427	642.55
790.607	708.09
790.788	677.37
790.969	656.89
791.15	597.49
791.331	519.67
791.512	615.93
791.693	560.63
791.874	652.79
792.054	663.03
792.235	660.98
792.416	566.78
792.597	620.02
792.778	554.49
792.958	654.84
793.139	556.54
793.32	556.54
793.5	531.96
793.681	603.64
793.862	536.06
794.042	556.54
794.223	558.58
794.404	505.34
794.584	529.91
794.765	572.92
794.945	458.23
795.126	574.97
795.306	581.11
795.487	476.66
795.667	470.52
795.848	519.67
796.028	499.19
796.209	534.01
796.389	509.43
796.57	495.1
796.75	474.62
796.93	560.63
797.111	517.62
797.291	431.61
797.471	513.53
797.652	472.57
797.832	458.23
798.012	470.52
798.192	435.71
798.373	366.07
798.553	458.23
798.733	456.19
798.913	413.18
799.093	464.38
799.274	501.24
799.454	431.61
799.634	474.62
799.814	470.52
799.994	452.09
800.174	468.47
800.354	460.28
800.534	480.76
800.714	523.77
800.894	486.9
801.074	368.12
801.254	396.79
801.434	427.51
801.614	378.36
801.794	380.41
801.974	1101.3
802.154	427.51
802.334	447.99
802.514	374.27
802.693	400.89
802.873	347.64
803.053	374.27
803.233	374.27
803.413	411.13
803.592	335.35
803.772	413.18
803.952	329.21
804.131	298.49
804.311	308.73
804.491	423.42
804.67	306.68
804.85	361.98
805.03	318.97
805.209	466.42
805.389	384.51
805.568	347.64
805.748	343.55
805.928	407.03
806.107	404.99
806.287	404.99
806.466	423.42
806.646	306.68
806.825	314.88
807.004	331.26
807.184	310.78
807.363	343.55
807.543	400.89
807.722	253.44
807.901	345.59
808.081	335.35
808.26	243.2
808.439	292.35
808.619	245.24
808.798	302.59
808.977	300.54
809.156	323.07
809.336	321.02
809.515	308.73
809.694	278.01
809.873	253.44
810.052	323.07
810.231	343.55
810.411	273.92
810.59	335.35
810.769	269.82
810.948	280.06
811.127	146.94
811.306	294.4
811.485	321.02
811.664	306.68
811.843	271.87
812.022	323.07
812.201	263.68
812.38	224.76
812.559	282.11
812.737	298.49
812.916	235
813.095	253.44
813.274	294.4
813.453	347.64
813.632	200.19
813.811	255.48
813.989	267.77
814.168	243.2
814.347	280.06
814.526	226.81
814.704	306.68
814.883	218.62
815.062	237.05
815.24	273.92
815.419	192
815.598	275.96
815.776	151.04
815.955	179.71
816.133	187.9
816.312	316.92
816.49	218.62
816.669	202.24
816.847	142.85
817.026	265.72
817.204	257.53
817.383	167.42
817.561	89.6
817.74	177.66
817.918	177.66
818.097	220.67
818.275	200.19
818.453	329.21
818.632	228.86
818.81	161.28
818.988	194.05
819.167	183.81
819.345	259.58
819.523	218.62
819.701	206.33
819.879	169.47
820.058	218.62
820.236	271.87
820.414	202.24
820.592	83.45
820.77	224.76
820.948	214.52
821.127	155.13
821.305	157.18
821.483	157.18
821.661	269.82
821.839	173.57
822.017	159.23
822.195	167.42
822.373	108.03
822.551	210.43
822.729	171.52
822.907	155.13
823.085	220.67
823.262	171.52
823.44	148.99
823.618	187.9
823.796	165.37
823.974	155.13
824.152	153.09
824.329	173.57
824.507	171.52
824.685	179.71
824.863	220.67
825.04	148.99
825.218	148.99
825.396	126.46
825.574	179.71
825.751	69.12
825.929	159.23
826.107	114.17
826.284	171.52
826.462	142.85
826.639	153.09
826.817	40.45
826.994	183.81
827.172	177.66
827.349	206.33
827.527	93.69
827.704	157.18
827.882	216.57
828.059	140.8
828.237	108.03
828.414	185.85
828.591	87.55
828.769	173.57
828.946	60.93
829.124	235
829.301	155.13
829.478	114.17
829.655	218.62
829.833	103.93
830.01	60.93
830.187	116.22
830.364	75.26
830.542	171.52
830.719	161.28
830.896	132.61
831.073	87.55
831.25	194.05
831.427	99.84
831.604	140.8
831.782	95.74
831.959	181.76
832.136	67.07
832.313	173.57
832.49	79.36
832.667	75.26
832.844	97.79
833.021	177.66
833.198	179.71
833.374	81.41
833.551	114.17
833.728	97.79
833.905	114.17
834.082	114.17
834.259	91.65
834.436	118.27
834.612	83.45
834.789	122.37
834.966	58.88
835.143	151.04
835.319	81.41
835.496	159.23
835.673	60.93
835.85	187.9
836.026	99.84
836.203	77.31
836.38	71.17
836.556	50.69
836.733	36.35
836.909	187.9
837.086	93.69
837.262	19.97
837.439	108.03
837.616	34.3
837.792	58.88
837.968	7.68
838.145	87.55
838.321	103.93
838.498	44.54
838.674	99.84
838.851	95.74
839.027	42.5
839.203	134.65
839.38	89.6
839.556	-49.66
839.732	165.37
839.909	48.64
840.085	116.22
840.261	105.98
840.437	134.65
840.614	58.88
840.79	140.8
840.966	58.88
841.142	7.68
841.318	48.64
841.494	56.83
841.671	132.61
841.847	-4.61
842.023	77.31
842.199	26.11
842.375	62.98
842.551	28.16
842.727	28.16
842.903	138.75
843.079	38.4
843.255	151.04
843.431	101.89
843.607	138.75
843.783	52.74
843.959	34.3
844.134	-31.23
844.31	136.7
844.486	65.02
844.662	67.07
844.838	24.06
845.013	93.69
845.189	85.5
845.365	26.11
845.541	30.21
845.716	101.89
845.892	54.78
846.068	60.93
846.244	5.63
846.419	-14.85
846.595	52.74
846.77	44.54
846.946	114.17
847.122	34.3
847.297	-18.94
847.473	65.02
847.648	28.16
847.824	146.94
847.999	17.92
848.175	122.37
848.35	73.21
848.526	67.07
848.701	48.64
848.876	28.16
849.052	110.08
849.227	-0.51
849.403	48.64
849.578	40.45
849.753	22.02
849.929	83.45
850.104	24.06
850.279	112.13
850.454	50.69
850.63	56.83
850.805	34.3
850.98	71.17
851.155	114.17
851.33	62.98
851.505	7.68
851.681	101.89
851.856	-16.9
852.031	148.99
852.206	79.36
852.381	13.82
852.556	34.3
852.731	7.68
852.906	81.41
853.081	60.93
853.256	50.69
853.431	34.3
853.606	46.59
853.781	9.73
853.956	50.69
854.131	26.11
854.305	58.88
854.48	50.69
854.655	87.55
854.83	32.26
855.005	50.69
855.18	-10.75
855.354	67.07
855.529	38.4
855.704	-10.75
855.879	50.69
856.053	17.92
856.228	-2.56
856.403	-31.23
856.577	56.83
856.752	7.68
856.926	60.93
857.101	42.5
857.276	-6.66
857.45	38.4
857.625	42.5
857.799	-6.66
857.974	48.64
858.148	-57.86
858.323	73.21
858.497	-25.09
858.672	91.65
858.846	-35.33
859.02	-39.42
859.195	5.63
859.369	-0.51
859.543	24.06
859.718	120.32
859.892	81.41
860.066	36.35
860.241	54.78
860.415	-86.53
860.589	62.98
860.763	54.78
860.938	79.36
861.112	-0.51
861.286	42.5
861.46	11.78
861.634	-23.04
861.808	50.69
861.982	15.87
862.157	-43.52
862.331	-14.85
862.505	3.58
862.679	34.3
862.853	-4.61
863.027	67.07
863.201	30.21
863.375	-47.62
863.549	32.26
863.722	-8.7
863.896	71.17
864.07	36.35
864.244	-0.51
864.418	138.75
864.592	-39.42
864.766	38.4
864.939	-23.04
865.113	81.41
865.287	26.11
865.461	-6.66
865.634	-2.56
865.808	17.92
865.982	56.83
866.156	-14.85
866.329	-86.53
866.503	-6.66
866.676	-8.7
866.85	-14.85
867.024	73.21
867.197	9.73
867.371	114.17
867.544	52.74
867.718	15.87
867.891	13.82
868.065	-129.53
868.238	-14.85
868.412	34.3
868.585	44.54
868.759	13.82
868.932	-23.04
869.105	-35.33
869.279	-6.66
869.452	7.68
869.625	1.54
869.799	1.54
869.972	-64
870.145	11.78
870.319	77.31
870.492	-51.71
870.665	22.02
870.838	-4.61
871.011	-68.09
871.185	42.5
871.358	-59.9
871.531	-31.23
871.704	32.26
871.877	-68.09
872.05	-20.99
872.223	-33.28
872.396	15.87
872.569	83.45
872.742	-59.9
872.915	44.54
873.088	-2.56
873.261	-74.24
873.434	19.97
873.607	60.93
873.78	50.69
873.953	5.63
874.126	9.73
874.299	42.5
874.471	26.11
874.644	-68.09
874.817	56.83
874.99	93.69
875.163	-20.99
875.335	54.78
875.508	-2.56
875.681	38.4
875.853	-10.75
876.026	7.68
876.199	36.35
876.371	60.93
876.544	17.92
876.717	-25.09
876.889	-0.51
877.062	11.78
877.234	-35.33
877.407	-18.94
877.579	9.73
877.752	1.54
877.924	40.45
878.097	28.16
878.269	-8.7
878.442	56.83
878.614	36.35
878.786	24.06
878.959	52.74
879.131	60.93
879.303	-41.47
879.476	28.16
879.648	-29.18
879.82	-4.61
879.993	11.78
880.165	19.97
880.337	-29.18
880.509	15.87
880.681	-72.19
880.854	1.54
881.026	75.26
881.198	9.73
881.37	-102.91
881.542	-4.61
881.714	40.45
881.886	-92.67
882.058	26.11
882.23	-2.56
882.402	7.68
882.574	-23.04
882.746	15.87
882.918	30.21
883.09	56.83
883.262	11.78
883.434	11.78
883.606	-68.09
883.778	-57.86
883.95	44.54
884.122	-23.04
884.293	-2.56
884.465	-57.86
884.637	75.26
884.809	-25.09
884.98	22.02
885.152	15.87
885.324	-23.04
885.496	-66.05
885.667	36.35
885.839	-0.51
886.011	26.11
886.182	34.3
886.354	60.93
886.525	56.83
886.697	-39.42
886.869	-31.23
887.04	7.68
887.212	-51.71
887.383	-57.86
887.555	-14.85
887.726	32.26
887.897	-70.14
888.069	26.11
888.24	-12.8
888.412	32.26
888.583	-6.66
888.754	-27.14
888.926	-66.05
889.097	28.16
889.268	-39.42
889.44	44.54
889.611	-35.33
889.782	-94.72
889.953	-45.57
890.125	32.26
890.296	-59.9
890.467	13.82
890.638	-47.62
890.809	44.54
890.98	-66.05
891.151	17.92
891.323	19.97
891.494	-49.66
891.665	-23.04
891.836	-47.62
892.007	-39.42
892.178	-61.95
892.349	81.41
892.52	-20.99
892.691	-59.9
892.862	3.58
893.032	-66.05
893.203	-33.28
893.374	-2.56
893.545	32.26
893.716	-33.28
893.887	26.11
894.057	46.59
894.228	-27.14
894.399	-6.66
894.57	-20.99
894.74	30.21
894.911	17.92
895.082	-12.8
895.253	7.68
895.423	9.73
895.594	46.59
895.764	13.82
895.935	15.87
896.106	36.35
896.276	-29.18
896.447	13.82
896.617	-96.77
896.788	-27.14
896.958	-104.96
897.129	65.02
897.299	3.58
897.47	-10.75
897.64	-23.04
897.81	-18.94
897.981	-33.28
898.151	-8.7
898.322	-31.23
898.492	-45.57
898.662	-45.57
898.832	-119.29
899.003	24.06
899.173	11.78
899.343	-27.14
899.513	79.36
