Data from USB4F104151__28__12-23-40-612.txt Node

Date: Fri Mar 14 12:23:40 EDT 2025
User: louis
Spectrometer: USB4F10415
Trigger mode: 4
Integration Time (sec): 3.500000E-2
Scans to average: 1
Electric dark correction enabled: true
Nonlinearity correction enabled: false
Boxcar width: 0
XAxis mode: Wavelengths
Number of Pixels in Spectrum: 3648
>>>>>Begin Spectral Data<<<<<
178.204	-191.31
178.424	-191.31
178.644	-191.31
178.864	-117.59
179.084	-168.79
179.304	29.87
179.524	-19.29
179.744	-60.24
179.964	21.67
180.184	-27.48
180.404	56.49
180.624	-103.25
180.844	19.63
181.064	-21.33
181.283	60.59
181.503	17.58
181.723	25.77
181.943	-25.43
182.163	66.73
182.383	3.24
182.602	9.39
182.822	33.96
183.042	54.44
183.262	1.19
183.482	-50
183.701	21.67
183.921	76.97
184.141	-45.91
184.361	1.19
184.58	3.24
184.8	36.01
185.02	-7
185.239	27.82
185.459	-31.57
185.679	58.54
185.898	-64.34
186.118	111.78
186.338	33.96
186.557	42.15
186.777	-15.19
186.997	-15.19
187.216	-11.09
187.436	113.83
187.655	42.15
187.875	46.25
188.095	36.01
188.314	95.4
188.534	85.16
188.753	21.67
188.973	1.19
189.192	-13.14
189.412	68.78
189.631	52.39
189.851	13.48
190.07	89.26
190.29	60.59
190.509	33.96
190.729	5.29
190.948	111.78
191.168	97.45
191.387	85.16
191.607	-7
191.826	83.11
192.045	7.34
192.265	23.72
192.484	-19.29
192.704	-7
192.923	-68.44
193.142	105.64
193.362	33.96
193.581	-4.95
193.8	42.15
194.02	44.2
194.239	29.87
194.458	21.67
194.678	-27.48
194.897	44.2
195.116	-23.38
195.335	54.44
195.555	85.16
195.774	-47.96
195.993	23.72
196.212	89.26
196.432	29.87
196.651	29.87
196.87	-27.48
197.089	95.4
197.308	117.93
197.528	66.73
197.747	-54.1
197.966	-15.19
198.185	48.3
198.404	58.54
198.623	58.54
198.842	56.49
199.062	101.55
199.281	-31.57
199.5	66.73
199.719	11.43
199.938	11.43
200.157	48.3
200.376	83.11
200.595	19.63
200.814	27.82
201.033	-15.19
201.252	-2.9
201.471	23.72
201.69	76.97
201.909	13.48
202.128	50.35
202.347	-56.15
202.566	25.77
202.785	42.15
203.004	-4.95
203.223	171.18
203.442	95.4
203.661	-37.72
203.879	-17.24
204.098	97.45
204.317	-58.2
204.536	74.92
204.755	58.54
204.974	95.4
205.193	42.15
205.411	158.89
205.63	56.49
205.849	50.35
206.068	56.49
206.287	1.19
206.505	-27.48
206.724	27.82
206.943	-13.14
207.162	95.4
207.381	-0.85
207.599	54.44
207.818	60.59
208.037	40.11
208.255	-23.38
208.474	46.25
208.693	25.77
208.911	-13.14
209.13	-0.85
209.349	-25.43
209.567	17.58
209.786	31.91
210.005	-7
210.223	33.96
210.442	-15.19
210.661	64.68
210.879	-11.09
211.098	46.25
211.316	9.39
211.535	19.63
211.753	-13.14
211.972	-7
212.191	40.11
212.409	19.63
212.628	13.48
212.846	-9.05
213.065	60.59
213.283	42.15
213.502	83.11
213.72	-9.05
213.938	44.2
214.157	-13.14
214.375	13.48
214.594	-41.81
214.812	19.63
215.031	-21.33
215.249	29.87
215.467	52.39
215.686	44.2
215.904	97.45
216.122	-25.43
216.341	-0.85
216.559	42.15
216.778	74.92
216.996	19.63
217.214	89.26
217.432	74.92
217.651	-4.95
217.869	-4.95
218.087	50.35
218.306	72.87
218.524	42.15
218.742	38.06
218.96	-4.95
219.179	-29.52
219.397	11.43
219.615	103.59
219.833	33.96
220.051	-7
220.27	21.67
220.488	83.11
220.706	1.19
220.924	111.78
221.142	17.58
221.36	-2.9
221.578	52.39
221.796	11.43
222.015	-56.15
222.233	50.35
222.451	83.11
222.669	21.67
222.887	52.39
223.105	21.67
223.323	7.34
223.541	46.25
223.759	-9.05
223.977	-2.9
224.195	-15.19
224.413	68.78
224.631	91.31
224.849	5.29
225.067	64.68
225.285	-23.38
225.503	-21.33
225.721	-27.48
225.939	25.77
226.157	27.82
226.375	103.59
226.592	13.48
226.81	-41.81
227.028	-54.1
227.246	101.55
227.464	-29.52
227.682	101.55
227.9	31.91
228.117	13.48
228.335	23.72
228.553	91.31
228.771	-54.1
228.989	68.78
229.206	27.82
229.424	40.11
229.642	-2.9
229.86	-7
230.077	97.45
230.295	-0.85
230.513	-15.19
230.731	-29.52
230.948	117.93
231.166	46.25
231.384	79.02
231.601	-33.62
231.819	85.16
232.037	25.77
232.254	-13.14
232.472	107.69
232.689	-17.24
232.907	60.59
233.125	33.96
233.342	68.78
233.56	-9.05
233.777	-72.53
233.995	19.63
234.213	60.59
234.43	17.58
234.648	1.19
234.865	15.53
235.083	31.91
235.3	60.59
235.518	101.55
235.735	40.11
235.953	70.83
236.17	-72.53
236.388	-84.82
236.605	-35.67
236.822	58.54
237.04	40.11
237.257	33.96
237.475	-88.92
237.692	62.63
237.909	48.3
238.127	15.53
238.344	25.77
238.562	46.25
238.779	-13.14
238.996	-80.72
239.214	-31.57
239.431	44.2
239.648	-80.72
239.865	68.78
240.083	11.43
240.3	5.29
240.517	-4.95
240.735	76.97
240.952	68.78
241.169	-19.29
241.386	42.15
241.603	-52.05
241.821	36.01
242.038	11.43
242.255	-4.95
242.472	7.34
242.689	-21.33
242.907	-9.05
243.124	64.68
243.341	11.43
243.558	-7
243.775	21.67
243.992	33.96
244.209	29.87
244.426	85.16
244.643	56.49
244.86	15.53
245.078	13.48
245.295	89.26
245.512	89.26
245.729	-80.72
245.946	76.97
246.163	7.34
246.38	15.53
246.597	-9.05
246.814	103.59
247.031	-13.14
247.248	1.19
247.464	-15.19
247.681	9.39
247.898	-17.24
248.115	40.11
248.332	-54.1
248.549	29.87
248.766	17.58
248.983	115.88
249.2	-27.48
249.417	101.55
249.633	-19.29
249.85	76.97
250.067	-37.72
250.284	-13.14
250.501	66.73
250.717	50.35
250.934	5.29
251.151	-25.43
251.368	9.39
251.585	56.49
251.801	-29.52
252.018	7.34
252.235	23.72
252.451	3.24
252.668	62.63
252.885	76.97
253.102	76.97
253.318	1.19
253.535	44.2
253.752	13.48
253.968	11.43
254.185	-21.33
254.401	-90.96
254.618	3.24
254.835	-33.62
255.051	76.97
255.268	87.21
255.484	76.97
255.701	46.25
255.917	79.02
256.134	-7
256.351	3.24
256.567	-9.05
256.784	58.54
257	36.01
257.217	79.02
257.433	15.53
257.65	27.82
257.866	-33.62
258.082	31.91
258.299	-37.72
258.515	-41.81
258.732	25.77
258.948	-29.52
259.165	93.35
259.381	-21.33
259.597	-9.05
259.814	3.24
260.03	13.48
260.246	38.06
260.463	111.78
260.679	50.35
260.895	58.54
261.112	-7
261.328	-45.91
261.544	3.24
261.761	173.22
261.977	23.72
262.193	-29.52
262.409	-27.48
262.626	-7
262.842	33.96
263.058	-41.81
263.274	7.34
263.49	33.96
263.707	83.11
263.923	105.64
264.139	-19.29
264.355	68.78
264.571	29.87
264.787	1.19
265.004	79.02
265.22	107.69
265.436	79.02
265.652	-39.76
265.868	62.63
266.084	11.43
266.3	-9.05
266.516	1.19
266.732	23.72
266.948	52.39
267.164	87.21
267.38	44.2
267.596	-17.24
267.812	87.21
268.028	46.25
268.244	-13.14
268.46	40.11
268.676	9.39
268.892	31.91
269.108	-31.57
269.324	15.53
269.54	-15.19
269.756	115.88
269.972	7.34
270.188	23.72
270.403	38.06
270.619	11.43
270.835	-27.48
271.051	-17.24
271.267	-25.43
271.483	-35.67
271.698	44.2
271.914	25.77
272.13	58.54
272.346	3.24
272.562	60.59
272.777	23.72
272.993	29.87
273.209	40.11
273.425	81.07
273.64	-33.62
273.856	-4.95
274.072	-31.57
274.287	11.43
274.503	9.39
274.719	83.11
274.934	-17.24
275.15	-13.14
275.366	1.19
275.581	68.78
275.797	66.73
276.012	9.39
276.228	70.83
276.444	72.87
276.659	74.92
276.875	-41.81
277.09	-27.48
277.306	36.01
277.521	46.25
277.737	13.48
277.952	36.01
278.168	44.2
278.383	128.17
278.599	48.3
278.814	-39.76
279.03	68.78
279.245	79.02
279.461	97.45
279.676	13.48
279.892	-56.15
280.107	38.06
280.322	9.39
280.538	-80.72
280.753	70.83
280.969	-4.95
281.184	-17.24
281.399	74.92
281.615	3.24
281.83	48.3
282.045	17.58
282.26	-9.05
282.476	21.67
282.691	74.92
282.906	54.44
283.122	-17.24
283.337	-0.85
283.552	56.49
283.767	46.25
283.983	3.24
284.198	25.77
284.413	52.39
284.628	11.43
284.843	-13.14
285.058	50.35
285.274	17.58
285.489	-23.38
285.704	38.06
285.919	33.96
286.134	-9.05
286.349	52.39
286.564	44.2
286.779	-23.38
286.995	13.48
287.21	36.01
287.425	85.16
287.64	9.39
287.855	29.87
288.07	-72.53
288.285	31.91
288.5	44.2
288.715	-2.9
288.93	17.58
289.145	36.01
289.36	36.01
289.575	-84.82
289.79	48.3
290.004	74.92
290.219	105.64
290.434	-54.1
290.649	-9.05
290.864	-7
291.079	-15.19
291.294	27.82
291.509	-56.15
291.724	38.06
291.938	3.24
292.153	29.87
292.368	-13.14
292.583	11.43
292.798	9.39
293.012	60.59
293.227	48.3
293.442	44.2
293.657	5.29
293.871	76.97
294.086	56.49
294.301	79.02
294.516	40.11
294.73	144.55
294.945	13.48
295.16	29.87
295.374	85.16
295.589	101.55
295.804	7.34
296.018	60.59
296.233	58.54
296.447	36.01
296.662	-9.05
296.877	89.26
297.091	103.59
297.306	91.31
297.52	9.39
297.735	25.77
297.949	17.58
298.164	-13.14
298.378	-11.09
298.593	17.58
298.807	-11.09
299.022	19.63
299.236	113.83
299.451	44.2
299.665	25.77
299.88	19.63
300.094	36.01
300.309	54.44
300.523	36.01
300.737	-35.67
300.952	74.92
301.166	79.02
301.381	-45.91
301.595	-2.9
301.809	111.78
302.024	-2.9
302.238	-23.38
302.452	54.44
302.667	56.49
302.881	85.16
303.095	50.35
303.309	91.31
303.524	-47.96
303.738	-37.72
303.952	-15.19
304.166	54.44
304.381	-19.29
304.595	68.78
304.809	23.72
305.023	38.06
305.237	11.43
305.452	91.31
305.666	103.59
305.88	13.48
306.094	31.91
306.308	-2.9
306.522	27.82
306.736	9.39
306.95	44.2
307.164	36.01
307.379	11.43
307.593	31.91
307.807	38.06
308.021	79.02
308.235	11.43
308.449	-29.52
308.663	58.54
308.877	101.55
309.091	27.82
309.305	56.49
309.519	-13.14
309.733	62.63
309.947	13.48
310.161	48.3
310.374	27.82
310.588	89.26
310.802	36.01
311.016	-4.95
311.23	109.74
311.444	-33.62
311.658	17.58
311.872	52.39
312.085	95.4
312.299	48.3
312.513	23.72
312.727	111.78
312.941	70.83
313.154	29.87
313.368	5.29
313.582	-25.43
313.796	48.3
314.009	21.67
314.223	101.55
314.437	9.39
314.651	-39.76
314.864	33.96
315.078	-0.85
315.292	5.29
315.505	52.39
315.719	13.48
315.933	42.15
316.146	-25.43
316.36	17.58
316.573	21.67
316.787	85.16
317.001	-0.85
317.214	27.82
317.428	62.63
317.641	-11.09
317.855	3.24
318.068	-15.19
318.282	91.31
318.495	134.31
318.709	56.49
318.922	-7
319.136	46.25
319.349	62.63
319.563	-47.96
319.776	48.3
319.99	-56.15
320.203	-2.9
320.417	36.01
320.63	27.82
320.843	87.21
321.057	54.44
321.27	-31.57
321.483	36.01
321.697	60.59
321.91	50.35
322.124	19.63
322.337	-23.38
322.55	-11.09
322.763	50.35
322.977	5.29
323.19	-58.2
323.403	42.15
323.617	36.01
323.83	64.68
324.043	-41.81
324.256	-27.48
324.469	-25.43
324.683	74.92
324.896	7.34
325.109	42.15
325.322	5.29
325.535	66.73
325.748	40.11
325.962	70.83
326.175	83.11
326.388	-37.72
326.601	56.49
326.814	23.72
327.027	60.59
327.24	50.35
327.453	21.67
327.666	91.31
327.879	93.35
328.092	21.67
328.305	11.43
328.518	-68.44
328.731	11.43
328.944	15.53
329.157	52.39
329.37	62.63
329.583	105.64
329.796	93.35
330.009	-93.01
330.222	23.72
330.435	68.78
330.648	-4.95
330.861	-9.05
331.073	95.4
331.286	50.35
331.499	-56.15
331.712	-35.67
331.925	-15.19
332.138	-82.77
332.35	15.53
332.563	87.21
332.776	36.01
332.989	3.24
333.202	-31.57
333.414	156.84
333.627	-4.95
333.84	72.87
334.053	74.92
334.265	64.68
334.478	-15.19
334.691	33.96
334.903	54.44
335.116	44.2
335.329	46.25
335.541	11.43
335.754	17.58
335.966	60.59
336.179	3.24
336.392	-2.9
336.604	72.87
336.817	25.77
337.029	107.69
337.242	93.35
337.454	89.26
337.667	7.34
337.88	74.92
338.092	23.72
338.305	58.54
338.517	-17.24
338.729	126.12
338.942	87.21
339.154	23.72
339.367	-35.67
339.579	72.87
339.792	40.11
340.004	9.39
340.217	40.11
340.429	85.16
340.641	9.39
340.854	33.96
341.066	91.31
341.278	7.34
341.491	21.67
341.703	64.68
341.915	21.67
342.128	115.88
342.34	15.53
342.552	11.43
342.764	101.55
342.977	38.06
343.189	72.87
343.401	60.59
343.613	19.63
343.826	3.24
344.038	-39.76
344.25	5.29
344.462	38.06
344.674	85.16
344.886	66.73
345.099	64.68
345.311	74.92
345.523	81.07
345.735	-2.9
345.947	76.97
346.159	38.06
346.371	17.58
346.583	25.77
346.795	23.72
347.007	-33.62
347.219	29.87
347.431	11.43
347.643	50.35
347.855	44.2
348.067	-9.05
348.279	29.87
348.491	58.54
348.703	54.44
348.915	40.11
349.127	-50
349.339	95.4
349.551	-19.29
349.763	13.48
349.975	40.11
350.187	89.26
350.399	89.26
350.61	76.97
350.822	52.39
351.034	3.24
351.246	54.44
351.458	52.39
351.669	21.67
351.881	81.07
352.093	79.02
352.305	15.53
352.517	27.82
352.728	5.29
352.94	-19.29
353.152	15.53
353.363	38.06
353.575	60.59
353.787	105.64
353.999	52.39
354.21	56.49
354.422	52.39
354.633	5.29
354.845	-9.05
355.057	-19.29
355.268	33.96
355.48	52.39
355.692	-52.05
355.903	40.11
356.115	27.82
356.326	48.3
356.538	-0.85
356.749	19.63
356.961	105.64
357.172	-64.34
357.384	29.87
357.595	103.59
357.807	68.78
358.018	48.3
358.23	76.97
358.441	62.63
358.653	101.55
358.864	23.72
359.075	13.48
359.287	54.44
359.498	76.97
359.709	85.16
359.921	33.96
360.132	33.96
360.344	5.29
360.555	97.45
360.766	36.01
360.977	5.29
361.189	21.67
361.4	-9.05
361.611	91.31
361.823	91.31
362.034	64.68
362.245	-88.92
362.456	54.44
362.667	40.11
362.879	-2.9
363.09	68.78
363.301	5.29
363.512	17.58
363.723	21.67
363.935	46.25
364.146	107.69
364.357	68.78
364.568	-29.52
364.779	-25.43
364.99	44.2
365.201	31.91
365.412	83.11
365.623	-33.62
365.834	124.07
366.045	-23.38
366.256	27.82
366.467	101.55
366.678	29.87
366.889	134.31
367.1	-39.76
367.311	33.96
367.522	48.3
367.733	7.34
367.944	-7
368.155	-0.85
368.366	7.34
368.577	85.16
368.788	119.98
368.999	-37.72
369.209	60.59
369.42	167.08
369.631	11.43
369.842	87.21
370.053	-2.9
370.264	72.87
370.474	25.77
370.685	40.11
370.896	17.58
371.107	175.27
371.317	103.59
371.528	19.63
371.739	42.15
371.95	38.06
372.16	7.34
372.371	9.39
372.582	7.34
372.792	-13.14
373.003	103.59
373.214	105.64
373.424	97.45
373.635	-0.85
373.846	122.02
374.056	74.92
374.267	60.59
374.477	66.73
374.688	-31.57
374.898	-29.52
375.109	62.63
375.319	60.59
375.53	13.48
375.74	89.26
375.951	50.35
376.161	-15.19
376.372	54.44
376.582	52.39
376.793	130.22
377.003	-17.24
377.214	42.15
377.424	72.87
377.635	42.15
377.845	46.25
378.055	29.87
378.266	52.39
378.476	-43.86
378.686	15.53
378.897	72.87
379.107	95.4
379.317	64.68
379.528	56.49
379.738	76.97
379.948	-35.67
380.158	1.19
380.369	-4.95
380.579	38.06
380.789	89.26
380.999	-21.33
381.21	36.01
381.42	36.01
381.63	85.16
381.84	113.83
382.05	79.02
382.261	87.21
382.471	1.19
382.681	11.43
382.891	46.25
383.101	36.01
383.311	-27.48
383.521	-2.9
383.731	93.35
383.941	15.53
384.151	36.01
384.361	11.43
384.571	11.43
384.781	29.87
384.991	111.78
385.201	85.16
385.411	-0.85
385.621	21.67
385.831	1.19
386.041	52.39
386.251	11.43
386.461	58.54
386.671	72.87
386.881	33.96
387.091	46.25
387.301	99.5
387.511	70.83
387.72	68.78
387.93	111.78
388.14	27.82
388.35	46.25
388.56	46.25
388.769	87.21
388.979	1.19
389.189	-25.43
389.399	-13.14
389.609	-29.52
389.818	44.2
390.028	64.68
390.238	42.15
390.447	11.43
390.657	93.35
390.867	83.11
391.076	21.67
391.286	79.02
391.496	95.4
391.705	58.54
391.915	64.68
392.125	134.31
392.334	40.11
392.544	109.74
392.753	74.92
392.963	54.44
393.172	33.96
393.382	27.82
393.591	58.54
393.801	-11.09
394.01	89.26
394.22	62.63
394.429	70.83
394.639	76.97
394.848	29.87
395.058	70.83
395.267	58.54
395.477	95.4
395.686	76.97
395.895	154.79
396.105	89.26
396.314	58.54
396.524	33.96
396.733	31.91
396.942	64.68
397.152	126.12
397.361	66.73
397.57	36.01
397.78	5.29
397.989	70.83
398.198	85.16
398.407	60.59
398.617	89.26
398.826	95.4
399.035	128.17
399.244	138.41
399.453	95.4
399.663	76.97
399.872	89.26
400.081	27.82
400.29	152.74
400.499	50.35
400.708	105.64
400.917	62.63
401.127	119.98
401.336	105.64
401.545	142.5
401.754	64.68
401.963	89.26
402.172	72.87
402.381	38.06
402.59	101.55
402.799	79.02
403.008	87.21
403.217	99.5
403.426	48.3
403.635	70.83
403.844	148.65
404.053	85.16
404.262	64.68
404.471	142.5
404.68	130.22
404.888	128.17
405.097	60.59
405.306	54.44
405.515	60.59
405.724	74.92
405.933	140.46
406.142	74.92
406.35	144.55
406.559	89.26
406.768	72.87
406.977	199.85
407.185	113.83
407.394	156.84
407.603	85.16
407.812	138.41
408.02	124.07
408.229	138.41
408.438	91.31
408.646	124.07
408.855	154.79
409.064	93.35
409.272	150.7
409.481	167.08
409.69	154.79
409.898	177.32
410.107	224.42
410.315	230.57
410.524	152.74
410.733	214.18
410.941	230.57
411.15	218.28
411.358	279.72
411.567	226.47
411.775	226.47
411.984	296.1
412.192	324.77
412.401	249
412.609	363.69
412.818	314.53
413.026	310.44
413.234	310.44
413.443	341.16
413.651	341.16
413.86	363.69
414.068	447.65
414.276	394.4
414.485	306.34
414.693	429.22
414.901	449.7
415.11	453.8
415.318	373.92
415.526	459.94
415.734	543.91
415.943	486.56
416.151	482.47
416.359	457.89
416.567	605.35
416.776	572.58
416.984	644.26
417.192	629.92
417.4	588.96
417.608	605.35
417.817	728.22
418.025	683.17
418.233	746.66
418.441	728.22
418.649	861.34
418.857	717.98
419.065	818.33
419.273	867.49
419.481	890.01
419.689	877.73
419.897	924.83
420.105	912.54
420.313	973.98
420.521	1029.27
420.729	1027.23
420.937	1027.23
421.145	1115.29
421.353	1242.26
421.561	1045.66
421.769	1315.99
421.977	1209.5
422.185	1238.17
422.393	1426.58
422.601	1391.77
422.809	1459.35
423.017	1440.92
423.224	1502.36
423.432	1502.36
423.64	1510.55
423.848	1768.59
424.056	1698.96
424.263	1739.92
424.471	1815.69
424.679	1811.6
424.887	1973.39
425.094	1959.05
425.302	1936.53
425.51	2075.79
425.718	2032.78
425.925	2126.99
426.133	2149.51
426.341	2391.17
426.548	2466.95
426.756	2387.08
426.964	2509.96
427.171	2534.53
427.379	2749.57
427.586	2741.38
427.794	2724.99
428.001	2966.65
428.209	3038.33
428.417	3183.74
428.624	3191.93
428.832	3249.27
429.039	3323
429.247	3245.18
429.454	3497.08
429.662	3751.03
429.869	3390.58
430.076	3658.87
430.284	3665.01
430.491	3869.81
430.699	3978.35
430.906	4019.31
431.114	4144.24
431.321	4260.97
431.528	4312.17
431.736	4580.45
431.943	4742.24
432.15	4777.06
432.358	4684.9
432.565	5108.83
432.772	4883.55
432.979	5172.32
433.187	5411.93
433.394	5508.18
433.601	5645.4
433.808	5766.23
434.016	5733.46
434.223	6018.13
434.43	6302.79
434.637	6059.09
434.844	6564.93
435.052	6607.94
435.259	6714.44
435.466	6714.44
435.673	6736.96
435.88	6933.57
436.087	7363.64
436.294	7414.84
436.501	7195.71
436.708	7251
436.915	7806
437.122	7932.98
437.329	8109.1
437.537	8160.3
437.743	8418.35
437.95	8332.33
438.157	8817.7
438.364	9102.37
438.571	8993.83
438.778	9231.39
438.985	9921.56
439.192	9581.59
439.399	9862.16
439.606	9600.02
439.813	10130.45
440.02	10757.13
440.227	10669.06
440.433	10740.74
440.64	10900.48
440.847	10705.93
441.054	11308.03
441.261	11725.82
441.467	11625.47
441.674	11805.69
441.881	12430.32
442.088	12168.18
442.294	12151.79
442.501	12557.29
442.708	12960.74
442.914	13087.71
443.121	13923.29
443.328	13556.7
443.534	14613.45
443.741	14099.41
443.948	13702.11
444.154	14826.44
444.361	14830.54
444.568	15076.29
444.774	14799.82
444.981	15072.2
445.187	15576
445.394	16077.75
445.6	15848.38
445.807	17327.01
446.013	16825.26
446.22	17218.47
446.426	18043.8
446.633	17863.58
446.839	18531.22
447.046	17613.73
447.252	18600.85
447.459	19026.82
447.665	18729.87
447.871	19561.34
448.078	20333.43
448.284	19057.54
448.491	20167.54
448.697	20503.41
448.903	21113.7
449.11	21224.29
449.316	20736.88
449.522	21289.83
449.728	21939.04
449.935	22061.91
450.141	21687.14
450.347	22836.05
450.553	21773.15
450.76	22213.46
450.966	22688.59
451.172	22692.69
451.378	23348.04
451.584	22805.33
451.791	23229.26
451.997	23001.93
452.203	23640.9
452.409	23849.79
452.615	23466.82
452.821	22496.08
453.027	22569.81
453.233	23561.03
453.44	22756.18
453.646	22594.39
453.852	22889.29
454.058	23419.72
454.264	22621.01
454.47	23339.85
454.676	22457.17
454.882	23133
455.088	21181.29
455.294	21549.92
455.5	21885.79
455.705	22254.42
455.911	21156.71
456.117	20886.38
456.323	20618.1
456.529	19639.17
456.735	20392.82
456.941	19792.76
457.147	19454.85
457.352	19110.79
457.558	18402.19
457.764	18912.14
457.97	18025.37
458.176	17861.53
458.381	17914.78
458.587	17044.39
458.793	16995.24
458.999	16018.36
459.204	17312.67
459.41	16995.24
459.616	15813.56
459.821	15758.27
460.027	15791.03
460.233	15283.14
460.438	14420.94
460.644	14693.32
460.85	14115.8
461.055	13591.52
461.261	13716.44
461.466	12450.8
461.672	12295.15
461.878	13169.63
462.083	12299.25
462.289	12065.78
462.494	11979.76
462.7	11766.78
462.905	11097.09
463.111	11598.84
463.316	11457.53
463.522	11379.71
463.727	11355.13
463.932	11412.48
464.138	11189.25
464.343	11211.78
464.549	10810.37
464.754	11181.06
464.959	11219.97
465.165	11049.99
465.37	10691.59
465.575	10069.01
465.781	10970.12
465.986	10970.12
466.191	10316.81
466.397	10165.26
466.602	9815.06
466.807	10169.36
467.012	10224.65
467.218	9925.65
467.423	10042.39
467.628	9890.84
467.833	10482.7
468.038	9864.21
468.244	9552.92
468.449	10138.64
468.654	9686.04
468.859	9622.55
469.064	9622.55
469.269	9249.82
469.474	9452.57
469.679	9563.16
469.885	9352.22
470.09	9301.02
470.295	9329.69
470.5	9202.72
470.705	9178.14
470.91	9059.36
471.115	8911.91
471.32	8954.91
471.525	9198.62
471.73	8928.29
471.935	8670.25
472.139	8242.22
472.344	8547.37
472.549	8502.31
472.754	8449.07
472.959	8231.98
473.164	8229.93
473.369	7853.11
473.574	7961.65
473.778	8010.8
473.983	8139.82
474.188	8068.14
474.393	7711.8
474.598	7822.39
474.802	7552.06
475.007	7617.59
475.212	7599.16
475.417	7486.52
475.621	7384.12
475.826	7369.79
476.031	7242.81
476.235	7076.93
476.44	7109.69
476.645	7078.97
476.849	7007.3
477.054	7033.92
477.259	6884.42
477.463	6845.51
477.668	6655.05
477.872	6646.85
478.077	6599.75
478.282	6337.61
478.486	6399.05
478.691	6444.1
478.895	6448.2
479.1	6214.73
479.304	6321.23
479.509	6048.85
479.713	6347.85
479.918	6141
480.122	5956.69
480.326	6169.68
480.531	6206.54
480.735	5975.12
480.94	6007.89
481.144	6167.63
481.348	5807.19
481.553	5964.88
481.757	5774.42
481.961	6073.42
482.166	6095.95
482.37	5878.86
482.574	5772.37
482.778	5946.45
482.983	5993.55
483.187	5915.73
483.391	6052.94
483.595	5938.26
483.8	5747.79
484.004	5868.63
484.208	5952.59
484.412	5835.86
484.616	5786.71
484.821	6014.03
485.025	5641.3
485.229	5862.48
485.433	6018.13
485.637	5895.25
485.841	5979.22
486.045	5813.33
486.249	5962.83
486.453	5741.65
486.657	5829.71
486.861	5866.58
487.065	5825.62
487.269	5850.19
487.473	5602.39
487.677	6063.18
487.881	5989.46
488.085	5811.28
488.289	5794.9
488.493	5903.44
488.697	6020.17
488.901	5934.16
489.105	5809.23
489.309	5919.82
489.512	5936.21
489.716	5930.06
489.92	6059.09
490.124	5868.63
490.328	6212.68
490.531	5895.25
490.735	6065.23
490.939	5928.02
491.143	6077.52
491.346	5942.35
491.55	6181.96
491.754	6145.1
491.958	6134.86
492.161	6071.37
492.365	6294.6
492.569	6155.34
492.772	6431.82
492.976	6265.93
493.18	6239.31
493.383	6304.84
493.587	6448.2
493.79	6552.65
493.994	6253.64
494.197	6255.69
494.401	6595.65
494.605	6501.45
494.808	6753.35
495.012	6706.24
495.215	6775.88
495.419	6884.42
495.622	6835.27
495.825	6755.4
496.029	6818.88
496.232	7048.26
496.436	7038.02
496.639	7185.47
496.843	6982.72
497.046	7197.76
497.249	7412.79
497.453	7257.15
497.656	7427.13
497.859	7461.94
498.063	7556.15
498.266	7578.68
498.469	7554.1
498.673	7857.2
498.876	8033.33
499.079	7955.51
499.282	7986.22
499.485	8229.93
499.689	8139.82
499.892	8436.78
500.095	8205.36
500.298	8537.13
500.501	8475.69
500.705	8750.12
500.908	8813.6
501.111	8829.99
501.314	9098.27
501.517	9200.67
501.72	9075.74
501.923	9417.75
502.126	9215.01
502.329	9505.82
502.532	9534.49
502.735	9520.15
502.938	9868.31
503.141	10011.67
503.344	10112.02
503.547	10163.22
503.75	10265.61
503.953	10361.87
504.156	10759.17
504.359	10546.19
504.562	10757.13
504.765	10841.09
504.968	11111.43
505.17	11068.42
505.373	11037.7
505.576	11471.87
505.779	11404.28
505.982	11789.3
506.185	11924.47
506.387	11809.78
506.59	12131.31
506.793	12194.8
506.996	12274.67
507.198	12608.49
507.401	12309.49
507.604	12807.14
507.807	12784.62
508.009	13155.3
508.212	13179.87
508.415	13425.63
508.617	13622.23
508.82	13409.25
509.022	13601.76
509.225	14089.17
509.428	14218.19
509.63	14087.12
509.833	14326.74
510.035	14449.61
510.238	14648.27
510.44	14666.7
510.643	15018.95
510.845	14920.65
511.048	15156.16
511.25	15659.96
511.453	15528.89
511.655	16124.85
511.858	16094.13
512.06	15938.49
512.262	16122.8
512.465	16358.32
512.667	16876.46
512.87	16802.73
513.072	16872.36
513.274	17243.04
513.477	17327.01
513.679	17376.16
513.881	17720.22
514.084	18002.84
514.286	18004.89
514.488	18236.31
514.69	18887.56
514.893	18697.1
515.095	18850.7
515.297	19123.08
515.499	19153.8
515.701	19747.71
515.904	19966.84
516.106	20005.75
516.308	20286.33
516.51	20355.96
516.712	20484.98
516.914	21037.93
517.116	21455.72
517.318	20837.23
517.52	21349.22
517.722	21384.04
517.925	21926.75
518.127	22076.25
518.329	22315.86
518.531	22385.49
518.733	22625.11
518.935	22991.69
519.136	22967.12
519.338	23624.51
519.54	23313.22
519.742	23622.47
519.944	23849.79
520.146	24372.02
520.348	24396.6
520.55	24914.73
520.752	24863.54
520.954	25363.24
521.155	25264.94
521.357	25330.47
521.559	25920.29
521.761	26383.13
521.963	25951.01
522.164	26389.27
522.366	26561.3
522.568	26872.59
522.77	27101.97
522.971	27431.69
523.173	27503.37
523.375	27781.89
523.576	27912.96
523.778	28037.89
523.98	28173.05
524.181	28613.37
524.383	28412.67
524.584	28936.95
524.786	29291.24
524.988	28891.89
525.189	29399.79
525.391	29682.41
525.592	30110.43
525.794	30075.62
525.995	30276.32
526.197	29919.97
526.398	30528.22
526.6	30575.32
526.801	30399.19
527.003	31005.39
527.204	30843.6
527.406	31144.66
527.607	31318.73
527.808	31392.46
528.01	31216.33
528.211	31560.39
528.412	32221.89
528.614	31871.68
528.815	31994.56
529.016	32189.12
529.218	31986.37
529.419	32189.12
529.62	32467.64
529.822	32271.04
530.023	32268.99
530.224	32903.86
530.425	32504.51
530.626	32766.65
530.828	32422.59
531.029	33508.01
531.23	32887.48
531.431	32649.91
531.632	33338.03
531.833	33434.28
532.035	33403.56
532.236	33755.82
532.437	33598.12
532.638	33387.18
532.839	33524.4
533.04	33540.78
533.241	33368.75
533.442	33915.56
533.643	33798.82
533.844	33354.41
534.045	33759.91
534.246	33776.3
534.447	34050.72
534.648	33942.18
534.849	34218.66
535.05	33700.52
535.251	34226.85
535.451	34063.01
535.652	34065.06
535.853	33974.95
536.054	33970.85
536.255	33860.26
536.456	33770.15
536.657	34546.33
536.857	34132.64
537.058	33741.48
537.259	34525.85
537.46	34280.1
537.66	34132.64
537.861	34206.37
538.062	34106.02
538.263	34243.23
538.463	33741.48
538.664	34163.36
538.865	33923.75
539.065	34175.65
539.266	33940.13
539.466	34699.93
539.667	33729.19
539.868	34650.78
540.068	34118.31
540.269	34097.83
540.469	34196.13
540.67	34108.07
540.87	33622.7
541.071	33716.9
541.271	34329.25
541.472	34386.59
541.672	33970.85
541.873	33901.22
542.073	33667.75
542.274	34534.04
542.474	33847.97
542.675	33755.82
542.875	34534.04
543.075	33952.42
543.276	33487.53
543.476	34216.61
543.676	34024.1
543.877	34101.92
544.077	34253.47
544.277	33829.54
544.478	34314.91
544.678	34323.1
544.878	34093.73
545.078	33850.02
545.279	33667.75
545.479	33850.02
545.679	34001.57
545.879	34013.86
546.079	34155.17
546.28	33811.11
546.48	33727.14
546.68	33931.94
546.88	34271.9
547.08	33993.38
547.28	33751.72
547.48	33632.94
547.68	33989.28
547.88	33815.21
548.081	33923.75
548.281	33706.66
548.481	33843.88
548.681	33798.82
548.881	33753.77
549.081	34069.15
549.28	33651.37
549.48	34130.59
549.68	34046.63
549.88	34452.12
550.08	33759.91
550.28	33729.19
550.48	33634.99
550.68	34032.29
550.88	33854.12
551.08	33753.77
551.279	33604.27
551.479	33614.51
551.679	33907.37
551.879	33800.87
552.079	34034.34
552.278	33888.93
552.478	33637.03
552.678	33700.52
552.878	33624.75
553.077	33897.13
553.277	33399.47
553.477	33581.74
553.676	33614.51
553.876	33747.62
554.076	33694.38
554.275	33708.71
554.475	33401.52
554.674	33741.48
554.874	33202.86
555.074	33153.71
555.273	33698.47
555.473	33407.66
555.672	33249.97
555.872	33100.47
556.071	33163.95
556.271	33731.24
556.47	33073.84
556.67	32955.06
556.869	33249.97
557.068	33166
557.268	32701.11
557.467	32983.73
557.667	32850.61
557.866	32586.43
558.065	32750.26
558.265	32688.82
558.464	32737.98
558.663	32930.48
558.863	32594.62
559.062	33065.65
559.261	32598.71
559.461	32604.86
559.66	32047.81
559.859	32381.63
560.058	32101.06
560.258	32299.71
560.457	32101.06
560.656	32402.11
560.855	31906.5
561.054	32273.09
561.253	31673.03
561.453	31808.2
561.652	31875.78
561.851	31757
562.05	31484.62
562.249	31683.27
562.448	31519.43
562.647	31564.49
562.846	31386.32
563.045	31673.03
563.244	30991.06
563.443	31136.46
563.642	30884.56
563.841	31326.92
564.04	31056.59
564.239	30751.45
564.438	30814.93
564.637	30620.38
564.836	30708.44
565.035	30307.04
565.234	30225.12
565.432	30100.19
565.631	30302.94
565.83	30116.58
566.029	30073.57
566.228	29819.62
566.427	29846.24
566.625	29657.83
566.824	29424.36
567.023	29840.1
567.222	29561.58
567.42	29702.89
567.619	29557.48
567.818	29356.78
568.016	29072.11
568.215	29489.9
568.414	29258.48
568.612	29219.56
568.811	28881.65
569.01	28748.53
569.208	28547.83
569.407	28705.52
569.605	28035.84
569.804	28723.96
570.002	28211.96
570.201	28099.33
570.4	28074.75
570.598	27624.2
570.797	27933.44
570.995	27689.73
571.193	27218.7
571.392	27659.01
571.59	27392.78
571.789	27429.64
571.987	27505.41
572.186	27595.53
572.384	27095.82
572.582	27032.33
572.781	27038.48
572.979	26512.15
573.177	26661.65
573.376	26700.56
573.574	26250.01
573.772	26608.4
573.971	26176.28
574.169	26225.43
574.367	25905.95
574.565	26417.94
574.763	26219.29
574.962	26088.22
575.16	25715.49
575.358	25903.9
575.556	25445.16
575.754	25662.24
575.952	25236.27
576.151	25676.58
576.349	25250.6
576.547	25187.11
576.745	25105.2
576.943	25142.06
577.141	24994.61
577.339	25019.18
577.537	24888.11
577.735	25031.47
577.933	24587.06
578.131	24720.18
578.329	24421.17
578.527	24187.71
578.725	24435.51
578.923	24447.8
579.121	24529.72
579.319	23923.52
579.516	24425.27
579.714	24130.36
579.912	23884.61
580.11	23829.31
580.308	23935.81
580.506	23731.01
580.704	23128.91
580.901	23716.67
581.099	23921.47
581.297	23210.82
581.495	23370.57
581.692	23386.95
581.89	23255.88
582.088	23262.02
582.285	23003.98
582.483	22952.78
582.681	23040.84
582.878	23149.39
583.076	22700.88
583.274	23008.08
583.471	22297.43
583.669	22760.27
583.866	22510.42
584.064	22635.35
584.262	21951.32
584.459	22233.94
584.657	22117.21
584.854	22092.63
585.052	22039.39
585.249	22098.78
585.447	21928.8
585.644	21752.67
585.841	21754.72
586.039	21949.28
586.236	21607.26
586.434	21472.1
586.631	21271.4
586.828	21791.58
587.026	21637.98
587.223	21343.08
587.42	21037.93
587.618	21285.73
587.815	21230.44
588.012	21314.41
588.21	20906.86
588.407	21115.75
588.604	20847.47
588.801	20509.55
588.999	20413.3
589.196	20808.56
589.393	20493.17
589.59	20433.78
589.787	20353.91
589.984	20329.33
590.182	20116.34
590.379	20439.92
590.576	20022.14
590.773	19950.46
590.97	20226.93
591.167	20026.23
591.364	19848.06
591.561	20085.62
591.758	19956.6
591.955	19868.54
592.152	19993.47
592.349	19469.19
592.546	19682.17
592.743	19477.38
592.94	19481.47
593.137	19194.76
593.334	19477.38
593.531	19084.17
593.727	19223.43
593.924	19237.77
594.121	19237.77
594.318	19016.58
594.515	18905.99
594.712	19143.56
594.908	18951.05
595.105	18740.11
595.302	18635.66
595.499	18598.8
595.696	18670.48
595.892	18680.72
596.089	18611.09
596.286	18410.39
596.482	18559.89
596.679	18160.53
596.876	18377.62
597.072	18074.52
597.269	18387.86
597.466	17929.11
597.662	18082.71
597.859	18129.81
598.055	17755.04
598.252	17916.83
598.448	17910.68
598.645	17824.67
598.841	17554.33
599.038	17683.36
599.234	17666.97
599.431	17533.86
599.627	17466.27
599.824	17396.64
600.02	17449.89
600.217	17312.67
600.413	17333.15
600.609	17517.47
600.806	17050.53
601.002	17060.77
601.198	16782.25
601.395	16944.04
601.591	16774.06
601.787	16851.88
601.984	17023.91
602.18	16796.59
602.376	16470.96
602.572	16815.02
602.769	16763.82
602.965	16356.27
603.161	16550.83
603.357	16466.86
603.553	16559.02
603.75	16622.51
603.946	16200.63
604.142	16411.57
604.338	16192.44
604.534	16378.8
604.73	15864.76
604.926	15961.02
605.122	16151.48
605.318	15750.07
605.514	15639.48
605.71	15586.24
605.906	15614.91
606.102	15897.53
606.298	15842.23
606.494	15870.9
606.69	15635.39
606.886	15793.08
607.082	15346.62
607.278	15485.89
607.474	15547.33
607.67	15471.55
607.866	15029.19
608.062	15383.49
608.257	15367.1
608.453	15145.92
608.649	15332.29
608.845	15229.89
609.041	15041.48
609.236	15313.86
609.432	14808.01
609.628	14963.65
609.824	14955.46
610.019	14767.05
610.215	14617.55
610.411	14924.74
610.606	14887.88
610.802	14928.84
610.998	14728.14
611.193	14873.54
611.389	14588.88
611.584	14506.96
611.78	14300.11
611.976	14453.71
612.171	14445.52
612.367	14779.34
612.562	14298.06
612.758	14099.41
612.953	14279.63
613.149	14306.26
613.344	14343.12
613.539	14250.96
613.735	14138.32
613.93	14267.34
614.126	13937.62
614.321	14347.22
614.517	14091.22
614.712	13941.72
614.907	14156.75
615.103	14048.21
615.298	13915.09
615.493	14087.12
615.688	13808.6
615.884	13933.53
616.079	13427.68
616.274	13839.32
616.47	13689.82
616.665	13820.89
616.86	13751.26
617.055	13638.62
617.25	13716.44
617.445	13820.89
617.641	13413.34
617.836	13415.39
618.031	13380.57
618.226	13603.8
618.421	13245.41
618.616	13425.63
618.811	13175.78
619.006	13407.2
619.201	12841.96
619.396	13196.26
619.591	13077.48
619.786	13069.28
619.981	12878.82
620.176	12911.59
620.371	12766.18
620.566	12882.92
620.761	12737.51
620.956	12790.76
621.151	12782.57
621.346	12485.61
621.541	12346.35
621.735	12757.99
621.93	12016.63
622.125	12356.59
622.32	12377.07
622.515	12131.31
622.709	12043.25
622.904	12049.39
623.099	12104.69
623.294	12200.94
623.488	11793.4
623.683	11852.79
623.878	11744.25
624.072	11613.18
624.267	11510.78
624.462	11533.31
624.656	11437.05
624.851	11555.83
625.046	11281.41
625.24	11414.52
625.435	11232.26
625.629	11437.05
625.824	11168.77
626.018	11019.27
626.213	10951.68
626.407	10918.92
626.602	10863.62
626.796	10728.45
626.991	10822.66
627.185	10556.43
627.38	10769.41
627.574	10556.43
627.768	10603.53
627.963	10386.44
628.157	10439.69
628.352	10447.88
628.546	10114.06
628.74	10435.6
628.935	10152.98
629.129	10193.94
629.323	10044.43
629.517	9802.77
629.712	10066.96
629.906	9890.84
630.1	9829.4
630.294	9884.69
630.489	9806.87
630.683	9894.93
630.877	9634.84
631.071	9597.98
631.265	9849.88
631.459	9630.74
631.653	9649.18
631.848	9471
632.042	9186.33
632.236	9507.87
632.43	9092.13
632.624	9174.05
632.818	9235.49
633.012	9112.61
633.206	9128.99
633.4	9172
633.594	8844.32
633.788	8942.63
633.982	8928.29
634.176	9120.8
634.369	8907.81
634.563	8803.36
634.757	8666.15
634.951	8641.57
635.145	8676.39
635.339	8352.81
635.533	8494.12
635.726	8457.26
635.92	8268.84
636.114	8320.04
636.308	8381.48
636.501	8322.09
636.695	8258.6
636.889	8195.12
637.083	8018.99
637.276	8000.56
637.47	8059.95
637.664	7955.51
637.857	8045.62
638.051	8051.76
638.244	7781.43
638.438	7646.26
638.632	7760.95
638.825	7789.62
639.019	7849.01
639.212	7799.86
639.406	7793.72
639.599	7484.47
639.793	7836.72
639.986	7537.72
640.18	7480.38
640.373	7367.74
640.567	7261.24
640.76	7228.48
640.954	7226.43
641.147	7134.27
641.34	7216.19
641.534	7291.96
641.727	7169.09
641.92	7001.15
642.114	7021.63
642.307	7078.97
642.5	7050.3
642.694	7013.44
642.887	6972.48
643.08	6935.62
643.273	6831.17
643.467	6763.59
643.66	6673.48
643.853	6700.1
644.046	6632.52
644.239	6714.44
644.432	6573.13
644.626	6546.5
644.819	6401.1
645.012	6566.98
645.205	6427.72
645.398	6464.58
645.591	6493.26
645.784	6286.41
645.977	6409.29
646.17	6204.49
646.363	6206.54
646.556	6278.22
646.749	6038.61
646.942	6177.87
647.135	6229.07
647.328	6061.13
647.521	6061.13
647.714	5821.52
647.907	5921.87
648.099	5909.58
648.292	5938.26
648.485	5930.06
648.678	5803.09
648.871	5819.47
649.064	5704.79
649.256	5831.76
649.449	5704.79
649.642	5653.59
649.835	5669.97
650.027	5487.7
650.22	5479.51
650.413	5526.61
650.605	5407.83
650.798	5467.22
650.991	5540.95
651.183	5481.56
651.376	5483.61
651.568	5436.5
651.761	5338.2
651.954	5284.95
652.146	5282.91
652.339	5342.3
652.531	5223.51
652.724	5174.36
652.916	5188.7
653.109	5229.66
653.301	5110.88
653.494	5143.64
653.686	4944.99
653.879	5098.59
654.071	4994.14
654.263	4996.19
654.456	4914.27
654.648	4936.8
654.84	5028.96
655.033	4832.35
655.225	5028.96
655.417	4834.4
655.61	4830.3
655.802	4891.74
655.994	4729.95
656.186	4746.34
656.379	4699.23
656.571	4625.51
656.763	4682.85
656.955	4592.74
657.148	4631.65
657.34	4656.23
657.532	4605.03
657.724	4738.15
657.916	4637.8
658.108	4684.9
658.3	4635.75
658.492	4449.38
658.684	4582.5
658.876	4359.27
659.068	4516.97
659.26	4394.09
659.452	4310.12
659.644	4344.94
659.836	4336.74
660.028	4351.08
660.22	4277.35
660.412	4258.92
660.604	4330.6
660.796	4189.29
660.988	4260.97
661.18	4248.68
661.372	4224.11
661.563	4168.81
661.755	4144.24
661.947	4088.94
662.139	4148.33
662.331	4050.03
662.522	4181.1
662.714	3918.96
662.906	4050.03
663.097	3998.83
663.289	4017.26
663.481	3925.1
663.673	3949.68
663.864	3865.71
664.056	3814.51
664.247	3908.72
664.439	3796.08
664.631	3972.21
664.822	3898.48
665.014	3898.48
665.205	3701.87
665.397	3927.15
665.588	3847.28
665.78	3779.7
665.971	3902.58
666.163	3607.67
666.354	3710.07
666.546	3744.88
666.737	3652.72
666.929	3665.01
667.12	3722.35
667.311	3853.42
667.503	3691.63
667.694	3783.79
667.885	3617.91
668.077	3597.43
668.268	3589.24
668.459	3650.67
668.651	3687.54
668.842	3579
669.033	3546.23
669.224	3613.81
669.416	3654.77
669.607	3507.32
669.798	3519.6
669.989	3591.28
670.18	3476.6
670.371	3519.6
670.563	3609.72
670.754	3591.28
670.945	3470.45
671.136	3433.59
671.327	3429.49
671.518	3542.13
671.709	3574.9
671.9	3615.86
672.091	3441.78
672.282	3433.59
672.473	3468.41
672.664	3431.54
672.855	3523.7
673.046	3476.6
673.237	3454.07
673.428	3497.08
673.619	3497.08
673.809	3406.97
674	3345.53
674.191	3542.13
674.382	3359.86
674.573	3456.12
674.764	3411.06
674.954	3482.74
675.145	3400.82
675.336	3409.01
675.527	3468.41
675.717	3499.13
675.908	3378.3
676.099	3325.05
676.289	3488.89
676.48	3349.62
676.671	3460.21
676.861	3341.43
677.052	3437.69
677.243	3349.62
677.433	3318.9
677.624	3325.05
677.814	3404.92
678.005	3390.58
678.195	3396.73
678.386	3318.9
678.576	3294.33
678.767	3394.68
678.957	3462.26
679.148	3542.13
679.338	3306.62
679.529	3431.54
679.719	3554.42
679.909	3427.45
680.1	3484.79
680.29	3439.73
680.481	3454.07
680.671	3431.54
680.861	3372.15
681.052	3484.79
681.242	3433.59
681.432	3441.78
681.622	3425.4
681.813	3374.2
682.003	3452.02
682.193	3558.52
682.383	3544.18
682.573	3427.45
682.764	3331.19
682.954	3378.3
683.144	3406.97
683.334	3482.74
683.524	3411.06
683.714	3435.64
683.904	3449.97
684.094	3511.41
684.284	3433.59
684.474	3482.74
684.664	3435.64
684.854	3470.45
685.044	3542.13
685.234	3269.75
685.424	3421.3
685.614	3521.65
685.804	3501.17
685.994	3392.63
686.184	3437.69
686.374	3337.34
686.564	3370.1
686.753	3382.39
686.943	3265.66
687.133	3349.62
687.323	3347.58
687.513	3452.02
687.702	3222.65
687.892	3273.85
688.082	3191.93
688.272	3236.99
688.461	3269.75
688.651	3341.43
688.841	3239.03
689.03	3251.32
689.22	3273.85
689.41	3208.31
689.599	3251.32
689.789	3255.42
689.979	3267.7
690.168	3181.69
690.358	3005.56
690.547	3140.73
690.737	3085.44
690.926	3159.16
691.116	3052.67
691.305	3089.53
691.495	3075.2
691.684	3030.14
691.874	2960.51
692.063	3116.16
692.252	2974.85
692.442	2950.27
692.631	2993.28
692.82	2925.69
693.01	2927.74
693.199	2821.25
693.388	2964.61
693.578	2948.22
693.767	2782.34
693.956	2899.07
694.146	2849.92
694.335	2954.37
694.524	2827.39
694.713	2960.51
694.902	2884.73
695.092	2847.87
695.281	3048.57
695.47	2821.25
695.659	2708.61
695.848	2829.44
696.037	2780.29
696.226	2792.58
696.415	2733.18
696.604	2821.25
696.793	2794.62
696.982	2897.02
697.171	2821.25
697.36	2808.96
697.549	2802.82
697.738	2770.05
697.927	2710.66
698.116	2684.03
698.305	2735.23
698.494	2702.47
698.683	2612.35
698.872	2796.67
699.061	2761.86
699.25	2782.34
699.438	2798.72
699.627	2708.61
699.816	2800.77
700.005	2675.84
700.193	2819.2
700.382	2675.84
700.571	2774.14
700.76	2720.9
700.948	2841.73
701.137	2710.66
701.326	2880.64
701.514	2649.22
701.703	2817.15
701.892	2665.6
702.08	2823.3
702.269	2763.9
702.457	2782.34
702.646	2849.92
702.834	2618.5
703.023	2667.65
703.212	2776.19
703.4	2815.1
703.589	2784.38
703.777	2821.25
703.965	2722.95
704.154	2819.2
704.342	2837.63
704.531	2827.39
704.719	2847.87
704.907	2770.05
705.096	2798.72
705.284	2808.96
705.472	2751.62
705.661	2729.09
705.849	2845.82
706.037	2874.49
706.226	2749.57
706.414	2950.27
706.602	2888.83
706.79	2942.08
706.979	2782.34
707.167	2931.84
707.355	2923.65
707.543	2772.1
707.731	2835.58
707.919	2937.98
708.107	2888.83
708.296	2837.63
708.484	2741.38
708.672	2841.73
708.86	2911.36
709.048	2831.49
709.236	2798.72
709.424	2917.5
709.612	2929.79
709.8	2919.55
709.988	2974.85
710.176	3003.52
710.364	2960.51
710.551	2950.27
710.739	2886.78
710.927	3042.43
711.115	2909.31
711.303	3005.56
711.491	2942.08
711.679	2888.83
711.866	2894.97
712.054	2999.42
712.242	2948.22
712.43	3093.63
712.617	2919.55
712.805	3058.81
712.993	2970.75
713.181	2903.17
713.368	2993.28
713.556	3134.59
713.744	3007.61
713.931	3046.52
714.119	2966.65
714.306	3095.68
714.494	2972.8
714.682	2929.79
714.869	3015.8
715.057	3009.66
715.244	2905.21
715.432	3120.25
715.619	3202.17
715.807	3075.2
715.994	3093.63
716.182	3161.21
716.369	3085.44
716.556	3011.71
716.744	3032.19
716.931	3185.79
717.119	3298.42
717.306	3179.64
717.493	3077.24
717.681	3226.75
717.868	3157.11
718.055	3185.79
718.242	3095.68
718.43	3310.71
718.617	3236.99
718.804	3335.29
718.991	3259.51
719.179	3368.06
719.366	3132.54
719.553	3181.69
719.74	3370.1
719.927	3267.7
720.114	3191.93
720.301	3159.16
720.488	3191.93
720.676	3136.63
720.863	3325.05
721.05	3243.13
721.237	3159.16
721.424	3294.33
721.611	3251.32
721.798	3288.18
721.985	3206.27
722.172	3318.9
722.358	3302.52
722.545	3404.92
722.732	3361.91
722.919	3232.89
723.106	3363.96
723.293	3282.04
723.48	3388.53
723.667	3355.77
723.853	3255.42
724.04	3363.96
724.227	3329.14
724.414	3409.01
724.6	3388.53
724.787	3302.52
724.974	3374.2
725.161	3345.53
725.347	3400.82
725.534	3468.41
725.72	3382.39
725.907	3415.16
726.094	3579
726.28	3366.01
726.467	3570.8
726.653	3392.63
726.84	3400.82
727.027	3486.84
727.213	3452.02
727.4	3435.64
727.586	3454.07
727.773	3511.41
727.959	3501.17
728.145	3542.13
728.332	3357.82
728.518	3482.74
728.705	3646.58
728.891	3456.12
729.077	3439.73
729.264	3351.67
729.45	3560.56
729.636	3673.2
729.823	3474.55
730.009	3579
730.195	3605.62
730.382	3558.52
730.568	3566.71
730.754	3624.05
730.94	3624.05
731.126	3544.18
731.313	3574.9
731.499	3595.38
731.685	3601.52
731.871	3568.76
732.057	3658.87
732.243	3669.11
732.429	3619.96
732.615	3658.87
732.801	3720.31
732.987	3591.28
733.173	3576.95
733.359	3636.34
733.545	3535.99
733.731	3652.72
733.917	3562.61
734.103	3705.97
734.289	3730.55
734.475	3540.08
734.661	3703.92
734.847	3656.82
735.033	3640.44
735.219	3646.58
735.404	3699.83
735.59	3695.73
735.776	3665.01
735.962	3650.67
736.148	3681.39
736.333	3662.96
736.519	3591.28
736.705	3751.03
736.89	3673.2
737.076	3595.38
737.262	3703.92
737.447	3728.5
737.633	3734.64
737.819	3687.54
738.004	3656.82
738.19	3714.16
738.375	3669.11
738.561	3626.1
738.747	3681.39
738.932	3542.13
739.118	3595.38
739.303	3636.34
739.489	3566.71
739.674	3677.3
739.859	3691.63
740.045	3642.48
740.23	3644.53
740.416	3482.74
740.601	3574.9
740.786	3660.91
740.972	3648.63
741.157	3529.84
741.342	3464.31
741.528	3624.05
741.713	3425.4
741.898	3447.93
742.084	3605.62
742.269	3576.95
742.454	3617.91
742.639	3521.65
742.824	3501.17
743.01	3499.13
743.195	3611.76
743.38	3439.73
743.565	3415.16
743.75	3542.13
743.935	3339.38
744.12	3529.84
744.305	3359.86
744.49	3323
744.675	3417.21
744.86	3425.4
745.045	3452.02
745.23	3339.38
745.415	3298.42
745.6	3323
745.785	3316.86
745.97	3314.81
746.155	3495.03
746.34	3292.28
746.525	3454.07
746.71	3404.92
746.895	3298.42
747.079	3277.94
747.264	3263.61
747.449	3230.84
747.634	3114.11
747.819	3173.5
748.003	3116.16
748.188	3165.31
748.373	3169.4
748.557	3075.2
748.742	3107.96
748.927	3095.68
749.111	3052.67
749.296	3054.72
749.481	3056.76
749.665	3013.76
749.85	3060.86
750.034	2987.13
750.219	2985.09
750.404	2956.41
750.588	2888.83
750.773	2919.55
750.957	2866.3
751.141	2862.21
751.326	2864.25
751.51	2776.19
751.695	2796.67
751.879	2927.74
752.064	2819.2
752.248	2841.73
752.432	2884.73
752.617	2622.59
752.801	2610.31
752.985	2641.03
753.17	2608.26
753.354	2761.86
753.538	2616.45
753.722	2516.1
753.907	2536.58
754.091	2542.72
754.275	2630.79
754.459	2405.51
754.643	2391.17
754.828	2536.58
755.012	2493.57
755.196	2462.85
755.38	2456.71
755.564	2395.27
755.748	2335.88
755.932	2380.93
756.116	2339.97
756.3	2446.47
756.484	2393.22
756.668	2327.69
756.852	2258.06
757.036	2268.3
757.22	2294.92
757.404	2292.87
757.588	2251.91
757.772	2235.53
757.956	2256.01
758.14	2284.68
758.323	2227.34
758.507	2286.73
758.691	2079.88
758.875	2190.47
759.059	2112.65
759.242	2180.23
759.426	2178.19
759.61	2098.31
759.794	2061.45
759.977	2088.07
760.161	2141.32
760.345	1987.72
760.528	2012.3
760.712	2075.79
760.895	2002.06
761.079	2028.68
761.263	2014.35
761.446	1926.29
761.63	1938.57
761.813	1930.38
761.997	2088.07
762.18	1930.38
762.364	1944.72
762.547	1850.51
762.731	1789.07
762.914	1938.57
763.098	1936.53
763.281	1795.22
763.464	1866.89
763.648	1889.42
763.831	1778.83
764.015	1961.1
764.198	1838.22
764.381	1735.82
764.564	1879.18
764.748	1819.79
764.931	1797.26
765.114	1930.38
765.297	1801.36
765.481	1705.1
765.664	1801.36
765.847	1836.17
766.03	1784.98
766.213	1789.07
766.397	1672.34
766.58	1623.19
766.763	1668.24
766.946	1844.37
767.129	1625.23
767.312	1698.96
767.495	1717.39
767.678	1543.32
767.861	1680.53
768.044	1725.58
768.227	1537.17
768.41	1563.79
768.593	1598.61
768.776	1694.86
768.959	1600.66
769.142	1686.67
769.324	1533.08
769.507	1528.98
769.69	1596.56
769.873	1578.13
770.056	1569.94
770.239	1594.51
770.421	1555.6
770.604	1574.03
770.787	1596.56
770.97	1553.55
771.152	1496.21
771.335	1473.68
771.518	1469.59
771.7	1516.69
771.883	1404.05
772.066	1506.45
772.248	1434.77
772.431	1535.12
772.613	1488.02
772.796	1408.15
772.978	1412.25
773.161	1359
773.343	1399.96
773.526	1250.46
773.708	1346.71
773.891	1305.75
774.073	1287.32
774.256	1320.09
774.438	1277.08
774.621	1258.65
774.803	1285.27
774.985	1348.76
775.168	1213.59
775.35	1246.36
775.532	1248.41
775.715	1338.52
775.897	1260.7
776.079	1266.84
776.261	1322.13
776.444	1139.87
776.626	1133.72
776.808	1229.98
776.99	1172.63
777.173	1217.69
777.355	1170.58
777.537	1191.06
777.719	1205.4
777.901	1135.77
778.083	1062.04
778.265	1129.63
778.447	1225.88
778.629	1215.64
778.811	1080.47
778.993	1141.91
779.175	1174.68
779.357	1170.58
779.539	1078.43
779.721	1129.63
779.903	1166.49
780.085	963.74
780.267	1096.86
780.449	992.41
780.631	1004.7
780.812	1041.56
780.994	949.4
781.176	1029.27
781.358	851.1
781.54	965.79
781.721	928.92
781.903	904.35
782.085	1006.75
782.267	937.12
782.448	865.44
782.63	847.01
782.812	840.86
782.993	1010.84
783.175	912.54
783.357	875.68
783.538	859.29
783.72	859.29
783.901	828.57
784.083	879.77
784.264	722.08
784.446	789.66
784.627	791.71
784.809	904.35
784.99	847.01
785.172	795.81
785.353	863.39
785.535	844.96
785.716	754.85
785.897	783.52
786.079	820.38
786.26	732.32
786.441	763.04
786.623	791.71
786.804	705.7
786.985	674.98
787.167	666.78
787.348	668.83
787.529	703.65
787.71	742.56
787.891	674.98
788.073	670.88
788.254	662.69
788.435	720.03
788.616	662.69
788.797	681.12
788.978	650.4
789.159	621.73
789.34	634.02
789.522	560.29
789.703	593.06
789.884	658.59
790.065	603.3
790.246	631.97
790.427	566.43
790.607	695.46
790.788	599.2
790.969	582.82
791.15	619.68
791.331	593.06
791.512	570.53
791.693	609.44
791.874	572.58
792.054	699.55
792.235	580.77
792.416	548
792.597	461.99
792.778	568.48
792.958	638.11
793.139	642.21
793.32	539.81
793.5	523.43
793.681	525.47
793.862	568.48
794.042	468.13
794.223	461.99
794.404	580.77
794.584	482.47
794.765	464.04
794.945	537.76
795.126	605.35
795.306	498.85
795.487	474.28
795.667	476.32
795.848	572.58
796.028	388.26
796.209	410.79
796.389	517.28
796.57	468.13
796.75	453.8
796.93	531.62
797.111	449.7
797.291	515.23
797.471	439.46
797.652	490.66
797.832	425.12
798.012	492.71
798.192	511.14
798.373	437.41
798.553	435.36
798.733	390.31
798.913	414.88
799.093	392.36
799.274	453.8
799.454	515.23
799.634	416.93
799.814	464.04
799.994	328.87
800.174	455.84
800.354	398.5
800.534	380.07
800.714	447.65
800.894	406.69
801.074	404.64
801.254	369.83
801.434	353.45
801.614	384.16
801.794	363.69
801.974	1084.57
802.154	375.97
802.334	355.49
802.514	363.69
802.693	457.89
802.873	337.06
803.053	394.4
803.233	332.97
803.413	373.92
803.592	279.72
803.772	310.44
803.952	361.64
804.131	298.15
804.311	392.36
804.491	375.97
804.67	437.41
804.85	285.86
805.03	310.44
805.209	326.82
805.389	339.11
805.568	380.07
805.748	292.01
805.928	349.35
806.107	351.4
806.287	373.92
806.466	386.21
806.646	330.92
806.825	343.21
807.004	277.67
807.184	341.16
807.363	332.97
807.543	367.78
807.722	312.49
807.901	335.01
808.081	384.16
808.26	271.53
808.439	349.35
808.619	265.38
808.798	261.29
808.977	246.95
809.156	283.81
809.336	287.91
809.515	273.57
809.694	277.67
809.873	365.73
810.052	404.64
810.231	283.81
810.411	253.09
810.59	380.07
810.769	308.39
810.948	347.3
811.127	212.14
811.306	271.53
811.485	230.57
811.664	314.53
811.843	246.95
812.022	332.97
812.201	283.81
812.38	365.73
812.559	240.81
812.737	296.1
812.916	203.94
813.095	179.37
813.274	279.72
813.453	242.85
813.632	298.15
813.811	335.01
813.989	201.9
814.168	257.19
814.347	193.7
814.526	244.9
814.704	341.16
814.883	201.9
815.062	203.94
815.24	277.67
815.419	224.42
815.598	275.62
815.776	189.61
815.955	199.85
816.133	236.71
816.312	238.76
816.49	222.38
816.669	169.13
816.847	222.38
817.026	244.9
817.204	191.66
817.383	201.9
817.561	195.75
817.74	224.42
817.918	224.42
818.097	263.33
818.275	154.79
818.453	298.15
818.632	199.85
818.81	275.62
818.988	251.05
819.167	228.52
819.345	249
819.523	144.55
819.701	234.66
819.879	271.53
820.058	160.94
820.236	187.56
820.414	171.18
820.592	244.9
820.77	246.95
820.948	173.22
821.127	222.38
821.305	283.81
821.483	214.18
821.661	230.57
821.839	169.13
822.017	179.37
822.195	183.46
822.373	287.91
822.551	142.5
822.729	236.71
822.907	154.79
823.085	187.56
823.262	132.26
823.44	201.9
823.618	169.13
823.796	144.55
823.974	205.99
824.152	136.36
824.329	167.08
824.507	144.55
824.685	171.18
824.863	107.69
825.04	132.26
825.218	132.26
825.396	124.07
825.574	185.51
825.751	158.89
825.929	203.94
826.107	173.22
826.284	234.66
826.462	175.27
826.639	187.56
826.817	154.79
826.994	162.98
827.172	160.94
827.349	240.81
827.527	124.07
827.704	167.08
827.882	156.84
828.059	72.87
828.237	142.5
828.414	195.75
828.591	183.46
828.769	146.6
828.946	195.75
829.124	199.85
829.301	146.6
829.478	128.17
829.655	169.13
829.833	119.98
830.01	113.83
830.187	134.31
830.364	81.07
830.542	224.42
830.719	146.6
830.896	210.09
831.073	152.74
831.25	87.21
831.427	146.6
831.604	56.49
831.782	199.85
831.959	160.94
832.136	142.5
832.313	124.07
832.49	138.41
832.667	148.65
832.844	167.08
833.021	183.46
833.198	44.2
833.374	93.35
833.551	144.55
833.728	60.59
833.905	117.93
834.082	52.39
834.259	226.47
834.436	158.89
834.612	68.78
834.789	99.5
834.966	146.6
835.143	185.51
835.319	113.83
835.496	138.41
835.673	119.98
835.85	156.84
836.026	85.16
836.203	185.51
836.38	91.31
836.556	115.88
836.733	68.78
836.909	150.7
837.086	101.55
837.262	79.02
837.439	99.5
837.616	70.83
837.792	83.11
837.968	83.11
838.145	9.39
838.321	111.78
838.498	19.63
838.674	95.4
838.851	109.74
839.027	46.25
839.203	54.44
839.38	85.16
839.556	85.16
839.732	156.84
839.909	25.77
840.085	144.55
840.261	134.31
840.437	136.36
840.614	64.68
840.79	95.4
840.966	33.96
841.142	113.83
841.318	144.55
841.494	117.93
841.671	68.78
841.847	72.87
842.023	79.02
842.199	152.74
842.375	52.39
842.551	-9.05
842.727	33.96
842.903	150.7
843.079	81.07
843.255	29.87
843.431	132.26
843.607	134.31
843.783	13.48
843.959	79.02
844.134	91.31
844.31	95.4
844.486	15.53
844.662	-2.9
844.838	23.72
845.013	60.59
845.189	144.55
845.365	132.26
845.541	33.96
845.716	117.93
845.892	72.87
846.068	79.02
846.244	19.63
846.419	52.39
846.595	44.2
846.77	119.98
846.946	62.63
847.122	-45.91
847.297	58.54
847.473	115.88
847.648	-4.95
847.824	81.07
847.999	27.82
848.175	91.31
848.35	105.64
848.526	89.26
848.701	66.73
848.876	103.59
849.052	15.53
849.227	134.31
849.403	79.02
849.578	66.73
849.753	93.35
849.929	52.39
850.104	36.01
850.279	56.49
850.454	62.63
850.63	113.83
850.805	13.48
850.98	76.97
851.155	101.55
851.33	115.88
851.505	19.63
851.681	50.35
851.856	50.35
852.031	103.59
852.206	85.16
852.381	-47.96
852.556	93.35
852.731	52.39
852.906	113.83
853.081	191.66
853.256	187.56
853.431	-29.52
853.606	-21.33
853.781	33.96
853.956	-4.95
854.131	132.26
854.305	19.63
854.48	52.39
854.655	40.11
854.83	-25.43
855.005	11.43
855.18	93.35
855.354	17.58
855.529	46.25
855.704	-2.9
855.879	-13.14
856.053	1.19
856.228	29.87
856.403	48.3
856.577	36.01
856.752	17.58
856.926	76.97
857.101	27.82
857.276	36.01
857.45	23.72
857.625	79.02
857.799	33.96
857.974	42.15
858.148	-7
858.323	64.68
858.497	52.39
858.672	48.3
858.846	-0.85
859.02	36.01
859.195	38.06
859.369	62.63
859.543	111.78
859.718	85.16
859.892	54.44
860.066	56.49
860.241	7.34
860.415	66.73
860.589	19.63
860.763	9.39
860.938	25.77
861.112	70.83
861.286	-2.9
861.46	-37.72
861.634	-9.05
861.808	56.49
861.982	23.72
862.157	-35.67
862.331	-78.68
862.505	-35.67
862.679	7.34
862.853	-2.9
863.027	40.11
863.201	93.35
863.375	17.58
863.549	70.83
863.722	40.11
863.896	48.3
864.07	3.24
864.244	62.63
864.418	83.11
864.592	70.83
864.766	-52.05
864.939	109.74
865.113	-9.05
865.287	74.92
865.461	-4.95
865.634	11.43
865.808	50.35
865.982	-27.48
866.156	7.34
866.329	-4.95
866.503	19.63
866.676	85.16
866.85	-19.29
867.024	27.82
867.197	1.19
867.371	-54.1
867.544	5.29
867.718	9.39
867.891	62.63
868.065	-21.33
868.238	46.25
868.412	105.64
868.585	70.83
868.759	-15.19
868.932	-47.96
869.105	-25.43
869.279	13.48
869.452	7.34
869.625	40.11
869.799	107.69
869.972	23.72
870.145	-13.14
870.319	42.15
870.492	21.67
870.665	-43.86
870.838	5.29
871.011	-9.05
871.185	-19.29
871.358	44.2
871.531	58.54
871.704	-43.86
871.877	54.44
872.05	-39.76
872.223	11.43
872.396	-31.57
872.569	83.11
872.742	-27.48
872.915	79.02
873.088	-33.62
873.261	5.29
873.434	50.35
873.607	3.24
873.78	99.5
873.953	-50
874.126	-47.96
874.299	85.16
874.471	3.24
874.644	85.16
874.817	-0.85
874.99	13.48
875.163	-17.24
875.335	-60.24
875.508	44.2
875.681	31.91
875.853	23.72
876.026	85.16
876.199	46.25
876.371	11.43
876.544	-4.95
876.717	93.35
876.889	-31.57
877.062	19.63
877.234	-54.1
877.407	64.68
877.579	1.19
877.752	27.82
877.924	40.11
878.097	50.35
878.269	-13.14
878.442	5.29
878.614	95.4
878.786	23.72
878.959	-33.62
879.131	50.35
879.303	-9.05
879.476	-43.86
879.648	38.06
879.82	58.54
879.993	42.15
880.165	33.96
880.337	-60.24
880.509	19.63
880.681	-64.34
880.854	-7
881.026	-7
881.198	83.11
881.37	56.49
881.542	85.16
881.714	-7
881.886	15.53
882.058	-9.05
882.23	64.68
882.402	42.15
882.574	3.24
882.746	-2.9
882.918	-23.38
883.09	40.11
883.262	15.53
883.434	-39.76
883.606	-15.19
883.778	5.29
883.95	74.92
884.122	-19.29
884.293	97.45
884.465	-35.67
884.637	64.68
884.809	-52.05
884.98	40.11
885.152	11.43
885.324	70.83
885.496	13.48
885.667	-43.86
885.839	56.49
886.011	31.91
886.182	38.06
886.354	-29.52
886.525	36.01
886.697	89.26
886.869	-2.9
887.04	-21.33
887.212	44.2
887.383	-13.14
887.555	-27.48
887.726	58.54
887.897	-56.15
888.069	3.24
888.24	9.39
888.412	15.53
888.583	-7
888.754	-7
888.926	-66.39
889.097	-37.72
889.268	-0.85
889.44	-2.9
889.611	-21.33
889.782	1.19
889.953	3.24
890.125	50.35
890.296	-31.57
890.467	36.01
890.638	-11.09
890.809	11.43
890.98	3.24
891.151	87.21
891.323	54.44
891.494	5.29
891.665	-15.19
891.836	19.63
892.007	-9.05
892.178	29.87
892.349	-9.05
892.52	-4.95
892.691	50.35
892.862	21.67
893.032	-45.91
893.203	-19.29
893.374	1.19
893.545	27.82
893.716	-58.2
893.887	66.73
894.057	13.48
894.228	27.82
894.399	29.87
894.57	29.87
894.74	60.59
894.911	23.72
895.082	79.02
895.253	-37.72
895.423	-54.1
895.594	105.64
895.764	-35.67
895.935	9.39
896.106	-23.38
896.276	9.39
896.447	-47.96
896.617	23.72
896.788	-50
896.958	19.63
897.129	117.93
897.299	-25.43
897.47	33.96
897.64	23.72
897.81	15.53
897.981	72.87
898.151	-33.62
898.322	9.39
898.492	13.48
898.662	-35.67
898.832	-19.29
899.003	-39.76
899.173	23.72
899.343	-0.85
899.513	-27.48
