Data from USB4F104151__23__12-23-33-052.txt Node

Date: Fri Mar 14 12:23:33 EDT 2025
User: louis
Spectrometer: USB4F10415
Trigger mode: 4
Integration Time (sec): 3.500000E-2
Scans to average: 1
Electric dark correction enabled: true
Nonlinearity correction enabled: false
Boxcar width: 0
XAxis mode: Wavelengths
Number of Pixels in Spectrum: 3648
>>>>>Begin Spectral Data<<<<<
178.204	-125.61
178.424	-125.61
178.644	-125.61
178.864	-176.81
179.084	-162.47
179.304	32.08
179.524	-4.78
179.744	-21.16
179.964	21.85
180.184	-15.02
180.404	-33.45
180.624	7.51
180.844	25.94
181.064	-70.31
181.283	19.8
181.503	40.28
181.723	-2.73
181.943	-72.36
182.163	87.38
182.383	-35.5
182.602	21.85
182.822	15.7
183.042	11.61
183.262	5.46
183.482	13.65
183.701	50.52
183.921	93.52
184.141	21.85
184.361	50.52
184.58	25.94
184.8	114
185.02	46.42
185.239	79.19
185.459	-53.93
185.679	9.56
185.898	-58.03
186.118	44.37
186.338	71
186.557	52.56
186.777	-31.4
186.997	-6.83
187.216	58.71
187.436	95.57
187.655	154.96
187.875	58.71
188.095	-0.68
188.314	42.32
188.534	107.86
188.753	46.42
188.973	52.56
189.192	32.08
189.412	60.76
189.631	27.99
189.851	56.66
190.07	122.2
190.29	3.41
190.509	40.28
190.729	38.23
190.948	66.9
191.168	120.15
191.387	-29.35
191.607	-37.55
191.826	-58.03
192.045	15.7
192.265	68.95
192.484	11.61
192.704	-4.78
192.923	-4.78
193.142	130.39
193.362	132.44
193.581	85.33
193.8	58.71
194.02	36.18
194.239	-2.73
194.458	21.85
194.678	46.42
194.897	36.18
195.116	-0.68
195.335	64.85
195.555	36.18
195.774	-0.68
195.993	34.13
196.212	64.85
196.432	-4.78
196.651	-27.31
196.87	25.94
197.089	89.43
197.308	42.32
197.528	30.04
197.747	-41.64
197.966	-17.07
198.185	42.32
198.404	-33.45
198.623	89.43
198.842	91.48
199.062	19.8
199.281	36.18
199.5	5.46
199.719	7.51
199.938	9.56
200.157	68.95
200.376	7.51
200.595	9.56
200.814	7.51
201.033	5.46
201.252	1.37
201.471	-49.83
201.69	7.51
201.909	-8.87
202.128	81.24
202.347	52.56
202.566	25.94
202.785	-62.12
203.004	-43.69
203.223	81.24
203.442	46.42
203.661	-29.35
203.879	3.41
204.098	62.8
204.317	-60.07
204.536	23.89
204.755	19.8
204.974	-25.26
205.193	17.75
205.411	103.76
205.63	44.37
205.849	48.47
206.068	5.46
206.287	-33.45
206.505	44.37
206.724	62.8
206.943	-8.87
207.162	19.8
207.381	19.8
207.599	-10.92
207.818	7.51
208.037	93.52
208.255	52.56
208.474	111.96
208.693	17.75
208.911	9.56
209.13	42.32
209.349	40.28
209.567	-4.78
209.786	109.91
210.005	15.7
210.223	75.09
210.442	-19.11
210.661	40.28
210.879	-49.83
211.098	54.61
211.316	77.14
211.535	64.85
211.753	38.23
211.972	42.32
212.191	50.52
212.409	3.41
212.628	75.09
212.846	-29.35
213.065	93.52
213.283	107.86
213.502	-6.83
213.72	9.56
213.938	38.23
214.157	58.71
214.375	25.94
214.594	34.13
214.812	19.8
215.031	40.28
215.249	42.32
215.467	58.71
215.686	89.43
215.904	54.61
216.122	-10.92
216.341	52.56
216.559	99.67
216.778	64.85
216.996	46.42
217.214	40.28
217.432	-8.87
217.651	36.18
217.869	62.8
218.087	64.85
218.306	50.52
218.524	17.75
218.742	-0.68
218.96	71
219.179	-86.7
219.397	-2.73
219.615	142.68
219.833	25.94
220.051	15.7
220.27	89.43
220.488	85.33
220.706	-8.87
220.924	21.85
221.142	54.61
221.36	50.52
221.578	62.8
221.796	-23.21
222.015	44.37
222.233	-58.03
222.451	81.24
222.669	-12.97
222.887	83.28
223.105	17.75
223.323	48.47
223.541	38.23
223.759	64.85
223.977	-68.27
224.195	85.33
224.413	34.13
224.631	58.71
224.849	42.32
225.067	150.87
225.285	-10.92
225.503	-29.35
225.721	-60.07
225.939	3.41
226.157	56.66
226.375	154.96
226.592	52.56
226.81	50.52
227.028	40.28
227.246	114
227.464	13.65
227.682	23.89
227.9	44.37
228.117	-55.98
228.335	-51.88
228.553	-6.83
228.771	17.75
228.989	79.19
229.206	-27.31
229.424	30.04
229.642	32.08
229.86	-37.55
230.077	40.28
230.295	32.08
230.513	15.7
230.731	91.48
230.948	107.86
231.166	81.24
231.384	23.89
231.601	42.32
231.819	17.75
232.037	3.41
232.254	-53.93
232.472	44.37
232.689	-0.68
232.907	23.89
233.125	52.56
233.342	3.41
233.56	27.99
233.777	46.42
233.995	-8.87
234.213	52.56
234.43	17.75
234.648	-23.21
234.865	-43.69
235.083	130.39
235.3	42.32
235.518	36.18
235.735	68.95
235.953	50.52
236.17	-27.31
236.388	-2.73
236.605	-39.59
236.822	40.28
237.04	30.04
237.257	-8.87
237.475	-8.87
237.692	46.42
237.909	32.08
238.127	64.85
238.344	3.41
238.562	-41.64
238.779	-27.31
238.996	21.85
239.214	-12.97
239.431	68.95
239.648	32.08
239.865	68.95
240.083	87.38
240.3	-10.92
240.517	-4.78
240.735	54.61
240.952	52.56
241.169	56.66
241.386	-35.5
241.603	68.95
241.821	-21.16
242.038	68.95
242.255	79.19
242.472	-41.64
242.689	-10.92
242.907	-17.07
243.124	17.75
243.341	32.08
243.558	-6.83
243.775	-10.92
243.992	13.65
244.209	-8.87
244.426	89.43
244.643	52.56
244.86	-19.11
245.078	95.57
245.295	32.08
245.512	64.85
245.729	11.61
245.946	50.52
246.163	3.41
246.38	50.52
246.597	73.04
246.814	42.32
247.031	77.14
247.248	25.94
247.464	44.37
247.681	23.89
247.898	75.09
248.115	91.48
248.332	7.51
248.549	85.33
248.766	105.81
248.983	71
249.2	9.56
249.417	89.43
249.633	-0.68
249.85	-6.83
250.067	3.41
250.284	-17.07
250.501	27.99
250.717	40.28
250.934	1.37
251.151	99.67
251.368	-39.59
251.585	21.85
251.801	107.86
252.018	-29.35
252.235	85.33
252.451	-33.45
252.668	-17.07
252.885	42.32
253.102	62.8
253.318	-8.87
253.535	-37.55
253.752	-10.92
253.968	36.18
254.185	21.85
254.401	15.7
254.618	21.85
254.835	-43.69
255.051	71
255.268	95.57
255.484	111.96
255.701	21.85
255.917	30.04
256.134	5.46
256.351	109.91
256.567	42.32
256.784	21.85
257	44.37
257.217	114
257.433	-25.26
257.65	32.08
257.866	36.18
258.082	-31.4
258.299	-41.64
258.515	34.13
258.732	54.61
258.948	36.18
259.165	-25.26
259.381	-35.5
259.597	66.9
259.814	40.28
260.03	1.37
260.246	-0.68
260.463	5.46
260.679	27.99
260.895	9.56
261.112	56.66
261.328	60.76
261.544	-58.03
261.761	42.32
261.977	-6.83
262.193	11.61
262.409	54.61
262.626	27.99
262.842	19.8
263.058	-12.97
263.274	19.8
263.49	-25.26
263.707	114
263.923	48.47
264.139	-27.31
264.355	-19.11
264.571	95.57
264.787	81.24
265.004	36.18
265.22	7.51
265.436	40.28
265.652	7.51
265.868	17.75
266.084	9.56
266.3	40.28
266.516	-58.03
266.732	54.61
266.948	15.7
267.164	95.57
267.38	85.33
267.596	-29.35
267.812	99.67
268.028	3.41
268.244	101.72
268.46	44.37
268.676	73.04
268.892	1.37
269.108	-19.11
269.324	5.46
269.54	17.75
269.756	58.71
269.972	-21.16
270.188	-4.78
270.403	30.04
270.619	1.37
270.835	48.47
271.051	36.18
271.267	54.61
271.483	9.56
271.698	40.28
271.914	-23.21
272.13	54.61
272.346	27.99
272.562	58.71
272.777	19.8
272.993	30.04
273.209	5.46
273.425	75.09
273.64	42.32
273.856	107.86
274.072	11.61
274.287	-10.92
274.503	23.89
274.719	68.95
274.934	-27.31
275.15	62.8
275.366	-33.45
275.581	36.18
275.797	75.09
276.012	32.08
276.228	34.13
276.444	25.94
276.659	-15.02
276.875	3.41
277.09	9.56
277.306	19.8
277.521	-25.26
277.737	38.23
277.952	1.37
278.168	9.56
278.383	85.33
278.599	30.04
278.814	23.89
279.03	46.42
279.245	95.57
279.461	3.41
279.676	42.32
279.892	-119.46
280.107	-29.35
280.322	-6.83
280.538	50.52
280.753	21.85
280.969	66.9
281.184	-4.78
281.399	60.76
281.615	13.65
281.83	81.24
282.045	21.85
282.26	27.99
282.476	52.56
282.691	75.09
282.906	38.23
283.122	1.37
283.337	-0.68
283.552	75.09
283.767	27.99
283.983	68.95
284.198	44.37
284.413	50.52
284.628	-35.5
284.843	15.7
285.058	25.94
285.274	34.13
285.489	9.56
285.704	19.8
285.919	-27.31
286.134	-21.16
286.349	81.24
286.564	9.56
286.779	114
286.995	25.94
287.21	-41.64
287.425	17.75
287.64	17.75
287.855	38.23
288.07	-10.92
288.285	64.85
288.5	85.33
288.715	32.08
288.93	-10.92
289.145	-17.07
289.36	40.28
289.575	54.61
289.79	-49.83
290.004	-10.92
290.219	79.19
290.434	-15.02
290.649	7.51
290.864	15.7
291.079	71
291.294	48.47
291.509	30.04
291.724	81.24
291.938	19.8
292.153	79.19
292.368	32.08
292.583	-27.31
292.798	122.2
293.012	56.66
293.227	52.56
293.442	42.32
293.657	87.38
293.871	-15.02
294.086	19.8
294.301	66.9
294.516	148.82
294.73	-6.83
294.945	25.94
295.16	38.23
295.374	34.13
295.589	136.53
295.804	-58.03
296.018	13.65
296.233	21.85
296.447	7.51
296.662	11.61
296.877	62.8
297.091	19.8
297.306	93.52
297.52	58.71
297.735	44.37
297.949	-6.83
298.164	-10.92
298.378	60.76
298.593	75.09
298.807	32.08
299.022	-31.4
299.236	46.42
299.451	-45.74
299.665	-12.97
299.88	91.48
300.094	1.37
300.309	56.66
300.523	21.85
300.737	36.18
300.952	-64.17
301.166	126.29
301.381	42.32
301.595	1.37
301.809	44.37
302.024	48.47
302.238	-31.4
302.452	13.65
302.667	5.46
302.881	71
303.095	71
303.309	87.38
303.524	-10.92
303.738	75.09
303.952	23.89
304.166	11.61
304.381	-4.78
304.595	118.1
304.809	13.65
305.023	44.37
305.237	-53.93
305.452	52.56
305.666	54.61
305.88	19.8
306.094	50.52
306.308	97.62
306.522	38.23
306.736	7.51
306.95	79.19
307.164	73.04
307.379	34.13
307.593	52.56
307.807	48.47
308.021	42.32
308.235	44.37
308.449	23.89
308.663	58.71
308.877	101.72
309.091	48.47
309.305	50.52
309.519	-45.74
309.733	75.09
309.947	-2.73
310.161	42.32
310.374	44.37
310.588	5.46
310.802	7.51
311.016	54.61
311.23	3.41
311.444	46.42
311.658	48.47
311.872	83.28
312.085	79.19
312.299	50.52
312.513	91.48
312.727	71
312.941	54.61
313.154	42.32
313.368	25.94
313.582	36.18
313.796	68.95
314.009	-6.83
314.223	60.76
314.437	81.24
314.651	19.8
314.864	97.62
315.078	-21.16
315.292	21.85
315.505	-33.45
315.719	27.99
315.933	21.85
316.146	1.37
316.36	-0.68
316.573	68.95
316.787	60.76
317.001	93.52
317.214	-96.94
317.428	111.96
317.641	-45.74
317.855	-10.92
318.068	42.32
318.282	-27.31
318.495	95.57
318.709	64.85
318.922	32.08
319.136	40.28
319.349	64.85
319.563	42.32
319.776	-27.31
319.99	-12.97
320.203	64.85
320.417	-4.78
320.63	68.95
320.843	73.04
321.057	17.75
321.27	-6.83
321.483	56.66
321.697	54.61
321.91	-27.31
322.124	-47.79
322.337	11.61
322.55	-31.4
322.763	40.28
322.977	-15.02
323.19	5.46
323.403	7.51
323.617	71
323.83	83.28
324.043	15.7
324.256	-0.68
324.469	27.99
324.683	36.18
324.896	-0.68
325.109	5.46
325.322	34.13
325.535	48.47
325.748	46.42
325.962	71
326.175	23.89
326.388	58.71
326.601	30.04
326.814	36.18
327.027	1.37
327.24	21.85
327.453	11.61
327.666	30.04
327.879	19.8
328.092	93.52
328.305	13.65
328.518	-2.73
328.731	56.66
328.944	60.76
329.157	-19.11
329.37	17.75
329.583	93.52
329.796	77.14
330.009	17.75
330.222	93.52
330.435	105.81
330.648	3.41
330.861	36.18
331.073	75.09
331.286	83.28
331.499	23.89
331.712	-8.87
331.925	27.99
332.138	-33.45
332.35	101.72
332.563	-41.64
332.776	-0.68
332.989	7.51
333.202	36.18
333.414	15.7
333.627	81.24
333.84	-53.93
334.053	-15.02
334.265	3.41
334.478	-74.41
334.691	17.75
334.903	-8.87
335.116	23.89
335.329	27.99
335.541	-2.73
335.754	48.47
335.966	40.28
336.179	-0.68
336.392	89.43
336.604	83.28
336.817	-19.11
337.029	1.37
337.242	-2.73
337.454	46.42
337.667	79.19
337.88	68.95
338.092	1.37
338.305	58.71
338.517	-6.83
338.729	71
338.942	66.9
339.154	-33.45
339.367	-43.69
339.579	36.18
339.792	9.56
340.004	21.85
340.217	34.13
340.429	-29.35
340.641	-37.55
340.854	25.94
341.066	13.65
341.278	73.04
341.491	73.04
341.703	73.04
341.915	5.46
342.128	68.95
342.34	87.38
342.552	-17.07
342.764	11.61
342.977	40.28
343.189	56.66
343.401	73.04
343.613	34.13
343.826	71
344.038	-23.21
344.25	79.19
344.462	-43.69
344.674	68.95
344.886	-86.7
345.099	68.95
345.311	42.32
345.523	13.65
345.735	-37.55
345.947	-4.78
346.159	-25.26
346.371	40.28
346.583	23.89
346.795	87.38
347.007	-58.03
347.219	25.94
347.431	-17.07
347.643	130.39
347.855	44.37
348.067	52.56
348.279	-41.64
348.491	73.04
348.703	42.32
348.915	60.76
349.127	27.99
349.339	23.89
349.551	7.51
349.763	62.8
349.975	30.04
350.187	48.47
350.399	13.65
350.61	1.37
350.822	48.47
351.034	-23.21
351.246	56.66
351.458	-2.73
351.669	42.32
351.881	101.72
352.093	38.23
352.305	71
352.517	73.04
352.728	27.99
352.94	-53.93
353.152	48.47
353.363	9.56
353.575	40.28
353.787	-8.87
353.999	9.56
354.21	66.9
354.422	-78.51
354.633	38.23
354.845	3.41
355.057	15.7
355.268	66.9
355.48	-4.78
355.692	-15.02
355.903	-37.55
356.115	40.28
356.326	3.41
356.538	83.28
356.749	85.33
356.961	73.04
357.172	11.61
357.384	-0.68
357.595	138.58
357.807	116.05
358.018	62.8
358.23	73.04
358.441	58.71
358.653	-2.73
358.864	58.71
359.075	-17.07
359.287	40.28
359.498	120.15
359.709	13.65
359.921	-19.11
360.132	85.33
360.344	15.7
360.555	15.7
360.766	62.8
360.977	38.23
361.189	34.13
361.4	25.94
361.611	32.08
361.823	36.18
362.034	-23.21
362.245	42.32
362.456	30.04
362.667	38.23
362.879	3.41
363.09	44.37
363.301	27.99
363.512	81.24
363.723	-45.74
363.935	-2.73
364.146	87.38
364.357	-15.02
364.568	36.18
364.779	38.23
364.99	126.29
365.201	44.37
365.412	40.28
365.623	-8.87
365.834	50.52
366.045	101.72
366.256	25.94
366.467	40.28
366.678	3.41
366.889	-12.97
367.1	23.89
367.311	64.85
367.522	9.56
367.733	36.18
367.944	21.85
368.155	13.65
368.366	13.65
368.577	87.38
368.788	64.85
368.999	9.56
369.209	19.8
369.42	128.34
369.631	83.28
369.842	167.25
370.053	126.29
370.264	-2.73
370.474	73.04
370.685	27.99
370.896	83.28
371.107	89.43
371.317	64.85
371.528	32.08
371.739	42.32
371.95	30.04
372.16	66.9
372.371	-23.21
372.582	-23.21
372.792	85.33
373.003	-6.83
373.214	54.61
373.424	44.37
373.635	11.61
373.846	36.18
374.056	36.18
374.267	83.28
374.477	40.28
374.688	30.04
374.898	68.95
375.109	13.65
375.319	-4.78
375.53	75.09
375.74	-15.02
375.951	-0.68
376.161	56.66
376.372	40.28
376.582	15.7
376.793	38.23
377.003	-10.92
377.214	32.08
377.424	-2.73
377.635	32.08
377.845	21.85
378.055	44.37
378.266	52.56
378.476	27.99
378.686	66.9
378.897	83.28
379.107	62.8
379.317	89.43
379.528	40.28
379.738	81.24
379.948	-12.97
380.158	73.04
380.369	120.15
380.579	68.95
380.789	-25.26
380.999	25.94
381.21	83.28
381.42	150.87
381.63	-12.97
381.84	83.28
382.05	32.08
382.261	1.37
382.471	-37.55
382.681	1.37
382.891	60.76
383.101	11.61
383.311	15.7
383.521	-33.45
383.731	75.09
383.941	64.85
384.151	75.09
384.361	34.13
384.571	58.71
384.781	126.29
384.991	116.05
385.201	91.48
385.411	97.62
385.621	42.32
385.831	46.42
386.041	87.38
386.251	3.41
386.461	64.85
386.671	64.85
386.881	62.8
387.091	17.75
387.301	21.85
387.511	17.75
387.72	5.46
387.93	46.42
388.14	-2.73
388.35	97.62
388.56	126.29
388.769	75.09
388.979	62.8
389.189	1.37
389.399	50.52
389.609	50.52
389.818	71
390.028	54.61
390.238	75.09
390.447	60.76
390.657	25.94
390.867	40.28
391.076	91.48
391.286	73.04
391.496	9.56
391.705	9.56
391.915	48.47
392.125	142.68
392.334	9.56
392.544	107.86
392.753	60.76
392.963	44.37
393.172	23.89
393.382	48.47
393.591	77.14
393.801	27.99
394.01	58.71
394.22	27.99
394.429	64.85
394.639	111.96
394.848	64.85
395.058	27.99
395.267	27.99
395.477	71
395.686	130.39
395.895	81.24
396.105	122.2
396.314	-15.02
396.524	81.24
396.733	109.91
396.942	15.7
397.152	167.25
397.361	126.29
397.57	71
397.78	-29.35
397.989	89.43
398.198	77.14
398.407	46.42
398.617	50.52
398.826	105.81
399.035	136.53
399.244	32.08
399.453	52.56
399.663	91.48
399.872	128.34
400.081	42.32
400.29	128.34
400.499	58.71
400.708	97.62
400.917	38.23
401.127	-0.68
401.336	81.24
401.545	146.77
401.754	150.87
401.963	93.52
402.172	114
402.381	62.8
402.59	44.37
402.799	89.43
403.008	99.67
403.217	97.62
403.426	138.58
403.635	83.28
403.844	85.33
404.053	68.95
404.262	107.86
404.471	60.76
404.68	71
404.888	171.35
405.097	64.85
405.306	152.92
405.515	93.52
405.724	105.81
405.933	116.05
406.142	279.89
406.35	197.97
406.559	177.49
406.768	177.49
406.977	132.44
407.185	206.16
407.394	183.63
407.603	132.44
407.812	197.97
408.02	214.35
408.229	212.31
408.438	210.26
408.646	132.44
408.855	126.29
409.064	232.79
409.272	154.96
409.481	277.84
409.69	150.87
409.898	105.81
410.107	197.97
410.315	214.35
410.524	197.97
410.733	230.74
410.941	318.8
411.15	247.12
411.358	292.18
411.567	378.19
411.775	298.32
411.984	308.56
412.192	255.31
412.401	290.13
412.609	398.67
412.818	404.82
413.026	382.29
413.234	427.34
413.443	408.91
413.651	404.82
413.86	413.01
414.068	425.29
414.276	480.59
414.485	503.12
414.693	519.5
414.901	556.36
415.11	488.78
415.318	558.41
415.526	646.48
415.734	613.71
415.943	560.46
416.151	646.48
416.359	562.51
416.567	640.33
416.776	589.13
416.984	779.59
417.192	712.01
417.4	726.35
417.608	755.02
417.817	720.2
418.025	843.08
418.233	925
418.441	871.75
418.649	935.24
418.857	998.73
419.065	1072.45
419.273	890.18
419.481	976.2
419.689	1086.79
419.897	1060.17
420.105	1185.09
420.313	1221.95
420.521	1201.48
420.729	1260.87
420.937	1207.62
421.145	1381.7
421.353	1383.74
421.561	1465.66
421.769	1520.96
421.977	1543.49
422.185	1553.73
422.393	1549.63
422.601	1721.66
422.809	1627.45
423.017	1776.95
423.224	1803.58
423.432	1869.11
423.64	1805.63
423.848	2166.07
424.056	1994.04
424.263	2168.12
424.471	2078.01
424.679	2331.95
424.887	2252.08
425.094	2417.97
425.302	2415.92
425.51	2403.63
425.718	2649.39
425.925	2495.79
426.133	2706.73
426.341	2952.49
426.548	2911.53
426.756	2917.67
426.964	2864.43
427.171	3185.96
427.379	3339.55
427.586	3312.93
427.794	3388.71
428.001	3554.59
428.209	3743
428.417	3595.55
428.624	3849.5
428.832	3847.45
429.039	3773.72
429.247	4044.06
429.454	4367.63
429.662	4566.29
429.869	4418.83
430.076	4558.1
430.284	4433.17
430.491	4623.63
430.699	5010.7
430.906	4855.05
431.114	5072.14
431.321	5289.22
431.528	5283.08
431.736	5723.39
431.943	5891.32
432.15	5580.03
432.358	5729.53
432.565	6034.68
432.772	6051.07
432.979	6491.38
433.187	6536.43
433.394	6642.93
433.601	6956.27
433.808	6913.26
434.016	6952.17
434.223	7322.85
434.43	7658.72
434.637	7470.31
434.844	7900.38
435.052	8154.33
435.259	8025.31
435.466	8144.09
435.673	8123.61
435.88	8725.71
436.087	8994
436.294	9170.12
436.501	8828.11
436.708	9051.34
436.915	9303.24
437.122	9866.43
437.329	9751.74
437.537	10179.77
437.743	10319.03
437.95	9989.31
438.157	10706.1
438.364	11037.87
438.571	10884.27
438.778	11015.34
438.985	12321.95
439.192	11594.92
439.399	12106.91
439.606	11877.54
439.813	12536.98
440.02	13247.63
440.227	13042.83
440.433	12606.61
440.64	13227.15
440.847	13128.84
441.054	13751.43
441.261	14320.76
441.467	14224.51
441.674	14529.66
441.881	14910.58
442.088	14908.53
442.294	15096.94
442.501	15150.19
442.708	15381.61
442.914	16057.44
443.121	16804.95
443.328	16583.77
443.534	17632.33
443.741	17079.38
443.948	16987.22
444.154	18148.42
444.361	18121.79
444.568	18367.55
444.774	18248.77
444.981	18181.18
445.187	18973.75
445.394	19878.95
445.6	19303.47
445.807	21478.41
446.013	20526.11
446.22	20907.03
446.426	22023.17
446.633	21797.9
446.839	22713.34
447.046	21853.19
447.252	22885.37
447.459	22952.95
447.665	22649.85
447.871	24191.97
448.078	24734.68
448.284	23837.67
448.491	24132.58
448.697	25093.08
448.903	25994.18
449.11	25664.46
449.316	25420.75
449.522	26020.81
449.728	26540.99
449.935	26936.25
450.141	26807.23
450.347	27386.8
450.553	26575.81
450.76	27128.76
450.966	27990.95
451.172	27593.65
451.378	28052.39
451.584	27847.6
451.791	28095.4
451.997	28498.85
452.203	28517.28
452.409	28781.47
452.615	28638.11
452.821	27610.03
453.027	27493.3
453.233	28504.99
453.44	27687.85
453.646	27919.28
453.852	28165.03
454.058	28335.01
454.264	27214.77
454.47	28144.55
454.676	27077.56
454.882	27890.6
455.088	25697.23
455.294	26164.17
455.5	26647.49
455.705	26907.58
455.911	25895.88
456.117	25334.74
456.323	25029.59
456.529	23673.84
456.735	24609.76
456.941	23858.15
457.147	23456.75
457.352	22903.8
457.558	22631.42
457.764	22852.6
457.97	22127.62
458.176	21824.52
458.381	21797.9
458.587	20565.02
458.793	20380.7
458.999	19592.23
459.204	20995.09
459.41	20311.07
459.616	18641.98
459.821	18994.23
460.027	18934.84
460.233	18474.04
460.438	17654.86
460.644	18082.88
460.85	17224.78
461.055	16634.97
461.261	16831.57
461.466	15565.93
461.672	15164.53
461.878	16049.25
462.083	14947.44
462.289	14478.46
462.494	14699.64
462.7	13792.39
462.905	13524.1
463.111	14181.5
463.316	14255.23
463.522	13902.98
463.727	13896.83
463.932	13757.57
464.138	13642.89
464.343	13614.21
464.549	13167.76
464.754	13839.49
464.959	13491.34
465.165	13558.92
465.37	12952.72
465.575	12721.3
465.781	13018.25
465.986	13229.2
466.191	12706.96
466.397	12561.56
466.602	11744.42
466.807	12086.43
467.012	12375.19
467.218	12264.6
467.423	12172.44
467.628	12162.2
467.833	12608.66
468.038	12072.09
468.244	12076.19
468.449	12356.76
468.654	11787.43
468.859	11824.29
469.064	11635.88
469.269	11396.26
469.474	11375.78
469.679	11623.59
469.885	11453.61
470.09	11338.92
470.295	11334.82
470.5	11127.98
470.705	11314.34
470.91	10884.27
471.115	10702
471.32	11054.25
471.525	10851.5
471.73	10556.6
471.935	10646.71
472.139	10060.99
472.344	10349.75
472.549	10161.34
472.754	10179.77
472.959	9991.36
473.164	9821.38
473.369	9671.87
473.574	9651.39
473.778	9725.12
473.983	9682.11
474.188	9788.61
474.393	9354.44
474.598	9301.19
474.802	9260.23
475.007	9174.22
475.212	9276.62
475.417	8793.3
475.621	8899.79
475.826	8977.61
476.031	8600.79
476.235	8414.42
476.44	8525.01
476.645	8459.48
476.849	8572.11
477.054	8516.82
477.259	8453.33
477.463	8361.17
477.668	8135.9
477.872	8221.91
478.077	7961.82
478.282	7797.98
478.486	7840.99
478.691	7750.88
478.895	7802.08
479.1	7787.74
479.304	7789.79
479.509	7390.44
479.713	7642.34
479.918	7390.44
480.122	7378.15
480.326	7322.85
480.531	7460.07
480.735	7183.59
480.94	7273.7
481.144	7607.52
481.348	7232.74
481.553	7335.14
481.757	6878.44
481.961	7095.53
482.166	7271.65
482.37	7079.15
482.574	7058.67
482.778	7093.48
482.983	7253.22
483.187	7183.59
483.391	7163.11
483.595	7099.63
483.8	7050.47
484.004	7079.15
484.208	7259.37
484.412	7247.08
484.616	7255.27
484.821	6917.36
485.025	6837.48
485.229	7011.56
485.433	6978.79
485.637	7378.15
485.841	7079.15
486.045	7238.89
486.249	7068.91
486.453	7050.47
486.657	7169.26
486.861	7046.38
487.065	7081.19
487.269	7165.16
487.473	7023.85
487.677	7273.7
487.881	7183.59
488.085	7116.01
488.289	7253.22
488.493	7058.67
488.697	7144.68
488.901	7388.39
489.105	7322.85
489.309	7181.54
489.512	7216.36
489.716	7079.15
489.92	7275.75
490.124	7173.35
490.328	7314.66
490.531	7300.33
490.735	7290.09
490.939	7353.57
491.143	7271.65
491.346	7404.77
491.55	7472.36
491.754	7455.97
491.958	7535.84
492.161	7541.99
492.365	7322.85
492.569	7617.76
492.772	7501.03
492.976	7593.19
493.18	7501.03
493.383	7625.95
493.587	7580.9
493.79	7933.15
493.994	7703.78
494.197	7916.76
494.401	7836.89
494.605	7806.17
494.808	7986.4
495.012	8189.14
495.215	8088.79
495.419	8359.13
495.622	8322.26
495.825	8234.2
496.029	8285.4
496.232	8467.67
496.436	8559.83
496.639	8539.35
496.843	8637.65
497.046	8781.01
497.249	8852.69
497.453	9018.57
497.656	8897.74
497.859	9102.54
498.063	9084.11
498.266	9389.25
498.469	9430.21
498.673	9325.77
498.876	9493.7
499.079	9653.44
499.282	9755.84
499.485	10022.08
499.689	9956.54
499.892	10206.39
500.095	10077.37
500.298	10362.04
500.501	10196.15
500.705	10499.25
500.908	10652.85
501.111	10636.47
501.314	10878.13
501.517	10902.7
501.72	11191.47
501.923	11019.44
502.126	11529.38
502.329	11500.71
502.532	11615.4
502.735	11926.69
502.938	11869.34
503.141	12203.16
503.344	12258.46
503.547	12422.3
503.75	12410.01
503.953	12461.21
504.156	12606.61
504.359	12719.25
504.562	13018.25
504.765	13108.37
504.968	13378.7
505.17	13368.46
505.373	13270.15
505.576	13868.16
505.779	13999.23
505.982	13876.35
506.185	14169.21
506.387	14206.08
506.59	14374.01
506.793	14775.41
506.996	14531.7
507.198	15246.44
507.401	14951.54
507.604	15428.71
507.807	15508.58
508.009	15748.2
508.212	15987.81
508.415	15993.95
508.617	16104.54
508.82	16235.61
509.022	16266.33
509.225	16604.25
509.428	16923.73
509.63	16931.92
509.833	16993.36
510.035	17308.75
510.238	17407.05
510.44	17607.75
510.643	18037.83
510.845	18150.46
511.048	18089.03
511.25	18467.9
511.453	18547.77
511.655	19151.92
511.858	19039.28
512.06	19018.8
512.262	19395.63
512.465	19315.76
512.667	20155.43
512.87	20024.36
513.072	20565.02
513.274	20671.51
513.477	20417.57
513.679	20958.23
513.881	20960.28
514.084	21570.57
514.286	21341.2
514.488	21541.9
514.69	22084.61
514.893	22268.93
515.095	22434.81
515.297	22782.97
515.499	22893.56
515.701	22975.48
515.904	23358.45
516.106	23608.3
516.308	23991.27
516.51	23987.18
516.712	24089.57
516.914	24558.56
517.116	24906.71
517.318	24798.17
517.52	25273.3
517.722	25095.13
517.925	25676.75
518.127	26063.82
518.329	26311.62
518.531	26434.5
518.733	26395.59
518.935	27061.18
519.136	26883
519.338	27554.74
519.54	27687.85
519.742	28353.44
519.944	27896.75
520.146	28326.82
520.348	28537.76
520.55	28713.89
520.752	29029.27
520.954	29598.61
521.155	29348.76
521.357	30268.3
521.559	30387.08
521.761	30681.99
521.963	30532.48
522.164	30780.29
522.366	30696.32
522.568	31468.41
522.77	31488.88
522.971	31818.61
523.173	32041.84
523.375	31957.87
523.576	32121.71
523.778	32539.49
523.98	33141.6
524.181	33071.96
524.383	33112.92
524.584	33592.15
524.786	33602.39
524.988	33790.8
525.189	34022.22
525.391	34517.83
525.592	34454.34
525.794	34458.44
525.995	34392.9
526.197	34685.76
526.398	34743.11
526.6	35509.05
526.801	35326.78
527.003	35560.25
527.204	35607.35
527.406	36170.54
527.607	36453.16
527.808	36277.04
528.01	35828.53
528.211	36455.21
528.412	36813.6
528.614	36666.15
528.815	36801.32
529.016	37016.35
529.218	36676.39
529.419	37042.98
529.62	37014.3
529.822	37563.16
530.023	37296.92
530.224	37403.42
530.425	37301.02
530.626	37651.22
530.828	37966.61
531.029	38161.17
531.23	37661.46
531.431	37882.64
531.632	38165.26
531.833	38365.96
532.035	38222.61
532.236	38378.25
532.437	38820.61
532.638	37907.22
532.839	38540.04
533.04	38564.62
533.241	38275.85
533.442	38939.4
533.643	38918.92
533.844	38517.51
534.045	38714.12
534.246	38376.2
534.447	38685.45
534.648	38664.97
534.849	39152.38
535.05	38619.91
535.251	38843.14
535.451	38681.35
535.652	38988.55
535.853	39136
536.054	38867.72
536.255	39074.56
536.456	38351.63
536.657	39389.95
536.857	39226.11
537.058	38707.97
537.259	39568.12
537.46	38814.47
537.66	39078.66
537.861	39359.23
538.062	38933.25
538.263	39070.47
538.463	38873.86
538.664	39228.16
538.865	38992.64
539.065	39588.6
539.266	38767.37
539.466	39240.45
539.667	38671.11
539.868	39400.19
540.068	38818.57
540.269	38914.82
540.469	39543.55
540.67	38806.28
540.87	38884.1
541.071	39252.73
541.271	39701.24
541.472	38826.76
541.672	38755.08
541.873	38968.07
542.073	38056.72
542.274	39445.24
542.474	38980.35
542.675	38617.86
542.875	39631.61
543.075	38972.16
543.276	38716.17
543.476	39189.25
543.676	38906.63
543.877	39103.23
544.077	38875.91
544.277	38918.92
544.478	39092.99
544.678	39232.25
544.878	39064.32
545.078	38941.44
545.279	38535.95
545.479	38861.57
545.679	39092.99
545.879	39039.75
546.079	38701.83
546.28	39043.84
546.48	38648.58
546.68	38918.92
546.88	38767.37
547.08	39090.94
547.28	39142.14
547.48	38552.33
547.68	38871.81
547.88	38517.51
548.081	39174.91
548.281	38562.57
548.481	38845.19
548.681	39236.35
548.881	38648.58
549.081	38996.74
549.28	38701.83
549.48	38888.2
549.68	38750.98
549.88	39324.41
550.08	38882.05
550.28	38714.12
550.48	38976.26
550.68	38947.59
550.88	38804.23
551.08	38740.74
551.279	38914.82
551.479	38368.01
551.679	38636.3
551.879	38875.91
552.079	38918.92
552.278	38292.24
552.478	38611.72
552.678	38707.97
552.878	39203.58
553.077	38437.64
553.277	38325
553.477	39226.11
553.676	38431.5
553.876	38419.21
554.076	38251.28
554.275	38513.42
554.475	38005.52
554.674	38318.86
554.874	38482.7
555.074	38177.55
555.273	38394.64
555.473	38413.07
555.672	37956.37
555.872	38386.44
556.071	38509.32
556.271	38202.13
556.47	37907.22
556.67	37643.03
556.869	37821.2
557.068	37841.68
557.268	37239.58
557.467	37886.74
557.667	37698.33
557.866	37583.64
558.065	37733.14
558.265	37276.44
558.464	37550.87
558.663	37837.59
558.863	37055.26
559.062	37677.85
559.261	37389.08
559.461	37632.79
559.66	36858.66
559.859	37038.88
560.058	37147.42
560.258	37038.88
560.457	36430.63
560.656	37104.42
560.855	36561.7
561.054	36836.13
561.253	36342.57
561.453	37026.59
561.652	36567.85
561.851	36782.88
562.05	36303.66
562.249	35996.46
562.448	36283.18
562.647	36334.38
562.846	36252.46
563.045	36068.14
563.244	35580.73
563.443	36059.95
563.642	35394.36
563.841	35412.79
564.04	35140.41
564.239	35410.75
564.438	35306.3
564.637	35371.83
564.836	35300.15
565.035	34982.72
565.234	35066.69
565.432	34829.12
565.631	34814.79
565.83	34984.77
566.029	34800.45
566.228	34544.45
566.427	34878.27
566.625	34151.24
566.824	33850.19
567.023	34345.8
567.222	34042.7
567.42	33913.68
567.619	34040.65
567.818	33819.47
568.016	33565.53
568.215	33880.91
568.414	33514.33
568.612	33758.03
568.811	33227.61
569.01	33514.33
569.208	32936.8
569.407	33149.79
569.605	32592.74
569.804	32641.89
570.002	32476.01
570.201	32740.19
570.4	32146.28
570.598	32252.78
570.797	32172.91
570.995	32267.11
571.193	31734.64
571.392	31873.9
571.59	31652.72
571.789	31734.64
571.987	31814.51
572.186	31796.08
572.384	31425.4
572.582	31654.77
572.781	31525.75
572.979	30897.02
573.177	31470.45
573.376	31060.86
573.574	30446.47
573.772	31193.98
573.971	30497.67
574.169	30428.04
574.367	30456.71
574.565	30610.31
574.763	30180.23
574.962	30405.51
575.16	30034.83
575.358	30129.03
575.556	29432.72
575.754	30081.93
575.952	30098.31
576.151	30045.07
576.349	29414.29
576.547	29131.67
576.745	29176.73
576.943	29531.03
577.141	29420.44
577.339	29150.1
577.537	29180.82
577.735	29062.04
577.933	28652.45
578.131	28910.49
578.329	28363.68
578.527	28494.75
578.725	28289.96
578.923	28629.92
579.121	28304.29
579.319	28214.18
579.516	28249
579.714	28081.06
579.912	28173.22
580.11	27868.08
580.308	27823.02
580.506	27710.38
580.704	27364.28
580.901	27646.9
581.099	27720.62
581.297	27374.52
581.495	27401.14
581.692	27495.35
581.89	27018.17
582.088	27415.47
582.285	27003.83
582.483	26817.47
582.681	26760.12
582.878	26952.63
583.076	26500.03
583.274	26739.65
583.471	26567.62
583.669	26690.49
583.866	26162.12
584.064	26293.19
584.262	26082.25
584.459	26198.98
584.657	25959.37
584.854	26334.15
585.052	25453.52
585.249	26241.99
585.447	25873.35
585.644	25578.45
585.841	26033.1
586.039	25730
586.236	25615.31
586.434	25209.81
586.631	25269.2
586.828	25265.11
587.026	25152.47
587.223	25062.36
587.42	24888.28
587.618	25091.03
587.815	24624.09
588.012	24706.01
588.21	24599.52
588.407	25062.36
588.604	24501.22
588.801	24468.45
588.999	24509.41
589.196	24376.29
589.393	24376.29
589.59	23962.6
589.787	24198.12
589.984	24116.2
590.182	23831.53
590.379	24226.79
590.576	23878.63
590.773	23765.99
590.97	23862.25
591.167	23784.43
591.364	23438.32
591.561	23587.82
591.758	23030.77
591.955	23280.63
592.152	23491.57
592.349	23096.31
592.546	23340.02
592.743	23069.69
592.94	22840.31
593.137	22823.93
593.334	22703.1
593.531	22477.82
593.727	22551.55
593.924	22639.61
594.121	22649.85
594.318	22537.21
594.515	22242.31
594.712	22387.71
594.908	22164.48
595.105	22471.68
595.302	22307.84
595.499	21980.17
595.696	22209.54
595.892	21787.66
596.089	22252.55
596.286	22211.59
596.482	21494.8
596.679	21814.28
596.876	21789.7
597.072	21337.1
597.269	21257.23
597.466	21294.1
597.662	21384.21
597.859	21089.3
598.055	21353.49
598.252	21185.55
598.448	21115.92
598.645	20902.93
598.841	20849.69
599.038	20991
599.234	20911.13
599.431	20644.89
599.627	20679.71
599.824	20886.55
600.02	20399.13
600.217	20507.68
600.413	20118.56
600.609	20200.48
600.806	20237.34
601.002	20669.47
601.198	20296.74
601.395	19766.31
601.591	20198.43
601.787	20012.07
601.984	19921.96
602.18	20202.53
602.376	19792.94
602.572	19610.67
602.769	19756.07
602.965	19512.36
603.161	19772.46
603.357	19579.95
603.553	19332.14
603.75	19315.76
603.946	19008.56
604.142	19311.66
604.338	19295.28
604.534	19156.02
604.73	18857.01
604.926	19037.23
605.122	19053.62
605.318	18574.39
605.514	19067.95
605.71	18791.48
605.906	18969.65
606.102	18560.06
606.298	18603.07
606.494	18512.95
606.69	18527.29
606.886	18379.84
607.082	18154.56
607.278	18498.62
607.474	18256.96
607.67	18349.12
607.866	18056.26
608.062	18216
608.257	18119.74
608.453	17912.9
608.649	17945.67
608.845	17820.74
609.041	18033.73
609.236	18005.06
609.432	17853.51
609.628	17597.51
609.824	17751.11
610.019	17693.77
610.215	17572.94
610.411	17761.35
610.606	17556.55
610.802	17601.61
610.998	17554.51
611.193	17413.2
611.389	17228.88
611.584	17259.6
611.78	17097.81
611.976	17239.12
612.171	17161.3
612.367	17179.73
612.562	17028.18
612.758	16886.87
612.953	16909.4
613.149	17165.39
613.344	16940.11
613.539	16817.24
613.735	16913.49
613.93	16823.38
614.126	16649.3
614.321	16993.36
614.517	16866.39
614.712	16622.68
614.907	16573.53
615.103	16507.99
615.298	16604.25
615.493	16688.21
615.688	16649.3
615.884	16663.64
616.079	16282.72
616.274	16514.14
616.47	16157.79
616.665	16479.32
616.86	16102.5
617.055	16321.63
617.25	16215.13
617.445	16481.37
617.641	16073.82
617.836	16196.7
618.031	15748.2
618.226	16145.5
618.421	15758.44
618.616	16018.53
618.811	15484.01
619.006	15879.27
619.201	15641.7
619.396	15682.66
619.591	15617.13
619.786	15539.3
619.981	15168.62
620.176	15471.72
620.371	15379.56
620.566	15320.17
620.761	15354.99
620.956	15223.92
621.151	14873.71
621.346	15189.1
621.541	15105.13
621.735	14847.09
621.93	14425.21
622.125	14666.87
622.32	14673.01
622.515	14664.82
622.709	14351.48
622.904	14439.54
623.099	14146.69
623.294	14548.09
623.488	13984.9
623.683	14263.42
623.878	13999.23
624.072	14142.59
624.267	13954.18
624.462	13851.78
624.656	13708.42
624.851	13933.7
625.046	13710.47
625.24	13472.9
625.435	13204.62
625.629	13393.03
625.824	13188.24
626.018	13169.8
626.213	12975.25
626.407	12858.51
626.602	12971.15
626.796	12936.34
626.991	12938.38
627.185	12809.36
627.38	12899.47
627.574	12571.8
627.768	12483.73
627.963	12354.71
628.157	12323.99
628.352	12414.1
628.546	12266.65
628.74	12479.64
628.935	12170.4
629.129	12272.79
629.323	12164.25
629.517	11848.86
629.712	11863.2
629.906	11787.43
630.1	11926.69
630.294	11775.14
630.489	11748.51
630.683	11832.48
630.877	11543.72
631.071	11463.85
631.265	11687.07
631.459	11218.09
631.653	11461.8
631.848	11334.82
632.042	11306.15
632.236	11308.2
632.43	11041.96
632.624	11113.64
632.818	11078.83
633.012	10689.71
633.206	10722.48
633.4	10783.92
633.594	10611.89
633.788	10792.11
633.982	10683.57
634.176	10626.23
634.369	10433.72
634.563	10478.77
634.757	10216.63
634.951	10392.76
635.145	10396.85
635.339	10294.46
635.533	10147
635.726	10374.33
635.92	9913.53
636.114	9997.5
636.308	9854.14
636.501	9942.21
636.695	10003.64
636.889	10013.88
637.083	9493.7
637.276	9712.83
637.47	9700.55
637.664	9508.04
637.857	9469.12
638.051	9393.35
638.244	9446.6
638.438	9542.85
638.632	9557.19
638.825	9125.07
639.019	9374.92
639.212	9123.02
639.406	9264.33
639.599	9108.68
639.793	9139.4
639.986	9125.07
640.18	8721.62
640.373	8832.21
640.567	8787.15
640.76	8584.4
640.954	8742.1
641.147	8637.65
641.34	8606.93
641.534	8520.92
641.727	8662.23
641.92	8600.79
642.114	8406.23
642.307	8447.19
642.5	8445.14
642.694	8422.61
642.887	8303.83
643.08	8381.65
643.273	8037.59
643.467	8191.19
643.66	8088.79
643.853	8013.02
644.046	7988.44
644.239	7943.39
644.432	7906.52
644.626	7822.56
644.819	7918.81
645.012	7642.34
645.205	7675.1
645.398	7734.5
645.591	7560.42
645.784	7609.57
645.977	7470.31
646.17	7539.94
646.363	7509.22
646.556	7310.57
646.749	7400.68
646.942	7562.47
647.135	7267.56
647.328	7267.56
647.521	7253.22
647.714	7240.93
647.907	7236.84
648.099	7107.82
648.292	7226.6
648.485	7175.4
648.678	7013.61
648.871	6927.6
649.064	6911.21
649.256	6939.88
649.449	6759.66
649.642	6722.8
649.835	6681.84
650.027	6845.68
650.22	6518
650.413	6675.7
650.605	6735.09
650.798	6604.02
650.991	6446.32
651.183	6419.7
651.376	6456.56
651.568	6481.14
651.761	6513.91
651.954	6366.45
652.146	6092.02
652.339	6343.92
652.531	6366.45
652.724	6321.4
652.916	6161.66
653.109	6202.61
653.301	6268.15
653.494	6335.73
653.686	6178.04
653.879	6188.28
654.071	5850.36
654.263	6026.49
654.456	5995.77
654.648	5977.34
654.84	5893.37
655.033	5874.94
655.225	5883.13
655.417	5674.24
655.61	5625.09
655.802	5715.2
655.994	5647.62
656.186	5786.88
656.379	5805.31
656.571	5604.61
656.763	5457.15
656.955	5446.91
657.148	5569.79
657.34	5498.11
657.532	5399.81
657.724	5373.19
657.916	5582.08
658.108	5551.36
658.3	5266.69
658.492	5278.98
658.684	5272.84
658.876	5254.41
659.068	5254.41
659.26	5469.44
659.452	5135.62
659.644	5143.81
659.836	5121.29
660.028	5246.21
660.22	5008.65
660.412	5244.17
660.604	5088.52
660.796	5070.09
660.988	4967.69
661.18	5162.25
661.372	4967.69
661.563	5025.03
661.755	4945.16
661.947	4771.08
662.139	5020.94
662.331	4965.64
662.522	4754.7
662.714	4885.77
662.906	4734.22
663.097	4861.2
663.289	4711.69
663.481	4629.77
663.673	4814.09
663.864	4803.85
664.056	4685.07
664.247	4597.01
664.439	4590.86
664.631	4619.53
664.822	4459.79
665.014	4619.53
665.205	4674.83
665.397	4590.86
665.588	4472.08
665.78	4463.89
665.971	4621.58
666.163	4578.58
666.354	4517.14
666.546	4465.94
666.737	4367.63
666.929	4478.23
667.12	4478.23
667.311	4451.6
667.503	4306.2
667.694	4355.35
667.885	4359.44
668.077	4330.77
668.268	4273.43
668.459	4285.72
668.651	4226.32
668.842	4250.9
669.033	4277.52
669.224	4347.15
669.416	4318.48
669.607	4203.8
669.798	4207.89
669.989	4136.21
670.18	4158.74
670.371	4236.56
670.563	4037.91
670.754	4314.39
670.945	4091.16
671.136	4097.3
671.327	4064.54
671.518	4091.16
671.709	4228.37
671.9	4089.11
672.091	4074.78
672.282	4037.91
672.473	3990.81
672.664	4064.54
672.855	4021.53
673.046	4039.96
673.237	3968.28
673.428	4082.97
673.619	3999
673.809	4087.06
674	3964.18
674.191	3915.03
674.382	3882.27
674.573	3931.42
674.764	3917.08
674.954	3984.66
675.145	4099.35
675.336	3949.85
675.527	3851.55
675.717	4109.59
675.908	3847.45
676.099	3902.75
676.289	4048.15
676.48	3761.44
676.671	3843.35
676.861	4085.02
677.052	3915.03
677.243	3898.65
677.433	3796.25
677.624	3888.41
677.814	3912.99
678.005	4093.21
678.195	3824.92
678.386	3851.55
678.576	3835.16
678.767	3935.51
678.957	3822.88
679.148	3974.42
679.338	3955.99
679.529	3964.18
679.719	3906.84
679.909	3812.64
680.1	3876.12
680.29	3917.08
680.481	3990.81
680.671	4027.67
680.861	3882.27
681.052	3835.16
681.242	3943.71
681.432	3923.23
681.622	3826.97
681.813	3779.87
682.003	3878.17
682.193	3837.21
682.383	4015.38
682.573	3880.22
682.764	3921.18
682.954	3865.88
683.144	3947.8
683.334	3810.59
683.524	3892.51
683.714	3831.07
683.904	3892.51
684.094	3829.02
684.284	3880.22
684.474	3994.9
684.664	3861.79
684.854	3794.2
685.044	3865.88
685.234	3839.26
685.424	3767.58
685.614	3673.37
685.804	3874.07
685.994	3667.23
686.184	3943.71
686.374	3833.11
686.564	3702.04
686.753	3812.64
686.943	3720.48
687.133	3738.91
687.323	3681.57
687.513	3646.75
687.702	3673.37
687.892	3648.8
688.082	3710.24
688.272	3673.37
688.461	3663.13
688.651	3702.04
688.841	3587.36
689.03	3544.35
689.22	3497.25
689.41	3513.63
689.599	3538.21
689.789	3536.16
689.979	3544.35
690.168	3613.98
690.358	3435.81
690.547	3536.16
690.737	3509.54
690.926	3390.75
691.116	3276.07
691.305	3568.93
691.495	3478.82
691.684	3380.51
691.874	3413.28
692.063	3257.64
692.252	3372.32
692.442	3444
692.631	3245.35
692.82	3276.07
693.01	3290.4
693.199	3286.31
693.388	3198.24
693.578	3257.64
693.767	3253.54
693.956	3190.05
694.146	3259.68
694.335	3124.52
694.524	3231.01
694.713	3220.77
694.902	3202.34
695.092	3153.19
695.281	3179.81
695.47	3142.95
695.659	3081.51
695.848	3179.81
696.037	3222.82
696.226	3245.35
696.415	3247.4
696.604	3271.97
696.793	3063.08
696.982	3069.22
697.171	3122.47
697.36	3124.52
697.549	2946.34
697.738	3054.89
697.927	3175.72
698.116	3171.62
698.305	3110.18
698.494	3173.67
698.683	2946.34
698.872	3110.18
699.061	3081.51
699.25	3097.89
699.438	3208.48
699.627	3065.13
699.816	3245.35
700.005	3044.65
700.193	3069.22
700.382	3196.2
700.571	3005.74
700.76	3181.86
700.948	3091.75
701.137	3128.61
701.326	3009.83
701.514	2989.35
701.703	3118.37
701.892	2950.44
702.08	3142.95
702.269	3089.7
702.457	3026.22
702.646	3218.72
702.834	3058.98
703.023	3163.43
703.212	3151.14
703.4	3110.18
703.589	3110.18
703.777	3192.1
703.965	3061.03
704.154	3188
704.342	3032.36
704.531	3056.93
704.719	3126.57
704.907	3104.04
705.096	2946.34
705.284	3159.33
705.472	3181.86
705.661	3233.06
705.849	3267.88
706.037	3196.2
706.226	3044.65
706.414	3101.99
706.602	3067.17
706.79	3169.57
706.979	2999.59
707.167	3179.81
707.355	3128.61
707.543	3067.17
707.731	3011.88
707.919	3138.85
708.107	3130.66
708.296	3028.26
708.484	3157.29
708.672	3325.22
708.86	3179.81
709.048	3173.67
709.236	3097.89
709.424	3226.92
709.612	3288.36
709.8	3124.52
709.988	3257.64
710.176	3222.82
710.364	3226.92
710.551	3226.92
710.739	3196.2
710.927	3228.96
711.115	3171.62
711.303	3214.63
711.491	3192.1
711.679	3192.1
711.866	3071.27
712.054	3163.43
712.242	3286.31
712.43	3292.45
712.617	3255.59
712.805	3239.2
712.993	3265.83
713.181	3257.64
713.368	3190.05
713.556	3329.31
713.744	3118.37
713.931	3298.6
714.119	3241.25
714.306	3267.88
714.494	3325.22
714.682	3263.78
714.869	3284.26
715.057	3284.26
715.244	3327.27
715.432	3378.47
715.619	3446.05
715.807	3444
715.994	3312.93
716.182	3394.85
716.369	3474.72
716.556	3435.81
716.744	3253.54
716.931	3323.17
717.119	3433.76
717.306	3343.65
717.493	3392.8
717.681	3364.13
717.868	3333.41
718.055	3444
718.242	3417.38
718.43	3380.51
718.617	3415.33
718.804	3413.28
718.991	3444
719.179	3468.58
719.366	3423.52
719.553	3509.54
719.74	3366.18
719.927	3425.57
720.114	3460.38
720.301	3407.14
720.488	3538.21
720.676	3351.84
720.863	3415.33
721.05	3552.54
721.237	3454.24
721.424	3507.49
721.611	3523.87
721.798	3560.74
721.985	3579.17
722.172	3433.76
722.358	3607.84
722.545	3476.77
722.732	3544.35
722.919	3575.07
723.106	3579.17
723.293	3519.78
723.48	3411.23
723.667	3667.23
723.853	3624.22
724.04	3585.31
724.227	3497.25
724.414	3681.57
724.6	3482.91
724.787	3681.57
724.974	3697.95
725.161	3611.93
725.347	3542.3
725.534	3722.52
725.72	3669.28
725.907	3697.95
726.094	3605.79
726.28	3679.52
726.467	3554.59
726.653	3665.18
726.84	3753.24
727.027	3665.18
727.213	3609.89
727.4	3745.05
727.586	3620.13
727.773	3693.85
727.959	3796.25
728.145	3718.43
728.332	3734.81
728.518	3679.52
728.705	3763.48
728.891	3777.82
729.077	3642.65
729.264	3667.23
729.45	3638.56
729.636	3824.92
729.823	3769.63
730.009	3689.76
730.195	3755.29
730.382	3722.52
730.568	3730.72
730.754	3708.19
730.94	3724.57
731.126	3874.07
731.313	3720.48
731.499	3863.83
731.685	3796.25
731.871	3796.25
732.057	3769.63
732.243	3783.96
732.429	3671.33
732.615	3790.11
732.801	3835.16
732.987	3783.96
733.173	3958.04
733.359	3999
733.545	3765.53
733.731	3740.96
733.917	3769.63
734.103	3722.52
734.289	3910.94
734.475	3783.96
734.661	3931.42
734.847	3925.27
735.033	3814.68
735.219	3982.62
735.404	3747.1
735.59	3900.7
735.776	3763.48
735.962	3874.07
736.148	3833.11
736.333	3955.99
736.519	3818.78
736.705	3855.64
736.89	3861.79
737.076	3806.49
737.262	3912.99
737.447	3761.44
737.633	3996.95
737.819	3863.83
738.004	3812.64
738.19	3814.68
738.375	3638.56
738.561	3826.97
738.747	3761.44
738.932	3839.26
739.118	3896.6
739.303	3923.23
739.489	3994.9
739.674	3759.39
739.859	3777.82
740.045	3697.95
740.23	3747.1
740.416	3726.62
740.601	3763.48
740.786	3677.47
740.972	3738.91
741.157	3751.2
741.342	3728.67
741.528	3554.59
741.713	3671.33
741.898	3790.11
742.084	3685.66
742.269	3562.78
742.454	3749.15
742.639	3771.68
742.824	3605.79
743.01	3607.84
743.195	3769.63
743.38	3695.9
743.565	3613.98
743.75	3683.61
743.935	3556.64
744.12	3755.29
744.305	3597.6
744.49	3493.15
744.675	3396.9
744.86	3425.57
745.045	3581.21
745.23	3497.25
745.415	3513.63
745.6	3550.5
745.785	3478.82
745.97	3214.63
746.155	3427.62
746.34	3357.99
746.525	3448.1
746.71	3493.15
746.895	3339.55
747.079	3317.03
747.264	3231.01
747.449	3347.75
747.634	3319.07
747.819	3366.18
748.003	3200.29
748.188	3302.69
748.373	3161.38
748.557	3253.54
748.742	3214.63
748.927	3134.76
749.111	3142.95
749.296	3142.95
749.481	3261.73
749.665	3024.17
749.85	2960.68
750.034	3099.94
750.219	3104.04
750.404	2929.96
750.588	3011.88
750.773	3003.69
750.957	3075.37
751.141	2991.4
751.326	2925.86
751.51	2858.28
751.695	2827.56
751.879	2792.75
752.064	2848.04
752.248	2966.82
752.432	2825.51
752.617	2774.32
752.801	2735.4
752.985	2704.68
753.17	2678.06
753.354	2805.03
753.538	2630.96
753.722	2581.81
753.907	2635.05
754.091	2686.25
754.275	2694.44
754.459	2555.18
754.643	2534.7
754.828	2618.67
755.012	2530.61
755.196	2594.09
755.38	2583.85
755.564	2454.83
755.748	2473.26
755.932	2407.73
756.116	2405.68
756.3	2403.63
756.484	2432.3
756.668	2467.12
756.852	2348.34
757.036	2327.86
757.22	2377.01
757.404	2374.96
757.588	2321.71
757.772	2389.3
757.956	2352.43
758.14	2387.25
758.323	2239.8
758.507	2223.41
758.691	2233.65
758.875	2284.85
759.059	2239.8
759.242	2217.27
759.426	2141.49
759.61	2123.06
759.794	2166.07
759.977	2211.12
760.161	2211.12
760.345	2227.51
760.528	2118.97
760.712	2059.57
760.895	2096.44
761.079	2047.29
761.263	2014.52
761.446	1862.97
761.63	1918.26
761.813	1910.07
761.997	2014.52
762.18	1887.54
762.364	2014.52
762.547	1844.54
762.731	1871.16
762.914	1942.84
763.098	1901.88
763.281	1856.83
763.464	1834.3
763.648	1944.89
763.831	1836.35
764.015	1959.22
764.198	1930.55
764.381	1942.84
764.564	1854.78
764.748	1803.58
764.931	1918.26
765.114	1764.67
765.297	1774.91
765.481	1752.38
765.664	1832.25
765.847	1774.91
766.03	1713.47
766.213	1758.52
766.397	1862.97
766.58	1719.61
766.763	1717.56
766.946	1756.47
767.129	1727.8
767.312	1799.48
767.495	1809.72
767.678	1723.71
767.861	1754.43
768.044	1529.15
768.227	1690.94
768.41	1699.13
768.593	1703.23
768.776	1590.59
768.959	1660.22
769.142	1527.1
769.324	1635.64
769.507	1586.49
769.69	1606.97
769.873	1606.97
770.056	1672.51
770.239	1584.45
770.421	1672.51
770.604	1652.03
770.787	1598.78
770.97	1535.29
771.152	1631.55
771.335	1582.4
771.518	1547.58
771.7	1582.4
771.883	1570.11
772.066	1484.09
772.248	1506.62
772.431	1545.53
772.613	1512.77
772.796	1412.42
772.978	1381.7
773.161	1551.68
773.343	1463.62
773.526	1418.56
773.708	1381.7
773.891	1434.94
774.073	1357.12
774.256	1398.08
774.438	1379.65
774.621	1355.07
774.803	1412.42
774.985	1373.5
775.168	1389.89
775.35	1369.41
775.532	1310.02
775.715	1322.31
775.897	1312.07
776.079	1228.1
776.261	1228.1
776.444	1340.74
776.626	1252.67
776.808	1203.52
776.99	1221.95
777.173	1154.37
777.355	1082.69
777.537	1197.38
777.719	1260.87
777.901	1152.32
778.083	1191.24
778.265	1109.32
778.447	1133.89
778.629	1189.19
778.811	1146.18
778.993	1144.13
779.175	1199.43
779.357	1144.13
779.539	1109.32
779.721	1148.23
779.903	1088.84
780.085	1137.99
780.267	1090.88
780.449	961.86
780.631	1178.95
780.812	1101.12
780.994	986.44
781.176	1088.84
781.358	1017.16
781.54	998.73
781.721	1049.93
781.903	1025.35
782.085	992.58
782.267	998.73
782.448	906.57
782.63	888.14
782.812	986.44
782.993	851.27
783.175	869.7
783.357	918.86
783.538	945.48
783.72	822.6
783.901	838.98
784.083	865.61
784.264	859.46
784.446	929.1
784.627	851.27
784.809	881.99
784.99	906.57
785.172	826.7
785.353	767.31
785.535	804.17
785.716	816.46
785.897	716.11
786.079	738.63
786.26	841.03
786.441	830.79
786.623	664.91
786.804	767.31
786.985	720.2
787.167	736.59
787.348	662.86
787.529	697.67
787.71	845.13
787.891	666.96
788.073	775.5
788.254	683.34
788.435	638.28
788.616	732.49
788.797	640.33
788.978	642.38
789.159	691.53
789.34	650.57
789.522	646.48
789.703	654.67
789.884	683.34
790.065	718.15
790.246	617.8
790.427	656.72
790.607	697.67
790.788	640.33
790.969	609.61
791.15	630.09
791.331	615.76
791.512	589.13
791.693	648.52
791.874	609.61
792.054	636.24
792.235	613.71
792.416	574.8
792.597	585.04
792.778	640.33
792.958	634.19
793.139	542.03
793.32	648.52
793.5	478.54
793.681	644.43
793.862	552.27
794.042	556.36
794.223	464.21
794.404	496.97
794.584	470.35
794.765	425.29
794.945	413.01
795.126	599.37
795.306	587.08
795.487	482.64
795.667	478.54
795.848	490.83
796.028	494.93
796.209	472.4
796.389	537.93
796.57	505.17
796.75	456.01
796.93	472.4
797.111	449.87
797.291	550.22
797.471	539.98
797.652	505.17
797.832	447.82
798.012	478.54
798.192	419.15
798.373	503.12
798.553	419.15
798.733	447.82
798.913	427.34
799.093	501.07
799.274	453.97
799.454	474.45
799.634	490.83
799.814	482.64
799.994	494.93
800.174	449.87
800.354	372.05
800.534	431.44
800.714	367.95
800.894	474.45
801.074	335.18
801.254	359.76
801.434	456.01
801.614	445.77
801.794	343.38
801.974	1131.84
802.154	423.25
802.334	382.29
802.514	353.62
802.693	419.15
802.873	345.42
803.053	451.92
803.233	394.58
803.413	347.47
803.592	343.38
803.772	331.09
803.952	370
804.131	283.99
804.311	382.29
804.491	431.44
804.67	318.8
804.85	333.14
805.03	367.95
805.209	453.97
805.389	367.95
805.568	314.7
805.748	329.04
805.928	359.76
806.107	314.7
806.287	314.7
806.466	341.33
806.646	380.24
806.825	308.56
807.004	329.04
807.184	349.52
807.363	386.38
807.543	259.41
807.722	247.12
807.901	288.08
808.081	388.43
808.26	300.37
808.439	353.62
808.619	255.31
808.798	283.99
808.977	271.7
809.156	316.75
809.336	355.66
809.515	300.37
809.694	283.99
809.873	294.22
810.052	322.9
810.231	333.14
810.411	255.31
810.59	298.32
810.769	275.79
810.948	240.98
811.127	171.35
811.306	351.57
811.485	253.27
811.664	335.18
811.843	302.42
812.022	302.42
812.201	216.4
812.38	314.7
812.559	275.79
812.737	288.08
812.916	183.63
813.095	210.26
813.274	210.26
813.453	304.46
813.632	275.79
813.811	290.13
813.989	243.03
814.168	193.87
814.347	255.31
814.526	247.12
814.704	240.98
814.883	363.86
815.062	185.68
815.24	206.16
815.419	154.96
815.598	259.41
815.776	148.82
815.955	294.22
816.133	236.88
816.312	314.7
816.49	183.63
816.669	185.68
816.847	240.98
817.026	169.3
817.204	232.79
817.383	220.5
817.561	163.15
817.74	193.87
817.918	202.07
818.097	197.97
818.275	202.07
818.453	304.46
818.632	236.88
818.81	204.11
818.988	240.98
819.167	181.59
819.345	243.03
819.523	245.07
819.701	283.99
819.879	204.11
820.058	189.78
820.236	183.63
820.414	189.78
820.592	197.97
820.77	187.73
820.948	220.5
821.127	236.88
821.305	159.06
821.483	187.73
821.661	179.54
821.839	240.98
822.017	189.78
822.195	165.2
822.373	245.07
822.551	159.06
822.729	263.51
822.907	206.16
823.085	236.88
823.262	146.77
823.44	173.39
823.618	163.15
823.796	177.49
823.974	116.05
824.152	173.39
824.329	210.26
824.507	173.39
824.685	204.11
824.863	122.2
825.04	150.87
825.218	216.4
825.396	136.53
825.574	243.03
825.751	214.35
825.929	189.78
826.107	187.73
826.284	142.68
826.462	136.53
826.639	169.3
826.817	144.72
826.994	150.87
827.172	189.78
827.349	265.55
827.527	154.96
827.704	159.06
827.882	144.72
828.059	83.28
828.237	157.01
828.414	140.63
828.591	118.1
828.769	157.01
828.946	171.35
829.124	140.63
829.301	187.73
829.478	136.53
829.655	154.96
829.833	52.56
830.01	138.58
830.187	130.39
830.364	93.52
830.542	150.87
830.719	134.48
830.896	114
831.073	87.38
831.25	191.83
831.427	109.91
831.604	169.3
831.782	144.72
831.959	144.72
832.136	134.48
832.313	163.15
832.49	144.72
832.667	181.59
832.844	105.81
833.021	122.2
833.198	142.68
833.374	144.72
833.551	185.68
833.728	195.92
833.905	122.2
834.082	111.96
834.259	114
834.436	159.06
834.612	101.72
834.789	134.48
834.966	111.96
835.143	138.58
835.319	116.05
835.496	148.82
835.673	132.44
835.85	157.01
836.026	144.72
836.203	111.96
836.38	107.86
836.556	159.06
836.733	54.61
836.909	154.96
837.086	116.05
837.262	89.43
837.439	146.77
837.616	11.61
837.792	140.63
837.968	142.68
838.145	21.85
838.321	107.86
838.498	95.57
838.674	87.38
838.851	83.28
839.027	85.33
839.203	138.58
839.38	173.39
839.556	97.62
839.732	56.66
839.909	200.02
840.085	77.14
840.261	93.52
840.437	126.29
840.614	81.24
840.79	60.76
840.966	17.75
841.142	105.81
841.318	101.72
841.494	71
841.671	42.32
841.847	44.37
842.023	111.96
842.199	111.96
842.375	130.39
842.551	-39.59
842.727	114
842.903	126.29
843.079	5.46
843.255	15.7
843.431	122.2
843.607	25.94
843.783	40.28
843.959	48.47
844.134	15.7
844.31	101.72
844.486	36.18
844.662	3.41
844.838	95.57
845.013	91.48
845.189	95.57
845.365	81.24
845.541	118.1
845.716	169.3
845.892	77.14
846.068	111.96
846.244	40.28
846.419	114
846.595	52.56
846.77	58.71
846.946	130.39
847.122	23.89
847.297	124.24
847.473	128.34
847.648	48.47
847.824	87.38
847.999	44.37
848.175	142.68
848.35	91.48
848.526	128.34
848.701	124.24
848.876	40.28
849.052	60.76
849.227	36.18
849.403	60.76
849.578	83.28
849.753	56.66
849.929	77.14
850.104	27.99
850.279	27.99
850.454	56.66
850.63	150.87
850.805	56.66
850.98	68.95
851.155	81.24
851.33	30.04
851.505	83.28
851.681	159.06
851.856	15.7
852.031	83.28
852.206	25.94
852.381	-21.16
852.556	36.18
852.731	44.37
852.906	46.42
853.081	101.72
853.256	60.76
853.431	85.33
853.606	150.87
853.781	42.32
853.956	30.04
854.131	60.76
854.305	5.46
854.48	11.61
854.655	52.56
854.83	148.82
855.005	91.48
855.18	40.28
855.354	56.66
855.529	73.04
855.704	44.37
855.879	56.66
856.053	-19.11
856.228	142.68
856.403	-8.87
856.577	44.37
856.752	-25.26
856.926	66.9
857.101	95.57
857.276	50.52
857.45	75.09
857.625	-35.5
857.799	30.04
857.974	13.65
858.148	1.37
858.323	71
858.497	93.52
858.672	17.75
858.846	13.65
859.02	64.85
859.195	-12.97
859.369	-4.78
859.543	42.32
859.718	52.56
859.892	25.94
860.066	60.76
860.241	25.94
860.415	56.66
860.589	-17.07
860.763	3.41
860.938	30.04
861.112	38.23
861.286	-2.73
861.46	13.65
861.634	-84.65
861.808	-33.45
861.982	48.47
862.157	50.52
862.331	64.85
862.505	5.46
862.679	42.32
862.853	-2.73
863.027	17.75
863.201	62.8
863.375	30.04
863.549	-2.73
863.722	103.76
863.896	56.66
864.07	5.46
864.244	21.85
864.418	81.24
864.592	23.89
864.766	75.09
864.939	79.19
865.113	-25.26
865.287	64.85
865.461	-17.07
865.634	48.47
865.808	64.85
865.982	15.7
866.156	-21.16
866.329	21.85
866.503	3.41
866.676	30.04
866.85	38.23
867.024	-29.35
867.197	19.8
867.371	13.65
867.544	-2.73
867.718	36.18
867.891	95.57
868.065	68.95
868.238	-35.5
868.412	64.85
868.585	17.75
868.759	77.14
868.932	11.61
869.105	5.46
869.279	-25.26
869.452	38.23
869.625	-39.59
869.799	81.24
869.972	-60.07
870.145	-8.87
870.319	3.41
870.492	42.32
870.665	46.42
870.838	21.85
871.011	-113.32
871.185	9.56
871.358	-10.92
871.531	21.85
871.704	19.8
871.877	62.8
872.05	5.46
872.223	32.08
872.396	-19.11
872.569	27.99
872.742	-21.16
872.915	42.32
873.088	30.04
873.261	11.61
873.434	52.56
873.607	58.71
873.78	50.52
873.953	-8.87
874.126	3.41
874.299	-0.68
874.471	-23.21
874.644	46.42
874.817	17.75
874.99	140.63
875.163	38.23
875.335	30.04
875.508	-80.55
875.681	42.32
875.853	15.7
876.026	60.76
876.199	42.32
876.371	54.61
876.544	42.32
876.717	34.13
876.889	9.56
877.062	36.18
877.234	-12.97
877.407	38.23
877.579	-35.5
877.752	1.37
877.924	34.13
878.097	40.28
878.269	-21.16
878.442	11.61
878.614	111.96
878.786	36.18
878.959	-12.97
879.131	46.42
879.303	5.46
879.476	95.57
879.648	56.66
879.82	-10.92
879.993	46.42
880.165	-15.02
880.337	-66.22
880.509	1.37
880.681	-55.98
880.854	-29.35
881.026	21.85
881.198	83.28
881.37	-15.02
881.542	62.8
881.714	62.8
881.886	-2.73
882.058	-55.98
882.23	40.28
882.402	30.04
882.574	71
882.746	71
882.918	46.42
883.09	-0.68
883.262	13.65
883.434	23.89
883.606	-21.16
883.778	25.94
883.95	75.09
884.122	13.65
884.293	7.51
884.465	13.65
884.637	60.76
884.809	-66.22
884.98	32.08
885.152	75.09
885.324	54.61
885.496	-64.17
885.667	3.41
885.839	-96.94
886.011	19.8
886.182	11.61
886.354	-2.73
886.525	54.61
886.697	75.09
886.869	-19.11
887.04	-29.35
887.212	13.65
887.383	91.48
887.555	19.8
887.726	-31.4
887.897	64.85
888.069	19.8
888.24	36.18
888.412	-17.07
888.583	19.8
888.754	1.37
888.926	-19.11
889.097	13.65
889.268	-23.21
889.44	-19.11
889.611	-6.83
889.782	-25.26
889.953	-92.84
890.125	44.37
890.296	-33.45
890.467	-41.64
890.638	3.41
890.809	-29.35
890.98	81.24
891.151	-0.68
891.323	83.28
891.494	-8.87
891.665	27.99
891.836	-39.59
892.007	32.08
892.178	40.28
892.349	-29.35
892.52	-66.22
892.691	-51.88
892.862	122.2
893.032	-31.4
893.203	-60.07
893.374	11.61
893.545	-58.03
893.716	-39.59
893.887	-35.5
894.057	32.08
894.228	23.89
894.399	19.8
894.57	1.37
894.74	1.37
894.911	34.13
895.082	-12.97
895.253	-37.55
895.423	85.33
895.594	7.51
895.764	23.89
895.935	-23.21
896.106	-35.5
896.276	32.08
896.447	-53.93
896.617	-103.08
896.788	-41.64
896.958	-15.02
897.129	-17.07
897.299	34.13
897.47	11.61
897.64	34.13
897.81	-25.26
897.981	7.51
898.151	-43.69
898.322	17.75
898.492	85.33
898.662	15.7
898.832	71
899.003	3.41
899.173	-15.02
899.343	-23.21
899.513	5.46
