Data from USB4F104151__16__12-23-26-402.txt Node

Date: Fri Mar 14 12:23:26 EDT 2025
User: louis
Spectrometer: USB4F10415
Trigger mode: 4
Integration Time (sec): 3.500000E-2
Scans to average: 1
Electric dark correction enabled: true
Nonlinearity correction enabled: false
Boxcar width: 0
XAxis mode: Wavelengths
Number of Pixels in Spectrum: 3648
>>>>>Begin Spectral Data<<<<<
178.204	-140.8
178.424	-140.8
178.644	-140.8
178.864	-165.37
179.084	-81.41
179.304	-54.78
179.524	-7.68
179.744	-15.87
179.964	-44.54
180.184	6.66
180.404	76.29
180.624	-13.82
180.844	-3.58
181.064	-5.63
181.283	33.28
181.503	10.75
181.723	18.94
181.943	-30.21
182.163	133.63
182.383	-13.82
182.602	64
182.822	74.24
183.042	10.75
183.262	20.99
183.482	-22.02
183.701	78.33
183.921	4.61
184.141	-87.55
184.361	117.25
184.58	-15.87
184.8	80.38
185.02	18.94
185.239	109.05
185.459	70.14
185.679	-11.78
185.898	-81.41
186.118	70.14
186.338	12.8
186.557	12.8
186.777	-60.93
186.997	8.7
187.216	51.71
187.436	61.95
187.655	70.14
187.875	88.57
188.095	-13.82
188.314	68.09
188.534	90.62
188.753	2.56
188.973	39.42
189.192	-15.87
189.412	76.29
189.631	20.99
189.851	39.42
190.07	55.81
190.29	-24.06
190.509	53.76
190.729	-7.68
190.948	125.44
191.168	172.54
191.387	125.44
191.607	-58.88
191.826	0.51
192.045	16.9
192.265	14.85
192.484	-19.97
192.704	-22.02
192.923	-13.82
193.142	88.57
193.362	8.7
193.581	61.95
193.8	-11.78
194.02	29.18
194.239	25.09
194.458	25.09
194.678	23.04
194.897	-19.97
195.116	-32.26
195.335	61.95
195.555	-24.06
195.774	-5.63
195.993	18.94
196.212	37.38
196.432	4.61
196.651	78.33
196.87	66.05
197.089	143.87
197.308	18.94
197.528	41.47
197.747	-50.69
197.966	47.62
198.185	94.72
198.404	25.09
198.623	74.24
198.842	16.9
199.062	76.29
199.281	31.23
199.5	4.61
199.719	37.38
199.938	41.47
200.157	94.72
200.376	82.43
200.595	41.47
200.814	-22.02
201.033	-13.82
201.252	35.33
201.471	-1.54
201.69	88.57
201.909	16.9
202.128	88.57
202.347	53.76
202.566	2.56
202.785	27.14
203.004	-24.06
203.223	113.15
203.442	8.7
203.661	27.14
203.879	102.91
204.098	100.86
204.317	25.09
204.536	25.09
204.755	96.77
204.974	72.19
205.193	43.52
205.411	45.57
205.63	78.33
205.849	10.75
206.068	-5.63
206.287	61.95
206.505	98.81
206.724	41.47
206.943	27.14
207.162	49.66
207.381	31.23
207.599	-17.92
207.818	57.86
208.037	-28.16
208.255	47.62
208.474	37.38
208.693	-11.78
208.911	-36.35
209.13	-48.64
209.349	53.76
209.567	76.29
209.786	18.94
210.005	92.67
210.223	-15.87
210.442	-69.12
210.661	80.38
210.879	31.23
211.098	41.47
211.316	25.09
211.535	94.72
211.753	59.9
211.972	98.81
212.191	23.04
212.409	16.9
212.628	45.57
212.846	16.9
213.065	45.57
213.283	55.81
213.502	51.71
213.72	20.99
213.938	0.51
214.157	2.56
214.375	4.61
214.594	10.75
214.812	33.28
215.031	6.66
215.249	23.04
215.467	72.19
215.686	41.47
215.904	-30.21
216.122	-26.11
216.341	27.14
216.559	33.28
216.778	29.18
216.996	57.86
217.214	41.47
217.432	6.66
217.651	-114.17
217.869	51.71
218.087	0.51
218.306	12.8
218.524	74.24
218.742	0.51
218.96	61.95
219.179	45.57
219.397	84.48
219.615	113.15
219.833	49.66
220.051	-62.98
220.27	57.86
220.488	-7.68
220.706	78.33
220.924	20.99
221.142	8.7
221.36	-7.68
221.578	72.19
221.796	-9.73
222.015	-13.82
222.233	-22.02
222.451	109.05
222.669	55.81
222.887	10.75
223.105	-28.16
223.323	-9.73
223.541	27.14
223.759	47.62
223.977	18.94
224.195	23.04
224.413	51.71
224.631	-7.68
224.849	10.75
225.067	35.33
225.285	-48.64
225.503	29.18
225.721	-3.58
225.939	-5.63
226.157	-48.64
226.375	47.62
226.592	10.75
226.81	-26.11
227.028	33.28
227.246	78.33
227.464	59.9
227.682	43.52
227.9	-11.78
228.117	76.29
228.335	92.67
228.553	51.71
228.771	92.67
228.989	-3.58
229.206	31.23
229.424	16.9
229.642	45.57
229.86	6.66
230.077	-34.3
230.295	16.9
230.513	82.43
230.731	80.38
230.948	143.87
231.166	123.39
231.384	-48.64
231.601	23.04
231.819	143.87
232.037	14.85
232.254	-22.02
232.472	41.47
232.689	-13.82
232.907	39.42
233.125	-7.68
233.342	59.9
233.56	111.1
233.777	18.94
233.995	37.38
234.213	68.09
234.43	31.23
234.648	33.28
234.865	-69.12
235.083	20.99
235.3	76.29
235.518	39.42
235.735	82.43
235.953	57.86
236.17	-42.5
236.388	4.61
236.605	33.28
236.822	66.05
237.04	45.57
237.257	82.43
237.475	51.71
237.692	37.38
237.909	0.51
238.127	33.28
238.344	35.33
238.562	-22.02
238.779	20.99
238.996	-58.88
239.214	-46.59
239.431	-3.58
239.648	47.62
239.865	107.01
240.083	72.19
240.3	29.18
240.517	57.86
240.735	-7.68
240.952	80.38
241.169	74.24
241.386	29.18
241.603	47.62
241.821	31.23
242.038	76.29
242.255	119.29
242.472	23.04
242.689	27.14
242.907	121.34
243.124	23.04
243.341	-30.21
243.558	57.86
243.775	39.42
243.992	-26.11
244.209	0.51
244.426	127.49
244.643	2.56
244.86	29.18
245.078	84.48
245.295	47.62
245.512	51.71
245.729	2.56
245.946	12.8
246.163	39.42
246.38	61.95
246.597	-11.78
246.814	4.61
247.031	27.14
247.248	20.99
247.464	18.94
247.681	20.99
247.898	14.85
248.115	43.52
248.332	-7.68
248.549	64
248.766	90.62
248.983	49.66
249.2	18.94
249.417	41.47
249.633	-9.73
249.85	59.9
250.067	64
250.284	37.38
250.501	10.75
250.717	43.52
250.934	-17.92
251.151	47.62
251.368	53.76
251.585	68.09
251.801	33.28
252.018	-7.68
252.235	68.09
252.451	10.75
252.668	55.81
252.885	55.81
253.102	55.81
253.318	41.47
253.535	84.48
253.752	57.86
253.968	-28.16
254.185	12.8
254.401	-3.58
254.618	66.05
254.835	23.04
255.051	72.19
255.268	-44.54
255.484	33.28
255.701	35.33
255.917	35.33
256.134	53.76
256.351	39.42
256.567	20.99
256.784	90.62
257	-30.21
257.217	-46.59
257.433	-26.11
257.65	27.14
257.866	29.18
258.082	-26.11
258.299	-22.02
258.515	33.28
258.732	-28.16
258.948	23.04
259.165	18.94
259.381	86.53
259.597	31.23
259.814	74.24
260.03	23.04
260.246	2.56
260.463	88.57
260.679	82.43
260.895	-9.73
261.112	27.14
261.328	2.56
261.544	35.33
261.761	43.52
261.977	57.86
262.193	-15.87
262.409	14.85
262.626	25.09
262.842	37.38
263.058	53.76
263.274	61.95
263.49	12.8
263.707	6.66
263.923	59.9
264.139	18.94
264.355	59.9
264.571	55.81
264.787	59.9
265.004	64
265.22	6.66
265.436	8.7
265.652	2.56
265.868	20.99
266.084	4.61
266.3	2.56
266.516	0.51
266.732	18.94
266.948	0.51
267.164	33.28
267.38	10.75
267.596	84.48
267.812	59.9
268.028	88.57
268.244	-11.78
268.46	72.19
268.676	-22.02
268.892	33.28
269.108	12.8
269.324	-9.73
269.54	25.09
269.756	84.48
269.972	31.23
270.188	53.76
270.403	45.57
270.619	27.14
270.835	41.47
271.051	61.95
271.267	-30.21
271.483	29.18
271.698	84.48
271.914	59.9
272.13	-3.58
272.346	10.75
272.562	23.04
272.777	57.86
272.993	31.23
273.209	-7.68
273.425	123.39
273.64	-9.73
273.856	25.09
274.072	-77.31
274.287	-65.02
274.503	115.2
274.719	45.57
274.934	27.14
275.15	-46.59
275.366	76.29
275.581	14.85
275.797	0.51
276.012	20.99
276.228	-3.58
276.444	27.14
276.659	92.67
276.875	45.57
277.09	51.71
277.306	29.18
277.521	10.75
277.737	0.51
277.952	12.8
278.168	25.09
278.383	70.14
278.599	20.99
278.814	111.1
279.03	0.51
279.245	10.75
279.461	39.42
279.676	14.85
279.892	-48.64
280.107	6.66
280.322	6.66
280.538	35.33
280.753	-44.54
280.969	47.62
281.184	6.66
281.399	57.86
281.615	16.9
281.83	68.09
282.045	-83.45
282.26	-3.58
282.476	-19.97
282.691	90.62
282.906	74.24
283.122	78.33
283.337	6.66
283.552	2.56
283.767	12.8
283.983	39.42
284.198	57.86
284.413	37.38
284.628	16.9
284.843	43.52
285.058	82.43
285.274	-69.12
285.489	4.61
285.704	-19.97
285.919	-54.78
286.134	-24.06
286.349	-24.06
286.564	-15.87
286.779	27.14
286.995	100.86
287.21	-58.88
287.425	27.14
287.64	96.77
287.855	86.53
288.07	-9.73
288.285	43.52
288.5	31.23
288.715	25.09
288.93	-38.4
289.145	-44.54
289.36	45.57
289.575	-38.4
289.79	131.58
290.004	0.51
290.219	49.66
290.434	-9.73
290.649	35.33
290.864	-13.82
291.079	29.18
291.294	66.05
291.509	51.71
291.724	16.9
291.938	27.14
292.153	43.52
292.368	-17.92
292.583	37.38
292.798	-15.87
293.012	59.9
293.227	70.14
293.442	20.99
293.657	76.29
293.871	29.18
294.086	47.62
294.301	57.86
294.516	76.29
294.73	35.33
294.945	20.99
295.16	76.29
295.374	113.15
295.589	39.42
295.804	-77.31
296.018	41.47
296.233	68.09
296.447	10.75
296.662	-52.74
296.877	68.09
297.091	39.42
297.306	-9.73
297.52	47.62
297.735	4.61
297.949	-19.97
298.164	23.04
298.378	14.85
298.593	-7.68
298.807	6.66
299.022	33.28
299.236	53.76
299.451	4.61
299.665	-34.3
299.88	20.99
300.094	10.75
300.309	14.85
300.523	18.94
300.737	45.57
300.952	27.14
301.166	84.48
301.381	25.09
301.595	33.28
301.809	8.7
302.024	49.66
302.238	59.9
302.452	27.14
302.667	53.76
302.881	18.94
303.095	49.66
303.309	72.19
303.524	16.9
303.738	0.51
303.952	37.38
304.166	96.77
304.381	-30.21
304.595	33.28
304.809	6.66
305.023	-32.26
305.237	131.58
305.452	29.18
305.666	84.48
305.88	37.38
306.094	68.09
306.308	-5.63
306.522	45.57
306.736	20.99
306.95	64
307.164	41.47
307.379	0.51
307.593	27.14
307.807	72.19
308.021	39.42
308.235	27.14
308.449	-19.97
308.663	51.71
308.877	100.86
309.091	70.14
309.305	51.71
309.519	-103.93
309.733	49.66
309.947	-32.26
310.161	29.18
310.374	64
310.588	49.66
310.802	-83.45
311.016	37.38
311.23	59.9
311.444	0.51
311.658	59.9
311.872	74.24
312.085	57.86
312.299	57.86
312.513	121.34
312.727	-40.45
312.941	-65.02
313.154	70.14
313.368	-1.54
313.582	-52.74
313.796	68.09
314.009	-5.63
314.223	57.86
314.437	45.57
314.651	86.53
314.864	25.09
315.078	-5.63
315.292	18.94
315.505	2.56
315.719	84.48
315.933	-19.97
316.146	16.9
316.36	-67.07
316.573	25.09
316.787	84.48
317.001	113.15
317.214	76.29
317.428	133.63
317.641	-58.88
317.855	49.66
318.068	76.29
318.282	-26.11
318.495	51.71
318.709	-1.54
318.922	-7.68
319.136	-5.63
319.349	39.42
319.563	55.81
319.776	76.29
319.99	-69.12
320.203	10.75
320.417	51.71
320.63	57.86
320.843	57.86
321.057	37.38
321.27	86.53
321.483	76.29
321.697	68.09
321.91	16.9
322.124	39.42
322.337	6.66
322.55	-1.54
322.763	-1.54
322.977	-7.68
323.19	-52.74
323.403	61.95
323.617	-5.63
323.83	53.76
324.043	10.75
324.256	-1.54
324.469	-1.54
324.683	127.49
324.896	-15.87
325.109	39.42
325.322	-48.64
325.535	72.19
325.748	8.7
325.962	-1.54
326.175	16.9
326.388	43.52
326.601	45.57
326.814	53.76
327.027	12.8
327.24	96.77
327.453	0.51
327.666	98.81
327.879	57.86
328.092	80.38
328.305	57.86
328.518	78.33
328.731	-38.4
328.944	109.05
329.157	33.28
329.37	53.76
329.583	47.62
329.796	82.43
330.009	20.99
330.222	39.42
330.435	-44.54
330.648	33.28
330.861	66.05
331.073	41.47
331.286	14.85
331.499	49.66
331.712	6.66
331.925	10.75
332.138	-32.26
332.35	20.99
332.563	-19.97
332.776	111.1
332.989	31.23
333.202	45.57
333.414	55.81
333.627	-22.02
333.84	49.66
334.053	-40.45
334.265	-11.78
334.478	-15.87
334.691	43.52
334.903	18.94
335.116	25.09
335.329	-15.87
335.541	72.19
335.754	70.14
335.966	8.7
336.179	-1.54
336.392	-3.58
336.604	-28.16
336.817	31.23
337.029	27.14
337.242	74.24
337.454	55.81
337.667	18.94
337.88	0.51
338.092	47.62
338.305	119.29
338.517	-13.82
338.729	94.72
338.942	86.53
339.154	29.18
339.367	-30.21
339.579	27.14
339.792	-62.98
340.004	55.81
340.217	-3.58
340.429	-19.97
340.641	14.85
340.854	55.81
341.066	23.04
341.278	70.14
341.491	107.01
341.703	68.09
341.915	-11.78
342.128	51.71
342.34	102.91
342.552	104.96
342.764	12.8
342.977	45.57
343.189	-11.78
343.401	0.51
343.613	47.62
343.826	33.28
344.038	8.7
344.25	55.81
344.462	12.8
344.674	25.09
344.886	-7.68
345.099	18.94
345.311	72.19
345.523	29.18
345.735	-17.92
345.947	74.24
346.159	51.71
346.371	-22.02
346.583	47.62
346.795	61.95
347.007	-22.02
347.219	45.57
347.431	84.48
347.643	72.19
347.855	-3.58
348.067	109.05
348.279	-5.63
348.491	74.24
348.703	78.33
348.915	-11.78
349.127	16.9
349.339	86.53
349.551	-42.5
349.763	55.81
349.975	59.9
350.187	39.42
350.399	45.57
350.61	8.7
350.822	43.52
351.034	41.47
351.246	23.04
351.458	119.29
351.669	23.04
351.881	53.76
352.093	70.14
352.305	66.05
352.517	31.23
352.728	74.24
352.94	14.85
353.152	37.38
353.363	47.62
353.575	-32.26
353.787	18.94
353.999	29.18
354.21	98.81
354.422	12.8
354.633	37.38
354.845	18.94
355.057	59.9
355.268	18.94
355.48	-9.73
355.692	-60.93
355.903	51.71
356.115	-17.92
356.326	-7.68
356.538	158.21
356.749	-17.92
356.961	61.95
357.172	-11.78
357.384	-22.02
357.595	113.15
357.807	25.09
358.018	25.09
358.23	-15.87
358.441	80.38
358.653	78.33
358.864	39.42
359.075	47.62
359.287	10.75
359.498	25.09
359.709	55.81
359.921	68.09
360.132	-5.63
360.344	-19.97
360.555	27.14
360.766	20.99
360.977	29.18
361.189	121.34
361.4	66.05
361.611	80.38
361.823	31.23
362.034	-13.82
362.245	-48.64
362.456	29.18
362.667	20.99
362.879	45.57
363.09	59.9
363.301	23.04
363.512	53.76
363.723	-3.58
363.935	25.09
364.146	90.62
364.357	72.19
364.568	27.14
364.779	57.86
364.99	41.47
365.201	10.75
365.412	86.53
365.623	-26.11
365.834	109.05
366.045	57.86
366.256	94.72
366.467	49.66
366.678	76.29
366.889	82.43
367.1	-22.02
367.311	20.99
367.522	100.86
367.733	4.61
367.944	51.71
368.155	10.75
368.366	29.18
368.577	61.95
368.788	35.33
368.999	-7.68
369.209	51.71
369.42	123.39
369.631	172.54
369.842	88.57
370.053	45.57
370.264	41.47
370.474	-13.82
370.685	33.28
370.896	57.86
371.107	20.99
371.317	111.1
371.528	68.09
371.739	61.95
371.95	33.28
372.16	25.09
372.371	-52.74
372.582	27.14
372.792	70.14
373.003	29.18
373.214	49.66
373.424	20.99
373.635	-15.87
373.846	47.62
374.056	47.62
374.267	39.42
374.477	33.28
374.688	104.96
374.898	84.48
375.109	2.56
375.319	4.61
375.53	18.94
375.74	31.23
375.951	43.52
376.161	8.7
376.372	78.33
376.582	-5.63
376.793	82.43
377.003	35.33
377.214	37.38
377.424	43.52
377.635	25.09
377.845	29.18
378.055	43.52
378.266	41.47
378.476	45.57
378.686	49.66
378.897	29.18
379.107	78.33
379.317	123.39
379.528	33.28
379.738	84.48
379.948	47.62
380.158	35.33
380.369	31.23
380.579	-9.73
380.789	47.62
380.999	47.62
381.21	72.19
381.42	168.45
381.63	57.86
381.84	82.43
382.05	70.14
382.261	92.67
382.471	25.09
382.681	43.52
382.891	88.57
383.101	84.48
383.311	-19.97
383.521	20.99
383.731	102.91
383.941	98.81
384.151	35.33
384.361	-26.11
384.571	66.05
384.781	80.38
384.991	113.15
385.201	94.72
385.411	104.96
385.621	12.8
385.831	49.66
386.041	88.57
386.251	98.81
386.461	20.99
386.671	-1.54
386.881	31.23
387.091	-3.58
387.301	66.05
387.511	98.81
387.72	47.62
387.93	6.66
388.14	2.56
388.35	51.71
388.56	131.58
388.769	33.28
388.979	53.76
389.189	70.14
389.399	-7.68
389.609	45.57
389.818	74.24
390.028	115.2
390.238	92.67
390.447	6.66
390.657	76.29
390.867	47.62
391.076	-15.87
391.286	64
391.496	57.86
391.705	41.47
391.915	170.49
392.125	94.72
392.334	98.81
392.544	166.4
392.753	-5.63
392.963	18.94
393.172	74.24
393.382	-42.5
393.591	111.1
393.801	80.38
394.01	98.81
394.22	102.91
394.429	2.56
394.639	27.14
394.848	88.57
395.058	92.67
395.267	100.86
395.477	31.23
395.686	125.44
395.895	117.25
396.105	160.25
396.314	27.14
396.524	102.91
396.733	80.38
396.942	131.58
397.152	125.44
397.361	145.92
397.57	61.95
397.78	66.05
397.989	72.19
398.198	129.53
398.407	102.91
398.617	109.05
398.826	80.38
399.035	76.29
399.244	104.96
399.453	16.9
399.663	66.05
399.872	121.34
400.081	72.19
400.29	98.81
400.499	-7.68
400.708	137.73
400.917	78.33
401.127	10.75
401.336	82.43
401.545	109.05
401.754	133.63
401.963	117.25
402.172	18.94
402.381	27.14
402.59	94.72
402.799	119.29
403.008	100.86
403.217	139.77
403.426	104.96
403.635	55.81
403.844	102.91
404.053	141.82
404.262	117.25
404.471	174.59
404.68	78.33
404.888	207.36
405.097	61.95
405.306	92.67
405.515	156.16
405.724	90.62
405.933	123.39
406.142	104.96
406.35	197.12
406.559	156.16
406.768	64
406.977	213.5
407.185	111.1
407.394	141.82
407.603	102.91
407.812	166.4
408.02	133.63
408.229	96.77
408.438	172.54
408.646	125.44
408.855	111.1
409.064	145.92
409.272	248.32
409.481	205.31
409.69	223.74
409.898	117.25
410.107	291.32
410.315	281.08
410.524	188.93
410.733	231.93
410.941	242.17
411.15	254.46
411.358	326.14
411.567	313.85
411.775	254.46
411.984	287.23
412.192	315.9
412.401	260.6
412.609	293.37
412.818	352.76
413.026	299.52
413.234	354.81
413.443	352.76
413.651	363
413.86	363
414.068	492.02
414.276	434.68
414.485	313.85
414.693	428.54
414.901	477.69
415.11	504.31
415.318	465.4
415.526	453.11
415.734	471.54
415.943	496.12
416.151	573.94
416.359	489.98
416.567	553.46
416.776	641.53
416.984	682.49
417.192	713.21
417.4	651.77
417.608	596.47
417.817	659.96
418.025	711.16
418.233	762.36
418.441	758.26
418.649	766.45
418.857	879.09
419.065	891.38
419.273	776.69
419.481	862.71
419.689	952.82
419.897	1038.83
420.105	905.71
420.313	1102.32
420.521	1063.41
420.729	1169.9
420.937	1094.13
421.145	1149.42
421.353	1276.4
421.561	1241.58
421.769	1335.79
421.977	1335.79
422.185	1319.4
422.393	1425.9
422.601	1477.1
422.809	1542.63
423.017	1550.82
423.224	1540.58
423.432	1569.26
423.64	1659.37
423.848	1880.55
424.056	1694.18
424.263	1829.35
424.471	1921.51
424.679	2011.62
424.887	2056.67
425.094	2085.34
425.302	2052.58
425.51	2169.31
425.718	2224.61
425.925	2249.18
426.133	2322.91
426.341	2492.89
426.548	2478.55
426.756	2636.25
426.964	2638.3
427.171	2644.44
427.379	2726.36
427.586	2869.72
427.794	2945.49
428.001	3111.38
428.209	3123.66
428.417	3191.25
428.624	3340.75
428.832	3471.82
429.039	3428.81
429.247	3553.74
429.454	3707.34
429.662	4053.44
429.869	3647.94
430.076	3891.65
430.284	3936.71
430.491	4061.63
430.699	4200.9
430.906	4358.59
431.114	4286.91
431.321	4417.98
431.528	4538.81
431.736	4991.41
431.943	5173.68
432.15	4981.17
432.358	5061.04
432.565	5403.05
432.772	5179.82
432.979	5630.38
433.187	5497.26
433.394	5757.35
433.601	5886.37
433.808	5904.81
434.016	6031.78
434.223	6269.34
434.43	6537.63
434.637	6543.77
434.844	6955.41
435.052	6949.27
435.259	7170.45
435.466	7063.96
435.673	7109.01
435.88	7625.1
436.087	7893.38
436.294	7733.64
436.501	7805.32
436.708	7938.44
436.915	8022.41
437.122	8575.36
437.329	8503.68
437.537	8702.33
437.743	9032.05
437.95	8774.01
438.157	9372.02
438.364	9673.07
438.571	9558.38
438.778	9697.64
438.985	10602.85
439.192	10039.65
439.399	10428.77
439.606	10180.96
439.813	10846.55
440.02	11520.34
440.227	11176.28
440.433	11131.22
440.64	11481.42
440.847	11495.76
441.054	12003.66
441.261	12798.27
441.467	12101.96
441.674	12585.28
441.881	12937.53
442.088	13101.37
442.294	13148.47
442.501	13449.52
442.708	13535.54
442.914	13981.99
443.121	14715.17
443.328	14455.08
443.534	15499.54
443.741	15005.98
443.948	14747.93
444.154	15847.69
444.361	15610.13
444.568	15646.99
444.774	15808.78
444.981	16175.37
445.187	16406.79
445.394	17152.25
445.6	16861.44
445.807	18532.58
446.013	17930.48
446.22	18174.19
446.426	18884.83
446.633	18890.98
446.839	19646.68
447.046	18833.63
447.252	19779.79
447.459	20025.55
447.665	20007.12
447.871	20920.51
448.078	21745.84
448.284	20549.83
448.491	21397.69
448.697	22231.21
448.903	22509.74
449.11	22796.45
449.316	22040.75
449.522	22393
449.728	23523.48
449.935	23318.68
450.141	23296.16
450.347	23875.73
450.553	22823.08
450.76	23357.6
450.966	24189.07
451.172	23888.02
451.378	24557.71
451.584	24023.19
451.791	24782.98
451.997	24526.99
452.203	25022.59
452.409	24666.25
452.615	24885.38
452.821	23910.55
453.027	23627.93
453.233	24983.68
453.44	23832.72
453.646	24428.68
453.852	24363.15
454.058	24653.96
454.264	23873.68
454.47	24314
454.676	23785.62
454.882	24670.34
455.088	22587.56
455.294	22962.34
455.5	22933.67
455.705	23214.24
455.911	22493.35
456.117	22034.61
456.323	21747.89
456.529	20433.1
456.735	21483.7
456.941	20627.65
457.147	20523.21
457.352	19638.48
457.558	19620.05
457.764	19740.88
457.97	19187.93
458.176	18680.03
458.381	19013.85
458.587	17713.39
458.793	17842.42
458.999	16736.51
459.204	18206.95
459.41	17631.47
459.616	16333.06
459.821	16660.74
460.027	16369.93
460.233	16091.4
460.438	15309.08
460.644	15292.69
460.85	14811.42
461.055	14485.79
461.261	14485.79
461.466	13320.5
461.672	12939.58
461.878	13975.85
462.083	13078.84
462.289	12640.58
462.494	12587.33
462.7	11940.17
462.905	11727.18
463.111	12054.86
463.316	12091.72
463.522	11888.97
463.727	11946.31
463.932	11934.03
464.138	11635.02
464.343	11821.39
464.549	11430.23
464.754	11811.15
464.959	11532.62
465.165	11618.64
465.37	11286.87
465.575	10856.79
465.781	11387.22
465.986	11540.82
466.191	11051.35
466.397	10680.67
466.602	10199.4
466.807	10615.13
467.012	10662.24
467.218	10662.24
467.423	10424.67
467.628	10522.98
467.833	10914.14
468.038	10637.66
468.244	10332.51
468.449	10641.76
468.654	10238.31
468.859	10338.66
469.064	10193.25
469.269	9996.65
469.474	9748.84
469.679	10088.81
469.885	10035.56
470.09	10127.72
470.295	9810.28
470.5	9435.5
470.705	9754.99
470.91	9458.03
471.115	9437.55
471.32	9441.65
471.525	9490.8
471.73	9204.08
471.935	9064.82
472.139	9025.91
472.344	9081.21
472.549	8890.74
472.754	8651.13
472.959	8679.8
473.164	8337.79
473.369	8364.42
473.574	8774.01
473.778	8528.25
473.983	8397.18
474.188	8364.42
474.393	8161.67
474.598	8145.28
474.802	7956.87
475.007	7928.2
475.212	7827.85
475.417	7614.86
475.621	7586.19
475.826	7614.86
476.031	7569.8
476.235	7455.12
476.44	7534.99
476.645	7532.94
476.849	7360.91
477.054	7203.22
477.259	7149.97
477.463	7203.22
477.668	7059.86
477.872	7283.09
478.077	6830.49
478.282	6803.86
478.486	6685.08
478.691	6568.35
478.895	6877.59
479.1	6689.18
479.304	6695.32
479.509	6488.48
479.713	6670.75
479.918	6539.68
480.122	6193.57
480.326	6545.82
480.531	6404.51
480.735	6359.45
480.94	6359.45
481.144	6551.96
481.348	6314.4
481.553	6308.26
481.757	6201.76
481.961	6261.15
482.166	6412.7
482.37	6175.14
482.574	6023.59
482.778	6152.61
482.983	6359.45
483.187	6312.35
483.391	6279.58
483.595	6326.69
483.8	6138.27
484.004	6113.7
484.208	6218.15
484.412	6007.2
484.616	6326.69
484.821	6209.95
485.025	6019.49
485.229	6095.27
485.433	6150.56
485.637	6238.62
485.841	6068.64
486.045	6168.99
486.249	6207.91
486.453	6128.03
486.657	6148.51
486.861	6324.64
487.065	5894.57
487.269	6091.17
487.473	6125.99
487.677	6046.12
487.881	6377.89
488.085	6042.02
488.289	6257.06
488.493	6019.49
488.697	6338.98
488.901	6113.7
489.105	6187.43
489.309	6490.52
489.512	6293.92
489.716	6326.69
489.92	6166.95
490.124	6295.97
490.328	6330.78
490.531	6281.63
490.735	6236.58
490.939	6484.38
491.143	6332.83
491.346	6328.74
491.55	6445.47
491.754	6517.15
491.958	6435.23
492.161	6455.71
492.365	6543.77
492.569	6381.98
492.772	6486.43
492.976	6680.99
493.18	6404.51
493.383	6814.1
493.587	6660.51
493.79	6781.34
493.994	6523.29
494.197	6896.02
494.401	6863.26
494.605	6934.93
494.808	6951.32
495.012	7149.97
495.215	6818.2
495.419	7205.27
495.622	7152.02
495.825	7207.31
496.029	7307.66
496.232	7260.56
496.436	7260.56
496.639	7590.28
496.843	7532.94
497.046	7657.87
497.249	7842.18
497.453	7694.73
497.656	7856.52
497.859	7766.41
498.063	7877
498.266	8147.33
498.469	8096.13
498.673	8202.63
498.876	8272.26
499.079	8370.56
499.282	8366.46
499.485	8700.28
499.689	8728.95
499.892	8792.44
500.095	8681.85
500.298	8943.99
500.501	9005.43
500.705	9220.47
500.908	9058.68
501.111	9398.64
501.314	9585.01
501.517	9834.86
501.72	9728.36
501.923	9582.96
502.126	9961.83
502.329	10230.12
502.532	10129.77
502.735	10230.12
502.938	10340.71
503.141	10484.06
503.344	10654.05
503.547	10709.34
503.75	10869.08
503.953	10873.18
504.156	11241.81
504.359	11297.11
504.562	11282.77
504.765	11575.63
504.968	11618.64
505.17	11696.46
505.373	11843.92
505.576	12085.58
505.779	11989.32
505.982	12419.39
506.185	12407.11
506.387	12636.48
506.59	12704.06
506.793	12892.48
506.996	12990.78
507.198	13332.79
507.401	13179.19
507.604	13343.03
507.807	13662.51
508.009	13570.35
508.212	13875.5
508.415	13922.6
508.617	14272.81
508.82	14389.54
509.022	14111.02
509.225	14592.29
509.428	14856.48
509.63	15012.12
509.833	14922.01
510.035	15055.13
510.238	15380.76
510.44	15501.59
510.643	15675.66
510.845	16066.83
511.048	16009.48
511.25	16447.75
511.453	16441.61
511.655	16851.2
511.858	16736.51
512.06	16935.17
512.262	17125.63
512.465	17195.26
512.667	17326.33
512.87	17613.04
513.072	17721.59
513.274	17914.09
513.477	18454.76
513.679	18489.57
513.881	18825.44
514.084	18753.76
514.286	18931.94
514.488	19050.72
514.69	19767.51
514.893	19714.26
515.095	19847.38
515.297	20152.52
515.499	20244.68
515.701	20322.51
515.904	20742.34
516.106	20889.79
516.308	20988.1
516.51	21203.13
516.712	21602.49
516.914	21858.48
517.116	22405.29
517.318	22241.45
517.52	22474.92
517.722	22468.78
517.925	23025.82
518.127	23228.57
518.329	23351.45
518.531	23345.31
518.733	23695.51
518.935	23994.51
519.136	23947.41
519.338	24221.84
519.54	24678.54
519.742	25243.77
519.944	24977.54
520.146	25530.49
520.348	25786.49
520.55	25712.76
520.752	26089.59
520.954	26261.62
521.155	26562.67
521.357	26894.44
521.559	26562.67
521.761	27455.58
521.963	27506.78
522.164	27723.86
522.366	27615.32
522.568	27854.93
522.77	28409.93
522.971	28817.48
523.173	28784.71
523.375	28819.53
523.576	28989.51
523.778	29225.03
523.98	29505.6
524.181	29706.3
524.383	29724.73
524.584	30275.63
524.786	30124.08
524.988	30351.41
525.189	30660.65
525.391	30885.93
525.592	31180.84
525.794	31301.67
525.995	31281.19
526.197	31553.57
526.398	31490.08
526.6	31973.4
526.801	32065.56
527.003	32145.43
527.204	32186.39
527.406	32917.51
527.607	32534.54
527.808	32757.77
528.01	32659.47
528.211	33052.68
528.412	33325.06
528.614	33654.78
528.815	33505.28
529.016	34054.14
529.218	33626.11
529.419	33665.02
529.62	33929.21
529.822	33941.5
530.023	34007.03
530.224	34170.87
530.425	34156.53
530.626	34179.06
530.828	34099.19
531.029	34893.8
531.23	34344.95
531.431	34652.14
531.632	34476.02
531.833	34899.95
532.035	34906.09
532.236	34791.41
532.437	35321.83
532.638	34828.27
532.839	35147.75
533.04	35203.05
533.241	35090.41
533.442	35506.15
533.643	35123.18
533.844	35311.59
534.045	35446.76
534.246	35168.23
534.447	35598.3
534.648	35422.18
534.849	35532.77
535.05	35307.49
535.251	35201
535.451	35119.08
535.652	35932.12
535.853	35250.15
536.054	35559.39
536.255	35624.93
536.456	35442.66
536.657	35844.06
536.857	35088.36
537.058	35338.21
537.259	35973.08
537.46	35938.27
537.66	35432.42
537.861	35936.22
538.062	35377.12
538.263	35532.77
538.463	35524.58
538.664	35725.28
538.865	35559.39
539.065	36253.65
539.266	35383.27
539.466	35899.36
539.667	35461.09
539.868	35909.6
540.068	35915.74
540.269	35571.68
540.469	35987.42
540.67	35809.25
540.87	36009.95
541.071	35743.71
541.271	36149.21
541.472	35608.54
541.672	35694.56
541.873	35631.07
542.073	35145.7
542.274	36138.97
542.474	35588.06
542.675	35614.69
542.875	35985.37
543.075	35596.26
543.276	35248.1
543.476	36163.54
543.676	35682.27
543.877	36044.76
544.077	35614.69
544.277	35919.84
544.478	35321.83
544.678	35751.9
544.878	35751.9
545.078	35502.05
545.279	35479.52
545.479	35330.02
545.679	35325.92
545.879	35626.98
546.079	35694.56
546.28	35760.09
546.48	35239.91
546.68	35641.31
546.88	35745.76
547.08	35469.28
547.28	35244.01
547.48	35672.03
547.68	35889.12
547.88	35387.36
548.081	35821.53
548.281	35588.06
548.481	35629.02
548.681	35760.09
548.881	35649.5
549.081	35778.53
549.28	35686.37
549.48	35502.05
549.68	35149.8
549.88	35803.1
550.08	35588.06
550.28	35809.25
550.48	35313.64
550.68	35731.42
550.88	35133.42
551.08	35192.81
551.279	35500
551.479	35579.87
551.679	34918.38
551.879	35153.9
552.079	35592.16
552.278	35155.94
552.478	35532.77
552.678	35809.25
552.878	35313.64
553.077	35270.63
553.277	35297.25
553.477	35721.18
553.676	35624.93
553.876	34983.91
554.076	35057.64
554.275	35053.55
554.475	34899.95
554.674	35473.38
554.874	35024.87
555.074	34502.64
555.273	35014.63
555.473	35074.02
555.672	35020.78
555.872	34899.95
556.071	34990.06
556.271	34867.18
556.47	34699.25
556.67	34643.95
556.869	34547.7
557.068	34463.73
557.268	34404.34
557.467	34818.03
557.667	34613.23
557.866	34623.47
558.065	34344.95
558.265	33896.44
558.464	34117.62
558.663	34535.41
558.863	33679.36
559.062	34387.96
559.261	33951.74
559.461	34088.95
559.66	33376.26
559.859	33802.24
560.058	33443.84
560.258	33681.41
560.457	33470.47
560.656	33943.55
560.855	33353.73
561.054	33820.67
561.253	33007.62
561.453	33458.18
561.652	33665.02
561.851	33206.28
562.05	33169.41
562.249	32892.94
562.448	33757.18
562.647	32778.25
562.846	32647.18
563.045	32720.91
563.244	32540.69
563.443	33064.97
563.642	32458.77
563.841	32638.99
564.04	32294.93
564.239	32958.47
564.438	32151.57
564.637	32296.98
564.836	32137.24
565.035	31780.89
565.234	31784.99
565.432	31379.49
565.631	31420.45
565.83	31651.87
566.029	31545.37
566.228	31664.16
566.427	31352.87
566.625	31397.92
566.824	30943.27
567.023	31000.61
567.222	30263.35
567.42	31180.84
567.619	30816.3
567.818	30601.26
568.016	30601.26
568.215	30429.23
568.414	30298.16
568.612	30484.53
568.811	30249.01
569.01	30369.84
569.208	29718.59
569.407	29859.9
569.605	29599.8
569.804	30025.78
570.002	29319.23
570.201	29546.56
570.4	29388.86
570.598	28977.22
570.797	29114.44
570.995	28975.17
571.193	28880.97
571.392	29100.1
571.59	28713.03
571.789	28762.19
571.987	28678.22
572.186	28493.9
572.384	28176.47
572.582	28602.44
572.781	28444.75
572.979	28043.35
573.177	28049.49
573.376	27904.09
573.574	27529.31
573.772	28350.54
573.971	27336.8
574.169	27218.02
574.367	27201.63
574.565	27496.54
574.763	27134.05
574.962	27484.25
575.16	26962.02
575.358	27166.82
575.556	26847.33
575.754	26798.18
575.952	26341.49
576.151	26970.21
576.349	26224.75
576.547	26212.46
576.745	26452.08
576.943	26486.89
577.141	26214.51
577.339	26030.19
577.537	25931.89
577.735	26108.02
577.933	25751.67
578.131	26046.58
578.329	25524.35
578.527	25172.1
578.725	25696.38
578.923	25235.58
579.121	25294.97
579.319	25297.02
579.516	25067.65
579.714	25413.76
579.912	25096.32
580.11	25030.79
580.308	25032.83
580.506	24643.72
580.704	24479.88
580.901	24905.86
581.099	24854.66
581.297	24598.66
581.495	24334.48
581.692	24397.96
581.89	24205.45
582.088	24418.44
582.285	23900.31
582.483	24002.71
582.681	23957.65
582.878	24049.81
583.076	23693.46
583.274	23672.98
583.471	23603.35
583.669	23580.82
583.866	23355.55
584.064	23611.54
584.262	23179.42
584.459	23437.47
584.657	23189.66
584.854	23437.47
585.052	22704.29
585.249	23087.26
585.447	22968.48
585.644	22513.83
585.841	22821.03
586.039	22943.91
586.236	22612.13
586.434	22458.54
586.631	22476.97
586.828	22319.28
587.026	22567.08
587.223	22210.73
587.42	22026.42
587.618	22329.52
587.815	21758.13
588.012	21827.76
588.21	21848.24
588.407	21792.95
588.604	21579.96
588.801	21528.76
588.999	21790.9
589.196	21606.58
589.393	21354.68
589.59	21463.22
589.787	21315.77
589.984	21006.53
590.182	21108.93
590.379	21176.51
590.576	21004.48
590.773	21098.69
590.97	20969.66
591.167	21176.51
591.364	20654.28
591.561	20687.04
591.758	20678.85
591.955	20476.1
592.152	20740.29
592.349	20713.67
592.546	20531.4
592.743	20496.58
592.94	20222.16
593.137	20392.14
593.334	20156.62
593.531	20000.97
593.727	20179.15
593.924	20285.64
594.121	19658.96
594.318	20101.33
594.515	19773.65
594.712	20066.51
594.908	19960.02
595.105	19390.68
595.302	19579.09
595.499	19577.05
595.696	19445.98
595.892	19321.05
596.089	19398.87
596.286	19437.78
596.482	19120.35
596.679	19208.41
596.876	19185.88
597.072	19067.1
597.269	18823.39
597.466	18786.53
597.662	18553.06
597.859	18970.85
598.055	18843.87
598.252	18581.73
598.448	18620.64
598.645	18411.75
598.841	18395.37
599.038	18688.23
599.234	18417.89
599.431	18051.31
599.627	18211.05
599.824	18389.22
600.02	18084.08
600.217	18057.45
600.413	17993.97
600.609	18145.52
600.806	17752.31
601.002	17883.38
601.198	17889.52
601.395	17731.83
601.591	17500.4
601.787	17627.38
601.984	17547.51
602.18	17873.14
602.376	17529.08
602.572	17584.37
602.769	17596.66
602.965	17113.34
603.161	17443.06
603.357	17086.72
603.553	17219.83
603.75	17010.94
603.946	17021.18
604.142	17000.7
604.338	16748.8
604.534	17062.14
604.73	16693.51
604.926	16544
605.122	16656.64
605.318	16611.59
605.514	16509.19
605.71	16390.41
605.906	16566.53
606.102	16179.47
606.298	16488.71
606.494	16384.26
606.69	16357.64
606.886	16417.03
607.082	15991.05
607.278	16304.39
607.474	15933.71
607.67	16265.48
607.866	15769.87
608.062	16040.2
608.257	15575.31
608.453	15927.56
608.649	15802.64
608.845	15759.63
609.041	15855.89
609.236	15827.21
609.432	15683.86
609.628	15749.39
609.824	15515.92
610.019	15546.64
610.215	15378.71
610.411	15546.64
610.606	15352.09
610.802	15517.97
610.998	15477.01
611.193	15091.99
611.389	15425.81
611.584	15214.87
611.78	15059.23
611.976	14969.12
612.171	15356.18
612.367	15024.41
612.562	14962.97
612.758	15165.72
612.953	14752.03
613.149	15135
613.344	14778.65
613.539	15085.85
613.735	14889.24
613.93	14735.65
614.126	14657.82
614.321	14663.97
614.517	14510.37
614.712	14790.94
614.907	14446.88
615.103	14416.16
615.298	14403.88
615.493	14569.76
615.688	14209.32
615.884	14682.4
616.079	14321.96
616.274	14324.01
616.47	14405.92
616.665	14403.88
616.86	14321.96
617.055	14219.56
617.25	13959.47
617.445	14182.7
617.641	14102.82
617.836	14000.43
618.031	13748.53
618.226	14137.64
618.421	13926.7
618.616	13981.99
618.811	13943.08
619.006	13764.91
619.201	13584.69
619.396	13801.77
619.591	13293.88
619.786	13803.82
619.981	13406.52
620.176	13809.97
620.371	13263.16
620.566	13347.12
620.761	13427
620.956	13359.41
621.151	13037.88
621.346	13230.39
621.541	12933.43
621.735	13015.35
621.93	12783.93
622.125	12788.03
622.32	12575.04
622.515	12486.98
622.709	12511.55
622.904	12347.72
623.099	12482.88
623.294	12532.03
623.488	12351.81
623.683	12210.5
623.878	12425.54
624.072	12314.95
624.267	12282.18
624.462	12185.93
624.656	11983.18
624.851	11962.7
625.046	11749.71
625.24	11897.16
625.435	11874.63
625.629	11628.88
625.824	11696.46
626.018	11483.47
626.213	11233.62
626.407	11573.58
626.602	11370.83
626.796	11188.57
626.991	11458.9
627.185	11075.93
627.38	11184.47
627.574	11127.13
627.768	10944.86
627.963	10881.37
628.157	10678.62
628.352	10643.81
628.546	10826.07
628.74	10830.17
628.935	10563.93
629.129	10676.57
629.323	10504.54
629.517	10467.68
629.712	10510.69
629.906	10400.1
630.1	10211.68
630.294	10094.95
630.489	10426.72
630.683	10283.36
630.877	9916.78
631.071	10082.66
631.265	10168.68
631.459	9980.26
631.653	9787.75
631.848	9886.06
632.042	9783.66
632.236	9849.19
632.43	9513.33
632.624	9638.25
632.818	9675.12
633.012	9492.85
633.206	9560.43
633.4	9638.25
633.594	9310.58
633.788	9339.25
633.982	9130.36
634.176	9359.73
634.369	9101.69
634.563	9070.97
634.757	9064.82
634.951	9220.47
635.145	9056.63
635.339	9081.21
635.533	8894.84
635.726	8874.36
635.92	8626.56
636.114	8696.19
636.308	8769.91
636.501	8681.85
636.695	8630.65
636.889	8518.01
637.083	8499.58
637.276	8425.86
637.47	8446.34
637.664	8350.08
637.857	8251.78
638.051	8245.63
638.244	8157.57
638.438	8122.76
638.632	7946.63
638.825	7905.67
639.019	7958.92
639.212	7907.72
639.406	7926.15
639.599	7946.63
639.793	7924.1
639.986	7682.44
640.18	7745.93
640.373	7833.99
640.567	7645.58
640.76	7600.52
640.954	7524.75
641.147	7461.26
641.34	7553.42
641.534	7510.41
641.727	7342.48
641.92	7377.3
642.114	7334.29
642.307	7307.66
642.5	7211.41
642.694	7059.86
642.887	7219.6
643.08	7182.74
643.273	7035.28
643.467	7264.66
643.66	6885.78
643.853	6965.65
644.046	7090.58
644.239	6975.89
644.432	6703.51
644.626	6656.41
644.819	6738.33
645.012	6844.82
645.205	6670.75
645.398	6803.86
645.591	6652.31
645.784	6582.68
645.977	6351.26
646.17	6615.45
646.363	6259.1
646.556	6459.81
646.749	6441.37
646.942	6480.29
647.135	6433.18
647.328	6310.3
647.521	6246.82
647.714	6281.63
647.907	6218.15
648.099	6015.4
648.292	6302.11
648.485	6105.51
648.678	6119.84
648.871	5917.09
649.064	5992.87
649.256	6082.98
649.449	5951.91
649.642	5872.04
649.835	5824.94
650.027	5958.05
650.22	5859.75
650.413	5745.06
650.605	5861.8
650.798	5761.45
650.991	5558.7
651.183	5779.88
651.376	5650.86
651.568	5761.45
651.761	5538.22
651.954	5540.27
652.146	5548.46
652.339	5470.64
652.531	5493.16
652.724	5474.73
652.916	5351.85
653.109	5302.7
653.301	5450.16
653.494	5470.64
653.686	5349.81
653.879	5437.87
654.071	5271.98
654.263	5130.67
654.456	5249.46
654.648	5280.18
654.84	5181.87
655.033	4987.32
655.225	5126.58
655.417	5058.99
655.61	5026.23
655.802	4897.21
655.994	4938.16
656.186	4977.08
656.379	5015.99
656.571	4972.98
656.763	4725.18
656.955	4956.6
657.148	4895.16
657.34	4848.05
657.532	4690.36
657.724	4880.82
657.916	4784.57
658.108	4686.26
658.3	4700.6
658.492	4762.04
658.684	4542.91
658.876	4682.17
659.068	4571.58
659.26	4387.26
659.452	4460.99
659.644	4673.98
659.836	4547
660.028	4667.83
660.22	4473.28
660.412	4477.37
660.604	4471.23
660.796	4481.47
660.988	4475.32
661.18	4256.19
661.372	4377.02
661.563	4391.36
661.755	4293.05
661.947	4338.11
662.139	4311.49
662.331	4182.46
662.522	4172.22
662.714	4217.28
662.906	4229.57
663.097	4129.22
663.289	4133.31
663.481	4141.5
663.673	4084.16
663.864	4143.55
664.056	4073.92
664.247	3955.14
664.439	4159.94
664.631	4000.19
664.822	4053.44
665.014	3977.67
665.205	3987.91
665.397	3926.47
665.588	4014.53
665.78	4057.54
665.971	3944.9
666.163	4035.01
666.354	3774.92
666.546	3885.51
666.737	3903.94
666.929	3772.87
667.12	3795.4
667.311	3738.05
667.503	3738.05
667.694	3811.78
667.885	3832.26
668.077	3846.6
668.268	3600.84
668.459	3748.29
668.651	3729.86
668.842	3748.29
669.033	3637.7
669.224	3654.09
669.416	3873.22
669.607	3729.86
669.798	3707.34
669.989	3893.7
670.18	3676.62
670.371	3680.71
670.563	3594.7
670.754	3748.29
670.945	3672.52
671.136	3582.41
671.327	3643.85
671.518	3523.02
671.709	3684.81
671.9	3602.89
672.091	3658.18
672.282	3566.03
672.473	3523.02
672.664	3520.97
672.855	3602.89
673.046	3660.23
673.237	3635.66
673.428	3668.42
673.619	3578.31
673.809	3516.87
674	3613.13
674.191	3561.93
674.382	3441.1
674.573	3629.51
674.764	3506.63
674.954	3623.37
675.145	3449.29
675.336	3490.25
675.527	3631.56
675.717	3729.86
675.908	3381.71
676.099	3465.68
676.289	3666.38
676.48	3541.45
676.671	3437
676.861	3482.06
677.052	3627.46
677.243	3428.81
677.433	3625.42
677.624	3549.64
677.814	3580.36
678.005	3516.87
678.195	3576.27
678.386	3664.33
678.576	3469.77
678.767	3455.44
678.957	3504.59
679.148	3568.07
679.338	3541.45
679.529	3467.72
679.719	3455.44
679.909	3690.95
680.1	3547.59
680.29	3469.77
680.481	3539.4
680.671	3484.11
680.861	3527.11
681.052	3629.51
681.242	3463.63
681.432	3631.56
681.622	3578.31
681.813	3484.11
682.003	3420.62
682.193	3580.36
682.383	3627.46
682.573	3672.52
682.764	3641.8
682.954	3629.51
683.144	3615.18
683.334	3574.22
683.524	3559.88
683.714	3551.69
683.904	3508.68
684.094	3643.85
684.284	3527.11
684.474	3621.32
684.664	3590.6
684.854	3680.71
685.044	3523.02
685.234	3549.64
685.424	3656.14
685.614	3498.44
685.804	3549.64
685.994	3600.84
686.184	3621.32
686.374	3619.27
686.564	3486.15
686.753	3510.73
686.943	3490.25
687.133	3402.19
687.323	3451.34
687.513	3498.44
687.702	3447.24
687.892	3406.28
688.082	3404.24
688.272	3578.31
688.461	3412.43
688.651	3437
688.841	3320.27
689.03	3482.06
689.22	3348.94
689.41	3385.8
689.599	3350.99
689.789	3256.78
689.979	3267.02
690.168	3277.26
690.358	3344.84
690.547	3254.73
690.737	3310.03
690.926	3236.3
691.116	3205.58
691.305	3248.59
691.495	3152.34
691.684	3135.95
691.874	3144.14
692.063	3074.51
692.252	3119.57
692.442	3258.83
692.631	2988.5
692.82	3086.8
693.01	3027.41
693.199	3031.51
693.388	2996.69
693.578	3006.93
693.767	3035.6
693.956	3078.61
694.146	3051.99
694.335	2982.35
694.524	2906.58
694.713	3152.34
694.902	2896.34
695.092	3043.79
695.281	3011.03
695.47	3004.88
695.659	2929.11
695.848	2978.26
696.037	2984.4
696.226	2961.87
696.415	2886.1
696.604	2920.92
696.793	2806.23
696.982	2927.06
697.171	2939.35
697.36	2898.39
697.549	2925.01
697.738	2863.57
697.927	2879.96
698.116	2822.61
698.305	2830.8
698.494	2871.76
698.683	2812.37
698.872	2922.96
699.061	2843.09
699.25	2855.38
699.438	2836.95
699.627	2949.59
699.816	2871.76
700.005	2925.01
700.193	2939.35
700.382	2927.06
700.571	2884.05
700.76	2865.62
700.948	2882
701.137	2970.07
701.326	2976.21
701.514	2875.86
701.703	2884.05
701.892	2922.96
702.08	3076.56
702.269	2845.14
702.457	3045.84
702.646	2853.33
702.834	2898.39
703.023	2902.48
703.212	2859.48
703.4	2984.4
703.589	2970.07
703.777	2814.42
703.965	2918.87
704.154	3031.51
704.342	2974.16
704.531	3006.93
704.719	2957.78
704.907	3033.55
705.096	2886.1
705.284	3029.46
705.472	3068.37
705.661	3049.94
705.849	2945.49
706.037	2968.02
706.226	3006.93
706.414	3039.7
706.602	2957.78
706.79	2877.91
706.979	2863.57
707.167	3146.19
707.355	3004.88
707.543	2900.44
707.731	3074.51
707.919	3162.58
708.107	3006.93
708.296	2972.11
708.484	3156.43
708.672	2972.11
708.86	3090.9
709.048	3138
709.236	3070.42
709.424	3064.27
709.612	3058.13
709.8	3068.37
709.988	2982.35
710.176	3183.06
710.364	3088.85
710.551	3064.27
710.739	3174.86
710.927	3074.51
711.115	3166.67
711.303	3221.97
711.491	3090.9
711.679	3092.94
711.866	3094.99
712.054	3205.58
712.242	3054.03
712.43	3258.83
712.617	3199.44
712.805	3056.08
712.993	3127.76
713.181	3127.76
713.368	3131.86
713.556	3123.66
713.744	2982.35
713.931	3254.73
714.119	3207.63
714.306	3242.45
714.494	3193.3
714.682	3183.06
714.869	3250.64
715.057	3246.54
715.244	3160.53
715.432	3369.42
715.619	3228.11
715.807	3189.2
715.994	3226.06
716.182	3224.01
716.369	3414.48
716.556	3512.78
716.744	3174.86
716.931	3246.54
717.119	3353.04
717.306	3199.44
717.493	3217.87
717.681	3226.06
717.868	3279.31
718.055	3236.3
718.242	3385.8
718.43	3355.08
718.617	3439.05
718.804	3391.95
718.991	3340.75
719.179	3226.06
719.366	3455.44
719.553	3402.19
719.74	3350.99
719.927	3367.37
720.114	3305.93
720.301	3250.64
720.488	3303.89
720.676	3457.48
720.863	3510.73
721.05	3492.3
721.237	3475.91
721.424	3480.01
721.611	3570.12
721.798	3473.87
721.985	3502.54
722.172	3439.05
722.358	3426.76
722.545	3473.87
722.732	3430.86
722.919	3477.96
723.106	3484.11
723.293	3305.93
723.48	3561.93
723.667	3606.98
723.853	3594.7
724.04	3549.64
724.227	3723.72
724.414	3627.46
724.6	3498.44
724.787	3459.53
724.974	3631.56
725.161	3703.24
725.347	3502.54
725.534	3578.31
725.72	3623.37
725.907	3445.2
726.094	3674.57
726.28	3588.55
726.467	3547.59
726.653	3647.94
726.84	3611.08
727.027	3686.86
727.213	3549.64
727.4	3604.94
727.586	3578.31
727.773	3711.43
727.959	3658.18
728.145	3768.77
728.332	3656.14
728.518	3656.14
728.705	3729.86
728.891	3756.49
729.077	3627.46
729.264	3723.72
729.45	3701.19
729.636	3764.68
729.823	3715.53
730.009	3727.82
730.195	3682.76
730.382	3781.06
730.568	3717.58
730.754	3580.36
730.94	3758.53
731.126	3738.05
731.313	3649.99
731.499	3693
731.685	3811.78
731.871	3805.64
732.057	3828.17
732.243	3742.15
732.429	3858.89
732.615	3768.77
732.801	3860.93
732.987	3697.1
733.173	3893.7
733.359	3701.19
733.545	3846.6
733.731	3764.68
733.917	3920.32
734.103	3914.18
734.289	3774.92
734.475	3725.77
734.661	3908.04
734.847	3762.63
735.033	3817.93
735.219	3799.49
735.404	3785.16
735.59	3836.36
735.776	3817.93
735.962	3897.8
736.148	3957.19
736.333	3881.41
736.519	3850.69
736.705	3850.69
736.89	3895.75
737.076	3867.08
737.262	3783.11
737.447	3848.65
737.633	3797.45
737.819	3774.92
738.004	3731.91
738.19	3856.84
738.375	3703.24
738.561	3867.08
738.747	3754.44
738.932	3729.86
739.118	3752.39
739.303	3738.05
739.489	3684.81
739.674	3776.97
739.859	3770.82
740.045	3762.63
740.23	3678.66
740.416	3758.53
740.601	3858.89
740.786	3695.05
740.972	3647.94
741.157	3693
741.342	3586.51
741.528	3719.62
741.713	3803.59
741.898	3647.94
742.084	3602.89
742.269	3768.77
742.454	3776.97
742.639	3752.39
742.824	3570.12
743.01	3682.76
743.195	3629.51
743.38	3568.07
743.565	3615.18
743.75	3629.51
743.935	3561.93
744.12	3570.12
744.305	3502.54
744.49	3621.32
744.675	3496.39
744.86	3387.85
745.045	3523.02
745.23	3441.1
745.415	3439.05
745.6	3535.31
745.785	3525.07
745.97	3527.11
746.155	3480.01
746.34	3469.77
746.525	3389.9
746.71	3404.24
746.895	3348.94
747.079	3299.79
747.264	3287.5
747.449	3303.89
747.634	3408.33
747.819	3297.74
748.003	3140.05
748.188	3305.93
748.373	3303.89
748.557	3123.66
748.742	3011.03
748.927	3129.81
749.111	3111.38
749.296	3168.72
749.481	3166.67
749.665	3115.47
749.85	3066.32
750.034	3029.46
750.219	3111.38
750.404	3008.98
750.588	2939.35
750.773	2951.63
750.957	2906.58
751.141	2851.28
751.326	2910.68
751.51	2836.95
751.695	2908.63
751.879	2757.08
752.064	2961.87
752.248	2855.38
752.432	2834.9
752.617	2873.81
752.801	2904.53
752.985	2724.31
753.17	2781.65
753.354	2714.07
753.538	2630.1
753.722	2763.22
753.907	2527.71
754.091	2798.04
754.275	2607.58
754.459	2595.29
754.643	2470.36
754.828	2632.15
755.012	2505.18
755.196	2466.27
755.38	2587.1
755.564	2462.17
755.748	2499.03
755.932	2539.99
756.116	2466.27
756.3	2501.08
756.484	2324.96
756.668	2515.42
756.852	2482.65
757.036	2359.77
757.22	2337.24
757.404	2310.62
757.588	2376.16
757.772	2288.09
757.956	2279.9
758.14	2290.14
758.323	2206.17
758.507	2052.58
758.691	2238.94
758.875	2243.04
759.059	2255.33
759.242	2218.46
759.426	2193.89
759.61	2179.55
759.794	2261.47
759.977	2240.99
760.161	2173.41
760.345	2167.26
760.528	2167.26
760.712	2103.78
760.895	2083.3
761.079	2013.67
761.263	2128.35
761.446	2054.62
761.63	2101.73
761.813	2089.44
761.997	2011.62
762.18	2028
762.364	1974.75
762.547	2028
762.731	1935.84
762.914	1972.71
763.098	1882.6
763.281	1858.02
763.464	1939.94
763.648	1911.27
763.831	1884.64
764.015	1786.34
764.198	1821.16
764.381	1847.78
764.564	1872.36
764.748	1880.55
764.931	1870.31
765.114	1870.31
765.297	1972.71
765.481	1806.82
765.664	1772
765.847	1894.88
766.03	1804.77
766.213	1739.24
766.397	1772
766.58	1665.51
766.763	1681.89
766.946	1731.05
767.129	1739.24
767.312	1690.09
767.495	1708.52
767.678	1720.81
767.861	1665.51
768.044	1712.61
768.227	1716.71
768.41	1649.13
768.593	1776.1
768.776	1683.94
768.959	1685.99
769.142	1790.44
769.324	1606.12
769.507	1632.74
769.69	1622.5
769.873	1616.36
770.056	1712.61
770.239	1546.73
770.421	1636.84
770.604	1651.17
770.787	1550.82
770.97	1552.87
771.152	1501.67
771.335	1493.48
771.518	1509.86
771.7	1483.24
771.883	1556.97
772.066	1577.45
772.248	1509.86
772.431	1532.39
772.613	1505.77
772.796	1419.75
772.978	1415.66
773.161	1448.43
773.343	1481.19
773.526	1323.5
773.708	1389.03
773.891	1397.23
774.073	1419.75
774.256	1290.73
774.438	1454.57
774.621	1339.88
774.803	1303.02
774.985	1266.16
775.168	1370.6
775.35	1278.44
775.532	1339.88
775.715	1303.02
775.897	1260.01
776.079	1333.74
776.261	1288.68
776.444	1325.55
776.626	1208.81
776.808	1237.49
776.99	1260.01
777.173	1294.83
777.355	1169.9
777.537	1241.58
777.719	1133.04
777.901	1139.18
778.083	1159.66
778.265	1217.01
778.447	1227.25
778.629	1059.31
778.811	1163.76
778.993	1108.46
779.175	1165.81
779.357	1055.22
779.539	1059.31
779.721	1167.85
779.903	1098.22
780.085	1012.21
780.267	1053.17
780.449	1018.35
780.631	1102.32
780.812	1053.17
780.994	1044.98
781.176	1063.41
781.358	1090.03
781.54	950.77
781.721	1006.06
781.903	1108.46
782.085	981.49
782.267	991.73
782.448	934.39
782.63	920.05
782.812	897.52
782.993	969.2
783.175	1051.12
783.357	924.15
783.538	979.44
783.72	827.89
783.901	868.85
784.083	889.33
784.264	840.18
784.446	889.33
784.627	860.66
784.809	799.22
784.99	838.13
785.172	778.74
785.353	844.28
785.535	895.47
785.716	760.31
785.897	743.92
786.079	772.6
786.26	780.79
786.441	629.24
786.623	762.36
786.804	717.3
786.985	745.97
787.167	797.17
787.348	715.25
787.529	774.64
787.71	721.4
787.891	752.12
788.073	623.09
788.254	647.67
788.435	745.97
788.616	668.15
788.797	651.77
788.978	739.83
789.159	664.05
789.34	727.54
789.522	702.97
789.703	662.01
789.884	623.09
790.065	635.38
790.246	680.44
790.427	631.29
790.607	676.34
790.788	682.49
790.969	690.68
791.15	688.63
791.331	612.85
791.512	639.48
791.693	592.37
791.874	600.57
792.054	666.1
792.235	555.51
792.416	524.79
792.597	516.6
792.778	588.28
792.958	645.62
793.139	551.42
793.32	539.13
793.5	508.41
793.681	520.7
793.862	563.7
794.042	600.57
794.223	535.03
794.404	647.67
794.584	537.08
794.765	481.78
794.945	526.84
795.126	616.95
795.306	508.41
795.487	483.83
795.667	453.11
795.848	510.46
796.028	545.27
796.209	483.83
796.389	510.46
796.57	395.77
796.75	498.17
796.93	535.03
797.111	520.7
797.291	401.91
797.471	436.73
797.652	475.64
797.832	496.12
798.012	469.5
798.192	438.78
798.373	393.72
798.553	436.73
798.733	508.41
798.913	410.11
799.093	475.64
799.274	449.02
799.454	453.11
799.634	440.83
799.814	467.45
799.994	408.06
800.174	469.5
800.354	449.02
800.534	371.19
800.714	371.19
800.894	387.58
801.074	424.44
801.254	403.96
801.434	440.83
801.614	399.87
801.794	338.43
801.974	1188.33
802.154	440.83
802.334	399.87
802.514	346.62
802.693	332.28
802.873	332.28
803.053	403.96
803.233	358.91
803.413	332.28
803.592	358.91
803.772	313.85
803.952	373.24
804.131	401.91
804.311	377.34
804.491	342.52
804.67	328.19
804.85	377.34
805.03	387.58
805.209	338.43
805.389	334.33
805.568	326.14
805.748	340.47
805.928	301.56
806.107	379.39
806.287	287.23
806.466	375.29
806.646	328.19
806.825	338.43
807.004	377.34
807.184	455.16
807.363	451.07
807.543	264.7
807.722	342.52
807.901	383.48
808.081	377.34
808.26	313.85
808.439	418.3
808.619	336.38
808.798	289.28
808.977	313.85
809.156	420.35
809.336	389.63
809.515	299.52
809.694	328.19
809.873	242.17
810.052	371.19
810.231	342.52
810.411	281.08
810.59	340.47
810.769	291.32
810.948	328.19
811.127	276.99
811.306	250.36
811.485	287.23
811.664	305.66
811.843	248.32
812.022	313.85
812.201	328.19
812.38	340.47
812.559	233.98
812.737	299.52
812.916	307.71
813.095	258.56
813.274	240.12
813.453	231.93
813.632	268.8
813.811	330.23
813.989	229.88
814.168	270.84
814.347	215.55
814.526	315.9
814.704	313.85
814.883	340.47
815.062	154.11
815.24	305.66
815.419	262.65
815.598	289.28
815.776	193.02
815.955	291.32
816.133	207.36
816.312	199.16
816.49	276.99
816.669	240.12
816.847	231.93
817.026	287.23
817.204	229.88
817.383	160.25
817.561	197.12
817.74	254.46
817.918	258.56
818.097	272.89
818.275	229.88
818.453	195.07
818.632	258.56
818.81	145.92
818.988	135.68
819.167	262.65
819.345	242.17
819.523	264.7
819.701	205.31
819.879	215.55
820.058	168.45
820.236	207.36
820.414	205.31
820.592	258.56
820.77	236.03
820.948	172.54
821.127	250.36
821.305	197.12
821.483	199.16
821.661	297.47
821.839	297.47
822.017	256.51
822.195	205.31
822.373	203.26
822.551	221.69
822.729	231.93
822.907	186.88
823.085	215.55
823.262	111.1
823.44	256.51
823.618	170.49
823.796	135.68
823.974	123.39
824.152	197.12
824.329	137.73
824.507	166.4
824.685	211.45
824.863	197.12
825.04	176.64
825.218	227.84
825.396	115.2
825.574	182.78
825.751	156.16
825.929	186.88
826.107	96.77
826.284	162.3
826.462	121.34
826.639	109.05
826.817	178.69
826.994	137.73
827.172	156.16
827.349	221.69
827.527	182.78
827.704	145.92
827.882	242.17
828.059	213.5
828.237	113.15
828.414	229.88
828.591	125.44
828.769	143.87
828.946	115.2
829.124	164.35
829.301	135.68
829.478	176.64
829.655	154.11
829.833	107.01
830.01	133.63
830.187	141.82
830.364	195.07
830.542	141.82
830.719	197.12
830.896	107.01
831.073	102.91
831.25	203.26
831.427	215.55
831.604	123.39
831.782	203.26
831.959	80.38
832.136	131.58
832.313	166.4
832.49	137.73
832.667	76.29
832.844	143.87
833.021	135.68
833.198	201.21
833.374	125.44
833.551	57.86
833.728	143.87
833.905	123.39
834.082	123.39
834.259	141.82
834.436	119.29
834.612	168.45
834.789	145.92
834.966	98.81
835.143	104.96
835.319	57.86
835.496	184.83
835.673	123.39
835.85	125.44
836.026	166.4
836.203	150.01
836.38	59.9
836.556	121.34
836.733	121.34
836.909	205.31
837.086	109.05
837.262	111.1
837.439	117.25
837.616	139.77
837.792	109.05
837.968	88.57
838.145	20.99
838.321	55.81
838.498	96.77
838.674	92.67
838.851	152.06
839.027	84.48
839.203	45.57
839.38	86.53
839.556	-52.74
839.732	102.91
839.909	98.81
840.085	109.05
840.261	-38.4
840.437	70.14
840.614	86.53
840.79	59.9
840.966	66.05
841.142	115.2
841.318	90.62
841.494	131.58
841.671	166.4
841.847	72.19
842.023	78.33
842.199	57.86
842.375	76.29
842.551	74.24
842.727	25.09
842.903	178.69
843.079	104.96
843.255	190.97
843.431	74.24
843.607	55.81
843.783	-60.93
843.959	133.63
844.134	23.04
844.31	141.82
844.486	74.24
844.662	111.1
844.838	94.72
845.013	139.77
845.189	111.1
845.365	123.39
845.541	51.71
845.716	8.7
845.892	125.44
846.068	127.49
846.244	4.61
846.419	88.57
846.595	102.91
846.77	150.01
846.946	88.57
847.122	2.56
847.297	66.05
847.473	111.1
847.648	29.18
847.824	23.04
847.999	0.51
848.175	55.81
848.35	72.19
848.526	98.81
848.701	111.1
848.876	47.62
849.052	111.1
849.227	129.53
849.403	109.05
849.578	84.48
849.753	98.81
849.929	117.25
850.104	68.09
850.279	80.38
850.454	113.15
850.63	94.72
850.805	70.14
850.98	53.76
851.155	125.44
851.33	66.05
851.505	43.52
851.681	125.44
851.856	57.86
852.031	100.86
852.206	33.28
852.381	59.9
852.556	119.29
852.731	45.57
852.906	78.33
853.081	53.76
853.256	84.48
853.431	92.67
853.606	47.62
853.781	59.9
853.956	-9.73
854.131	88.57
854.305	-19.97
854.48	51.71
854.655	27.14
854.83	-7.68
855.005	72.19
855.18	96.77
855.354	92.67
855.529	117.25
855.704	51.71
855.879	121.34
856.053	-9.73
856.228	-19.97
856.403	-1.54
856.577	-9.73
856.752	74.24
856.926	104.96
857.101	-5.63
857.276	51.71
857.45	39.42
857.625	72.19
857.799	43.52
857.974	57.86
858.148	4.61
858.323	98.81
858.497	61.95
858.672	47.62
858.846	-28.16
859.02	66.05
859.195	47.62
859.369	-11.78
859.543	45.57
859.718	27.14
859.892	55.81
860.066	10.75
860.241	-5.63
860.415	47.62
860.589	82.43
860.763	33.28
860.938	2.56
861.112	55.81
861.286	-9.73
861.46	84.48
861.634	39.42
861.808	61.95
861.982	-17.92
862.157	33.28
862.331	20.99
862.505	-9.73
862.679	57.86
862.853	41.47
863.027	10.75
863.201	111.1
863.375	-3.58
863.549	27.14
863.722	84.48
863.896	35.33
864.07	64
864.244	10.75
864.418	102.91
864.592	2.56
864.766	39.42
864.939	39.42
865.113	-40.45
865.287	133.63
865.461	76.29
865.634	-17.92
865.808	84.48
865.982	-3.58
866.156	31.23
866.329	47.62
866.503	-5.63
866.676	41.47
866.85	23.04
867.024	8.7
867.197	59.9
867.371	76.29
867.544	57.86
867.718	0.51
867.891	76.29
868.065	-26.11
868.238	39.42
868.412	82.43
868.585	53.76
868.759	-26.11
868.932	39.42
869.105	-22.02
869.279	23.04
869.452	-9.73
869.625	35.33
869.799	-5.63
869.972	53.76
870.145	25.09
870.319	64
870.492	18.94
870.665	25.09
870.838	16.9
871.011	-13.82
871.185	-3.58
871.358	45.57
871.531	10.75
871.704	-30.21
871.877	27.14
872.05	109.05
872.223	-50.69
872.396	133.63
872.569	45.57
872.742	-79.36
872.915	14.85
873.088	-15.87
873.261	-17.92
873.434	55.81
873.607	-58.88
873.78	74.24
873.953	-87.55
874.126	-9.73
874.299	-17.92
874.471	18.94
874.644	14.85
874.817	16.9
874.99	35.33
875.163	-3.58
875.335	-44.54
875.508	6.66
875.681	41.47
875.853	-48.64
876.026	29.18
876.199	55.81
876.371	-11.78
876.544	-28.16
876.717	18.94
876.889	16.9
877.062	80.38
877.234	18.94
877.407	23.04
877.579	-36.35
877.752	51.71
877.924	96.77
878.097	31.23
878.269	78.33
878.442	76.29
878.614	107.01
878.786	41.47
878.959	25.09
879.131	25.09
879.303	-15.87
879.476	-19.97
879.648	45.57
879.82	-5.63
879.993	-7.68
880.165	20.99
880.337	-60.93
880.509	2.56
880.681	-75.26
880.854	20.99
881.026	41.47
881.198	45.57
881.37	18.94
881.542	43.52
881.714	33.28
881.886	25.09
882.058	35.33
882.23	-54.78
882.402	-36.35
882.574	25.09
882.746	18.94
882.918	125.44
883.09	4.61
883.262	27.14
883.434	70.14
883.606	-36.35
883.778	-7.68
883.95	8.7
884.122	35.33
884.293	78.33
884.465	0.51
884.637	72.19
884.809	10.75
884.98	29.18
885.152	16.9
885.324	25.09
885.496	33.28
885.667	33.28
885.839	-1.54
886.011	-3.58
886.182	-36.35
886.354	51.71
886.525	-50.69
886.697	10.75
886.869	-48.64
887.04	-5.63
887.212	141.82
887.383	2.56
887.555	57.86
887.726	-69.12
887.897	10.75
888.069	117.25
888.24	57.86
888.412	8.7
888.583	-54.78
888.754	6.66
888.926	33.28
889.097	4.61
889.268	-62.98
889.44	104.96
889.611	8.7
889.782	-85.5
889.953	23.04
890.125	51.71
890.296	-28.16
890.467	-60.93
890.638	57.86
890.809	31.23
890.98	-7.68
891.151	33.28
891.323	55.81
891.494	25.09
891.665	78.33
891.836	51.71
892.007	-38.4
892.178	-26.11
892.349	12.8
892.52	-32.26
892.691	27.14
892.862	14.85
893.032	-62.98
893.203	-32.26
893.374	-22.02
893.545	33.28
893.716	-46.59
893.887	70.14
894.057	-26.11
894.228	37.38
894.399	55.81
894.57	78.33
894.74	-58.88
894.911	0.51
895.082	-34.3
895.253	49.66
895.423	10.75
895.594	-3.58
895.764	0.51
895.935	-11.78
896.106	27.14
896.276	55.81
896.447	27.14
896.617	-13.82
896.788	-36.35
896.958	45.57
897.129	-15.87
897.299	14.85
897.47	41.47
897.64	84.48
897.81	-42.5
897.981	-9.73
898.151	-11.78
898.322	70.14
898.492	70.14
898.662	20.99
898.832	16.9
899.003	-30.21
899.173	70.14
899.343	-108.03
899.513	2.56
