Data from USB4F104151__7__12-23-19-964.txt Node

Date: Fri Mar 14 12:23:19 EDT 2025
User: louis
Spectrometer: USB4F10415
Trigger mode: 4
Integration Time (sec): 3.500000E-2
Scans to average: 1
Electric dark correction enabled: true
Nonlinearity correction enabled: false
Boxcar width: 0
XAxis mode: Wavelengths
Number of Pixels in Spectrum: 3648
>>>>>Begin Spectral Data<<<<<
178.204	-131.92
178.424	-131.92
178.644	-131.92
178.864	-183.12
179.084	-105.3
179.304	40.11
179.524	13.48
179.744	-70.48
179.964	23.72
180.184	-2.9
180.404	-15.19
180.624	48.3
180.844	-62.29
181.064	17.58
181.283	15.53
181.503	-0.85
181.723	-7
181.943	-17.24
182.163	54.44
182.383	27.82
182.602	17.58
182.822	105.64
183.042	52.39
183.262	36.01
183.482	11.43
183.701	-19.29
183.921	-7
184.141	25.77
184.361	33.96
184.58	54.44
184.8	64.68
185.02	-29.52
185.239	23.72
185.459	11.43
185.679	52.39
185.898	-82.77
186.118	70.83
186.338	33.96
186.557	17.58
186.777	38.06
186.997	1.19
187.216	23.72
187.436	165.03
187.655	19.63
187.875	58.54
188.095	50.35
188.314	-21.33
188.534	74.92
188.753	3.24
188.973	93.35
189.192	83.11
189.412	13.48
189.631	74.92
189.851	48.3
190.07	72.87
190.29	7.34
190.509	5.29
190.729	3.24
190.948	126.12
191.168	156.84
191.387	1.19
191.607	-4.95
191.826	-11.09
192.045	-17.24
192.265	-15.19
192.484	13.48
192.704	7.34
192.923	-45.91
193.142	144.55
193.362	9.39
193.581	5.29
193.8	89.26
194.02	89.26
194.239	40.11
194.458	105.64
194.678	36.01
194.897	-41.81
195.116	60.59
195.335	66.73
195.555	56.49
195.774	-9.05
195.993	-9.05
196.212	-2.9
196.432	33.96
196.651	17.58
196.87	-13.14
197.089	95.4
197.308	36.01
197.528	81.07
197.747	-76.63
197.966	58.54
198.185	42.15
198.404	64.68
198.623	58.54
198.842	13.48
199.062	25.77
199.281	38.06
199.5	50.35
199.719	-11.09
199.938	74.92
200.157	97.45
200.376	52.39
200.595	68.78
200.814	95.4
201.033	72.87
201.252	107.69
201.471	-33.62
201.69	-11.09
201.909	5.29
202.128	56.49
202.347	83.11
202.566	60.59
202.785	1.19
203.004	27.82
203.223	115.88
203.442	21.67
203.661	56.49
203.879	31.91
204.098	85.16
204.317	33.96
204.536	60.59
204.755	29.87
204.974	81.07
205.193	50.35
205.411	122.02
205.63	29.87
205.849	68.78
206.068	5.29
206.287	9.39
206.505	33.96
206.724	97.45
206.943	79.02
207.162	-25.43
207.381	1.19
207.599	9.39
207.818	58.54
208.037	13.48
208.255	60.59
208.474	58.54
208.693	54.44
208.911	29.87
209.13	52.39
209.349	62.63
209.567	-45.91
209.786	64.68
210.005	42.15
210.223	-4.95
210.442	42.15
210.661	25.77
210.879	-15.19
211.098	9.39
211.316	50.35
211.535	74.92
211.753	15.53
211.972	68.78
212.191	50.35
212.409	-27.48
212.628	5.29
212.846	1.19
213.065	124.07
213.283	101.55
213.502	62.63
213.72	-78.68
213.938	-0.85
214.157	64.68
214.375	95.4
214.594	-31.57
214.812	23.72
215.031	62.63
215.249	60.59
215.467	48.3
215.686	64.68
215.904	124.07
216.122	62.63
216.341	50.35
216.559	36.01
216.778	72.87
216.996	85.16
217.214	11.43
217.432	46.25
217.651	42.15
217.869	17.58
218.087	99.5
218.306	38.06
218.524	11.43
218.742	19.63
218.96	44.2
219.179	13.48
219.397	50.35
219.615	101.55
219.833	62.63
220.051	113.83
220.27	74.92
220.488	-4.95
220.706	27.82
220.924	-62.29
221.142	9.39
221.36	-9.05
221.578	1.19
221.796	17.58
222.015	72.87
222.233	140.46
222.451	74.92
222.669	31.91
222.887	-4.95
223.105	15.53
223.323	-47.96
223.541	1.19
223.759	107.69
223.977	-33.62
224.195	87.21
224.413	46.25
224.631	109.74
224.849	87.21
225.067	115.88
225.285	17.58
225.503	-0.85
225.721	-13.14
225.939	27.82
226.157	-7
226.375	99.5
226.592	-43.86
226.81	-2.9
227.028	5.29
227.246	81.07
227.464	48.3
227.682	7.34
227.9	-13.14
228.117	9.39
228.335	21.67
228.553	-17.24
228.771	64.68
228.989	81.07
229.206	33.96
229.424	15.53
229.642	-31.57
229.86	79.02
230.077	60.59
230.295	7.34
230.513	36.01
230.731	113.83
230.948	83.11
231.166	36.01
231.384	23.72
231.601	-35.67
231.819	119.98
232.037	21.67
232.254	-25.43
232.472	-11.09
232.689	-17.24
232.907	46.25
233.125	31.91
233.342	-17.24
233.56	56.49
233.777	11.43
233.995	15.53
234.213	105.64
234.43	60.59
234.648	52.39
234.865	-21.33
235.083	60.59
235.3	68.78
235.518	7.34
235.735	66.73
235.953	97.45
236.17	-2.9
236.388	-17.24
236.605	-13.14
236.822	107.69
237.04	48.3
237.257	7.34
237.475	3.24
237.692	15.53
237.909	29.87
238.127	103.59
238.344	-21.33
238.562	64.68
238.779	27.82
238.996	46.25
239.214	-58.2
239.431	46.25
239.648	48.3
239.865	48.3
240.083	62.63
240.3	-41.81
240.517	-33.62
240.735	15.53
240.952	81.07
241.169	74.92
241.386	60.59
241.603	1.19
241.821	33.96
242.038	72.87
242.255	95.4
242.472	-23.38
242.689	105.64
242.907	111.78
243.124	-15.19
243.341	27.82
243.558	-27.48
243.775	-41.81
243.992	-0.85
244.209	62.63
244.426	70.83
244.643	1.19
244.86	7.34
245.078	21.67
245.295	62.63
245.512	11.43
245.729	-9.05
245.946	11.43
246.163	76.97
246.38	33.96
246.597	40.11
246.814	79.02
247.031	11.43
247.248	-21.33
247.464	-27.48
247.681	42.15
247.898	122.02
248.115	48.3
248.332	-13.14
248.549	44.2
248.766	36.01
248.983	31.91
249.2	38.06
249.417	23.72
249.633	31.91
249.85	25.77
250.067	23.72
250.284	70.83
250.501	113.83
250.717	72.87
250.934	-41.81
251.151	38.06
251.368	56.49
251.585	13.48
251.801	50.35
252.018	-2.9
252.235	107.69
252.451	27.82
252.668	13.48
252.885	23.72
253.102	74.92
253.318	44.2
253.535	7.34
253.752	-7
253.968	-17.24
254.185	-19.29
254.401	42.15
254.618	83.11
254.835	60.59
255.051	132.26
255.268	101.55
255.484	60.59
255.701	62.63
255.917	50.35
256.134	-0.85
256.351	38.06
256.567	3.24
256.784	17.58
257	-66.39
257.217	109.74
257.433	19.63
257.65	21.67
257.866	5.29
258.082	56.49
258.299	15.53
258.515	70.83
258.732	29.87
258.948	58.54
259.165	-41.81
259.381	17.58
259.597	83.11
259.814	-9.05
260.03	-13.14
260.246	74.92
260.463	42.15
260.679	68.78
260.895	27.82
261.112	74.92
261.328	44.2
261.544	60.59
261.761	140.46
261.977	68.78
262.193	9.39
262.409	87.21
262.626	23.72
262.842	23.72
263.058	93.35
263.274	64.68
263.49	7.34
263.707	72.87
263.923	64.68
264.139	-15.19
264.355	27.82
264.571	42.15
264.787	13.48
265.004	7.34
265.22	29.87
265.436	9.39
265.652	81.07
265.868	64.68
266.084	21.67
266.3	17.58
266.516	-33.62
266.732	60.59
266.948	-25.43
267.164	64.68
267.38	48.3
267.596	76.97
267.812	83.11
268.028	105.64
268.244	38.06
268.46	52.39
268.676	11.43
268.892	36.01
269.108	-15.19
269.324	7.34
269.54	-0.85
269.756	89.26
269.972	19.63
270.188	-17.24
270.403	-0.85
270.619	-17.24
270.835	52.39
271.051	9.39
271.267	79.02
271.483	-19.29
271.698	97.45
271.914	31.91
272.13	1.19
272.346	60.59
272.562	85.16
272.777	58.54
272.993	21.67
273.209	15.53
273.425	52.39
273.64	15.53
273.856	46.25
274.072	36.01
274.287	46.25
274.503	83.11
274.719	95.4
274.934	36.01
275.15	-25.43
275.366	42.15
275.581	89.26
275.797	1.19
276.012	15.53
276.228	11.43
276.444	68.78
276.659	115.88
276.875	-0.85
277.09	33.96
277.306	21.67
277.521	87.21
277.737	29.87
277.952	48.3
278.168	29.87
278.383	68.78
278.599	-4.95
278.814	56.49
279.03	103.59
279.245	38.06
279.461	13.48
279.676	101.55
279.892	42.15
280.107	36.01
280.322	54.44
280.538	38.06
280.753	36.01
280.969	1.19
281.184	27.82
281.399	50.35
281.615	42.15
281.83	-17.24
282.045	79.02
282.26	-58.2
282.476	62.63
282.691	48.3
282.906	52.39
283.122	7.34
283.337	15.53
283.552	-15.19
283.767	-33.62
283.983	109.74
284.198	74.92
284.413	56.49
284.628	-23.38
284.843	54.44
285.058	-21.33
285.274	5.29
285.489	-45.91
285.704	46.25
285.919	-39.76
286.134	-0.85
286.349	-4.95
286.564	103.59
286.779	101.55
286.995	19.63
287.21	-21.33
287.425	68.78
287.64	42.15
287.855	76.97
288.07	-13.14
288.285	66.73
288.5	48.3
288.715	68.78
288.93	62.63
289.145	15.53
289.36	76.97
289.575	52.39
289.79	17.58
290.004	-74.58
290.219	109.74
290.434	33.96
290.649	-2.9
290.864	91.31
291.079	25.77
291.294	60.59
291.509	17.58
291.724	13.48
291.938	-68.44
292.153	1.19
292.368	105.64
292.583	27.82
292.798	128.17
293.012	7.34
293.227	7.34
293.442	60.59
293.657	-31.57
293.871	72.87
294.086	36.01
294.301	117.93
294.516	60.59
294.73	-0.85
294.945	15.53
295.16	23.72
295.374	62.63
295.589	56.49
295.804	-17.24
296.018	89.26
296.233	64.68
296.447	66.73
296.662	36.01
296.877	132.26
297.091	19.63
297.306	42.15
297.52	5.29
297.735	-11.09
297.949	-17.24
298.164	97.45
298.378	27.82
298.593	33.96
298.807	11.43
299.022	9.39
299.236	93.35
299.451	23.72
299.665	44.2
299.88	54.44
300.094	70.83
300.309	33.96
300.523	21.67
300.737	5.29
300.952	56.49
301.166	-9.05
301.381	25.77
301.595	52.39
301.809	-35.67
302.024	23.72
302.238	-37.72
302.452	-4.95
302.667	-13.14
302.881	17.58
303.095	68.78
303.309	79.02
303.524	33.96
303.738	60.59
303.952	38.06
304.166	62.63
304.381	-70.48
304.595	27.82
304.809	25.77
305.023	19.63
305.237	-35.67
305.452	42.15
305.666	21.67
305.88	64.68
306.094	46.25
306.308	5.29
306.522	1.19
306.736	27.82
306.95	95.4
307.164	15.53
307.379	-27.48
307.593	7.34
307.807	124.07
308.021	76.97
308.235	7.34
308.449	-66.39
308.663	11.43
308.877	138.41
309.091	85.16
309.305	38.06
309.519	-13.14
309.733	58.54
309.947	-52.05
310.161	48.3
310.374	136.36
310.588	50.35
310.802	54.44
311.016	50.35
311.23	79.02
311.444	15.53
311.658	29.87
311.872	58.54
312.085	15.53
312.299	136.36
312.513	72.87
312.727	54.44
312.941	-2.9
313.154	109.74
313.368	50.35
313.582	48.3
313.796	122.02
314.009	11.43
314.223	76.97
314.437	99.5
314.651	3.24
314.864	-25.43
315.078	44.2
315.292	-0.85
315.505	11.43
315.719	36.01
315.933	-11.09
316.146	52.39
316.36	54.44
316.573	60.59
316.787	7.34
317.001	68.78
317.214	64.68
317.428	48.3
317.641	-19.29
317.855	-39.76
318.068	72.87
318.282	21.67
318.495	132.26
318.709	83.11
318.922	21.67
319.136	89.26
319.349	115.88
319.563	48.3
319.776	-27.48
319.99	-0.85
320.203	52.39
320.417	76.97
320.63	50.35
320.843	107.69
321.057	29.87
321.27	29.87
321.483	13.48
321.697	48.3
321.91	83.11
322.124	64.68
322.337	-7
322.55	23.72
322.763	17.58
322.977	66.73
323.19	5.29
323.403	29.87
323.617	36.01
323.83	-11.09
324.043	-9.05
324.256	-50
324.469	13.48
324.683	25.77
324.896	36.01
325.109	72.87
325.322	9.39
325.535	93.35
325.748	97.45
325.962	56.49
326.175	64.68
326.388	-4.95
326.601	87.21
326.814	95.4
327.027	21.67
327.24	64.68
327.453	33.96
327.666	-27.48
327.879	64.68
328.092	-7
328.305	15.53
328.518	-0.85
328.731	19.63
328.944	107.69
329.157	113.83
329.37	-0.85
329.583	27.82
329.796	136.36
330.009	-13.14
330.222	64.68
330.435	44.2
330.648	-19.29
330.861	76.97
331.073	95.4
331.286	44.2
331.499	25.77
331.712	27.82
331.925	64.68
332.138	1.19
332.35	126.12
332.563	54.44
332.776	60.59
332.989	-7
333.202	42.15
333.414	52.39
333.627	56.49
333.84	62.63
334.053	15.53
334.265	11.43
334.478	21.67
334.691	138.41
334.903	21.67
335.116	33.96
335.329	31.91
335.541	76.97
335.754	27.82
335.966	-9.05
336.179	105.64
336.392	13.48
336.604	-39.76
336.817	58.54
337.029	19.63
337.242	89.26
337.454	66.73
337.667	38.06
337.88	42.15
338.092	85.16
338.305	79.02
338.517	1.19
338.729	74.92
338.942	48.3
339.154	68.78
339.367	-25.43
339.579	36.01
339.792	-9.05
340.004	113.83
340.217	33.96
340.429	74.92
340.641	-4.95
340.854	42.15
341.066	33.96
341.278	132.26
341.491	119.98
341.703	58.54
341.915	5.29
342.128	87.21
342.34	79.02
342.552	40.11
342.764	9.39
342.977	36.01
343.189	36.01
343.401	46.25
343.613	19.63
343.826	29.87
344.038	31.91
344.25	38.06
344.462	42.15
344.674	136.36
344.886	-23.38
345.099	3.24
345.311	93.35
345.523	-52.05
345.735	27.82
345.947	44.2
346.159	13.48
346.371	52.39
346.583	52.39
346.795	56.49
347.007	-9.05
347.219	72.87
347.431	15.53
347.643	56.49
347.855	19.63
348.067	13.48
348.279	64.68
348.491	54.44
348.703	-0.85
348.915	19.63
349.127	50.35
349.339	83.11
349.551	36.01
349.763	97.45
349.975	89.26
350.187	64.68
350.399	44.2
350.61	33.96
350.822	-19.29
351.034	48.3
351.246	15.53
351.458	31.91
351.669	46.25
351.881	50.35
352.093	93.35
352.305	40.11
352.517	66.73
352.728	103.59
352.94	-7
353.152	31.91
353.363	11.43
353.575	29.87
353.787	60.59
353.999	70.83
354.21	93.35
354.422	33.96
354.633	5.29
354.845	-33.62
355.057	56.49
355.268	124.07
355.48	160.94
355.692	7.34
355.903	3.24
356.115	7.34
356.326	-23.38
356.538	99.5
356.749	42.15
356.961	50.35
357.172	19.63
357.384	60.59
357.595	83.11
357.807	23.72
358.018	17.58
358.23	52.39
358.441	132.26
358.653	38.06
358.864	44.2
359.075	15.53
359.287	58.54
359.498	40.11
359.709	72.87
359.921	91.31
360.132	17.58
360.344	66.73
360.555	19.63
360.766	21.67
360.977	23.72
361.189	154.79
361.4	-31.57
361.611	68.78
361.823	72.87
362.034	-13.14
362.245	54.44
362.456	52.39
362.667	58.54
362.879	-41.81
363.09	119.98
363.301	117.93
363.512	7.34
363.723	-4.95
363.935	50.35
364.146	72.87
364.357	38.06
364.568	-13.14
364.779	-9.05
364.99	76.97
365.201	54.44
365.412	60.59
365.623	42.15
365.834	124.07
366.045	76.97
366.256	52.39
366.467	27.82
366.678	23.72
366.889	33.96
367.1	72.87
367.311	101.55
367.522	52.39
367.733	29.87
367.944	13.48
368.155	83.11
368.366	62.63
368.577	3.24
368.788	115.88
368.999	62.63
369.209	29.87
369.42	140.46
369.631	119.98
369.842	36.01
370.053	-0.85
370.264	91.31
370.474	115.88
370.685	54.44
370.896	36.01
371.107	60.59
371.317	54.44
371.528	15.53
371.739	42.15
371.95	68.78
372.16	-11.09
372.371	50.35
372.582	46.25
372.792	62.63
373.003	44.2
373.214	50.35
373.424	117.93
373.635	21.67
373.846	130.22
374.056	122.02
374.267	72.87
374.477	76.97
374.688	38.06
374.898	54.44
375.109	21.67
375.319	52.39
375.53	25.77
375.74	76.97
375.951	-13.14
376.161	111.78
376.372	54.44
376.582	29.87
376.793	83.11
377.003	-7
377.214	119.98
377.424	54.44
377.635	3.24
377.845	42.15
378.055	33.96
378.266	31.91
378.476	48.3
378.686	83.11
378.897	93.35
379.107	81.07
379.317	19.63
379.528	48.3
379.738	101.55
379.948	25.77
380.158	74.92
380.369	23.72
380.579	79.02
380.789	113.83
380.999	58.54
381.21	52.39
381.42	126.12
381.63	38.06
381.84	-17.24
382.05	76.97
382.261	74.92
382.471	46.25
382.681	19.63
382.891	33.96
383.101	89.26
383.311	40.11
383.521	-33.62
383.731	152.74
383.941	54.44
384.151	58.54
384.361	33.96
384.571	44.2
384.781	17.58
384.991	117.93
385.201	136.36
385.411	60.59
385.621	81.07
385.831	42.15
386.041	29.87
386.251	79.02
386.461	122.02
386.671	-2.9
386.881	52.39
387.091	44.2
387.301	52.39
387.511	3.24
387.72	50.35
387.93	115.88
388.14	3.24
388.35	54.44
388.56	89.26
388.769	60.59
388.979	52.39
389.189	29.87
389.399	48.3
389.609	83.11
389.818	136.36
390.028	-23.38
390.238	70.83
390.447	107.69
390.657	27.82
390.867	128.17
391.076	23.72
391.286	48.3
391.496	-21.33
391.705	93.35
391.915	85.16
392.125	60.59
392.334	-0.85
392.544	72.87
392.753	1.19
392.963	38.06
393.172	21.67
393.382	36.01
393.591	113.83
393.801	3.24
394.01	124.07
394.22	27.82
394.429	58.54
394.639	105.64
394.848	60.59
395.058	128.17
395.267	42.15
395.477	93.35
395.686	124.07
395.895	85.16
396.105	146.6
396.314	68.78
396.524	56.49
396.733	7.34
396.942	9.39
397.152	52.39
397.361	119.98
397.57	128.17
397.78	64.68
397.989	105.64
398.198	87.21
398.407	70.83
398.617	48.3
398.826	132.26
399.035	-9.05
399.244	113.83
399.453	101.55
399.663	62.63
399.872	101.55
400.081	21.67
400.29	148.65
400.499	29.87
400.708	130.22
400.917	64.68
401.127	52.39
401.336	144.55
401.545	113.83
401.754	173.22
401.963	156.84
402.172	99.5
402.381	79.02
402.59	76.97
402.799	101.55
403.008	119.98
403.217	124.07
403.426	122.02
403.635	99.5
403.844	74.92
404.053	70.83
404.262	81.07
404.471	124.07
404.68	79.02
404.888	76.97
405.097	107.69
405.306	138.41
405.515	122.02
405.724	81.07
405.933	177.32
406.142	165.03
406.35	177.32
406.559	146.6
406.768	181.42
406.977	234.66
407.185	142.5
407.394	191.66
407.603	189.61
407.812	101.55
408.02	214.18
408.229	142.5
408.438	150.7
408.646	152.74
408.855	199.85
409.064	222.38
409.272	224.42
409.481	277.67
409.69	220.33
409.898	191.66
410.107	169.13
410.315	242.85
410.524	281.77
410.733	191.66
410.941	261.29
411.15	386.21
411.358	310.44
411.567	285.86
411.775	314.53
411.984	273.57
412.192	308.39
412.401	339.11
412.609	359.59
412.818	318.63
413.026	345.25
413.234	347.3
413.443	425.12
413.651	304.29
413.86	414.88
414.068	431.27
414.276	421.03
414.485	425.12
414.693	470.18
414.901	519.33
415.11	500.9
415.318	509.09
415.526	509.09
415.734	568.48
415.943	595.11
416.151	537.76
416.359	558.24
416.567	697.5
416.776	588.96
416.984	705.7
417.192	685.22
417.4	662.69
417.608	728.22
417.817	638.11
418.025	824.48
418.233	885.92
418.441	797.85
418.649	847.01
418.857	930.97
419.065	836.77
419.273	892.06
419.481	955.55
419.689	945.31
419.897	926.88
420.105	1019.04
420.313	1164.44
420.521	1191.06
420.729	1207.45
420.937	1201.3
421.145	1275.03
421.353	1377.43
421.561	1375.38
421.769	1338.52
421.977	1451.16
422.185	1467.54
422.393	1592.47
422.601	1684.62
422.809	1660.05
423.017	1649.81
423.224	1629.33
423.432	1733.78
423.64	1793.17
423.848	1934.48
424.056	1817.74
424.263	1969.29
424.471	1959.05
424.679	2067.6
424.887	2129.03
425.094	2213
425.302	2268.3
425.51	2249.86
425.718	2442.37
425.925	2352.26
426.133	2387.08
426.341	2641.03
426.548	2692.23
426.756	2743.42
426.964	2763.9
427.171	2901.12
427.379	2991.23
427.586	3083.39
427.794	3046.52
428.001	3224.7
428.209	3562.61
428.417	3421.3
428.624	3622
428.832	3665.01
429.039	3697.78
429.247	3490.93
429.454	3910.77
429.662	4240.49
429.869	3888.24
430.076	4150.38
430.284	4146.28
430.491	4389.99
430.699	4459.62
430.906	4566.12
431.114	4551.78
431.321	4824.16
431.528	4838.5
431.736	5090.4
431.943	5497.94
432.15	5229.66
432.358	5358.68
432.565	5614.68
432.772	5520.47
432.979	5977.17
433.187	5796.95
433.394	6061.13
433.601	6409.29
433.808	6360.14
434.016	6394.95
434.223	6706.24
434.43	7160.89
434.637	6882.37
434.844	7388.22
435.052	7500.86
435.259	7414.84
435.466	7566.39
435.673	7455.8
435.88	7975.98
436.087	8182.83
436.294	8444.97
436.501	8266.8
436.708	8404.01
436.915	8774.69
437.122	9139.23
437.329	9100.32
437.537	9047.07
437.743	9372.7
437.95	9276.45
438.157	9911.32
438.364	10148.88
438.571	10126.35
438.778	10202.13
438.985	11142.14
439.192	10796.04
439.399	11172.86
439.606	10728.45
439.813	11408.38
440.02	12053.49
440.227	12037.11
440.433	11928.56
440.64	12305.39
440.847	12155.89
441.054	12420.08
441.261	13407.2
441.467	12884.97
441.674	13210.59
441.881	13745.11
442.088	13941.72
442.294	13689.82
442.501	14046.16
442.708	14533.58
442.914	14834.63
443.121	15516.61
443.328	15313.86
443.534	16178.1
443.741	15899.58
443.948	15770.55
444.154	16907.18
444.361	16696.24
444.568	16860.07
444.774	16739.24
444.981	17030.05
445.187	17634.21
445.394	18416.53
445.6	17990.55
445.807	19676.03
446.013	18791.31
446.22	19073.93
446.426	20155.26
446.633	20333.43
446.839	21064.55
447.046	20132.73
447.252	21062.51
447.459	21306.21
447.665	21134.18
447.871	21959.52
448.078	22967.12
448.284	21896.03
448.491	22440.79
448.697	23481.16
448.903	23673.67
449.11	23771.97
449.316	23425.86
449.522	23831.36
449.728	24376.12
449.935	24619.83
450.141	24689.46
450.347	25262.89
450.553	24593.2
450.76	24914.73
450.966	25563.94
451.172	25434.92
451.378	26182.43
451.584	25357.1
451.791	26346.26
451.997	25895.71
452.203	26800.91
452.409	26745.62
452.615	26409.75
452.821	25185.07
453.027	25246.51
453.233	26536.73
453.44	25297.7
453.646	25469.73
453.852	25858.85
454.058	26538.77
454.264	25275.18
454.47	25838.37
454.676	25176.87
454.882	26213.15
455.088	23790.4
455.294	24052.54
455.5	24494.9
455.705	24959.79
455.911	23974.72
456.117	23632.71
456.323	22995.79
456.529	21781.34
456.735	22862.67
456.941	22498.13
457.147	22174.55
457.352	21076.84
457.558	20781.93
457.764	20917.1
457.97	20740.97
458.176	19897.21
458.381	20177.78
458.587	18940.81
458.793	19014.54
458.999	18070.42
459.204	19131.27
459.41	18834.32
459.616	17480.61
459.821	17558.43
460.027	17384.35
460.233	16815.02
460.438	16391.09
460.644	16491.44
460.85	15588.28
461.055	15524.8
461.261	15412.16
461.466	14250.96
461.672	13845.46
461.878	14736.33
462.083	13634.52
462.289	13399.01
462.494	13401.05
462.7	12872.68
462.905	12461.04
463.111	13112.29
463.316	13052.9
463.522	12823.53
463.727	12821.48
463.932	12493.8
464.138	12598.25
464.343	12573.67
464.549	12182.51
464.754	12631.02
464.959	12379.12
465.165	12266.48
465.37	11858.93
465.575	11537.4
465.781	12131.31
465.986	11887.61
466.191	11535.35
466.397	11572.22
466.602	10863.62
466.807	11486.2
467.012	11275.26
467.218	11392
467.423	11174.91
467.628	11219.97
467.833	11594.75
468.038	11183.1
468.244	10839.05
468.449	11463.68
468.654	11090.95
468.859	10955.78
469.064	10865.67
469.269	10445.84
469.474	10535.95
469.679	10869.76
469.885	10437.64
470.09	10423.31
470.295	10484.75
470.5	10093.58
470.705	10492.94
470.91	9999.38
471.115	9907.22
471.32	10193.94
471.525	10019.86
471.73	9896.98
471.935	9884.69
472.139	9458.71
472.344	9548.82
472.549	9432.09
472.754	9479.19
472.959	9180.19
473.164	9036.83
473.369	8920.1
473.574	9264.16
473.778	8981.54
473.983	9083.94
474.188	9137.18
474.393	8563.75
474.598	8580.14
474.802	8447.02
475.007	8573.99
475.212	8688.68
475.417	7871.54
475.621	8148.01
475.826	8078.38
476.031	7967.79
476.235	7982.13
476.44	7939.12
476.645	7783.48
476.849	7644.21
477.054	7633.97
477.259	7699.51
477.463	7650.36
477.668	7472.18
477.872	7556.15
478.077	7218.24
478.282	7334.97
478.486	7216.19
478.691	7087.17
478.895	7144.51
479.1	7177.28
479.304	7081.02
479.509	6917.19
479.713	6863.94
479.918	6802.5
480.122	6675.52
480.326	6786.12
480.531	6751.3
480.735	6857.79
480.94	6702.15
481.144	6954.05
481.348	6528.07
481.553	6628.42
481.757	6499.4
481.961	6614.09
482.166	6685.76
482.37	6577.22
482.574	6595.65
482.778	6505.54
482.983	6720.58
483.187	6493.26
483.391	6696
483.595	6390.86
483.8	6532.17
484.004	6538.31
484.208	6636.61
484.412	6638.66
484.616	6622.28
484.821	6468.68
485.025	6556.74
485.229	6667.33
485.433	6515.78
485.637	6376.52
485.841	6517.83
486.045	6493.26
486.249	6616.13
486.453	6581.32
486.657	6597.7
486.861	6618.18
487.065	6646.85
487.269	6607.94
487.473	6456.39
487.677	6609.99
487.881	6659.14
488.085	6491.21
488.289	6638.66
488.493	6745.16
488.697	6655.05
488.901	6530.12
489.105	6444.1
489.309	6753.35
489.512	6679.62
489.716	6622.28
489.92	6552.65
490.124	6847.55
490.328	6784.07
490.531	6718.53
490.735	6777.92
490.939	6726.72
491.143	6779.97
491.346	6655.05
491.55	6865.99
491.754	6771.78
491.958	6949.95
492.161	6788.16
492.365	6997.06
492.569	6870.08
492.772	6814.79
492.976	6923.33
493.18	6978.62
493.383	7246.91
493.587	7197.76
493.79	7191.61
493.994	7142.46
494.197	7146.56
494.401	7494.71
494.605	7314.49
494.808	7500.86
495.012	7527.48
495.215	7443.51
495.419	7504.95
495.622	7478.33
495.825	7605.3
496.029	7552.06
496.232	7836.72
496.436	7726.13
496.639	8070.19
496.843	8082.48
497.046	7980.08
497.249	8137.77
497.453	8170.54
497.656	8373.29
497.859	8320.04
498.063	8305.71
498.266	8516.65
498.469	8420.39
498.673	8700.97
498.876	8619.05
499.079	9042.98
499.282	8844.32
499.485	9073.7
499.689	9172
499.892	9348.12
500.095	9344.03
500.298	9505.82
500.501	9557.02
500.705	9710.61
500.908	9876.5
501.111	10032.15
501.314	10140.69
501.517	10142.74
501.72	10466.31
501.923	10376.2
502.126	10550.28
502.329	10857.48
502.532	10890.24
502.735	10812.42
502.938	11023.36
503.141	10877.96
503.344	11238.4
503.547	11164.67
503.75	11359.23
503.953	11691
504.156	11670.52
504.359	11783.16
504.562	12080.11
504.765	12360.69
504.968	12346.35
505.17	12334.06
505.373	12491.76
505.576	12674.03
505.779	12999.65
505.982	12805.1
506.185	13425.63
506.387	13089.76
506.59	13452.25
506.793	13745.11
506.996	13757.4
507.198	14136.27
507.401	14005.2
507.604	14427.09
507.807	14306.26
508.009	14619.6
508.212	14668.75
508.415	14789.58
508.617	14869.45
508.82	15250.37
509.022	15086.53
509.225	15754.17
509.428	15803.32
509.63	15920.06
509.833	15930.3
510.035	16194.48
510.238	16026.55
510.44	16532.4
510.643	16894.89
510.845	17011.62
511.048	16833.45
511.25	17398.69
511.453	17357.73
511.655	17935.26
511.858	17910.68
512.06	17922.97
512.262	18215.83
512.465	18310.04
512.667	18414.48
512.87	18871.18
513.072	19131.27
513.274	19442.56
513.477	19671.93
513.679	19708.8
513.881	19839.87
514.084	20063.1
514.286	20163.45
514.488	20095.86
514.69	20734.83
514.893	20927.34
515.095	21338.98
515.297	21580.64
515.499	21521.25
515.701	21861.21
515.904	21846.88
516.106	22125.4
516.308	22598.48
516.51	22684.5
516.712	22719.31
516.914	22999.88
517.116	23638.85
517.318	23575.36
517.52	23765.82
517.722	23917.37
517.925	24232.76
518.127	24550.2
518.329	24937.26
518.531	24486.71
518.733	25230.12
518.935	25236.27
519.136	25692.96
519.338	26071.84
519.54	26213.15
519.742	26456.85
519.944	26460.95
520.146	26876.69
520.348	27294.47
520.55	27638.53
520.752	27091.73
520.954	27935.49
521.155	28039.93
521.357	28392.19
521.559	28898.03
521.761	29117.17
521.963	29149.93
522.164	29467.37
522.366	29600.49
522.568	29657.83
522.77	29862.63
522.971	30294.75
523.173	30151.39
523.375	30735.06
523.576	30681.81
523.778	30829.27
523.98	31292.11
524.181	31709.89
524.383	31754.95
524.584	31965.89
524.786	31857.35
524.988	31834.82
525.189	32713.4
525.391	32801.46
525.592	32832.18
525.794	33049.27
525.995	33465
526.197	33145.52
526.398	33548.97
526.6	33669.8
526.801	34042.53
527.003	34445.98
527.204	33852.07
527.406	34454.17
527.607	34757.27
527.808	34755.22
528.01	34544.28
528.211	34646.68
528.412	35459.73
528.614	35070.61
528.815	35342.99
529.016	35539.6
529.218	35152.53
529.419	35480.21
529.62	35777.16
529.822	35945.09
530.023	35943.05
530.224	36117.12
530.425	36084.36
530.626	36182.66
530.828	35941
531.029	36948.6
531.23	36377.22
531.431	36231.81
531.632	36756.09
531.833	36876.92
532.035	36811.38
532.236	36852.34
532.437	36758.14
532.638	36749.95
532.839	37653.1
533.04	36815.48
533.241	36420.22
533.442	37739.11
533.643	37218.93
533.844	37294.71
534.045	37182.07
534.246	37012.09
534.447	37278.32
534.648	37208.69
534.849	37464.69
535.05	37169.78
535.251	37229.17
535.451	37374.58
535.652	37978.73
535.853	37526.13
536.054	37935.72
536.255	37726.83
536.456	37352.05
536.657	38214.24
536.857	37671.53
537.058	37519.98
537.259	37956.2
537.46	37812.84
537.66	37421.68
537.861	37581.42
538.062	37755.5
538.263	37833.32
538.463	37313.14
538.664	37759.59
538.865	37923.43
539.065	38115.94
539.266	37249.65
539.466	37902.95
539.667	37393.01
539.868	38279.78
540.068	37411.44
540.269	37511.79
540.469	37884.52
540.67	37567.09
540.87	37851.75
541.071	37755.5
541.271	37714.54
541.472	38025.83
541.672	37505.65
541.873	37337.71
542.073	37251.7
542.274	37878.38
542.474	37575.28
542.675	37597.8
542.875	37909.1
543.075	37753.45
543.276	37309.04
543.476	37575.28
543.676	37403.25
543.877	37603.95
544.077	37601.9
544.277	37620.33
544.478	37827.18
544.678	37352.05
544.878	37517.93
545.078	37913.19
545.279	37255.79
545.479	37358.19
545.679	37722.73
545.879	37272.18
546.079	37528.17
546.28	37110.39
546.48	37472.88
546.68	37689.96
546.88	37649
547.08	37841.51
547.28	37440.11
547.48	37296.75
547.68	37679.72
547.88	37497.45
548.081	37337.71
548.281	37161.59
548.481	37763.69
548.681	37296.75
548.881	37302.9
549.081	37147.25
549.28	37347.95
549.48	37450.35
549.68	37218.93
549.88	37841.51
550.08	37180.02
550.28	37499.5
550.48	37311.09
550.68	37882.47
550.88	37358.19
551.08	37245.55
551.279	37524.08
551.479	36940.41
551.679	37317.23
551.879	37153.4
552.079	37327.47
552.278	36919.93
552.478	37618.28
552.678	37196.4
552.878	37587.57
553.077	37165.68
553.277	36924.02
553.477	37339.76
553.676	37356.14
553.876	36944.5
554.076	36905.59
554.275	37208.69
554.475	36551.29
554.674	36964.98
554.874	37333.62
555.074	36571.77
555.273	37036.66
555.473	37104.24
555.672	36674.17
555.872	36446.85
556.071	36735.61
556.271	36989.56
556.47	36381.31
556.67	36373.12
556.869	36598.4
557.068	36526.72
557.268	36297.34
557.467	36586.11
557.667	36223.62
557.866	36340.35
558.065	36285.06
558.265	36002.44
558.464	35936.9
558.663	36211.33
558.863	35609.23
559.062	36342.4
559.261	35662.47
559.461	36506.24
559.66	35361.42
559.859	35838.6
560.058	35506.83
560.258	35494.54
560.457	35484.3
560.656	35910.28
560.855	35095.19
561.054	35445.39
561.253	35025.56
561.453	35228.31
561.652	34951.83
561.851	35125.91
562.05	34837.14
562.249	34437.79
562.448	34833.05
562.647	34581.15
562.846	34714.26
563.045	34620.06
563.244	34548.38
563.443	34878.1
563.642	33995.43
563.841	34155.17
564.04	33954.47
564.239	34425.5
564.438	33598.12
564.637	33839.78
564.836	34034.34
565.035	33247.92
565.234	33727.14
565.432	33383.09
565.631	33512.11
565.83	33387.18
566.029	33006.26
566.228	33088.18
566.427	32656.06
566.625	32930.48
566.824	32651.96
567.023	32883.38
567.222	32045.76
567.42	32709.3
567.619	32518.84
567.818	32617.14
568.016	32297.66
568.215	32619.19
568.414	31898.31
568.612	32406.2
568.811	31826.63
569.01	31777.48
569.208	31476.43
569.407	32031.43
569.605	31390.41
569.804	31515.34
570.002	31075.02
570.201	31292.11
570.4	31093.46
570.598	31077.07
570.797	30595.8
570.995	30933.71
571.193	30630.62
571.392	30915.28
571.59	30546.65
571.789	30612.18
571.987	30137.05
572.186	30081.76
572.384	30073.57
572.582	30157.53
572.781	29862.63
572.979	29483.75
573.177	29786.85
573.376	29993.7
573.574	29694.69
573.772	29268.72
573.971	29248.24
574.169	29070.06
574.367	28803.83
574.565	29385.45
574.763	28914.42
574.962	28728.05
575.16	28363.51
575.358	28257.02
575.556	28099.33
575.754	28760.82
575.952	28340.99
576.151	28300.03
576.349	27910.91
576.547	27929.34
576.745	27945.73
576.943	28031.74
577.141	27763.46
577.339	27646.72
577.537	27755.27
577.735	27632.39
577.933	27306.76
578.131	27464.46
578.329	27527.94
578.527	26723.09
578.725	27187.98
578.923	27247.37
579.121	27048.72
579.319	26688.28
579.516	26718.99
579.714	26577.69
579.912	26262.3
580.11	26395.42
580.308	26471.19
580.506	26274.59
580.704	26086.17
580.901	25981.73
581.099	26157.85
581.297	25979.68
581.495	25633.57
581.692	25891.62
581.89	25787.17
582.088	25940.77
582.285	25246.51
582.483	26002.21
582.681	25387.82
582.878	25428.77
583.076	25172.78
583.274	25207.59
583.471	24838.96
583.669	25213.74
583.866	24726.32
584.064	24761.14
584.262	24234.81
584.459	24607.54
584.657	24402.74
584.854	24664.88
585.052	24439.61
585.249	24445.75
585.447	24511.28
585.644	24271.67
585.841	24030.01
586.039	24046.4
586.236	23970.62
586.434	23788.35
586.631	23855.93
586.828	23870.27
587.026	23561.03
587.223	23554.88
587.42	23495.49
587.618	23274.31
587.815	23427.91
588.012	23505.73
588.21	23413.57
588.407	23464.77
588.604	23049.03
588.801	22846.29
588.999	22981.45
589.196	22963.02
589.393	22960.97
589.59	22922.06
589.787	22881.1
589.984	22614.87
590.182	22524.75
590.379	22522.71
590.576	22578
590.773	22227.8
590.97	22332.25
591.167	22487.89
591.364	22268.76
591.561	22215.51
591.758	21836.64
591.955	21969.76
592.152	22238.04
592.349	21637.98
592.546	21812.06
592.743	21713.76
592.94	21257.06
593.137	21525.35
593.334	21390.18
593.531	21103.46
593.727	21396.32
593.924	21259.11
594.121	21123.94
594.318	21341.03
594.515	21136.23
594.712	21263.21
594.908	20886.38
595.105	20937.58
595.302	20677.49
595.499	20540.27
595.696	20599.66
595.892	20325.24
596.089	20628.34
596.286	20573.04
596.482	20417.4
596.679	20513.65
596.876	20585.33
597.072	20329.33
597.269	20083.58
597.466	19966.84
597.662	19778.43
597.859	20269.94
598.055	20118.39
598.252	19964.79
598.448	19862.4
598.645	19635.07
598.841	19575.68
599.038	19800.96
599.234	19549.06
599.431	19422.08
599.627	19131.27
599.824	19616.64
600.02	19297.16
600.217	19329.92
600.413	19178.37
600.609	19104.65
600.806	18953.1
601.002	19157.89
601.198	18848.65
601.395	18588.56
601.591	18910.09
601.787	18631.57
601.984	18650
602.18	18770.83
602.376	18348.95
602.572	18475.92
602.769	18590.61
602.965	18467.73
603.161	18647.95
603.357	18289.56
603.553	18121.62
603.75	18158.49
603.946	17996.7
604.142	18232.21
604.338	17802.14
604.534	18115.48
604.73	17939.35
604.926	17601.44
605.122	17732.51
605.318	17605.53
605.514	17761.18
605.71	17425.31
605.906	17712.03
606.102	17486.75
606.298	17238.95
606.494	17320.87
606.69	17032.1
606.886	17466.27
607.082	16853.93
607.278	17128.36
607.474	16702.38
607.67	17238.95
607.866	16894.89
608.062	17089.45
608.257	16790.44
608.453	16855.98
608.649	17042.34
608.845	16620.46
609.041	16823.21
609.236	16665.52
609.432	16567.21
609.628	16561.07
609.824	16772.01
610.019	16479.15
610.215	16616.37
610.411	16550.83
610.606	16085.94
610.802	16657.32
610.998	16118.71
611.193	16153.52
611.389	16204.72
611.584	16081.85
611.78	15895.48
611.976	15801.27
612.171	16200.63
612.367	16169.91
612.562	16014.26
612.758	15657.92
612.953	15942.58
613.149	16196.53
613.344	15621.05
613.539	15934.39
613.735	15709.11
613.93	15639.48
614.126	15868.86
614.321	16014.26
614.517	15672.25
614.712	15670.2
614.907	15565.76
615.103	15514.56
615.298	15254.47
615.493	15608.76
615.688	15274.95
615.884	15563.71
616.079	15287.23
616.274	15086.53
616.47	15135.68
616.665	15184.83
616.86	15217.6
617.055	15100.87
617.25	14939.08
617.445	15313.86
617.641	15049.67
617.836	14971.85
618.031	14662.6
618.226	15006.66
618.421	14724.04
618.616	15092.68
618.811	14408.65
619.006	14877.64
619.201	14463.95
619.396	14576.59
619.591	14336.98
619.786	14439.37
619.981	14279.63
620.176	14283.73
620.371	14175.19
620.566	14142.42
620.761	13966.29
620.956	14339.02
621.151	13710.3
621.346	13906.9
621.541	13659.1
621.735	13730.78
621.93	13599.71
622.125	13597.66
622.32	13499.36
622.515	13358.05
622.709	13550.56
622.904	13327.33
623.099	13401.05
623.294	13292.51
623.488	13091.81
623.683	13089.76
623.878	12868.58
624.072	12989.41
624.267	12921.83
624.462	12639.21
624.656	12626.92
624.851	12837.86
625.046	12481.52
625.24	12633.07
625.435	12418.03
625.629	12432.36
625.824	12387.31
626.018	12297.2
626.213	12137.46
626.407	12225.52
626.602	12145.65
626.796	12061.68
626.991	12033.01
627.185	11805.69
627.38	11967.48
627.574	11858.93
627.768	11568.12
627.963	11504.64
628.157	11578.36
628.352	11408.38
628.546	11262.97
628.74	11351.04
628.935	11355.13
629.129	11424.76
629.323	11037.7
629.517	11336.7
629.712	11054.08
629.906	11072.51
630.1	10966.02
630.294	10822.66
630.489	10689.54
630.683	10791.94
630.877	10548.23
631.071	10570.76
631.265	10669.06
631.459	10542.09
631.653	10429.45
631.848	10376.2
632.042	10220.56
632.236	10363.92
632.43	10437.64
632.624	10351.63
632.818	10097.68
633.012	10109.97
633.206	9985.04
633.4	10093.58
633.594	9923.6
633.788	9882.64
633.982	9974.8
634.176	9913.36
634.369	9819.16
634.563	9618.46
634.757	9499.67
634.951	9753.62
635.145	9665.56
635.339	9573.4
635.533	9372.7
635.726	9317.4
635.92	9319.45
636.114	9126.94
636.308	9331.74
636.501	9145.38
636.695	9073.7
636.889	8817.7
637.083	9051.17
637.276	8924.19
637.47	8959.01
637.664	8920.1
637.857	8973.35
638.051	8791.08
638.244	8715.3
638.438	8578.09
638.632	8866.85
638.825	8512.55
639.019	8504.36
639.212	8352.81
639.406	8543.27
639.599	8320.04
639.793	8272.94
639.986	8326.19
640.18	8121.39
640.373	8176.69
640.567	7975.98
640.76	8109.1
640.954	8109.1
641.147	7881.78
641.34	7869.49
641.534	7984.18
641.727	7945.27
641.92	7838.77
642.114	7836.72
642.307	7656.5
642.5	7607.35
642.694	7654.45
642.887	7568.44
643.08	7638.07
643.273	7533.62
643.467	7468.09
643.66	7285.82
643.853	7369.79
644.046	7373.88
644.239	7341.11
644.432	7214.14
644.626	7117.89
644.819	7289.92
645.012	7138.37
645.205	7148.61
645.398	7040.06
645.591	7062.59
645.784	6786.12
645.977	6831.17
646.17	7029.82
646.363	6947.9
646.556	6730.82
646.749	6833.22
646.942	6753.35
647.135	6724.68
647.328	6847.55
647.521	6622.28
647.714	6593.61
647.907	6718.53
648.099	6491.21
648.292	6515.78
648.485	6417.48
648.678	6347.85
648.871	6353.99
649.064	6310.99
649.256	6392.91
649.449	6259.79
649.642	6077.52
649.835	6153.29
650.027	6161.48
650.22	6208.59
650.413	6210.64
650.605	6124.62
650.798	6007.89
650.991	5944.4
651.183	5923.92
651.376	5907.54
651.568	6089.81
651.761	5952.59
651.954	5837.91
652.146	5823.57
652.339	5864.53
652.531	5807.19
652.724	5495.89
652.916	5622.87
653.109	5659.73
653.301	5633.11
653.494	5760.08
653.686	5524.57
653.879	5723.22
654.071	5497.94
654.263	5522.52
654.456	5469.27
654.648	5481.56
654.84	5444.7
655.033	5350.49
655.225	5377.11
655.417	5303.39
655.61	5354.58
655.802	5336.15
655.994	5184.6
656.186	5125.21
656.379	5237.85
656.571	5291.1
656.763	5110.88
656.955	5160.03
657.148	5088.35
657.34	5104.73
657.532	5016.67
657.724	5055.58
657.916	5035.1
658.108	4963.42
658.3	5033.05
658.492	4936.8
658.684	5065.82
658.876	4785.25
659.068	4756.58
659.26	4717.67
659.452	4775.01
659.644	4717.67
659.836	4926.56
660.028	4748.39
660.22	4643.94
660.412	4629.6
660.604	4740.19
660.796	4752.48
660.988	4654.18
661.18	4594.79
661.372	4496.49
661.563	4539.49
661.755	4516.97
661.947	4613.22
662.139	4488.29
662.331	4408.42
662.522	4439.14
662.714	4467.81
662.906	4420.71
663.097	4406.38
663.289	4338.79
663.481	4324.46
663.673	4369.51
663.864	4359.27
664.056	4265.07
664.247	4191.34
664.439	4136.04
664.631	4134
664.822	4250.73
665.014	4291.69
665.205	4170.86
665.397	4072.56
665.588	4062.32
665.78	4211.82
665.971	4240.49
666.163	4250.73
666.354	4062.32
666.546	4103.28
666.737	3988.59
666.929	4068.46
667.12	3992.69
667.311	4031.6
667.503	4058.22
667.694	4017.26
667.885	3959.92
668.077	3992.69
668.268	3984.49
668.459	3943.53
668.651	3880.05
668.842	3867.76
669.033	3841.14
669.224	3882.1
669.416	3980.4
669.607	3888.24
669.798	3875.95
669.989	3896.43
670.18	3726.45
670.371	3834.99
670.563	3894.38
670.754	3828.85
670.945	3832.94
671.136	3738.74
671.327	3822.7
671.518	3820.66
671.709	3851.38
671.9	3667.06
672.091	3779.7
672.282	3658.87
672.473	3728.5
672.664	3687.54
672.855	3675.25
673.046	3630.2
673.237	3902.58
673.428	3693.68
673.619	3757.17
673.809	3699.83
674	3734.64
674.191	3673.2
674.382	3572.85
674.573	3705.97
674.764	3699.83
674.954	3785.84
675.145	3613.81
675.336	3693.68
675.527	3583.09
675.717	3564.66
675.908	3587.19
676.099	3746.93
676.289	3673.2
676.48	3611.76
676.671	3603.57
676.861	3724.4
677.052	3589.24
677.243	3613.81
677.433	3624.05
677.624	3697.78
677.814	3728.5
678.005	3710.07
678.195	3517.56
678.386	3597.43
678.576	3597.43
678.767	3626.1
678.957	3685.49
679.148	3683.44
679.338	3630.2
679.529	3716.21
679.719	3593.33
679.909	3695.73
680.1	3654.77
680.29	3679.35
680.481	3660.91
680.671	3705.97
680.861	3503.22
681.052	3806.32
681.242	3603.57
681.432	3630.2
681.622	3648.63
681.813	3560.56
682.003	3718.26
682.193	3540.08
682.383	3648.63
682.573	3746.93
682.764	3662.96
682.954	3673.2
683.144	3671.15
683.334	3697.78
683.524	3714.16
683.714	3675.25
683.904	3552.37
684.094	3660.91
684.284	3724.4
684.474	3748.98
684.664	3687.54
684.854	3591.28
685.044	3722.35
685.234	3642.48
685.424	3583.09
685.614	3585.14
685.804	3687.54
685.994	3667.06
686.184	3615.86
686.374	3564.66
686.564	3529.84
686.753	3544.18
686.943	3509.37
687.133	3579
687.323	3589.24
687.513	3558.52
687.702	3617.91
687.892	3431.54
688.082	3337.34
688.272	3480.69
688.461	3579
688.651	3517.56
688.841	3462.26
689.03	3406.97
689.22	3437.69
689.41	3380.34
689.599	3466.36
689.789	3386.49
689.979	3275.9
690.168	3286.14
690.358	3312.76
690.547	3226.75
690.737	3421.3
690.926	3241.08
691.116	3173.5
691.305	3247.23
691.495	3357.82
691.684	3208.31
691.874	3329.14
692.063	3218.55
692.252	3267.7
692.442	3333.24
692.631	3085.44
692.82	3173.5
693.01	3130.49
693.199	3087.48
693.388	3079.29
693.578	3077.24
693.767	3030.14
693.956	3067
694.146	3015.8
694.335	3136.63
694.524	3048.57
694.713	2970.75
694.902	3138.68
695.092	3077.24
695.281	3200.12
695.47	3064.96
695.659	3019.9
695.848	2962.56
696.037	2974.85
696.226	2927.74
696.415	3054.72
696.604	3060.86
696.793	2925.69
696.982	2958.46
697.171	3077.24
697.36	2958.46
697.549	2921.6
697.738	2878.59
697.927	3069.05
698.116	2890.88
698.305	2954.37
698.494	2958.46
698.683	2858.11
698.872	3103.87
699.061	2864.25
699.25	2933.89
699.438	3091.58
699.627	2956.41
699.816	3030.14
700.005	2882.69
700.193	3064.96
700.382	2968.7
700.571	2911.36
700.76	3013.76
700.948	2978.94
701.137	3011.71
701.326	2972.8
701.514	2831.49
701.703	3122.3
701.892	2999.42
702.08	3058.81
702.269	3040.38
702.457	2968.7
702.646	2851.97
702.834	2985.09
703.023	2915.45
703.212	3062.91
703.4	2991.23
703.589	2833.54
703.777	3013.76
703.965	2868.35
704.154	3032.19
704.342	2800.77
704.531	2993.28
704.719	2995.32
704.907	3095.68
705.096	2817.15
705.284	2878.59
705.472	3030.14
705.661	2993.28
705.849	3032.19
706.037	3069.05
706.226	3069.05
706.414	3032.19
706.602	3038.33
706.79	3128.44
706.979	2985.09
707.167	3028.09
707.355	2884.73
707.543	3148.92
707.731	3087.48
707.919	3103.87
708.107	3134.59
708.296	3140.73
708.484	2919.55
708.672	3107.96
708.86	3091.58
709.048	3048.57
709.236	3126.39
709.424	3007.61
709.612	3116.16
709.8	3138.68
709.988	3230.84
710.176	3144.83
710.364	3116.16
710.551	3081.34
710.739	3206.27
710.927	3230.84
711.115	3095.68
711.303	3142.78
711.491	3157.11
711.679	3114.11
711.866	3138.68
712.054	3165.31
712.242	3218.55
712.43	3046.52
712.617	3222.65
712.805	3167.35
712.993	3208.31
713.181	3193.98
713.368	3335.29
713.556	3208.31
713.744	3110.01
713.931	3277.94
714.119	3228.79
714.306	3257.46
714.494	3193.98
714.682	3146.87
714.869	3116.16
715.057	3368.06
715.244	3339.38
715.432	3345.53
715.619	3251.32
715.807	3222.65
715.994	3271.8
716.182	3279.99
716.369	3253.37
716.556	3474.55
716.744	3275.9
716.931	3230.84
717.119	3425.4
717.306	3226.75
717.493	3294.33
717.681	3380.34
717.868	3337.34
718.055	3396.73
718.242	3378.3
718.43	3433.59
718.617	3306.62
718.804	3386.49
718.991	3495.03
719.179	3302.52
719.366	3355.77
719.553	3433.59
719.74	3376.25
719.927	3372.15
720.114	3357.82
720.301	3298.42
720.488	3335.29
720.676	3298.42
720.863	3476.6
721.05	3513.46
721.237	3476.6
721.424	3480.69
721.611	3406.97
721.798	3304.57
721.985	3400.82
722.172	3474.55
722.358	3476.6
722.545	3492.98
722.732	3357.82
722.919	3535.99
723.106	3533.94
723.293	3554.42
723.48	3595.38
723.667	3478.65
723.853	3439.73
724.04	3687.54
724.227	3558.52
724.414	3576.95
724.6	3503.22
724.787	3501.17
724.974	3492.98
725.161	3519.6
725.347	3472.5
725.534	3603.57
725.72	3595.38
725.907	3521.65
726.094	3519.6
726.28	3587.19
726.467	3671.15
726.653	3579
726.84	3579
727.027	3783.79
727.213	3640.44
727.4	3667.06
727.586	3466.36
727.773	3527.8
727.959	3697.78
728.145	3595.38
728.332	3689.59
728.518	3515.51
728.705	3624.05
728.891	3599.48
729.077	3667.06
729.264	3644.53
729.45	3654.77
729.636	3744.88
729.823	3501.17
730.009	3742.83
730.195	3648.63
730.382	3662.96
730.568	3691.63
730.754	3595.38
730.94	3753.07
731.126	3761.27
731.313	3589.24
731.499	3603.57
731.685	3740.79
731.871	3689.59
732.057	3714.16
732.243	3634.29
732.429	3644.53
732.615	3767.41
732.801	3662.96
732.987	3736.69
733.173	3638.39
733.359	3738.74
733.545	3755.12
733.731	3718.26
733.917	3824.75
734.103	3812.46
734.289	3781.74
734.475	3675.25
734.661	3781.74
734.847	3775.6
735.033	3687.54
735.219	3761.27
735.404	3624.05
735.59	3798.13
735.776	3687.54
735.962	3794.03
736.148	3710.07
736.333	3822.7
736.519	3716.21
736.705	3556.47
736.89	3785.84
737.076	3820.66
737.262	3658.87
737.447	3810.42
737.633	3771.51
737.819	3839.09
738.004	3726.45
738.19	3882.1
738.375	3585.14
738.561	3759.22
738.747	3806.32
738.932	3605.62
739.118	3671.15
739.303	3660.91
739.489	3789.94
739.674	3607.67
739.859	3585.14
740.045	3746.93
740.23	3722.35
740.416	3607.67
740.601	3595.38
740.786	3755.12
740.972	3667.06
741.157	3640.44
741.342	3531.89
741.528	3619.96
741.713	3531.89
741.898	3554.42
742.084	3601.52
742.269	3507.32
742.454	3546.23
742.639	3556.47
742.824	3456.12
743.01	3609.72
743.195	3404.92
743.38	3495.03
743.565	3622
743.75	3460.21
743.935	3445.88
744.12	3617.91
744.305	3466.36
744.49	3339.38
744.675	3378.3
744.86	3402.87
745.045	3531.89
745.23	3333.24
745.415	3347.58
745.6	3284.09
745.785	3370.1
745.97	3273.85
746.155	3277.94
746.34	3341.43
746.525	3292.28
746.71	3384.44
746.895	3181.69
747.079	3228.79
747.264	3183.74
747.449	3142.78
747.634	3224.7
747.819	3249.27
748.003	3044.48
748.188	3214.46
748.373	3136.63
748.557	3163.26
748.742	3077.24
748.927	3060.86
749.111	3079.29
749.296	3077.24
749.481	3112.06
749.665	3032.19
749.85	2970.75
750.034	2958.46
750.219	2874.49
750.404	2897.02
750.588	2880.64
750.773	2884.73
750.957	2892.93
751.141	2806.91
751.326	2876.54
751.51	2794.62
751.695	2731.14
751.879	2823.3
752.064	2808.96
752.248	2796.67
752.432	2737.28
752.617	2817.15
752.801	2882.69
752.985	2608.26
753.17	2718.85
753.354	2753.66
753.538	2600.07
753.722	2491.52
753.907	2571.4
754.091	2622.59
754.275	2419.85
754.459	2561.16
754.643	2430.09
754.828	2530.44
755.012	2368.65
755.196	2466.95
755.38	2374.79
755.564	2448.52
755.748	2360.45
755.932	2409.61
756.116	2421.89
756.3	2319.5
756.484	2329.74
756.668	2333.83
756.852	2260.1
757.036	2208.9
757.22	2231.43
757.404	2196.62
757.588	2333.83
757.772	2223.24
757.956	2268.3
758.14	2258.06
758.323	2227.34
758.507	2176.14
758.691	2016.4
758.875	2217.1
759.059	2129.03
759.242	2104.46
759.426	2094.22
759.61	2083.98
759.794	2120.84
759.977	2116.75
760.161	2184.33
760.345	2000.01
760.528	2034.83
760.712	2077.83
760.895	2038.92
761.079	1979.53
761.263	2006.16
761.446	1825.93
761.63	1936.53
761.813	2038.92
761.997	1916.05
762.18	1891.47
762.364	1957
762.547	1895.57
762.731	1852.56
762.914	1905.81
763.098	1836.17
763.281	1877.13
763.464	1821.84
763.648	1922.19
763.831	1807.5
764.015	1815.69
764.198	1758.35
764.381	1864.85
764.564	1817.74
764.748	1844.37
764.931	1823.89
765.114	1864.85
765.297	1858.7
765.481	1754.26
765.664	1729.68
765.847	1789.07
766.03	1643.67
766.213	1694.86
766.397	1647.76
766.58	1729.68
766.763	1756.3
766.946	1684.62
767.129	1655.95
767.312	1696.91
767.495	1680.53
767.678	1574.03
767.861	1617.04
768.044	1721.49
768.227	1641.62
768.41	1707.15
768.593	1586.32
768.776	1635.47
768.959	1637.52
769.142	1655.95
769.324	1606.8
769.507	1571.99
769.69	1563.79
769.873	1571.99
770.056	1617.04
770.239	1621.14
770.421	1606.8
770.604	1629.33
770.787	1494.16
770.97	1512.6
771.152	1354.9
771.335	1379.48
771.518	1465.49
771.7	1531.03
771.883	1506.45
772.066	1428.63
772.248	1391.77
772.431	1465.49
772.613	1447.06
772.796	1375.38
772.978	1524.88
773.161	1524.88
773.343	1330.33
773.526	1442.96
773.708	1336.47
773.891	1352.85
774.073	1389.72
774.256	1313.94
774.438	1479.83
774.621	1279.13
774.803	1295.51
774.985	1324.18
775.168	1373.33
775.35	1254.55
775.532	1303.7
775.715	1246.36
775.897	1301.65
776.079	1270.94
776.261	1246.36
776.444	1217.69
776.626	1279.13
776.808	1199.26
776.99	1186.97
777.173	1178.78
777.355	1189.02
777.537	1148.06
777.719	1143.96
777.901	1248.41
778.083	1103
778.265	1105.05
778.447	1146.01
778.629	1135.77
778.811	1096.86
778.993	1105.05
779.175	1156.25
779.357	1172.63
779.539	973.98
779.721	1082.52
779.903	1041.56
780.085	1027.23
780.267	994.46
780.449	1098.91
780.631	1008.8
780.812	949.4
780.994	947.36
781.176	945.31
781.358	1021.08
781.54	947.36
781.721	978.08
781.903	904.35
782.085	957.6
782.267	939.16
782.448	820.38
782.63	930.97
782.812	890.01
782.993	883.87
783.175	898.2
783.357	875.68
783.538	941.21
783.72	941.21
783.901	832.67
784.083	898.2
784.264	779.42
784.446	779.42
784.627	838.81
784.809	808.09
784.99	779.42
785.172	869.53
785.353	750.75
785.535	814.24
785.716	840.86
785.897	703.65
786.079	767.13
786.26	767.13
786.441	781.47
786.623	734.37
786.804	640.16
786.985	763.04
787.167	820.38
787.348	656.54
787.529	754.85
787.71	699.55
787.891	693.41
788.073	726.18
788.254	644.26
788.435	717.98
788.616	717.98
788.797	724.13
788.978	697.5
789.159	640.16
789.34	662.69
789.522	697.5
789.703	711.84
789.884	689.31
790.065	656.54
790.246	658.59
790.427	543.91
790.607	670.88
790.788	601.25
790.969	662.69
791.15	631.97
791.331	543.91
791.512	552.1
791.693	550.05
791.874	597.15
792.054	642.21
792.235	674.98
792.416	568.48
792.597	554.15
792.778	599.2
792.958	572.58
793.139	668.83
793.32	535.71
793.5	566.43
793.681	527.52
793.862	582.82
794.042	525.47
794.223	515.23
794.404	519.33
794.584	443.56
794.765	511.14
794.945	418.98
795.126	554.15
795.306	507.04
795.487	453.8
795.667	496.8
795.848	531.62
796.028	502.95
796.209	435.36
796.389	515.23
796.57	457.89
796.75	484.52
796.93	523.43
797.111	476.32
797.291	431.27
797.471	513.19
797.652	408.74
797.832	412.84
798.012	472.23
798.192	404.64
798.373	416.93
798.553	408.74
798.733	457.89
798.913	468.13
799.093	418.98
799.274	394.4
799.454	429.22
799.634	490.66
799.814	429.22
799.994	476.32
800.174	443.56
800.354	410.79
800.534	337.06
800.714	472.23
800.894	394.4
801.074	418.98
801.254	355.49
801.434	519.33
801.614	324.77
801.794	369.83
801.974	1111.19
802.154	347.3
802.334	461.99
802.514	349.35
802.693	384.16
802.873	418.98
803.053	414.88
803.233	400.55
803.413	414.88
803.592	255.14
803.772	363.69
803.952	373.92
804.131	367.78
804.311	357.54
804.491	369.83
804.67	388.26
804.85	341.16
805.03	302.25
805.209	382.12
805.389	318.63
805.568	310.44
805.748	289.96
805.928	335.01
806.107	296.1
806.287	439.46
806.466	339.11
806.646	339.11
806.825	318.63
807.004	382.12
807.184	390.31
807.363	392.36
807.543	371.88
807.722	318.63
807.901	332.97
808.081	322.73
808.26	199.85
808.439	324.77
808.619	320.68
808.798	277.67
808.977	347.3
809.156	314.53
809.336	238.76
809.515	316.58
809.694	242.85
809.873	277.67
810.052	240.81
810.231	285.86
810.411	257.19
810.59	349.35
810.769	236.71
810.948	298.15
811.127	226.47
811.306	228.52
811.485	292.01
811.664	259.24
811.843	273.57
812.022	318.63
812.201	251.05
812.38	285.86
812.559	171.18
812.737	242.85
812.916	259.24
813.095	255.14
813.274	361.64
813.453	257.19
813.632	267.43
813.811	240.81
813.989	208.04
814.168	279.72
814.347	203.94
814.526	197.8
814.704	283.81
814.883	318.63
815.062	242.85
815.24	263.33
815.419	195.75
815.598	238.76
815.776	128.17
815.955	285.86
816.133	208.04
816.312	230.57
816.49	183.46
816.669	210.09
816.847	263.33
817.026	289.96
817.204	228.52
817.383	165.03
817.561	277.67
817.74	277.67
817.918	146.6
818.097	201.9
818.275	195.75
818.453	236.71
818.632	246.95
818.81	257.19
818.988	171.18
819.167	220.33
819.345	242.85
819.523	205.99
819.701	179.37
819.879	193.7
820.058	232.62
820.236	275.62
820.414	201.9
820.592	183.46
820.77	175.27
820.948	228.52
821.127	199.85
821.305	230.57
821.483	154.79
821.661	199.85
821.839	214.18
822.017	203.94
822.195	111.78
822.373	232.62
822.551	226.47
822.729	220.33
822.907	173.22
823.085	109.74
823.262	240.81
823.44	152.74
823.618	210.09
823.796	167.08
823.974	214.18
824.152	193.7
824.329	179.37
824.507	119.98
824.685	132.26
824.863	167.08
825.04	232.62
825.218	228.52
825.396	144.55
825.574	187.56
825.751	193.7
825.929	134.31
826.107	126.12
826.284	109.74
826.462	183.46
826.639	177.32
826.817	40.11
826.994	140.46
827.172	89.26
827.349	246.95
827.527	177.32
827.704	148.65
827.882	173.22
828.059	189.61
828.237	122.02
828.414	134.31
828.591	158.89
828.769	138.41
828.946	122.02
829.124	242.85
829.301	142.5
829.478	162.98
829.655	140.46
829.833	240.81
830.01	76.97
830.187	224.42
830.364	203.94
830.542	109.74
830.719	199.85
830.896	148.65
831.073	99.5
831.25	95.4
831.427	113.83
831.604	152.74
831.782	136.36
831.959	181.42
832.136	117.93
832.313	130.22
832.49	83.11
832.667	224.42
832.844	187.56
833.021	179.37
833.198	109.74
833.374	158.89
833.551	132.26
833.728	72.87
833.905	173.22
834.082	105.64
834.259	148.65
834.436	154.79
834.612	175.27
834.789	70.83
834.966	81.07
835.143	154.79
835.319	3.24
835.496	156.84
835.673	89.26
835.85	126.12
836.026	38.06
836.203	181.42
836.38	103.59
836.556	130.22
836.733	119.98
836.909	58.54
837.086	76.97
837.262	152.74
837.439	70.83
837.616	33.96
837.792	87.21
837.968	138.41
838.145	109.74
838.321	40.11
838.498	107.69
838.674	171.18
838.851	193.7
839.027	83.11
839.203	126.12
839.38	52.39
839.556	70.83
839.732	214.18
839.909	76.97
840.085	64.68
840.261	111.78
840.437	122.02
840.614	122.02
840.79	62.63
840.966	62.63
841.142	64.68
841.318	66.73
841.494	181.42
841.671	109.74
841.847	130.22
842.023	105.64
842.199	130.22
842.375	113.83
842.551	81.07
842.727	50.35
842.903	148.65
843.079	29.87
843.255	117.93
843.431	83.11
843.607	111.78
843.783	3.24
843.959	150.7
844.134	140.46
844.31	105.64
844.486	70.83
844.662	17.58
844.838	93.35
845.013	68.78
845.189	144.55
845.365	72.87
845.541	56.49
845.716	23.72
845.892	117.93
846.068	48.3
846.244	97.45
846.419	119.98
846.595	60.59
846.77	54.44
846.946	144.55
847.122	9.39
847.297	87.21
847.473	140.46
847.648	66.73
847.824	21.67
847.999	87.21
848.175	60.59
848.35	122.02
848.526	97.45
848.701	97.45
848.876	130.22
849.052	115.88
849.227	25.77
849.403	33.96
849.578	97.45
849.753	128.17
849.929	179.37
850.104	-4.95
850.279	79.02
850.454	76.97
850.63	103.59
850.805	-0.85
850.98	79.02
851.155	46.25
851.33	173.22
851.505	113.83
851.681	162.98
851.856	62.63
852.031	48.3
852.206	21.67
852.381	91.31
852.556	66.73
852.731	15.53
852.906	44.2
853.081	62.63
853.256	91.31
853.431	101.55
853.606	3.24
853.781	31.91
853.956	-4.95
854.131	128.17
854.305	-21.33
854.48	25.77
854.655	42.15
854.83	40.11
855.005	115.88
855.18	31.91
855.354	11.43
855.529	70.83
855.704	38.06
855.879	44.2
856.053	62.63
856.228	19.63
856.403	-29.52
856.577	142.5
856.752	19.63
856.926	54.44
857.101	58.54
857.276	-7
857.45	46.25
857.625	79.02
857.799	46.25
857.974	97.45
858.148	85.16
858.323	7.34
858.497	48.3
858.672	50.35
858.846	-21.33
859.02	117.93
859.195	36.01
859.369	-19.29
859.543	5.29
859.718	117.93
859.892	38.06
860.066	44.2
860.241	-2.9
860.415	29.87
860.589	48.3
860.763	48.3
860.938	52.39
861.112	15.53
861.286	66.73
861.46	-11.09
861.634	72.87
861.808	72.87
861.982	9.39
862.157	11.43
862.331	27.82
862.505	54.44
862.679	-33.62
862.853	-9.05
863.027	27.82
863.201	134.31
863.375	89.26
863.549	62.63
863.722	40.11
863.896	-64.34
864.07	89.26
864.244	48.3
864.418	5.29
864.592	15.53
864.766	101.55
864.939	54.44
865.113	56.49
865.287	52.39
865.461	115.88
865.634	29.87
865.808	60.59
865.982	52.39
866.156	27.82
866.329	-19.29
866.503	87.21
866.676	-15.19
866.85	-41.81
867.024	15.53
867.197	87.21
867.371	72.87
867.544	-21.33
867.718	66.73
867.891	31.91
868.065	-29.52
868.238	83.11
868.412	-4.95
868.585	-4.95
868.759	103.59
868.932	58.54
869.105	7.34
869.279	62.63
869.452	-52.05
869.625	9.39
869.799	17.58
869.972	-4.95
870.145	17.58
870.319	7.34
870.492	40.11
870.665	81.07
870.838	-11.09
871.011	-52.05
871.185	25.77
871.358	-33.62
871.531	-0.85
871.704	5.29
871.877	-82.77
872.05	1.19
872.223	3.24
872.396	85.16
872.569	60.59
872.742	-33.62
872.915	33.96
873.088	17.58
873.261	64.68
873.434	36.01
873.607	27.82
873.78	91.31
873.953	-0.85
874.126	46.25
874.299	5.29
874.471	27.82
874.644	5.29
874.817	101.55
874.99	81.07
875.163	-33.62
875.335	-70.48
875.508	-29.52
875.681	33.96
875.853	11.43
876.026	11.43
876.199	52.39
876.371	38.06
876.544	-11.09
876.717	-21.33
876.889	-70.48
877.062	105.64
877.234	-29.52
877.407	29.87
877.579	-33.62
877.752	38.06
877.924	74.92
878.097	40.11
878.269	-27.48
878.442	44.2
878.614	23.72
878.786	17.58
878.959	72.87
879.131	105.64
879.303	-4.95
879.476	-25.43
879.648	46.25
879.82	40.11
879.993	11.43
880.165	72.87
880.337	33.96
880.509	31.91
880.681	-13.14
880.854	-15.19
881.026	-11.09
881.198	103.59
881.37	21.67
881.542	-31.57
881.714	-41.81
881.886	3.24
882.058	-23.38
882.23	83.11
882.402	15.53
882.574	29.87
882.746	29.87
882.918	25.77
883.09	-23.38
883.262	60.59
883.434	38.06
883.606	21.67
883.778	44.2
883.95	76.97
884.122	3.24
884.293	17.58
884.465	52.39
884.637	48.3
884.809	40.11
884.98	17.58
885.152	15.53
885.324	31.91
885.496	27.82
885.667	27.82
885.839	68.78
886.011	48.3
886.182	23.72
886.354	13.48
886.525	-19.29
886.697	97.45
886.869	5.29
887.04	-33.62
887.212	95.4
887.383	13.48
887.555	-7
887.726	13.48
887.897	-9.05
888.069	3.24
888.24	74.92
888.412	66.73
888.583	1.19
888.754	44.2
888.926	-31.57
889.097	23.72
889.268	-68.44
889.44	142.5
889.611	-15.19
889.782	54.44
889.953	7.34
890.125	76.97
890.296	-19.29
890.467	-39.76
890.638	38.06
890.809	-33.62
890.98	76.97
891.151	13.48
891.323	50.35
891.494	-43.86
891.665	31.91
891.836	-11.09
892.007	99.5
892.178	29.87
892.349	64.68
892.52	11.43
892.691	5.29
892.862	-47.96
893.032	25.77
893.203	-25.43
893.374	-4.95
893.545	48.3
893.716	-31.57
893.887	29.87
894.057	40.11
894.228	38.06
894.399	-41.81
894.57	-37.72
894.74	42.15
894.911	-19.29
895.082	-64.34
895.253	-17.24
895.423	13.48
895.594	-39.76
895.764	62.63
895.935	-52.05
896.106	7.34
896.276	-27.48
896.447	52.39
896.617	15.53
896.788	-21.33
896.958	1.19
897.129	33.96
897.299	-23.38
897.47	13.48
897.64	11.43
897.81	-43.86
897.981	64.68
898.151	17.58
898.322	54.44
898.492	23.72
898.662	9.39
898.832	-64.34
899.003	-25.43
899.173	-37.72
899.343	99.5
899.513	-68.44
