Data from USB4F104151__12__12-23-23-463.txt Node

Date: Fri Mar 14 12:23:23 EDT 2025
User: louis
Spectrometer: USB4F10415
Trigger mode: 4
Integration Time (sec): 3.500000E-2
Scans to average: 1
Electric dark correction enabled: true
Nonlinearity correction enabled: false
Boxcar width: 0
XAxis mode: Wavelengths
Number of Pixels in Spectrum: 3648
>>>>>Begin Spectral Data<<<<<
178.204	-141.65
178.424	-141.65
178.644	-141.65
178.864	-211.28
179.084	-98.64
179.304	-18.77
179.524	-16.73
179.744	-8.53
179.964	85.67
180.184	18.09
180.404	89.77
180.624	-16.73
180.844	1.71
181.064	26.28
181.283	-53.59
181.503	-24.92
181.723	-82.26
181.943	-82.26
182.163	91.82
182.383	-12.63
182.602	26.28
182.822	73.39
183.042	24.23
183.262	-33.11
183.482	-0.34
183.701	-29.01
183.921	28.33
184.141	30.38
184.361	18.09
184.58	-57.68
184.8	108.2
185.02	22.19
185.239	151.21
185.459	-4.44
185.679	22.19
185.898	1.71
186.118	-24.92
186.338	65.19
186.557	40.62
186.777	-35.16
186.997	46.76
187.216	18.09
187.436	59.05
187.655	61.1
187.875	32.43
188.095	-14.68
188.314	116.39
188.534	-12.63
188.753	9.9
188.973	9.9
189.192	93.87
189.412	54.95
189.631	34.47
189.851	18.09
190.07	44.71
190.29	26.28
190.509	-22.87
190.729	48.81
190.948	79.53
191.168	145.06
191.387	112.3
191.607	-26.96
191.826	36.52
192.045	65.19
192.265	-51.54
192.484	46.76
192.704	-76.12
192.923	-8.53
193.142	134.82
193.362	18.09
193.581	91.82
193.8	34.47
194.02	-20.82
194.239	-69.97
194.458	28.33
194.678	-22.87
194.897	30.38
195.116	40.62
195.335	87.72
195.555	32.43
195.774	36.52
195.993	-2.39
196.212	-29.01
196.432	-20.82
196.651	-57.68
196.87	52.91
197.089	85.67
197.308	85.67
197.528	28.33
197.747	-53.59
197.966	-35.16
198.185	20.14
198.404	44.71
198.623	13.99
198.842	24.23
199.062	128.68
199.281	75.43
199.5	-2.39
199.719	-12.63
199.938	48.81
200.157	65.19
200.376	-45.4
200.595	-31.06
200.814	-10.58
201.033	-2.39
201.252	63.15
201.471	91.82
201.69	67.24
201.909	89.77
202.128	38.57
202.347	75.43
202.566	87.72
202.785	-0.34
203.004	1.71
203.223	59.05
203.442	-10.58
203.661	-22.87
203.879	44.71
204.098	32.43
204.317	-41.3
204.536	120.49
204.755	32.43
204.974	106.15
205.193	52.91
205.411	147.11
205.63	54.95
205.849	36.52
206.068	54.95
206.287	67.24
206.505	81.58
206.724	38.57
206.943	-12.63
207.162	24.23
207.381	28.33
207.599	-18.77
207.818	3.75
208.037	57
208.255	26.28
208.474	-8.53
208.693	36.52
208.911	9.9
209.13	28.33
209.349	71.34
209.567	-12.63
209.786	57
210.005	-24.92
210.223	50.86
210.442	-24.92
210.661	24.23
210.879	9.9
211.098	9.9
211.316	36.52
211.535	-14.68
211.753	-31.06
211.972	32.43
212.191	26.28
212.409	-24.92
212.628	16.04
212.846	65.19
213.065	32.43
213.283	52.91
213.502	1.71
213.72	3.75
213.938	69.29
214.157	-14.68
214.375	57
214.594	26.28
214.812	-24.92
215.031	54.95
215.249	46.76
215.467	-26.96
215.686	69.29
215.904	75.43
216.122	87.72
216.341	81.58
216.559	73.39
216.778	81.58
216.996	26.28
217.214	40.62
217.432	28.33
217.651	-49.49
217.869	-12.63
218.087	-14.68
218.306	-18.77
218.524	28.33
218.742	16.04
218.96	11.95
219.179	73.39
219.397	65.19
219.615	67.24
219.833	-88.4
220.051	-63.83
220.27	100.01
220.488	73.39
220.706	26.28
220.924	13.99
221.142	-12.63
221.36	-16.73
221.578	54.95
221.796	-16.73
222.015	48.81
222.233	30.38
222.451	46.76
222.669	87.72
222.887	38.57
223.105	-26.96
223.323	9.9
223.541	-47.44
223.759	65.19
223.977	-55.64
224.195	75.43
224.413	32.43
224.631	32.43
224.849	-53.59
225.067	97.96
225.285	79.53
225.503	52.91
225.721	-2.39
225.939	-45.4
226.157	50.86
226.375	124.58
226.592	32.43
226.81	81.58
227.028	114.34
227.246	161.45
227.464	-16.73
227.682	71.34
227.9	5.8
228.117	-12.63
228.335	-10.58
228.553	104.11
228.771	83.63
228.989	48.81
229.206	69.29
229.424	42.67
229.642	34.47
229.86	40.62
230.077	59.05
230.295	-8.53
230.513	-4.44
230.731	18.09
230.948	85.67
231.166	54.95
231.384	-0.34
231.601	57
231.819	85.67
232.037	28.33
232.254	22.19
232.472	79.53
232.689	-14.68
232.907	32.43
233.125	50.86
233.342	42.67
233.56	54.95
233.777	-26.96
233.995	52.91
234.213	52.91
234.43	16.04
234.648	-2.39
234.865	18.09
235.083	57
235.3	48.81
235.518	13.99
235.735	24.23
235.953	22.19
236.17	7.85
236.388	7.85
236.605	32.43
236.822	69.29
237.04	95.91
237.257	-18.77
237.475	28.33
237.692	48.81
237.909	77.48
238.127	65.19
238.344	-14.68
238.562	28.33
238.779	-51.54
238.996	-2.39
239.214	63.15
239.431	9.9
239.648	3.75
239.865	-0.34
240.083	134.82
240.3	63.15
240.517	24.23
240.735	63.15
240.952	40.62
241.169	32.43
241.386	1.71
241.603	36.52
241.821	69.29
242.038	30.38
242.255	118.44
242.472	-0.34
242.689	-6.49
242.907	67.24
243.124	-29.01
243.341	61.1
243.558	54.95
243.775	-57.68
243.992	-12.63
244.209	-12.63
244.426	85.67
244.643	44.71
244.86	-12.63
245.078	-41.3
245.295	34.47
245.512	-31.06
245.729	-6.49
245.946	-29.01
246.163	50.86
246.38	48.81
246.597	28.33
246.814	24.23
247.031	-6.49
247.248	75.43
247.464	52.91
247.681	11.95
247.898	42.67
248.115	26.28
248.332	-20.82
248.549	18.09
248.766	83.63
248.983	85.67
249.2	40.62
249.417	40.62
249.633	-26.96
249.85	71.34
250.067	-16.73
250.284	1.71
250.501	116.39
250.717	71.34
250.934	38.57
251.151	22.19
251.368	-14.68
251.585	83.63
251.801	63.15
252.018	-26.96
252.235	34.47
252.451	16.04
252.668	-2.39
252.885	61.1
253.102	22.19
253.318	65.19
253.535	11.95
253.752	48.81
253.968	57
254.185	48.81
254.401	20.14
254.618	69.29
254.835	22.19
255.051	102.06
255.268	73.39
255.484	28.33
255.701	24.23
255.917	52.91
256.134	-22.87
256.351	3.75
256.567	30.38
256.784	-16.73
257	-22.87
257.217	69.29
257.433	30.38
257.65	42.67
257.866	63.15
258.082	1.71
258.299	52.91
258.515	85.67
258.732	71.34
258.948	-24.92
259.165	-16.73
259.381	44.71
259.597	20.14
259.814	50.86
260.03	48.81
260.246	-0.34
260.463	-35.16
260.679	36.52
260.895	71.34
261.112	-2.39
261.328	1.71
261.544	-18.77
261.761	100.01
261.977	38.57
262.193	11.95
262.409	120.49
262.626	67.24
262.842	7.85
263.058	-45.4
263.274	132.78
263.49	-12.63
263.707	18.09
263.923	44.71
264.139	-35.16
264.355	36.52
264.571	36.52
264.787	13.99
265.004	-51.54
265.22	79.53
265.436	77.48
265.652	-8.53
265.868	36.52
266.084	54.95
266.3	75.43
266.516	-51.54
266.732	67.24
266.948	9.9
267.164	7.85
267.38	54.95
267.596	63.15
267.812	112.3
268.028	100.01
268.244	24.23
268.46	75.43
268.676	3.75
268.892	91.82
269.108	5.8
269.324	-6.49
269.54	-31.06
269.756	124.58
269.972	-31.06
270.188	-61.78
270.403	-31.06
270.619	9.9
270.835	63.15
271.051	22.19
271.267	-0.34
271.483	24.23
271.698	18.09
271.914	83.63
272.13	-18.77
272.346	7.85
272.562	13.99
272.777	16.04
272.993	-8.53
273.209	-16.73
273.425	30.38
273.64	1.71
273.856	52.91
274.072	75.43
274.287	13.99
274.503	48.81
274.719	-31.06
274.934	34.47
275.15	-82.26
275.366	13.99
275.581	11.95
275.797	-74.07
276.012	13.99
276.228	65.19
276.444	32.43
276.659	61.1
276.875	7.85
277.09	7.85
277.306	61.1
277.521	63.15
277.737	11.95
277.952	16.04
278.168	89.77
278.383	-0.34
278.599	-39.25
278.814	26.28
279.03	1.71
279.245	16.04
279.461	42.67
279.676	32.43
279.892	-35.16
280.107	16.04
280.322	-20.82
280.538	-10.58
280.753	-10.58
280.969	75.43
281.184	54.95
281.399	11.95
281.615	48.81
281.83	20.14
282.045	-43.35
282.26	22.19
282.476	-18.77
282.691	102.06
282.906	-69.97
283.122	7.85
283.337	-57.68
283.552	7.85
283.767	-20.82
283.983	-18.77
284.198	26.28
284.413	57
284.628	-49.49
284.843	28.33
285.058	24.23
285.274	59.05
285.489	9.9
285.704	7.85
285.919	69.29
286.134	-14.68
286.349	9.9
286.564	7.85
286.779	89.77
286.995	3.75
287.21	-0.34
287.425	85.67
287.64	-10.58
287.855	46.76
288.07	-16.73
288.285	89.77
288.5	48.81
288.715	20.14
288.93	24.23
289.145	-41.3
289.36	106.15
289.575	24.23
289.79	36.52
290.004	-33.11
290.219	3.75
290.434	-6.49
290.649	50.86
290.864	9.9
291.079	42.67
291.294	36.52
291.509	67.24
291.724	145.06
291.938	30.38
292.153	40.62
292.368	38.57
292.583	-12.63
292.798	104.11
293.012	-0.34
293.227	-33.11
293.442	89.77
293.657	67.24
293.871	34.47
294.086	34.47
294.301	106.15
294.516	65.19
294.73	110.25
294.945	22.19
295.16	-55.64
295.374	95.91
295.589	97.96
295.804	54.95
296.018	40.62
296.233	71.34
296.447	42.67
296.662	73.39
296.877	7.85
297.091	22.19
297.306	61.1
297.52	13.99
297.735	24.23
297.949	-35.16
298.164	7.85
298.378	38.57
298.593	-4.44
298.807	-43.35
299.022	63.15
299.236	71.34
299.451	106.15
299.665	77.48
299.88	-53.59
300.094	-2.39
300.309	42.67
300.523	26.28
300.737	-6.49
300.952	63.15
301.166	18.09
301.381	-12.63
301.595	-47.44
301.809	46.76
302.024	7.85
302.238	32.43
302.452	77.48
302.667	-41.3
302.881	-10.58
303.095	75.43
303.309	81.58
303.524	-57.68
303.738	100.01
303.952	-12.63
304.166	-24.92
304.381	-33.11
304.595	7.85
304.809	-24.92
305.023	85.67
305.237	34.47
305.452	44.71
305.666	11.95
305.88	32.43
306.094	81.58
306.308	44.71
306.522	100.01
306.736	57
306.95	11.95
307.164	73.39
307.379	16.04
307.593	-0.34
307.807	83.63
308.021	102.06
308.235	-41.3
308.449	-14.68
308.663	75.43
308.877	73.39
309.091	65.19
309.305	52.91
309.519	-16.73
309.733	91.82
309.947	-37.2
310.161	71.34
310.374	100.01
310.588	73.39
310.802	36.52
311.016	44.71
311.23	50.86
311.444	-0.34
311.658	46.76
311.872	52.91
312.085	157.35
312.299	42.67
312.513	46.76
312.727	50.86
312.941	22.19
313.154	28.33
313.368	-4.44
313.582	50.86
313.796	32.43
314.009	67.24
314.223	11.95
314.437	95.91
314.651	28.33
314.864	54.95
315.078	20.14
315.292	26.28
315.505	-31.06
315.719	-18.77
315.933	-51.54
316.146	-18.77
316.36	-10.58
316.573	59.05
316.787	9.9
317.001	44.71
317.214	-59.73
317.428	26.28
317.641	-29.01
317.855	11.95
318.068	22.19
318.282	-14.68
318.495	118.44
318.709	22.19
318.922	-2.39
319.136	9.9
319.349	104.11
319.563	3.75
319.776	38.57
319.99	-6.49
320.203	67.24
320.417	18.09
320.63	1.71
320.843	95.91
321.057	32.43
321.27	50.86
321.483	59.05
321.697	87.72
321.91	54.95
322.124	-12.63
322.337	30.38
322.55	20.14
322.763	-63.83
322.977	50.86
323.19	32.43
323.403	32.43
323.617	67.24
323.83	59.05
324.043	-33.11
324.256	122.54
324.469	24.23
324.683	46.76
324.896	75.43
325.109	34.47
325.322	-65.88
325.535	48.81
325.748	46.76
325.962	20.14
326.175	-24.92
326.388	50.86
326.601	114.34
326.814	79.53
327.027	81.58
327.24	54.95
327.453	13.99
327.666	-14.68
327.879	32.43
328.092	87.72
328.305	54.95
328.518	-47.44
328.731	57
328.944	3.75
329.157	-22.87
329.37	-37.2
329.583	42.67
329.796	89.77
330.009	-22.87
330.222	42.67
330.435	-16.73
330.648	69.29
330.861	69.29
331.073	20.14
331.286	13.99
331.499	89.77
331.712	26.28
331.925	16.04
332.138	-4.44
332.35	87.72
332.563	59.05
332.776	57
332.989	69.29
333.202	16.04
333.414	40.62
333.627	36.52
333.84	-24.92
334.053	3.75
334.265	9.9
334.478	63.15
334.691	-22.87
334.903	34.47
335.116	-0.34
335.329	36.52
335.541	32.43
335.754	95.91
335.966	16.04
336.179	-8.53
336.392	16.04
336.604	40.62
336.817	77.48
337.029	-33.11
337.242	-0.34
337.454	65.19
337.667	26.28
337.88	122.54
338.092	59.05
338.305	73.39
338.517	13.99
338.729	85.67
338.942	157.35
339.154	57
339.367	30.38
339.579	22.19
339.792	-35.16
340.004	-4.44
340.217	20.14
340.429	22.19
340.641	57
340.854	11.95
341.066	-24.92
341.278	85.67
341.491	75.43
341.703	93.87
341.915	-35.16
342.128	40.62
342.34	-26.96
342.552	-0.34
342.764	-14.68
342.977	44.71
343.189	97.96
343.401	81.58
343.613	44.71
343.826	3.75
344.038	36.52
344.25	81.58
344.462	44.71
344.674	73.39
344.886	52.91
345.099	16.04
345.311	44.71
345.523	-14.68
345.735	-45.4
345.947	77.48
346.159	9.9
346.371	20.14
346.583	-20.82
346.795	83.63
347.007	124.58
347.219	65.19
347.431	36.52
347.643	34.47
347.855	67.24
348.067	83.63
348.279	11.95
348.491	28.33
348.703	54.95
348.915	-16.73
349.127	36.52
349.339	69.29
349.551	-0.34
349.763	32.43
349.975	-106.84
350.187	61.1
350.399	52.91
350.61	75.43
350.822	-63.83
351.034	108.2
351.246	61.1
351.458	124.58
351.669	3.75
351.881	52.91
352.093	-2.39
352.305	57
352.517	48.81
352.728	102.06
352.94	26.28
353.152	102.06
353.363	54.95
353.575	34.47
353.787	104.11
353.999	46.76
354.21	114.34
354.422	57
354.633	30.38
354.845	34.47
355.057	42.67
355.268	85.67
355.48	40.62
355.692	13.99
355.903	57
356.115	20.14
356.326	24.23
356.538	40.62
356.749	89.77
356.961	50.86
357.172	65.19
357.384	-33.11
357.595	147.11
357.807	-10.58
358.018	11.95
358.23	-29.01
358.441	67.24
358.653	44.71
358.864	57
359.075	11.95
359.287	87.72
359.498	24.23
359.709	3.75
359.921	34.47
360.132	46.76
360.344	75.43
360.555	32.43
360.766	-6.49
360.977	-29.01
361.189	38.57
361.4	18.09
361.611	34.47
361.823	134.82
362.034	30.38
362.245	-47.44
362.456	42.67
362.667	-24.92
362.879	100.01
363.09	-18.77
363.301	42.67
363.512	26.28
363.723	-55.64
363.935	54.95
364.146	85.67
364.357	18.09
364.568	57
364.779	-22.87
364.99	171.69
365.201	44.71
365.412	126.63
365.623	-16.73
365.834	46.76
366.045	22.19
366.256	-8.53
366.467	104.11
366.678	48.81
366.889	9.9
367.1	3.75
367.311	-35.16
367.522	59.05
367.733	48.81
367.944	71.34
368.155	5.8
368.366	69.29
368.577	102.06
368.788	16.04
368.999	-8.53
369.209	24.23
369.42	81.58
369.631	128.68
369.842	28.33
370.053	34.47
370.264	85.67
370.474	28.33
370.685	7.85
370.896	18.09
371.107	-8.53
371.317	73.39
371.528	11.95
371.739	97.96
371.95	93.87
372.16	11.95
372.371	-10.58
372.582	-51.54
372.792	42.67
373.003	59.05
373.214	63.15
373.424	48.81
373.635	-14.68
373.846	26.28
374.056	83.63
374.267	13.99
374.477	1.71
374.688	40.62
374.898	-24.92
375.109	26.28
375.319	-4.44
375.53	89.77
375.74	26.28
375.951	81.58
376.161	-2.39
376.372	54.95
376.582	122.54
376.793	52.91
377.003	54.95
377.214	44.71
377.424	-31.06
377.635	118.44
377.845	34.47
378.055	114.34
378.266	46.76
378.476	9.9
378.686	9.9
378.897	36.52
379.107	67.24
379.317	22.19
379.528	52.91
379.738	52.91
379.948	97.96
380.158	112.3
380.369	30.38
380.579	79.53
380.789	36.52
380.999	102.06
381.21	91.82
381.42	100.01
381.63	42.67
381.84	13.99
382.05	38.57
382.261	100.01
382.471	40.62
382.681	7.85
382.891	165.54
383.101	79.53
383.311	40.62
383.521	65.19
383.731	75.43
383.941	52.91
384.151	46.76
384.361	42.67
384.571	112.3
384.781	54.95
384.991	91.82
385.201	104.11
385.411	83.63
385.621	59.05
385.831	63.15
386.041	75.43
386.251	52.91
386.461	44.71
386.671	40.62
386.881	102.06
387.091	122.54
387.301	75.43
387.511	24.23
387.72	112.3
387.93	85.67
388.14	5.8
388.35	11.95
388.56	128.68
388.769	18.09
388.979	24.23
389.189	75.43
389.399	42.67
389.609	40.62
389.818	59.05
390.028	54.95
390.238	128.68
390.447	-0.34
390.657	69.29
390.867	38.57
391.076	89.77
391.286	59.05
391.496	73.39
391.705	11.95
391.915	13.99
392.125	87.72
392.334	69.29
392.544	104.11
392.753	-16.73
392.963	-18.77
393.172	73.39
393.382	-0.34
393.591	87.72
393.801	52.91
394.01	155.3
394.22	165.54
394.429	16.04
394.639	97.96
394.848	69.29
395.058	63.15
395.267	79.53
395.477	63.15
395.686	102.06
395.895	136.87
396.105	200.36
396.314	87.72
396.524	28.33
396.733	59.05
396.942	112.3
397.152	145.06
397.361	69.29
397.57	138.92
397.78	118.44
397.989	118.44
398.198	147.11
398.407	104.11
398.617	69.29
398.826	87.72
399.035	42.67
399.244	32.43
399.453	57
399.663	132.78
399.872	102.06
400.081	93.87
400.29	100.01
400.499	61.1
400.708	97.96
400.917	126.63
401.127	102.06
401.336	65.19
401.545	143.02
401.754	102.06
401.963	71.34
402.172	118.44
402.381	11.95
402.59	26.28
402.799	118.44
403.008	118.44
403.217	169.64
403.426	106.15
403.635	85.67
403.844	122.54
404.053	112.3
404.262	112.3
404.471	147.11
404.68	145.06
404.888	108.2
405.097	100.01
405.306	118.44
405.515	153.26
405.724	159.4
405.933	120.49
406.142	171.69
406.35	132.78
406.559	134.82
406.768	157.35
406.977	190.12
407.185	210.6
407.394	181.93
407.603	183.98
407.812	188.07
408.02	212.65
408.229	177.83
408.438	71.34
408.646	231.08
408.855	210.6
409.064	255.65
409.272	206.5
409.481	308.9
409.69	183.98
409.898	196.26
410.107	280.23
410.315	267.94
410.524	286.37
410.733	321.19
410.941	229.03
411.15	294.57
411.358	317.09
411.567	313
411.775	304.81
411.984	282.28
412.192	315.05
412.401	343.72
412.609	372.39
412.818	376.48
413.026	372.39
413.234	474.79
413.443	333.48
413.651	396.96
413.86	482.98
414.068	468.64
414.276	513.7
414.485	460.45
414.693	544.42
414.901	616.1
415.11	519.84
415.318	493.22
415.526	573.09
415.734	618.15
415.943	638.62
416.151	566.95
416.359	614.05
416.567	734.88
416.776	706.21
416.984	708.26
417.192	833.18
417.4	743.07
417.608	769.69
417.817	810.65
418.025	824.99
418.233	1017.5
418.441	794.27
418.649	966.3
418.857	968.35
419.065	1048.22
419.273	1015.45
419.481	1068.7
419.689	1113.75
419.897	1164.95
420.105	1210.01
420.313	1353.37
420.521	1316.5
420.729	1293.97
420.937	1306.26
421.145	1296.02
421.353	1496.72
421.561	1611.41
421.769	1549.97
421.977	1541.78
422.185	1615.51
422.393	1701.52
422.601	1777.3
422.809	1810.06
423.017	1814.16
423.224	1867.41
423.432	2010.76
423.64	1980.04
423.848	2154.12
424.056	2061.96
424.263	2178.7
424.471	2283.14
424.679	2252.42
424.887	2485.89
425.094	2539.14
425.302	2455.17
425.51	2561.67
425.718	2733.7
425.925	2754.18
426.133	2754.18
426.341	2946.69
426.548	3131
426.756	3116.67
426.964	3151.48
427.171	3393.14
427.379	3505.78
427.586	3481.21
427.794	3628.66
428.001	3782.26
428.209	3855.98
428.417	3698.29
428.624	4210.28
428.832	4044.4
429.039	4181.61
429.247	4099.69
429.454	4540.01
429.662	4802.15
429.869	4566.63
430.076	4808.29
430.284	4718.18
430.491	5043.81
430.699	5217.88
430.906	5181.02
431.114	5260.89
431.321	5496.41
431.528	5523.03
431.736	5799.51
431.943	5994.06
432.15	5903.95
432.358	6008.4
432.565	6344.27
432.772	6417.99
432.979	6608.45
433.187	6770.24
433.394	6837.83
433.601	7169.6
433.808	7462.46
434.016	7394.87
434.223	7501.37
434.43	8048.18
434.637	7798.32
434.844	8449.58
435.052	8539.69
435.259	8613.42
435.466	8697.38
435.673	8570.41
435.88	9109.02
436.087	9561.62
436.294	9612.82
436.501	9254.43
436.708	9606.68
436.915	9745.94
437.122	10210.83
437.329	10167.82
437.537	10542.6
437.743	10663.43
437.95	10653.19
438.157	11230.72
438.364	11855.35
438.571	11761.14
438.778	11728.38
438.985	13022.69
439.192	12127.73
439.399	12830.18
439.606	12158.45
439.813	13338.08
440.02	13917.65
440.227	13807.06
440.433	13536.73
440.64	13921.75
440.847	13827.54
441.054	14190.03
441.261	15224.26
441.467	14945.73
441.674	15085
441.881	15744.44
442.088	16061.88
442.294	15756.73
442.501	16295.35
442.708	16442.8
442.914	17018.28
443.121	17819.03
443.328	17309.09
443.534	18722.19
443.741	17892.76
443.948	17905.05
444.154	19205.51
444.361	19246.47
444.568	19023.24
444.774	19205.51
444.981	19414.4
445.187	20219.25
445.394	20766.06
445.6	20430.19
445.807	22441.3
446.013	21400.93
446.22	22097.24
446.426	22764.88
446.633	22957.39
446.839	24057.15
447.046	22789.45
447.252	24196.41
447.459	24231.22
447.665	23960.89
447.871	25054.51
448.078	26533.14
448.284	25290.02
448.491	25830.69
448.697	26737.94
448.903	26862.86
449.11	27157.77
449.316	26922.26
449.522	27454.73
449.728	28400.89
449.935	28454.14
450.141	28196.09
450.347	29271.28
450.553	27868.42
450.76	28093.69
450.966	28949.74
451.172	28880.11
451.378	29891.81
451.584	29015.28
451.791	29986.02
451.997	29805.8
452.203	30371.04
452.409	30209.25
452.615	30121.18
452.821	29013.23
453.027	28445.94
453.233	30270.68
453.44	29007.09
453.646	29009.14
453.852	28996.85
454.058	29684.97
454.264	28749.04
454.47	29818.08
454.676	28433.66
454.882	29889.76
455.088	27397.38
455.294	27675.91
455.5	28101.89
455.705	28148.99
455.911	26823.95
456.117	26438.94
456.323	26041.63
456.529	24825.14
456.735	25826.59
456.941	25287.98
457.147	24657.2
457.352	24120.63
457.558	23606.59
457.764	23948.61
457.97	23459.14
458.176	22814.03
458.381	22756.69
458.587	21591.39
458.793	21751.13
458.999	20501.87
459.204	22125.91
459.41	21448.04
459.616	20032.89
459.821	20168.05
460.027	20028.79
460.233	19488.13
460.438	18750.86
460.644	18660.75
460.85	18054.55
461.055	17722.78
461.261	17765.79
461.466	16410.03
461.672	15760.83
461.878	16684.46
462.083	15750.59
462.289	15424.96
462.494	15085
462.7	14634.44
462.905	14095.83
463.111	14663.11
463.316	14929.35
463.522	14499.28
463.727	14392.78
463.932	14425.55
464.138	14376.4
464.343	14249.43
464.549	13909.46
464.754	14456.27
464.959	14251.47
465.165	14181.84
465.37	13628.89
465.575	13196.77
465.781	13874.65
465.986	14042.58
466.191	13393.37
466.397	12983.78
466.602	12516.84
466.807	13016.55
467.012	12996.07
467.218	12977.64
467.423	12766.7
467.628	12697.06
467.833	13139.43
468.038	12783.08
468.244	12533.23
468.449	13004.26
468.654	12623.34
468.859	12479.98
469.064	12230.13
469.269	11976.18
469.474	11980.28
469.679	12154.35
469.885	11746.81
470.09	12137.97
470.295	11879.93
470.5	11339.26
470.705	11836.92
470.91	11369.98
471.115	11111.94
471.32	11402.75
471.525	11324.93
471.73	11369.98
471.935	11159.04
472.139	10630.66
472.344	10728.97
472.549	10542.6
472.754	10714.63
472.959	10419.72
473.164	10073.62
473.369	9965.07
473.574	10548.75
473.778	10255.89
473.983	10159.63
474.188	10241.55
474.393	9711.13
474.598	9899.54
474.802	9690.65
475.007	9573.91
475.212	9561.62
475.417	9264.67
475.621	9432.6
475.826	9397.79
476.031	9203.23
476.235	8998.43
476.44	9256.48
476.645	8932.9
476.849	9010.72
477.054	8685.09
477.259	8746.53
477.463	8805.92
477.668	8394.28
477.872	8533.54
478.077	8396.33
478.282	8300.08
478.486	8134.19
478.691	8185.39
478.895	8267.31
479.1	7947.83
479.304	7945.78
479.509	7996.98
479.713	7960.11
479.918	7708.21
480.122	7849.52
480.326	7906.87
480.531	7863.86
480.735	7609.91
480.94	7626.29
481.144	7859.76
481.348	7591.48
481.553	7642.68
481.757	7470.65
481.961	7657.01
482.166	7661.11
482.37	7501.37
482.574	7427.64
482.778	7382.59
482.983	7673.4
483.187	7564.86
483.391	7558.71
483.595	7556.66
483.8	7329.34
484.004	7484.98
484.208	7618.1
484.412	7368.25
484.616	7628.34
484.821	7523.9
485.025	7274.04
485.229	7425.59
485.433	7372.35
485.637	7450.17
485.841	7417.4
486.045	7730.74
486.249	7489.08
486.453	7511.61
486.657	7362.11
486.861	7628.34
487.065	7251.52
487.269	7552.57
487.473	7392.83
487.677	7517.75
487.881	7585.33
488.085	7403.07
488.289	7568.95
488.493	7462.46
488.697	7562.81
488.901	7478.84
489.105	7431.74
489.309	7482.94
489.512	7589.43
489.716	7562.81
489.92	7624.25
490.124	7384.63
490.328	7738.93
490.531	7427.64
490.735	7652.92
490.939	7763.51
491.143	7802.42
491.346	7624.25
491.55	7913.01
491.754	7757.36
491.958	7700.02
492.161	7870
492.365	7915.06
492.569	7722.55
492.772	7743.03
492.976	8050.22
493.18	8027.7
493.383	8027.7
493.587	8142.38
493.79	8310.32
493.994	8074.8
494.197	8261.16
494.401	8326.7
494.605	8341.04
494.808	8336.94
495.012	8640.04
495.215	8640.04
495.419	8801.83
495.622	8439.34
495.825	8635.94
496.029	8783.4
496.232	8969.76
496.436	8730.15
496.639	8922.66
496.843	8941.09
497.046	9248.29
497.249	9481.75
497.453	9254.43
497.656	9455.13
497.859	9451.03
498.063	9780.76
498.266	9780.76
498.469	9834
498.673	9983.51
498.876	10141.2
499.079	10255.89
499.282	10149.39
499.485	10577.42
499.689	10434.06
499.892	10542.6
500.095	10698.25
500.298	10989.06
500.501	10950.15
500.705	11224.58
500.908	11255.29
501.111	11189.76
501.314	11443.71
501.517	11761.14
501.72	11562.49
501.923	11634.17
502.126	11920.88
502.329	12211.7
502.532	12223.98
502.735	12303.85
502.938	12473.84
503.141	12539.37
503.344	12854.76
503.547	12809.7
503.75	12981.73
503.953	13209.06
504.156	13274.59
504.359	13604.32
504.562	13600.22
504.765	14163.41
504.968	14228.95
505.17	14202.32
505.373	14085.59
505.576	14652.88
505.779	14730.7
505.982	14966.21
506.185	15119.81
506.387	15113.67
506.59	15171.01
506.793	15623.61
506.996	15541.69
507.198	15971.77
507.401	15836.6
507.604	16115.12
507.807	16362.93
508.009	16534.96
508.212	16653.74
508.415	16772.52
508.617	16938.41
508.82	17356.19
509.022	17460.64
509.225	17384.87
509.428	17948.06
509.63	18072.98
509.833	18013.59
510.035	18552.21
510.238	18394.51
510.44	18834.83
510.643	19004.81
510.845	19178.89
511.048	19125.64
511.25	19248.52
511.453	19385.73
511.655	20364.66
511.858	20194.68
512.06	20245.88
512.262	20577.65
512.465	20782.45
512.667	20882.8
512.87	21435.75
513.072	21484.9
513.274	21949.79
513.477	21984.6
513.679	22263.13
513.881	22582.61
514.084	22336.85
514.286	22650.19
514.488	23225.67
514.69	23584.07
514.893	23442.76
515.095	23575.87
515.297	23956.8
515.499	23868.73
515.701	24536.37
515.904	24866.1
516.106	25128.24
516.308	25302.31
516.51	25648.42
516.712	25675.04
516.914	26129.69
517.116	26594.58
517.318	26524.95
517.52	26864.91
517.722	26901.78
517.925	27004.17
518.127	27536.65
518.329	27637
518.531	27604.23
518.733	27907.33
518.935	28493.05
519.136	28695.8
519.338	28777.72
519.54	29105.39
519.742	29549.8
519.944	29701.35
520.146	30411.99
520.348	30239.97
520.55	30543.06
520.752	30596.31
520.954	31503.56
521.155	30969.04
521.357	31630.54
521.559	31837.38
521.761	32367.8
521.963	32122.05
522.164	32453.82
522.366	32965.81
522.568	33053.87
522.77	33209.52
522.971	33799.33
523.173	33660.07
523.375	34055.33
523.576	33930.4
523.778	34167.97
523.98	34704.54
524.181	34878.61
524.383	34880.66
524.584	35804.3
524.786	35531.92
524.988	35079.32
525.189	35787.91
525.391	36011.14
525.592	36609.15
525.794	36533.37
525.995	36928.63
526.197	36498.56
526.398	36859
526.6	37233.78
526.801	37258.35
527.003	37618.8
527.204	37698.67
527.406	38171.75
527.607	38155.36
527.808	38409.31
528.01	37715.05
528.211	38222.95
528.412	39001.18
528.614	38954.07
528.815	38894.68
529.016	39281.75
529.218	38972.5
529.419	38857.82
529.62	39308.37
529.822	39656.53
530.023	39332.95
530.224	39482.45
530.425	39525.46
530.626	39384.15
530.828	39445.58
531.029	40154.18
531.23	40010.82
531.431	40076.36
531.632	40152.13
531.833	40430.66
532.035	40053.83
532.236	40229.96
532.437	40660.03
532.638	40223.81
532.839	40797.24
533.04	40918.07
533.241	40236.1
533.442	41006.14
533.643	41063.48
533.844	41108.54
534.045	40903.74
534.246	40639.55
534.447	41174.07
534.648	40748.09
534.849	41135.16
535.05	40639.55
535.251	40612.93
535.451	40987.71
535.652	41212.98
535.853	41129.02
536.054	41292.85
536.255	41432.11
536.456	41206.84
536.657	41751.6
536.857	41276.47
537.058	41253.94
537.259	40999.99
537.46	41690.16
537.66	40938.55
537.861	41143.35
538.062	40795.2
538.263	41153.59
538.463	40895.55
538.664	40909.88
538.865	41548.85
539.065	41522.23
539.266	40793.15
539.466	41569.33
539.667	41299
539.868	41890.86
540.068	41284.66
540.269	41182.26
540.469	41460.79
540.67	40768.57
540.87	41514.03
541.071	41311.28
541.271	41452.59
541.472	41059.38
541.672	40965.18
541.873	40965.18
542.073	40631.36
542.274	41409.59
542.474	40858.68
542.675	41094.2
542.875	41389.11
543.075	40999.99
543.276	40860.73
543.476	41239.61
543.676	41024.57
543.877	41268.28
544.077	41167.93
544.277	40963.13
544.478	40342.6
544.678	41595.95
544.878	41053.24
545.078	40447.04
545.279	40764.48
545.479	40877.11
545.679	41030.71
545.879	40922.17
546.079	40832.06
546.28	40668.22
546.48	40692.8
546.68	40883.26
546.88	41126.97
547.08	41262.13
547.28	41024.57
547.48	40633.41
547.68	40868.92
547.88	40881.21
548.081	41270.32
548.281	41028.66
548.481	40365.12
548.681	40924.22
548.881	40897.59
549.081	41172.02
549.28	40772.67
549.48	41352.24
549.68	40879.16
549.88	41161.78
550.08	40950.84
550.28	41024.57
550.48	40531.01
550.68	41331.76
550.88	40330.31
551.08	40791.1
551.279	41112.63
551.479	40463.43
551.679	40787
551.879	40604.74
552.079	40680.51
552.278	40545.34
552.478	40911.93
552.678	40670.27
552.878	40787
553.077	40442.95
553.277	40053.83
553.477	40928.31
553.676	40504.38
553.876	40676.41
554.076	39912.52
554.275	40268.87
554.475	40371.27
554.674	40563.78
554.874	40176.71
555.074	39806.03
555.273	40299.59
555.473	40670.27
555.672	39998.54
555.872	40215.62
556.071	39838.79
556.271	40528.96
556.47	40301.64
556.67	39787.6
556.869	39423.06
557.068	39748.68
557.268	39511.12
557.467	39689.29
557.667	39779.4
557.866	39396.43
558.065	39507.02
558.265	39476.3
558.464	39175.25
558.663	39670.86
558.863	39439.44
559.062	39734.35
559.261	38976.6
559.461	39425.11
559.66	38702.17
559.859	39136.34
560.058	39033.94
560.258	39062.61
560.457	38638.69
560.656	38650.97
560.855	38636.64
561.054	39021.66
561.253	38296.67
561.453	38579.29
561.652	38653.02
561.851	38618.21
562.05	38175.84
562.249	37954.66
562.448	38374.5
562.647	38169.7
562.846	38151.27
563.045	38050.92
563.244	37540.97
563.443	38149.22
563.642	37141.62
563.841	37739.63
564.04	37426.29
564.239	37514.35
564.438	37471.34
564.637	37055.61
564.836	37719.15
565.035	36830.33
565.234	37010.55
565.432	36934.78
565.631	36631.68
565.83	36723.83
566.029	36248.71
566.228	36211.84
566.427	36322.43
566.625	36322.43
566.824	35992.71
567.023	36232.32
567.222	35380.37
567.42	36072.58
567.619	35800.2
567.818	35822.73
568.016	36009.09
568.215	35644.55
568.414	35583.12
568.612	35372.17
568.811	34661.53
569.01	35245.2
569.208	34995.35
569.407	34733.21
569.605	34622.62
569.804	34950.29
570.002	34452.64
570.201	34485.4
570.4	34286.75
570.598	34319.52
570.797	33991.84
570.995	33942.69
571.193	33791.14
571.392	33844.39
571.59	33588.39
571.789	33559.72
571.987	33721.51
572.186	33469.61
572.384	33242.29
572.582	33041.59
572.781	33313.97
572.979	32591.03
573.177	32824.5
573.376	32844.98
573.574	32603.32
573.772	32541.88
573.971	32445.63
574.169	32171.2
574.367	32345.28
574.565	32482.49
574.763	31665.35
574.962	31931.59
575.16	31841.48
575.358	31900.87
575.556	31345.87
575.754	31972.55
575.952	31298.77
576.151	31722.69
576.349	31028.43
576.547	31184.08
576.745	31251.66
576.943	31028.43
577.141	30926.03
577.339	31022.29
577.537	30729.43
577.735	30629.08
577.933	30739.67
578.131	30923.99
578.329	30022.88
578.527	30121.18
578.725	29916.39
578.923	30252.25
579.121	30160.09
579.319	29795.56
579.516	30315.74
579.714	29775.08
579.912	29611.24
580.11	29644.01
580.308	29660.39
580.506	29351.15
580.704	29263.08
580.901	29203.69
581.099	29359.34
581.297	28982.51
581.495	28654.84
581.692	28699.89
581.89	28404.99
582.088	28826.87
582.285	28697.84
582.483	28833.01
582.681	28327.16
582.878	28491
583.076	27770.11
583.274	28310.78
583.471	27802.88
583.669	27714.82
583.866	27913.47
584.064	27761.92
584.262	27397.38
584.459	27712.77
584.657	27571.46
584.854	27401.48
585.052	27256.07
585.249	27172.11
585.447	27239.69
585.644	26721.55
585.841	27266.31
586.039	27340.04
586.236	26731.79
586.434	26795.28
586.631	26828.05
586.828	27055.37
587.026	26633.49
587.223	26563.86
587.42	26395.93
587.618	26352.92
587.815	26240.28
588.012	26125.6
588.21	26060.06
588.407	26287.39
588.604	25789.73
588.801	25675.04
588.999	25619.75
589.196	25834.78
589.393	25670.95
589.59	25509.16
589.787	25425.19
589.984	25195.82
590.182	25052.46
590.379	25609.51
590.576	24986.93
590.773	25435.43
590.97	24976.69
591.167	25048.36
591.364	24560.95
591.561	24917.29
591.758	24679.73
591.955	24468.79
592.152	24966.45
592.349	24294.71
592.546	24470.84
592.743	24382.77
592.94	23823.68
593.137	24128.83
593.334	24126.78
593.531	23915.84
593.727	23579.97
593.924	23919.93
594.121	23737.66
594.318	23840.06
594.515	23547.2
594.712	23690.56
594.908	23397.7
595.105	23723.33
595.302	23694.66
595.499	23248.2
595.696	23110.99
595.892	23106.89
596.089	23229.77
596.286	23147.85
596.482	23002.44
596.679	22869.33
596.876	22807.89
597.072	22875.47
597.269	22818.13
597.466	22299.99
597.662	22408.53
597.859	22435.16
598.055	22519.12
598.252	22277.46
598.448	22359.38
598.645	22492.5
598.841	21816.67
599.038	22529.36
599.234	22160.73
599.431	21878.11
599.627	21785.95
599.824	22070.62
600.02	21769.57
600.217	21775.71
600.413	21736.8
600.609	21482.85
600.806	21673.31
601.002	21636.45
601.198	21380.45
601.395	21044.59
601.591	21165.42
601.787	21181.8
601.984	21103.98
602.18	21095.78
602.376	20983.15
602.572	21155.18
602.769	20817.26
602.965	20809.07
603.161	20813.17
603.357	20522.35
603.553	20630.9
603.75	20655.47
603.946	20399.48
604.142	20637.04
604.338	20225.4
604.534	19975.55
604.73	20118.9
604.926	19963.26
605.122	19840.38
605.318	19838.33
605.514	19721.6
605.71	19867
605.906	19625.34
606.102	19824
606.298	19932.54
606.494	19654.01
606.69	19789.18
606.886	19836.28
607.082	19260.8
607.278	19355.01
607.474	19094.92
607.67	19381.63
607.866	19156.36
608.062	19326.34
608.257	19146.12
608.453	19047.82
608.649	19070.34
608.845	19043.72
609.041	19172.74
609.236	18716.05
609.432	18699.66
609.628	18910.6
609.824	18779.53
610.019	18701.71
610.215	18447.76
610.411	18986.38
610.606	18306.45
610.802	18716.05
610.998	18570.64
611.193	18636.17
611.389	18316.69
611.584	18298.26
611.78	18150.81
611.976	18202
612.171	18496.91
612.367	18152.85
612.562	18173.33
612.758	17917.34
612.953	17943.96
613.149	17851.8
613.344	17851.8
613.539	18195.86
613.735	18015.64
613.93	17862.04
614.126	17978.78
614.321	18144.66
614.517	17714.59
614.712	17749.4
614.907	17636.77
615.103	17681.82
615.298	17364.39
615.493	17718.68
615.688	17259.94
615.884	17923.48
616.079	17112.49
616.274	17345.95
616.47	17399.2
616.665	17378.72
616.86	17350.05
617.055	17341.86
617.25	16778.67
617.445	17274.28
617.641	16962.98
617.836	16928.17
618.031	17008.04
618.226	17255.84
618.421	16909.74
618.616	16842.15
618.811	16786.86
619.006	17067.43
619.201	16328.11
619.396	16731.56
619.591	16119.22
619.786	16594.35
619.981	16301.49
620.176	16289.2
620.371	16072.12
620.566	16139.7
620.761	16174.52
620.956	16008.63
621.151	15900.09
621.346	15932.86
621.541	15717.82
621.735	16000.44
621.93	15607.23
622.125	15492.54
622.32	15435.2
622.515	15560.13
622.709	15377.86
622.904	15107.52
623.099	15101.38
623.294	15248.83
623.488	15033.8
623.683	15058.37
623.878	14749.13
624.072	14605.77
624.267	14843.34
624.462	14501.33
624.656	14310.86
624.851	14507.47
625.046	14431.69
625.24	14329.3
625.435	14216.66
625.629	14142.93
625.824	14173.65
626.018	14114.26
626.213	13706.71
626.407	13835.74
626.602	13635.03
626.796	13628.89
626.991	13645.27
627.185	13463.01
627.38	13434.33
627.574	13266.4
627.768	13168.1
627.963	13329.89
628.157	13041.12
628.352	13358.56
628.546	12916.2
628.74	13102.56
628.935	12985.83
629.129	12889.57
629.323	12598.76
629.517	12699.11
629.712	12588.52
629.906	12406.25
630.1	12449.26
630.294	12600.81
630.489	12436.97
630.683	12344.81
630.877	12101.11
631.071	12215.79
631.265	12172.78
631.459	11941.36
631.653	12080.63
631.848	11785.72
632.042	11544.06
632.236	11822.58
632.43	11550.2
632.624	11623.93
632.818	11587.07
633.012	11632.12
633.206	11468.28
633.4	11572.73
633.594	11263.49
633.788	11355.65
633.982	11398.65
634.176	11140.61
634.369	10995.2
634.563	11200
634.757	10966.53
634.951	11073.03
635.145	10993.15
635.339	10642.95
635.533	10515.98
635.726	10831.37
635.92	10511.88
636.114	10599.94
636.308	10432.01
636.501	10610.18
636.695	10393.1
636.889	10313.23
637.083	10118.67
637.276	10309.13
637.47	10118.67
637.664	10014.23
637.857	9991.7
638.051	10122.77
638.244	9987.6
638.438	9901.59
638.632	10051.09
638.825	9901.59
639.019	9641.5
639.212	9700.89
639.406	9539.1
639.599	9680.41
639.793	9633.3
639.986	9381.4
640.18	9514.52
640.373	9276.96
640.567	9254.43
640.76	9457.18
640.954	9070.11
641.147	9184.8
641.34	9063.97
641.534	9111.07
641.727	9016.87
641.92	9037.34
642.114	8875.56
642.307	8998.43
642.5	8832.55
642.694	8721.96
642.887	8590.89
643.08	8484.39
643.273	8674.85
643.467	8488.49
643.66	8539.69
643.853	8533.54
644.046	8267.31
644.239	8441.39
644.432	8381.99
644.626	8404.52
644.819	8093.23
645.012	8300.08
645.205	8048.18
645.398	8363.56
645.591	8019.5
645.784	8064.56
645.977	7902.77
646.17	7851.57
646.363	7829.04
646.556	7736.88
646.749	7802.42
646.942	7726.64
647.135	7687.73
647.328	7702.07
647.521	7614.01
647.714	7327.29
647.907	7700.02
648.099	7611.96
648.292	7609.91
648.485	7611.96
648.678	7292.48
648.871	7349.82
649.064	7345.72
649.256	7388.73
649.449	7355.96
649.642	7226.94
649.835	7030.34
650.027	7175.74
650.22	7030.34
650.413	7038.53
650.605	6983.23
650.798	6989.38
650.991	6997.57
651.183	7036.48
651.376	6866.5
651.568	6915.65
651.761	6714.95
651.954	6667.84
652.146	6768.2
652.339	6483.53
652.531	6747.72
652.724	6606.41
652.916	6342.22
653.109	6426.18
653.301	6633.03
653.494	6528.58
653.686	6477.38
653.879	6512.2
654.071	6366.79
654.263	6481.48
654.456	6235.72
654.648	6272.59
654.84	6096.46
655.033	6245.96
655.225	6219.34
655.417	6153.8
655.61	6178.38
655.802	6045.26
655.994	6135.37
656.186	6069.84
656.379	6028.88
656.571	6080.08
656.763	5811.79
656.955	5875.28
657.148	6024.78
657.34	5774.93
657.532	5752.4
657.724	5666.39
657.916	5774.93
658.108	5838.42
658.3	5664.34
658.492	5586.52
658.684	5666.39
658.876	5670.48
659.068	5594.71
659.26	5402.2
659.452	5471.83
659.644	5338.71
659.836	5467.74
660.028	5645.91
660.22	5348.95
660.412	5264.99
660.604	5301.85
660.796	5471.83
660.988	5297.75
661.18	5264.99
661.372	5334.62
661.563	5391.96
661.755	5379.67
661.947	5170.78
662.139	5162.59
662.331	5078.62
662.522	5148.25
662.714	5019.23
662.906	5090.91
663.097	5090.91
663.289	5193.31
663.481	5086.81
663.673	4974.17
663.864	4929.12
664.056	4920.93
664.247	5045.85
664.439	4810.34
664.631	4986.46
664.822	4843.1
665.014	4920.93
665.205	4875.87
665.397	4853.34
665.588	4824.67
665.78	4759.14
665.971	4748.9
666.163	4732.51
666.354	4750.95
666.546	4683.36
666.737	4576.87
666.929	4587.11
667.12	4482.66
667.311	4587.11
667.503	4591.2
667.694	4486.76
667.885	4556.39
668.077	4705.89
668.268	4458.09
668.459	4445.8
668.651	4419.18
668.842	4576.87
669.033	4421.22
669.224	4361.83
669.416	4445.8
669.607	4384.36
669.798	4284.01
669.989	4529.77
670.18	4470.37
670.371	4394.6
670.563	4286.06
670.754	4378.22
670.945	4308.58
671.136	4320.87
671.327	4253.29
671.518	4204.14
671.709	4398.7
671.9	4324.97
672.091	4351.59
672.282	4361.83
672.473	4292.2
672.664	4259.43
672.855	4232.81
673.046	4230.76
673.237	4294.25
673.428	4197.99
673.619	4337.26
673.809	4232.81
674	4257.39
674.191	4179.56
674.382	4163.18
674.573	4212.33
674.764	4124.27
674.954	4204.14
675.145	4099.69
675.336	4019.82
675.527	4060.78
675.717	4175.47
675.908	4187.75
676.099	4064.88
676.289	4083.31
676.48	4101.74
676.671	4083.31
676.861	4085.36
677.052	4126.32
677.243	4138.6
677.433	4134.51
677.624	4054.64
677.814	4103.79
678.005	4036.21
678.195	4187.75
678.386	4091.5
678.576	4085.36
678.767	4128.36
678.957	4017.77
679.148	4187.75
679.338	4085.36
679.529	4077.16
679.719	4236.91
679.909	4097.64
680.1	4050.54
680.29	3937.9
680.481	4169.32
680.671	4109.93
680.861	3976.81
681.052	4040.3
681.242	4032.11
681.432	4173.42
681.622	4099.69
681.813	3958.38
682.003	4060.78
682.193	4032.11
682.383	4134.51
682.573	4091.5
682.764	4007.53
682.954	4257.39
683.144	3958.38
683.334	4019.82
683.524	4126.32
683.714	4097.64
683.904	4052.59
684.094	4154.99
684.284	4132.46
684.474	4161.13
684.664	4054.64
684.854	4132.46
685.044	3995.25
685.234	3982.96
685.424	4015.73
685.614	3939.95
685.804	4105.84
685.994	4017.77
686.184	4011.63
686.374	4132.46
686.564	3942
686.753	3862.13
686.943	4001.39
687.133	3884.66
687.323	3929.71
687.513	3882.61
687.702	3937.9
687.892	3909.23
688.082	3845.74
688.272	3849.84
688.461	3864.18
688.651	3925.61
688.841	3608.18
689.03	3702.39
689.22	3761.78
689.41	3675.76
689.599	3741.3
689.789	3677.81
689.979	3827.31
690.168	3573.36
690.358	3622.52
690.547	3638.9
690.737	3511.93
690.926	3622.52
691.116	3593.84
691.305	3696.24
691.495	3565.17
691.684	3513.97
691.874	3495.54
692.063	3542.64
692.252	3503.73
692.442	3450.49
692.631	3427.96
692.82	3446.39
693.01	3513.97
693.199	3409.53
693.388	3360.38
693.578	3323.51
693.767	3448.44
693.956	3290.74
694.146	3446.39
694.335	3450.49
694.524	3393.14
694.713	3298.94
694.902	3307.13
695.092	3266.17
695.281	3233.4
695.47	3339.9
695.659	3235.45
695.848	3470.97
696.037	3354.23
696.226	3382.9
696.415	3167.87
696.604	3380.86
696.793	3200.63
696.982	3325.56
697.171	3427.96
697.36	3206.78
697.549	3200.63
697.738	3083.9
697.927	3200.63
698.116	3202.68
698.305	3331.7
698.494	3270.26
698.683	3143.29
698.872	3204.73
699.061	3122.81
699.25	3319.42
699.438	3237.5
699.627	3182.2
699.816	3268.22
700.005	3276.41
700.193	3161.72
700.382	3249.79
700.571	3260.02
700.76	3184.25
700.948	3155.58
701.137	3223.16
701.326	3094.14
701.514	3124.86
701.703	3147.39
701.892	3163.77
702.08	3339.9
702.269	3237.5
702.457	3059.32
702.646	3237.5
702.834	3055.23
703.023	3260.02
703.212	3221.11
703.4	3171.96
703.589	3137.15
703.777	3290.74
703.965	3251.83
704.154	3313.27
704.342	3153.53
704.531	3071.61
704.719	3147.39
704.907	3194.49
705.096	3147.39
705.284	3214.97
705.472	3014.27
705.661	3346.04
705.849	3131
706.037	3219.07
706.226	3270.26
706.414	3190.39
706.602	3319.42
706.79	3180.15
706.979	3253.88
707.167	3247.74
707.355	3253.88
707.543	3346.04
707.731	3153.53
707.919	3245.69
708.107	3180.15
708.296	3227.26
708.484	3221.11
708.672	3343.99
708.86	3260.02
709.048	3286.65
709.236	3188.35
709.424	3294.84
709.612	3395.19
709.8	3260.02
709.988	3255.93
710.176	3282.55
710.364	3307.13
710.551	3239.55
710.739	3237.5
710.927	3335.8
711.115	3188.35
711.303	3337.85
711.491	3352.18
711.679	3311.22
711.866	3346.04
712.054	3321.46
712.242	3305.08
712.43	3364.47
712.617	3368.57
712.805	3454.58
712.993	3280.5
713.181	3196.54
713.368	3481.21
713.556	3448.44
713.744	3350.14
713.931	3395.19
714.119	3458.68
714.306	3415.67
714.494	3315.32
714.682	3368.57
714.869	3454.58
715.057	3446.39
715.244	3438.2
715.432	3303.03
715.619	3458.68
715.807	3452.53
715.994	3436.15
716.182	3333.75
716.369	3518.07
716.556	3563.12
716.744	3366.52
716.931	3485.3
717.119	3565.17
717.306	3513.97
717.493	3464.82
717.681	3536.5
717.868	3581.56
718.055	3487.35
718.242	3561.08
718.43	3729.01
718.617	3497.59
718.804	3448.44
718.991	3571.32
719.179	3571.32
719.366	3481.21
719.553	3567.22
719.74	3516.02
719.927	3554.93
720.114	3432.05
720.301	3550.84
720.488	3577.46
720.676	3499.64
720.863	3606.13
721.05	3688.05
721.237	3524.21
721.424	3645.04
721.611	3483.25
721.798	3540.6
721.985	3665.52
722.172	3380.86
722.358	3638.9
722.545	3724.91
722.732	3649.14
722.919	3755.63
723.106	3575.41
723.293	3751.54
723.48	3681.91
723.667	3636.85
723.853	3628.66
724.04	3794.54
724.227	3761.78
724.414	3636.85
724.6	3679.86
724.787	3718.77
724.974	3878.51
725.161	3786.35
725.347	3628.66
725.534	3716.72
725.72	3720.82
725.907	3837.55
726.094	3704.43
726.28	3743.35
726.467	3729.01
726.653	3894.9
726.84	3855.98
727.027	3800.69
727.213	3616.37
727.4	3808.88
727.586	3823.22
727.773	3753.59
727.959	3718.77
728.145	3776.11
728.332	3806.83
728.518	3862.13
728.705	3847.79
728.891	3788.4
729.077	3944.05
729.264	3765.87
729.45	3841.65
729.636	3958.38
729.823	3853.94
730.009	3808.88
730.195	3931.76
730.382	3917.42
730.568	3882.61
730.754	3919.47
730.94	3952.24
731.126	3798.64
731.313	3888.75
731.499	3872.37
731.685	4011.63
731.871	3892.85
732.057	3933.81
732.243	3921.52
732.429	3892.85
732.615	4032.11
732.801	3851.89
732.987	3946.09
733.173	3896.94
733.359	3917.42
733.545	3964.53
733.731	3808.88
733.917	4114.03
734.103	4058.73
734.289	3946.09
734.475	3735.15
734.661	4101.74
734.847	3942
735.033	4036.21
735.219	3982.96
735.404	4023.92
735.59	4028.01
735.776	3898.99
735.962	3954.29
736.148	3915.37
736.333	3884.66
736.519	4052.59
736.705	3909.23
736.89	4015.73
737.076	3991.15
737.262	3860.08
737.447	3966.57
737.633	3923.57
737.819	3898.99
738.004	3892.85
738.19	3866.22
738.375	3929.71
738.561	3939.95
738.747	3866.22
738.932	3888.75
739.118	3952.24
739.303	3888.75
739.489	3993.2
739.674	3780.21
739.859	3948.14
740.045	3913.33
740.23	3987.05
740.416	3737.2
740.601	3751.54
740.786	3845.74
740.972	3921.52
741.157	3831.41
741.342	3855.98
741.528	3786.35
741.713	3784.3
741.898	3737.2
742.084	3907.18
742.269	3759.73
742.454	3843.7
742.639	3798.64
742.824	3726.96
743.01	3825.26
743.195	3745.39
743.38	3808.88
743.565	3774.07
743.75	3761.78
743.935	3749.49
744.12	3769.97
744.305	3573.36
744.49	3669.62
744.675	3620.47
744.86	3604.08
745.045	3599.99
745.23	3513.97
745.415	3520.12
745.6	3665.52
745.785	3610.23
745.97	3593.84
746.155	3550.84
746.34	3448.44
746.525	3489.4
746.71	3487.35
746.895	3425.91
747.079	3370.62
747.264	3481.21
747.449	3491.45
747.634	3620.47
747.819	3397.24
748.003	3331.7
748.188	3309.18
748.373	3253.88
748.557	3313.27
748.742	3343.99
748.927	3442.29
749.111	3190.39
749.296	3198.59
749.481	3321.46
749.665	3235.45
749.85	3182.2
750.034	3118.72
750.219	3204.73
750.404	3049.08
750.588	3249.79
750.773	3040.89
750.957	2987.65
751.141	3118.72
751.326	3135.1
751.51	2915.97
751.695	2934.4
751.879	3012.22
752.064	3026.56
752.248	2977.41
752.432	3014.27
752.617	2889.34
752.801	2836.1
752.985	2887.29
753.17	2866.81
753.354	2836.1
753.538	2838.14
753.722	2721.41
753.907	2629.25
754.091	2739.84
754.275	2672.26
754.459	2717.31
754.643	2725.51
754.828	2713.22
755.012	2709.12
755.196	2506.37
755.38	2672.26
755.564	2598.53
755.748	2524.8
755.932	2619.01
756.116	2563.72
756.3	2451.08
756.484	2571.91
756.668	2465.41
756.852	2571.91
757.036	2453.13
757.22	2408.07
757.404	2352.77
757.588	2367.11
757.772	2489.99
757.956	2342.53
758.14	2401.93
758.323	2395.78
758.507	2231.94
758.691	2338.44
758.875	2322.06
759.059	2238.09
759.242	2377.35
759.426	2274.95
759.61	2256.52
759.794	2287.24
759.977	2197.13
760.161	2236.04
760.345	2297.48
760.528	2174.6
760.712	2150.03
760.895	2246.28
761.079	2135.69
761.263	2137.74
761.446	2174.6
761.63	2219.66
761.813	2127.5
761.997	2115.21
762.18	2139.79
762.364	2064.01
762.547	2162.31
762.731	2029.2
762.914	2090.63
763.098	2037.39
763.281	1947.28
763.464	2031.24
763.648	2033.29
763.831	1916.56
764.015	2055.82
764.198	1988.24
764.381	2010.76
764.564	2055.82
764.748	1896.08
764.931	1871.5
765.114	1889.93
765.297	1941.13
765.481	1916.56
765.664	1904.27
765.847	1969.8
766.03	1793.68
766.213	1869.45
766.397	1799.82
766.58	1828.49
766.763	1941.13
766.946	1805.97
767.129	1707.66
767.312	1836.69
767.495	1762.96
767.678	1758.86
767.861	1693.33
768.044	1666.71
768.227	1732.24
768.41	1736.34
768.593	1744.53
768.776	1705.62
768.959	1814.16
769.142	1771.15
769.324	1668.75
769.507	1670.8
769.69	1699.47
769.873	1617.55
770.056	1746.58
770.239	1599.12
770.421	1771.15
770.604	1664.66
770.787	1629.84
770.97	1615.51
771.152	1554.07
771.335	1574.55
771.518	1564.31
771.7	1611.41
771.883	1617.55
772.066	1474.2
772.248	1539.73
772.431	1621.65
772.613	1549.97
772.796	1484.44
772.978	1435.28
773.161	1500.82
773.343	1482.39
773.526	1453.72
773.708	1386.13
773.891	1435.28
774.073	1523.35
774.256	1484.44
774.438	1478.29
774.621	1531.54
774.803	1418.9
774.985	1439.38
775.168	1382.04
775.35	1429.14
775.532	1320.6
775.715	1238.68
775.897	1328.79
776.079	1396.37
776.261	1238.68
776.444	1277.59
776.626	1236.63
776.808	1296.02
776.99	1240.73
777.173	1246.87
777.355	1244.82
777.537	1257.11
777.719	1154.71
777.901	1248.92
778.083	1205.91
778.265	1197.72
778.447	1212.06
778.629	1076.89
778.811	1177.24
778.993	1087.13
779.175	1121.95
779.357	1089.18
779.539	1111.71
779.721	1195.67
779.903	1210.01
780.085	1148.57
780.267	1070.75
780.449	1134.23
780.631	1130.14
780.812	1173.14
780.994	1068.7
781.176	1121.95
781.358	1001.12
781.54	1025.69
781.721	1099.42
781.903	1017.5
782.085	927.39
782.267	1048.22
782.448	1027.74
782.63	1013.4
782.812	1031.83
782.993	896.67
783.175	921.24
783.357	984.73
783.538	1013.4
783.72	904.86
783.901	880.29
784.083	927.39
784.264	939.68
784.446	888.48
784.627	837.28
784.809	843.42
784.99	894.62
785.172	892.57
785.353	915.1
785.535	790.17
785.716	833.18
785.897	796.32
786.079	851.61
786.26	870.05
786.441	796.32
786.623	761.5
786.804	837.28
786.985	761.5
787.167	810.65
787.348	794.27
787.529	736.93
787.71	796.32
787.891	763.55
788.073	706.21
788.254	646.82
788.435	849.57
788.616	640.67
788.797	679.58
788.978	781.98
789.159	667.3
789.34	741.02
789.522	765.6
789.703	708.26
789.884	667.3
790.065	657.06
790.246	736.93
790.427	685.73
790.607	765.6
790.788	661.15
790.969	640.67
791.15	663.2
791.331	681.63
791.512	630.43
791.693	532.13
791.874	618.15
792.054	675.49
792.235	579.23
792.416	519.84
792.597	507.55
792.778	652.96
792.958	652.96
793.139	720.54
793.32	577.19
793.5	622.24
793.681	657.06
793.862	595.62
794.042	540.32
794.223	560.8
794.404	478.88
794.584	466.6
794.765	638.62
794.945	532.13
795.126	542.37
795.306	564.9
795.487	550.56
795.667	577.19
795.848	503.46
796.028	519.84
796.209	491.17
796.389	466.6
796.57	474.79
796.75	562.85
796.93	485.03
797.111	509.6
797.291	433.83
797.471	468.64
797.652	485.03
797.832	460.45
798.012	558.75
798.192	448.16
798.373	392.87
798.553	499.36
798.733	493.22
798.913	505.51
799.093	419.49
799.274	444.07
799.454	505.51
799.634	454.31
799.814	460.45
799.994	517.79
800.174	482.98
800.354	456.36
800.534	464.55
800.714	458.4
800.894	407.2
801.074	386.72
801.254	470.69
801.434	542.37
801.614	399.01
801.794	411.3
801.974	1173.14
802.154	427.68
802.334	403.11
802.514	380.58
802.693	411.3
802.873	405.16
803.053	470.69
803.233	403.11
803.413	503.46
803.592	358.05
803.772	405.16
803.952	396.96
804.131	306.85
804.311	399.01
804.491	468.64
804.67	304.81
804.85	360.1
805.03	427.68
805.209	429.73
805.389	425.64
805.568	415.4
805.748	437.92
805.928	419.49
806.107	353.96
806.287	372.39
806.466	435.88
806.646	286.37
806.825	380.58
807.004	302.76
807.184	356.01
807.363	323.24
807.543	255.65
807.722	321.19
807.901	351.91
808.081	327.33
808.26	288.42
808.439	308.9
808.619	272.04
808.798	319.14
808.977	368.29
809.156	382.63
809.336	278.18
809.515	331.43
809.694	247.46
809.873	298.66
810.052	333.48
810.231	331.43
810.411	349.86
810.59	331.43
810.769	319.14
810.948	294.57
811.127	278.18
811.306	306.85
811.485	306.85
811.664	331.43
811.843	315.05
812.022	353.96
812.201	351.91
812.38	321.19
812.559	216.74
812.737	321.19
812.916	298.66
813.095	218.79
813.274	351.91
813.453	231.08
813.632	347.81
813.811	329.38
813.989	132.78
814.168	220.84
814.347	190.12
814.526	216.74
814.704	292.52
814.883	229.03
815.062	261.8
815.24	335.53
815.419	261.8
815.598	319.14
815.776	177.83
815.955	214.7
816.133	196.26
816.312	255.65
816.49	261.8
816.669	200.36
816.847	224.94
817.026	253.61
817.204	267.94
817.383	251.56
817.561	288.42
817.74	276.13
817.918	100.01
818.097	214.7
818.275	188.07
818.453	226.98
818.632	218.79
818.81	325.29
818.988	237.22
819.167	224.94
819.345	208.55
819.523	231.08
819.701	210.6
819.879	259.75
820.058	224.94
820.236	210.6
820.414	233.13
820.592	188.07
820.77	210.6
820.948	226.98
821.127	186.02
821.305	302.76
821.483	145.06
821.661	235.18
821.839	194.22
822.017	272.04
822.195	200.36
822.373	198.31
822.551	132.78
822.729	204.46
822.907	276.13
823.085	163.5
823.262	218.79
823.44	212.65
823.618	179.88
823.796	237.22
823.974	159.4
824.152	173.74
824.329	140.97
824.507	212.65
824.685	222.89
824.863	177.83
825.04	263.85
825.218	136.87
825.396	124.58
825.574	253.61
825.751	177.83
825.929	161.45
826.107	200.36
826.284	151.21
826.462	214.7
826.639	102.06
826.817	169.64
826.994	136.87
827.172	116.39
827.349	214.7
827.527	173.74
827.704	196.26
827.882	112.3
828.059	253.61
828.237	122.54
828.414	204.46
828.591	177.83
828.769	235.18
828.946	77.48
829.124	155.3
829.301	251.56
829.478	143.02
829.655	157.35
829.833	194.22
830.01	104.11
830.187	145.06
830.364	130.73
830.542	108.2
830.719	114.34
830.896	206.5
831.073	112.3
831.25	134.82
831.427	181.93
831.604	134.82
831.782	118.44
831.959	120.49
832.136	112.3
832.313	114.34
832.49	69.29
832.667	134.82
832.844	177.83
833.021	151.21
833.198	130.73
833.374	79.53
833.551	132.78
833.728	138.92
833.905	186.02
834.082	97.96
834.259	120.49
834.436	97.96
834.612	128.68
834.789	100.01
834.966	75.43
835.143	145.06
835.319	-4.44
835.496	140.97
835.673	75.43
835.85	112.3
836.026	102.06
836.203	104.11
836.38	181.93
836.556	48.81
836.733	79.53
836.909	235.18
837.086	59.05
837.262	136.87
837.439	108.2
837.616	5.8
837.792	59.05
837.968	149.16
838.145	79.53
838.321	132.78
838.498	110.25
838.674	73.39
838.851	134.82
839.027	65.19
839.203	65.19
839.38	149.16
839.556	112.3
839.732	44.71
839.909	85.67
840.085	128.68
840.261	138.92
840.437	110.25
840.614	79.53
840.79	132.78
840.966	85.67
841.142	93.87
841.318	38.57
841.494	122.54
841.671	116.39
841.847	32.43
842.023	75.43
842.199	61.1
842.375	175.78
842.551	57
842.727	73.39
842.903	95.91
843.079	102.06
843.255	69.29
843.431	122.54
843.607	100.01
843.783	24.23
843.959	89.77
844.134	112.3
844.31	204.46
844.486	93.87
844.662	38.57
844.838	124.58
845.013	128.68
845.189	130.73
845.365	110.25
845.541	36.52
845.716	79.53
845.892	120.49
846.068	93.87
846.244	57
846.419	75.43
846.595	61.1
846.77	71.34
846.946	85.67
847.122	20.14
847.297	69.29
847.473	16.04
847.648	38.57
847.824	85.67
847.999	-4.44
848.175	112.3
848.35	1.71
848.526	36.52
848.701	95.91
848.876	40.62
849.052	63.15
849.227	59.05
849.403	18.09
849.578	42.67
849.753	116.39
849.929	16.04
850.104	52.91
850.279	91.82
850.454	57
850.63	46.76
850.805	97.96
850.98	71.34
851.155	81.58
851.33	116.39
851.505	20.14
851.681	34.47
851.856	71.34
852.031	52.91
852.206	57
852.381	30.38
852.556	63.15
852.731	153.26
852.906	44.71
853.081	122.54
853.256	89.77
853.431	30.38
853.606	42.67
853.781	22.19
853.956	5.8
854.131	48.81
854.305	50.86
854.48	30.38
854.655	26.28
854.83	-6.49
855.005	20.14
855.18	3.75
855.354	-0.34
855.529	32.43
855.704	54.95
855.879	106.15
856.053	52.91
856.228	22.19
856.403	-6.49
856.577	57
856.752	61.1
856.926	3.75
857.101	77.48
857.276	1.71
857.45	57
857.625	100.01
857.799	48.81
857.974	20.14
858.148	7.85
858.323	44.71
858.497	22.19
858.672	57
858.846	108.2
859.02	95.91
859.195	73.39
859.369	3.75
859.543	13.99
859.718	30.38
859.892	36.52
860.066	-12.63
860.241	134.82
860.415	46.76
860.589	40.62
860.763	28.33
860.938	24.23
861.112	89.77
861.286	48.81
861.46	40.62
861.634	52.91
861.808	71.34
861.982	-33.11
862.157	11.95
862.331	-12.63
862.505	38.57
862.679	13.99
862.853	-53.59
863.027	16.04
863.201	-4.44
863.375	20.14
863.549	81.58
863.722	79.53
863.896	-2.39
864.07	-18.77
864.244	-8.53
864.418	91.82
864.592	61.1
864.766	16.04
864.939	-59.73
865.113	20.14
865.287	-12.63
865.461	-4.44
865.634	69.29
865.808	3.75
865.982	-10.58
866.156	-43.35
866.329	48.81
866.503	61.1
866.676	46.76
866.85	-29.01
867.024	3.75
867.197	57
867.371	9.9
867.544	157.35
867.718	-41.3
867.891	3.75
868.065	1.71
868.238	30.38
868.412	85.67
868.585	38.57
868.759	-45.4
868.932	24.23
869.105	18.09
869.279	3.75
869.452	50.86
869.625	81.58
869.799	-22.87
869.972	16.04
870.145	32.43
870.319	-18.77
870.492	73.39
870.665	-74.07
870.838	36.52
871.011	-12.63
871.185	-18.77
871.358	-12.63
871.531	79.53
871.704	-61.78
871.877	22.19
872.05	11.95
872.223	-2.39
872.396	3.75
872.569	16.04
872.742	7.85
872.915	73.39
873.088	-14.68
873.261	54.95
873.434	-47.44
873.607	-35.16
873.78	38.57
873.953	-86.36
874.126	20.14
874.299	54.95
874.471	97.96
874.644	106.15
874.817	46.76
874.99	38.57
875.163	40.62
875.335	59.05
875.508	11.95
875.681	87.72
875.853	20.14
876.026	-55.64
876.199	1.71
876.371	61.1
876.544	-0.34
876.717	69.29
876.889	7.85
877.062	-10.58
877.234	28.33
877.407	-47.44
877.579	-0.34
877.752	20.14
877.924	11.95
878.097	7.85
878.269	26.28
878.442	36.52
878.614	48.81
878.786	57
878.959	-43.35
879.131	9.9
879.303	-86.36
879.476	-35.16
879.648	50.86
879.82	18.09
879.993	9.9
880.165	-6.49
880.337	24.23
880.509	57
880.681	-43.35
880.854	-0.34
881.026	77.48
881.198	110.25
881.37	-33.11
881.542	-14.68
881.714	-8.53
881.886	-18.77
882.058	-10.58
882.23	5.8
882.402	79.53
882.574	22.19
882.746	26.28
882.918	7.85
883.09	22.19
883.262	-20.82
883.434	5.8
883.606	-6.49
883.778	-53.59
883.95	77.48
884.122	11.95
884.293	-29.01
884.465	26.28
884.637	24.23
884.809	30.38
884.98	-26.96
885.152	-31.06
885.324	34.47
885.496	36.52
885.667	5.8
885.839	-4.44
886.011	54.95
886.182	-24.92
886.354	50.86
886.525	165.54
886.697	71.34
886.869	-65.88
887.04	28.33
887.212	61.1
887.383	13.99
887.555	-33.11
887.726	-39.25
887.897	-33.11
888.069	-63.83
888.24	-45.4
888.412	9.9
888.583	-41.3
888.754	7.85
888.926	18.09
889.097	1.71
889.268	-55.64
889.44	32.43
889.611	-65.88
889.782	-0.34
889.953	-47.44
890.125	134.82
890.296	-51.54
890.467	-20.82
890.638	-57.68
890.809	-0.34
890.98	-22.87
891.151	-86.36
891.323	44.71
891.494	-61.78
891.665	-45.4
891.836	5.8
892.007	-10.58
892.178	-10.58
892.349	-33.11
892.52	36.52
892.691	13.99
892.862	1.71
893.032	-45.4
893.203	11.95
893.374	34.47
893.545	54.95
893.716	32.43
893.887	40.62
894.057	-39.25
894.228	-16.73
894.399	30.38
894.57	73.39
894.74	5.8
894.911	1.71
895.082	-16.73
895.253	-18.77
895.423	83.63
895.594	85.67
895.764	-43.35
895.935	-57.68
896.106	-90.45
896.276	-12.63
896.447	-47.44
896.617	-6.49
896.788	-12.63
896.958	-31.06
897.129	-43.35
897.299	-35.16
897.47	20.14
897.64	122.54
897.81	57
897.981	-0.34
898.151	-53.59
898.322	7.85
898.492	26.28
898.662	7.85
898.832	44.71
899.003	-18.77
899.173	-26.96
899.343	-22.87
899.513	-26.96
