Data from USB4F104151__34__12-23-47-470.txt Node

Date: Fri Mar 14 12:23:47 EDT 2025
User: louis
Spectrometer: USB4F10415
Trigger mode: 4
Integration Time (sec): 3.500000E-2
Scans to average: 1
Electric dark correction enabled: true
Nonlinearity correction enabled: false
Boxcar width: 0
XAxis mode: Wavelengths
Number of Pixels in Spectrum: 3648
>>>>>Begin Spectral Data<<<<<
178.204	-165.03
178.424	-165.03
178.644	-165.03
178.864	-146.6
179.084	-42.15
179.304	-11.43
179.524	-9.39
179.744	2.9
179.964	66.39
180.184	0.85
180.404	47.96
180.624	-31.91
180.844	-46.25
181.064	-83.11
181.283	23.38
181.503	15.19
181.723	25.43
181.943	-23.72
182.163	29.52
182.383	-19.63
182.602	-31.91
182.822	86.87
183.042	9.05
183.262	-23.72
183.482	90.96
183.701	27.48
183.921	27.48
184.141	-5.29
184.361	88.92
184.58	60.24
184.8	117.59
185.02	-19.63
185.239	80.72
185.459	80.72
185.679	56.15
185.898	4.95
186.118	45.91
186.338	52.05
186.557	80.72
186.777	-17.58
186.997	2.9
187.216	-19.63
187.436	123.73
187.655	19.29
187.875	113.49
188.095	-7.34
188.314	86.87
188.534	101.2
188.753	27.48
188.973	41.81
189.192	123.73
189.412	-5.29
189.631	86.87
189.851	47.96
190.07	50
190.29	-58.54
190.509	80.72
190.729	-11.43
190.948	68.44
191.168	133.97
191.387	70.48
191.607	-31.91
191.826	39.76
192.045	13.14
192.265	39.76
192.484	62.29
192.704	39.76
192.923	-64.68
193.142	62.29
193.362	56.15
193.581	43.86
193.8	170.83
194.02	103.25
194.239	45.91
194.458	41.81
194.678	27.48
194.897	70.48
195.116	45.91
195.335	74.58
195.555	31.57
195.774	45.91
195.993	-3.24
196.212	35.67
196.432	-54.44
196.651	25.43
196.87	45.91
197.089	129.88
197.308	138.07
197.528	121.68
197.747	-29.87
197.966	25.43
198.185	95.06
198.404	47.96
198.623	66.39
198.842	50
199.062	107.35
199.281	70.48
199.5	35.67
199.719	-3.24
199.938	2.9
200.157	115.54
200.376	13.14
200.595	15.19
200.814	86.87
201.033	17.24
201.252	29.52
201.471	54.1
201.69	64.34
201.909	52.05
202.128	78.68
202.347	43.86
202.566	17.24
202.785	9.05
203.004	68.44
203.223	11.09
203.442	166.74
203.661	90.96
203.879	9.05
204.098	31.57
204.317	29.52
204.536	27.48
204.755	107.35
204.974	39.76
205.193	-5.29
205.411	119.64
205.63	86.87
205.849	93.01
206.068	4.95
206.287	4.95
206.505	47.96
206.724	-19.63
206.943	74.58
207.162	13.14
207.381	2.9
207.599	27.48
207.818	17.24
208.037	11.09
208.255	64.34
208.474	72.53
208.693	113.49
208.911	45.91
209.13	95.06
209.349	11.09
209.567	-1.19
209.786	17.24
210.005	-15.53
210.223	27.48
210.442	-5.29
210.661	101.2
210.879	97.11
211.098	-54.44
211.316	68.44
211.535	95.06
211.753	80.72
211.972	11.09
212.191	37.72
212.409	-58.54
212.628	121.68
212.846	17.24
213.065	11.09
213.283	88.92
213.502	-48.3
213.72	35.67
213.938	15.19
214.157	66.39
214.375	15.19
214.594	9.05
214.812	-33.96
215.031	13.14
215.249	33.62
215.467	-36.01
215.686	27.48
215.904	80.72
216.122	33.62
216.341	99.16
216.559	11.09
216.778	113.49
216.996	90.96
217.214	11.09
217.432	2.9
217.651	37.72
217.869	-1.19
218.087	78.68
218.306	2.9
218.524	31.57
218.742	-56.49
218.96	138.07
219.179	35.67
219.397	-9.39
219.615	119.64
219.833	23.38
220.051	70.48
220.27	58.2
220.488	19.29
220.706	37.72
220.924	2.9
221.142	84.82
221.36	9.05
221.578	-44.2
221.796	7
222.015	35.67
222.233	23.38
222.451	60.24
222.669	9.05
222.887	27.48
223.105	90.96
223.323	4.95
223.541	0.85
223.759	107.35
223.977	4.95
224.195	115.54
224.413	76.63
224.631	27.48
224.849	-11.43
225.067	123.73
225.285	11.09
225.503	60.24
225.721	-9.39
225.939	60.24
226.157	-40.11
226.375	133.97
226.592	-17.58
226.81	29.52
227.028	117.59
227.246	179.03
227.464	27.48
227.682	-3.24
227.9	74.58
228.117	4.95
228.335	84.82
228.553	-13.48
228.771	58.2
228.989	56.15
229.206	17.24
229.424	41.81
229.642	-7.34
229.86	-46.25
230.077	13.14
230.295	13.14
230.513	78.68
230.731	33.62
230.948	62.29
231.166	95.06
231.384	60.24
231.601	-11.43
231.819	19.29
232.037	31.57
232.254	-25.77
232.472	-11.43
232.689	50
232.907	68.44
233.125	60.24
233.342	47.96
233.56	37.72
233.777	29.52
233.995	29.52
234.213	66.39
234.43	45.91
234.648	25.43
234.865	31.57
235.083	97.11
235.3	23.38
235.518	54.1
235.735	95.06
235.953	84.82
236.17	-27.82
236.388	-23.72
236.605	80.72
236.822	103.25
237.04	84.82
237.257	-36.01
237.475	-25.77
237.692	-7.34
237.909	47.96
238.127	7
238.344	140.12
238.562	39.76
238.779	15.19
238.996	-15.53
239.214	47.96
239.431	76.63
239.648	-27.82
239.865	80.72
240.083	105.3
240.3	-15.53
240.517	-17.58
240.735	56.15
240.952	15.19
241.169	129.88
241.386	76.63
241.603	74.58
241.821	-1.19
242.038	62.29
242.255	23.38
242.472	7
242.689	140.12
242.907	54.1
243.124	-15.53
243.341	66.39
243.558	-9.39
243.775	37.72
243.992	13.14
244.209	4.95
244.426	142.16
244.643	56.15
244.86	88.92
245.078	17.24
245.295	25.43
245.512	45.91
245.729	76.63
245.946	93.01
246.163	47.96
246.38	62.29
246.597	37.72
246.814	-23.72
247.031	7
247.248	115.54
247.464	41.81
247.681	72.53
247.898	50
248.115	62.29
248.332	45.91
248.549	50
248.766	88.92
248.983	43.86
249.2	-11.43
249.417	27.48
249.633	21.33
249.85	82.77
250.067	33.62
250.284	-9.39
250.501	0.85
250.717	58.2
250.934	9.05
251.151	50
251.368	13.14
251.585	19.29
251.801	-3.24
252.018	-44.2
252.235	54.1
252.451	-7.34
252.668	-15.53
252.885	70.48
253.102	82.77
253.318	7
253.535	-46.25
253.752	-5.29
253.968	68.44
254.185	-19.63
254.401	15.19
254.618	-52.39
254.835	-9.39
255.051	84.82
255.268	76.63
255.484	19.29
255.701	47.96
255.917	127.83
256.134	-31.91
256.351	95.06
256.567	-23.72
256.784	-7.34
257	15.19
257.217	58.2
257.433	86.87
257.65	-44.2
257.866	60.24
258.082	-21.67
258.299	-19.63
258.515	15.19
258.732	11.09
258.948	82.77
259.165	93.01
259.381	-21.67
259.597	17.24
259.814	25.43
260.03	109.4
260.246	-31.91
260.463	105.3
260.679	72.53
260.895	41.81
261.112	66.39
261.328	4.95
261.544	-9.39
261.761	117.59
261.977	-36.01
262.193	56.15
262.409	136.02
262.626	50
262.842	29.52
263.058	82.77
263.274	136.02
263.49	68.44
263.707	39.76
263.923	25.43
264.139	37.72
264.355	56.15
264.571	60.24
264.787	60.24
265.004	39.76
265.22	19.29
265.436	-7.34
265.652	-3.24
265.868	80.72
266.084	43.86
266.3	43.86
266.516	11.09
266.732	-70.83
266.948	39.76
267.164	97.11
267.38	103.25
267.596	41.81
267.812	35.67
268.028	31.57
268.244	56.15
268.46	35.67
268.676	25.43
268.892	9.05
269.108	-48.3
269.324	39.76
269.54	74.58
269.756	58.2
269.972	-33.96
270.188	117.59
270.403	37.72
270.619	33.62
270.835	76.63
271.051	52.05
271.267	39.76
271.483	21.33
271.698	35.67
271.914	4.95
272.13	50
272.346	41.81
272.562	41.81
272.777	93.01
272.993	66.39
273.209	33.62
273.425	62.29
273.64	58.2
273.856	37.72
274.072	58.2
274.287	54.1
274.503	13.14
274.719	76.63
274.934	9.05
275.15	-70.83
275.366	99.16
275.581	29.52
275.797	17.24
276.012	103.25
276.228	27.48
276.444	41.81
276.659	56.15
276.875	-38.06
277.09	35.67
277.306	29.52
277.521	60.24
277.737	31.57
277.952	127.83
278.168	9.05
278.383	27.48
278.599	90.96
278.814	-36.01
279.03	105.3
279.245	56.15
279.461	-1.19
279.676	62.29
279.892	-25.77
280.107	54.1
280.322	58.2
280.538	80.72
280.753	-7.34
280.969	86.87
281.184	88.92
281.399	88.92
281.615	41.81
281.83	58.2
282.045	-21.67
282.26	84.82
282.476	70.48
282.691	31.57
282.906	-40.11
283.122	9.05
283.337	7
283.552	23.38
283.767	70.48
283.983	117.59
284.198	93.01
284.413	86.87
284.628	45.91
284.843	41.81
285.058	62.29
285.274	2.9
285.489	-9.39
285.704	15.19
285.919	29.52
286.134	58.2
286.349	68.44
286.564	19.29
286.779	84.82
286.995	76.63
287.21	4.95
287.425	54.1
287.64	-29.87
287.855	29.52
288.07	43.86
288.285	58.2
288.5	4.95
288.715	29.52
288.93	-5.29
289.145	39.76
289.36	35.67
289.575	-15.53
289.79	66.39
290.004	-19.63
290.219	39.76
290.434	21.33
290.649	62.29
290.864	119.64
291.079	33.62
291.294	-1.19
291.509	60.24
291.724	74.58
291.938	56.15
292.153	21.33
292.368	43.86
292.583	31.57
292.798	84.82
293.012	41.81
293.227	60.24
293.442	27.48
293.657	97.11
293.871	58.2
294.086	47.96
294.301	105.3
294.516	68.44
294.73	27.48
294.945	11.09
295.16	-79.02
295.374	113.49
295.589	29.52
295.804	-9.39
296.018	115.54
296.233	105.3
296.447	58.2
296.662	-60.59
296.877	148.31
297.091	74.58
297.306	86.87
297.52	35.67
297.735	80.72
297.949	45.91
298.164	70.48
298.378	45.91
298.593	9.05
298.807	19.29
299.022	58.2
299.236	146.26
299.451	39.76
299.665	25.43
299.88	-44.2
300.094	13.14
300.309	68.44
300.523	29.52
300.737	-48.3
300.952	-25.77
301.166	68.44
301.381	47.96
301.595	35.67
301.809	64.34
302.024	-9.39
302.238	-7.34
302.452	90.96
302.667	37.72
302.881	11.09
303.095	97.11
303.309	-21.67
303.524	-3.24
303.738	25.43
303.952	90.96
304.166	80.72
304.381	-9.39
304.595	27.48
304.809	23.38
305.023	50
305.237	58.2
305.452	54.1
305.666	103.25
305.88	9.05
306.094	43.86
306.308	68.44
306.522	2.9
306.736	58.2
306.95	0.85
307.164	-93.35
307.379	37.72
307.593	37.72
307.807	0.85
308.021	84.82
308.235	7
308.449	-44.2
308.663	9.05
308.877	101.2
309.091	-31.91
309.305	60.24
309.519	-21.67
309.733	125.78
309.947	-13.48
310.161	-13.48
310.374	33.62
310.588	78.68
310.802	2.9
311.016	82.77
311.23	64.34
311.444	33.62
311.658	50
311.872	23.38
312.085	86.87
312.299	76.63
312.513	41.81
312.727	-5.29
312.941	-31.91
313.154	119.64
313.368	68.44
313.582	103.25
313.796	39.76
314.009	43.86
314.223	45.91
314.437	84.82
314.651	2.9
314.864	39.76
315.078	68.44
315.292	25.43
315.505	129.88
315.719	99.16
315.933	17.24
316.146	47.96
316.36	62.29
316.573	70.48
316.787	86.87
317.001	80.72
317.214	25.43
317.428	82.77
317.641	11.09
317.855	37.72
318.068	60.24
318.282	74.58
318.495	131.92
318.709	21.33
318.922	29.52
319.136	117.59
319.349	39.76
319.563	117.59
319.776	111.44
319.99	37.72
320.203	47.96
320.417	11.09
320.63	90.96
320.843	140.12
321.057	125.78
321.27	70.48
321.483	78.68
321.697	72.53
321.91	17.24
322.124	66.39
322.337	70.48
322.55	-27.82
322.763	0.85
322.977	-17.58
323.19	9.05
323.403	78.68
323.617	101.2
323.83	123.73
324.043	-1.19
324.256	41.81
324.469	70.48
324.683	11.09
324.896	66.39
325.109	-9.39
325.322	-44.2
325.535	58.2
325.748	82.77
325.962	29.52
326.175	29.52
326.388	31.57
326.601	72.53
326.814	56.15
327.027	76.63
327.24	113.49
327.453	-48.3
327.666	54.1
327.879	23.38
328.092	52.05
328.305	33.62
328.518	21.33
328.731	-1.19
328.944	39.76
329.157	74.58
329.37	-3.24
329.583	115.54
329.796	31.57
330.009	-1.19
330.222	50
330.435	52.05
330.648	-33.96
330.861	31.57
331.073	97.11
331.286	117.59
331.499	133.97
331.712	-9.39
331.925	19.29
332.138	105.3
332.35	15.19
332.563	-11.43
332.776	101.2
332.989	33.62
333.202	9.05
333.414	-11.43
333.627	105.3
333.84	7
334.053	64.34
334.265	93.01
334.478	21.33
334.691	19.29
334.903	15.19
335.116	86.87
335.329	-11.43
335.541	11.09
335.754	119.64
335.966	50
336.179	60.24
336.392	25.43
336.604	35.67
336.817	84.82
337.029	115.54
337.242	54.1
337.454	19.29
337.667	27.48
337.88	109.4
338.092	76.63
338.305	21.33
338.517	15.19
338.729	33.62
338.942	181.07
339.154	-29.87
339.367	-83.11
339.579	90.96
339.792	-54.44
340.004	43.86
340.217	43.86
340.429	23.38
340.641	0.85
340.854	72.53
341.066	41.81
341.278	7
341.491	105.3
341.703	156.5
341.915	-9.39
342.128	37.72
342.34	39.76
342.552	-36.01
342.764	80.72
342.977	-29.87
343.189	97.11
343.401	80.72
343.613	13.14
343.826	-15.53
344.038	-13.48
344.25	43.86
344.462	70.48
344.674	78.68
344.886	72.53
345.099	50
345.311	101.2
345.523	62.29
345.735	11.09
345.947	90.96
346.159	21.33
346.371	109.4
346.583	11.09
346.795	88.92
347.007	2.9
347.219	41.81
347.431	19.29
347.643	99.16
347.855	78.68
348.067	185.17
348.279	7
348.491	13.14
348.703	27.48
348.915	11.09
349.127	62.29
349.339	58.2
349.551	-9.39
349.763	78.68
349.975	72.53
350.187	70.48
350.399	52.05
350.61	43.86
350.822	37.72
351.034	31.57
351.246	68.44
351.458	31.57
351.669	27.48
351.881	129.88
352.093	107.35
352.305	107.35
352.517	70.48
352.728	33.62
352.94	19.29
353.152	119.64
353.363	-33.96
353.575	52.05
353.787	74.58
353.999	-3.24
354.21	82.77
354.422	7
354.633	-29.87
354.845	86.87
355.057	47.96
355.268	27.48
355.48	82.77
355.692	-1.19
355.903	13.14
356.115	2.9
356.326	-25.77
356.538	166.74
356.749	23.38
356.961	70.48
357.172	78.68
357.384	64.34
357.595	74.58
357.807	29.52
358.018	43.86
358.23	82.77
358.441	105.3
358.653	90.96
358.864	15.19
359.075	84.82
359.287	84.82
359.498	111.44
359.709	41.81
359.921	68.44
360.132	99.16
360.344	72.53
360.555	-7.34
360.766	105.3
360.977	-13.48
361.189	125.78
361.4	13.14
361.611	72.53
361.823	99.16
362.034	35.67
362.245	7
362.456	4.95
362.667	39.76
362.879	29.52
363.09	113.49
363.301	31.57
363.512	70.48
363.723	9.05
363.935	-48.3
364.146	82.77
364.357	7
364.568	74.58
364.779	60.24
364.99	115.54
365.201	35.67
365.412	66.39
365.623	52.05
365.834	15.19
366.045	113.49
366.256	84.82
366.467	37.72
366.678	31.57
366.889	56.15
367.1	13.14
367.311	82.77
367.522	-56.49
367.733	64.34
367.944	113.49
368.155	41.81
368.366	11.09
368.577	74.58
368.788	105.3
368.999	19.29
369.209	82.77
369.42	84.82
369.631	117.59
369.842	101.2
370.053	-11.43
370.264	121.68
370.474	68.44
370.685	133.97
370.896	9.05
371.107	90.96
371.317	39.76
371.528	62.29
371.739	64.34
371.95	37.72
372.16	111.44
372.371	27.48
372.582	23.38
372.792	113.49
373.003	19.29
373.214	88.92
373.424	35.67
373.635	33.62
373.846	115.54
374.056	56.15
374.267	101.2
374.477	99.16
374.688	31.57
374.898	37.72
375.109	25.43
375.319	95.06
375.53	88.92
375.74	21.33
375.951	45.91
376.161	54.1
376.372	43.86
376.582	47.96
376.793	43.86
377.003	19.29
377.214	25.43
377.424	117.59
377.635	29.52
377.845	0.85
378.055	97.11
378.266	23.38
378.476	56.15
378.686	66.39
378.897	29.52
379.107	131.92
379.317	9.05
379.528	39.76
379.738	105.3
379.948	47.96
380.158	93.01
380.369	33.62
380.579	37.72
380.789	72.53
380.999	99.16
381.21	90.96
381.42	93.01
381.63	15.19
381.84	21.33
382.05	-23.72
382.261	164.69
382.471	58.2
382.681	119.64
382.891	146.26
383.101	119.64
383.311	45.91
383.521	23.38
383.731	58.2
383.941	56.15
384.151	52.05
384.361	-3.24
384.571	129.88
384.781	11.09
384.991	248.66
385.201	107.35
385.411	95.06
385.621	103.25
385.831	58.2
386.041	45.91
386.251	29.52
386.461	78.68
386.671	60.24
386.881	76.63
387.091	97.11
387.301	107.35
387.511	88.92
387.72	62.29
387.93	86.87
388.14	35.67
388.35	-7.34
388.56	119.64
388.769	72.53
388.979	93.01
389.189	4.95
389.399	33.62
389.609	64.34
389.818	62.29
390.028	76.63
390.238	138.07
390.447	78.68
390.657	121.68
390.867	19.29
391.076	70.48
391.286	21.33
391.496	52.05
391.705	58.2
391.915	86.87
392.125	150.36
392.334	47.96
392.544	185.17
392.753	17.24
392.963	52.05
393.172	27.48
393.382	125.78
393.591	183.12
393.801	-7.34
394.01	97.11
394.22	144.21
394.429	93.01
394.639	88.92
394.848	111.44
395.058	131.92
395.267	88.92
395.477	113.49
395.686	68.44
395.895	115.54
396.105	82.77
396.314	56.15
396.524	76.63
396.733	125.78
396.942	105.3
397.152	95.06
397.361	140.12
397.57	144.21
397.78	21.33
397.989	68.44
398.198	224.08
398.407	142.16
398.617	115.54
398.826	-11.43
399.035	117.59
399.244	93.01
399.453	111.44
399.663	189.27
399.872	109.4
400.081	148.31
400.29	150.36
400.499	72.53
400.708	131.92
400.917	80.72
401.127	105.3
401.336	133.97
401.545	195.41
401.754	131.92
401.963	107.35
402.172	156.5
402.381	93.01
402.59	170.83
402.799	84.82
403.008	179.03
403.217	164.69
403.426	74.58
403.635	156.5
403.844	131.92
404.053	121.68
404.262	45.91
404.471	217.94
404.68	164.69
404.888	136.02
405.097	162.64
405.306	164.69
405.515	162.64
405.724	142.16
405.933	226.13
406.142	211.79
406.35	179.03
406.559	189.27
406.768	133.97
406.977	248.66
407.185	197.46
407.394	269.14
407.603	189.27
407.812	158.55
408.02	195.41
408.229	191.31
408.438	207.7
408.646	152.4
408.855	236.37
409.064	209.75
409.272	199.51
409.481	258.9
409.69	279.38
409.898	238.42
410.107	217.94
410.315	308.05
410.524	318.29
410.733	291.66
410.941	367.44
411.15	314.19
411.358	301.9
411.567	363.34
411.775	371.54
411.984	355.15
412.192	377.68
412.401	432.97
412.609	404.3
412.818	486.22
413.026	410.45
413.234	498.51
413.443	539.47
413.651	363.34
413.86	471.89
414.068	555.85
414.276	578.38
414.485	559.95
414.693	621.39
414.901	652.11
415.11	598.86
415.318	680.78
415.526	680.78
415.734	697.16
415.943	766.79
416.151	746.31
416.359	744.27
416.567	686.92
416.776	865.1
416.984	899.91
417.192	918.34
417.4	840.52
417.608	793.42
417.817	893.77
418.025	947.01
418.233	1051.46
418.441	977.73
418.649	1106.76
418.857	1147.72
419.065	1172.29
419.273	1176.39
419.481	1184.58
419.689	1233.73
419.897	1370.94
420.105	1321.79
420.313	1418.05
420.521	1436.48
420.729	1450.82
420.937	1581.89
421.145	1540.93
421.353	1749.82
421.561	1776.44
421.769	1639.23
421.977	1864.5
422.185	1743.67
422.393	1979.19
422.601	1993.53
422.809	2050.87
423.017	2018.1
423.224	2134.84
423.432	2265.91
423.64	2270
423.848	2501.42
424.056	2323.25
424.263	2593.58
424.471	2419.5
424.679	2644.78
424.887	2677.55
425.094	2788.14
425.302	2837.29
425.51	2994.98
425.718	2986.79
425.925	3013.42
426.133	3101.48
426.341	3298.08
426.548	3461.92
426.756	3392.29
426.964	3461.92
427.171	3695.39
427.379	3810.08
427.586	3838.75
427.794	3877.66
428.001	4127.51
428.209	4373.27
428.417	4360.98
428.624	4715.28
428.832	4643.6
429.039	4715.28
429.247	4580.11
429.454	4805.39
429.662	5321.48
429.869	4956.94
430.076	5470.98
430.284	5214.98
430.491	5458.69
430.699	5616.38
430.906	5683.97
431.114	5835.52
431.321	6081.27
431.528	6243.06
431.736	6421.24
431.943	6812.4
432.15	6798.06
432.358	6724.33
432.565	7082.73
432.772	6789.87
432.979	7430.88
433.187	7754.46
433.394	7650.02
433.601	8096.47
433.808	8000.22
434.016	8207.06
434.223	8200.92
434.43	8852.17
434.637	8567.51
434.844	9415.37
435.052	9732.8
435.259	9460.42
435.466	9452.23
435.673	9415.37
435.88	9949.89
436.087	10445.49
436.294	10699.44
436.501	10416.82
436.708	10650.29
436.915	10816.18
437.122	11348.65
437.329	11373.22
437.537	11901.6
437.743	12010.14
437.95	11881.12
438.157	12348.06
438.364	13032.08
438.571	12798.61
438.778	13011.6
438.985	14090.88
439.192	13779.59
439.399	13861.51
439.606	13695.62
439.813	14631.54
440.02	15708.77
440.227	15250.03
440.433	14983.79
440.64	15432.3
440.847	15274.6
441.054	15723.11
441.261	16902.74
441.467	16542.3
441.674	16953.94
441.881	17601.1
442.088	17480.27
442.294	17461.83
442.501	17703.5
442.708	18289.21
442.914	18735.67
443.121	19622.44
443.328	19204.66
443.534	20693.53
443.741	19939.88
443.948	19599.91
444.154	21045.78
444.361	20957.72
444.568	21240.34
444.774	21062.16
444.981	21586.44
445.187	22174.21
445.394	22999.54
445.6	22505.98
445.807	24986.07
446.013	23630.32
446.22	24267.24
446.426	25119.19
446.633	25237.97
446.839	26524.1
447.046	25326.03
447.252	26808.76
447.459	26522.05
447.665	26851.77
447.871	28086.7
448.078	29249.94
448.284	27431.35
448.491	28369.32
448.697	29358.49
448.903	30261.64
449.11	29985.16
449.316	29579.67
449.522	30220.68
449.728	30867.84
449.935	30912.89
450.141	30931.33
450.347	31799.66
450.553	30687.62
450.76	31070.59
450.966	32319.85
451.172	31746.42
451.378	32842.08
451.584	32086.38
451.791	32852.32
451.997	32565.6
452.203	33223
452.409	33337.69
452.615	33024.35
452.821	32065.9
453.027	31529.33
453.233	33220.95
453.44	31938.93
453.646	32043.37
453.852	32325.99
454.058	32840.03
454.264	31873.39
454.47	32668
454.676	31814
454.882	32956.77
455.088	30140.81
455.294	30388.61
455.5	30865.79
455.705	31103.35
455.911	29991.31
456.117	29579.67
456.323	29028.76
456.529	27201.97
456.735	28586.4
456.941	27810.22
457.147	27249.08
457.352	26542.53
457.558	26141.13
457.764	26614.21
457.97	25803.21
458.176	25194.96
458.381	24975.83
458.587	24009.19
458.793	23935.46
458.999	22716.92
459.204	24052.2
459.41	23828.97
459.616	21983.75
459.821	22123.01
460.027	22000.13
460.233	21508.62
460.438	20697.63
460.644	20750.87
460.85	19847.72
461.055	19274.29
461.261	19235.38
461.466	17994.31
461.672	17447.5
461.878	18459.2
462.083	17281.61
462.289	16896.6
462.494	16712.28
462.7	15983.2
462.905	15913.57
463.111	16329.31
463.316	16396.89
463.522	15911.52
463.727	16003.68
463.932	15696.49
464.138	15870.56
464.343	15839.84
464.549	15407.72
464.754	16046.69
464.959	15721.06
465.165	15622.76
465.37	14991.98
465.575	14490.23
465.781	15268.46
465.986	15182.45
466.191	14803.57
466.397	14375.55
466.602	13789.83
466.807	14144.13
467.012	14066.3
467.218	13922.94
467.423	14092.93
467.628	14297.72
467.833	14598.77
468.038	14234.24
468.244	13679.24
468.449	14201.47
468.654	14006.91
468.859	13456.01
469.064	13425.29
469.269	13019.79
469.474	13134.48
469.679	13337.23
469.885	12837.52
470.09	13208.2
470.295	13046.41
470.5	12782.23
470.705	13116.05
470.91	12864.15
471.115	12626.58
471.32	12685.97
471.525	12784.27
471.73	12505.75
471.935	12303
472.139	11795.11
472.344	12018.33
472.549	11967.13
472.754	11817.63
472.959	11436.71
473.164	11274.92
473.369	11127.47
473.574	11555.49
473.778	11608.74
473.983	11330.22
474.188	11100.84
474.393	10558.13
474.598	10869.42
474.802	10822.32
475.007	10631.86
475.212	10644.15
475.417	10205.88
475.621	10152.63
475.826	10336.95
476.031	10095.29
476.235	9730.75
476.44	10080.96
476.645	9667.27
476.849	9835.2
477.054	9669.31
477.259	9591.49
477.463	9765.57
477.668	9458.37
477.872	9384.65
478.077	9401.03
478.282	9038.54
478.486	9138.89
478.691	9089.74
478.895	8886.99
479.1	8934.09
479.304	8925.9
479.509	8735.44
479.713	8917.71
479.918	8532.69
480.122	8573.65
480.326	8551.12
480.531	8565.46
480.735	8389.33
480.94	8370.9
481.144	8696.53
481.348	8180.44
481.553	8205.02
481.757	8069.85
481.961	8317.65
482.166	8518.36
482.37	8348.37
482.574	8135.39
482.778	8131.29
482.983	8383.19
483.187	8121.05
483.391	8153.82
483.595	8213.21
483.8	8174.3
484.004	8399.57
484.208	8334.04
484.412	8229.59
484.616	8377.05
484.821	8235.74
485.025	8418
485.229	8245.98
485.433	8231.64
485.637	8252.12
485.841	8207.06
486.045	8049.37
486.249	8434.39
486.453	8225.5
486.657	8119
486.861	8329.94
487.065	8147.67
487.269	8215.26
487.473	8037.08
487.677	8278.74
487.881	8409.81
488.085	8106.71
488.289	8401.62
488.493	8252.12
488.697	8305.37
488.901	8456.92
489.105	8061.66
489.309	8387.29
489.512	8358.61
489.716	8346.33
489.92	8303.32
490.124	8420.05
490.328	8573.65
490.531	8346.33
490.735	8577.75
490.939	8401.62
491.143	8491.73
491.346	8495.83
491.55	8551.12
491.754	8571.6
491.958	8628.95
492.161	8538.84
492.365	8774.35
492.569	8803.02
492.772	8612.56
492.976	8778.45
493.18	8846.03
493.383	9034.44
493.587	8962.76
493.79	9102.03
493.994	8970.96
494.197	9013.96
494.401	9140.94
494.605	9140.94
494.808	9259.72
495.012	9433.8
495.215	9435.85
495.419	9675.46
495.622	9368.26
495.825	9685.7
496.029	9632.45
496.232	9829.06
496.436	9591.49
496.639	10218.17
496.843	10021.56
497.046	9956.03
497.249	10349.24
497.453	10263.22
497.656	10564.28
497.859	10480.31
498.063	10541.75
498.266	10730.16
498.469	10668.72
498.673	10867.38
498.876	10816.18
499.079	11174.57
499.282	10934.96
499.485	11514.53
499.689	11440.81
499.892	11590.31
500.095	11602.6
500.298	11997.85
500.501	11612.84
500.705	12303
500.908	12612.24
501.111	12481.17
501.314	12718.74
501.517	12634.77
501.72	12972.69
501.923	12784.27
502.126	13445.77
502.329	13427.34
502.532	13331.08
502.735	13513.35
502.938	13877.89
503.141	13853.31
503.344	13863.55
503.547	14295.68
503.75	14293.63
503.953	14482.04
504.156	14680.69
504.359	14656.12
504.562	14592.63
504.765	15225.45
504.968	15387.24
505.17	15499.88
505.373	15571.56
505.576	16011.87
505.779	15727.21
505.982	16101.98
506.185	16421.47
506.387	16613.98
506.59	16564.82
506.793	16912.98
506.996	17052.24
507.198	17459.79
507.401	17377.87
507.604	17564.23
507.807	17859.14
508.009	18199.1
508.212	18207.3
508.415	18561.59
508.617	18620.99
508.82	18760.25
509.022	18627.13
509.225	19309.1
509.428	19251.76
509.63	19374.64
509.833	19620.39
510.035	20169.25
510.238	20138.53
510.44	20367.9
510.643	20685.34
510.845	20759.06
511.048	20748.82
511.25	20992.53
511.453	21346.83
511.655	22180.35
511.858	21875.21
512.06	22106.63
512.262	22389.25
512.465	22501.89
512.667	22718.97
512.87	23142.9
513.072	22804.99
513.274	23642.6
513.477	23945.7
513.679	23996.9
513.881	24388.07
514.084	24420.83
514.286	24797.66
514.488	24947.16
514.69	25551.31
514.893	25321.94
515.095	25530.83
515.297	26171.85
515.499	26251.72
515.701	26520
515.904	26712.51
516.106	26706.37
516.308	26972.6
516.51	27855.28
516.712	27480.5
516.914	27820.46
517.116	28453.28
517.318	28320.17
517.52	28666.27
517.722	28838.3
517.925	29174.17
518.127	29561.23
518.329	30011.79
518.531	29532.56
518.733	30660.99
518.935	30734.72
519.136	30845.31
519.338	31291.77
519.54	31273.34
519.742	31834.48
519.944	31713.65
520.146	32319.85
520.348	32637.28
520.55	32870.75
520.752	32786.79
520.954	33474.9
521.155	33462.61
521.357	34068.81
521.559	34351.43
521.761	34472.26
521.963	34582.85
522.164	34828.61
522.366	35039.55
522.568	35397.95
522.77	35627.32
522.971	36460.84
523.173	35821.87
523.375	36583.72
523.576	36540.71
523.778	36557.1
523.98	37062.94
524.181	37259.55
524.383	37511.45
524.584	38021.39
524.786	37945.62
524.988	37972.24
525.189	38050.06
525.391	38592.78
525.592	38762.76
525.794	39045.38
525.995	39221.5
526.197	39147.78
526.398	39502.07
526.6	39942.39
526.801	39833.85
527.003	40202.48
527.204	40356.08
527.406	40693.99
527.607	40780.01
527.808	40702.18
528.01	40335.6
528.211	40595.69
528.412	41519.32
528.614	41216.22
528.815	41410.78
529.016	41851.09
529.218	41373.92
529.419	41519.32
529.62	41914.58
529.822	42059.99
530.023	42062.04
530.224	42113.23
530.425	41949.4
530.626	42008.79
530.828	42041.56
531.029	43129.03
531.23	42438.86
531.431	42492.11
531.632	42657.99
531.833	42989.77
532.035	42748.11
532.236	42793.16
532.437	43610.3
532.638	42727.63
532.839	42952.9
533.04	43370.69
533.241	42668.23
533.442	43757.75
533.643	43172.03
533.844	43305.15
534.045	43462.85
534.246	43126.98
534.447	43509.95
534.648	43245.76
534.849	43749.56
535.05	43649.21
535.251	43487.42
535.451	43241.67
535.652	43671.74
535.853	43313.34
536.054	43393.22
536.255	43501.76
536.456	43378.88
536.657	43980.98
536.857	43731.13
537.058	43544.76
537.259	43876.54
537.46	43911.35
537.66	43813.05
537.861	43559.1
538.062	43567.29
538.263	43626.68
538.463	43579.58
538.664	43487.42
538.865	43968.69
539.065	43923.64
539.266	43485.37
539.466	43948.21
539.667	43737.27
539.868	44210.35
540.068	43657.4
540.269	43421.89
540.469	43641.02
540.67	43940.02
540.87	43702.46
541.071	43669.69
541.271	43747.51
541.472	43577.53
541.672	43337.92
541.873	43378.88
542.073	43342.02
542.274	43870.39
542.474	43456.7
542.675	43321.54
542.875	44114.1
543.075	43645.12
543.276	43368.64
543.476	43970.74
543.676	43305.15
543.877	44064.95
544.077	43862.2
544.277	43800.76
544.478	43466.94
544.678	43860.15
544.878	43565.24
545.078	43362.5
545.279	43417.79
545.479	43212.99
545.679	44150.96
545.879	43653.31
546.079	43151.55
546.28	43196.61
546.48	43079.88
546.68	43485.37
546.88	43407.55
547.08	43380.93
547.28	43307.2
547.48	42836.17
547.68	43591.87
547.88	43081.92
548.081	43591.87
548.281	43432.13
548.481	42989.77
548.681	43659.45
548.881	43602.11
549.081	43389.12
549.28	43503.81
549.48	43604.16
549.68	43233.47
549.88	43622.59
550.08	43073.73
550.28	43518.14
550.48	43098.31
550.68	43417.79
550.88	43245.76
551.08	43256
551.279	43466.94
551.479	43135.17
551.679	43137.22
551.879	42860.74
552.079	42932.42
552.278	42866.89
552.478	43210.95
552.678	43100.36
552.878	43253.95
553.077	42993.86
553.277	43020.48
553.477	43651.26
553.676	42977.48
553.876	42856.65
554.076	42809.54
554.275	42666.19
554.475	42389.71
554.674	42926.28
554.874	42987.72
555.074	42608.84
555.273	42592.46
555.473	42873.03
555.672	42258.64
555.872	42920.13
556.071	42780.87
556.271	42727.63
556.47	42395.85
556.67	42066.13
556.869	42406.09
557.068	42408.14
557.268	41998.55
557.467	42062.04
557.667	41982.16
557.866	41885.91
558.065	42127.57
558.265	41894.1
558.464	41564.38
558.663	42260.69
558.863	41543.9
559.062	41765.08
559.261	41316.57
559.461	41783.51
559.66	40929.51
559.859	41267.42
560.058	41351.39
560.258	41150.69
560.457	40927.46
560.656	41175.27
560.855	40587.5
561.054	41093.35
561.253	40530.15
561.453	40601.83
561.652	40589.55
561.851	40839.4
562.05	40306.93
562.249	40470.76
562.448	40612.07
562.647	40423.66
562.846	40194.29
563.045	40261.87
563.244	39721.21
563.443	40388.85
563.642	39588.09
563.841	39948.53
564.04	39835.89
564.239	39948.53
564.438	39129.34
564.637	39311.61
564.836	39508.22
565.035	38963.46
565.234	39237.89
565.432	39031.04
565.631	39028.99
565.83	38942.98
566.029	38875.4
566.228	38666.5
566.427	38480.14
566.625	38197.52
566.824	38007.06
567.023	38467.85
567.222	37613.85
567.42	38385.93
567.619	38279.44
567.818	37943.57
568.016	37763.35
568.215	38326.54
568.414	37519.64
568.612	38320.4
568.811	37241.12
569.01	37241.12
569.208	37226.78
569.407	37458.2
569.605	37030.18
569.804	37120.29
570.002	36481.32
570.201	37011.74
570.4	36782.37
570.598	36233.52
570.797	36256.04
570.995	36358.44
571.193	36014.38
571.392	36284.72
571.59	36041.01
571.789	35967.28
571.987	35907.89
572.186	35918.13
572.384	35486.01
572.582	35576.12
572.781	35406.14
572.979	34994.5
573.177	35080.51
573.376	34879.81
573.574	34822.47
573.772	35094.85
573.971	34502.98
574.169	34531.65
574.367	34435.4
574.565	34335.05
574.763	34468.17
574.962	34390.34
575.16	33874.26
575.358	34074.96
575.556	33522.01
575.754	34058.57
575.952	33227.1
576.151	33755.47
576.349	32924
576.547	33403.22
576.745	33263.96
576.943	33515.86
577.141	32680.29
577.339	33233.24
577.537	32592.23
577.735	32741.73
577.933	32442.73
578.131	32774.5
578.329	32686.43
578.527	32350.57
578.725	31990.13
578.923	32047.47
579.121	32168.3
579.319	32342.38
579.516	32141.67
579.714	32190.83
579.912	31650.16
580.11	31594.87
580.308	31461.75
580.506	31367.54
580.704	30859.65
580.901	31457.65
581.099	31371.64
581.297	30683.52
581.495	30951.81
581.692	31129.98
581.89	30757.25
582.088	30816.64
582.285	30484.87
582.483	30611.84
582.681	30443.91
582.878	30439.81
583.076	30396.81
583.274	30431.62
583.471	29995.4
583.669	30278.02
583.866	29735.31
584.064	29641.11
584.262	29600.15
584.459	29743.5
584.657	29358.49
584.854	29778.32
585.052	29335.96
585.249	29632.91
585.447	29290.9
585.644	28764.57
585.841	28983.71
586.039	29438.36
586.236	28830.11
586.434	28621.22
586.631	28551.59
586.828	28588.45
587.026	28649.89
587.223	28625.31
587.42	28492.19
587.618	28393.89
587.815	27875.76
588.012	27701.68
588.21	28123.56
588.407	28135.85
588.604	27716.01
588.801	27498.93
588.999	27359.67
589.196	27378.1
589.393	27464.11
589.59	27228.6
589.787	27349.43
589.984	27052.47
590.182	27015.61
590.379	26974.65
590.576	26880.44
590.773	26728.89
590.97	26747.33
591.167	27101.62
591.364	26503.62
591.561	26501.57
591.758	26300.87
591.955	26274.24
592.152	26513.86
592.349	25999.82
592.546	26278.34
592.743	26356.16
592.94	25944.52
593.137	26032.58
593.334	26141.13
593.531	25403.86
593.727	25944.52
593.924	25561.55
594.121	25506.26
594.318	25348.56
594.515	25127.38
594.712	25473.49
594.908	25201.11
595.105	25233.88
595.302	24840.67
595.499	25217.49
595.696	24875.48
595.892	24941.02
596.089	25201.11
596.286	25223.64
596.482	24701.4
596.679	24484.32
596.876	24822.23
597.072	24213.99
597.269	24261.09
597.466	24041.96
597.662	24183.27
597.859	24371.68
598.055	24005.1
598.252	24166.88
598.448	23902.7
598.645	23943.66
598.841	23771.63
599.038	23624.17
599.234	23804.39
599.431	23331.31
599.627	23396.85
599.824	23478.77
600.02	23136.76
600.217	23261.68
600.413	23345.65
600.609	23001.59
600.806	22934.01
601.002	23263.73
601.198	23017.97
601.395	22895.1
601.591	22985.21
601.787	22946.3
601.984	22630.91
602.18	22802.94
602.376	22499.84
602.572	22260.23
602.769	22493.69
602.965	21781
603.161	22157.83
603.357	22223.36
603.553	22041.09
603.75	21928.45
603.946	21842.44
604.142	21930.5
604.338	21568.01
604.534	21805.58
604.73	21776.91
604.926	21467.66
605.122	21467.66
605.318	21266.96
605.514	21449.23
605.71	21195.28
605.906	21492.24
606.102	21146.13
606.298	21096.98
606.494	21428.75
606.69	20978.2
606.886	21142.03
607.082	20722.2
607.278	20871.7
607.474	20605.47
607.67	20619.8
607.866	20353.57
608.062	20634.14
608.257	20431.39
608.453	20341.28
608.649	20683.29
608.845	20259.36
609.041	20433.44
609.236	20433.44
609.432	20107.81
609.628	20302.37
609.824	20343.33
610.019	20308.51
610.215	19948.07
610.411	20161.06
610.606	19968.55
610.802	20122.15
610.998	19876.39
611.193	19923.49
611.389	19913.25
611.584	19833.38
611.78	19395.12
611.976	19612.2
612.171	19720.74
612.367	19593.77
612.562	19444.27
612.758	19329.58
612.953	19358.25
613.149	19479.08
613.344	19073.59
613.539	19448.36
613.735	19055.15
613.93	19210.8
614.126	19159.6
614.321	19380.78
614.517	19071.54
614.712	19079.73
614.907	19055.15
615.103	18956.85
615.298	18983.48
615.493	19196.46
615.688	18756.15
615.884	19122.74
616.079	18541.11
616.274	18731.58
616.47	18700.86
616.665	18569.79
616.86	18377.28
617.055	18541.11
617.25	18311.74
617.445	18803.25
617.641	18000.45
617.836	18244.16
618.031	18065.99
618.226	18532.92
618.421	18180.67
618.616	18344.51
618.811	17939.01
619.006	18295.36
619.201	17760.84
619.396	18018.88
619.591	17488.46
619.786	17896
619.981	17482.31
620.176	17742.41
620.371	17250.89
620.566	17431.12
620.761	17267.28
620.956	17723.97
621.151	17001.04
621.346	17279.57
621.541	17062.48
621.735	16908.88
621.93	16855.64
622.125	16892.5
622.32	16448.09
622.515	16665.18
622.709	16550.49
622.904	16427.61
623.099	16364.12
623.294	16292.44
623.488	16210.53
623.683	16144.99
623.878	16003.68
624.072	15968.87
624.267	15927.91
624.462	15876.71
624.656	15723.11
624.851	15622.76
625.046	15536.74
625.24	15356.52
625.435	15321.71
625.629	15092.34
625.824	15213.17
626.018	15127.15
626.213	14789.24
626.407	14989.94
626.602	14801.52
626.796	14680.69
626.991	14695.03
627.185	14494.33
627.38	14506.62
627.574	14498.42
627.768	14299.77
627.963	14242.43
628.157	13996.67
628.352	13978.24
628.546	14037.63
628.74	14211.71
628.935	13679.24
629.129	13892.23
629.323	13640.33
629.517	13666.95
629.712	13755.01
629.906	13548.17
630.1	13431.43
630.294	13417.1
630.489	13312.65
630.683	13222.54
630.877	13202.06
631.071	13099.66
631.265	13335.18
631.459	13005.45
631.653	12898.96
631.848	13036.17
632.042	12776.08
632.236	12774.03
632.43	12550.81
632.624	12620.44
632.818	12561.05
633.012	12182.17
633.206	12360.34
633.4	12368.54
633.594	12243.61
633.788	12200.6
633.982	12397.21
634.176	12063.39
634.369	11852.45
634.563	12057.25
634.757	11739.81
634.951	11813.54
635.145	11858.59
635.339	11737.76
635.533	11528.87
635.726	11610.79
635.92	11424.42
636.114	11541.16
636.308	11283.11
636.501	11471.53
636.695	11311.78
636.889	11156.14
637.083	10881.71
637.276	11135.66
637.47	10898.1
637.664	11066.03
637.857	10982.06
638.051	10844.85
638.244	10906.29
638.438	10861.23
638.632	10769.07
638.825	10519.22
639.019	10484.41
639.212	10500.79
639.406	10486.45
639.599	10250.94
639.793	10312.38
639.986	10476.21
640.18	10095.29
640.373	10259.13
640.567	10025.66
640.76	10052.28
640.954	9892.54
641.147	9824.96
641.34	9880.25
641.534	9820.86
641.727	10023.61
641.92	9693.89
642.114	9706.18
642.307	9601.73
642.5	9444.04
642.694	9284.3
642.887	9464.52
643.08	9525.96
643.273	9261.77
643.467	9294.54
643.66	9274.06
643.853	9149.13
644.046	9091.79
644.239	9034.44
644.432	8907.47
644.626	8790.74
644.819	8973
645.012	8835.79
645.205	8850.13
645.398	8839.89
645.591	8874.7
645.784	8745.68
645.977	8657.62
646.17	8551.12
646.363	8499.92
646.556	8145.63
646.749	8375
646.942	8364.76
647.135	8350.42
647.328	8307.41
647.521	8207.06
647.714	8315.61
647.907	8024.79
648.099	8256.22
648.292	8172.25
648.485	7920.35
648.678	8000.22
648.871	8020.7
649.064	7760.61
649.256	8114.91
649.449	7715.55
649.642	7721.7
649.835	7705.31
650.027	7643.87
650.22	7840.48
650.413	7520.99
650.605	7697.12
650.798	7520.99
650.991	7265
651.183	7486.18
651.376	7383.78
651.568	7271.14
651.761	7437.03
651.954	7344.87
652.146	7281.38
652.339	7312.1
652.531	7344.87
652.724	7172.84
652.916	7150.31
653.109	6998.76
653.301	7109.35
653.494	7021.29
653.686	6974.19
653.879	7078.63
654.071	7015.15
654.263	6871.79
654.456	6935.28
654.648	7054.06
654.84	6871.79
655.033	6687.47
655.225	6681.33
655.417	6669.04
655.61	6693.62
655.802	6730.48
655.994	6601.46
656.186	6583.02
656.379	6468.34
656.571	6433.52
656.763	6343.41
656.955	6390.52
657.148	6398.71
657.34	6337.27
657.532	6398.71
657.724	6208.25
657.916	6232.82
658.108	6220.53
658.3	6085.37
658.492	6165.24
658.684	5991.16
658.876	6028.03
659.068	6105.85
659.26	5993.21
659.452	5919.48
659.644	6091.51
659.836	5884.67
660.028	6124.28
660.22	5722.88
660.412	5882.62
660.604	5808.89
660.796	5788.41
660.988	5948.15
661.18	5724.93
661.372	5778.17
661.563	5749.5
661.755	5632.77
661.947	5538.56
662.139	5632.77
662.331	5573.38
662.522	5565.18
662.714	5513.99
662.906	5389.06
663.097	5491.46
663.289	5538.56
663.481	5194.5
663.673	5329.67
663.864	5303.04
664.056	5272.32
664.247	5286.66
664.439	5264.13
664.631	5409.54
664.822	5319.43
665.014	5294.85
665.205	5110.54
665.397	5200.65
665.588	5163.78
665.78	5122.82
665.971	5137.16
666.163	5061.38
666.354	5018.38
666.546	5073.67
666.737	4983.56
666.929	5128.97
667.12	5108.49
667.311	4967.18
667.503	4852.49
667.694	5057.29
667.885	4999.95
668.077	4948.75
668.268	4991.75
668.459	4934.41
668.651	4868.88
668.842	4782.86
669.033	4848.4
669.224	4823.82
669.416	4920.07
669.607	4770.57
669.798	4836.11
669.989	4811.53
670.18	4692.75
670.371	4694.8
670.563	4659.98
670.754	4842.25
670.945	4674.32
671.136	4754.19
671.327	4500.24
671.518	4690.7
671.709	4600.59
671.9	4791.05
672.091	4537.1
672.282	4559.63
672.473	4610.83
672.664	4666.13
672.855	4684.56
673.046	4576.02
673.237	4528.91
673.428	4590.35
673.619	4498.19
673.809	4508.43
674	4475.67
674.191	4590.35
674.382	4549.39
674.573	4582.16
674.764	4418.32
674.954	4522.77
675.145	4348.69
675.336	4434.71
675.527	4424.47
675.717	4381.46
675.908	4401.94
676.099	4375.31
676.289	4309.78
676.48	4383.51
676.671	4502.29
676.861	4414.23
677.052	4373.27
677.243	4244.24
677.433	4297.49
677.624	4330.26
677.814	4373.27
678.005	4463.38
678.195	4379.41
678.386	4338.45
678.576	4324.12
678.767	4287.25
678.957	4295.44
679.148	4324.12
679.338	4395.79
679.529	4348.69
679.719	4358.93
679.909	4356.88
680.1	4438.8
680.29	4463.38
680.481	4360.98
680.671	4334.36
680.861	4393.75
681.052	4139.8
681.242	4403.99
681.432	4383.51
681.622	4469.52
681.813	4283.16
682.003	4449.04
682.193	4358.93
682.383	4442.9
682.573	4326.16
682.764	4162.33
682.954	4303.64
683.144	4199.19
683.334	4326.16
683.524	4098.84
683.714	4297.49
683.904	4221.72
684.094	4395.79
684.284	4139.8
684.474	4197.14
684.664	4291.35
684.854	4227.86
685.044	4162.33
685.234	4217.62
685.424	4254.48
685.614	4160.28
685.804	4188.95
685.994	4170.52
686.184	4162.33
686.374	4193.05
686.564	4182.81
686.753	3984.15
686.943	4127.51
687.133	4027.16
687.323	4166.42
687.513	4096.79
687.702	3891.99
687.892	4031.26
688.082	4137.75
688.272	4033.3
688.461	4051.74
688.651	3975.96
688.841	3982.1
689.03	3926.81
689.22	4049.69
689.41	3826.46
689.599	3787.55
689.789	3873.56
689.979	3918.62
690.168	3765.02
690.358	3873.56
690.547	3793.69
690.737	3857.18
690.926	3699.48
691.116	3787.55
691.305	3799.84
691.495	3648.29
691.684	3676.96
691.874	3623.71
692.063	3781.4
692.252	3670.81
692.442	3484.45
692.631	3644.19
692.82	3613.47
693.01	3527.46
693.199	3592.99
693.388	3576.61
693.578	3537.7
693.767	3623.71
693.956	3527.46
694.146	3500.83
694.335	3558.18
694.524	3388.19
694.713	3429.15
694.902	3509.02
695.092	3500.83
695.281	3447.58
695.47	3400.48
695.659	3392.29
695.848	3345.19
696.037	3269.41
696.226	3443.49
696.415	3423.01
696.604	3308.32
696.793	3386.15
696.982	3318.56
697.171	3275.56
697.36	3205.92
697.549	3341.09
697.738	3336.99
697.927	3306.27
698.116	3349.28
698.305	3312.42
698.494	3334.95
698.683	3253.03
698.872	3418.91
699.061	3427.11
699.25	3330.85
699.438	3275.56
699.627	3357.47
699.816	3308.32
700.005	3304.23
700.193	3271.46
700.382	3226.4
700.571	3355.43
700.76	3371.81
700.948	3226.4
701.137	3023.66
701.326	3373.86
701.514	3310.37
701.703	3277.6
701.892	3427.11
702.08	3220.26
702.269	3291.94
702.457	3277.6
702.646	3312.42
702.834	3277.6
703.023	3193.64
703.212	3314.47
703.4	3382.05
703.589	3263.27
703.777	3394.34
703.965	3285.8
704.154	3238.69
704.342	3164.97
704.531	3199.78
704.719	3201.83
704.907	3449.63
705.096	3318.56
705.284	3293.99
705.472	3304.23
705.661	3343.14
705.849	3357.47
706.037	3300.13
706.226	3277.6
706.414	3369.76
706.602	3271.46
706.79	3308.32
706.979	3236.64
707.167	3322.66
707.355	3265.32
707.543	3443.49
707.731	3332.9
707.919	3326.75
708.107	3336.99
708.296	3248.93
708.484	3257.12
708.672	3367.71
708.86	3310.37
709.048	3355.43
709.236	3275.56
709.424	3265.32
709.612	3296.04
709.8	3336.99
709.988	3261.22
710.176	3255.08
710.364	3363.62
710.551	3257.12
710.739	3388.19
710.927	3502.88
711.115	3353.38
711.303	3396.39
711.491	3400.48
711.679	3406.63
711.866	3414.82
712.054	3453.73
712.242	3353.38
712.43	3564.32
712.617	3330.85
712.805	3345.19
712.993	3320.61
713.181	3402.53
713.368	3466.02
713.556	3400.48
713.744	3459.87
713.931	3625.76
714.119	3466.02
714.306	3498.78
714.494	3472.16
714.682	3496.74
714.869	3427.11
715.057	3445.54
715.244	3427.11
715.432	3468.06
715.619	3425.06
715.807	3488.54
715.994	3529.5
716.182	3429.15
716.369	3595.04
716.556	3482.4
716.744	3423.01
716.931	3412.77
717.119	3490.59
717.306	3511.07
717.493	3607.33
717.681	3504.93
717.868	3361.57
718.055	3521.31
718.242	3633.95
718.43	3398.43
718.617	3595.04
718.804	3574.56
718.991	3609.37
719.179	3519.26
719.366	3642.14
719.553	3636
719.74	3560.22
719.927	3619.61
720.114	3531.55
720.301	3640.09
720.488	3455.78
720.676	3533.6
720.863	3738.4
721.05	3568.41
721.237	3689.25
721.424	3756.83
721.611	3605.28
721.798	3531.55
721.985	3588.89
722.172	3691.29
722.358	3580.7
722.545	3687.2
722.732	3631.9
722.919	3691.29
723.106	3771.16
723.293	3717.92
723.48	3691.29
723.667	3709.72
723.853	3760.92
724.04	3816.22
724.227	3736.35
724.414	3611.42
724.6	3795.74
724.787	3629.85
724.974	3832.6
725.161	3762.97
725.347	3709.72
725.534	3656.48
725.72	3799.84
725.907	3590.94
726.094	3621.66
726.28	3824.41
726.467	3728.16
726.653	3785.5
726.84	3783.45
727.027	3848.99
727.213	3810.08
727.4	3887.9
727.586	3875.61
727.773	3752.73
727.959	3805.98
728.145	3906.33
728.332	3867.42
728.518	3719.96
728.705	3701.53
728.891	3691.29
729.077	3756.83
729.264	3758.88
729.45	3894.04
729.636	4004.63
729.823	3855.13
730.009	3894.04
730.195	3894.04
730.382	3853.08
730.568	3793.69
730.754	3883.8
730.94	3875.61
731.126	3910.43
731.313	3836.7
731.499	3896.09
731.685	3928.86
731.871	3951.39
732.057	3820.32
732.243	3926.81
732.429	3855.13
732.615	4018.97
732.801	3803.93
732.987	3932.95
733.173	3799.84
733.359	3932.95
733.545	3916.57
733.731	3914.52
733.917	3808.03
734.103	3967.77
734.289	4012.82
734.475	3762.97
734.661	3992.34
734.847	3935
735.033	3982.1
735.219	3932.95
735.404	3881.75
735.59	3982.1
735.776	3846.94
735.962	3873.56
736.148	4082.46
736.333	4016.92
736.519	3805.98
736.705	4025.11
736.89	3846.94
737.076	3930.91
737.262	3822.36
737.447	3961.62
737.633	3857.18
737.819	3914.52
738.004	3922.71
738.19	3846.94
738.375	3797.79
738.561	3916.57
738.747	3805.98
738.932	3904.28
739.118	3801.88
739.303	3887.9
739.489	3912.47
739.674	3801.88
739.859	3873.56
740.045	3891.99
740.23	3904.28
740.416	3701.53
740.601	3941.15
740.786	3949.34
740.972	3896.09
741.157	3744.54
741.342	3756.83
741.528	3785.5
741.713	3726.11
741.898	3795.74
742.084	3713.82
742.269	3646.24
742.454	3613.47
742.639	3732.25
742.824	3695.39
743.01	3676.96
743.195	3674.91
743.38	3685.15
743.565	3699.48
743.75	3793.69
743.935	3623.71
744.12	3828.51
744.305	3619.61
744.49	3578.65
744.675	3631.9
744.86	3621.66
745.045	3607.33
745.23	3476.26
745.415	3595.04
745.6	3627.81
745.785	3498.78
745.97	3595.04
746.155	3484.45
746.34	3480.35
746.525	3427.11
746.71	3529.5
746.895	3425.06
747.079	3326.75
747.264	3263.27
747.449	3293.99
747.634	3482.4
747.819	3273.51
748.003	3240.74
748.188	3334.95
748.373	3336.99
748.557	3410.72
748.742	3304.23
748.927	3310.37
749.111	3222.31
749.296	3175.2
749.481	3101.48
749.665	3078.95
749.85	3040.04
750.034	3148.58
750.219	3058.47
750.404	3107.62
750.588	3081
750.773	3058.47
750.957	2966.31
751.141	2988.84
751.326	3109.67
751.51	2892.59
751.695	2966.31
751.879	2913.06
752.064	3044.13
752.248	2941.74
752.432	3068.71
752.617	2874.15
752.801	2837.29
752.985	2814.76
753.17	2870.06
753.354	2880.3
753.538	2765.61
753.722	2720.56
753.907	2648.88
754.091	2681.64
754.275	2726.7
754.459	2691.88
754.643	2612.01
754.828	2597.68
755.012	2650.92
755.196	2597.68
755.38	2648.88
755.564	2650.92
755.748	2462.51
755.932	2560.81
756.116	2458.42
756.3	2593.58
756.484	2546.48
756.668	2579.25
756.852	2429.74
757.036	2464.56
757.22	2399.02
757.404	2435.89
757.588	2374.45
757.772	2360.11
757.956	2405.17
758.14	2325.3
758.323	2372.4
758.507	2370.35
758.691	2288.43
758.875	2304.82
759.059	2259.76
759.242	2315.06
759.426	2231.09
759.61	2116.41
759.794	2272.05
759.977	2120.5
760.161	2300.72
760.345	2235.19
760.528	2149.17
760.712	2175.8
760.895	2159.41
761.079	2149.17
761.263	2067.25
761.446	2093.88
761.63	2140.98
761.813	2130.74
761.997	2118.45
762.18	1991.48
762.364	2040.63
762.547	1919.8
762.731	2091.83
762.914	2030.39
763.098	2016.05
763.281	2014.01
763.464	1952.57
763.648	1964.86
763.831	1997.62
764.015	1946.42
764.198	2009.91
764.381	2003.77
764.564	2016.05
764.748	1973.05
764.931	1907.51
765.114	1891.13
765.297	1944.38
765.481	1850.17
765.664	1932.09
765.847	1850.17
766.03	1921.85
766.213	1839.93
766.397	1780.54
766.58	1762.11
766.763	1844.03
766.946	1751.87
767.129	1653.56
767.312	1813.31
767.495	1772.35
767.678	1778.49
767.861	1846.07
768.044	1801.02
768.227	1774.39
768.41	1796.92
768.593	1743.67
768.776	1745.72
768.959	1735.48
769.142	1798.97
769.324	1672
769.507	1704.76
769.69	1583.93
769.873	1643.32
770.056	1641.28
770.239	1645.37
770.421	1637.18
770.604	1643.32
770.787	1590.08
770.97	1598.27
771.152	1506.11
771.335	1672
771.518	1467.2
771.7	1594.17
771.883	1585.98
772.066	1553.21
772.248	1499.97
772.431	1516.35
772.613	1475.39
772.796	1502.01
772.978	1532.73
773.161	1516.35
773.343	1436.48
773.526	1483.58
773.708	1454.91
773.891	1342.27
774.073	1422.14
774.256	1506.11
774.438	1493.82
774.621	1342.27
774.803	1416
774.985	1295.17
775.168	1332.03
775.35	1418.05
775.532	1352.51
775.715	1276.74
775.897	1303.36
776.079	1325.89
776.261	1391.42
776.444	1323.84
776.626	1334.08
776.808	1305.41
776.99	1225.54
777.173	1188.68
777.355	1243.97
777.537	1323.84
777.719	1196.87
777.901	1225.54
778.083	1272.64
778.265	1174.34
778.447	1233.73
778.629	1168.2
778.811	1186.63
778.993	1166.15
779.175	1203.01
779.357	1114.95
779.539	1149.76
779.721	1153.86
779.903	1102.66
780.085	1170.24
780.267	1139.52
780.449	1076.04
780.631	1110.85
780.812	1196.87
780.994	1016.65
781.176	1041.22
781.358	1035.08
781.54	1047.37
781.721	1004.36
781.903	1018.69
782.085	1039.17
782.267	967.49
782.448	1012.55
782.63	1067.85
782.812	996.17
782.993	934.73
783.175	953.16
783.357	930.63
783.538	879.43
783.72	867.14
783.901	877.38
784.083	920.39
784.264	1010.5
784.446	924.49
784.627	856.9
784.809	865.1
784.99	926.54
785.172	875.34
785.353	779.08
785.535	840.52
785.716	895.82
785.897	924.49
786.079	817.99
786.26	850.76
786.441	805.71
786.623	760.65
786.804	830.28
786.985	783.18
787.167	805.71
787.348	750.41
787.529	719.69
787.71	920.39
787.891	750.41
788.073	715.59
788.254	754.51
788.435	832.33
788.616	674.64
788.797	682.83
788.978	758.6
789.159	697.16
789.34	703.31
789.522	781.13
789.703	693.07
789.884	666.44
790.065	758.6
790.246	672.59
790.427	656.2
790.607	734.03
790.788	742.22
790.969	588.62
791.15	691.02
791.331	648.01
791.512	656.2
791.693	602.96
791.874	615.24
792.054	635.72
792.235	664.4
792.416	684.87
792.597	627.53
792.778	594.76
792.958	594.76
793.139	508.75
793.32	615.24
793.5	570.19
793.681	592.72
793.862	478.03
794.042	639.82
794.223	457.55
794.404	557.9
794.584	496.46
794.765	559.95
794.945	574.28
795.126	590.67
795.306	619.34
795.487	547.66
795.667	455.5
795.848	537.42
796.028	486.22
796.209	600.91
796.389	570.19
796.57	545.61
796.75	484.17
796.93	574.28
797.111	457.55
797.291	510.8
797.471	492.37
797.652	531.28
797.832	449.36
798.012	502.61
798.192	529.23
798.373	463.69
798.553	432.97
798.733	424.78
798.913	478.03
799.093	488.27
799.274	451.41
799.454	473.93
799.634	523.09
799.814	471.89
799.994	518.99
800.174	416.59
800.354	496.46
800.534	478.03
800.714	482.13
800.894	355.15
801.074	484.17
801.254	441.17
801.434	514.89
801.614	523.09
801.794	379.73
801.974	1117
802.154	457.55
802.334	461.65
802.514	371.54
802.693	455.5
802.873	424.78
803.053	463.69
803.233	363.34
803.413	336.72
803.592	375.63
803.772	369.49
803.952	381.78
804.131	346.96
804.311	447.31
804.491	373.58
804.67	373.58
804.85	389.97
805.03	365.39
805.209	457.55
805.389	441.17
805.568	340.82
805.748	310.1
805.928	316.24
806.107	379.73
806.287	435.02
806.466	408.4
806.646	353.1
806.825	379.73
807.004	420.69
807.184	398.16
807.363	424.78
807.543	394.06
807.722	299.86
807.901	410.45
808.081	392.02
808.26	349.01
808.439	314.19
808.619	328.53
808.798	299.86
808.977	324.43
809.156	385.87
809.336	416.59
809.515	408.4
809.694	262.99
809.873	379.73
810.052	310.1
810.231	420.69
810.411	375.63
810.59	404.3
810.769	306
810.948	297.81
811.127	303.95
811.306	349.01
811.485	326.48
811.664	308.05
811.843	297.81
812.022	387.92
812.201	267.09
812.38	365.39
812.559	295.76
812.737	344.91
812.916	271.19
813.095	269.14
813.274	293.71
813.453	289.62
813.632	246.61
813.811	281.43
813.989	232.27
814.168	355.15
814.347	189.27
814.526	291.66
814.704	334.67
814.883	340.82
815.062	215.89
815.24	312.14
815.419	256.85
815.598	320.34
815.776	228.18
815.955	254.8
816.133	209.75
816.312	215.89
816.49	187.22
816.669	277.33
816.847	244.56
817.026	254.8
817.204	240.47
817.383	148.31
817.561	154.45
817.74	224.08
817.918	250.71
818.097	238.42
818.275	170.83
818.453	277.33
818.632	238.42
818.81	174.93
818.988	265.04
819.167	250.71
819.345	209.75
819.523	275.28
819.701	211.79
819.879	187.22
820.058	146.26
820.236	285.52
820.414	232.27
820.592	140.12
820.77	176.98
820.948	140.12
821.127	211.79
821.305	176.98
821.483	187.22
821.661	320.34
821.839	222.03
822.017	232.27
822.195	207.7
822.373	205.65
822.551	201.55
822.729	166.74
822.907	211.79
823.085	170.83
823.262	283.47
823.44	129.88
823.618	252.75
823.796	205.65
823.974	156.5
824.152	193.36
824.329	199.51
824.507	138.07
824.685	277.33
824.863	232.27
825.04	193.36
825.218	224.08
825.396	242.51
825.574	203.6
825.751	140.12
825.929	232.27
826.107	131.92
826.284	191.31
826.462	170.83
826.639	119.64
826.817	187.22
826.994	113.49
827.172	125.78
827.349	209.75
827.527	176.98
827.704	107.35
827.882	119.64
828.059	195.41
828.237	158.55
828.414	160.59
828.591	197.46
828.769	158.55
828.946	154.45
829.124	201.55
829.301	172.88
829.478	217.94
829.655	197.46
829.833	131.92
830.01	152.4
830.187	154.45
830.364	168.79
830.542	136.02
830.719	215.89
830.896	158.55
831.073	86.87
831.25	140.12
831.427	162.64
831.604	156.5
831.782	168.79
831.959	166.74
832.136	140.12
832.313	187.22
832.49	119.64
832.667	215.89
832.844	111.44
833.021	154.45
833.198	156.5
833.374	125.78
833.551	164.69
833.728	54.1
833.905	197.46
834.082	93.01
834.259	197.46
834.436	168.79
834.612	152.4
834.789	150.36
834.966	121.68
835.143	117.59
835.319	109.4
835.496	103.25
835.673	172.88
835.85	179.03
836.026	115.54
836.203	205.65
836.38	127.83
836.556	164.69
836.733	150.36
836.909	162.64
837.086	170.83
837.262	140.12
837.439	142.16
837.616	88.92
837.792	86.87
837.968	213.84
838.145	90.96
838.321	97.11
838.498	76.63
838.674	193.36
838.851	97.11
839.027	95.06
839.203	146.26
839.38	156.5
839.556	105.3
839.732	146.26
839.909	72.53
840.085	127.83
840.261	39.76
840.437	125.78
840.614	105.3
840.79	121.68
840.966	131.92
841.142	95.06
841.318	119.64
841.494	136.02
841.671	95.06
841.847	93.01
842.023	29.52
842.199	183.12
842.375	25.43
842.551	21.33
842.727	97.11
842.903	113.49
843.079	72.53
843.255	156.5
843.431	115.54
843.607	115.54
843.783	23.38
843.959	119.64
844.134	111.44
844.31	111.44
844.486	117.59
844.662	45.91
844.838	164.69
845.013	99.16
845.189	111.44
845.365	138.07
845.541	56.15
845.716	109.4
845.892	127.83
846.068	62.29
846.244	31.57
846.419	76.63
846.595	70.48
846.77	7
846.946	109.4
847.122	52.05
847.297	68.44
847.473	31.57
847.648	37.72
847.824	170.83
847.999	-17.58
848.175	117.59
848.35	88.92
848.526	129.88
848.701	121.68
848.876	93.01
849.052	103.25
849.227	-1.19
849.403	101.2
849.578	84.82
849.753	68.44
849.929	90.96
850.104	-7.34
850.279	64.34
850.454	170.83
850.63	78.68
850.805	70.48
850.98	15.19
851.155	84.82
851.33	70.48
851.505	50
851.681	93.01
851.856	9.05
852.031	117.59
852.206	115.54
852.381	43.86
852.556	97.11
852.731	64.34
852.906	66.39
853.081	109.4
853.256	97.11
853.431	107.35
853.606	27.48
853.781	45.91
853.956	64.34
854.131	80.72
854.305	76.63
854.48	82.77
854.655	33.62
854.83	84.82
855.005	78.68
855.18	39.76
855.354	27.48
855.529	74.58
855.704	70.48
855.879	95.06
856.053	-9.39
856.228	86.87
856.403	35.67
856.577	97.11
856.752	-27.82
856.926	7
857.101	64.34
857.276	35.67
857.45	203.6
857.625	109.4
857.799	52.05
857.974	93.01
858.148	45.91
858.323	60.24
858.497	111.44
858.672	50
858.846	-23.72
859.02	72.53
859.195	15.19
859.369	93.01
859.543	131.92
859.718	76.63
859.892	45.91
860.066	68.44
860.241	90.96
860.415	-13.48
860.589	66.39
860.763	64.34
860.938	52.05
861.112	35.67
861.286	15.19
861.46	25.43
861.634	43.86
861.808	86.87
861.982	23.38
862.157	29.52
862.331	78.68
862.505	7
862.679	15.19
862.853	29.52
863.027	41.81
863.201	101.2
863.375	-11.43
863.549	95.06
863.722	62.29
863.896	150.36
864.07	17.24
864.244	62.29
864.418	131.92
864.592	76.63
864.766	21.33
864.939	93.01
865.113	-23.72
865.287	107.35
865.461	15.19
865.634	121.68
865.808	23.38
865.982	90.96
866.156	-7.34
866.329	-48.3
866.503	-11.43
866.676	43.86
866.85	72.53
867.024	7
867.197	4.95
867.371	33.62
867.544	39.76
867.718	-11.43
867.891	43.86
868.065	19.29
868.238	9.05
868.412	66.39
868.585	-3.24
868.759	54.1
868.932	2.9
869.105	45.91
869.279	-13.48
869.452	39.76
869.625	88.92
869.799	80.72
869.972	-33.96
870.145	54.1
870.319	84.82
870.492	2.9
870.665	52.05
870.838	27.48
871.011	-15.53
871.185	23.38
871.358	113.49
871.531	74.58
871.704	-29.87
871.877	111.44
872.05	72.53
872.223	-40.11
872.396	97.11
872.569	107.35
872.742	-25.77
872.915	39.76
873.088	45.91
873.261	-23.72
873.434	23.38
873.607	19.29
873.78	95.06
873.953	60.24
874.126	101.2
874.299	15.19
874.471	21.33
874.644	27.48
874.817	47.96
874.99	41.81
875.163	-44.2
875.335	66.39
875.508	-52.39
875.681	133.97
875.853	-9.39
876.026	-21.67
876.199	52.05
876.371	56.15
876.544	50
876.717	76.63
876.889	-13.48
877.062	84.82
877.234	0.85
877.407	45.91
877.579	4.95
877.752	66.39
877.924	21.33
878.097	60.24
878.269	4.95
878.442	-9.39
878.614	-9.39
878.786	41.81
878.959	13.14
879.131	78.68
879.303	-81.07
879.476	95.06
879.648	35.67
879.82	62.29
879.993	4.95
880.165	-54.44
880.337	23.38
880.509	27.48
880.681	25.43
880.854	0.85
881.026	15.19
881.198	72.53
881.37	62.29
881.542	2.9
881.714	25.43
881.886	86.87
882.058	27.48
882.23	31.57
882.402	15.19
882.574	84.82
882.746	23.38
882.918	58.2
883.09	29.52
883.262	9.05
883.434	-42.15
883.606	-44.2
883.778	23.38
883.95	41.81
884.122	11.09
884.293	43.86
884.465	17.24
884.637	45.91
884.809	-48.3
884.98	76.63
885.152	25.43
885.324	52.05
885.496	-27.82
885.667	31.57
885.839	31.57
886.011	76.63
886.182	-19.63
886.354	56.15
886.525	11.09
886.697	88.92
886.869	-64.68
887.04	50
887.212	54.1
887.383	72.53
887.555	-1.19
887.726	-27.82
887.897	-74.92
888.069	41.81
888.24	84.82
888.412	68.44
888.583	-15.53
888.754	74.58
888.926	-11.43
889.097	23.38
889.268	29.52
889.44	47.96
889.611	-97.45
889.782	-9.39
889.953	41.81
890.125	56.15
890.296	27.48
890.467	41.81
890.638	13.14
890.809	41.81
890.98	-27.82
891.151	-3.24
891.323	35.67
891.494	35.67
891.665	15.19
891.836	19.29
892.007	11.09
892.178	-27.82
892.349	45.91
892.52	93.01
892.691	66.39
892.862	52.05
893.032	-27.82
893.203	60.24
893.374	58.2
893.545	86.87
893.716	25.43
893.887	97.11
894.057	47.96
894.228	43.86
894.399	41.81
894.57	72.53
894.74	17.24
894.911	0.85
895.082	62.29
895.253	-60.59
895.423	-38.06
895.594	13.14
895.764	37.72
895.935	47.96
896.106	76.63
896.276	64.34
896.447	25.43
896.617	33.62
896.788	-27.82
896.958	25.43
897.129	39.76
897.299	-1.19
897.47	64.34
897.64	29.52
897.81	13.14
897.981	74.58
898.151	-56.49
898.322	23.38
898.492	35.67
898.662	-31.91
898.832	11.09
899.003	-7.34
899.173	54.1
899.343	7
899.513	9.05
