Data from USB4F104151__17__12-23-26-823.txt Node

Date: Fri Mar 14 12:23:26 EDT 2025
User: louis
Spectrometer: USB4F10415
Trigger mode: 4
Integration Time (sec): 3.500000E-2
Scans to average: 1
Electric dark correction enabled: true
Nonlinearity correction enabled: false
Boxcar width: 0
XAxis mode: Wavelengths
Number of Pixels in Spectrum: 3648
>>>>>Begin Spectral Data<<<<<
178.204	-141.65
178.424	-141.65
178.644	-141.65
178.864	-180.56
179.084	-108.88
179.304	-41.3
179.524	30.38
179.744	59.05
179.964	40.62
180.184	18.09
180.404	5.8
180.624	-39.25
180.844	-31.06
181.064	-6.49
181.283	-6.49
181.503	-18.77
181.723	-10.58
181.943	-72.02
182.163	42.67
182.383	-92.5
182.602	57
182.822	-2.39
183.042	-2.39
183.262	5.8
183.482	16.04
183.701	57
183.921	9.9
184.141	20.14
184.361	18.09
184.58	93.87
184.8	28.33
185.02	11.95
185.239	77.48
185.459	24.23
185.679	38.57
185.898	-37.2
186.118	48.81
186.338	11.95
186.557	3.75
186.777	-22.87
186.997	-0.34
187.216	16.04
187.436	18.09
187.655	126.63
187.875	95.91
188.095	-6.49
188.314	75.43
188.534	-0.34
188.753	46.76
188.973	1.71
189.192	-0.34
189.412	11.95
189.631	-10.58
189.851	30.38
190.07	46.76
190.29	-24.92
190.509	-6.49
190.729	40.62
190.948	-10.58
191.168	190.12
191.387	108.2
191.607	-53.59
191.826	59.05
192.045	104.11
192.265	-45.4
192.484	-24.92
192.704	26.28
192.923	-2.39
193.142	77.48
193.362	-6.49
193.581	40.62
193.8	9.9
194.02	26.28
194.239	16.04
194.458	48.81
194.678	3.75
194.897	-49.49
195.116	38.57
195.335	30.38
195.555	-29.01
195.774	-4.44
195.993	100.01
196.212	-8.53
196.432	52.91
196.651	-20.82
196.87	-20.82
197.089	161.45
197.308	52.91
197.528	38.57
197.747	9.9
197.966	44.71
198.185	89.77
198.404	7.85
198.623	1.71
198.842	30.38
199.062	20.14
199.281	54.95
199.5	-12.63
199.719	30.38
199.938	-24.92
200.157	-16.73
200.376	40.62
200.595	-31.06
200.814	93.87
201.033	54.95
201.252	13.99
201.471	16.04
201.69	50.86
201.909	32.43
202.128	73.39
202.347	87.72
202.566	40.62
202.785	28.33
203.004	18.09
203.223	52.91
203.442	30.38
203.661	-24.92
203.879	-33.11
204.098	13.99
204.317	-29.01
204.536	16.04
204.755	44.71
204.974	67.24
205.193	3.75
205.411	22.19
205.63	40.62
205.849	11.95
206.068	-88.4
206.287	-37.2
206.505	87.72
206.724	-16.73
206.943	-45.4
207.162	-12.63
207.381	20.14
207.599	13.99
207.818	50.86
208.037	-31.06
208.255	-26.96
208.474	-20.82
208.693	38.57
208.911	-10.58
209.13	11.95
209.349	91.82
209.567	-26.96
209.786	50.86
210.005	18.09
210.223	-4.44
210.442	3.75
210.661	-16.73
210.879	1.71
211.098	5.8
211.316	18.09
211.535	61.1
211.753	1.71
211.972	1.71
212.191	32.43
212.409	9.9
212.628	40.62
212.846	-26.96
213.065	-0.34
213.283	-29.01
213.502	-51.54
213.72	-14.68
213.938	22.19
214.157	30.38
214.375	57
214.594	-18.77
214.812	-10.58
215.031	-49.49
215.249	9.9
215.467	-63.83
215.686	16.04
215.904	89.77
216.122	28.33
216.341	75.43
216.559	13.99
216.778	63.15
216.996	28.33
217.214	1.71
217.432	24.23
217.651	-18.77
217.869	73.39
218.087	-4.44
218.306	-22.87
218.524	3.75
218.742	24.23
218.96	67.24
219.179	26.28
219.397	-31.06
219.615	59.05
219.833	20.14
220.051	-63.83
220.27	75.43
220.488	-47.44
220.706	-4.44
220.924	-4.44
221.142	-6.49
221.36	-16.73
221.578	50.86
221.796	-16.73
222.015	24.23
222.233	18.09
222.451	38.57
222.669	-31.06
222.887	30.38
223.105	16.04
223.323	40.62
223.541	3.75
223.759	1.71
223.977	-47.44
224.195	-2.39
224.413	3.75
224.631	52.91
224.849	38.57
225.067	186.02
225.285	-47.44
225.503	22.19
225.721	-78.16
225.939	7.85
226.157	11.95
226.375	95.91
226.592	-2.39
226.81	42.67
227.028	20.14
227.246	-0.34
227.464	59.05
227.682	69.29
227.9	28.33
228.117	-4.44
228.335	44.71
228.553	59.05
228.771	65.19
228.989	63.15
229.206	57
229.424	3.75
229.642	-24.92
229.86	-37.2
230.077	44.71
230.295	9.9
230.513	28.33
230.731	-22.87
230.948	13.99
231.166	69.29
231.384	3.75
231.601	-31.06
231.819	36.52
232.037	-29.01
232.254	-49.49
232.472	22.19
232.689	-26.96
232.907	-24.92
233.125	-29.01
233.342	13.99
233.56	40.62
233.777	-0.34
233.995	46.76
234.213	24.23
234.43	-6.49
234.648	48.81
234.865	57
235.083	30.38
235.3	24.23
235.518	44.71
235.735	61.1
235.953	67.24
236.17	-10.58
236.388	46.76
236.605	-10.58
236.822	91.82
237.04	34.47
237.257	28.33
237.475	32.43
237.692	48.81
237.909	81.58
238.127	-8.53
238.344	59.05
238.562	50.86
238.779	-12.63
238.996	-8.53
239.214	-33.11
239.431	11.95
239.648	13.99
239.865	44.71
240.083	30.38
240.3	54.95
240.517	28.33
240.735	5.8
240.952	73.39
241.169	63.15
241.386	-84.31
241.603	26.28
241.821	-86.36
242.038	46.76
242.255	24.23
242.472	-33.11
242.689	57
242.907	57
243.124	-16.73
243.341	-43.35
243.558	3.75
243.775	-51.54
243.992	-43.35
244.209	-67.92
244.426	118.44
244.643	18.09
244.86	9.9
245.078	79.53
245.295	50.86
245.512	1.71
245.729	36.52
245.946	59.05
246.163	97.96
246.38	5.8
246.597	38.57
246.814	69.29
247.031	44.71
247.248	24.23
247.464	-10.58
247.681	42.67
247.898	-24.92
248.115	18.09
248.332	-12.63
248.549	110.25
248.766	77.48
248.983	50.86
249.2	5.8
249.417	44.71
249.633	36.52
249.85	22.19
250.067	20.14
250.284	50.86
250.501	28.33
250.717	7.85
250.934	-4.44
251.151	9.9
251.368	-45.4
251.585	36.52
251.801	3.75
252.018	-49.49
252.235	-0.34
252.451	-14.68
252.668	16.04
252.885	26.28
253.102	-6.49
253.318	-4.44
253.535	-29.01
253.752	73.39
253.968	-31.06
254.185	-33.11
254.401	24.23
254.618	20.14
254.835	-8.53
255.051	-14.68
255.268	67.24
255.484	48.81
255.701	-6.49
255.917	1.71
256.134	-22.87
256.351	38.57
256.567	-10.58
256.784	-53.59
257	-80.21
257.217	71.34
257.433	7.85
257.65	3.75
257.866	18.09
258.082	-39.25
258.299	-63.83
258.515	63.15
258.732	-4.44
258.948	-37.2
259.165	-24.92
259.381	48.81
259.597	32.43
259.814	18.09
260.03	28.33
260.246	3.75
260.463	87.72
260.679	13.99
260.895	20.14
261.112	42.67
261.328	-0.34
261.544	20.14
261.761	108.2
261.977	69.29
262.193	-18.77
262.409	97.96
262.626	112.3
262.842	22.19
263.058	7.85
263.274	-0.34
263.49	18.09
263.707	50.86
263.923	81.58
264.139	1.71
264.355	-12.63
264.571	87.72
264.787	44.71
265.004	44.71
265.22	-20.82
265.436	9.9
265.652	28.33
265.868	57
266.084	13.99
266.3	77.48
266.516	-22.87
266.732	16.04
266.948	32.43
267.164	22.19
267.38	-47.44
267.596	54.95
267.812	61.1
268.028	1.71
268.244	-69.97
268.46	9.9
268.676	93.87
268.892	48.81
269.108	3.75
269.324	-94.55
269.54	-45.4
269.756	59.05
269.972	16.04
270.188	22.19
270.403	69.29
270.619	-37.2
270.835	38.57
271.051	38.57
271.267	28.33
271.483	7.85
271.698	50.86
271.914	-0.34
272.13	34.47
272.346	22.19
272.562	16.04
272.777	18.09
272.993	-16.73
273.209	48.81
273.425	85.67
273.64	-31.06
273.856	-0.34
274.072	-4.44
274.287	-61.78
274.503	108.2
274.719	20.14
274.934	3.75
275.15	-4.44
275.366	34.47
275.581	-41.3
275.797	46.76
276.012	57
276.228	-74.07
276.444	-18.77
276.659	75.43
276.875	57
277.09	11.95
277.306	-16.73
277.521	-16.73
277.737	50.86
277.952	42.67
278.168	26.28
278.383	-10.58
278.599	7.85
278.814	30.38
279.03	54.95
279.245	161.45
279.461	48.81
279.676	104.11
279.892	-20.82
280.107	-20.82
280.322	-45.4
280.538	36.52
280.753	38.57
280.969	77.48
281.184	-26.96
281.399	54.95
281.615	-6.49
281.83	36.52
282.045	-106.84
282.26	-4.44
282.476	3.75
282.691	65.19
282.906	46.76
283.122	-0.34
283.337	48.81
283.552	-6.49
283.767	24.23
283.983	71.34
284.198	-69.97
284.413	87.72
284.628	36.52
284.843	3.75
285.058	-18.77
285.274	13.99
285.489	20.14
285.704	85.67
285.919	-12.63
286.134	-12.63
286.349	-22.87
286.564	-22.87
286.779	112.3
286.995	-24.92
287.21	-12.63
287.425	-16.73
287.64	-16.73
287.855	-4.44
288.07	59.05
288.285	73.39
288.5	52.91
288.715	-4.44
288.93	46.76
289.145	26.28
289.36	69.29
289.575	22.19
289.79	57
290.004	3.75
290.219	-12.63
290.434	-6.49
290.649	-84.31
290.864	-20.82
291.079	40.62
291.294	28.33
291.509	7.85
291.724	-53.59
291.938	-65.88
292.153	48.81
292.368	-39.25
292.583	9.9
292.798	5.8
293.012	5.8
293.227	32.43
293.442	3.75
293.657	65.19
293.871	30.38
294.086	9.9
294.301	42.67
294.516	18.09
294.73	65.19
294.945	30.38
295.16	59.05
295.374	26.28
295.589	28.33
295.804	81.58
296.018	52.91
296.233	75.43
296.447	108.2
296.662	-6.49
296.877	9.9
297.091	73.39
297.306	5.8
297.52	22.19
297.735	-53.59
297.949	59.05
298.164	57
298.378	-8.53
298.593	-45.4
298.807	36.52
299.022	-69.97
299.236	73.39
299.451	38.57
299.665	32.43
299.88	-22.87
300.094	44.71
300.309	-45.4
300.523	46.76
300.737	7.85
300.952	-2.39
301.166	28.33
301.381	-63.83
301.595	26.28
301.809	13.99
302.024	48.81
302.238	-4.44
302.452	42.67
302.667	20.14
302.881	30.38
303.095	-8.53
303.309	81.58
303.524	36.52
303.738	11.95
303.952	-22.87
304.166	28.33
304.381	5.8
304.595	46.76
304.809	-10.58
305.023	22.19
305.237	44.71
305.452	3.75
305.666	11.95
305.88	59.05
306.094	26.28
306.308	44.71
306.522	5.8
306.736	52.91
306.95	38.57
307.164	-24.92
307.379	-35.16
307.593	83.63
307.807	32.43
308.021	9.9
308.235	-29.01
308.449	-2.39
308.663	-18.77
308.877	75.43
309.091	-29.01
309.305	11.95
309.519	-43.35
309.733	44.71
309.947	32.43
310.161	40.62
310.374	57
310.588	40.62
310.802	40.62
311.016	-61.78
311.23	13.99
311.444	-26.96
311.658	-37.2
311.872	65.19
312.085	81.58
312.299	61.1
312.513	48.81
312.727	54.95
312.941	32.43
313.154	-49.49
313.368	-20.82
313.582	-37.2
313.796	20.14
314.009	-35.16
314.223	54.95
314.437	9.9
314.651	32.43
314.864	-10.58
315.078	9.9
315.292	63.15
315.505	-53.59
315.719	65.19
315.933	-4.44
316.146	13.99
316.36	-26.96
316.573	9.9
316.787	-12.63
317.001	140.97
317.214	-2.39
317.428	85.67
317.641	83.63
317.855	20.14
318.068	97.96
318.282	-47.44
318.495	124.58
318.709	-2.39
318.922	-35.16
319.136	108.2
319.349	61.1
319.563	11.95
319.776	69.29
319.99	57
320.203	65.19
320.417	-24.92
320.63	46.76
320.843	93.87
321.057	65.19
321.27	-12.63
321.483	69.29
321.697	114.34
321.91	26.28
322.124	24.23
322.337	11.95
322.55	-47.44
322.763	26.28
322.977	34.47
323.19	13.99
323.403	-6.49
323.617	26.28
323.83	50.86
324.043	-8.53
324.256	26.28
324.469	81.58
324.683	13.99
324.896	48.81
325.109	-12.63
325.322	-35.16
325.535	77.48
325.748	32.43
325.962	-22.87
326.175	22.19
326.388	-14.68
326.601	-12.63
326.814	32.43
327.027	3.75
327.24	79.53
327.453	-10.58
327.666	28.33
327.879	48.81
328.092	50.86
328.305	24.23
328.518	34.47
328.731	-8.53
328.944	54.95
329.157	-6.49
329.37	-26.96
329.583	26.28
329.796	20.14
330.009	-63.83
330.222	54.95
330.435	46.76
330.648	-37.2
330.861	1.71
331.073	73.39
331.286	-22.87
331.499	9.9
331.712	7.85
331.925	20.14
332.138	-12.63
332.35	83.63
332.563	-6.49
332.776	48.81
332.989	-18.77
333.202	18.09
333.414	9.9
333.627	73.39
333.84	-8.53
334.053	59.05
334.265	7.85
334.478	-6.49
334.691	38.57
334.903	81.58
335.116	9.9
335.329	42.67
335.541	-16.73
335.754	120.49
335.966	-45.4
336.179	-14.68
336.392	28.33
336.604	50.86
336.817	5.8
337.029	42.67
337.242	28.33
337.454	-20.82
337.667	-35.16
337.88	-2.39
338.092	32.43
338.305	65.19
338.517	-39.25
338.729	18.09
338.942	-18.77
339.154	11.95
339.367	-49.49
339.579	52.91
339.792	20.14
340.004	65.19
340.217	16.04
340.429	22.19
340.641	-39.25
340.854	3.75
341.066	9.9
341.278	128.68
341.491	79.53
341.703	20.14
341.915	-63.83
342.128	26.28
342.34	-14.68
342.552	13.99
342.764	32.43
342.977	13.99
343.189	102.06
343.401	34.47
343.613	-61.78
343.826	9.9
344.038	-31.06
344.25	-24.92
344.462	44.71
344.674	30.38
344.886	-12.63
345.099	5.8
345.311	61.1
345.523	-0.34
345.735	-33.11
345.947	11.95
346.159	1.71
346.371	44.71
346.583	-8.53
346.795	102.06
347.007	30.38
347.219	13.99
347.431	-24.92
347.643	102.06
347.855	38.57
348.067	48.81
348.279	20.14
348.491	38.57
348.703	36.52
348.915	32.43
349.127	28.33
349.339	-16.73
349.551	-6.49
349.763	63.15
349.975	-33.11
350.187	69.29
350.399	50.86
350.61	75.43
350.822	28.33
351.034	-24.92
351.246	26.28
351.458	75.43
351.669	75.43
351.881	-16.73
352.093	81.58
352.305	44.71
352.517	87.72
352.728	22.19
352.94	44.71
353.152	59.05
353.363	24.23
353.575	46.76
353.787	126.63
353.999	69.29
354.21	38.57
354.422	32.43
354.633	67.24
354.845	7.85
355.057	36.52
355.268	48.81
355.48	24.23
355.692	73.39
355.903	-10.58
356.115	34.47
356.326	-49.49
356.538	-22.87
356.749	48.81
356.961	26.28
357.172	20.14
357.384	16.04
357.595	67.24
357.807	46.76
358.018	-16.73
358.23	44.71
358.441	36.52
358.653	11.95
358.864	42.67
359.075	-53.59
359.287	-0.34
359.498	46.76
359.709	26.28
359.921	16.04
360.132	65.19
360.344	-20.82
360.555	13.99
360.766	7.85
360.977	48.81
361.189	40.62
361.4	65.19
361.611	-6.49
361.823	73.39
362.034	26.28
362.245	-24.92
362.456	-41.3
362.667	20.14
362.879	75.43
363.09	-29.01
363.301	28.33
363.512	-39.25
363.723	-39.25
363.935	-16.73
364.146	75.43
364.357	52.91
364.568	-6.49
364.779	54.95
364.99	116.39
365.201	-4.44
365.412	59.05
365.623	-59.73
365.834	30.38
366.045	71.34
366.256	28.33
366.467	11.95
366.678	-10.58
366.889	26.28
367.1	11.95
367.311	13.99
367.522	85.67
367.733	13.99
367.944	63.15
368.155	-31.06
368.366	26.28
368.577	-14.68
368.788	38.57
368.999	-22.87
369.209	44.71
369.42	81.58
369.631	116.39
369.842	46.76
370.053	1.71
370.264	48.81
370.474	9.9
370.685	61.1
370.896	28.33
371.107	18.09
371.317	126.63
371.528	-33.11
371.739	87.72
371.95	-2.39
372.16	-6.49
372.371	-0.34
372.582	52.91
372.792	79.53
373.003	46.76
373.214	5.8
373.424	9.9
373.635	-61.78
373.846	42.67
374.056	46.76
374.267	42.67
374.477	-47.44
374.688	22.19
374.898	48.81
375.109	20.14
375.319	9.9
375.53	79.53
375.74	16.04
375.951	24.23
376.161	13.99
376.372	1.71
376.582	36.52
376.793	11.95
377.003	54.95
377.214	52.91
377.424	57
377.635	-6.49
377.845	44.71
378.055	13.99
378.266	40.62
378.476	22.19
378.686	30.38
378.897	-10.58
379.107	34.47
379.317	28.33
379.528	-29.01
379.738	57
379.948	-8.53
380.158	-16.73
380.369	20.14
380.579	34.47
380.789	-31.06
380.999	34.47
381.21	87.72
381.42	102.06
381.63	9.9
381.84	65.19
382.05	85.67
382.261	52.91
382.471	54.95
382.681	48.81
382.891	67.24
383.101	71.34
383.311	-20.82
383.521	-8.53
383.731	122.54
383.941	52.91
384.151	13.99
384.361	-51.54
384.571	50.86
384.781	24.23
384.991	79.53
385.201	48.81
385.411	97.96
385.621	91.82
385.831	11.95
386.041	20.14
386.251	-0.34
386.461	91.82
386.671	63.15
386.881	65.19
387.091	-8.53
387.301	46.76
387.511	28.33
387.72	147.11
387.93	-0.34
388.14	20.14
388.35	61.1
388.56	65.19
388.769	28.33
388.979	52.91
389.189	24.23
389.399	18.09
389.609	46.76
389.818	20.14
390.028	61.1
390.238	44.71
390.447	-18.77
390.657	69.29
390.867	50.86
391.076	20.14
391.286	59.05
391.496	22.19
391.705	46.76
391.915	34.47
392.125	36.52
392.334	54.95
392.544	93.87
392.753	46.76
392.963	28.33
393.172	54.95
393.382	32.43
393.591	69.29
393.801	77.48
394.01	36.52
394.22	50.86
394.429	20.14
394.639	57
394.848	46.76
395.058	91.82
395.267	50.86
395.477	24.23
395.686	71.34
395.895	120.49
396.105	100.01
396.314	75.43
396.524	20.14
396.733	75.43
396.942	102.06
397.152	13.99
397.361	132.78
397.57	11.95
397.78	83.63
397.989	114.34
398.198	50.86
398.407	48.81
398.617	13.99
398.826	97.96
399.035	124.58
399.244	73.39
399.453	-35.16
399.663	100.01
399.872	100.01
400.081	16.04
400.29	93.87
400.499	13.99
400.708	116.39
400.917	50.86
401.127	77.48
401.336	52.91
401.545	124.58
401.754	132.78
401.963	145.06
402.172	63.15
402.381	81.58
402.59	30.38
402.799	52.91
403.008	138.92
403.217	-29.01
403.426	155.3
403.635	26.28
403.844	26.28
404.053	52.91
404.262	97.96
404.471	110.25
404.68	50.86
404.888	163.5
405.097	136.87
405.306	91.82
405.515	126.63
405.724	118.44
405.933	151.21
406.142	149.16
406.35	161.45
406.559	122.54
406.768	91.82
406.977	159.4
407.185	151.21
407.394	171.69
407.603	120.49
407.812	104.11
408.02	186.02
408.229	102.06
408.438	186.02
408.646	63.15
408.855	116.39
409.064	85.67
409.272	181.93
409.481	183.98
409.69	183.98
409.898	165.54
410.107	241.32
410.315	194.22
410.524	108.2
410.733	239.27
410.941	163.5
411.15	241.32
411.358	296.61
411.567	272.04
411.775	282.28
411.984	308.9
412.192	235.18
412.401	216.74
412.609	315.05
412.818	388.77
413.026	419.49
413.234	380.58
413.443	347.81
413.651	335.53
413.86	323.24
414.068	403.11
414.276	366.25
414.485	335.53
414.693	425.64
414.901	435.88
415.11	409.25
415.318	439.97
415.526	466.6
415.734	521.89
415.943	564.9
416.151	620.19
416.359	491.17
416.567	585.38
416.776	589.47
416.984	626.34
417.192	663.2
417.4	591.52
417.608	646.82
417.817	689.82
418.025	687.78
418.233	753.31
418.441	736.93
418.649	755.36
418.857	763.55
419.065	855.71
419.273	798.37
419.481	788.13
419.689	935.58
419.897	974.49
420.105	970.4
420.313	1091.23
420.521	1105.56
420.729	1177.24
420.937	988.83
421.145	1105.56
421.353	1160.86
421.561	1236.63
421.769	1240.73
421.977	1314.45
422.185	1394.33
422.393	1369.75
422.601	1463.96
422.809	1494.68
423.017	1531.54
423.224	1472.15
423.432	1635.99
423.64	1562.26
423.848	1818.25
424.056	1742.48
424.263	1896.08
424.471	1920.65
424.679	1867.41
424.887	2010.76
425.094	2141.83
425.302	2139.79
425.51	2176.65
425.718	2219.66
425.925	2305.67
426.133	2317.96
426.341	2414.21
426.548	2561.67
426.756	2477.7
426.964	2494.08
427.171	2799.23
427.379	2879.1
427.586	2936.45
427.794	3036.8
428.001	3112.57
428.209	3266.17
428.417	3241.59
428.624	3460.73
428.832	3436.15
429.039	3360.38
429.247	3532.4
429.454	3722.87
429.662	3851.89
429.869	3604.08
430.076	4019.82
430.284	3772.02
430.491	4011.63
430.699	4171.37
430.906	4331.11
431.114	4314.73
431.321	4449.89
431.528	4574.82
431.736	4757.09
431.943	5064.29
432.15	4906.59
432.358	4910.69
432.565	5328.47
432.772	5326.43
432.979	5449.3
433.187	5492.31
433.394	5725.78
433.601	5875.28
433.808	6069.84
434.016	5989.97
434.223	6223.44
434.43	6762.05
434.637	6569.54
434.844	6995.52
435.052	7093.82
435.259	7054.91
435.466	7108.16
435.673	7034.43
435.88	7487.03
436.087	7722.55
436.294	7865.91
436.501	7644.73
436.708	7740.98
436.915	8097.33
437.122	8594.98
437.329	8529.45
437.537	8818.21
437.743	8740.39
437.95	8865.32
438.157	9391.64
438.364	9539.1
438.571	9383.45
438.778	9823.76
438.985	10460.68
439.192	10116.62
439.399	10456.59
439.606	10343.95
439.813	10952.2
440.02	11458.04
440.227	11427.32
440.433	11132.42
440.64	11652.6
440.847	11533.82
441.054	11806.2
441.261	12240.37
441.467	12336.62
441.674	12764.65
441.881	13043.17
442.088	13043.17
442.294	12981.73
442.501	13340.13
442.708	13639.13
442.914	14056.92
443.121	14570.96
443.328	14312.91
443.534	15257.03
443.741	14824.9
443.948	14837.19
444.154	15584.7
444.361	15769.02
444.568	15865.27
444.774	15748.54
444.981	15949.24
445.187	16768.43
445.394	17276.32
445.6	17110.44
445.807	18601.36
446.013	17690.01
446.22	18079.13
446.426	18976.14
446.633	18976.14
446.839	19709.31
447.046	18931.08
447.252	19766.65
447.459	19821.95
447.665	20168.05
447.871	20960.62
448.078	21742.94
448.284	20845.93
448.491	21091.69
448.697	21923.16
448.903	22412.63
449.11	22361.43
449.316	22310.23
449.522	22740.3
449.728	23078.22
449.935	23483.72
450.141	23430.47
450.347	23631.17
450.553	23151.95
450.76	23403.85
450.966	24030.52
451.172	23586.11
451.378	24538.42
451.584	24149.31
451.791	24606
451.997	24567.09
452.203	25085.23
452.409	24737.07
452.615	24511.8
452.821	23846.21
453.027	23467.33
453.233	25025.84
453.44	23954.75
453.646	23967.04
453.852	24257.85
454.058	24585.52
454.264	23967.04
454.47	24415.54
454.676	23745.86
454.882	24792.37
455.088	22627.67
455.294	23041.36
455.5	23043.4
455.705	23252.3
455.911	22220.12
456.117	22009.18
456.323	21788
456.529	20477.3
456.735	21224.81
456.941	20694.38
457.147	20376.95
457.352	19770.75
457.558	19383.68
457.764	19682.69
457.97	19164.55
458.176	18681.23
458.381	18709.9
458.587	17712.54
458.793	17857.95
458.999	17036.71
459.204	18171.29
459.41	17593.76
459.616	16371.12
459.821	16352.69
460.027	16412.08
460.233	16006.58
460.438	15224.26
460.644	15500.73
460.85	14812.62
461.055	14312.91
461.261	14314.96
461.466	13368.8
461.672	12748.26
461.878	13845.98
462.083	12824.04
462.289	12678.63
462.494	12766.7
462.7	12133.87
462.905	11613.69
463.111	12119.54
463.316	12109.3
463.522	11951.6
463.727	12049.91
463.932	11906.55
464.138	11785.72
464.343	11765.24
464.549	11488.76
464.754	11808.25
464.959	11724.28
465.165	11544.06
465.37	11234.82
465.575	11144.7
465.781	11470.33
465.986	11212.29
466.191	11023.87
466.397	10763.78
466.602	10190.35
466.807	10563.08
467.012	10710.54
467.218	10620.42
467.423	10593.8
467.628	10577.42
467.833	10999.3
468.038	10489.35
468.244	10352.14
468.449	10726.92
468.654	10507.79
468.859	10229.26
469.064	10128.91
469.269	9815.57
469.474	9979.41
469.679	10409.48
469.885	9838.1
470.09	9950.74
470.295	9700.89
470.5	9616.92
470.705	9612.82
470.91	9489.95
471.115	9328.16
471.32	9399.84
471.525	9592.34
471.73	9272.86
471.935	9137.7
472.139	8752.68
472.344	9018.91
472.549	8859.17
472.754	9029.15
472.959	8699.43
473.164	8554.02
473.369	8169.01
473.574	8605.22
473.778	8601.13
473.983	8480.3
474.188	8392.23
474.393	8101.42
474.598	7972.4
474.802	8074.8
475.007	8019.5
475.212	8105.52
475.417	7788.08
475.621	7706.17
475.826	7659.06
476.031	7618.1
476.235	7376.44
476.44	7433.79
476.645	7495.22
476.849	7333.43
477.054	7272
477.259	7218.75
477.463	7079.49
477.668	6932.03
477.872	7147.07
478.077	6827.59
478.282	6962.75
478.486	7005.76
478.691	6602.31
478.895	6848.07
479.1	6569.54
479.304	6612.55
479.509	6385.23
479.713	6688.32
479.918	6456.9
480.122	6456.9
480.326	6506.06
480.531	6352.46
480.735	6372.94
480.94	6377.03
481.144	6700.61
481.348	6180.43
481.553	6313.55
481.757	6145.61
481.961	6245.96
482.166	6268.49
482.37	6305.35
482.574	6145.61
482.778	6061.65
482.983	6245.96
483.187	6149.71
483.391	6205
483.595	6264.4
483.8	6168.14
484.004	6159.95
484.208	6231.63
484.412	6194.76
484.616	5989.97
484.821	6196.81
485.025	6221.39
485.229	6262.35
485.433	6166.09
485.637	6145.61
485.841	6026.83
486.045	6264.4
486.249	6170.19
486.453	6053.45
486.657	6274.63
486.861	6157.9
487.065	6145.61
487.269	6450.76
487.473	6088.27
487.677	6045.26
487.881	6301.26
488.085	6137.42
488.289	6274.63
488.493	6082.13
488.697	6307.4
488.901	6354.51
489.105	6227.53
489.309	6235.72
489.512	6356.55
489.716	6071.89
489.92	6186.57
490.124	6241.87
490.328	6372.94
490.531	6268.49
490.735	6483.53
490.939	6352.46
491.143	6250.06
491.346	6395.47
491.55	6399.56
491.754	6463.05
491.958	6532.68
492.161	6446.66
492.365	6596.17
492.569	6540.87
492.772	6604.36
492.976	6559.3
493.18	6694.47
493.383	6770.24
493.587	6702.66
493.79	6829.63
493.994	6757.96
494.197	6807.11
494.401	6839.87
494.605	6807.11
494.808	7063.1
495.012	6858.31
495.215	7167.55
495.419	7276.09
495.622	7126.59
495.825	7233.08
496.029	7368.25
496.232	7333.43
496.436	7261.76
496.639	7525.94
496.843	7358.01
497.046	7751.22
497.249	7876.15
497.453	7820.85
497.656	7722.55
497.859	7867.95
498.063	8003.12
498.266	8117.81
498.469	7872.05
498.673	8177.2
498.876	8388.14
499.079	8437.29
499.282	8508.97
499.485	8500.78
499.689	8810.02
499.892	8668.71
500.095	8724.01
500.298	8939.04
500.501	8910.37
500.705	9057.82
500.908	9272.86
501.111	9285.15
501.314	9358.88
501.517	9768.47
501.72	9676.31
501.923	9643.54
502.126	9973.27
502.329	10049.04
502.532	10167.82
502.735	10143.25
502.938	10311.18
503.141	10366.48
503.344	10726.92
503.547	10733.06
503.75	10933.76
503.953	11050.5
504.156	11109.89
504.359	11347.45
504.562	11200
504.765	11423.23
504.968	11628.03
505.17	11707.9
505.373	11673.08
505.576	11996.66
505.779	12193.26
505.982	12099.06
506.185	12189.17
506.387	12543.47
506.59	12682.73
506.793	13047.27
506.996	12897.77
507.198	13223.39
507.401	13172.19
507.604	13366.75
507.807	13448.67
508.009	13680.09
508.212	13903.32
508.415	14300.62
508.617	14419.41
508.82	14394.83
509.022	14540.24
509.225	14728.65
509.428	14650.83
509.63	14917.06
509.833	14915.02
510.035	15361.47
510.238	15500.73
510.44	15605.18
510.643	15828.41
510.845	15801.79
511.048	16145.84
511.25	16244.15
511.453	16235.95
511.655	16770.47
511.858	16833.96
512.06	17081.77
512.262	16913.83
512.465	17010.09
512.667	17708.44
512.87	17425.82
513.072	17710.49
513.274	17933.72
513.477	18302.36
513.679	18632.08
513.881	18722.19
514.084	18820.49
514.286	19041.67
514.488	19037.58
514.69	19799.42
514.893	19549.57
515.095	19867
515.297	20120.95
515.499	20174.2
515.701	20446.58
515.904	20557.17
516.106	20890.99
516.308	21159.27
516.51	21325.16
516.712	21310.82
516.914	21650.78
517.116	22181.21
517.318	22357.33
517.52	22279.51
517.722	22543.7
517.925	22947.15
518.127	23434.57
518.329	23162.19
518.531	23440.71
518.733	23684.42
518.935	24157.5
519.136	24143.16
519.338	24603.96
519.54	24839.47
519.742	24839.47
519.944	25021.74
520.146	25750.82
520.348	25640.23
520.55	25777.44
520.752	25814.3
520.954	26690.84
521.155	26184.99
521.357	27014.41
521.559	26948.88
521.761	27335.95
521.963	27624.71
522.164	27884.8
522.366	27585.8
522.568	28239.1
522.77	28349.69
522.971	28673.27
523.173	28587.25
523.375	29146.35
523.576	28806.39
523.778	28939.51
523.98	29637.86
524.181	29590.76
524.383	30049.5
524.584	30203.1
524.786	30272.73
524.988	30414.04
525.189	30913.75
525.391	30995.67
525.592	31390.92
525.794	31276.24
525.995	31304.91
526.197	31202.51
526.398	31681.74
526.6	32019.65
526.801	32122.05
527.003	32222.4
527.204	32402.62
527.406	32582.84
527.607	32638.14
527.808	33029.3
528.01	32416.96
528.211	32793.78
528.412	33623.21
528.614	33223.86
528.815	33277.1
529.016	33965.22
529.218	33531.05
529.419	33981.6
529.62	33600.68
529.822	33518.76
530.023	33889.45
530.224	34041
530.425	34061.47
530.626	33834.15
530.828	33830.05
531.029	34897.05
531.23	34403.49
531.431	34477.21
531.632	34423.97
531.833	34829.46
532.035	34790.55
532.236	35204.24
532.437	35208.34
532.638	34516.12
532.839	35093.65
533.04	34989.2
533.241	34765.98
533.442	35513.48
533.643	35216.53
533.844	35599.5
534.045	35169.43
534.246	35075.22
534.447	35337.36
534.648	35148.95
534.849	35253.39
535.05	35404.94
535.251	35400.85
535.451	35374.22
535.652	35464.33
535.853	35601.55
536.054	35593.36
536.255	35675.27
536.456	35177.62
536.657	35978.37
536.857	35439.76
537.058	35554.44
537.259	35921.03
537.46	36131.97
537.66	35519.63
537.861	35806.34
538.062	35542.16
538.263	35679.37
538.463	35869.83
538.664	35546.25
538.865	35908.74
539.065	36187.27
539.266	35927.17
539.466	36062.34
539.667	35681.42
539.868	36228.23
540.068	35677.32
540.269	35705.99
540.469	35798.15
540.67	35740.81
540.87	35775.62
541.071	35749
541.271	35912.84
541.472	35665.03
541.672	35435.66
541.873	35337.36
542.073	35562.64
542.274	35914.89
542.474	35583.12
542.675	35314.83
542.875	35949.7
543.075	35746.95
543.276	35656.84
543.476	35894.41
543.676	35331.22
543.877	36258.95
544.077	35929.22
544.277	35187.86
544.478	35464.33
544.678	35640.46
544.878	35519.63
545.078	35691.66
545.279	35396.75
545.479	35271.82
545.679	35781.77
545.879	35437.71
546.079	35699.85
546.28	35789.96
546.48	35810.44
546.68	35388.56
546.88	35777.67
547.08	35763.34
547.28	35441.81
547.48	35198.1
547.68	35839.11
547.88	35380.37
548.081	35904.65
548.281	35986.57
548.481	35273.87
548.681	35687.56
548.881	35525.77
549.081	35497.1
549.28	35325.07
549.48	35558.54
549.68	35357.84
549.88	36002.95
550.08	35298.45
550.28	35611.79
550.48	35062.93
550.68	35587.21
550.88	35380.37
551.08	35681.42
551.279	35333.26
551.479	35138.71
551.679	35351.7
551.879	35724.43
552.079	35595.4
552.278	35148.95
552.478	35474.57
552.678	35333.26
552.878	35464.33
553.077	35357.84
553.277	34917.53
553.477	35452.05
553.676	35282.06
553.876	35370.13
554.076	35310.74
554.275	35374.22
554.475	35011.73
554.674	35220.63
554.874	35017.88
555.074	34714.78
555.273	35183.76
555.473	35103.89
555.672	34878.61
555.872	34679.96
556.071	34884.76
556.271	34927.77
556.47	34653.34
556.67	34604.19
556.869	34858.13
557.068	34661.53
557.268	34337.95
557.467	34505.88
557.667	34131.11
557.866	34688.15
558.065	34448.54
558.265	34116.77
558.464	33940.64
558.663	34432.16
558.863	33741.99
559.062	34569.37
559.261	33510.57
559.461	34192.54
559.66	33572.01
559.859	33557.67
560.058	33641.64
560.258	33647.79
560.457	33029.3
560.656	33694.89
560.855	33483.95
561.054	33817.77
561.253	33172.66
561.453	33017.01
561.652	33391.79
561.851	33281.2
562.05	33174.7
562.249	33055.92
562.448	33047.73
562.647	32732.34
562.846	32722.1
563.045	32957.62
563.244	32580.79
563.443	32761.01
563.642	32144.58
563.841	32496.83
564.04	32070.85
564.239	32646.33
564.438	32087.23
564.637	32429.24
564.836	31980.74
565.035	31487.18
565.234	32038.08
565.432	31583.43
565.631	31794.37
565.83	31775.94
566.029	31569.1
566.228	31501.51
566.427	31315.15
566.625	30792.92
566.824	30997.71
567.023	31329.48
567.222	30637.27
567.42	31032.53
567.619	30563.54
567.818	30461.15
568.016	30426.33
568.215	30512.35
568.414	30307.55
568.612	30514.39
568.811	30323.93
569.01	30162.14
569.208	29627.62
569.407	30129.37
569.605	29601
569.804	30213.34
570.002	29461.74
570.201	29277.42
570.4	29203.69
570.598	29154.54
570.797	29000.94
570.995	29060.34
571.193	28730.61
571.392	29140.21
571.59	28470.52
571.789	28677.37
571.987	28460.28
572.186	28687.6
572.384	28210.43
572.582	28361.98
572.781	28380.41
572.979	27901.18
573.177	27901.18
573.376	28181.76
573.574	27473.16
573.772	27976.96
573.971	27714.82
574.169	27372.81
574.367	26932.5
574.565	27417.86
574.763	27333.9
574.962	27288.84
575.16	26799.38
575.358	26928.4
575.556	26678.55
575.754	26852.62
575.952	26879.25
576.151	26946.83
576.349	26469.65
576.547	26440.98
576.745	26416.41
576.943	26473.75
577.141	26049.82
577.339	26289.43
577.537	25879.84
577.735	25953.57
577.933	25826.59
578.131	25804.06
578.329	25400.62
578.527	25490.73
578.725	25376.04
578.923	25509.16
579.121	25158.95
579.319	24993.07
579.516	25421.09
579.714	25027.88
579.912	24843.57
580.11	24653.11
580.308	25017.64
580.506	24837.42
580.704	24620.34
580.901	24696.11
581.099	24577.33
581.297	24563
581.495	24309.05
581.692	24407.35
581.89	24151.35
582.088	24485.17
582.285	24212.79
582.483	24474.93
582.681	24063.29
582.878	24108.35
583.076	23838.01
583.274	24210.75
583.471	23315.78
583.669	23915.84
583.866	23264.58
584.064	23602.5
584.262	22842.7
584.459	23635.27
584.657	23213.38
584.854	23311.69
585.052	22695.25
585.249	23422.28
585.447	22992.2
585.644	22762.83
585.841	22660.43
586.039	23113.03
586.236	22590.8
586.434	22512.98
586.631	22564.18
586.828	22265.17
587.026	22324.57
587.223	22287.7
587.42	21878.11
587.618	21974.36
587.815	22119.77
588.012	21933.4
588.21	21527.91
588.407	22072.67
588.604	21452.13
588.801	21691.74
588.999	21738.85
589.196	21540.19
589.393	21398.88
589.59	21142.89
589.787	21073.26
589.984	21341.54
590.182	21212.52
590.379	21366.12
590.576	21091.69
590.773	20999.53
590.97	20737.39
591.167	20997.48
591.364	20637.04
591.561	20817.26
591.758	20481.39
591.955	20587.89
592.152	20454.77
592.349	20174.2
592.546	20475.25
592.743	20440.43
592.94	20073.85
593.137	20551.03
593.334	20323.7
593.531	19729.79
593.727	20209.01
593.924	20059.51
594.121	19846.52
594.318	19889.53
594.515	19756.41
594.712	20159.86
594.908	19768.7
595.105	19848.57
595.302	19367.3
595.499	19592.58
595.696	19348.87
595.892	19152.26
596.089	19430.79
596.286	19533.18
596.482	19258.76
596.679	19316.1
596.876	19133.83
597.072	18967.95
597.269	18750.86
597.466	18904.46
597.662	18578.83
597.859	18691.47
598.055	19103.11
598.252	18359.7
598.448	18564.5
598.645	18486.67
598.841	18273.68
599.038	18681.23
599.234	18337.17
599.431	17892.76
599.627	18294.16
599.824	18328.98
600.02	18154.9
600.217	18128.28
600.413	18294.16
600.609	17882.52
600.806	17888.67
601.002	17915.29
601.198	17802.65
601.395	17546.65
601.591	17665.44
601.787	17444.26
601.984	17649.05
602.18	17784.22
602.376	17460.64
602.572	17362.34
602.769	17550.75
602.965	17384.87
603.161	17372.58
603.357	17255.84
603.553	16999.85
603.75	17079.72
603.946	16983.46
604.142	16928.17
604.338	16668.08
604.534	16948.65
604.73	16588.21
604.926	16885.16
605.122	16717.23
605.318	16688.56
605.514	16440.75
605.71	16364.98
605.906	16676.27
606.102	16051.64
606.298	16215.48
606.494	16424.37
606.69	16143.8
606.886	16387.5
607.082	16145.84
607.278	16006.58
607.474	15814.07
607.67	16027.06
607.866	15816.12
608.062	16149.94
608.257	15941.05
608.453	16006.58
608.649	16006.58
608.845	15537.6
609.041	15736.25
609.236	16020.92
609.432	15752.63
609.628	15467.97
609.824	15721.91
610.019	15429.06
610.215	15519.17
610.411	15500.73
610.606	15400.38
610.802	15488.45
610.998	15418.82
611.193	15396.29
611.389	15283.65
611.584	15447.49
611.78	15033.8
611.976	15097.28
612.171	15130.05
612.367	15041.99
612.562	15091.14
612.758	14910.92
612.953	14882.25
613.149	15082.95
613.344	14921.16
613.539	14908.87
613.735	14835.14
613.93	14769.61
614.126	14812.62
614.321	14814.66
614.517	14523.85
614.712	14450.13
614.907	14656.97
615.103	14779.85
615.298	14329.3
615.493	14310.86
615.688	14405.07
615.884	14761.42
616.079	14163.41
616.274	14411.21
616.47	14069.2
616.665	14437.84
616.86	14157.27
617.055	14058.96
617.25	14001.62
617.445	14190.03
617.641	13733.34
617.836	14325.2
618.031	14046.68
618.226	13852.12
618.421	14077.4
618.616	13870.55
618.811	13770.2
619.006	13884.89
619.201	13284.83
619.396	13792.73
619.591	13411.81
619.786	13866.46
619.981	13526.49
620.176	13516.25
620.371	13313.5
620.566	13487.58
620.761	13264.35
620.956	13309.41
621.151	13084.13
621.346	13018.6
621.541	12873.19
621.735	12953.06
621.93	12801.51
622.125	12867.05
622.32	12553.71
622.515	12658.15
622.709	12709.35
622.904	12574.19
623.099	12479.98
623.294	12453.36
623.488	12494.32
623.683	12682.73
623.878	12142.07
624.072	12244.46
624.267	12232.18
624.462	12074.48
624.656	11873.78
624.851	11904.5
625.046	11869.69
625.24	11759.1
625.435	11793.91
625.629	11595.26
625.824	11791.86
626.018	11634.17
626.213	11544.06
626.407	11419.13
626.602	11367.93
626.796	11240.96
626.991	11355.65
627.185	11206.14
627.38	11124.22
627.574	10913.28
627.768	10991.11
627.963	10862.08
628.157	10767.88
628.352	10884.61
628.546	10724.87
628.74	10851.85
628.935	10542.6
629.129	10745.35
629.323	10450.44
629.517	10556.94
629.712	10434.06
629.906	10282.51
630.1	10286.61
630.294	10233.36
630.489	10176.02
630.683	10362.38
630.877	9993.75
631.071	10190.35
631.265	10042.9
631.459	9995.79
631.653	9856.53
631.848	9606.68
632.042	9815.57
632.236	9811.48
632.43	9719.32
632.624	9547.29
632.818	9473.56
633.012	9371.16
633.206	9504.28
633.4	9553.43
633.594	9307.68
633.788	9393.69
633.982	9311.77
634.176	9299.48
634.369	9219.61
634.563	9168.41
634.757	9053.73
634.951	9010.72
635.145	9031.2
635.339	8951.33
635.533	9008.67
635.726	8879.65
635.92	8756.77
636.114	8724.01
636.308	8740.39
636.501	8803.88
636.695	8564.26
636.889	8678.95
637.083	8465.96
637.276	8500.78
637.47	8298.03
637.664	8420.91
637.857	8279.6
638.051	8304.17
638.244	8140.33
638.438	8175.15
638.632	8126
638.825	8064.56
639.019	8117.81
639.212	8003.12
639.406	8007.22
639.599	7921.2
639.793	7962.16
639.986	7859.76
640.18	7769.65
640.373	7687.73
640.567	7671.35
640.76	7632.44
640.954	7728.69
641.147	7460.41
641.34	7640.63
641.534	7458.36
641.727	7452.22
641.92	7411.26
642.114	7394.87
642.307	7339.58
642.5	7235.13
642.694	6921.79
642.887	7032.38
643.08	7165.5
643.273	7153.21
643.467	7149.12
643.66	6956.61
643.853	6981.18
644.046	6753.86
644.239	6678.08
644.432	6792.77
644.626	6641.22
644.819	6762.05
645.012	6768.2
645.205	6774.34
645.398	6688.32
645.591	6542.92
645.784	6549.06
645.977	6592.07
646.17	6479.43
646.363	6344.27
646.556	6518.34
646.749	6368.84
646.942	6450.76
647.135	6417.99
647.328	6370.89
647.521	6364.75
647.714	6243.92
647.907	6241.87
648.099	6131.28
648.292	6190.67
648.485	6192.72
648.678	6090.32
648.871	5981.78
649.064	5961.3
649.256	6149.71
649.449	5973.58
649.642	5930.58
649.835	5822.03
650.027	5850.71
650.22	5762.64
650.413	5776.98
650.605	5774.93
650.798	5875.28
650.991	5650
651.183	5639.76
651.376	5604.95
651.568	5506.65
651.761	5561.94
651.954	5631.57
652.146	5494.36
652.339	5584.47
652.531	5498.45
652.724	5428.82
652.916	5383.77
653.109	5467.74
653.301	5351
653.494	5287.51
653.686	5396.06
653.879	5326.43
654.071	5381.72
654.263	5174.88
654.456	5228.12
654.648	5158.49
654.84	5213.79
655.033	5078.62
655.225	5082.72
655.417	4886.11
655.61	5174.88
655.802	5154.4
655.994	5027.42
656.186	4937.31
656.379	4986.46
656.571	4980.32
656.763	4841.06
656.955	4728.42
657.148	4793.95
657.34	4765.28
657.532	4863.58
657.724	4808.29
657.916	4777.57
658.108	4816.48
658.3	4646.5
658.492	4709.99
658.684	4558.44
658.876	4456.04
659.068	4525.67
659.26	4650.6
659.452	4550.25
659.644	4562.53
659.836	4619.88
660.028	4601.44
660.22	4365.93
660.412	4576.87
660.604	4550.25
660.796	4494.95
660.988	4462.18
661.18	4351.59
661.372	4374.12
661.563	4421.22
661.755	4279.91
661.947	4304.49
662.139	4329.06
662.331	4187.75
662.522	4281.96
662.714	4320.87
662.906	4165.23
663.097	4267.63
663.289	4138.6
663.481	4179.56
663.673	4134.51
663.864	4165.23
664.056	4191.85
664.247	4165.23
664.439	3968.62
664.631	3972.72
664.822	4013.68
665.014	3921.52
665.205	4023.92
665.397	3884.66
665.588	3933.81
665.78	3870.32
665.971	3905.14
666.163	3884.66
666.354	3976.81
666.546	3841.65
666.737	3890.8
666.929	3903.09
667.12	3929.71
667.311	3796.59
667.503	3882.61
667.694	3853.94
667.885	3710.58
668.077	3741.3
668.268	3722.87
668.459	3880.56
668.651	3786.35
668.842	3812.98
669.033	3702.39
669.224	3686
669.416	3825.26
669.607	3735.15
669.798	3706.48
669.989	3686
670.18	3675.76
670.371	3532.4
670.563	3630.71
670.754	3679.86
670.945	3735.15
671.136	3661.43
671.327	3643
671.518	3599.99
671.709	3624.56
671.9	3622.52
672.091	3608.18
672.282	3559.03
672.473	3503.73
672.664	3589.75
672.855	3491.45
673.046	3552.88
673.237	3698.29
673.428	3602.04
673.619	3624.56
673.809	3516.02
674	3581.56
674.191	3536.5
674.382	3575.41
674.573	3526.26
674.764	3499.64
674.954	3595.89
675.145	3507.83
675.336	3599.99
675.527	3540.6
675.717	3479.16
675.908	3532.4
676.099	3554.93
676.289	3505.78
676.48	3489.4
676.671	3464.82
676.861	3411.57
677.052	3448.44
677.243	3413.62
677.433	3470.97
677.624	3587.7
677.814	3530.36
678.005	3575.41
678.195	3675.76
678.386	3456.63
678.576	3528.31
678.767	3444.34
678.957	3599.99
679.148	3530.36
679.338	3550.84
679.529	3612.28
679.719	3520.12
679.909	3569.27
680.1	3536.5
680.29	3575.41
680.481	3507.83
680.671	3505.78
680.861	3530.36
681.052	3573.36
681.242	3606.13
681.432	3737.2
681.622	3550.84
681.813	3516.02
682.003	3640.95
682.193	3450.49
682.383	3563.12
682.573	3618.42
682.764	3501.69
682.954	3526.26
683.144	3679.86
683.334	3643
683.524	3671.67
683.714	3618.42
683.904	3630.71
684.094	3536.5
684.284	3507.83
684.474	3497.59
684.664	3577.46
684.854	3626.61
685.044	3583.6
685.234	3559.03
685.424	3655.28
685.614	3624.56
685.804	3624.56
685.994	3542.64
686.184	3376.76
686.374	3475.06
686.564	3407.48
686.753	3483.25
686.943	3550.84
687.133	3440.25
687.323	3362.42
687.513	3434.1
687.702	3360.38
687.892	3417.72
688.082	3296.89
688.272	3405.43
688.461	3288.7
688.651	3470.97
688.841	3423.86
689.03	3274.36
689.22	3397.24
689.41	3417.72
689.599	3376.76
689.789	3296.89
689.979	3241.59
690.168	3333.75
690.358	3165.82
690.547	3171.96
690.737	3208.83
690.926	3292.79
691.116	3159.67
691.305	3264.12
691.495	3243.64
691.684	3208.83
691.874	3157.63
692.063	3255.93
692.252	3044.99
692.442	3116.67
692.631	3094.14
692.82	3233.4
693.01	3038.84
693.199	3100.28
693.388	2963.07
693.578	3001.98
693.767	3028.6
693.956	3143.29
694.146	2967.17
694.335	3008.12
694.524	2973.31
694.713	2936.45
694.902	2907.77
695.092	2993.79
695.281	2971.26
695.47	2893.44
695.659	2870.91
695.848	2922.11
696.037	2823.81
696.226	2993.79
696.415	2850.43
696.604	2825.86
696.793	2870.91
696.982	2862.72
697.171	3049.08
697.36	2969.21
697.549	2815.62
697.738	2793.09
697.927	2844.29
698.116	2887.29
698.305	2776.7
698.494	2940.54
698.683	2807.42
698.872	2989.69
699.061	2903.68
699.25	2891.39
699.438	3018.36
699.627	2780.8
699.816	2954.88
700.005	2774.66
700.193	2915.97
700.382	2891.39
700.571	2860.67
700.76	2909.82
700.948	2969.21
701.137	2973.31
701.326	2911.87
701.514	2809.47
701.703	2924.16
701.892	2772.61
702.08	3001.98
702.269	2926.21
702.457	2924.16
702.646	2846.34
702.834	2944.64
703.023	3001.98
703.212	2977.41
703.4	2961.02
703.589	2688.64
703.777	2899.58
703.965	2832
704.154	2903.68
704.342	2930.3
704.531	2979.45
704.719	2854.53
704.907	3028.6
705.096	2858.62
705.284	2950.78
705.472	3061.37
705.661	3083.9
705.849	3032.7
706.037	2895.49
706.226	2969.21
706.414	3106.43
706.602	2963.07
706.79	2999.93
706.979	2918.01
707.167	3159.67
707.355	2913.92
707.543	3053.18
707.731	2991.74
707.919	2995.84
708.107	3079.8
708.296	2956.93
708.484	2920.06
708.672	3012.22
708.86	3014.27
709.048	2991.74
709.236	3047.04
709.424	3102.33
709.612	3098.24
709.8	3030.65
709.988	3049.08
710.176	3106.43
710.364	3051.13
710.551	3034.75
710.739	2981.5
710.927	2995.84
711.115	2999.93
711.303	3094.14
711.491	3114.62
711.679	3118.72
711.866	3165.82
712.054	3114.62
712.242	3065.47
712.43	3231.35
712.617	3083.9
712.805	3092.09
712.993	3186.3
713.181	3063.42
713.368	3262.07
713.556	3167.87
713.744	3182.2
713.931	3266.17
714.119	3157.63
714.306	3247.74
714.494	3231.35
714.682	3106.43
714.869	3155.58
715.057	3149.43
715.244	3204.73
715.432	3427.96
715.619	3262.07
715.807	3260.02
715.994	3186.3
716.182	3239.55
716.369	3292.79
716.556	3290.74
716.744	3133.05
716.931	3364.47
717.119	3229.31
717.306	3272.31
717.493	3143.29
717.681	3225.21
717.868	3296.89
718.055	3339.9
718.242	3427.96
718.43	3497.59
718.617	3239.55
718.804	3335.8
718.991	3329.66
719.179	3415.67
719.366	3343.99
719.553	3362.42
719.74	3415.67
719.927	3534.45
720.114	3411.57
720.301	3348.09
720.488	3413.62
720.676	3348.09
720.863	3460.73
721.05	3432.05
721.237	3505.78
721.424	3501.69
721.611	3507.83
721.798	3450.49
721.985	3520.12
722.172	3448.44
722.358	3473.01
722.545	3473.01
722.732	3495.54
722.919	3573.36
723.106	3450.49
723.293	3505.78
723.48	3528.31
723.667	3597.94
723.853	3466.87
724.04	3524.21
724.227	3493.49
724.414	3491.45
724.6	3522.16
724.787	3544.69
724.974	3520.12
725.161	3569.27
725.347	3516.02
725.534	3561.08
725.72	3636.85
725.907	3546.74
726.094	3616.37
726.28	3530.36
726.467	3595.89
726.653	3595.89
726.84	3751.54
727.027	3626.61
727.213	3522.16
727.4	3718.77
727.586	3683.95
727.773	3702.39
727.959	3675.76
728.145	3665.52
728.332	3772.02
728.518	3645.04
728.705	3663.47
728.891	3767.92
729.077	3716.72
729.264	3755.63
729.45	3663.47
729.636	3610.23
729.823	3739.25
730.009	3698.29
730.195	3690.1
730.382	3733.11
730.568	3767.92
730.754	3804.78
730.94	3653.23
731.126	3763.83
731.313	3829.36
731.499	3745.39
731.685	3845.74
731.871	3755.63
732.057	3819.12
732.243	3853.94
732.429	3792.5
732.615	3917.42
732.801	3853.94
732.987	3761.78
733.173	3868.27
733.359	3819.12
733.545	3776.11
733.731	3659.38
733.917	3913.33
734.103	3769.97
734.289	3796.59
734.475	3847.79
734.661	3812.98
734.847	3794.54
735.033	3839.6
735.219	3843.7
735.404	3868.27
735.59	3851.89
735.776	3681.91
735.962	3784.3
736.148	3858.03
736.333	3888.75
736.519	3718.77
736.705	3864.18
736.89	3710.58
737.076	3784.3
737.262	3679.86
737.447	3886.7
737.633	3915.37
737.819	3866.22
738.004	3665.52
738.19	3798.64
738.375	3755.63
738.561	3843.7
738.747	3835.5
738.932	3763.83
739.118	3837.55
739.303	3802.74
739.489	3655.28
739.674	3769.97
739.859	3714.67
740.045	3788.4
740.23	3696.24
740.416	3651.19
740.601	3714.67
740.786	3806.83
740.972	3718.77
741.157	3749.49
741.342	3796.59
741.528	3753.59
741.713	3722.87
741.898	3739.25
742.084	3616.37
742.269	3716.72
742.454	3710.58
742.639	3774.07
742.824	3477.11
743.01	3720.82
743.195	3591.8
743.38	3599.99
743.565	3694.19
743.75	3608.18
743.935	3548.79
744.12	3679.86
744.305	3540.6
744.49	3554.93
744.675	3528.31
744.86	3495.54
745.045	3473.01
745.23	3479.16
745.415	3343.99
745.6	3561.08
745.785	3391.09
745.97	3440.25
746.155	3479.16
746.34	3501.69
746.525	3321.46
746.71	3372.66
746.895	3223.16
747.079	3255.93
747.264	3466.87
747.449	3257.98
747.634	3255.93
747.819	3292.79
748.003	3088
748.188	3323.51
748.373	3245.69
748.557	3372.66
748.742	3292.79
748.927	3217.02
749.111	3083.9
749.296	3174.01
749.481	3167.87
749.665	3155.58
749.85	3081.85
750.034	3030.65
750.219	3014.27
750.404	3016.32
750.588	3026.56
750.773	2866.81
750.957	2942.59
751.141	3063.42
751.326	2958.97
751.51	2911.87
751.695	2915.97
751.879	2958.97
752.064	2946.69
752.248	2758.27
752.432	2932.35
752.617	2911.87
752.801	2862.72
752.985	2692.74
753.17	2840.19
753.354	2702.98
753.538	2684.55
753.722	2700.93
753.907	2580.1
754.091	2555.52
754.275	2702.98
754.459	2707.07
754.643	2631.3
754.828	2598.53
755.012	2682.5
755.196	2590.34
755.38	2576
755.564	2573.96
755.748	2561.67
755.932	2584.2
756.116	2526.85
756.3	2496.13
756.484	2365.06
756.668	2444.93
756.852	2473.6
757.036	2391.69
757.22	2240.14
757.404	2305.67
757.588	2082.44
757.772	2389.64
757.956	2346.63
758.14	2363.01
758.323	2207.37
758.507	2190.99
758.691	2256.52
758.875	2203.27
759.059	2274.95
759.242	2221.7
759.426	2201.23
759.61	2201.23
759.794	2145.93
759.977	2145.93
760.161	2193.03
760.345	2215.56
760.528	2207.37
760.712	2119.31
760.895	2049.68
761.079	2090.63
761.263	1961.61
761.446	2064.01
761.63	2000.52
761.813	2094.73
761.997	1994.38
762.18	1908.37
762.364	1943.18
762.547	1902.22
762.731	1916.56
762.914	1951.37
763.098	1877.65
763.281	1932.94
763.464	1990.28
763.648	1875.6
763.831	1928.85
764.015	1916.56
764.198	1908.37
764.381	1922.7
764.564	1885.84
764.748	1879.69
764.931	1875.6
765.114	1914.51
765.297	1830.54
765.481	1824.4
765.664	1689.23
765.847	1816.21
766.03	1898.13
766.213	1779.34
766.397	1722
766.58	1691.28
766.763	1730.19
766.946	1717.9
767.129	1603.22
767.312	1678.99
767.495	1765.01
767.678	1711.76
767.861	1754.77
768.044	1660.56
768.227	1689.23
768.41	1654.42
768.593	1699.47
768.776	1599.12
768.959	1662.61
769.142	1670.8
769.324	1515.16
769.507	1601.17
769.69	1609.36
769.873	1607.31
770.056	1654.42
770.239	1545.88
770.421	1642.13
770.604	1623.7
770.787	1543.83
770.97	1654.42
771.152	1484.44
771.335	1572.5
771.518	1539.73
771.7	1570.45
771.883	1605.27
772.066	1560.21
772.248	1519.25
772.431	1580.69
772.613	1443.48
772.796	1437.33
772.978	1511.06
773.161	1535.64
773.343	1414.81
773.526	1357.46
773.708	1382.04
773.891	1371.8
774.073	1369.75
774.256	1343.13
774.438	1375.89
774.621	1308.31
774.803	1408.66
774.985	1361.56
775.168	1353.37
775.35	1300.12
775.532	1341.08
775.715	1308.31
775.897	1289.88
776.079	1230.49
776.261	1265.3
776.444	1279.64
776.626	1126.04
776.808	1265.3
776.99	1167
777.173	1201.82
777.355	1107.61
777.537	1154.71
777.719	1263.26
777.901	1175.19
778.083	1140.38
778.265	1066.65
778.447	1150.62
778.629	1101.47
778.811	1068.7
778.993	1101.47
779.175	1001.12
779.357	1044.12
779.539	1083.03
779.721	1044.12
779.903	1199.77
780.085	1080.99
780.267	1017.5
780.449	1052.31
780.631	1119.9
780.812	1035.93
780.994	966.3
781.176	933.53
781.358	949.92
781.54	923.29
781.721	1017.5
781.903	974.49
782.085	960.16
782.267	966.3
782.448	925.34
782.63	986.78
782.812	919.2
782.993	921.24
783.175	896.67
783.357	931.48
783.538	904.86
783.72	861.85
783.901	872.09
784.083	833.18
784.264	808.61
784.446	931.48
784.627	874.14
784.809	870.05
784.99	818.85
785.172	851.61
785.353	837.28
785.535	726.69
785.716	720.54
785.897	753.31
786.079	796.32
786.26	718.5
786.441	753.31
786.623	759.46
786.804	718.5
786.985	777.89
787.167	763.55
787.348	724.64
787.529	757.41
787.71	794.27
787.891	738.98
788.073	806.56
788.254	741.02
788.435	683.68
788.616	716.45
788.797	642.72
788.978	747.17
789.159	675.49
789.34	673.44
789.522	648.86
789.703	640.67
789.884	618.15
790.065	644.77
790.246	626.34
790.427	626.34
790.607	736.93
790.788	700.06
790.969	630.43
791.15	669.34
791.331	593.57
791.512	640.67
791.693	554.66
791.874	632.48
792.054	743.07
792.235	609.95
792.416	554.66
792.597	548.51
792.778	579.23
792.958	521.89
793.139	618.15
793.32	581.28
793.5	542.37
793.681	579.23
793.862	562.85
794.042	560.8
794.223	407.2
794.404	517.79
794.584	517.79
794.765	538.27
794.945	530.08
795.126	425.64
795.306	509.6
795.487	501.41
795.667	456.36
795.848	482.98
796.028	493.22
796.209	489.12
796.389	536.23
796.57	536.23
796.75	499.36
796.93	480.93
797.111	515.75
797.291	425.64
797.471	448.16
797.652	458.4
797.832	472.74
798.012	439.97
798.192	347.81
798.373	415.4
798.553	423.59
798.733	450.21
798.913	437.92
799.093	464.55
799.274	407.2
799.454	446.12
799.634	372.39
799.814	478.88
799.994	454.31
800.174	458.4
800.354	472.74
800.534	362.15
800.714	456.36
800.894	452.26
801.074	368.29
801.254	419.49
801.434	489.12
801.614	458.4
801.794	310.95
801.974	1177.24
802.154	366.25
802.334	394.92
802.514	347.81
802.693	380.58
802.873	306.85
803.053	394.92
803.233	366.25
803.413	370.34
803.592	349.86
803.772	382.63
803.952	335.53
804.131	308.9
804.311	372.39
804.491	356.01
804.67	237.22
804.85	300.71
805.03	446.12
805.209	390.82
805.389	419.49
805.568	343.72
805.748	319.14
805.928	374.44
806.107	421.54
806.287	349.86
806.466	323.24
806.646	376.48
806.825	384.68
807.004	380.58
807.184	333.48
807.363	321.19
807.543	298.66
807.722	265.89
807.901	308.9
808.081	214.7
808.26	251.56
808.439	313
808.619	300.71
808.798	265.89
808.977	286.37
809.156	310.95
809.336	335.53
809.515	337.57
809.694	245.41
809.873	282.28
810.052	374.44
810.231	274.09
810.411	304.81
810.59	364.2
810.769	241.32
810.948	296.61
811.127	192.17
811.306	257.7
811.485	206.5
811.664	280.23
811.843	243.37
812.022	280.23
812.201	255.65
812.38	196.26
812.559	261.8
812.737	360.1
812.916	173.74
813.095	206.5
813.274	235.18
813.453	253.61
813.632	280.23
813.811	267.94
813.989	167.59
814.168	259.75
814.347	278.18
814.526	247.46
814.704	331.43
814.883	261.8
815.062	231.08
815.24	231.08
815.419	286.37
815.598	218.79
815.776	181.93
815.955	222.89
816.133	183.98
816.312	235.18
816.49	229.03
816.669	231.08
816.847	243.37
817.026	292.52
817.204	224.94
817.383	257.7
817.561	237.22
817.74	255.65
817.918	220.84
818.097	200.36
818.275	171.69
818.453	267.94
818.632	214.7
818.81	173.74
818.988	274.09
819.167	177.83
819.345	229.03
819.523	192.17
819.701	157.35
819.879	212.65
820.058	224.94
820.236	231.08
820.414	204.46
820.592	116.39
820.77	235.18
820.948	175.78
821.127	161.45
821.305	202.41
821.483	136.87
821.661	259.75
821.839	241.32
822.017	188.07
822.195	157.35
822.373	222.89
822.551	169.64
822.729	243.37
822.907	134.82
823.085	241.32
823.262	106.15
823.44	136.87
823.618	229.03
823.796	251.56
823.974	140.97
824.152	161.45
824.329	134.82
824.507	196.26
824.685	226.98
824.863	239.27
825.04	145.06
825.218	183.98
825.396	194.22
825.574	204.46
825.751	136.87
825.929	249.51
826.107	153.26
826.284	161.45
826.462	216.74
826.639	175.78
826.817	132.78
826.994	136.87
827.172	128.68
827.349	169.64
827.527	175.78
827.704	136.87
827.882	136.87
828.059	130.73
828.237	136.87
828.414	282.28
828.591	140.97
828.769	202.41
828.946	134.82
829.124	149.16
829.301	165.54
829.478	179.88
829.655	122.54
829.833	179.88
830.01	20.14
830.187	124.58
830.364	104.11
830.542	200.36
830.719	155.3
830.896	128.68
831.073	155.3
831.25	145.06
831.427	140.97
831.604	71.34
831.782	140.97
831.959	175.78
832.136	163.5
832.313	69.29
832.49	87.72
832.667	151.21
832.844	132.78
833.021	175.78
833.198	118.44
833.374	200.36
833.551	165.54
833.728	153.26
833.905	128.68
834.082	67.24
834.259	153.26
834.436	116.39
834.612	61.1
834.789	112.3
834.966	151.21
835.143	128.68
835.319	93.87
835.496	132.78
835.673	149.16
835.85	159.4
836.026	93.87
836.203	126.63
836.38	126.63
836.556	59.05
836.733	177.83
836.909	165.54
837.086	134.82
837.262	3.75
837.439	97.96
837.616	73.39
837.792	93.87
837.968	73.39
838.145	24.23
838.321	73.39
838.498	44.71
838.674	63.15
838.851	26.28
839.027	93.87
839.203	87.72
839.38	132.78
839.556	22.19
839.732	110.25
839.909	54.95
840.085	165.54
840.261	44.71
840.437	81.58
840.614	52.91
840.79	97.96
840.966	136.87
841.142	46.76
841.318	163.5
841.494	159.4
841.671	128.68
841.847	52.91
842.023	26.28
842.199	95.91
842.375	134.82
842.551	11.95
842.727	77.48
842.903	149.16
843.079	73.39
843.255	85.67
843.431	73.39
843.607	54.95
843.783	-22.87
843.959	87.72
844.134	-16.73
844.31	102.06
844.486	91.82
844.662	124.58
844.838	93.87
845.013	95.91
845.189	95.91
845.365	52.91
845.541	57
845.716	24.23
845.892	124.58
846.068	59.05
846.244	34.47
846.419	149.16
846.595	83.63
846.77	73.39
846.946	16.04
847.122	71.34
847.297	52.91
847.473	165.54
847.648	81.58
847.824	126.63
847.999	13.99
848.175	20.14
848.35	104.11
848.526	104.11
848.701	48.81
848.876	71.34
849.052	44.71
849.227	63.15
849.403	71.34
849.578	-29.01
849.753	28.33
849.929	44.71
850.104	18.09
850.279	38.57
850.454	65.19
850.63	75.43
850.805	34.47
850.98	50.86
851.155	73.39
851.33	69.29
851.505	-0.34
851.681	79.53
851.856	77.48
852.031	97.96
852.206	11.95
852.381	44.71
852.556	108.2
852.731	69.29
852.906	59.05
853.081	50.86
853.256	75.43
853.431	81.58
853.606	-0.34
853.781	26.28
853.956	5.8
854.131	44.71
854.305	71.34
854.48	-22.87
854.655	-31.06
854.83	5.8
855.005	24.23
855.18	63.15
855.354	13.99
855.529	-16.73
855.704	48.81
855.879	57
856.053	1.71
856.228	108.2
856.403	-57.68
856.577	79.53
856.752	-10.58
856.926	59.05
857.101	75.43
857.276	77.48
857.45	65.19
857.625	52.91
857.799	38.57
857.974	28.33
858.148	32.43
858.323	54.95
858.497	5.8
858.672	-18.77
858.846	16.04
859.02	42.67
859.195	3.75
859.369	52.91
859.543	59.05
859.718	63.15
859.892	38.57
860.066	89.77
860.241	71.34
860.415	95.91
860.589	-29.01
860.763	59.05
860.938	-37.2
861.112	81.58
861.286	42.67
861.46	24.23
861.634	9.9
861.808	30.38
861.982	-37.2
862.157	22.19
862.331	-16.73
862.505	22.19
862.679	-2.39
862.853	11.95
863.027	24.23
863.201	77.48
863.375	3.75
863.549	-8.53
863.722	71.34
863.896	79.53
864.07	9.9
864.244	16.04
864.418	7.85
864.592	20.14
864.766	48.81
864.939	73.39
865.113	5.8
865.287	26.28
865.461	-45.4
865.634	73.39
865.808	-12.63
865.982	26.28
866.156	5.8
866.329	-12.63
866.503	-18.77
866.676	44.71
866.85	-4.44
867.024	50.86
867.197	52.91
867.371	73.39
867.544	63.15
867.718	-26.96
867.891	1.71
868.065	46.76
868.238	52.91
868.412	54.95
868.585	-29.01
868.759	-8.53
868.932	22.19
869.105	-0.34
869.279	16.04
869.452	-6.49
869.625	-12.63
869.799	34.47
869.972	-0.34
870.145	34.47
870.319	91.82
870.492	52.91
870.665	-12.63
870.838	42.67
871.011	-43.35
871.185	24.23
871.358	24.23
871.531	50.86
871.704	-22.87
871.877	26.28
872.05	-37.2
872.223	-35.16
872.396	89.77
872.569	108.2
872.742	-67.92
872.915	-37.2
873.088	-49.49
873.261	-45.4
873.434	18.09
873.607	-10.58
873.78	44.71
873.953	-29.01
874.126	42.67
874.299	13.99
874.471	22.19
874.644	16.04
874.817	61.1
874.99	120.49
875.163	52.91
875.335	-8.53
875.508	40.62
875.681	104.11
875.853	-35.16
876.026	7.85
876.199	38.57
876.371	7.85
876.544	50.86
876.717	44.71
876.889	-76.12
877.062	54.95
877.234	18.09
877.407	-14.68
877.579	-10.58
877.752	-10.58
877.924	34.47
878.097	3.75
878.269	-20.82
878.442	63.15
878.614	-29.01
878.786	28.33
878.959	57
879.131	126.63
879.303	-41.3
879.476	5.8
879.648	16.04
879.82	-24.92
879.993	-112.98
880.165	-12.63
880.337	-16.73
880.509	102.06
880.681	-63.83
880.854	30.38
881.026	7.85
881.198	104.11
881.37	16.04
881.542	-0.34
881.714	30.38
881.886	-100.69
882.058	22.19
882.23	24.23
882.402	3.75
882.574	26.28
882.746	7.85
882.918	81.58
883.09	28.33
883.262	-4.44
883.434	-16.73
883.606	-90.45
883.778	-33.11
883.95	63.15
884.122	-4.44
884.293	91.82
884.465	-55.64
884.637	1.71
884.809	32.43
884.98	77.48
885.152	85.67
885.324	3.75
885.496	3.75
885.667	46.76
885.839	38.57
886.011	-26.96
886.182	20.14
886.354	-10.58
886.525	46.76
886.697	52.91
886.869	7.85
887.04	-37.2
887.212	46.76
887.383	77.48
887.555	-47.44
887.726	-16.73
887.897	-76.12
888.069	91.82
888.24	85.67
888.412	9.9
888.583	-22.87
888.754	-80.21
888.926	-33.11
889.097	20.14
889.268	18.09
889.44	-14.68
889.611	-67.92
889.782	28.33
889.953	22.19
890.125	30.38
890.296	-72.02
890.467	38.57
890.638	5.8
890.809	-14.68
890.98	-29.01
891.151	-0.34
891.323	59.05
891.494	-33.11
891.665	16.04
891.836	-12.63
892.007	-8.53
892.178	-47.44
892.349	30.38
892.52	42.67
892.691	-0.34
892.862	5.8
893.032	-67.92
893.203	-20.82
893.374	24.23
893.545	-39.25
893.716	-59.73
893.887	42.67
894.057	-20.82
894.228	-53.59
894.399	-61.78
894.57	71.34
894.74	-20.82
894.911	20.14
895.082	-6.49
895.253	3.75
895.423	59.05
895.594	5.8
895.764	20.14
895.935	-82.26
896.106	-65.88
896.276	69.29
896.447	38.57
896.617	3.75
896.788	-57.68
896.958	-8.53
897.129	-55.64
897.299	-57.68
897.47	100.01
897.64	20.14
897.81	-20.82
897.981	-53.59
898.151	-117.08
898.322	11.95
898.492	20.14
898.662	-4.44
898.832	-0.34
899.003	-20.82
899.173	54.95
899.343	34.47
899.513	-65.88
