Data from USB4F104151__39__12-23-52-055.txt Node

Date: Fri Mar 14 12:23:52 EDT 2025
User: louis
Spectrometer: USB4F10415
Trigger mode: 4
Integration Time (sec): 3.500000E-2
Scans to average: 1
Electric dark correction enabled: true
Nonlinearity correction enabled: false
Boxcar width: 0
XAxis mode: Wavelengths
Number of Pixels in Spectrum: 3648
>>>>>Begin Spectral Data<<<<<
178.204	-132.61
178.424	-132.61
178.644	-132.61
178.864	-237.05
179.084	-132.61
179.304	-7.68
179.524	-42.5
179.744	43.52
179.964	70.14
180.184	51.71
180.404	-9.73
180.624	-5.63
180.844	-17.92
181.064	-17.92
181.283	-15.87
181.503	-95.74
181.723	47.62
181.943	4.61
182.163	41.47
182.383	37.38
182.602	78.33
182.822	84.48
183.042	64
183.262	51.71
183.482	16.9
183.701	6.66
183.921	0.51
184.141	-32.26
184.361	68.09
184.58	23.04
184.8	0.51
185.02	10.75
185.239	80.38
185.459	-3.58
185.679	107.01
185.898	-30.21
186.118	47.62
186.338	70.14
186.557	10.75
186.777	6.66
186.997	-11.78
187.216	20.99
187.436	33.28
187.655	47.62
187.875	45.57
188.095	-24.06
188.314	96.77
188.534	55.81
188.753	104.96
188.973	43.52
189.192	74.24
189.412	55.81
189.631	53.76
189.851	43.52
190.07	57.86
190.29	-58.88
190.509	98.81
190.729	-7.68
190.948	49.66
191.168	190.97
191.387	59.9
191.607	51.71
191.826	4.61
192.045	23.04
192.265	29.18
192.484	29.18
192.704	33.28
192.923	-5.63
193.142	94.72
193.362	66.05
193.581	92.67
193.8	16.9
194.02	53.76
194.239	-17.92
194.458	23.04
194.678	55.81
194.897	14.85
195.116	-24.06
195.335	88.57
195.555	61.95
195.774	39.42
195.993	29.18
196.212	-34.3
196.432	10.75
196.651	127.49
196.87	10.75
197.089	154.11
197.308	20.99
197.528	12.8
197.747	-3.58
197.966	12.8
198.185	125.44
198.404	31.23
198.623	94.72
198.842	-9.73
199.062	20.99
199.281	41.47
199.5	-28.16
199.719	39.42
199.938	119.29
200.157	59.9
200.376	82.43
200.595	61.95
200.814	135.68
201.033	104.96
201.252	70.14
201.471	-26.11
201.69	98.81
201.909	2.56
202.128	-1.54
202.347	6.66
202.566	23.04
202.785	-3.58
203.004	-83.45
203.223	100.86
203.442	55.81
203.661	16.9
203.879	59.9
204.098	59.9
204.317	-13.82
204.536	20.99
204.755	104.96
204.974	121.34
205.193	59.9
205.411	115.2
205.63	88.57
205.849	53.76
206.068	96.77
206.287	12.8
206.505	49.66
206.724	61.95
206.943	55.81
207.162	14.85
207.381	35.33
207.599	29.18
207.818	51.71
208.037	45.57
208.255	41.47
208.474	55.81
208.693	80.38
208.911	-1.54
209.13	68.09
209.349	55.81
209.567	55.81
209.786	39.42
210.005	84.48
210.223	90.62
210.442	16.9
210.661	115.2
210.879	47.62
211.098	12.8
211.316	82.43
211.535	74.24
211.753	31.23
211.972	61.95
212.191	2.56
212.409	6.66
212.628	-3.58
212.846	45.57
213.065	64
213.283	59.9
213.502	-50.69
213.72	18.94
213.938	70.14
214.157	61.95
214.375	41.47
214.594	23.04
214.812	47.62
215.031	23.04
215.249	47.62
215.467	156.16
215.686	2.56
215.904	43.52
216.122	-42.5
216.341	57.86
216.559	33.28
216.778	78.33
216.996	0.51
217.214	27.14
217.432	94.72
217.651	-69.12
217.869	27.14
218.087	33.28
218.306	0.51
218.524	18.94
218.742	-32.26
218.96	55.81
219.179	33.28
219.397	31.23
219.615	41.47
219.833	119.29
220.051	49.66
220.27	86.53
220.488	37.38
220.706	55.81
220.924	-22.02
221.142	12.8
221.36	64
221.578	53.76
221.796	-11.78
222.015	-9.73
222.233	18.94
222.451	59.9
222.669	8.7
222.887	72.19
223.105	14.85
223.323	-34.3
223.541	-11.78
223.759	96.77
223.977	84.48
224.195	113.15
224.413	96.77
224.631	37.38
224.849	45.57
225.067	68.09
225.285	66.05
225.503	86.53
225.721	-48.64
225.939	43.52
226.157	29.18
226.375	117.25
226.592	-58.88
226.81	80.38
227.028	70.14
227.246	20.99
227.464	61.95
227.682	96.77
227.9	33.28
228.117	-15.87
228.335	6.66
228.553	31.23
228.771	0.51
228.989	53.76
229.206	78.33
229.424	0.51
229.642	-22.02
229.86	59.9
230.077	98.81
230.295	4.61
230.513	76.29
230.731	64
230.948	59.9
231.166	102.91
231.384	55.81
231.601	90.62
231.819	37.38
232.037	-7.68
232.254	18.94
232.472	-13.82
232.689	41.47
232.907	6.66
233.125	6.66
233.342	-1.54
233.56	-3.58
233.777	0.51
233.995	23.04
234.213	127.49
234.43	117.25
234.648	137.73
234.865	0.51
235.083	80.38
235.3	14.85
235.518	4.61
235.735	20.99
235.953	109.05
236.17	49.66
236.388	-9.73
236.605	107.01
236.822	127.49
237.04	39.42
237.257	45.57
237.475	2.56
237.692	29.18
237.909	-32.26
238.127	-9.73
238.344	8.7
238.562	-11.78
238.779	-24.06
238.996	25.09
239.214	39.42
239.431	41.47
239.648	86.53
239.865	41.47
240.083	10.75
240.3	53.76
240.517	-5.63
240.735	78.33
240.952	51.71
241.169	127.49
241.386	-24.06
241.603	-26.11
241.821	43.52
242.038	37.38
242.255	4.61
242.472	-32.26
242.689	47.62
242.907	31.23
243.124	55.81
243.341	6.66
243.558	-3.58
243.775	45.57
243.992	-5.63
244.209	74.24
244.426	135.68
244.643	53.76
244.86	18.94
245.078	16.9
245.295	-30.21
245.512	70.14
245.729	35.33
245.946	33.28
246.163	115.2
246.38	18.94
246.597	6.66
246.814	2.56
247.031	-22.02
247.248	31.23
247.464	16.9
247.681	4.61
247.898	76.29
248.115	35.33
248.332	-38.4
248.549	45.57
248.766	135.68
248.983	37.38
249.2	6.66
249.417	-26.11
249.633	-24.06
249.85	57.86
250.067	113.15
250.284	10.75
250.501	45.57
250.717	53.76
250.934	6.66
251.151	66.05
251.368	66.05
251.585	6.66
251.801	59.9
252.018	-79.36
252.235	31.23
252.451	4.61
252.668	33.28
252.885	20.99
253.102	16.9
253.318	31.23
253.535	-30.21
253.752	115.2
253.968	4.61
254.185	-50.69
254.401	-5.63
254.618	80.38
254.835	-13.82
255.051	25.09
255.268	-15.87
255.484	51.71
255.701	37.38
255.917	66.05
256.134	-38.4
256.351	96.77
256.567	8.7
256.784	49.66
257	-3.58
257.217	39.42
257.433	98.81
257.65	70.14
257.866	68.09
258.082	6.66
258.299	37.38
258.515	96.77
258.732	49.66
258.948	4.61
259.165	-11.78
259.381	51.71
259.597	61.95
259.814	86.53
260.03	39.42
260.246	59.9
260.463	18.94
260.679	94.72
260.895	-24.06
261.112	2.56
261.328	61.95
261.544	-38.4
261.761	47.62
261.977	49.66
262.193	0.51
262.409	12.8
262.626	31.23
262.842	10.75
263.058	-30.21
263.274	37.38
263.49	20.99
263.707	61.95
263.923	33.28
264.139	0.51
264.355	80.38
264.571	6.66
264.787	18.94
265.004	39.42
265.22	59.9
265.436	45.57
265.652	53.76
265.868	92.67
266.084	33.28
266.3	23.04
266.516	-11.78
266.732	61.95
266.948	8.7
267.164	102.91
267.38	37.38
267.596	70.14
267.812	135.68
268.028	74.24
268.244	-11.78
268.46	45.57
268.676	-13.82
268.892	78.33
269.108	33.28
269.324	6.66
269.54	-34.3
269.756	41.47
269.972	18.94
270.188	51.71
270.403	29.18
270.619	8.7
270.835	51.71
271.051	20.99
271.267	16.9
271.483	-69.12
271.698	100.86
271.914	18.94
272.13	23.04
272.346	102.91
272.562	23.04
272.777	-1.54
272.993	49.66
273.209	98.81
273.425	98.81
273.64	68.09
273.856	92.67
274.072	-7.68
274.287	12.8
274.503	-26.11
274.719	84.48
274.934	-3.58
275.15	-1.54
275.366	92.67
275.581	158.21
275.797	51.71
276.012	33.28
276.228	43.52
276.444	18.94
276.659	2.56
276.875	-24.06
277.09	41.47
277.306	49.66
277.521	16.9
277.737	25.09
277.952	23.04
278.168	94.72
278.383	104.96
278.599	92.67
278.814	84.48
279.03	74.24
279.245	109.05
279.461	109.05
279.676	27.14
279.892	-9.73
280.107	14.85
280.322	47.62
280.538	-1.54
280.753	43.52
280.969	61.95
281.184	53.76
281.399	78.33
281.615	53.76
281.83	59.9
282.045	20.99
282.26	29.18
282.476	43.52
282.691	37.38
282.906	-17.92
283.122	98.81
283.337	-65.02
283.552	74.24
283.767	23.04
283.983	76.29
284.198	-1.54
284.413	86.53
284.628	31.23
284.843	64
285.058	-19.97
285.274	82.43
285.489	-56.83
285.704	64
285.919	55.81
286.134	31.23
286.349	-13.82
286.564	27.14
286.779	84.48
286.995	33.28
287.21	12.8
287.425	64
287.64	-1.54
287.855	31.23
288.07	57.86
288.285	57.86
288.5	47.62
288.715	2.56
288.93	16.9
289.145	18.94
289.36	127.49
289.575	-11.78
289.79	0.51
290.004	-9.73
290.219	72.19
290.434	90.62
290.649	43.52
290.864	14.85
291.079	23.04
291.294	109.05
291.509	64
291.724	23.04
291.938	37.38
292.153	72.19
292.368	-30.21
292.583	49.66
292.798	49.66
293.012	100.86
293.227	45.57
293.442	66.05
293.657	35.33
293.871	102.91
294.086	37.38
294.301	123.39
294.516	86.53
294.73	78.33
294.945	2.56
295.16	49.66
295.374	111.1
295.589	100.86
295.804	39.42
296.018	16.9
296.233	55.81
296.447	78.33
296.662	-69.12
296.877	86.53
297.091	70.14
297.306	16.9
297.52	6.66
297.735	115.2
297.949	43.52
298.164	0.51
298.378	98.81
298.593	8.7
298.807	45.57
299.022	59.9
299.236	121.34
299.451	27.14
299.665	14.85
299.88	78.33
300.094	43.52
300.309	33.28
300.523	31.23
300.737	70.14
300.952	51.71
301.166	12.8
301.381	66.05
301.595	39.42
301.809	66.05
302.024	23.04
302.238	14.85
302.452	88.57
302.667	43.52
302.881	72.19
303.095	117.25
303.309	64
303.524	47.62
303.738	-13.82
303.952	16.9
304.166	-30.21
304.381	-13.82
304.595	98.81
304.809	8.7
305.023	41.47
305.237	10.75
305.452	14.85
305.666	59.9
305.88	174.59
306.094	72.19
306.308	53.76
306.522	72.19
306.736	70.14
306.95	49.66
307.164	25.09
307.379	68.09
307.593	74.24
307.807	98.81
308.021	115.2
308.235	74.24
308.449	41.47
308.663	72.19
308.877	158.21
309.091	41.47
309.305	104.96
309.519	-22.02
309.733	66.05
309.947	2.56
310.161	113.15
310.374	127.49
310.588	61.95
310.802	-50.69
311.016	74.24
311.23	57.86
311.444	66.05
311.658	45.57
311.872	27.14
312.085	20.99
312.299	121.34
312.513	100.86
312.727	49.66
312.941	-1.54
313.154	31.23
313.368	119.29
313.582	94.72
313.796	10.75
314.009	31.23
314.223	47.62
314.437	12.8
314.651	16.9
314.864	127.49
315.078	-22.02
315.292	23.04
315.505	-28.16
315.719	111.1
315.933	20.99
316.146	23.04
316.36	33.28
316.573	98.81
316.787	29.18
317.001	25.09
317.214	35.33
317.428	123.39
317.641	59.9
317.855	68.09
318.068	0.51
318.282	12.8
318.495	119.29
318.709	104.96
318.922	20.99
319.136	33.28
319.349	68.09
319.563	55.81
319.776	16.9
319.99	-34.3
320.203	66.05
320.417	20.99
320.63	2.56
320.843	127.49
321.057	135.68
321.27	20.99
321.483	55.81
321.697	72.19
321.91	96.77
322.124	41.47
322.337	20.99
322.55	37.38
322.763	2.56
322.977	102.91
323.19	45.57
323.403	-17.92
323.617	20.99
323.83	137.73
324.043	94.72
324.256	43.52
324.469	45.57
324.683	47.62
324.896	25.09
325.109	33.28
325.322	41.47
325.535	82.43
325.748	35.33
325.962	12.8
326.175	137.73
326.388	102.91
326.601	12.8
326.814	49.66
327.027	64
327.24	166.4
327.453	68.09
327.666	94.72
327.879	115.2
328.092	88.57
328.305	25.09
328.518	84.48
328.731	23.04
328.944	72.19
329.157	104.96
329.37	98.81
329.583	162.3
329.796	84.48
330.009	-15.87
330.222	104.96
330.435	72.19
330.648	-60.93
330.861	-48.64
331.073	131.58
331.286	4.61
331.499	8.7
331.712	27.14
331.925	18.94
332.138	61.95
332.35	45.57
332.563	12.8
332.776	29.18
332.989	35.33
333.202	31.23
333.414	8.7
333.627	6.66
333.84	4.61
334.053	94.72
334.265	2.56
334.478	147.97
334.691	64
334.903	53.76
335.116	-9.73
335.329	-13.82
335.541	8.7
335.754	88.57
335.966	20.99
336.179	-24.06
336.392	102.91
336.604	64
336.817	37.38
337.029	121.34
337.242	72.19
337.454	92.67
337.667	43.52
337.88	82.43
338.092	16.9
338.305	51.71
338.517	10.75
338.729	37.38
338.942	55.81
339.154	88.57
339.367	14.85
339.579	29.18
339.792	12.8
340.004	80.38
340.217	72.19
340.429	6.66
340.641	74.24
340.854	8.7
341.066	20.99
341.278	107.01
341.491	94.72
341.703	47.62
341.915	-17.92
342.128	72.19
342.34	0.51
342.552	41.47
342.764	74.24
342.977	59.9
343.189	84.48
343.401	16.9
343.613	72.19
343.826	47.62
344.038	23.04
344.25	8.7
344.462	72.19
344.674	20.99
344.886	-1.54
345.099	6.66
345.311	49.66
345.523	33.28
345.735	-17.92
345.947	39.42
346.159	4.61
346.371	111.1
346.583	57.86
346.795	94.72
347.007	68.09
347.219	96.77
347.431	70.14
347.643	70.14
347.855	20.99
348.067	61.95
348.279	16.9
348.491	8.7
348.703	43.52
348.915	23.04
349.127	8.7
349.339	-5.63
349.551	86.53
349.763	70.14
349.975	64
350.187	68.09
350.399	68.09
350.61	137.73
350.822	27.14
351.034	115.2
351.246	29.18
351.458	119.29
351.669	104.96
351.881	121.34
352.093	4.61
352.305	82.43
352.517	119.29
352.728	123.39
352.94	121.34
353.152	51.71
353.363	23.04
353.575	90.62
353.787	82.43
353.999	98.81
354.21	111.1
354.422	31.23
354.633	98.81
354.845	43.52
355.057	49.66
355.268	-22.02
355.48	90.62
355.692	86.53
355.903	23.04
356.115	37.38
356.326	-15.87
356.538	53.76
356.749	111.1
356.961	111.1
357.172	43.52
357.384	-26.11
357.595	92.67
357.807	43.52
358.018	57.86
358.23	64
358.441	43.52
358.653	37.38
358.864	29.18
359.075	-62.98
359.287	88.57
359.498	47.62
359.709	78.33
359.921	70.14
360.132	107.01
360.344	49.66
360.555	6.66
360.766	90.62
360.977	51.71
361.189	127.49
361.4	14.85
361.611	86.53
361.823	59.9
362.034	-9.73
362.245	96.77
362.456	20.99
362.667	98.81
362.879	39.42
363.09	41.47
363.301	82.43
363.512	45.57
363.723	-48.64
363.935	-22.02
364.146	61.95
364.357	12.8
364.568	64
364.779	47.62
364.99	100.86
365.201	43.52
365.412	117.25
365.623	8.7
365.834	84.48
366.045	111.1
366.256	39.42
366.467	37.38
366.678	39.42
366.889	57.86
367.1	18.94
367.311	102.91
367.522	59.9
367.733	47.62
367.944	35.33
368.155	25.09
368.366	51.71
368.577	76.29
368.788	121.34
368.999	29.18
369.209	64
369.42	70.14
369.631	115.2
369.842	18.94
370.053	37.38
370.264	137.73
370.474	2.56
370.685	72.19
370.896	139.77
371.107	160.25
371.317	82.43
371.528	82.43
371.739	64
371.95	107.01
372.16	100.86
372.371	0.51
372.582	88.57
372.792	43.52
373.003	111.1
373.214	113.15
373.424	92.67
373.635	0.51
373.846	41.47
374.056	14.85
374.267	66.05
374.477	72.19
374.688	29.18
374.898	102.91
375.109	53.76
375.319	33.28
375.53	70.14
375.74	82.43
375.951	156.16
376.161	96.77
376.372	94.72
376.582	-19.97
376.793	53.76
377.003	129.53
377.214	-11.78
377.424	57.86
377.635	29.18
377.845	-15.87
378.055	68.09
378.266	27.14
378.476	135.68
378.686	74.24
378.897	29.18
379.107	74.24
379.317	109.05
379.528	80.38
379.738	74.24
379.948	92.67
380.158	33.28
380.369	43.52
380.579	37.38
380.789	41.47
380.999	104.96
381.21	107.01
381.42	166.4
381.63	53.76
381.84	61.95
382.05	82.43
382.261	43.52
382.471	113.15
382.681	78.33
382.891	100.86
383.101	80.38
383.311	-3.58
383.521	-15.87
383.731	74.24
383.941	119.29
384.151	82.43
384.361	86.53
384.571	16.9
384.781	14.85
384.991	47.62
385.201	82.43
385.411	113.15
385.621	96.77
385.831	41.47
386.041	51.71
386.251	131.58
386.461	59.9
386.671	133.63
386.881	31.23
387.091	2.56
387.301	147.97
387.511	-7.68
387.72	20.99
387.93	117.25
388.14	31.23
388.35	41.47
388.56	90.62
388.769	78.33
388.979	121.34
389.189	84.48
389.399	207.36
389.609	88.57
389.818	102.91
390.028	72.19
390.238	141.82
390.447	86.53
390.657	31.23
390.867	59.9
391.076	-7.68
391.286	76.29
391.496	68.09
391.705	31.23
391.915	109.05
392.125	74.24
392.334	57.86
392.544	111.1
392.753	70.14
392.963	68.09
393.172	98.81
393.382	0.51
393.591	53.76
393.801	94.72
394.01	109.05
394.22	78.33
394.429	94.72
394.639	104.96
394.848	0.51
395.058	107.01
395.267	31.23
395.477	135.68
395.686	125.44
395.895	158.21
396.105	49.66
396.314	49.66
396.524	104.96
396.733	100.86
396.942	160.25
397.152	143.87
397.361	119.29
397.57	166.4
397.78	125.44
397.989	150.01
398.198	184.83
398.407	125.44
398.617	172.54
398.826	94.72
399.035	119.29
399.244	133.63
399.453	98.81
399.663	80.38
399.872	152.06
400.081	160.25
400.29	213.5
400.499	51.71
400.708	158.21
400.917	98.81
401.127	121.34
401.336	137.73
401.545	154.11
401.754	137.73
401.963	123.39
402.172	113.15
402.381	145.92
402.59	98.81
402.799	90.62
403.008	190.97
403.217	61.95
403.426	188.93
403.635	141.82
403.844	127.49
404.053	156.16
404.262	166.4
404.471	154.11
404.68	96.77
404.888	168.45
405.097	123.39
405.306	236.03
405.515	90.62
405.724	72.19
405.933	135.68
406.142	113.15
406.35	188.93
406.559	168.45
406.768	207.36
406.977	225.79
407.185	219.64
407.394	195.07
407.603	193.02
407.812	190.97
408.02	213.5
408.229	135.68
408.438	182.78
408.646	289.28
408.855	199.16
409.064	211.45
409.272	170.49
409.481	313.85
409.69	346.62
409.898	248.32
410.107	317.95
410.315	250.36
410.524	322.04
410.733	260.6
410.941	315.9
411.15	391.67
411.358	354.81
411.567	391.67
411.775	338.43
411.984	424.44
412.192	428.54
412.401	389.63
412.609	471.54
412.818	428.54
413.026	446.97
413.234	516.6
413.443	541.18
413.651	500.22
413.86	522.74
414.068	547.32
414.276	664.05
414.485	604.66
414.693	559.61
414.901	686.58
415.11	555.51
415.318	649.72
415.526	717.3
415.734	705.01
415.943	702.97
416.151	780.79
416.359	700.92
416.567	856.56
416.776	854.51
416.984	963.06
417.192	911.86
417.4	877.04
417.608	813.56
417.817	991.73
418.025	1065.46
418.233	1040.88
418.441	1085.94
418.649	1145.33
418.857	1174
419.065	1309.16
419.273	1266.16
419.481	1249.77
419.689	1380.84
419.897	1358.32
420.105	1454.57
420.313	1389.03
420.521	1544.68
420.729	1546.73
420.937	1544.68
421.145	1757.67
421.353	1614.31
421.561	1780.2
421.769	1782.24
421.977	1860.07
422.185	1798.63
422.393	2095.58
422.601	2050.53
422.809	2208.22
423.017	2111.97
423.224	2304.48
423.432	2275.81
423.64	2218.46
423.848	2632.15
424.056	2513.37
424.263	2771.41
424.471	2619.86
424.679	2714.07
424.887	2949.59
425.094	2939.35
425.302	2853.33
425.51	3088.85
425.718	3082.7
425.925	3312.08
426.133	3238.35
426.341	3516.87
426.548	3557.83
426.756	3627.46
426.964	3664.33
427.171	3926.47
427.379	4006.34
427.586	3975.62
427.794	4272.57
428.001	4342.21
428.209	4547
428.417	4544.95
428.624	4835.77
428.832	4803
429.039	4794.81
429.247	4817.33
429.454	5405.1
429.662	5687.72
429.869	5331.37
430.076	5783.98
430.284	5401.01
430.491	5956.01
430.699	6105.51
430.906	5982.63
431.114	6103.46
431.321	6468
431.528	6508.96
431.736	6767
431.943	7119.25
432.15	7031.19
432.358	7195.03
432.565	7500.17
432.772	7491.98
432.979	7883.14
433.187	7936.39
433.394	7956.87
433.601	8706.43
433.808	8601.98
434.016	8683.9
434.223	8829.31
434.43	9134.45
434.637	9376.11
434.844	9728.36
435.052	10092.9
435.259	9990.5
435.466	10121.57
435.673	9748.84
435.88	10568.03
436.087	11196.76
436.294	11221.33
436.501	10959.19
436.708	11149.65
436.915	11549.01
437.122	12151.11
437.329	11866.44
437.537	12450.11
437.743	12683.58
437.95	12685.63
438.157	13302.07
438.364	13646.13
438.571	13832.49
438.778	13728.05
438.985	14864.67
439.192	14508.32
439.399	14774.56
439.606	14342.44
439.813	15126.81
440.02	16255.24
440.227	16185.61
440.433	15806.73
440.64	16060.68
440.847	16167.18
441.054	16478.47
441.261	17768.69
441.467	17555.7
441.674	17817.84
441.881	18612.45
442.088	18712.8
442.294	18596.07
442.501	18909.41
442.708	19159.26
442.914	19863.76
443.121	20828.35
443.328	20242.64
443.534	21668.02
443.741	21070.01
443.948	20707.52
444.154	22476.97
444.361	22306.99
444.568	22335.66
444.774	22290.6
444.981	22640.81
445.187	23455.9
445.394	23949.46
445.6	23898.26
445.807	26183.79
446.013	25114.75
446.22	25618.55
446.426	26624.11
446.633	26830.95
446.839	27723.86
447.046	26550.38
447.252	28102.74
447.459	28250.19
447.665	28287.06
447.871	29495.36
448.078	30693.42
448.284	28979.27
448.491	29825.08
448.697	30908.46
448.903	31526.94
449.11	31688.73
449.316	31301.67
449.522	31862.81
449.728	32432.15
449.935	32512.02
450.141	32395.28
450.347	33296.39
450.553	32446.48
450.76	32741.39
450.966	34064.38
451.172	33509.38
451.378	34416.63
451.584	33800.19
451.791	34406.39
451.997	34553.84
452.203	34850.8
452.409	34652.14
452.615	34869.23
452.821	33642.49
453.027	33198.09
453.233	35086.31
453.44	33839.1
453.646	34050.04
453.852	33798.14
454.058	34660.34
454.264	33544.19
454.47	34084.86
454.676	33312.77
454.882	34277.36
455.088	31741.98
455.294	31830.04
455.5	32432.15
455.705	32348.18
455.911	31359.01
456.117	30791.72
456.323	30390.32
456.529	28842.06
456.735	30097.46
456.941	29431.87
457.147	28930.12
457.352	27678.81
457.558	27486.3
457.764	27734.1
457.97	27035.75
458.176	26622.06
458.381	26544.23
458.587	25319.55
458.793	25100.42
458.999	24084.62
459.204	25434.24
459.41	24961.16
459.616	23187.61
459.821	23482.52
460.027	23177.37
460.233	22601.9
460.438	21409.98
460.644	21762.23
460.85	20658.37
461.055	20306.12
461.261	20314.31
461.466	18854.11
461.672	18587.88
461.878	19722.45
462.083	18313.45
462.289	18088.17
462.494	17666.29
462.7	17019.13
462.905	16486.66
463.111	17185.02
463.316	17154.3
463.522	16756.99
463.727	16589.06
463.932	16574.72
464.138	16689.41
464.343	16638.21
464.549	16048.4
464.754	17062.14
464.959	16662.79
465.165	16539.91
465.37	15685.9
465.575	15223.06
465.781	16038.16
465.986	16228.62
466.191	15470.87
466.397	15223.06
466.602	14399.78
466.807	15118.62
467.012	15229.21
467.218	14846.24
467.423	14876.96
467.628	14852.38
467.833	15151.38
468.038	14836
468.244	14426.4
468.449	15055.13
468.654	14588.19
468.859	14483.75
469.064	14563.62
469.269	13627.7
469.474	13981.99
469.679	14213.42
469.885	13801.77
470.09	14004.52
470.295	13750.57
470.5	13629.74
470.705	13650.22
470.91	13355.32
471.115	13082.94
471.32	13351.22
471.525	13390.13
471.73	13019.45
471.935	13015.35
472.139	12237.13
472.344	12624.19
472.549	12491.07
472.754	12439.87
472.959	12011.85
473.164	11942.22
473.369	11831.63
473.574	12233.03
473.778	11985.23
473.983	11872.59
474.188	11979.08
474.393	11227.48
474.598	11462.99
474.802	11221.33
475.007	11037.02
475.212	11172.18
475.417	10809.69
475.621	10813.79
475.826	10940.76
476.031	10678.62
476.235	10414.43
476.44	10649.95
476.645	10365.28
476.849	10451.3
477.054	10099.05
477.259	10086.76
477.463	10117.48
477.668	9945.45
477.872	9974.12
478.077	9814.38
478.282	9656.68
478.486	9447.79
478.691	9415.02
478.895	9392.5
479.1	9302.39
479.304	9468.27
479.509	9046.39
479.713	9224.56
479.918	9030.01
480.122	8886.65
480.326	9066.87
480.531	9038.2
480.735	9027.96
480.94	8642.94
481.144	9193.84
481.348	8532.35
481.553	8681.85
481.757	8626.56
481.961	8597.88
482.166	8976.76
482.37	8757.63
482.574	8413.57
482.778	8812.92
482.983	8712.57
483.187	8524.16
483.391	8749.43
483.595	8612.22
483.8	8624.51
484.004	8681.85
484.208	8731
484.412	8595.84
484.616	8659.32
484.821	8728.95
485.025	8540.54
485.229	8823.16
485.433	8653.18
485.637	8827.26
485.841	8483.2
486.045	8614.27
486.249	8663.42
486.453	8647.04
486.657	8640.89
486.861	8690.04
487.065	8470.91
487.269	8690.04
487.473	8540.54
487.677	8774.01
487.881	8802.68
488.085	8618.36
488.289	8882.55
488.493	8597.88
488.697	8792.44
488.901	8759.67
489.105	8853.88
489.309	8827.26
489.512	8827.26
489.716	8763.77
489.92	8800.63
490.124	8630.65
490.328	8847.74
490.531	8847.74
490.735	8982.9
490.939	9036.15
491.143	8991.09
491.346	8716.67
491.55	9025.91
491.754	9132.4
491.958	9091.45
492.161	9099.64
492.365	9187.7
492.569	9105.78
492.772	9306.48
492.976	9222.52
493.18	9302.39
493.383	9429.36
493.587	9593.2
493.79	9388.4
493.994	9255.28
494.197	9750.89
494.401	9730.41
494.605	9664.88
494.808	9765.23
495.012	9734.51
495.215	9877.87
495.419	9974.12
495.622	9843.05
495.825	10125.67
496.029	10336.61
496.232	10316.13
496.436	10209.64
496.639	10785.12
496.843	10471.78
497.046	10783.07
497.249	10819.93
497.453	10682.72
497.656	10973.53
497.859	11037.02
498.063	11250
498.266	11276.63
498.469	11473.23
498.673	11237.72
498.876	11792.72
499.079	11772.24
499.282	11790.67
499.485	12300.61
499.689	11997.51
499.892	12470.59
500.095	12505.41
500.298	12577.09
500.501	12630.34
500.705	12859.71
500.908	13070.65
501.111	13203.77
501.314	13273.4
501.517	13383.99
501.72	13678.9
501.923	13615.41
502.126	13838.64
502.329	13979.95
502.532	14104.87
502.735	14102.82
502.938	14604.58
503.141	14721.31
503.344	14534.95
503.547	14881.05
503.75	15231.26
503.953	15493.4
504.156	15311.13
504.359	15655.19
504.562	15587.6
504.765	15978.76
504.968	16136.46
505.17	16507.14
505.373	16392.45
505.576	16787.71
505.779	16603.39
505.982	16924.93
506.185	17266.94
506.387	17475.83
506.59	17465.59
506.793	17766.64
506.996	17895.66
507.198	18608.36
507.401	18456.81
507.604	18743.52
507.807	18915.55
508.009	18792.67
508.212	19097.82
508.415	19239.13
508.617	19460.31
508.82	19775.7
509.022	19654.87
509.225	19843.28
509.428	20308.17
509.63	20773.06
509.833	20598.98
510.035	21131.45
510.238	21039.29
510.44	21272.76
510.643	21848.24
510.845	22014.13
511.048	22053.04
511.25	22210.73
511.453	22581.42
511.655	23154.85
511.858	23048.35
512.06	23105.7
512.262	23607.45
512.465	23165.09
512.667	23814.29
512.87	24170.64
513.072	24391.82
513.274	24522.89
513.477	25127.04
513.679	25120.9
513.881	25727.1
514.084	25753.72
514.286	25571.45
514.488	25997.43
514.69	27146.34
514.893	26677.35
515.095	26845.29
515.297	27324.51
515.499	27224.16
515.701	27899.99
515.904	28086.36
516.106	28323.92
516.308	28758.09
516.51	29292.61
516.712	29122.63
516.914	29118.53
517.116	29960.25
517.318	29874.23
517.52	30617.64
517.722	30130.23
517.925	30976.04
518.127	31090.73
518.329	31780.89
518.531	31272.99
518.733	31946.78
518.935	32571.41
519.136	32501.78
519.338	32667.66
519.54	32849.93
519.742	33312.77
519.944	33478.66
520.146	34179.06
520.348	34207.73
520.55	34322.42
520.752	34627.57
520.954	35424.23
521.155	35190.76
521.357	35930.08
521.559	36278.23
521.761	36585.43
521.963	36550.61
522.164	36870.09
522.366	37013.45
522.568	37201.86
522.77	37607.36
522.971	38444.98
523.173	37795.78
523.375	38215.61
523.576	38555.57
523.778	38580.15
523.98	38920.11
524.181	39329.7
524.383	39280.55
524.584	39776.16
524.786	39921.57
524.988	39896.99
525.189	40468.37
525.391	40742.8
525.592	40955.79
525.794	41029.52
525.995	41109.39
526.197	41398.15
526.398	41152.4
526.6	41811.84
526.801	42065.79
527.003	42082.17
527.204	42215.29
527.406	42657.65
527.607	42471.29
527.808	42901.36
528.01	42315.64
528.211	42758
528.412	43792.23
528.614	43448.17
528.815	43360.11
529.016	43853.67
529.218	43388.78
529.419	43882.34
529.62	44171.1
529.822	43911.01
530.023	43900.77
530.224	44068.7
530.425	44529.5
530.626	44330.84
530.828	43868
531.029	45086.54
531.23	44799.83
531.431	44814.16
531.632	45113.17
531.833	45135.7
532.035	44830.55
532.236	45449.03
532.437	45340.49
532.638	45291.34
532.839	45414.22
533.04	45449.03
533.241	44814.16
533.442	45387.6
533.643	45576.01
533.844	45317.96
534.045	45219.66
534.246	45225.81
534.447	45954.88
534.648	45313.87
534.849	45682.5
535.05	45625.16
535.251	45668.17
535.451	45459.27
535.652	45729.61
535.853	45979.46
536.054	45520.71
536.255	45694.79
536.456	45266.77
536.657	46268.22
536.857	45428.55
537.058	45891.4
537.259	45721.41
537.46	45778.76
537.66	46034.75
537.861	45694.79
538.062	45786.95
538.263	45717.32
538.463	45582.15
538.664	45600.58
538.865	45895.49
539.065	46124.86
539.266	45461.32
539.466	46204.73
539.667	45883.2
539.868	45940.55
540.068	46100.29
540.269	45619.02
540.469	46206.78
540.67	45901.64
540.87	45750.09
541.071	45987.65
541.271	45924.16
541.472	45539.15
541.672	45449.03
541.873	45227.85
542.073	45059.92
542.274	46083.9
542.474	45535.05
542.675	45256.53
542.875	46137.15
543.075	45553.48
543.276	45406.03
543.476	45889.35
543.676	45277.01
543.877	45305.68
544.077	45942.59
544.277	45653.83
544.478	45954.88
544.678	45809.48
544.878	45459.27
545.078	45422.41
545.279	45465.42
545.479	45293.39
545.679	45537.1
545.879	45772.61
546.079	45557.58
546.28	45150.03
546.48	45006.67
546.68	45551.43
546.88	45729.61
547.08	45449.03
547.28	45643.59
547.48	45053.78
547.68	45064.02
547.88	45500.23
548.081	45510.47
548.281	45256.53
548.481	45504.33
548.681	45670.22
548.881	45371.21
549.081	45322.06
549.28	45477.71
549.48	45756.23
549.68	44945.23
549.88	45756.23
550.08	45109.07
550.28	45164.37
550.48	45100.88
550.68	45537.1
550.88	45016.91
551.08	45100.88
551.279	45231.95
551.479	44719.96
551.679	45354.83
551.879	44765.01
552.079	45465.42
552.278	45068.11
552.478	45250.38
552.678	44891.99
552.878	45252.43
553.077	45084.5
553.277	44679
553.477	45117.26
553.676	44631.89
553.876	44859.22
554.076	44339.04
554.275	44691.29
554.475	44433.24
554.674	44603.22
554.874	44934.99
555.074	44185.44
555.273	44783.44
555.473	44777.3
555.672	44224.35
555.872	44517.21
556.071	44121.95
556.271	44541.78
556.47	44234.59
556.67	44216.16
556.869	44353.37
557.068	44388.19
557.268	44048.22
557.467	44013.41
557.667	43863.91
557.866	43661.16
558.065	43812.71
558.265	43738.98
558.464	43874.15
558.663	44201.82
558.863	43341.67
559.062	44189.53
559.261	43026.29
559.461	43612.01
559.66	43218.8
559.859	43143.02
560.058	43263.85
560.258	43282.28
560.457	42807.15
560.656	42942.32
560.855	43147.12
561.054	42962.8
561.253	42436.47
561.453	42794.87
561.652	42934.13
561.851	43016.05
562.05	42313.59
562.249	42182.52
562.448	42405.75
562.647	42635.13
562.846	42162.04
563.045	42258.3
563.244	41686.92
563.443	42131.33
563.642	41699.2
563.841	42174.33
564.04	41377.67
564.239	41863.04
564.438	41332.62
564.637	41475.98
564.836	41430.92
565.035	41041.81
565.234	41238.41
565.432	40775.57
565.631	40472.47
565.83	40943.5
566.029	40814.48
566.228	40116.12
566.427	40312.73
566.625	40019.87
566.824	40075.16
567.023	40179.61
567.222	39704.48
567.42	40247.19
567.619	39878.56
567.818	40083.36
568.016	39546.79
568.215	39714.72
568.414	39552.93
568.612	39704.48
568.811	38946.73
569.01	39221.16
569.208	38764.46
569.407	39092.14
569.605	38426.55
569.804	38975.41
570.002	38305.72
570.201	38541.24
570.4	38029.24
570.598	38053.82
570.797	37961.66
570.995	38303.67
571.193	37611.46
571.392	37904.32
571.59	37443.52
571.789	37597.12
571.987	37470.15
572.186	37363.65
572.384	36964.3
572.582	37224.39
572.781	37441.48
572.979	36614.1
573.177	36624.34
573.376	36530.13
573.574	35964.89
573.772	36397.01
573.971	36384.72
574.169	36188.12
574.367	36016.09
574.565	36134.87
574.763	35776.48
574.962	35919.84
575.16	35622.88
575.358	35676.13
575.556	35176.42
575.754	35971.04
575.952	35379.17
576.151	35299.3
576.349	34719.73
576.547	35033.07
576.745	34930.67
576.943	34996.2
577.141	34689.01
577.339	34818.03
577.537	34377.72
577.735	34330.61
577.933	34088.95
578.131	34177.01
578.329	33914.87
578.527	34074.62
578.725	33931.26
578.923	33830.91
579.121	33533.95
579.319	33654.78
579.516	33669.12
579.714	33216.52
579.912	33058.82
580.11	33222.66
580.308	33140.74
580.506	32700.43
580.704	32509.97
580.901	32864.27
581.099	33163.27
581.297	32550.93
581.495	32604.17
581.692	32405.52
581.89	32104.47
582.088	32321.55
582.285	31993.88
582.483	32262.16
582.681	32090.13
582.878	31981.59
583.076	31535.13
583.274	32028.7
583.471	31010.85
583.669	31393.82
583.866	31133.73
584.064	31430.69
584.262	30810.15
584.459	31256.61
584.657	30791.72
584.854	31180.84
585.052	30484.53
585.249	31137.83
585.447	30707.76
585.644	30634.03
585.841	30679.08
586.039	30603.31
586.236	29898.81
586.434	30310.45
586.631	30201.91
586.828	30281.78
587.026	29806.65
587.223	29890.62
587.42	29528.13
587.618	29585.47
587.815	29409.34
588.012	29478.97
588.21	29157.44
588.407	29352
588.604	29083.72
588.801	29139.01
588.999	28883.02
589.196	28667.98
589.393	28903.49
589.59	28944.45
589.787	28872.78
589.984	28631.12
590.182	28706.89
590.379	28500.05
590.576	28246.1
590.773	28176.47
590.97	27951.19
591.167	28188.75
591.364	27881.56
591.561	28112.98
591.758	27488.35
591.955	27781.21
592.152	27994.2
592.349	27361.37
592.546	27822.17
592.743	27654.23
592.94	26591.34
593.137	27289.7
593.334	27277.41
593.531	26857.57
593.727	26916.97
593.924	26914.92
594.121	26781.8
594.318	26976.36
594.515	26611.82
594.712	26740.84
594.908	26099.83
595.105	26560.62
595.302	26122.35
595.499	26257.52
595.696	26206.32
595.892	25962.61
596.089	26116.21
596.286	26089.59
596.482	25954.42
596.679	26065.01
596.876	25753.72
597.072	25415.8
597.269	25561.21
597.466	25178.24
597.662	25233.53
597.859	25155.71
598.055	25237.63
598.252	24860.8
598.448	25264.25
598.645	25200.77
598.841	24537.23
599.038	24924.29
599.234	24897.67
599.431	24438.92
599.627	24594.57
599.824	24977.54
600.02	24406.16
600.217	24547.47
600.413	24518.79
600.609	24256.65
600.806	23953.55
601.002	23978.13
601.198	24070.29
601.395	23951.51
601.591	23513.24
601.787	23804.05
601.984	23457.95
602.18	23951.51
602.376	23476.38
602.572	23312.54
602.769	23464.09
602.965	23097.5
603.161	23351.45
603.357	22818.98
603.553	23138.46
603.75	23253.15
603.946	22931.62
604.142	23072.93
604.338	22610.09
604.534	22913.19
604.73	22474.92
604.926	22157.49
605.122	22536.36
605.318	22714.53
605.514	22313.13
605.71	22182.06
605.906	22280.36
606.102	22044.85
606.298	22190.25
606.494	22089.9
606.69	22210.73
606.886	21819.57
607.082	21784.76
607.278	22055.09
607.474	21469.37
607.67	21625.01
607.866	21528.76
608.062	21672.12
608.257	21399.74
608.453	21205.18
608.649	21178.56
608.845	21182.65
609.041	21446.84
609.236	21491.9
609.432	21315.77
609.628	21162.17
609.824	21221.56
610.019	20877.51
610.215	20979.9
610.411	21053.63
610.606	20969.66
610.802	21070.01
610.998	20715.72
611.193	20848.83
611.389	20359.37
611.584	20857.03
611.78	20398.28
611.976	20373.71
612.171	20541.64
612.367	20541.64
612.562	20621.51
612.758	20175.05
612.953	19865.81
613.149	20293.83
613.344	19886.29
613.539	20328.65
613.735	20271.31
613.93	20277.45
614.126	19824.85
614.321	20193.48
614.517	20080.85
614.712	19890.38
614.907	19923.15
615.103	19996.88
615.298	19564.76
615.493	19884.24
615.688	19476.69
615.884	19837.14
616.079	19355.86
616.274	19693.78
616.47	19298.52
616.665	19466.45
616.86	19540.18
617.055	19243.23
617.25	19196.12
617.445	19466.45
617.641	19077.34
617.836	19351.77
618.031	19011.81
618.226	19300.57
618.421	18856.16
618.616	18946.27
618.811	18847.97
619.006	18639.08
619.201	18581.73
619.396	18637.03
619.591	18567.4
619.786	18389.22
619.981	18305.26
620.176	18598.12
620.371	18127.08
620.566	18297.06
620.761	18213.1
620.956	18020.59
621.151	17795.31
621.346	17883.38
621.541	17600.76
621.735	17744.11
621.93	17305.85
622.125	17514.74
622.32	17428.73
622.515	17412.34
622.709	17311.99
622.904	17156.35
623.099	16998.65
623.294	16840.96
623.488	16920.83
623.683	16881.92
623.878	16445.7
624.072	16697.6
624.267	16613.63
624.462	16337.16
624.656	16255.24
624.851	16318.73
625.046	16113.93
625.24	16064.78
625.435	15829.26
625.629	16017.68
625.824	15868.17
626.018	15855.89
626.213	15567.12
626.407	15487.25
626.602	15096.09
626.796	15589.65
626.991	15266.07
627.185	15448.34
627.38	15032.6
627.574	14934.3
627.768	15028.51
627.963	14985.5
628.157	14799.13
628.352	14737.7
628.546	14315.81
628.74	14606.63
628.935	14418.21
629.129	14297.38
629.323	14219.56
629.517	14145.83
629.712	14350.63
629.906	14192.94
630.1	13807.92
630.294	13766.96
630.489	13709.61
630.683	13891.88
630.877	13601.07
631.071	13392.18
631.265	13662.51
631.459	13455.67
631.653	13504.82
631.848	13574.45
632.042	13273.4
632.236	13365.56
632.43	13295.93
632.624	13035.83
632.818	12933.43
633.012	12990.78
633.206	12910.91
633.4	12990.78
633.594	12601.66
633.788	12781.88
633.982	12671.29
634.176	12605.76
634.369	12212.55
634.563	12613.95
634.757	12167.49
634.951	12376.39
635.145	12175.69
635.339	12142.92
635.533	12013.9
635.726	12126.53
635.92	12106.06
636.114	11950.41
636.308	11655.5
636.501	11731.28
636.695	11856.2
636.889	11596.11
637.083	11465.04
637.276	11456.85
637.47	11293.01
637.664	11432.27
637.857	11333.97
638.051	11258.2
638.244	11188.57
638.438	10932.57
638.632	11338.07
638.825	10957.14
639.019	10862.94
639.212	10901.85
639.406	10797.4
639.599	10717.53
639.793	10703.2
639.986	10447.2
640.18	10654.05
640.373	10645.85
640.567	10287.46
640.76	10531.17
640.954	10318.18
641.147	10135.91
641.34	10377.57
641.534	10309.99
641.727	10260.84
641.92	10107.24
642.114	10113.38
642.307	9904.49
642.5	10078.57
642.694	9677.16
642.887	9853.29
643.08	9881.96
643.273	9849.19
643.467	9714.03
643.66	9546.09
643.853	9359.73
644.046	9433.46
644.239	9427.31
644.432	9425.26
644.626	9345.39
644.819	9316.72
645.012	9263.47
645.205	9222.52
645.398	9091.45
645.591	9240.95
645.784	9015.67
645.977	8845.69
646.17	8911.22
646.363	8716.67
646.556	8823.16
646.749	8798.59
646.942	8790.39
647.135	8771.96
647.328	8544.64
647.521	8755.58
647.714	8554.88
647.907	8548.73
648.099	8419.71
648.292	8491.39
648.485	8243.59
648.678	8393.09
648.871	8255.87
649.064	7977.35
649.256	8159.62
649.449	8081.8
649.642	8022.41
649.835	8034.69
650.027	7975.3
650.22	7985.54
650.413	7752.07
650.605	7905.67
650.798	7879.05
650.991	7866.76
651.183	7825.8
651.376	7451.02
651.568	7653.77
651.761	7690.63
651.954	7659.92
652.146	7467.41
652.339	7358.86
652.531	7686.54
652.724	7377.3
652.916	7360.91
653.109	7453.07
653.301	7158.16
653.494	7430.54
653.686	7111.06
653.879	7428.49
654.071	7303.57
654.263	7031.19
654.456	7016.85
654.648	7133.59
654.84	7016.85
655.033	6947.22
655.225	6969.75
655.417	6721.95
655.61	6959.51
655.802	7164.31
655.994	6818.2
656.186	6912.41
656.379	6848.92
656.571	6635.93
656.763	6558.11
656.955	6627.74
657.148	6617.5
657.34	6719.9
657.532	6627.74
657.724	6451.61
657.916	6560.16
658.108	6615.45
658.3	6302.11
658.492	6429.09
658.684	6318.5
658.876	6355.36
659.068	6214.05
659.26	6216.1
659.452	6181.28
659.644	6109.6
659.836	6185.38
660.028	6093.22
660.22	6109.6
660.412	6066.6
660.604	5962.15
660.796	6019.49
660.988	6013.35
661.18	5861.8
661.372	5867.94
661.563	5896.61
661.755	5812.65
661.947	5775.78
662.139	5798.31
662.331	5861.8
662.522	5618.09
662.714	5786.02
662.906	5712.3
663.097	5691.82
663.289	5693.87
663.481	5499.31
663.673	5484.97
663.864	5657
664.056	5405.1
664.247	5626.28
664.439	5495.21
664.631	5444.01
664.822	5392.81
665.014	5517.74
665.205	5360.05
665.397	5358
665.588	5362.09
665.78	5226.93
665.971	5378.48
666.163	5206.45
666.354	5161.39
666.546	5142.96
666.737	5245.36
666.929	5032.37
667.12	5106.1
667.311	5110.19
667.503	5038.52
667.694	5136.82
667.885	5165.49
668.077	5005.75
668.268	5067.19
668.459	4954.55
668.651	4901.3
668.842	4993.46
669.033	5067.19
669.224	4870.58
669.416	5161.39
669.607	4866.49
669.798	4751.8
669.989	4985.27
670.18	4938.16
670.371	4823.48
670.563	4745.66
670.754	4846.01
670.945	4774.33
671.136	4733.37
671.327	4602.3
671.518	4725.18
671.709	4788.66
671.9	4780.47
672.091	4759.99
672.282	4825.53
672.473	4630.97
672.664	4882.87
672.855	4641.21
673.046	4860.34
673.237	4753.85
673.428	4614.59
673.619	4684.22
673.809	4678.07
674	4561.34
674.191	4604.35
674.382	4520.38
674.573	4635.07
674.764	4602.3
674.954	4659.64
675.145	4524.47
675.336	4678.07
675.527	4512.19
675.717	4553.15
675.908	4504
676.099	4671.93
676.289	4616.63
676.48	4452.8
676.671	4608.44
676.861	4577.72
677.052	4596.15
677.243	4399.55
677.433	4446.65
677.624	4524.47
677.814	4407.74
678.005	4440.51
678.195	4444.6
678.386	4534.71
678.576	4424.12
678.767	4420.03
678.957	4454.84
679.148	4565.43
679.338	4405.69
679.529	4532.67
679.719	4444.6
679.909	4628.92
680.1	4540.86
680.29	4532.67
680.481	4379.07
680.671	4504
680.861	4581.82
681.052	4581.82
681.242	4424.12
681.432	4407.74
681.622	4446.65
681.813	4501.95
682.003	4553.15
682.193	4336.06
682.383	4434.36
682.573	4389.31
682.764	4325.82
682.954	4450.75
683.144	4581.82
683.334	4325.82
683.524	4274.62
683.714	4438.46
683.904	4268.48
684.094	4456.89
684.284	4436.41
684.474	4377.02
684.664	4362.69
684.854	4338.11
685.044	4436.41
685.234	4362.69
685.424	4436.41
685.614	4237.76
685.804	4161.98
685.994	4393.4
686.184	4354.49
686.374	4336.06
686.564	4174.27
686.753	4301.25
686.943	4125.12
687.133	4250.05
687.323	4229.57
687.513	4284.86
687.702	4110.79
687.892	4045.25
688.082	4286.91
688.272	4225.47
688.461	4159.94
688.651	4258.24
688.841	4174.27
689.03	4213.18
689.22	4069.83
689.41	4010.43
689.599	4045.25
689.789	4018.63
689.979	3944.9
690.168	3912.13
690.358	3912.13
690.547	3905.99
690.737	4073.92
690.926	3809.73
691.116	3963.33
691.305	3975.62
691.495	3774.92
691.684	3811.78
691.874	3801.54
692.063	3832.26
692.252	3764.68
692.442	3740.1
692.631	3693
692.82	3719.62
693.01	3705.29
693.199	3707.34
693.388	3572.17
693.578	3635.66
693.767	3670.47
693.956	3625.42
694.146	3547.59
694.335	3688.9
694.524	3697.1
694.713	3641.8
694.902	3541.45
695.092	3551.69
695.281	3758.53
695.47	3506.63
695.659	3625.42
695.848	3555.79
696.037	3488.2
696.226	3330.51
696.415	3434.96
696.604	3523.02
696.793	3496.39
696.982	3506.63
697.171	3307.98
697.36	3348.94
697.549	3451.34
697.738	3434.96
697.927	3348.94
698.116	3418.57
698.305	3387.85
698.494	3471.82
698.683	3326.41
698.872	3461.58
699.061	3467.72
699.25	3371.47
699.438	3400.14
699.627	3389.9
699.816	3496.39
700.005	3500.49
700.193	3453.39
700.382	3430.86
700.571	3404.24
700.76	3387.85
700.948	3394
701.137	3394
701.326	3350.99
701.514	3484.11
701.703	3412.43
701.892	3342.8
702.08	3543.5
702.269	3467.72
702.457	3332.56
702.646	3400.14
702.834	3312.08
703.023	3428.81
703.212	3396.04
703.4	3383.76
703.589	3260.88
703.777	3332.56
703.965	3418.57
704.154	3520.97
704.342	3373.52
704.531	3559.88
704.719	3367.37
704.907	3463.63
705.096	3520.97
705.284	3326.41
705.472	3404.24
705.661	3361.23
705.849	3326.41
706.037	3381.71
706.226	3404.24
706.414	3398.09
706.602	3332.56
706.79	3264.97
706.979	3355.08
707.167	3385.8
707.355	3238.35
707.543	3418.57
707.731	3465.68
707.919	3510.73
708.107	3453.39
708.296	3389.9
708.484	3363.28
708.672	3422.67
708.86	3445.2
709.048	3488.2
709.236	3465.68
709.424	3453.39
709.612	3342.8
709.8	3443.15
709.988	3480.01
710.176	3566.03
710.364	3480.01
710.551	3541.45
710.739	3303.89
710.927	3426.76
711.115	3572.17
711.303	3516.87
711.491	3457.48
711.679	3420.62
711.866	3537.35
712.054	3404.24
712.242	3426.76
712.43	3631.56
712.617	3512.78
712.805	3379.66
712.993	3428.81
713.181	3549.64
713.368	3551.69
713.556	3434.96
713.744	3457.48
713.931	3621.32
714.119	3596.75
714.306	3574.22
714.494	3500.49
714.682	3502.54
714.869	3492.3
715.057	3520.97
715.244	3498.44
715.432	3602.89
715.619	3625.42
715.807	3563.98
715.994	3617.22
716.182	3525.07
716.369	3576.27
716.556	3578.31
716.744	3400.14
716.931	3609.03
717.119	3588.55
717.306	3572.17
717.493	3684.81
717.681	3619.27
717.868	3635.66
718.055	3729.86
718.242	3647.94
718.43	3639.75
718.617	3627.46
718.804	3555.79
718.991	3815.88
719.179	3699.14
719.366	3613.13
719.553	3690.95
719.74	3656.14
719.927	3705.29
720.114	3498.44
720.301	3770.82
720.488	3666.38
720.676	3598.79
720.863	3682.76
721.05	3809.73
721.237	3742.15
721.424	3672.52
721.611	3623.37
721.798	3639.75
721.985	3596.75
722.172	3711.43
722.358	3846.6
722.545	3750.34
722.732	3760.58
722.919	3791.3
723.106	3766.73
723.293	3865.03
723.48	3717.58
723.667	3797.45
723.853	3695.05
724.04	3746.25
724.227	3768.77
724.414	3803.59
724.6	3826.12
724.787	3842.5
724.974	3887.56
725.161	3719.62
725.347	3731.91
725.534	3844.55
725.72	3842.5
725.907	3858.89
726.094	3938.76
726.28	4010.43
726.467	3819.97
726.653	3858.89
726.84	3869.12
727.027	3887.56
727.213	3840.45
727.4	3869.12
727.586	3924.42
727.773	3901.89
727.959	3842.5
728.145	3877.32
728.332	3805.64
728.518	3867.08
728.705	3998.15
728.891	3944.9
729.077	3944.9
729.264	3873.22
729.45	4026.82
729.636	3963.33
729.823	3881.41
730.009	3930.56
730.195	3918.28
730.382	4024.77
730.568	3949
730.754	3967.43
730.94	3846.6
731.126	3946.95
731.313	4035.01
731.499	3926.47
731.685	3973.57
731.871	4073.92
732.057	3918.28
732.243	3930.56
732.429	3946.95
732.615	4059.59
732.801	4092.35
732.987	4016.58
733.173	3981.76
733.359	4055.49
733.545	3926.47
733.731	3979.72
733.917	4145.6
734.103	4037.06
734.289	3885.51
734.475	3881.41
734.661	4139.46
734.847	4164.03
735.033	3961.28
735.219	4100.55
735.404	3994.05
735.59	4071.87
735.776	3840.45
735.962	4084.16
736.148	3967.43
736.333	4020.67
736.519	3977.67
736.705	3938.76
736.89	4000.19
737.076	4024.77
737.262	3920.32
737.447	4133.31
737.633	3897.8
737.819	3922.37
738.004	4020.67
738.19	3885.51
738.375	4047.3
738.561	4022.72
738.747	3965.38
738.932	3797.45
739.118	4020.67
739.303	4039.11
739.489	3961.28
739.674	3891.65
739.859	3957.19
740.045	3881.41
740.23	3905.99
740.416	3899.84
740.601	3957.19
740.786	3891.65
740.972	3903.94
741.157	3953.09
741.342	3920.32
741.528	3848.65
741.713	3897.8
741.898	3862.98
742.084	3879.36
742.269	3826.12
742.454	3875.27
742.639	3793.35
742.824	3779.01
743.01	3760.58
743.195	3926.47
743.38	3801.54
743.565	3770.82
743.75	3758.53
743.935	3819.97
744.12	3803.59
744.305	3621.32
744.49	3713.48
744.675	3785.16
744.86	3740.1
745.045	3627.46
745.23	3615.18
745.415	3725.77
745.6	3570.12
745.785	3557.83
745.97	3523.02
746.155	3461.58
746.34	3549.64
746.525	3559.88
746.71	3680.71
746.895	3350.99
747.079	3496.39
747.264	3488.2
747.449	3547.59
747.634	3434.96
747.819	3480.01
748.003	3416.52
748.188	3406.28
748.373	3520.97
748.557	3449.29
748.742	3363.28
748.927	3301.84
749.111	3324.37
749.296	3273.17
749.481	3312.08
749.665	3162.58
749.85	3240.4
750.034	3221.97
750.219	3236.3
750.404	3123.66
750.588	3160.53
750.773	2959.83
750.957	3127.76
751.141	2957.78
751.326	3058.13
751.51	3002.83
751.695	2935.25
751.879	3168.72
752.064	3045.84
752.248	2906.58
752.432	3035.6
752.617	2793.94
752.801	2886.1
752.985	3021.27
753.17	2793.94
753.354	2863.57
753.538	2974.16
753.722	2804.18
753.907	2748.89
754.091	2769.37
754.275	2800.09
754.459	2816.47
754.643	2740.69
754.828	2726.36
755.012	2730.45
755.196	2613.72
755.38	2609.62
755.564	2576.86
755.748	2597.34
755.932	2638.3
756.116	2511.32
756.3	2548.19
756.484	2626.01
756.668	2456.03
756.852	2511.32
757.036	2396.64
757.22	2425.31
757.404	2482.65
757.588	2382.3
757.772	2552.28
757.956	2406.88
758.14	2392.54
758.323	2259.42
758.507	2363.87
758.691	2355.68
758.875	2279.9
759.059	2284
759.242	2322.91
759.426	2243.04
759.61	2296.28
759.794	2081.25
759.977	2214.37
760.161	2341.34
760.345	2212.32
760.528	2169.31
760.712	2236.89
760.895	2222.56
761.079	2193.89
761.263	2050.53
761.446	2134.5
761.63	1974.75
761.813	2099.68
761.997	2066.91
762.18	2005.47
762.364	2030.05
762.547	1974.75
762.731	2017.76
762.914	2089.44
763.098	1901.03
763.281	2097.63
763.464	1923.55
763.648	1987.04
763.831	2003.43
764.015	2083.3
764.198	1995.23
764.381	1960.42
764.564	1880.55
764.748	2079.2
764.931	1972.71
765.114	1937.89
765.297	1972.71
765.481	1860.07
765.664	1931.75
765.847	1884.64
766.03	1876.45
766.213	2019.81
766.397	1831.4
766.58	1815.01
766.763	1944.03
766.946	1901.03
767.129	1931.75
767.312	1821.16
767.495	1790.44
767.678	1794.53
767.861	1759.72
768.044	1858.02
768.227	1708.52
768.41	1772
768.593	1804.77
768.776	1714.66
768.959	1632.74
769.142	1737.19
769.324	1755.62
769.507	1716.71
769.69	1606.12
769.873	1702.37
770.056	1755.62
770.239	1743.33
770.421	1640.93
770.604	1649.13
770.787	1649.13
770.97	1640.93
771.152	1630.7
771.335	1626.6
771.518	1563.11
771.7	1571.3
771.883	1681.89
772.066	1522.15
772.248	1548.78
772.431	1458.67
772.613	1577.45
772.796	1550.82
772.978	1548.78
773.161	1640.93
773.343	1456.62
773.526	1429.99
773.708	1432.04
773.891	1436.14
774.073	1495.53
774.256	1505.77
774.438	1518.06
774.621	1481.19
774.803	1493.48
774.985	1454.57
775.168	1462.76
775.35	1245.68
775.532	1415.66
775.715	1333.74
775.897	1391.08
776.079	1405.42
776.261	1376.75
776.444	1208.81
776.626	1372.65
776.808	1296.88
776.99	1253.87
777.173	1331.69
777.355	1221.1
777.537	1251.82
777.719	1341.93
777.901	1231.34
778.083	1122.8
778.265	1198.57
778.447	1237.49
778.629	1214.96
778.811	1331.69
778.993	1212.91
779.175	1210.86
779.357	1270.25
779.539	1214.96
779.721	1182.19
779.903	1157.61
780.085	1161.71
780.267	1094.13
780.449	1137.13
780.631	1135.09
780.812	1090.03
780.994	1012.21
781.176	1040.88
781.358	965.11
781.54	1126.89
781.721	1102.32
781.903	997.87
782.085	928.24
782.267	1034.74
782.448	995.82
782.63	944.63
782.812	977.39
782.993	969.2
783.175	973.3
783.357	948.72
783.538	938.48
783.72	934.39
783.901	956.91
784.083	944.63
784.264	928.24
784.446	852.47
784.627	874.99
784.809	850.42
784.99	932.34
785.172	897.52
785.353	870.9
785.535	807.41
785.716	950.77
785.897	877.04
786.079	793.08
786.26	846.32
786.441	805.36
786.623	856.56
786.804	836.08
786.985	745.97
787.167	762.36
787.348	743.92
787.529	829.94
787.71	842.23
787.891	842.23
788.073	731.64
788.254	674.29
788.435	786.93
788.616	758.26
788.797	682.49
788.978	780.79
789.159	690.68
789.34	764.4
789.522	745.97
789.703	674.29
789.884	682.49
790.065	610.81
790.246	737.78
790.427	688.63
790.607	737.78
790.788	588.28
790.969	623.09
791.15	631.29
791.331	590.33
791.512	666.1
791.693	635.38
791.874	635.38
792.054	727.54
792.235	705.01
792.416	627.19
792.597	582.14
792.778	729.59
792.958	666.1
793.139	623.09
793.32	596.47
793.5	563.7
793.681	580.09
793.862	672.25
794.042	547.32
794.223	559.61
794.404	580.09
794.584	590.33
794.765	600.57
794.945	645.62
795.126	526.84
795.306	532.98
795.487	619
795.667	559.61
795.848	569.85
796.028	537.08
796.209	635.38
796.389	586.23
796.57	487.93
796.75	559.61
796.93	498.17
797.111	492.02
797.291	575.99
797.471	446.97
797.652	461.3
797.832	506.36
798.012	481.78
798.192	547.32
798.373	506.36
798.553	455.16
798.733	608.76
798.913	352.76
799.093	551.42
799.274	467.45
799.454	526.84
799.634	444.92
799.814	530.94
799.994	496.12
800.174	451.07
800.354	463.35
800.534	371.19
800.714	551.42
800.894	379.39
801.074	414.2
801.254	514.55
801.434	508.41
801.614	360.95
801.794	373.24
801.974	1153.52
802.154	397.82
802.334	463.35
802.514	444.92
802.693	436.73
802.873	440.83
803.053	438.78
803.233	436.73
803.413	385.53
803.592	430.59
803.772	391.67
803.952	406.01
804.131	457.21
804.311	369.15
804.491	414.2
804.67	414.2
804.85	377.34
805.03	383.48
805.209	455.16
805.389	365.05
805.568	389.63
805.748	289.28
805.928	438.78
806.107	320
806.287	322.04
806.466	371.19
806.646	360.95
806.825	309.76
807.004	363
807.184	330.23
807.363	414.2
807.543	334.33
807.722	385.53
807.901	385.53
808.081	461.3
808.26	346.62
808.439	330.23
808.619	336.38
808.798	420.35
808.977	320
809.156	432.63
809.336	297.47
809.515	406.01
809.694	242.17
809.873	350.71
810.052	367.1
810.231	346.62
810.411	360.95
810.59	340.47
810.769	229.88
810.948	287.23
811.127	268.8
811.306	246.27
811.485	291.32
811.664	324.09
811.843	344.57
812.022	285.18
812.201	334.33
812.38	274.94
812.559	207.36
812.737	303.61
812.916	311.8
813.095	274.94
813.274	344.57
813.453	268.8
813.632	262.65
813.811	371.19
813.989	221.69
814.168	262.65
814.347	211.45
814.526	303.61
814.704	295.42
814.883	332.28
815.062	297.47
815.24	287.23
815.419	231.93
815.598	315.9
815.776	252.41
815.955	268.8
816.133	172.54
816.312	334.33
816.49	307.71
816.669	145.92
816.847	225.79
817.026	301.56
817.204	213.5
817.383	287.23
817.561	252.41
817.74	324.09
817.918	283.13
818.097	236.03
818.275	213.5
818.453	256.51
818.632	240.12
818.81	250.36
818.988	199.16
819.167	209.4
819.345	262.65
819.523	244.22
819.701	217.6
819.879	250.36
820.058	238.08
820.236	168.45
820.414	240.12
820.592	190.97
820.77	229.88
820.948	150.01
821.127	143.87
821.305	301.56
821.483	236.03
821.661	322.04
821.839	225.79
822.017	199.16
822.195	209.4
822.373	195.07
822.551	203.26
822.729	311.8
822.907	150.01
823.085	207.36
823.262	276.99
823.44	172.54
823.618	195.07
823.796	197.12
823.974	215.55
824.152	205.31
824.329	127.49
824.507	264.7
824.685	160.25
824.863	141.82
825.04	195.07
825.218	197.12
825.396	205.31
825.574	109.05
825.751	215.55
825.929	240.12
826.107	203.26
826.284	266.75
826.462	242.17
826.639	170.49
826.817	225.79
826.994	184.83
827.172	178.69
827.349	170.49
827.527	215.55
827.704	180.73
827.882	207.36
828.059	145.92
828.237	176.64
828.414	199.16
828.591	154.11
828.769	170.49
828.946	137.73
829.124	147.97
829.301	107.01
829.478	143.87
829.655	190.97
829.833	147.97
830.01	115.2
830.187	266.75
830.364	98.81
830.542	193.02
830.719	213.5
830.896	201.21
831.073	199.16
831.25	195.07
831.427	164.35
831.604	158.21
831.782	84.48
831.959	190.97
832.136	111.1
832.313	211.45
832.49	205.31
832.667	147.97
832.844	70.14
833.021	229.88
833.198	129.53
833.374	162.3
833.551	123.39
833.728	119.29
833.905	186.88
834.082	86.53
834.259	176.64
834.436	248.32
834.612	152.06
834.789	102.91
834.966	82.43
835.143	182.78
835.319	102.91
835.496	131.58
835.673	139.77
835.85	139.77
836.026	158.21
836.203	205.31
836.38	98.81
836.556	133.63
836.733	84.48
836.909	203.26
837.086	68.09
837.262	76.29
837.439	164.35
837.616	111.1
837.792	147.97
837.968	117.25
838.145	66.05
838.321	168.45
838.498	141.82
838.674	162.3
838.851	123.39
839.027	147.97
839.203	78.33
839.38	154.11
839.556	94.72
839.732	98.81
839.909	43.52
840.085	123.39
840.261	96.77
840.437	111.1
840.614	147.97
840.79	92.67
840.966	139.77
841.142	109.05
841.318	141.82
841.494	166.4
841.671	55.81
841.847	80.38
842.023	115.2
842.199	152.06
842.375	88.57
842.551	33.28
842.727	72.19
842.903	188.93
843.079	33.28
843.255	133.63
843.431	156.16
843.607	166.4
843.783	64
843.959	119.29
844.134	18.94
844.31	96.77
844.486	61.95
844.662	27.14
844.838	72.19
845.013	123.39
845.189	154.11
845.365	102.91
845.541	102.91
845.716	23.04
845.892	98.81
846.068	127.49
846.244	35.33
846.419	121.34
846.595	12.8
846.77	76.29
846.946	100.86
847.122	72.19
847.297	37.38
847.473	109.05
847.648	86.53
847.824	90.62
847.999	51.71
848.175	127.49
848.35	47.62
848.526	156.16
848.701	70.14
848.876	131.58
849.052	117.25
849.227	88.57
849.403	-50.69
849.578	127.49
849.753	90.62
849.929	88.57
850.104	35.33
850.279	72.19
850.454	0.51
850.63	59.9
850.805	53.76
850.98	10.75
851.155	121.34
851.33	49.66
851.505	90.62
851.681	98.81
851.856	70.14
852.031	47.62
852.206	98.81
852.381	2.56
852.556	104.96
852.731	78.33
852.906	29.18
853.081	37.38
853.256	80.38
853.431	35.33
853.606	43.52
853.781	12.8
853.956	86.53
854.131	127.49
854.305	8.7
854.48	16.9
854.655	29.18
854.83	49.66
855.005	76.29
855.18	72.19
855.354	94.72
855.529	133.63
855.704	72.19
855.879	68.09
856.053	0.51
856.228	82.43
856.403	49.66
856.577	72.19
856.752	-7.68
856.926	47.62
857.101	119.29
857.276	57.86
857.45	92.67
857.625	72.19
857.799	102.91
857.974	47.62
858.148	-13.82
858.323	31.23
858.497	80.38
858.672	25.09
858.846	53.76
859.02	74.24
859.195	27.14
859.369	12.8
859.543	100.86
859.718	94.72
859.892	57.86
860.066	39.42
860.241	49.66
860.415	66.05
860.589	72.19
860.763	29.18
860.938	-22.02
861.112	45.57
861.286	127.49
861.46	23.04
861.634	12.8
861.808	107.01
861.982	47.62
862.157	0.51
862.331	78.33
862.505	0.51
862.679	8.7
862.853	10.75
863.027	53.76
863.201	160.25
863.375	4.61
863.549	23.04
863.722	8.7
863.896	61.95
864.07	-5.63
864.244	29.18
864.418	82.43
864.592	131.58
864.766	23.04
864.939	14.85
865.113	82.43
865.287	129.53
865.461	31.23
865.634	96.77
865.808	12.8
865.982	12.8
866.156	96.77
866.329	121.34
866.503	43.52
866.676	55.81
866.85	70.14
867.024	29.18
867.197	18.94
867.371	92.67
867.544	10.75
867.718	47.62
867.891	141.82
868.065	43.52
868.238	8.7
868.412	27.14
868.585	-26.11
868.759	51.71
868.932	18.94
869.105	35.33
869.279	-26.11
869.452	64
869.625	51.71
869.799	64
869.972	45.57
870.145	55.81
870.319	35.33
870.492	104.96
870.665	66.05
870.838	-7.68
871.011	29.18
871.185	4.61
871.358	64
871.531	64
871.704	14.85
871.877	111.1
872.05	14.85
872.223	35.33
872.396	16.9
872.569	78.33
872.742	-28.16
872.915	59.9
873.088	-7.68
873.261	8.7
873.434	70.14
873.607	-5.63
873.78	64
873.953	51.71
874.126	31.23
874.299	70.14
874.471	27.14
874.644	29.18
874.817	43.52
874.99	37.38
875.163	41.47
875.335	43.52
875.508	18.94
875.681	70.14
875.853	41.47
876.026	80.38
876.199	115.2
876.371	39.42
876.544	27.14
876.717	55.81
876.889	70.14
877.062	-15.87
877.234	0.51
877.407	-17.92
877.579	59.9
877.752	16.9
877.924	0.51
878.097	94.72
878.269	10.75
878.442	31.23
878.614	141.82
878.786	-40.45
878.959	43.52
879.131	29.18
879.303	45.57
879.476	37.38
879.648	14.85
879.82	12.8
879.993	33.28
880.165	18.94
880.337	-19.97
880.509	68.09
880.681	-58.88
880.854	31.23
881.026	113.15
881.198	78.33
881.37	51.71
881.542	61.95
881.714	8.7
881.886	-24.06
882.058	0.51
882.23	57.86
882.402	51.71
882.574	29.18
882.746	66.05
882.918	86.53
883.09	59.9
883.262	16.9
883.434	94.72
883.606	-19.97
883.778	-5.63
883.95	72.19
884.122	27.14
884.293	88.57
884.465	20.99
884.637	47.62
884.809	53.76
884.98	-15.87
885.152	78.33
885.324	31.23
885.496	33.28
885.667	43.52
885.839	-26.11
886.011	49.66
886.182	-40.45
886.354	45.57
886.525	-9.73
886.697	49.66
886.869	37.38
887.04	-1.54
887.212	25.09
887.383	115.2
887.555	29.18
887.726	6.66
887.897	-7.68
888.069	74.24
888.24	64
888.412	-22.02
888.583	25.09
888.754	-13.82
888.926	-19.97
889.097	-1.54
889.268	-3.58
889.44	10.75
889.611	43.52
889.782	10.75
889.953	-38.4
890.125	127.49
890.296	-62.98
890.467	31.23
890.638	25.09
890.809	25.09
890.98	-15.87
891.151	88.57
891.323	25.09
891.494	27.14
891.665	-48.64
891.836	-36.35
892.007	4.61
892.178	31.23
892.349	39.42
892.52	14.85
892.691	37.38
892.862	31.23
893.032	-46.59
893.203	66.05
893.374	-67.07
893.545	143.87
893.716	14.85
893.887	82.43
894.057	-52.74
894.228	-44.54
894.399	2.56
894.57	107.01
894.74	78.33
894.911	49.66
895.082	-13.82
895.253	10.75
895.423	41.47
895.594	64
895.764	49.66
895.935	23.04
896.106	92.67
896.276	-40.45
896.447	37.38
896.617	41.47
896.788	10.75
896.958	-9.73
897.129	27.14
897.299	-13.82
897.47	43.52
897.64	41.47
897.81	27.14
897.981	31.23
898.151	27.14
898.322	8.7
898.492	111.1
898.662	0.51
898.832	-50.69
899.003	16.9
899.173	-22.02
899.343	20.99
899.513	-46.59
