Data from USB4F104151__43__12-23-53-524.txt Node

Date: Fri Mar 14 12:23:53 EDT 2025
User: louis
Spectrometer: USB4F10415
Trigger mode: 4
Integration Time (sec): 3.500000E-2
Scans to average: 1
Electric dark correction enabled: true
Nonlinearity correction enabled: false
Boxcar width: 0
XAxis mode: Wavelengths
Number of Pixels in Spectrum: 3648
>>>>>Begin Spectral Data<<<<<
178.204	-150.7
178.424	-150.7
178.644	-150.7
178.864	-226.47
179.084	-136.36
179.304	-42.15
179.524	25.43
179.744	-42.15
179.964	66.39
180.184	-7.34
180.404	19.29
180.624	39.76
180.844	-76.97
181.064	25.43
181.283	7
181.503	-27.82
181.723	13.14
181.943	-66.73
182.163	54.1
182.383	33.62
182.602	-3.24
182.822	23.38
183.042	60.24
183.262	-44.2
183.482	-3.24
183.701	27.48
183.921	-38.06
184.141	21.33
184.361	17.24
184.58	2.9
184.8	11.09
185.02	11.09
185.239	76.63
185.459	43.86
185.679	-19.63
185.898	-1.19
186.118	54.1
186.338	25.43
186.557	84.82
186.777	-38.06
186.997	-13.48
187.216	23.38
187.436	41.81
187.655	-1.19
187.875	-3.24
188.095	-11.43
188.314	41.81
188.534	21.33
188.753	0.85
188.973	39.76
189.192	52.05
189.412	33.62
189.631	43.86
189.851	-7.34
190.07	125.78
190.29	4.95
190.509	-72.87
190.729	50
190.948	52.05
191.168	138.07
191.387	62.29
191.607	-3.24
191.826	52.05
192.045	2.9
192.265	-44.2
192.484	76.63
192.704	-13.48
192.923	-21.67
193.142	78.68
193.362	50
193.581	-3.24
193.8	31.57
194.02	52.05
194.239	-17.58
194.458	-17.58
194.678	31.57
194.897	52.05
195.116	-15.53
195.335	-11.43
195.555	-15.53
195.774	21.33
195.993	33.62
196.212	-21.67
196.432	54.1
196.651	50
196.87	-13.48
197.089	136.02
197.308	-21.67
197.528	-48.3
197.747	-60.59
197.966	58.2
198.185	58.2
198.404	4.95
198.623	-17.58
198.842	111.44
199.062	41.81
199.281	95.06
199.5	37.72
199.719	43.86
199.938	15.19
200.157	25.43
200.376	62.29
200.595	39.76
200.814	-21.67
201.033	50
201.252	-3.24
201.471	7
201.69	-9.39
201.909	70.48
202.128	27.48
202.347	33.62
202.566	9.05
202.785	13.14
203.004	-13.48
203.223	31.57
203.442	25.43
203.661	-33.96
203.879	4.95
204.098	-23.72
204.317	-25.77
204.536	68.44
204.755	47.96
204.974	45.91
205.193	21.33
205.411	105.3
205.63	-25.77
205.849	47.96
206.068	37.72
206.287	19.29
206.505	54.1
206.724	15.19
206.943	2.9
207.162	50
207.381	52.05
207.599	2.9
207.818	-40.11
208.037	2.9
208.255	47.96
208.474	60.24
208.693	68.44
208.911	-1.19
209.13	-23.72
209.349	58.2
209.567	43.86
209.786	80.72
210.005	29.52
210.223	43.86
210.442	-46.25
210.661	2.9
210.879	9.05
211.098	-1.19
211.316	0.85
211.535	84.82
211.753	9.05
211.972	-46.25
212.191	45.91
212.409	9.05
212.628	58.2
212.846	25.43
213.065	52.05
213.283	70.48
213.502	-7.34
213.72	19.29
213.938	-19.63
214.157	-38.06
214.375	78.68
214.594	-91.31
214.812	41.81
215.031	23.38
215.249	-1.19
215.467	68.44
215.686	-17.58
215.904	84.82
216.122	19.29
216.341	76.63
216.559	-29.87
216.778	64.34
216.996	23.38
217.214	109.4
217.432	-68.78
217.651	-58.54
217.869	21.33
218.087	-27.82
218.306	68.44
218.524	-15.53
218.742	-1.19
218.96	0.85
219.179	-48.3
219.397	15.19
219.615	78.68
219.833	78.68
220.051	29.52
220.27	60.24
220.488	33.62
220.706	72.53
220.924	60.24
221.142	2.9
221.36	7
221.578	-27.82
221.796	45.91
222.015	50
222.233	31.57
222.451	39.76
222.669	-19.63
222.887	33.62
223.105	-85.16
223.323	-13.48
223.541	11.09
223.759	4.95
223.977	-17.58
224.195	99.16
224.413	23.38
224.631	-21.67
224.849	35.67
225.067	123.73
225.285	-23.72
225.503	13.14
225.721	-83.11
225.939	25.43
226.157	72.53
226.375	111.44
226.592	-23.72
226.81	-29.87
227.028	37.72
227.246	119.64
227.464	-5.29
227.682	-40.11
227.9	37.72
228.117	-23.72
228.335	21.33
228.553	107.35
228.771	9.05
228.989	82.77
229.206	66.39
229.424	-52.39
229.642	-23.72
229.86	11.09
230.077	80.72
230.295	-7.34
230.513	45.91
230.731	9.05
230.948	43.86
231.166	35.67
231.384	39.76
231.601	-44.2
231.819	45.91
232.037	-3.24
232.254	31.57
232.472	64.34
232.689	50
232.907	9.05
233.125	-33.96
233.342	64.34
233.56	80.72
233.777	-11.43
233.995	15.19
234.213	82.77
234.43	-52.39
234.648	29.52
234.865	-11.43
235.083	27.48
235.3	2.9
235.518	52.05
235.735	47.96
235.953	-13.48
236.17	-44.2
236.388	31.57
236.605	27.48
236.822	78.68
237.04	146.26
237.257	-29.87
237.475	-79.02
237.692	19.29
237.909	64.34
238.127	13.14
238.344	-3.24
238.562	45.91
238.779	-7.34
238.996	2.9
239.214	-17.58
239.431	33.62
239.648	64.34
239.865	66.39
240.083	-11.43
240.3	70.48
240.517	-21.67
240.735	17.24
240.952	52.05
241.169	4.95
241.386	29.52
241.603	17.24
241.821	-50.35
242.038	64.34
242.255	99.16
242.472	-1.19
242.689	17.24
242.907	17.24
243.124	41.81
243.341	33.62
243.558	-15.53
243.775	-40.11
243.992	4.95
244.209	66.39
244.426	131.92
244.643	4.95
244.86	-17.58
245.078	29.52
245.295	41.81
245.512	-17.58
245.729	-17.58
245.946	-5.29
246.163	72.53
246.38	-9.39
246.597	4.95
246.814	19.29
247.031	13.14
247.248	76.63
247.464	33.62
247.681	9.05
247.898	39.76
248.115	72.53
248.332	-50.35
248.549	72.53
248.766	84.82
248.983	21.33
249.2	-11.43
249.417	27.48
249.633	41.81
249.85	-5.29
250.067	4.95
250.284	72.53
250.501	4.95
250.717	43.86
250.934	-3.24
251.151	50
251.368	-7.34
251.585	54.1
251.801	101.2
252.018	13.14
252.235	58.2
252.451	-27.82
252.668	-11.43
252.885	31.57
253.102	-42.15
253.318	27.48
253.535	-54.44
253.752	41.81
253.968	19.29
254.185	31.57
254.401	88.92
254.618	21.33
254.835	62.29
255.051	113.49
255.268	33.62
255.484	70.48
255.701	37.72
255.917	37.72
256.134	11.09
256.351	15.19
256.567	31.57
256.784	-23.72
257	-48.3
257.217	31.57
257.433	29.52
257.65	37.72
257.866	21.33
258.082	35.67
258.299	-15.53
258.515	-3.24
258.732	-27.82
258.948	47.96
259.165	45.91
259.381	-46.25
259.597	33.62
259.814	-58.54
260.03	-5.29
260.246	-23.72
260.463	17.24
260.679	78.68
260.895	19.29
261.112	4.95
261.328	50
261.544	-3.24
261.761	54.1
261.977	4.95
262.193	4.95
262.409	72.53
262.626	47.96
262.842	29.52
263.058	-38.06
263.274	125.78
263.49	37.72
263.707	15.19
263.923	25.43
264.139	60.24
264.355	2.9
264.571	15.19
264.787	90.96
265.004	109.4
265.22	99.16
265.436	23.38
265.652	33.62
265.868	-17.58
266.084	-13.48
266.3	-9.39
266.516	-19.63
266.732	62.29
266.948	-33.96
267.164	52.05
267.38	39.76
267.596	11.09
267.812	60.24
268.028	15.19
268.244	25.43
268.46	27.48
268.676	-21.67
268.892	37.72
269.108	0.85
269.324	2.9
269.54	-11.43
269.756	88.92
269.972	-1.19
270.188	33.62
270.403	-33.96
270.619	50
270.835	119.64
271.051	47.96
271.267	-11.43
271.483	-25.77
271.698	80.72
271.914	60.24
272.13	47.96
272.346	-13.48
272.562	47.96
272.777	-87.21
272.993	-40.11
273.209	-7.34
273.425	50
273.64	31.57
273.856	76.63
274.072	88.92
274.287	60.24
274.503	25.43
274.719	72.53
274.934	37.72
275.15	-76.97
275.366	50
275.581	90.96
275.797	37.72
276.012	21.33
276.228	-64.68
276.444	54.1
276.659	45.91
276.875	-58.54
277.09	62.29
277.306	-64.68
277.521	62.29
277.737	52.05
277.952	39.76
278.168	-5.29
278.383	52.05
278.599	15.19
278.814	7
279.03	9.05
279.245	31.57
279.461	-17.58
279.676	80.72
279.892	21.33
280.107	56.15
280.322	4.95
280.538	0.85
280.753	45.91
280.969	68.44
281.184	23.38
281.399	41.81
281.615	-3.24
281.83	41.81
282.045	33.62
282.26	13.14
282.476	64.34
282.691	152.4
282.906	29.52
283.122	66.39
283.337	-13.48
283.552	-19.63
283.767	-15.53
283.983	-7.34
284.198	-23.72
284.413	-7.34
284.628	-68.78
284.843	70.48
285.058	17.24
285.274	45.91
285.489	-36.01
285.704	58.2
285.919	31.57
286.134	11.09
286.349	41.81
286.564	2.9
286.779	68.44
286.995	47.96
287.21	50
287.425	-85.16
287.64	17.24
287.855	33.62
288.07	-17.58
288.285	74.58
288.5	41.81
288.715	-11.43
288.93	2.9
289.145	4.95
289.36	7
289.575	29.52
289.79	21.33
290.004	27.48
290.219	72.53
290.434	82.77
290.649	29.52
290.864	-5.29
291.079	-17.58
291.294	21.33
291.509	-17.58
291.724	-91.31
291.938	-7.34
292.153	37.72
292.368	2.9
292.583	9.05
292.798	27.48
293.012	68.44
293.227	9.05
293.442	-33.96
293.657	50
293.871	39.76
294.086	23.38
294.301	54.1
294.516	50
294.73	31.57
294.945	-31.91
295.16	-99.5
295.374	86.87
295.589	64.34
295.804	62.29
296.018	35.67
296.233	80.72
296.447	7
296.662	-17.58
296.877	86.87
297.091	0.85
297.306	70.48
297.52	0.85
297.735	-1.19
297.949	60.24
298.164	60.24
298.378	-27.82
298.593	2.9
298.807	2.9
299.022	-29.87
299.236	70.48
299.451	-3.24
299.665	19.29
299.88	68.44
300.094	52.05
300.309	-5.29
300.523	58.2
300.737	33.62
300.952	86.87
301.166	90.96
301.381	7
301.595	4.95
301.809	70.48
302.024	60.24
302.238	31.57
302.452	45.91
302.667	-23.72
302.881	45.91
303.095	80.72
303.309	35.67
303.524	-1.19
303.738	2.9
303.952	90.96
304.166	21.33
304.381	-42.15
304.595	109.4
304.809	60.24
305.023	0.85
305.237	-9.39
305.452	-38.06
305.666	21.33
305.88	82.77
306.094	90.96
306.308	11.09
306.522	9.05
306.736	21.33
306.95	47.96
307.164	45.91
307.379	43.86
307.593	62.29
307.807	74.58
308.021	80.72
308.235	23.38
308.449	-23.72
308.663	11.09
308.877	133.97
309.091	23.38
309.305	-31.91
309.519	-11.43
309.733	70.48
309.947	4.95
310.161	31.57
310.374	-19.63
310.588	52.05
310.802	17.24
311.016	86.87
311.23	-13.48
311.444	60.24
311.658	-56.49
311.872	-46.25
312.085	39.76
312.299	86.87
312.513	54.1
312.727	31.57
312.941	-33.96
313.154	45.91
313.368	13.14
313.582	-9.39
313.796	33.62
314.009	88.92
314.223	47.96
314.437	47.96
314.651	58.2
314.864	-1.19
315.078	66.39
315.292	-9.39
315.505	23.38
315.719	9.05
315.933	21.33
316.146	2.9
316.36	-21.67
316.573	86.87
316.787	50
317.001	11.09
317.214	47.96
317.428	41.81
317.641	-27.82
317.855	11.09
318.068	37.72
318.282	35.67
318.495	99.16
318.709	56.15
318.922	17.24
319.136	78.68
319.349	-23.72
319.563	43.86
319.776	7
319.99	62.29
320.203	4.95
320.417	2.9
320.63	37.72
320.843	60.24
321.057	56.15
321.27	-7.34
321.483	21.33
321.697	84.82
321.91	95.06
322.124	41.81
322.337	33.62
322.55	2.9
322.763	35.67
322.977	13.14
323.19	-7.34
323.403	-3.24
323.617	58.2
323.83	-13.48
324.043	47.96
324.256	29.52
324.469	56.15
324.683	47.96
324.896	39.76
325.109	23.38
325.322	-31.91
325.535	93.01
325.748	66.39
325.962	-38.06
326.175	4.95
326.388	-1.19
326.601	-23.72
326.814	62.29
327.027	2.9
327.24	19.29
327.453	-29.87
327.666	21.33
327.879	97.11
328.092	54.1
328.305	41.81
328.518	9.05
328.731	-19.63
328.944	37.72
329.157	21.33
329.37	17.24
329.583	109.4
329.796	86.87
330.009	97.11
330.222	50
330.435	52.05
330.648	52.05
330.861	-11.43
331.073	0.85
331.286	-3.24
331.499	99.16
331.712	-27.82
331.925	-5.29
332.138	27.48
332.35	56.15
332.563	2.9
332.776	41.81
332.989	45.91
333.202	19.29
333.414	25.43
333.627	9.05
333.84	52.05
334.053	41.81
334.265	37.72
334.478	-62.63
334.691	-29.87
334.903	-5.29
335.116	47.96
335.329	13.14
335.541	-48.3
335.754	-36.01
335.966	-27.82
336.179	74.58
336.392	37.72
336.604	45.91
336.817	21.33
337.029	-21.67
337.242	56.15
337.454	50
337.667	15.19
337.88	84.82
338.092	56.15
338.305	88.92
338.517	50
338.729	33.62
338.942	58.2
339.154	11.09
339.367	50
339.579	4.95
339.792	27.48
340.004	93.01
340.217	60.24
340.429	41.81
340.641	123.73
340.854	15.19
341.066	2.9
341.278	-3.24
341.491	111.44
341.703	80.72
341.915	7
342.128	66.39
342.34	-19.63
342.552	37.72
342.764	41.81
342.977	-3.24
343.189	7
343.401	58.2
343.613	-50.35
343.826	43.86
344.038	-23.72
344.25	27.48
344.462	37.72
344.674	33.62
344.886	13.14
345.099	13.14
345.311	-27.82
345.523	-38.06
345.735	-95.4
345.947	4.95
346.159	-48.3
346.371	70.48
346.583	70.48
346.795	70.48
347.007	45.91
347.219	129.88
347.431	-29.87
347.643	41.81
347.855	25.43
348.067	93.01
348.279	2.9
348.491	99.16
348.703	84.82
348.915	15.19
349.127	-74.92
349.339	39.76
349.551	50
349.763	80.72
349.975	31.57
350.187	60.24
350.399	15.19
350.61	4.95
350.822	103.25
351.034	-17.58
351.246	-17.58
351.458	39.76
351.669	21.33
351.881	70.48
352.093	-17.58
352.305	60.24
352.517	29.52
352.728	60.24
352.94	19.29
353.152	11.09
353.363	15.19
353.575	-7.34
353.787	37.72
353.999	90.96
354.21	99.16
354.422	-52.39
354.633	41.81
354.845	29.52
355.057	54.1
355.268	15.19
355.48	37.72
355.692	23.38
355.903	99.16
356.115	-58.54
356.326	19.29
356.538	74.58
356.749	35.67
356.961	76.63
357.172	43.86
357.384	23.38
357.595	138.07
357.807	7
358.018	35.67
358.23	13.14
358.441	99.16
358.653	13.14
358.864	64.34
359.075	-21.67
359.287	62.29
359.498	54.1
359.709	-13.48
359.921	-17.58
360.132	7
360.344	107.35
360.555	72.53
360.766	39.76
360.977	50
361.189	70.48
361.4	-31.91
361.611	19.29
361.823	70.48
362.034	64.34
362.245	29.52
362.456	-31.91
362.667	-1.19
362.879	43.86
363.09	82.77
363.301	41.81
363.512	-3.24
363.723	17.24
363.935	11.09
364.146	90.96
364.357	105.3
364.568	27.48
364.779	-29.87
364.99	164.69
365.201	72.53
365.412	111.44
365.623	-27.82
365.834	76.63
366.045	13.14
366.256	138.07
366.467	99.16
366.678	-46.25
366.889	31.57
367.1	54.1
367.311	84.82
367.522	70.48
367.733	150.36
367.944	-3.24
368.155	-42.15
368.366	86.87
368.577	70.48
368.788	52.05
368.999	-48.3
369.209	66.39
369.42	72.53
369.631	117.59
369.842	56.15
370.053	-9.39
370.264	66.39
370.474	-21.67
370.685	15.19
370.896	111.44
371.107	35.67
371.317	25.43
371.528	-81.07
371.739	84.82
371.95	54.1
372.16	45.91
372.371	11.09
372.582	-21.67
372.792	43.86
373.003	19.29
373.214	60.24
373.424	27.48
373.635	15.19
373.846	142.16
374.056	37.72
374.267	-11.43
374.477	19.29
374.688	39.76
374.898	4.95
375.109	-21.67
375.319	-1.19
375.53	33.62
375.74	99.16
375.951	7
376.161	72.53
376.372	62.29
376.582	113.49
376.793	76.63
377.003	47.96
377.214	70.48
377.424	80.72
377.635	41.81
377.845	107.35
378.055	56.15
378.266	-25.77
378.476	-21.67
378.686	43.86
378.897	21.33
379.107	80.72
379.317	2.9
379.528	33.62
379.738	103.25
379.948	23.38
380.158	56.15
380.369	15.19
380.579	-7.34
380.789	168.79
380.999	90.96
381.21	35.67
381.42	111.44
381.63	31.57
381.84	27.48
382.05	54.1
382.261	41.81
382.471	29.52
382.681	29.52
382.891	66.39
383.101	68.44
383.311	21.33
383.521	-1.19
383.731	105.3
383.941	84.82
384.151	72.53
384.361	50
384.571	70.48
384.781	21.33
384.991	74.58
385.201	35.67
385.411	68.44
385.621	23.38
385.831	70.48
386.041	50
386.251	50
386.461	82.77
386.671	4.95
386.881	27.48
387.091	37.72
387.301	113.49
387.511	43.86
387.72	56.15
387.93	43.86
388.14	23.38
388.35	97.11
388.56	119.64
388.769	111.44
388.979	13.14
389.189	45.91
389.399	43.86
389.609	148.31
389.818	56.15
390.028	117.59
390.238	115.54
390.447	15.19
390.657	76.63
390.867	54.1
391.076	-15.53
391.286	-36.01
391.496	60.24
391.705	-15.53
391.915	54.1
392.125	78.68
392.334	2.9
392.544	166.74
392.753	47.96
392.963	54.1
393.172	47.96
393.382	68.44
393.591	136.02
393.801	66.39
394.01	107.35
394.22	62.29
394.429	90.96
394.639	9.05
394.848	68.44
395.058	54.1
395.267	9.05
395.477	166.74
395.686	131.92
395.895	117.59
396.105	58.2
396.314	115.54
396.524	45.91
396.733	7
396.942	33.62
397.152	133.97
397.361	99.16
397.57	90.96
397.78	90.96
397.989	154.45
398.198	109.4
398.407	84.82
398.617	113.49
398.826	84.82
399.035	115.54
399.244	74.58
399.453	131.92
399.663	95.06
399.872	115.54
400.081	25.43
400.29	111.44
400.499	76.63
400.708	86.87
400.917	115.54
401.127	146.26
401.336	97.11
401.545	213.84
401.754	105.3
401.963	156.5
402.172	-5.29
402.381	64.34
402.59	72.53
402.799	76.63
403.008	111.44
403.217	95.06
403.426	74.58
403.635	80.72
403.844	117.59
404.053	144.21
404.262	119.64
404.471	80.72
404.68	199.51
404.888	95.06
405.097	166.74
405.306	129.88
405.515	156.5
405.724	183.12
405.933	148.31
406.142	205.65
406.35	131.92
406.559	201.55
406.768	193.36
406.977	191.31
407.185	250.71
407.394	197.46
407.603	125.78
407.812	213.84
408.02	250.71
408.229	176.98
408.438	156.5
408.646	121.68
408.855	242.51
409.064	217.94
409.272	146.26
409.481	201.55
409.69	201.55
409.898	209.75
410.107	287.57
410.315	314.19
410.524	258.9
410.733	320.34
410.941	320.34
411.15	289.62
411.358	316.24
411.567	381.78
411.775	404.3
411.984	373.58
412.192	441.17
412.401	400.21
412.609	432.97
412.818	482.13
413.026	432.97
413.234	435.02
413.443	453.45
413.651	475.98
413.86	562
414.068	537.42
414.276	592.72
414.485	547.66
414.693	564.04
414.901	674.64
415.11	619.34
415.318	672.59
415.526	672.59
415.734	666.44
415.943	660.3
416.151	791.37
416.359	740.17
416.567	756.55
416.776	809.8
416.984	858.95
417.192	910.15
417.4	889.67
417.608	1000.26
417.817	1010.5
418.025	1049.41
418.233	1063.75
418.441	1030.98
418.649	1088.32
418.857	1203.01
419.065	1233.73
419.273	1129.28
419.481	1209.15
419.689	1262.4
419.897	1389.38
420.105	1418.05
420.313	1430.34
420.521	1540.93
420.729	1561.41
420.937	1557.31
421.145	1559.36
421.353	1631.04
421.561	1846.07
421.769	1884.98
421.977	1854.27
422.185	1770.3
422.393	2001.72
422.601	2081.59
422.809	2083.64
423.017	2136.88
423.224	2130.74
423.432	2360.11
423.64	2347.83
423.848	2530.09
424.056	2437.94
424.263	2554.67
424.471	2638.64
424.679	2769.71
424.887	2835.24
425.094	2970.41
425.302	2738.99
425.51	2994.98
425.718	3056.42
425.925	3205.92
426.133	3277.6
426.341	3529.5
426.548	3642.14
426.756	3810.08
426.964	3724.06
427.171	3834.65
427.379	3959.58
427.586	4178.71
427.794	4156.18
428.001	4487.95
428.209	4569.87
428.417	4543.25
428.624	4875.02
428.832	4860.68
429.039	4746
429.247	4834.06
429.454	5296.9
429.662	5620.48
429.869	5266.18
430.076	5839.61
430.284	5573.38
430.491	5669.63
430.699	6111.99
430.906	5950.2
431.114	5980.92
431.321	6408.95
431.528	6494.96
431.736	6939.37
431.943	7172.84
432.15	6966
432.358	6951.66
432.565	7625.44
432.772	7250.66
432.979	7656.16
433.187	7850.72
433.394	7697.12
433.601	8553.17
433.808	8628.95
434.016	8495.83
434.223	8803.02
434.43	9300.68
434.637	9255.62
434.844	10013.37
435.052	10027.71
435.259	9945.79
435.466	9904.83
435.673	9851.58
435.88	10666.67
436.087	11072.17
436.294	11164.33
436.501	10846.9
436.708	11006.64
436.915	11494.05
437.122	11938.46
437.329	12104.35
437.537	12216.99
437.743	12563.09
437.95	12235.42
438.157	13128.33
438.364	13607.56
438.571	13527.69
438.778	13798.02
438.985	14772.85
439.192	14316.15
439.399	14623.35
439.606	14443.13
439.813	15227.5
440.02	15919.71
440.227	15927.91
440.433	15741.54
440.64	16544.34
440.847	16159.33
441.054	16380.51
441.261	17709.64
441.467	17078.86
441.674	17619.53
441.881	18506.3
442.088	18205.25
442.294	18137.66
442.501	18725.43
442.708	19229.23
442.914	19937.83
443.121	20701.72
443.328	20064.8
443.534	21699.08
443.741	20818.46
443.948	20220.45
444.154	22127.11
444.361	22254.08
444.568	22206.98
444.774	22219.27
444.981	22534.65
445.187	23157.24
445.394	23884.26
445.6	24017.38
445.807	26202.57
446.013	25270.74
446.22	25186.77
446.426	26556.86
446.633	26692.03
446.839	27627.95
447.046	26292.68
447.252	27630
447.459	28195.24
447.665	27670.96
447.871	29280.66
448.078	30648.71
448.284	28850.59
448.491	29757.84
448.697	30869.89
448.903	31500.66
449.11	31381.88
449.316	31117.69
449.522	31584.63
449.728	32639.33
449.935	32627.04
450.141	32719.2
450.347	33450.33
450.553	32532.84
450.76	32678.24
450.966	33898.83
451.172	33548.63
451.378	34492.74
451.584	33751.38
451.791	34416.97
451.997	34019.66
452.203	34679.11
452.409	34840.9
452.615	34308.43
452.821	33364.31
453.027	33014.11
453.233	34822.47
453.44	33216.86
453.646	33894.74
453.852	34011.47
454.058	34611.53
454.264	33184.09
454.47	33878.35
454.676	33257.82
454.882	34224.46
455.088	31439.22
455.294	31908.21
455.5	32184.68
455.705	32479.59
455.911	31390.07
456.117	30603.65
456.323	30263.69
456.529	28674.46
456.735	29964.68
456.941	28832.16
457.147	28553.63
457.352	27834.8
457.558	27331
457.764	27187.64
457.97	26800.57
458.176	26397.12
458.381	26440.13
458.587	25051.61
458.793	24793.56
458.999	23294.45
459.204	25330.13
459.41	24738.27
459.616	23284.21
459.821	23132.66
460.027	23089.65
460.233	22426.11
460.438	21600.78
460.644	21758.47
460.85	20656.67
461.055	20175.39
461.261	20111.91
461.466	18586.17
461.672	18207.3
461.878	19706.41
462.083	18422.33
462.289	17734.21
462.494	17420.88
462.7	16831.06
462.905	16351.84
463.111	17099.34
463.316	17115.73
463.522	16628.31
463.727	16773.72
463.932	16484.95
464.138	16693.85
464.343	16407.13
464.549	16183.9
464.754	16804.44
464.959	16353.88
465.165	16325.21
465.37	15676.01
465.575	15270.51
465.781	15925.86
465.986	16142.94
466.191	15493.74
466.397	15147.63
466.602	14342.78
466.807	15217.26
467.012	14965.36
467.218	14781.04
467.423	14576.25
467.628	14729.84
467.833	15450.73
468.038	14719.6
468.244	14402.17
468.449	14850.67
468.654	14324.35
468.859	14432.89
469.064	13892.23
469.269	13752.96
469.474	13740.68
469.679	14099.07
469.885	13417.1
470.09	14039.68
470.295	13740.68
470.5	13521.54
470.705	13439.62
470.91	13134.48
471.115	12921.49
471.32	13298.31
471.525	13040.27
471.73	12876.43
471.935	12704.4
472.139	12280.47
472.344	12679.83
472.549	12386.97
472.754	12432.02
472.959	12184.22
473.164	12059.29
473.369	11692.71
473.574	11905.7
473.778	11993.76
473.983	11694.75
474.188	11842.21
474.393	11322.02
474.598	11365.03
474.802	11213.48
475.007	11020.97
475.212	11123.37
475.417	10590.9
475.621	10773.17
475.826	10607.28
476.031	10482.36
476.235	10300.09
476.44	10685.11
476.645	10347.19
476.849	10117.82
477.054	10246.84
477.259	9994.94
477.463	10035.9
477.668	9708.23
477.872	9829.06
478.077	9689.79
478.282	9417.41
478.486	9515.72
478.691	9507.52
478.895	9454.28
479.1	9355.97
479.304	9243.34
479.509	8975.05
479.713	9229
479.918	9077.45
480.122	8856.27
480.326	9208.52
480.531	8970.96
480.735	8886.99
480.94	8823.5
481.144	8893.13
481.348	8743.63
481.553	8708.82
481.757	8473.3
481.961	8825.55
482.166	8833.74
482.37	8563.41
482.574	8706.77
482.778	8680.14
482.983	8846.03
483.187	8587.99
483.391	8719.06
483.595	8612.56
483.8	8620.75
484.004	8686.29
484.208	8624.85
484.412	8497.88
484.616	8600.27
484.821	8530.64
485.025	8495.83
485.229	8448.72
485.433	8727.25
485.637	8583.89
485.841	8477.4
486.045	8538.84
486.249	8766.16
486.453	8538.84
486.657	8432.34
486.861	8450.77
487.065	8334.04
487.269	8606.42
487.473	8497.88
487.677	8641.23
487.881	8639.19
488.085	8567.51
488.289	8841.93
488.493	8448.72
488.697	8643.28
488.901	8798.93
489.105	8839.89
489.309	8692.43
489.512	8800.98
489.716	8788.69
489.92	8807.12
490.124	8514.26
490.328	9108.17
490.531	8633.04
490.735	8968.91
490.939	8882.89
491.143	8930
491.346	8803.02
491.55	8964.81
491.754	9013.96
491.958	8956.62
492.161	9018.06
492.365	9059.02
492.569	9204.42
492.772	8970.96
492.976	9052.88
493.18	9077.45
493.383	9173.71
493.587	9513.67
493.79	9544.39
493.994	9530.05
494.197	9708.23
494.401	9597.63
494.605	9423.56
494.808	9673.41
495.012	9966.27
495.215	9900.73
495.419	9837.25
495.622	9853.63
495.825	10066.62
496.029	10007.23
496.232	10330.81
496.436	9947.84
496.639	10582.71
496.843	10476.21
497.046	10646.19
497.249	10736.31
497.453	10869.42
497.656	10777.26
497.859	10943.15
498.063	10986.16
498.266	11350.7
498.469	11250.35
498.673	11449
498.876	11446.95
499.079	11823.78
499.282	11584.16
499.485	11846.3
499.689	11942.56
499.892	12245.66
500.095	12092.06
500.298	12700.31
500.501	12319.39
500.705	12843.67
500.908	12862.1
501.111	12974.74
501.314	13091.47
501.517	13277.83
501.72	13562.5
501.923	13480.58
502.126	13843.07
502.329	13838.98
502.532	14062.21
502.735	13990.53
502.938	14660.21
503.141	14652.02
503.344	14639.73
503.547	14914.16
503.75	14832.24
503.953	15280.75
504.156	15370.86
504.359	15524.46
504.562	15481.45
504.765	15837.8
504.968	15938.15
505.17	16331.36
505.373	16274.01
505.576	16763.48
505.779	16816.72
505.982	16888.4
506.185	17082.96
506.387	17259.09
506.59	17683.02
506.793	17750.6
506.996	17736.26
507.198	18387.52
507.401	18311.74
507.604	18614.84
507.807	18952.76
508.009	18907.7
508.212	18907.7
508.415	19307.05
508.617	19345.97
508.82	19610.15
509.022	19597.87
509.225	20222.5
509.428	20537.88
509.63	20408.86
509.833	20382.24
510.035	21336.59
510.238	20849.18
510.44	21137.94
510.643	21490.19
510.845	21985.8
511.048	21768.71
511.25	22039.05
511.453	22387.2
511.655	23048.69
511.858	22884.86
512.06	23011.83
512.262	23382.51
512.465	23368.18
512.667	23910.89
512.87	24291.81
513.072	24127.97
513.274	24508.9
513.477	24869.34
513.679	25246.16
513.881	25373.14
514.084	25768.4
514.286	25645.52
514.488	25860.55
514.69	26902.97
514.893	26798.52
515.095	26968.51
515.297	26825.15
515.499	27494.83
515.701	27392.44
515.904	28074.41
516.106	28451.24
516.308	28481.95
516.51	28762.53
516.712	28942.75
516.914	29274.52
517.116	29942.16
517.318	29802.89
517.52	30169.48
517.722	30564.74
517.925	30482.82
518.127	30902.65
518.329	31091.07
518.531	31148.41
518.733	31983.98
518.935	32262.51
519.136	32078.19
519.338	33139.04
519.54	32995.68
519.742	33034.59
519.944	33364.31
520.146	33888.59
520.348	34021.71
520.55	34462.02
520.752	34292.04
520.954	35248.44
521.155	35178.81
521.357	35563.83
521.559	36057.39
521.761	36362.54
521.963	36094.25
522.164	36671.78
522.366	36780.32
522.568	37161.25
522.77	37378.33
522.971	37996.82
523.173	37566.74
523.375	38248.72
523.576	38353.16
523.778	38494.47
523.98	38949.12
524.181	39076.1
524.383	39246.08
524.584	40138.99
524.786	39813.37
524.988	39622.9
525.189	40562.92
525.391	40382.7
525.592	40896.74
525.794	40888.55
525.995	41232.61
526.197	41212.13
526.398	41543.9
526.6	41656.54
526.801	42221.78
527.003	42043.6
527.204	41883.86
527.406	42318.03
527.607	42604.75
527.808	42531.02
528.01	42131.67
528.211	42952.9
528.412	43802.81
528.614	43126.98
528.815	43430.08
529.016	44067
529.218	43649.21
529.419	43534.53
529.62	44009.65
529.822	43417.79
530.023	43708.6
530.224	44357.81
530.425	44173.49
530.626	43903.16
530.828	43940.02
531.029	44951.72
531.23	44396.72
531.431	44607.66
531.632	44628.14
531.833	45156.52
532.035	44796.07
532.236	45009.06
532.437	45215.91
532.638	44779.69
532.839	45369.51
533.04	45449.38
533.241	44906.66
533.442	45426.85
533.643	45361.31
533.844	45117.6
534.045	45121.7
534.246	45109.41
534.447	45662.36
534.648	45545.63
534.849	45633.69
535.05	45324.45
535.251	45732
535.451	45129.89
535.652	45883.55
535.853	45328.55
536.054	45394.08
536.255	45858.97
536.456	45039.78
536.657	45815.96
536.857	45430.94
537.058	45920.41
537.259	45768.86
537.46	45789.34
537.66	45265.06
537.861	45701.28
538.062	45576.35
538.263	45746.33
538.463	45455.52
538.664	45463.71
538.865	45672.6
539.065	45969.56
539.266	45107.37
539.466	45836.44
539.667	45566.11
539.868	45994.14
540.068	45871.26
540.269	45322.4
540.469	45938.84
540.67	45473.95
540.87	45766.81
541.071	45369.51
541.271	46000.28
541.472	45713.56
541.672	45168.8
541.873	45369.51
542.073	44894.38
542.274	45828.25
542.474	45476
542.675	45596.83
542.875	46135.45
543.075	45498.53
543.276	45344.93
543.476	45813.91
543.676	45250.72
543.877	45330.59
544.077	45439.14
544.277	45578.4
544.478	45254.82
544.678	45344.93
544.878	45357.22
545.078	45543.58
545.279	44820.65
545.479	45113.51
545.679	45211.81
545.879	45172.9
546.079	45519.01
546.28	45250.72
546.48	45254.82
546.68	45097.13
546.88	45054.12
547.08	45267.11
547.28	45533.34
547.48	44736.68
547.68	45322.4
547.88	45156.52
548.081	45641.88
548.281	45205.67
548.481	44894.38
548.681	45408.42
548.881	45369.51
549.081	45158.56
549.28	44490.93
549.48	45426.85
549.68	45144.23
549.88	45146.28
550.08	45183.14
550.28	45095.08
550.48	44710.06
550.68	45152.42
550.88	44873.9
551.08	45207.72
551.279	45123.75
551.479	44787.88
551.679	45136.04
551.879	44730.54
552.079	44853.42
552.278	44984.49
552.478	44673.2
552.678	45195.43
552.878	44986.53
553.077	44773.55
553.277	44251.31
553.477	45357.22
553.676	44533.93
553.876	44761.26
554.076	44921
554.275	44583.09
554.475	44114.1
554.674	44677.29
554.874	44755.11
555.074	44406.96
555.273	44255.41
555.473	44783.79
555.672	44001.46
555.872	44021.94
556.071	44249.27
556.271	44341.42
556.47	44249.27
556.67	43946.17
556.869	44013.75
557.068	43958.45
557.268	43933.88
557.467	44296.37
557.667	43669.69
557.866	43878.58
558.065	43604.16
558.265	43620.54
558.464	43186.37
558.663	43702.46
558.863	42715.34
559.062	44023.99
559.261	42938.57
559.461	43698.36
559.66	42944.71
559.859	43247.81
560.058	42557.64
560.258	42913.99
560.457	42557.64
560.656	42961.09
560.855	42447.05
561.054	43061.44
561.253	42727.63
561.453	42404.05
561.652	42809.54
561.851	42711.24
562.05	42367.18
562.249	42080.47
562.448	42578.12
562.647	41834.71
562.846	41982.16
563.045	42467.53
563.244	41519.32
563.443	41668.83
563.642	41562.33
563.841	41732.31
564.04	41490.65
564.239	41570.52
564.438	41105.63
564.637	41169.12
564.836	41156.83
565.035	41054.43
565.234	40913.13
565.432	40532.2
565.631	40415.47
565.83	40853.73
566.029	40100.08
566.228	40100.08
566.427	40597.74
566.625	40165.62
566.824	39938.29
567.023	39844.09
567.222	39209.22
567.42	40132.85
567.619	39428.35
567.818	39565.56
568.016	39235.84
568.215	39622.9
568.414	39115.01
568.612	39246.08
568.811	39008.51
569.01	39147.78
569.208	38643.98
569.407	38824.2
569.605	38414.6
569.804	38783.24
570.002	38023.44
570.201	38490.38
570.4	38041.87
570.598	38048.02
570.797	37775.64
570.995	38037.78
571.193	37208.35
571.392	37859.6
571.59	37110.05
571.789	37445.91
571.987	37284.12
572.186	37198.11
572.384	36956.45
572.582	37224.73
572.781	36931.87
572.979	36372.78
573.177	36546.86
573.376	36675.88
573.574	36415.79
573.772	36669.73
573.971	36012.34
574.169	35711.28
574.367	35735.86
574.565	36047.15
574.763	35533.11
574.962	35535.16
575.16	34945.34
575.358	35463.48
575.556	34928.96
575.754	35463.48
575.952	34941.25
576.151	35111.23
576.349	34664.77
576.547	34580.81
576.745	34320.71
576.943	34380.1
577.141	34451.78
577.339	34384.2
577.537	34445.64
577.735	34214.22
577.933	33599.83
578.131	34132.3
578.329	33573.21
578.527	33397.08
578.725	33620.31
578.923	33536.34
579.121	32983.39
579.319	33257.82
579.516	33581.4
579.714	33425.75
579.912	33255.77
580.11	32657.76
580.308	33288.54
580.506	32792.93
580.704	32223.59
580.901	32432.49
581.099	32940.38
581.297	32217.45
581.495	32201.07
581.692	32467.3
581.89	32018.8
582.088	32479.59
582.285	31885.68
582.483	32049.52
582.681	31836.53
582.878	31414.65
583.076	31072.64
583.274	31826.29
583.471	31154.55
583.669	31435.13
583.866	31091.07
584.064	31142.27
584.262	30851.45
584.459	30941.57
584.657	30730.62
584.854	30742.91
585.052	30374.28
585.249	30704
585.447	30572.93
585.644	30343.56
585.841	30210.44
586.039	30435.72
586.236	30157.19
586.434	29843.85
586.631	30091.66
586.828	29716.88
587.026	29991.31
587.223	29553.04
587.42	29620.63
587.618	29399.44
587.815	29028.76
588.012	29258.13
588.21	29317.53
588.407	29381.01
588.604	28909.98
588.801	28721.57
588.999	28926.36
589.196	28846.49
589.393	28885.4
589.59	28742.05
589.787	28516.77
589.984	28438.95
590.182	27974.06
590.379	28195.24
590.576	27845.04
590.773	28223.91
590.97	27795.89
591.167	27931.05
591.364	27789.74
591.561	27777.45
591.758	27234.74
591.955	27787.69
592.152	27607.47
592.349	27267.51
592.546	27189.69
592.743	27417.01
592.94	27122.1
593.137	26919.35
593.334	27077.05
593.531	26585.54
593.727	26911.16
593.924	26945.98
594.121	26630.59
594.318	26524.1
594.515	26579.39
594.712	26814.91
594.908	26438.08
595.105	26274.24
595.302	26089.93
595.499	26337.73
595.696	25946.57
595.892	25618.89
596.089	26132.93
596.286	25969.1
596.482	25711.05
596.679	25842.12
596.876	25450.96
597.072	25629.13
597.269	25352.66
597.466	25348.56
597.662	25289.17
597.859	25336.27
598.055	25422.29
598.252	25096.66
598.448	25061.85
598.645	25059.8
598.841	24504.8
599.038	24951.26
599.234	24758.75
599.431	24377.83
599.627	24521.18
599.824	24488.42
600.02	24414.69
600.217	24265.19
600.413	24013.29
600.609	24121.83
600.806	24013.29
601.002	23933.42
601.198	23720.43
601.395	23472.62
601.591	23634.41
601.787	23806.44
601.984	23269.87
602.18	23751.15
602.376	23325.17
602.572	23185.91
602.769	23118.32
602.965	22954.49
603.161	23230.96
603.357	23073.27
603.553	23101.94
603.75	22927.86
603.946	22483.45
604.142	23034.36
604.338	22596.09
604.534	22610.43
604.73	22348.29
604.926	22415.87
605.122	22399.49
605.318	22540.8
605.514	22166.02
605.71	22069.76
605.906	22018.57
606.102	21944.84
606.298	22135.3
606.494	21723.66
606.69	22057.48
606.886	21834.25
607.082	21953.03
607.278	21772.81
607.474	21645.84
607.67	21756.43
607.866	21576.2
608.062	21623.31
608.257	21510.67
608.453	21211.67
608.649	21223.95
608.845	21029.4
609.041	21211.67
609.236	21363.22
609.432	21144.08
609.628	20945.43
609.824	21025.3
610.019	20566.56
610.215	20918.81
610.411	21336.59
610.606	20752.92
610.802	20478.49
610.998	20652.57
611.193	20671
611.389	20591.13
611.584	20492.83
611.78	20404.77
611.976	20355.61
612.171	20290.08
612.367	20253.22
612.562	20290.08
612.758	19978.79
612.953	19853.86
613.149	20216.35
613.344	20120.1
613.539	20216.35
613.735	19956.26
613.93	20007.46
614.126	19984.93
614.321	20099.62
614.517	19808.81
614.712	19728.94
614.907	19481.13
615.103	19616.3
615.298	19612.2
615.493	19644.97
615.688	19235.38
615.884	19708.46
616.079	19374.64
616.274	19214.9
616.47	19218.99
616.665	19573.29
616.86	19317.29
617.055	18993.72
617.25	19188.27
617.445	19415.6
617.641	18856.5
617.836	19341.87
618.031	18596.41
618.226	18950.71
618.421	18913.84
618.616	19087.92
618.811	18653.75
619.006	18795.06
619.201	18391.61
619.396	18358.85
619.591	18092.61
619.786	18590.27
619.981	18074.18
620.176	18326.08
620.371	18065.99
620.566	18086.47
620.761	17769.03
620.956	17961.54
621.151	17584.71
621.346	17830.47
621.541	17422.92
621.735	17654.34
621.93	17287.76
622.125	17310.29
622.32	16974.42
622.515	17259.09
622.709	17019.47
622.904	17062.48
623.099	17050.19
623.294	17046.1
623.488	16566.87
623.683	16718.42
623.878	16480.86
624.072	16630.36
624.267	16265.82
624.462	16468.57
624.656	16214.62
624.851	16132.7
625.046	16128.61
625.24	15845.99
625.435	15725.16
625.629	16020.06
625.824	15759.97
626.018	16108.13
626.213	15370.86
626.407	15489.64
626.602	15055.47
626.796	15327.85
626.991	15405.67
627.185	15319.66
627.38	15112.81
627.574	14881.39
627.768	14965.36
627.963	14760.56
628.157	14635.64
628.352	14652.02
628.546	14465.66
628.74	14727.8
628.935	14250.62
629.129	14228.09
629.323	14023.3
629.517	14150.27
629.712	14086.78
629.906	14060.16
630.1	13736.58
630.294	14013.06
630.489	13619.85
630.683	13834.88
630.877	13539.97
631.071	13400.71
631.265	13580.93
631.459	13587.08
631.653	13292.17
631.848	13449.86
632.042	13079.18
632.236	13136.52
632.43	12929.68
632.624	13017.74
632.818	13161.1
633.012	12919.44
633.206	12714.64
633.4	12767.89
633.594	12540.57
633.788	12864.15
633.982	12589.72
634.176	12417.69
634.369	12239.51
634.563	12346.01
634.757	12141.21
634.951	12309.15
635.145	12251.8
635.339	12221.08
635.533	12169.88
635.726	12057.25
635.92	11666.08
636.114	11791.01
636.308	11657.89
636.501	11717.28
636.695	11784.87
636.889	11580.07
637.083	11479.72
637.276	11414.18
637.47	11494.05
637.664	11166.38
637.857	11240.11
638.051	11399.85
638.244	10914.48
638.438	11090.6
638.632	11004.59
638.825	10961.58
639.019	10939.05
639.212	10742.45
639.406	10824.37
639.599	10717.87
639.793	10668.72
639.986	10771.12
640.18	10760.88
640.373	10375.86
640.567	10328.76
640.76	10427.06
640.954	10398.39
641.147	10177.21
641.34	10261.18
641.534	10226.36
641.727	10062.52
641.92	9996.99
642.114	9867.97
642.307	9872.06
642.5	9917.12
642.694	9755.33
642.887	9616.07
643.08	9704.13
643.273	9401.03
643.467	9704.13
643.66	9253.58
643.853	9415.37
644.046	9312.97
644.239	9372.36
644.432	9347.78
644.626	9355.97
644.819	9153.23
645.012	9167.56
645.205	9196.23
645.398	8970.96
645.591	9050.83
645.784	8893.13
645.977	9026.25
646.17	8876.75
646.363	8561.36
646.556	8592.08
646.749	8659.67
646.942	8901.33
647.135	8637.14
647.328	8524.5
647.521	8590.03
647.714	8268.5
647.907	8418
648.099	8248.02
648.292	8235.74
648.485	8317.65
648.678	8276.7
648.871	8047.32
649.064	8153.82
649.256	8299.22
649.449	8032.99
649.642	8073.95
649.835	7934.68
650.027	7967.45
650.22	7908.06
650.413	7738.08
650.605	7766.75
650.798	7650.02
650.991	7645.92
651.183	7791.33
651.376	7654.11
651.568	7731.94
651.761	7799.52
651.954	7635.68
652.146	7480.04
652.339	7600.87
652.531	7480.04
652.724	7430.88
652.916	7181.03
653.109	7451.36
653.301	7281.38
653.494	7217.9
653.686	7072.49
653.879	7242.47
654.071	7160.55
654.263	7064.3
654.456	7041.77
654.648	6974.19
654.84	7076.59
655.033	6908.65
655.225	7009
655.417	6836.97
655.61	6943.47
655.802	6839.02
655.994	6949.61
656.186	6722.29
656.379	6863.6
656.571	6734.57
656.763	6320.88
656.955	6497.01
657.148	6597.36
657.34	6632.18
657.532	6507.25
657.724	6417.14
657.916	6609.65
658.108	6580.98
658.3	6365.94
658.492	6466.29
658.684	6365.94
658.876	6413.04
659.068	6257.4
659.26	6148.86
659.452	6257.4
659.644	6040.31
659.836	6130.42
660.028	5982.97
660.22	6111.99
660.412	5905.15
660.604	5870.33
660.796	6034.17
660.988	5976.83
661.18	5763.84
661.372	5743.36
661.563	5896.96
661.755	5690.11
661.947	5716.73
662.139	5665.53
662.331	5716.73
662.522	5604.1
662.714	5569.28
662.906	5735.17
663.097	5780.22
663.289	5528.32
663.481	5602.05
663.673	5516.03
663.864	5374.72
664.056	5266.18
664.247	5600
664.439	5305.09
664.631	5337.86
664.822	5346.05
665.014	5352.2
665.205	5333.76
665.397	5169.93
665.588	5378.82
665.78	5311.24
665.971	5376.77
666.163	5448.45
666.354	5303.04
666.546	5137.16
666.737	5231.37
666.929	5227.27
667.12	5202.69
667.311	5063.43
667.503	4971.27
667.694	5128.97
667.885	4848.4
668.077	5053.19
668.268	4770.57
668.459	5030.66
668.651	5083.91
668.842	4989.71
669.033	4895.5
669.224	4928.27
669.416	4809.48
669.607	4897.55
669.798	4739.85
669.989	4965.13
670.18	4885.26
670.371	4825.87
670.563	4834.06
670.754	4893.45
670.945	4698.89
671.136	4733.71
671.327	4653.84
671.518	4657.93
671.709	4856.59
671.9	4719.37
672.091	4664.08
672.282	4571.92
672.473	4821.77
672.664	4705.04
672.855	4674.32
673.046	4864.78
673.237	4666.13
673.428	4619.02
673.619	4676.37
673.809	4500.24
674	4608.78
674.191	4586.26
674.382	4557.58
674.573	4588.3
674.764	4549.39
674.954	4748.04
675.145	4598.54
675.336	4502.29
675.527	4539.15
675.717	4463.38
675.908	4516.62
676.099	4508.43
676.289	4592.4
676.48	4342.55
676.671	4485.9
676.861	4633.36
677.052	4436.75
677.243	4537.1
677.433	4498.19
677.624	4569.87
677.814	4465.43
678.005	4373.27
678.195	4449.04
678.386	4410.13
678.576	4471.57
678.767	4442.9
678.957	4490
679.148	4541.2
679.338	4463.38
679.529	4567.82
679.719	4533.01
679.909	4569.87
680.1	4490
680.29	4573.97
680.481	4516.62
680.671	4535.06
680.861	4416.27
681.052	4602.64
681.242	4420.37
681.432	4477.71
681.622	4373.27
681.813	4492.05
682.003	4533.01
682.193	4547.34
682.383	4578.06
682.573	4358.93
682.764	4377.36
682.954	4514.58
683.144	4449.04
683.334	4455.19
683.524	4324.12
683.714	4440.85
683.904	4424.47
684.094	4500.24
684.284	4432.66
684.474	4465.43
684.664	4383.51
684.854	4498.19
685.044	4422.42
685.234	4371.22
685.424	4406.03
685.614	4369.17
685.804	4455.19
685.994	4145.94
686.184	4330.26
686.374	4197.14
686.564	4231.96
686.753	4330.26
686.943	4049.69
687.133	4193.05
687.323	4201.24
687.513	4193.05
687.702	4219.67
687.892	4207.38
688.082	4178.71
688.272	4373.27
688.461	4098.84
688.651	4195.09
688.841	4100.89
689.03	4066.07
689.22	4100.89
689.41	4109.08
689.599	4125.46
689.789	4100.89
689.979	4127.51
690.168	4047.64
690.358	3973.91
690.547	4074.26
690.737	3924.76
690.926	3869.47
691.116	3990.3
691.305	3816.22
691.495	3865.37
691.684	3855.13
691.874	3765.02
692.063	3777.31
692.252	3853.08
692.442	3674.91
692.631	3619.61
692.82	3773.21
693.01	3926.81
693.199	3689.25
693.388	3531.55
693.578	3629.85
693.767	3826.46
693.956	3590.94
694.146	3429.15
694.335	3765.02
694.524	3644.19
694.713	3625.76
694.902	3619.61
695.092	3644.19
695.281	3527.46
695.47	3531.55
695.659	3511.07
695.848	3527.46
696.037	3506.98
696.226	3609.37
696.415	3535.65
696.604	3455.78
696.793	3588.89
696.982	3373.86
697.171	3572.51
697.36	3408.67
697.549	3476.26
697.738	3463.97
697.927	3353.38
698.116	3468.06
698.305	3320.61
698.494	3601.18
698.683	3420.96
698.872	3480.35
699.061	3406.63
699.25	3445.54
699.438	3500.83
699.627	3371.81
699.816	3363.62
700.005	3410.72
700.193	3541.79
700.382	3500.83
700.571	3502.88
700.76	3365.67
700.948	3423.01
701.137	3463.97
701.326	3328.8
701.514	3373.86
701.703	3437.34
701.892	3447.58
702.08	3312.42
702.269	3468.06
702.457	3353.38
702.646	3416.87
702.834	3410.72
703.023	3406.63
703.212	3386.15
703.4	3400.48
703.589	3343.14
703.777	3461.92
703.965	3353.38
704.154	3435.3
704.342	3384.1
704.531	3324.71
704.719	3388.19
704.907	3433.25
705.096	3322.66
705.284	3418.91
705.472	3445.54
705.661	3359.52
705.849	3433.25
706.037	3402.53
706.226	3463.97
706.414	3433.25
706.602	3453.73
706.79	3527.46
706.979	3373.86
707.167	3420.96
707.355	3312.42
707.543	3463.97
707.731	3453.73
707.919	3390.24
708.107	3394.34
708.296	3496.74
708.484	3355.43
708.672	3592.99
708.86	3486.5
709.048	3410.72
709.236	3343.14
709.424	3351.33
709.612	3564.32
709.8	3543.84
709.988	3443.49
710.176	3433.25
710.364	3468.06
710.551	3547.94
710.739	3584.8
710.927	3420.96
711.115	3504.93
711.303	3365.67
711.491	3554.08
711.679	3447.58
711.866	3554.08
712.054	3535.65
712.242	3490.59
712.43	3509.02
712.617	3478.3
712.805	3537.7
712.993	3496.74
713.181	3461.92
713.368	3359.52
713.556	3496.74
713.744	3298.08
713.931	3556.13
714.119	3549.98
714.306	3609.37
714.494	3539.74
714.682	3554.08
714.869	3525.41
715.057	3568.41
715.244	3574.56
715.432	3562.27
715.619	3576.61
715.807	3568.41
715.994	3779.36
716.182	3560.22
716.369	3664.67
716.556	3588.89
716.744	3515.17
716.931	3611.42
717.119	3703.58
717.306	3558.18
717.493	3625.76
717.681	3599.13
717.868	3650.33
718.055	3793.69
718.242	3576.61
718.43	3752.73
718.617	3615.52
718.804	3631.9
718.991	3785.5
719.179	3869.47
719.366	3601.18
719.553	3758.88
719.74	3736.35
719.927	3699.48
720.114	3699.48
720.301	3625.76
720.488	3664.67
720.676	3621.66
720.863	3564.32
721.05	3793.69
721.237	3752.73
721.424	3797.79
721.611	3617.57
721.798	3679.01
721.985	3691.29
722.172	3615.52
722.358	3824.41
722.545	3748.64
722.732	3812.12
722.919	3736.35
723.106	3732.25
723.293	3842.84
723.48	3832.6
723.667	3787.55
723.853	3748.64
724.04	3795.74
724.227	3795.74
724.414	3742.49
724.6	3822.36
724.787	3857.18
724.974	3799.84
725.161	3730.2
725.347	3654.43
725.534	3949.34
725.72	3822.36
725.907	3910.43
726.094	3853.08
726.28	3832.6
726.467	3805.98
726.653	3887.9
726.84	3912.47
727.027	3932.95
727.213	3726.11
727.4	3865.37
727.586	3842.84
727.773	3928.86
727.959	3830.55
728.145	3947.29
728.332	3935
728.518	3949.34
728.705	3982.1
728.891	3984.15
729.077	3957.53
729.264	3881.75
729.45	3986.2
729.636	4053.78
729.823	3941.15
730.009	4061.98
730.195	4006.68
730.382	4010.78
730.568	4006.68
730.754	3928.86
730.94	3959.58
731.126	4008.73
731.313	3996.44
731.499	4076.31
731.685	3965.72
731.871	4125.46
732.057	4041.5
732.243	4129.56
732.429	3984.15
732.615	4223.76
732.801	4039.45
732.987	4021.02
733.173	3957.53
733.359	4031.26
733.545	4100.89
733.731	3982.1
733.917	4139.8
734.103	4162.33
734.289	3943.19
734.475	4111.13
734.661	4061.98
734.847	4033.3
735.033	4080.41
735.219	4088.6
735.404	4078.36
735.59	4125.46
735.776	3967.77
735.962	4037.4
736.148	3967.77
736.333	4078.36
736.519	4039.45
736.705	4070.17
736.89	4102.93
737.076	4053.78
737.262	3924.76
737.447	3996.44
737.633	3975.96
737.819	4037.4
738.004	3943.19
738.19	4107.03
738.375	4006.68
738.561	4193.05
738.747	4102.93
738.932	3904.28
739.118	4041.5
739.303	3937.05
739.489	3975.96
739.674	4096.79
739.859	3957.53
740.045	4078.36
740.23	3975.96
740.416	3871.51
740.601	3951.39
740.786	3922.71
740.972	3922.71
741.157	3990.3
741.342	3992.34
741.528	3857.18
741.713	3846.94
741.898	3805.98
742.084	3816.22
742.269	3883.8
742.454	4021.02
742.639	3939.1
742.824	3896.09
743.01	3883.8
743.195	3859.23
743.38	3877.66
743.565	3765.02
743.75	3853.08
743.935	3805.98
744.12	3771.16
744.305	3615.52
744.49	3820.32
744.675	3603.23
744.86	3736.35
745.045	3638.05
745.23	3787.55
745.415	3728.16
745.6	3691.29
745.785	3609.37
745.97	3666.72
746.155	3644.19
746.34	3636
746.525	3541.79
746.71	3685.15
746.895	3617.57
747.079	3554.08
747.264	3539.74
747.449	3404.58
747.634	3427.11
747.819	3402.53
748.003	3412.77
748.188	3322.66
748.373	3533.6
748.557	3357.47
748.742	3326.75
748.927	3291.94
749.111	3339.04
749.296	3324.71
749.481	3412.77
749.665	3152.68
749.85	3253.03
750.034	3232.55
750.219	3181.35
750.404	3230.5
750.588	3144.49
750.773	3058.47
750.957	3101.48
751.141	3191.59
751.326	3134.25
751.51	2880.3
751.695	3040.04
751.879	2956.07
752.064	3068.71
752.248	3048.23
752.432	2972.46
752.617	3095.33
752.801	2954.02
752.985	2945.83
753.17	2935.59
753.354	2896.68
753.538	2904.87
753.722	2890.54
753.907	2849.58
754.091	2802.47
754.275	2667.31
754.459	2714.41
754.643	2517.81
754.828	2648.88
755.012	2806.57
755.196	2642.73
755.38	2765.61
755.564	2642.73
755.748	2738.99
755.932	2685.74
756.116	2595.63
756.3	2636.59
756.484	2497.33
756.668	2562.86
756.852	2646.83
757.036	2587.44
757.22	2482.99
757.404	2560.81
757.588	2374.45
757.772	2388.78
757.956	2575.15
758.14	2456.37
758.323	2401.07
758.507	2425.65
758.691	2384.69
758.875	2296.63
759.059	2331.44
759.242	2370.35
759.426	2196.28
759.61	2290.48
759.794	2255.67
759.977	2306.87
760.161	2325.3
760.345	2313.01
760.528	2372.4
760.712	2267.95
760.895	2157.36
761.079	2188.08
761.263	2132.79
761.446	2183.99
761.63	2206.52
761.813	2085.69
761.997	2087.73
762.18	2097.97
762.364	2212.66
762.547	2001.72
762.731	2020.15
762.914	2005.81
763.098	2069.3
763.281	1964.86
763.464	1993.53
763.648	2038.58
763.831	2020.15
764.015	2044.73
764.198	2089.78
764.381	2026.29
764.564	1995.57
764.748	2030.39
764.931	1989.43
765.114	1778.49
765.297	1897.27
765.481	1942.33
765.664	1934.14
765.847	1923.9
766.03	1813.31
766.213	1880.89
766.397	1817.4
766.58	1833.79
766.763	1866.55
766.946	1801.02
767.129	1790.78
767.312	1801.02
767.495	1762.11
767.678	1753.91
767.861	1833.79
768.044	1932.09
768.227	1749.82
768.41	1772.35
768.593	1815.35
768.776	1721.15
768.959	1755.96
769.142	1782.59
769.324	1647.42
769.507	1727.29
769.69	1712.96
769.873	1633.08
770.056	1772.35
770.239	1692.48
770.421	1706.81
770.604	1731.39
770.787	1616.7
770.97	1583.93
771.152	1604.41
771.335	1715
771.518	1678.14
771.7	1628.99
771.883	1661.76
772.066	1516.35
772.248	1577.79
772.431	1618.75
772.613	1606.46
772.796	1522.49
772.978	1633.08
773.161	1610.56
773.343	1571.65
773.526	1504.06
773.708	1424.19
773.891	1403.71
774.073	1456.96
774.256	1497.92
774.438	1483.58
774.621	1442.62
774.803	1551.17
774.985	1401.66
775.168	1342.27
775.35	1434.43
775.532	1428.29
775.715	1334.08
775.897	1475.39
776.079	1297.22
776.261	1436.48
776.444	1377.09
776.626	1262.4
776.808	1366.85
776.99	1313.6
777.173	1319.75
777.355	1203.01
777.537	1346.37
777.719	1340.22
777.901	1266.5
778.083	1256.26
778.265	1237.83
778.447	1252.16
778.629	1297.22
778.811	1164.1
778.993	1160
779.175	1252.16
779.357	1264.45
779.539	1186.63
779.721	1117
779.903	1209.15
780.085	1106.76
780.267	1067.85
780.449	1063.75
780.631	1174.34
780.812	1112.9
780.994	1057.61
781.176	1082.18
781.358	1106.76
781.54	1071.94
781.721	1096.52
781.903	1045.32
782.085	1045.32
782.267	1008.45
782.448	938.82
782.63	979.78
782.812	1016.65
782.993	1051.46
783.175	1045.32
783.357	1008.45
783.538	936.78
783.72	828.23
783.901	981.83
784.083	965.45
784.264	885.58
784.446	891.72
784.627	781.13
784.809	807.75
784.99	904.01
785.172	844.62
785.353	904.01
785.535	842.57
785.716	873.29
785.897	830.28
786.079	904.01
786.26	899.91
786.441	840.52
786.623	811.85
786.804	777.03
786.985	854.86
787.167	813.9
787.348	764.75
787.529	789.32
787.71	793.42
787.891	783.18
788.073	705.35
788.254	774.99
788.435	944.97
788.616	766.79
788.797	682.83
788.978	666.44
789.159	770.89
789.34	713.55
789.522	713.55
789.703	670.54
789.884	738.12
790.065	641.87
790.246	781.13
790.427	668.49
790.607	727.88
790.788	762.7
790.969	588.62
791.15	674.64
791.331	615.24
791.512	611.15
791.693	713.55
791.874	678.73
792.054	774.99
792.235	748.36
792.416	582.48
792.597	607.05
792.778	668.49
792.958	602.96
793.139	627.53
793.32	633.68
793.5	559.95
793.681	660.3
793.862	596.81
794.042	580.43
794.223	496.46
794.404	545.61
794.584	576.33
794.765	525.13
794.945	619.34
795.126	574.28
795.306	545.61
795.487	533.33
795.667	473.93
795.848	518.99
796.028	525.13
796.209	500.56
796.389	633.68
796.57	537.42
796.75	498.51
796.93	549.71
797.111	463.69
797.291	545.61
797.471	473.93
797.652	494.41
797.832	510.8
798.012	562
798.192	449.36
798.373	342.86
798.553	400.21
798.733	535.37
798.913	463.69
799.093	451.41
799.274	529.23
799.454	500.56
799.634	453.45
799.814	443.21
799.994	449.36
800.174	418.64
800.354	439.12
800.534	410.45
800.714	498.51
800.894	459.6
801.074	414.54
801.254	371.54
801.434	478.03
801.614	369.49
801.794	416.59
801.974	1147.72
802.154	486.22
802.334	457.55
802.514	426.83
802.693	377.68
802.873	371.54
803.053	502.61
803.233	506.7
803.413	412.5
803.592	373.58
803.772	428.88
803.952	441.17
804.131	293.71
804.311	379.73
804.491	455.5
804.67	379.73
804.85	355.15
805.03	426.83
805.209	365.39
805.389	336.72
805.568	320.34
805.748	371.54
805.928	424.78
806.107	443.21
806.287	422.73
806.466	346.96
806.646	340.82
806.825	293.71
807.004	363.34
807.184	430.93
807.363	322.38
807.543	410.45
807.722	353.1
807.901	389.97
808.081	260.95
808.26	228.18
808.439	318.29
808.619	279.38
808.798	267.09
808.977	301.9
809.156	467.79
809.336	303.95
809.515	404.3
809.694	269.14
809.873	312.14
810.052	308.05
810.231	389.97
810.411	291.66
810.59	338.77
810.769	336.72
810.948	351.06
811.127	260.95
811.306	260.95
811.485	215.89
811.664	287.57
811.843	277.33
812.022	271.19
812.201	273.23
812.38	301.9
812.559	232.27
812.737	262.99
812.916	162.64
813.095	334.67
813.274	236.37
813.453	310.1
813.632	283.47
813.811	228.18
813.989	283.47
814.168	398.16
814.347	187.22
814.526	320.34
814.704	322.38
814.883	232.27
815.062	250.71
815.24	328.53
815.419	236.37
815.598	275.28
815.776	219.99
815.955	238.42
816.133	250.71
816.312	271.19
816.49	185.17
816.669	260.95
816.847	217.94
817.026	185.17
817.204	250.71
817.383	273.23
817.561	191.31
817.74	215.89
817.918	297.81
818.097	232.27
818.275	267.09
818.453	248.66
818.632	230.23
818.81	256.85
818.988	211.79
819.167	191.31
819.345	238.42
819.523	152.4
819.701	236.37
819.879	211.79
820.058	228.18
820.236	224.08
820.414	191.31
820.592	258.9
820.77	136.02
820.948	205.65
821.127	275.28
821.305	236.37
821.483	205.65
821.661	310.1
821.839	209.75
822.017	209.75
822.195	166.74
822.373	244.56
822.551	187.22
822.729	191.31
822.907	254.8
823.085	140.12
823.262	238.42
823.44	240.47
823.618	156.5
823.796	181.07
823.974	234.32
824.152	125.78
824.329	207.7
824.507	152.4
824.685	203.6
824.863	217.94
825.04	213.84
825.218	172.88
825.396	201.55
825.574	162.64
825.751	213.84
825.929	168.79
826.107	109.4
826.284	183.12
826.462	189.27
826.639	146.26
826.817	74.58
826.994	95.06
827.172	95.06
827.349	209.75
827.527	185.17
827.704	133.97
827.882	197.46
828.059	224.08
828.237	142.16
828.414	183.12
828.591	156.5
828.769	176.98
828.946	88.92
829.124	146.26
829.301	179.03
829.478	129.88
829.655	84.82
829.833	179.03
830.01	66.39
830.187	152.4
830.364	158.55
830.542	187.22
830.719	197.46
830.896	119.64
831.073	86.87
831.25	119.64
831.427	162.64
831.604	115.54
831.782	133.97
831.959	82.77
832.136	148.31
832.313	140.12
832.49	201.55
832.667	99.16
832.844	113.49
833.021	170.83
833.198	66.39
833.374	123.73
833.551	191.31
833.728	146.26
833.905	123.73
834.082	113.49
834.259	50
834.436	150.36
834.612	154.45
834.789	213.84
834.966	185.17
835.143	136.02
835.319	103.25
835.496	213.84
835.673	131.92
835.85	138.07
836.026	109.4
836.203	176.98
836.38	103.25
836.556	84.82
836.733	52.05
836.909	176.98
837.086	80.72
837.262	152.4
837.439	84.82
837.616	95.06
837.792	154.45
837.968	142.16
838.145	119.64
838.321	7
838.498	136.02
838.674	109.4
838.851	166.74
839.027	111.44
839.203	133.97
839.38	101.2
839.556	66.39
839.732	78.68
839.909	90.96
840.085	101.2
840.261	127.83
840.437	107.35
840.614	111.44
840.79	123.73
840.966	170.83
841.142	23.38
841.318	74.58
841.494	119.64
841.671	111.44
841.847	56.15
842.023	86.87
842.199	66.39
842.375	121.68
842.551	99.16
842.727	86.87
842.903	148.31
843.079	52.05
843.255	117.59
843.431	52.05
843.607	105.3
843.783	62.29
843.959	80.72
844.134	117.59
844.31	80.72
844.486	95.06
844.662	103.25
844.838	37.72
845.013	103.25
845.189	99.16
845.365	90.96
845.541	93.01
845.716	37.72
845.892	82.77
846.068	2.9
846.244	76.63
846.419	-17.58
846.595	41.81
846.77	62.29
846.946	88.92
847.122	84.82
847.297	4.95
847.473	31.57
847.648	138.07
847.824	50
847.999	56.15
848.175	82.77
848.35	7
848.526	93.01
848.701	41.81
848.876	90.96
849.052	99.16
849.227	64.34
849.403	195.41
849.578	84.82
849.753	142.16
849.929	88.92
850.104	58.2
850.279	66.39
850.454	-15.53
850.63	136.02
850.805	72.53
850.98	127.83
851.155	31.57
851.33	45.91
851.505	84.82
851.681	64.34
851.856	-33.96
852.031	70.48
852.206	52.05
852.381	58.2
852.556	17.24
852.731	35.67
852.906	45.91
853.081	-70.83
853.256	27.48
853.431	70.48
853.606	15.19
853.781	13.14
853.956	-3.24
854.131	93.01
854.305	17.24
854.48	68.44
854.655	99.16
854.83	19.29
855.005	21.33
855.18	90.96
855.354	29.52
855.529	125.78
855.704	-1.19
855.879	113.49
856.053	15.19
856.228	50
856.403	0.85
856.577	50
856.752	-3.24
856.926	74.58
857.101	90.96
857.276	21.33
857.45	56.15
857.625	93.01
857.799	35.67
857.974	58.2
858.148	-23.72
858.323	-31.91
858.497	58.2
858.672	11.09
858.846	-42.15
859.02	35.67
859.195	4.95
859.369	21.33
859.543	29.52
859.718	101.2
859.892	33.62
860.066	-27.82
860.241	7
860.415	33.62
860.589	47.96
860.763	35.67
860.938	-23.72
861.112	80.72
861.286	39.76
861.46	111.44
861.634	17.24
861.808	60.24
861.982	4.95
862.157	-21.67
862.331	19.29
862.505	-11.43
862.679	-21.67
862.853	4.95
863.027	2.9
863.201	105.3
863.375	4.95
863.549	4.95
863.722	4.95
863.896	123.73
864.07	-5.29
864.244	37.72
864.418	72.53
864.592	23.38
864.766	-5.29
864.939	27.48
865.113	0.85
865.287	93.01
865.461	-31.91
865.634	70.48
865.808	25.43
865.982	37.72
866.156	-74.92
866.329	-76.97
866.503	9.05
866.676	4.95
866.85	43.86
867.024	29.52
867.197	-31.91
867.371	15.19
867.544	58.2
867.718	2.9
867.891	99.16
868.065	45.91
868.238	-9.39
868.412	4.95
868.585	29.52
868.759	86.87
868.932	-46.25
869.105	-23.72
869.279	50
869.452	17.24
869.625	115.54
869.799	45.91
869.972	-23.72
870.145	15.19
870.319	-7.34
870.492	-15.53
870.665	-19.63
870.838	-13.48
871.011	-36.01
871.185	-21.67
871.358	-33.96
871.531	-3.24
871.704	-44.2
871.877	21.33
872.05	-7.34
872.223	4.95
872.396	-11.43
872.569	60.24
872.742	-54.44
872.915	-3.24
873.088	60.24
873.261	-9.39
873.434	41.81
873.607	37.72
873.78	15.19
873.953	-23.72
874.126	68.44
874.299	41.81
874.471	129.88
874.644	7
874.817	23.38
874.99	70.48
875.163	35.67
875.335	45.91
875.508	-27.82
875.681	2.9
875.853	-95.4
876.026	66.39
876.199	-29.87
876.371	-15.53
876.544	25.43
876.717	0.85
876.889	-36.01
877.062	21.33
877.234	-15.53
877.407	-5.29
877.579	70.48
877.752	50
877.924	76.63
878.097	15.19
878.269	9.05
878.442	4.95
878.614	54.1
878.786	-1.19
878.959	76.63
879.131	33.62
879.303	-44.2
879.476	0.85
879.648	-25.77
879.82	68.44
879.993	-46.25
880.165	29.52
880.337	37.72
880.509	-1.19
880.681	-19.63
880.854	-7.34
881.026	70.48
881.198	29.52
881.37	33.62
881.542	-54.44
881.714	4.95
881.886	52.05
882.058	-76.97
882.23	-19.63
882.402	70.48
882.574	37.72
882.746	-15.53
882.918	41.81
883.09	72.53
883.262	-3.24
883.434	19.29
883.606	0.85
883.778	52.05
883.95	43.86
884.122	-23.72
884.293	84.82
884.465	-27.82
884.637	54.1
884.809	27.48
884.98	52.05
885.152	41.81
885.324	43.86
885.496	-7.34
885.667	4.95
885.839	7
886.011	-25.77
886.182	25.43
886.354	-11.43
886.525	-11.43
886.697	13.14
886.869	-13.48
887.04	-27.82
887.212	66.39
887.383	7
887.555	60.24
887.726	-44.2
887.897	9.05
888.069	-29.87
888.24	9.05
888.412	68.44
888.583	9.05
888.754	-52.39
888.926	-17.58
889.097	-19.63
889.268	-15.53
889.44	-5.29
889.611	-46.25
889.782	-40.11
889.953	-60.59
890.125	-1.19
890.296	50
890.467	-25.77
890.638	-15.53
890.809	35.67
890.98	-21.67
891.151	15.19
891.323	-15.53
891.494	-1.19
891.665	27.48
891.836	13.14
892.007	-36.01
892.178	13.14
892.349	47.96
892.52	21.33
892.691	17.24
892.862	25.43
893.032	-13.48
893.203	15.19
893.374	-23.72
893.545	-15.53
893.716	-126.12
893.887	29.52
894.057	15.19
894.228	31.57
894.399	-23.72
894.57	66.39
894.74	13.14
894.911	17.24
895.082	-25.77
895.253	-50.35
895.423	-5.29
895.594	-5.29
895.764	43.86
895.935	-25.77
896.106	19.29
896.276	-33.96
896.447	-66.73
896.617	-27.82
896.788	-13.48
896.958	-17.58
897.129	33.62
897.299	-70.83
897.47	-15.53
897.64	-5.29
897.81	-17.58
897.981	25.43
898.151	-40.11
898.322	2.9
898.492	9.05
898.662	-23.72
898.832	13.14
899.003	21.33
899.173	-9.39
899.343	-31.91
899.513	2.9
