Data from USB4F104151__35__12-23-47-750.txt Node

Date: Fri Mar 14 12:23:47 EDT 2025
User: louis
Spectrometer: USB4F10415
Trigger mode: 4
Integration Time (sec): 3.500000E-2
Scans to average: 1
Electric dark correction enabled: true
Nonlinearity correction enabled: false
Boxcar width: 0
XAxis mode: Wavelengths
Number of Pixels in Spectrum: 3648
>>>>>Begin Spectral Data<<<<<
178.204	-92.84
178.424	-92.84
178.644	-92.84
178.864	-156.33
179.084	-141.99
179.304	40.28
179.524	19.8
179.744	-23.21
179.964	42.32
180.184	-25.26
180.404	-17.07
180.624	-8.87
180.844	-23.21
181.064	-8.87
181.283	21.84
181.503	7.51
181.723	-25.26
181.943	-29.35
182.163	66.9
182.383	-15.02
182.602	34.13
182.822	109.91
183.042	71
183.262	-4.78
183.482	-21.16
183.701	42.32
183.921	111.96
184.141	-35.5
184.361	36.18
184.58	15.7
184.8	-15.02
185.02	42.32
185.239	56.66
185.459	-6.83
185.679	101.72
185.898	3.41
186.118	62.8
186.338	81.24
186.557	118.1
186.777	-12.97
186.997	-49.83
187.216	-12.97
187.436	71
187.655	54.61
187.875	-31.4
188.095	46.42
188.314	23.89
188.534	23.89
188.753	-12.97
188.973	60.76
189.192	114
189.412	19.8
189.631	15.7
189.851	-10.92
190.07	-0.68
190.29	36.18
190.509	38.23
190.729	17.75
190.948	32.08
191.168	175.44
191.387	25.94
191.607	25.94
191.826	38.23
192.045	30.04
192.265	11.61
192.484	44.37
192.704	54.61
192.923	-17.07
193.142	111.96
193.362	42.32
193.581	109.91
193.8	1.37
194.02	3.41
194.239	-68.27
194.458	30.04
194.678	66.9
194.897	56.66
195.116	13.65
195.335	-31.4
195.555	42.32
195.774	66.9
195.993	71
196.212	13.65
196.432	-10.92
196.651	54.61
196.87	91.48
197.089	23.89
197.308	54.61
197.528	87.38
197.747	13.65
197.966	38.23
198.185	75.09
198.404	11.61
198.623	-8.87
198.842	46.42
199.062	9.56
199.281	52.56
199.5	-41.64
199.719	19.8
199.938	91.48
200.157	75.09
200.376	13.65
200.595	56.66
200.814	38.23
201.033	1.37
201.252	56.66
201.471	142.68
201.69	42.32
201.909	44.37
202.128	77.14
202.347	42.32
202.566	11.61
202.785	-23.21
203.004	60.76
203.223	126.29
203.442	30.04
203.661	9.56
203.879	36.18
204.098	99.67
204.317	19.8
204.536	19.8
204.755	-8.87
204.974	19.8
205.193	-21.16
205.411	107.86
205.63	120.15
205.849	3.41
206.068	-19.11
206.287	9.56
206.505	21.84
206.724	54.61
206.943	5.46
207.162	-74.41
207.381	32.08
207.599	-2.73
207.818	36.18
208.037	-8.87
208.255	42.32
208.474	-23.21
208.693	-8.87
208.911	1.37
209.13	73.04
209.349	56.66
209.567	68.95
209.786	9.56
210.005	73.04
210.223	52.56
210.442	-39.59
210.661	40.28
210.879	68.95
211.098	109.91
211.316	79.19
211.535	116.05
211.753	-27.31
211.972	-47.79
212.191	11.61
212.409	25.94
212.628	17.75
212.846	-31.4
213.065	56.66
213.283	44.37
213.502	17.75
213.72	34.13
213.938	89.43
214.157	7.51
214.375	27.99
214.594	66.9
214.812	-2.73
215.031	25.94
215.249	-35.5
215.467	38.23
215.686	40.28
215.904	83.28
216.122	30.04
216.341	48.47
216.559	17.75
216.778	62.8
216.996	77.14
217.214	-23.21
217.432	48.47
217.651	7.51
217.869	52.56
218.087	38.23
218.306	-39.59
218.524	83.28
218.742	56.66
218.96	44.37
219.179	-41.64
219.397	68.95
219.615	54.61
219.833	36.18
220.051	-33.45
220.27	36.18
220.488	75.09
220.706	-58.03
220.924	38.23
221.142	124.24
221.36	21.84
221.578	56.66
221.796	48.47
222.015	-29.35
222.233	-21.16
222.451	132.44
222.669	1.37
222.887	107.86
223.105	-23.21
223.323	-31.4
223.541	-37.55
223.759	19.8
223.977	138.58
224.195	-8.87
224.413	27.99
224.631	40.28
224.849	23.89
225.067	118.1
225.285	25.94
225.503	75.09
225.721	30.04
225.939	52.56
226.157	52.56
226.375	101.72
226.592	-23.21
226.81	13.65
227.028	58.71
227.246	81.24
227.464	54.61
227.682	85.33
227.9	111.96
228.117	73.04
228.335	44.37
228.553	15.7
228.771	64.85
228.989	38.23
229.206	77.14
229.424	44.37
229.642	-8.87
229.86	-10.92
230.077	77.14
230.295	97.62
230.513	77.14
230.731	77.14
230.948	62.8
231.166	34.13
231.384	-45.74
231.601	50.52
231.819	64.85
232.037	-41.64
232.254	27.99
232.472	132.44
232.689	32.08
232.907	-27.31
233.125	103.76
233.342	-8.87
233.56	83.28
233.777	52.56
233.995	-35.5
234.213	42.32
234.43	46.42
234.648	23.89
234.865	116.05
235.083	9.56
235.3	62.8
235.518	-37.55
235.735	34.13
235.953	25.94
236.17	23.89
236.388	-10.92
236.605	124.24
236.822	46.42
237.04	-35.5
237.257	-35.5
237.475	-12.97
237.692	73.04
237.909	42.32
238.127	73.04
238.344	-45.74
238.562	-19.11
238.779	-10.92
238.996	-29.35
239.214	7.51
239.431	50.52
239.648	-47.79
239.865	36.18
240.083	30.04
240.3	-17.07
240.517	-8.87
240.735	114
240.952	99.67
241.169	32.08
241.386	3.41
241.603	60.76
241.821	13.65
242.038	91.48
242.255	19.8
242.472	-31.4
242.689	83.28
242.907	34.13
243.124	34.13
243.341	30.04
243.558	-49.83
243.775	9.56
243.992	5.46
244.209	52.56
244.426	159.06
244.643	73.04
244.86	-17.07
245.078	161.11
245.295	13.65
245.512	32.08
245.729	9.56
245.946	40.28
246.163	79.19
246.38	79.19
246.597	-31.4
246.814	19.8
247.031	3.41
247.248	36.18
247.464	30.04
247.681	91.48
247.898	27.99
248.115	-60.07
248.332	30.04
248.549	81.24
248.766	134.48
248.983	64.85
249.2	30.04
249.417	97.62
249.633	44.37
249.85	11.61
250.067	27.99
250.284	27.99
250.501	23.89
250.717	36.18
250.934	-35.5
251.151	58.71
251.368	-27.31
251.585	27.99
251.801	36.18
252.018	-23.21
252.235	44.37
252.451	-12.97
252.668	23.89
252.885	30.04
253.102	58.71
253.318	46.42
253.535	19.8
253.752	44.37
253.968	5.46
254.185	-17.07
254.401	46.42
254.618	-2.73
254.835	19.8
255.051	54.61
255.268	-41.64
255.484	60.76
255.701	101.72
255.917	68.95
256.134	40.28
256.351	-15.02
256.567	36.18
256.784	62.8
257	5.46
257.217	111.96
257.433	54.61
257.65	46.42
257.866	21.84
258.082	-35.5
258.299	-55.98
258.515	66.9
258.732	-0.68
258.948	50.52
259.165	34.13
259.381	15.7
259.597	1.37
259.814	40.28
260.03	64.85
260.246	132.44
260.463	-21.16
260.679	44.37
260.895	44.37
261.112	68.95
261.328	40.28
261.544	-39.59
261.761	99.67
261.977	19.8
262.193	-4.78
262.409	48.47
262.626	34.13
262.842	-25.26
263.058	9.56
263.274	7.51
263.49	42.32
263.707	77.14
263.923	-0.68
264.139	-27.31
264.355	91.48
264.571	48.47
264.787	32.08
265.004	93.52
265.22	48.47
265.436	-62.12
265.652	5.46
265.868	-2.73
266.084	-21.16
266.3	93.52
266.516	42.32
266.732	1.37
266.948	-12.97
267.164	11.61
267.38	64.85
267.596	27.99
267.812	50.52
268.028	27.99
268.244	-76.46
268.46	-19.11
268.676	89.43
268.892	64.85
269.108	-8.87
269.324	1.37
269.54	-23.21
269.756	109.91
269.972	-49.83
270.188	-0.68
270.403	15.7
270.619	56.66
270.835	9.56
271.051	23.89
271.267	-8.87
271.483	66.9
271.698	36.18
271.914	38.23
272.13	79.19
272.346	-39.59
272.562	19.8
272.777	109.91
272.993	89.43
273.209	9.56
273.425	-2.73
273.64	-21.16
273.856	42.32
274.072	50.52
274.287	-23.21
274.503	-6.83
274.719	-25.26
274.934	-4.78
275.15	21.84
275.366	40.28
275.581	-35.5
275.797	-25.26
276.012	40.28
276.228	1.37
276.444	30.04
276.659	77.14
276.875	7.51
277.09	56.66
277.306	-21.16
277.521	116.05
277.737	-51.88
277.952	-25.26
278.168	11.61
278.383	52.56
278.599	30.04
278.814	36.18
279.03	52.56
279.245	19.8
279.461	-12.97
279.676	79.19
279.892	9.56
280.107	-86.7
280.322	-8.87
280.538	-0.68
280.753	19.8
280.969	101.72
281.184	109.91
281.399	81.24
281.615	19.8
281.83	58.71
282.045	-35.5
282.26	58.71
282.476	46.42
282.691	95.57
282.906	60.76
283.122	136.53
283.337	-21.16
283.552	27.99
283.767	-29.35
283.983	1.37
284.198	-0.68
284.413	54.61
284.628	38.23
284.843	-21.16
285.058	109.91
285.274	15.7
285.489	40.28
285.704	27.99
285.919	73.04
286.134	97.62
286.349	36.18
286.564	103.76
286.779	71
286.995	-19.11
287.21	46.42
287.425	97.62
287.64	1.37
287.855	32.08
288.07	-33.45
288.285	85.33
288.5	46.42
288.715	52.56
288.93	40.28
289.145	-8.87
289.36	71
289.575	30.04
289.79	83.28
290.004	5.46
290.219	-17.07
290.434	34.13
290.649	-17.07
290.864	19.8
291.079	17.75
291.294	34.13
291.509	95.57
291.724	-2.73
291.938	3.41
292.153	66.9
292.368	50.52
292.583	109.91
292.798	21.84
293.012	71
293.227	71
293.442	87.38
293.657	34.13
293.871	9.56
294.086	73.04
294.301	154.96
294.516	42.32
294.73	62.8
294.945	-15.02
295.16	30.04
295.374	58.71
295.589	75.09
295.804	23.89
296.018	30.04
296.233	58.71
296.447	103.76
296.662	-8.87
296.877	124.24
297.091	30.04
297.306	13.65
297.52	-4.78
297.735	17.75
297.949	-39.59
298.164	68.95
298.378	52.56
298.593	-35.5
298.807	19.8
299.022	60.76
299.236	60.76
299.451	68.95
299.665	-55.98
299.88	-39.59
300.094	48.47
300.309	-74.41
300.523	52.56
300.737	-21.16
300.952	13.65
301.166	23.89
301.381	-55.98
301.595	68.95
301.809	71
302.024	48.47
302.238	17.75
302.452	85.33
302.667	-10.92
302.881	58.71
303.095	-33.45
303.309	13.65
303.524	81.24
303.738	60.76
303.952	-21.16
304.166	15.7
304.381	-4.78
304.595	73.04
304.809	36.18
305.023	1.37
305.237	11.61
305.452	-35.5
305.666	71
305.88	87.38
306.094	120.15
306.308	27.99
306.522	73.04
306.736	62.8
306.95	79.19
307.164	-4.78
307.379	40.28
307.593	46.42
307.807	42.32
308.021	62.8
308.235	17.75
308.449	-45.74
308.663	1.37
308.877	60.76
309.091	42.32
309.305	3.41
309.519	-6.83
309.733	68.95
309.947	-17.07
310.161	1.37
310.374	46.42
310.588	62.8
310.802	-66.22
311.016	27.99
311.23	42.32
311.444	23.89
311.658	-2.73
311.872	9.56
312.085	48.47
312.299	23.89
312.513	99.67
312.727	7.51
312.941	25.94
313.154	101.72
313.368	42.32
313.582	19.8
313.796	38.23
314.009	-39.59
314.223	38.23
314.437	62.8
314.651	116.05
314.864	27.99
315.078	34.13
315.292	-49.83
315.505	-23.21
315.719	48.47
315.933	56.66
316.146	25.94
316.36	-53.93
316.573	15.7
316.787	83.28
317.001	58.71
317.214	50.52
317.428	111.96
317.641	25.94
317.855	42.32
318.068	46.42
318.282	46.42
318.495	91.48
318.709	71
318.922	19.8
319.136	68.95
319.349	64.85
319.563	71
319.776	17.75
319.99	13.65
320.203	27.99
320.417	11.61
320.63	38.23
320.843	120.15
321.057	23.89
321.27	64.85
321.483	87.38
321.697	13.65
321.91	38.23
322.124	42.32
322.337	62.8
322.55	-21.16
322.763	52.56
322.977	-8.87
323.19	40.28
323.403	-21.16
323.617	1.37
323.83	48.47
324.043	-37.55
324.256	134.48
324.469	46.42
324.683	75.09
324.896	1.37
325.109	85.33
325.322	23.89
325.535	34.13
325.748	21.84
325.962	15.7
326.175	46.42
326.388	75.09
326.601	99.67
326.814	-0.68
327.027	23.89
327.24	71
327.453	-86.7
327.666	-2.73
327.879	-21.16
328.092	36.18
328.305	93.52
328.518	-2.73
328.731	-0.68
328.944	64.85
329.157	5.46
329.37	11.61
329.583	99.67
329.796	161.11
330.009	-2.73
330.222	124.24
330.435	114
330.648	3.41
330.861	71
331.073	11.61
331.286	66.9
331.499	21.84
331.712	85.33
331.925	5.46
332.138	42.32
332.35	44.37
332.563	-15.02
332.776	79.19
332.989	60.76
333.202	34.13
333.414	-8.87
333.627	-12.97
333.84	-15.02
334.053	-10.92
334.265	50.52
334.478	-19.11
334.691	34.13
334.903	-27.31
335.116	5.46
335.329	38.23
335.541	60.76
335.754	56.66
335.966	107.86
336.179	60.76
336.392	81.24
336.604	42.32
336.817	107.86
337.029	138.58
337.242	19.8
337.454	-15.02
337.667	40.28
337.88	44.37
338.092	9.56
338.305	30.04
338.517	-4.78
338.729	91.48
338.942	85.33
339.154	85.33
339.367	13.65
339.579	87.38
339.792	-33.45
340.004	7.51
340.217	99.67
340.429	11.61
340.641	58.71
340.854	21.84
341.066	11.61
341.278	109.91
341.491	97.62
341.703	19.8
341.915	79.19
342.128	54.61
342.34	25.94
342.552	21.84
342.764	48.47
342.977	30.04
343.189	99.67
343.401	107.86
343.613	3.41
343.826	38.23
344.038	32.08
344.25	52.56
344.462	42.32
344.674	120.15
344.886	111.96
345.099	105.81
345.311	77.14
345.523	42.32
345.735	-8.87
345.947	58.71
346.159	68.95
346.371	-15.02
346.583	148.82
346.795	66.9
347.007	9.56
347.219	-2.73
347.431	-0.68
347.643	130.39
347.855	71
348.067	71
348.279	36.18
348.491	60.76
348.703	89.43
348.915	46.42
349.127	-45.74
349.339	11.61
349.551	1.37
349.763	60.76
349.975	23.89
350.187	122.2
350.399	103.76
350.61	77.14
350.822	30.04
351.034	66.9
351.246	101.72
351.458	46.42
351.669	-4.78
351.881	103.76
352.093	75.09
352.305	79.19
352.517	-6.83
352.728	109.91
352.94	73.04
353.152	93.52
353.363	40.28
353.575	87.38
353.787	79.19
353.999	101.72
354.21	81.24
354.422	11.61
354.633	9.56
354.845	44.37
355.057	34.13
355.268	54.61
355.48	50.52
355.692	-12.97
355.903	36.18
356.115	13.65
356.326	-8.87
356.538	99.67
356.749	-27.31
356.961	36.18
357.172	85.33
357.384	1.37
357.595	81.24
357.807	73.04
358.018	87.38
358.23	25.94
358.441	91.48
358.653	19.8
358.864	34.13
359.075	21.84
359.287	128.34
359.498	52.56
359.709	107.86
359.921	34.13
360.132	114
360.344	81.24
360.555	-4.78
360.766	56.66
360.977	73.04
361.189	89.43
361.4	21.84
361.611	21.84
361.823	56.66
362.034	19.8
362.245	11.61
362.456	25.94
362.667	48.47
362.879	13.65
363.09	93.52
363.301	15.7
363.512	42.32
363.723	-15.02
363.935	62.8
364.146	77.14
364.357	15.7
364.568	40.28
364.779	-25.26
364.99	54.61
365.201	11.61
365.412	93.52
365.623	7.51
365.834	71
366.045	87.38
366.256	128.34
366.467	-12.97
366.678	73.04
366.889	81.24
367.1	27.99
367.311	93.52
367.522	23.89
367.733	66.9
367.944	62.8
368.155	116.05
368.366	64.85
368.577	116.05
368.788	42.32
368.999	11.61
369.209	-10.92
369.42	60.76
369.631	142.68
369.842	-12.97
370.053	42.32
370.264	93.52
370.474	13.65
370.685	-39.59
370.896	11.61
371.107	58.71
371.317	75.09
371.528	50.52
371.739	91.48
371.95	73.04
372.16	77.14
372.371	-21.16
372.582	46.42
372.792	-4.78
373.003	46.42
373.214	64.85
373.424	107.86
373.635	30.04
373.846	99.67
374.056	85.33
374.267	81.24
374.477	64.85
374.688	-0.68
374.898	36.18
375.109	-2.73
375.319	62.8
375.53	97.62
375.74	36.18
375.951	5.46
376.161	118.1
376.372	91.48
376.582	25.94
376.793	27.99
377.003	-10.92
377.214	-17.07
377.424	79.19
377.635	75.09
377.845	-2.73
378.055	89.43
378.266	-17.07
378.476	60.76
378.686	81.24
378.897	48.47
379.107	-23.21
379.317	46.42
379.528	54.61
379.738	52.56
379.948	118.1
380.158	85.33
380.369	91.48
380.579	36.18
380.789	107.86
380.999	114
381.21	44.37
381.42	89.43
381.63	77.14
381.84	60.76
382.05	42.32
382.261	101.72
382.471	95.57
382.681	21.84
382.891	136.53
383.101	17.75
383.311	-19.11
383.521	105.81
383.731	89.43
383.941	118.1
384.151	-31.4
384.361	99.67
384.571	52.56
384.781	95.57
384.991	64.85
385.201	103.76
385.411	114
385.621	73.04
385.831	32.08
386.041	60.76
386.251	58.71
386.461	107.86
386.671	62.8
386.881	21.84
387.091	9.56
387.301	-0.68
387.511	93.52
387.72	101.72
387.93	27.99
388.14	62.8
388.35	101.72
388.56	23.89
388.769	91.48
388.979	66.9
389.189	-8.87
389.399	73.04
389.609	130.39
389.818	103.76
390.028	38.23
390.238	99.67
390.447	17.75
390.657	-23.21
390.867	128.34
391.076	-27.31
391.286	83.28
391.496	152.91
391.705	13.65
391.915	99.67
392.125	101.72
392.334	101.72
392.544	68.95
392.753	60.76
392.963	77.14
393.172	163.15
393.382	68.95
393.591	165.2
393.801	38.23
394.01	124.24
394.22	150.87
394.429	34.13
394.639	118.1
394.848	95.57
395.058	34.13
395.267	62.8
395.477	46.42
395.686	54.61
395.895	134.48
396.105	200.02
396.314	68.95
396.524	48.47
396.733	44.37
396.942	146.77
397.152	89.43
397.361	138.58
397.57	148.82
397.78	79.19
397.989	206.16
398.198	103.76
398.407	40.28
398.617	101.72
398.826	103.76
399.035	126.29
399.244	165.2
399.453	148.82
399.663	126.29
399.872	36.18
400.081	89.43
400.29	126.29
400.499	5.46
400.708	144.72
400.917	30.04
401.127	85.33
401.336	81.24
401.545	173.39
401.754	179.54
401.963	157.01
402.172	140.63
402.381	97.62
402.59	81.24
402.799	105.81
403.008	222.55
403.217	54.61
403.426	85.33
403.635	91.48
403.844	109.91
404.053	111.96
404.262	128.34
404.471	161.11
404.68	138.58
404.888	101.72
405.097	93.52
405.306	79.19
405.515	103.76
405.724	128.34
405.933	105.81
406.142	157.01
406.35	144.72
406.559	148.82
406.768	122.2
406.977	265.55
407.185	204.11
407.394	126.29
407.603	130.39
407.812	161.11
408.02	247.12
408.229	193.87
408.438	206.16
408.646	109.91
408.855	185.68
409.064	286.03
409.272	249.17
409.481	267.6
409.69	197.97
409.898	230.74
410.107	302.42
410.315	202.07
410.524	249.17
410.733	324.94
410.941	355.66
411.15	316.75
411.358	312.66
411.567	367.95
411.775	370
411.984	365.9
412.192	410.96
412.401	390.48
412.609	451.92
412.818	482.64
413.026	357.71
413.234	484.69
413.443	484.69
413.651	388.43
413.86	521.55
414.068	535.89
414.276	617.8
414.485	519.5
414.693	658.76
414.901	642.38
415.11	607.56
415.318	636.24
415.526	685.39
415.734	740.68
415.943	744.78
416.151	707.91
416.359	685.39
416.567	775.5
416.776	843.08
416.984	906.57
417.192	867.66
417.4	890.18
417.608	937.29
417.817	830.79
418.025	1037.64
418.233	1064.26
418.441	1011.01
418.649	961.86
418.857	1221.95
419.065	1121.6
419.273	1125.7
419.481	1068.36
419.689	1291.59
419.897	1369.41
420.105	1383.74
420.313	1428.8
420.521	1475.9
420.729	1480
420.937	1473.85
421.145	1469.76
421.353	1588.54
421.561	1754.43
421.769	1717.56
421.977	1828.15
422.185	1787.19
422.393	1846.59
422.601	1991.99
422.809	2026.81
423.017	1981.75
423.224	2143.54
423.432	2100.53
423.64	2266.42
423.848	2295.09
424.056	2288.95
424.263	2633.01
424.471	2456.88
424.679	2704.68
424.887	2698.54
425.094	2749.74
425.302	2673.96
425.51	2907.43
425.718	2960.68
425.925	3089.7
426.133	3020.07
426.341	3310.88
426.548	3366.18
426.756	3515.68
426.964	3534.11
427.171	3691.8
427.379	3939.61
427.586	3861.79
427.794	3808.54
428.001	4238.61
428.209	4320.53
428.417	4267.28
428.624	4470.03
428.832	4584.72
429.039	4484.37
429.247	4599.06
429.454	4990.22
429.662	5272.84
429.869	5055.75
430.076	5369.09
430.284	5260.55
430.491	5375.24
430.699	5862.65
430.906	5727.49
431.114	5819.64
431.321	6083.83
431.528	6223.09
431.736	6608.11
431.943	6814.96
432.15	6667.5
432.358	6862.06
432.565	6941.93
432.772	7128.3
432.979	7304.42
433.187	7429.35
433.394	7689.44
433.601	7945.44
433.808	8109.27
434.016	7980.25
434.223	8381.65
434.43	8936.65
434.637	8731.86
434.844	9260.23
435.052	9643.2
435.259	9360.58
435.466	9606.34
435.673	9499.84
435.88	10294.46
436.087	10685.62
436.294	10513.59
436.501	10486.97
436.708	10403
436.915	10982.57
437.122	11519.14
437.329	11480.23
437.537	11824.29
437.743	11807.91
437.95	11830.43
438.157	12498.07
438.364	12760.21
438.571	13012.11
438.778	13147.28
438.985	14079.1
439.192	13567.11
439.399	13902.98
439.606	13907.07
439.813	14439.54
440.02	15178.86
440.227	15217.77
440.433	14847.09
440.64	15281.26
440.847	15406.19
441.054	15844.45
441.261	16970.83
441.467	16661.59
441.674	16970.83
441.881	17712.2
442.088	17486.92
442.294	17443.92
442.501	17910.85
442.708	18046.02
442.914	19016.76
443.121	19657.77
443.328	19315.76
443.534	20227.1
443.741	19946.53
443.948	19645.48
444.154	21056.53
444.361	21146.64
444.568	21187.6
444.774	21273.62
444.981	21466.13
445.187	22154.24
445.394	22965.24
445.6	22852.6
445.807	24814.55
446.013	23876.58
446.22	24273.89
446.426	25271.25
446.633	25394.13
446.839	26330.05
447.046	25283.54
447.252	26510.27
447.459	26489.79
447.665	26739.65
447.871	28191.66
448.078	29236.12
448.284	27685.81
448.491	28455.84
448.697	29592.47
448.903	29899.66
449.11	30026.64
449.316	29541.27
449.522	29873.04
449.728	31046.52
449.935	31118.2
450.141	31024
450.347	31757.17
450.553	30761.86
450.76	30940.03
450.966	32285.54
451.172	31882.09
451.378	32605.03
451.584	31933.29
451.791	32801.63
451.997	32834.4
452.203	33209.18
452.409	33512.28
452.615	33176.41
452.821	31630.19
453.027	31157.11
453.233	33143.64
453.44	32168.81
453.646	32301.93
453.852	32328.55
454.058	32709.47
454.264	31824.75
454.47	32766.82
454.676	31501.17
454.882	32547.68
455.088	29879.18
455.294	30260.1
455.5	30587.78
455.705	31007.61
455.911	29758.35
456.117	29555.6
456.323	29158.3
456.529	27519.92
456.735	28627.87
456.941	27917.23
457.147	27368.37
457.352	26497.99
457.558	26115.01
457.764	26252.23
457.97	25705.42
458.176	25115.61
458.381	25265.11
458.587	23614.44
458.793	23776.23
458.999	22598.65
459.204	24380.39
459.41	23329.78
459.616	21967.88
459.821	22103.04
460.027	21918.73
460.233	21459.98
460.438	20571.16
460.644	20673.56
460.85	19606.57
461.055	19442.73
461.261	19385.39
461.466	17896.52
461.672	17210.45
461.878	18426.94
462.083	17474.63
462.289	16933.97
462.494	16661.59
462.7	16340.06
462.905	15651.94
463.111	16213.09
463.316	16579.67
463.522	15897.7
463.727	16082.02
463.932	15733.86
464.138	15879.27
464.343	15815.78
464.549	15307.88
464.754	15733.86
464.959	15805.54
465.165	15576.17
465.37	14892.15
465.575	14627.96
465.781	15072.37
465.986	15096.94
466.191	14580.85
466.397	14394.49
466.602	13589.64
466.807	14496.89
467.012	14204.03
467.218	14068.86
467.423	14011.52
467.628	13853.83
467.833	14609.53
468.038	14111.87
468.244	13898.88
468.449	14191.74
468.654	13874.31
468.859	13567.11
469.064	13423.75
469.269	13139.08
469.474	13472.9
469.679	13311.11
469.885	12979.34
470.09	13167.76
470.295	13040.78
470.5	12727.44
470.705	12878.99
470.91	12586.13
471.115	12579.99
471.32	12610.71
471.525	12643.48
471.73	12397.72
471.935	12274.84
472.139	11871.39
472.344	11977.89
472.549	11898.02
472.754	11742.37
472.959	11562.15
473.164	11254.95
473.369	11216.04
473.574	11287.72
473.778	11476.13
473.983	11519.14
474.188	11277.48
474.393	10710.19
474.598	10867.89
474.802	10585.27
475.007	10620.08
475.212	10562.74
475.417	10005.69
475.621	10259.64
475.826	10165.43
476.031	10118.33
476.235	9727.17
476.44	9952.45
476.645	9974.97
476.849	9901.25
477.054	9833.66
477.259	9565.38
477.463	9632.96
477.668	9282.76
477.872	9465.03
478.077	9313.48
478.282	9211.08
478.486	9112.78
478.691	8910.03
478.895	8965.32
479.1	8824.01
479.304	8885.45
479.509	8654.03
479.713	8850.64
479.918	8529.11
480.122	8482
480.326	8561.87
480.531	8500.44
480.735	8346.84
480.94	8408.28
481.144	8793.3
481.348	8264.92
481.553	8443.09
481.757	8213.72
481.961	8338.65
482.166	8342.74
482.37	8324.31
482.574	8142.04
482.778	8240.34
482.983	8338.65
483.187	8193.24
483.391	8451.28
483.595	8242.39
483.8	8152.28
484.004	8230.1
484.208	8363.22
484.412	8221.91
484.616	8291.54
484.821	8246.49
485.025	8123.61
485.229	8252.63
485.433	8287.45
485.637	8096.99
485.841	8021.21
486.045	8273.11
486.249	8142.04
486.453	8123.61
486.657	8117.47
486.861	8412.37
487.065	7986.4
487.269	8213.72
487.473	8219.86
487.677	8330.45
487.881	8355.03
488.085	8070.36
488.289	8334.55
488.493	8205.53
488.697	8281.3
488.901	8312.02
489.105	8264.92
489.309	8379.61
489.512	8348.89
489.716	8291.54
489.92	8332.5
490.124	8289.49
490.328	8563.92
490.531	8201.43
490.735	8498.39
490.939	8346.84
491.143	8651.99
491.346	8338.65
491.55	8713.42
491.754	8557.78
491.958	8815.82
492.161	8574.16
492.365	8694.99
492.569	8719.57
492.772	8592.59
492.976	8723.66
493.18	8719.57
493.383	8836.3
493.587	8991.95
493.79	9041.1
493.994	8887.5
494.197	9168.07
494.401	9258.18
494.605	9043.15
494.808	9401.54
495.012	9413.83
495.215	9370.82
495.419	9483.46
495.622	9610.43
495.825	9430.21
496.029	9520.32
496.232	9833.66
496.436	9866.43
496.639	10177.72
496.843	9907.39
497.046	10212.54
497.249	10198.2
497.453	10321.08
497.656	10339.51
497.859	10390.71
498.063	10540.21
498.266	10714.29
498.469	10937.52
498.673	10632.37
498.876	10931.37
499.079	11209.9
499.282	11140.27
499.485	11668.64
499.689	11451.56
499.892	11695.27
500.095	11592.87
500.298	12135.58
500.501	11758.75
500.705	12311.71
500.908	12373.14
501.111	12356.76
501.314	12602.52
501.517	12549.27
501.72	12735.63
501.923	12602.52
502.126	12960.91
502.329	13272.2
502.532	13491.34
502.735	13649.03
502.938	13726.85
503.141	13761.67
503.344	13962.37
503.547	14060.67
503.75	14193.79
503.953	14466.17
504.156	14515.32
504.359	14906.48
504.562	14972.02
504.765	15281.26
504.968	15342.7
505.17	15287.4
505.373	15535.21
505.576	16069.73
505.779	16024.67
505.982	16133.22
506.185	16489.56
506.387	16391.26
506.59	16645.21
506.793	16770.13
506.996	16864.34
507.198	17503.31
507.401	17046.61
507.604	17671.24
507.807	17947.72
508.009	17966.15
508.212	17826.89
508.415	18261.05
508.617	18328.64
508.82	18662.46
509.022	18601.02
509.225	19461.16
509.428	19285.04
509.63	19465.26
509.833	19618.86
510.035	20233.25
510.238	19901.48
510.44	20153.38
510.643	20616.22
510.845	21025.81
511.048	20835.35
511.25	21427.21
511.453	21275.66
511.655	22006.79
511.858	21517.32
512.06	21830.66
512.262	22301.7
512.465	22084.61
512.667	22639.61
512.87	23204.85
513.072	23215.09
513.274	23423.98
513.477	23466.99
513.679	23913.45
513.881	24368.1
514.084	24546.27
514.286	24540.13
514.488	24871.9
514.69	25474
514.893	25338.83
515.095	25373.65
515.297	25865.16
515.499	25902.03
515.701	26176.45
515.904	26633.15
516.106	26739.65
516.308	26983.35
516.51	27227.06
516.712	27644.85
516.914	27878.32
517.116	28359.59
517.318	28242.85
517.52	28568.48
517.722	28531.62
517.925	29195.16
518.127	29873.04
518.329	29731.73
518.531	29404.05
518.733	30022.54
518.935	30860.16
519.136	30763.9
519.338	31253.37
519.54	31292.28
519.742	31796.08
519.944	31861.62
520.146	32334.7
520.348	32707.43
520.55	32760.67
520.752	33104.73
520.954	33526.61
521.155	33532.76
521.357	33805.14
521.559	34089.81
521.761	34394.95
521.963	34487.11
522.164	34747.2
522.366	35056.45
522.568	35521.34
522.77	35435.32
522.971	36490.02
523.173	35953.46
523.375	36535.08
523.576	36256.56
523.778	36909.86
523.98	37288.73
524.181	37202.72
524.383	37514.01
524.584	37804.82
524.786	37939.99
524.988	37866.26
525.189	38267.66
525.391	38470.41
525.592	39035.65
525.794	39043.84
525.995	39170.82
526.197	39027.46
526.398	39539.45
526.6	39852.79
526.801	39889.65
527.003	40192.75
527.204	40010.48
527.406	40692.46
527.607	40563.43
527.808	40948.45
528.01	40149.74
528.211	40901.35
528.412	41675.48
528.614	41132.77
528.815	41247.46
529.016	41655
529.218	41390.81
529.419	41806.55
529.62	41818.84
529.822	41464.54
530.023	42105.55
530.224	42037.97
530.425	42515.15
530.626	42078.93
530.828	42001.11
531.029	42994.37
531.23	42365.65
531.431	42457.81
531.632	42863.3
531.833	42791.62
532.035	42547.92
532.236	43037.38
532.437	42992.33
532.638	42926.79
532.839	42560.2
533.04	43328.19
533.241	43006.66
533.442	43410.11
533.643	43231.94
533.844	43231.94
534.045	43588.28
534.246	42736.33
534.447	43465.41
534.648	42793.67
534.849	43801.27
535.05	43145.92
535.251	43543.23
535.451	43393.73
535.652	43899.58
535.853	43477.69
536.054	43530.94
536.255	43506.37
536.456	43164.35
536.657	44264.11
536.857	43606.72
537.058	43309.76
537.259	43631.29
537.46	43625.15
537.66	43377.34
537.861	43504.32
538.062	43274.94
538.263	43633.34
538.463	43307.71
538.664	43762.36
538.865	44040.89
539.065	44190.39
539.266	43528.89
539.466	43987.64
539.667	43498.17
539.868	44151.48
540.068	43397.82
540.269	43811.51
540.469	43754.17
540.67	43616.96
540.87	43688.63
541.071	43567.8
541.271	43872.95
541.472	43586.24
541.672	43682.49
541.873	43346.62
542.073	42988.23
542.274	43737.79
542.474	43678.39
542.675	43190.98
542.875	43647.68
543.075	43596.48
543.276	43201.22
543.476	43909.82
543.676	43623.1
543.877	43719.35
544.077	43520.7
544.277	43217.6
544.478	43381.44
544.678	43795.13
544.878	43352.77
545.078	43162.31
545.279	43385.54
545.479	43334.34
545.679	43326.14
545.879	43238.08
546.079	43313.86
546.28	43197.12
546.48	42846.92
546.68	43576
546.88	43403.97
547.08	43350.72
547.28	43455.17
547.48	43195.07
547.68	43166.4
547.88	43160.26
548.081	43283.14
548.281	43268.8
548.481	43285.18
548.681	43158.21
548.881	43115.2
549.081	43070.15
549.28	42943.17
549.48	43238.08
549.68	43127.49
549.88	43817.66
550.08	43027.14
550.28	43328.19
550.48	43184.83
550.68	43252.42
550.88	42709.71
551.08	43379.39
551.279	43096.77
551.479	42898.12
551.679	43190.98
551.879	43342.53
552.079	43172.55
552.278	42799.82
552.478	43297.47
552.678	43154.11
552.878	43324.1
553.077	43193.03
553.277	42920.65
553.477	43279.04
553.676	43074.24
553.876	43082.44
554.076	42963.65
554.275	42734.28
554.475	42562.25
554.674	43281.09
554.874	42908.36
555.074	42629.83
555.273	42443.47
555.473	42799.82
555.672	42474.19
555.872	42390.22
556.071	42324.69
556.271	42476.24
556.47	42070.74
556.67	41894.61
556.869	42367.69
557.068	42468.05
557.268	41997.01
557.467	41964.24
557.667	42128.08
557.866	42017.49
558.065	41822.94
558.265	41982.68
558.464	41366.24
558.663	41947.86
558.863	41448.16
559.062	42240.72
559.261	40999.65
559.461	42142.42
559.66	41235.17
559.859	41487.07
560.058	40987.36
560.258	41478.88
560.457	40876.77
560.656	41214.69
560.855	40729.32
561.054	41108.19
561.253	40667.88
561.453	40801
561.652	40850.15
561.851	40930.02
562.05	40418.03
562.249	40430.32
562.448	40936.16
562.647	40321.77
562.846	40143.6
563.045	40397.55
563.244	39891.7
563.443	40415.98
563.642	39590.65
563.841	40020.72
564.04	39392
564.239	40004.34
564.438	39695.1
564.637	39660.28
564.836	39217.92
565.035	39361.28
565.234	39193.34
565.432	39168.77
565.631	38988.55
565.83	39211.77
566.029	38484.75
566.228	38318.86
566.427	38671.11
566.625	38273.81
566.824	38247.18
567.023	38685.45
567.222	37741.33
567.42	38271.76
567.619	38091.54
567.818	38091.54
568.016	37735.19
568.215	38132.5
568.414	37253.92
568.612	37575.45
568.811	37225.25
569.01	37204.77
569.208	36985.63
569.407	37305.12
569.605	36657.96
569.804	36926.24
570.002	36444.97
570.201	37006.11
570.4	36617
570.598	36047.66
570.797	36041.52
570.995	36510.5
571.193	35640.12
571.392	36221.74
571.59	35777.33
571.789	35918.64
571.987	35621.69
572.186	35687.22
572.384	35445.56
572.582	35502.9
572.781	35355.45
572.979	34898.75
573.177	35148.6
573.376	34847.55
573.574	34462.54
573.772	34902.85
573.971	34550.6
574.169	34257.74
574.367	34450.25
574.565	34577.22
574.763	34345.8
574.962	33807.19
575.16	33536.85
575.358	33901.39
575.556	33792.85
575.754	34087.76
575.952	33590.1
576.151	33784.66
576.349	32961.37
576.547	33309.53
576.745	33211.23
576.943	33133.4
577.141	33055.58
577.339	32865.12
577.537	32562.02
577.735	32822.11
577.933	32488.29
578.131	32711.52
578.329	32109.42
578.527	32256.87
578.725	32242.54
578.923	32060.27
579.121	32267.11
579.319	31880.05
579.516	31953.77
579.714	31834.99
579.912	31492.98
580.11	31519.6
580.308	31679.35
580.506	31390.58
580.704	30899.07
580.901	30933.89
581.099	31300.47
581.297	30894.97
581.495	30794.62
581.692	31220.6
581.89	30577.54
582.088	30679.94
582.285	30886.78
582.483	30632.83
582.681	30591.87
582.878	30485.38
583.076	30143.37
583.274	30301.06
583.471	29860.75
583.669	29868.94
583.866	29799.31
584.064	29889.42
584.262	29520.79
584.459	29739.92
584.657	29498.26
584.854	29926.28
585.052	28896.16
585.249	29440.92
585.447	29471.64
585.644	28996.51
585.841	28760.99
586.039	29174.68
586.236	28935.07
586.434	28617.63
586.631	28705.7
586.828	28687.26
587.026	28455.84
587.223	28455.84
587.42	28375.97
587.618	28332.96
587.815	27999.15
588.012	28091.3
588.21	28130.22
588.407	28244.9
588.604	27491.25
588.801	27425.71
588.999	27843.5
589.196	27433.91
589.393	27468.72
589.59	27612.08
589.787	27089.85
589.984	27134.9
590.182	26891.19
590.379	26995.64
590.576	26825.66
590.773	26801.08
590.97	26561.47
591.167	26731.45
591.364	26618.82
591.561	26837.95
591.758	26299.33
591.955	26262.47
592.152	26358.72
592.349	25996.23
592.546	26115.01
592.743	26299.33
592.94	25689.04
593.137	26084.3
593.334	25836.49
593.531	25627.6
593.727	25611.21
593.924	25844.68
594.121	25570.26
594.318	25754.57
594.515	25195.48
594.712	25711.56
594.908	25164.76
595.105	25287.64
595.302	24736.73
595.499	24873.95
595.696	25054.17
595.892	24566.75
596.089	24810.46
596.286	24753.12
596.482	24896.47
596.679	24300.51
596.876	24349.67
597.072	24525.79
597.269	24413.15
597.466	24249.32
597.662	24079.33
597.859	23950.31
598.055	23907.3
598.252	24007.65
598.448	23903.21
598.645	24099.81
598.841	23641.07
599.038	23860.2
599.234	23673.84
599.431	23544.81
599.627	23544.81
599.824	23710.7
600.02	23225.33
600.217	23628.78
600.413	23118.84
600.609	22903.8
600.806	22860.79
601.002	23112.69
601.198	22660.09
601.395	22567.93
601.591	22664.19
601.787	22635.52
601.984	22658.04
602.18	22719.48
602.376	22477.82
602.572	22387.71
602.769	22320.13
602.965	21945.35
603.161	22447.1
603.357	22035.46
603.553	22082.56
603.75	22094.85
603.946	21687.31
604.142	21910.53
604.338	21402.64
604.534	21896.2
604.73	21414.93
604.926	21320.72
605.122	21525.52
605.318	21373.97
605.514	21654.54
605.71	21470.22
605.906	20931.61
606.102	20995.09
606.298	21302.29
606.494	21011.48
606.69	21095.44
606.886	21144.59
607.082	20952.09
607.278	20984.85
607.474	20216.86
607.67	21068.82
607.866	20501.53
608.062	20532.25
608.257	20605.98
608.453	20202.53
608.649	20401.18
608.845	20659.23
609.041	20452.38
609.236	20378.65
609.432	19956.77
609.628	20231.2
609.824	20081.7
610.019	19813.42
610.215	20073.51
610.411	20274.21
610.606	19897.38
610.802	20200.48
610.998	19674.15
611.193	19967.01
611.389	19430.44
611.584	19606.57
611.78	19156.02
611.976	19676.2
612.171	19733.54
612.367	19233.84
612.562	19362.86
612.758	19254.32
612.953	19041.33
613.149	19319.85
613.344	19172.4
613.539	19285.04
613.735	19123.25
613.93	19147.83
614.126	18891.83
614.321	19561.51
614.517	19102.77
614.712	18848.82
614.907	18969.65
615.103	18967.6
615.298	18969.65
615.493	19153.97
615.688	18785.33
615.884	19059.76
616.079	18601.02
616.274	18850.87
616.47	18672.7
616.665	18777.14
616.86	18574.39
617.055	18170.94
617.25	18437.18
617.445	18680.89
617.641	18043.97
617.836	18263.1
618.031	18220.1
618.226	18334.78
618.421	18345.02
618.616	18115.65
618.811	17992.77
619.006	18170.94
619.201	17775.69
619.396	17749.06
619.591	17439.82
619.786	17476.68
619.981	17267.79
620.176	17583.18
620.371	17138.77
620.566	17560.65
620.761	17144.91
620.956	17347.66
621.151	16985.17
621.346	16737.37
621.541	16749.65
621.735	16731.22
621.93	16661.59
622.125	17017.94
622.32	16684.12
622.515	16677.97
622.709	16467.03
622.904	16116.83
623.099	16272.48
623.294	16252
623.488	16102.5
623.683	16168.03
623.878	16047.2
624.072	15940.71
624.267	15709.29
624.462	15653.99
624.656	15875.17
624.851	15760.48
625.046	15414.38
625.24	15416.43
625.435	15004.78
625.629	15256.68
625.824	15041.65
626.018	14937.2
626.213	14668.92
626.407	14926.96
626.602	14691.45
626.796	14804.08
626.991	14832.75
627.185	14711.92
627.38	14552.18
627.574	14371.96
627.768	14441.59
627.963	14056.57
628.157	14201.98
628.352	14001.28
628.546	13786.24
628.74	13993.09
628.935	13851.78
629.129	13874.31
629.323	13477
629.517	13808.77
629.712	13630.6
629.906	13681.8
630.1	13192.33
630.294	13427.85
630.489	13427.85
630.683	13272.2
630.877	13153.42
631.071	13145.23
631.265	12979.34
631.459	12885.14
631.653	12854.42
631.848	12948.62
632.042	12737.68
632.236	12696.72
632.43	12524.69
632.624	12666
632.818	12723.35
633.012	12489.88
633.206	12448.92
633.4	12301.47
633.594	12078.24
633.788	12135.58
633.982	12100.76
634.176	12264.6
634.369	11873.44
634.563	12012.7
634.757	11666.6
634.951	11689.12
635.145	11740.32
635.339	11742.37
635.533	11730.08
635.726	11515.05
635.92	11310.25
636.114	11605.16
636.308	11351.21
636.501	11400.36
636.695	11289.77
636.889	11173.03
637.083	11103.4
637.276	11152.56
637.47	10996.91
637.664	10671.28
637.857	10890.42
638.051	10902.7
638.244	10706.1
638.438	10945.71
638.632	10683.57
638.825	10476.73
639.019	10542.26
639.212	10611.89
639.406	10562.74
639.599	10220.73
639.793	10267.83
639.986	10085.56
640.18	10044.6
640.373	10106.04
640.567	10067.13
640.76	10079.42
640.954	10036.41
641.147	9907.39
641.34	9723.07
641.534	9819.33
641.727	9829.57
641.92	9686.21
642.114	9602.24
642.307	9551.04
642.5	9424.07
642.694	9213.13
642.887	9229.51
643.08	9450.69
643.273	9323.72
643.467	9331.91
643.66	9096.39
643.853	9026.76
644.046	9020.62
644.239	9200.84
644.432	8885.45
644.626	8914.13
644.819	8996.04
645.012	8738
645.205	8928.46
645.398	8813.77
645.591	8649.94
645.784	8656.08
645.977	8651.99
646.17	8774.86
646.363	8365.27
646.556	8383.7
646.749	8488.15
646.942	8420.56
647.135	8236.25
647.328	8330.45
647.521	8223.96
647.714	8072.41
647.907	8160.47
648.099	8275.16
648.292	8271.06
648.485	7935.2
648.678	7863.52
648.871	7840.99
649.064	7824.61
649.256	7994.59
649.449	7814.37
649.642	7558.37
649.835	7711.97
650.027	7818.46
650.22	7681.25
650.413	7705.82
650.605	7531.75
650.798	7595.23
650.991	7406.82
651.183	7517.41
651.376	7455.97
651.568	7476.45
651.761	7369.96
651.954	7361.76
652.146	7314.66
652.339	7249.13
652.531	7103.72
652.724	7116.01
652.916	6839.53
653.109	6980.84
653.301	7034.09
653.494	7214.31
653.686	6679.79
653.879	6905.07
654.071	6966.51
654.263	6888.68
654.456	6776.05
654.648	6894.83
654.84	6745.33
655.033	6730.99
655.225	6767.85
655.417	6855.92
655.61	6489.33
655.802	6704.37
655.994	6479.09
656.186	6436.08
656.379	6462.71
656.571	6427.89
656.763	6384.88
656.955	6278.39
657.148	6364.4
657.34	6386.93
657.532	6456.56
657.724	6175.99
657.916	6196.47
658.108	6227.19
658.3	6184.18
658.492	6229.24
658.684	6112.5
658.876	6311.16
659.068	6081.78
659.26	5969.15
659.452	5944.57
659.644	6079.74
659.836	5883.13
660.028	5991.67
660.22	5979.39
660.412	5915.9
660.604	5795.07
660.796	5659.9
660.988	5788.92
661.18	5555.46
661.372	5709.05
661.563	5608.7
661.755	5616.9
661.947	5504.26
662.139	5645.57
662.331	5666.05
662.522	5414.15
662.714	5580.03
662.906	5524.74
663.097	5563.65
663.289	5383.43
663.481	5416.19
663.673	5354.76
663.864	5453.06
664.056	5348.61
664.247	5258.5
664.439	5227.78
664.631	5274.88
664.822	5424.39
665.014	5207.3
665.205	5166.34
665.397	5281.03
665.588	5178.63
665.78	5141.77
665.971	5180.68
666.163	5037.32
666.354	5061.9
666.546	5129.48
666.737	5039.37
666.929	5074.18
667.12	5027.08
667.311	4934.92
667.503	4926.73
667.694	5055.75
667.885	4871.43
668.077	4990.22
668.268	4887.82
668.459	4947.21
668.651	4732.17
668.842	4920.59
669.033	4697.36
669.224	4623.63
669.416	4887.82
669.607	4797.71
669.798	4855.05
669.989	4793.61
670.18	4840.72
670.371	4603.15
670.563	4726.03
670.754	4566.29
670.945	4648.21
671.136	4603.15
671.327	4572.43
671.518	4660.49
671.709	4644.11
671.9	4664.59
672.091	4742.41
672.282	4453.65
672.473	4533.52
672.664	4656.4
672.855	4367.63
673.046	4369.68
673.237	4568.34
673.428	4431.12
673.619	4498.7
673.809	4467.99
674	4519.18
674.191	4502.8
674.382	4367.63
674.573	4615.44
674.764	4445.46
674.954	4578.58
675.145	4449.55
675.336	4220.18
675.527	4457.75
675.717	4562.19
675.908	4244.76
676.099	4244.76
676.289	4615.44
676.48	4424.98
676.671	4314.39
676.861	4414.74
677.052	4265.24
677.243	4424.98
677.433	4316.44
677.624	4451.6
677.814	4197.65
678.005	4427.03
678.195	4449.55
678.386	4302.1
678.576	4312.34
678.767	4519.18
678.957	4367.63
679.148	4310.29
679.338	4255
679.529	4474.13
679.719	4302.1
679.909	4484.37
680.1	4279.57
680.29	4369.68
680.481	4291.86
680.671	4300.05
680.861	4326.68
681.052	4281.62
681.242	4302.1
681.432	4334.87
681.622	4304.15
681.813	4179.22
682.003	4285.72
682.193	4324.63
682.383	4298
682.573	4218.13
682.764	4257.04
682.954	4222.23
683.144	4175.13
683.334	4300.05
683.524	4275.48
683.714	4300.05
683.904	4279.57
684.094	4261.14
684.284	4300.05
684.474	4451.6
684.664	4367.63
684.854	4265.24
685.044	4197.65
685.234	4201.75
685.424	4209.94
685.614	4121.88
685.804	4265.24
685.994	4048.15
686.184	4189.46
686.374	4128.02
686.564	3964.18
686.753	4205.85
686.943	4138.26
687.133	4103.45
687.323	4007.19
687.513	4211.99
687.702	3888.41
687.892	4005.14
688.082	4101.4
688.272	4128.02
688.461	4044.06
688.651	4125.97
688.841	3820.83
689.03	3923.23
689.22	3863.83
689.41	3882.27
689.599	3831.07
689.789	3919.13
689.979	3912.99
690.168	3767.58
690.358	3761.44
690.547	3765.53
690.737	3753.24
690.926	3675.42
691.116	3665.18
691.305	3837.21
691.495	3829.02
691.684	3648.8
691.874	3630.37
692.063	3644.7
692.252	3570.97
692.442	3687.71
692.631	3575.07
692.82	3673.37
693.01	3573.02
693.199	3489.06
693.388	3570.97
693.578	3513.63
693.767	3446.05
693.956	3536.16
694.146	3599.65
694.335	3468.58
694.524	3546.4
694.713	3564.83
694.902	3507.49
695.092	3360.03
695.281	3394.85
695.47	3439.9
695.659	3409.19
695.848	3317.03
696.037	3499.3
696.226	3458.34
696.415	3294.5
696.604	3525.92
696.793	3312.93
696.982	3345.7
697.171	3353.89
697.36	3308.83
697.549	3407.14
697.738	3171.62
697.927	3423.52
698.116	3384.61
698.305	3341.6
698.494	3374.37
698.683	3290.4
698.872	3294.5
699.061	3331.36
699.25	3304.74
699.438	3294.5
699.627	3265.83
699.816	3276.07
700.005	3157.29
700.193	3216.68
700.382	3255.59
700.571	3290.4
700.76	3263.78
700.948	3237.16
701.137	3259.68
701.326	3337.51
701.514	3325.22
701.703	3364.13
701.892	3329.31
702.08	3382.56
702.269	3317.03
702.457	3222.82
702.646	3300.64
702.834	3292.45
703.023	3306.79
703.212	3314.98
703.4	3349.79
703.589	3239.2
703.777	3294.5
703.965	3251.49
704.154	3175.72
704.342	3319.07
704.531	3355.94
704.719	3357.99
704.907	3329.31
705.096	3237.16
705.284	3220.77
705.472	3304.74
705.661	3446.05
705.849	3323.17
706.037	3237.16
706.226	3243.3
706.414	3400.99
706.602	3243.3
706.79	3411.23
706.979	3157.29
707.167	3306.79
707.355	3194.15
707.543	3310.88
707.731	3335.46
707.919	3386.66
708.107	3179.81
708.296	3312.93
708.484	3247.4
708.672	3345.7
708.86	3302.69
709.048	3323.17
709.236	3288.36
709.424	3314.98
709.612	3435.81
709.8	3325.22
709.988	3450.14
710.176	3294.5
710.364	3331.36
710.551	3282.21
710.739	3247.4
710.927	3409.19
711.115	3317.03
711.303	3349.79
711.491	3437.86
711.679	3329.31
711.866	3392.8
712.054	3454.24
712.242	3333.41
712.43	3411.23
712.617	3468.58
712.805	3421.47
712.993	3474.72
713.181	3243.3
713.368	3439.9
713.556	3417.38
713.744	3317.03
713.931	3515.68
714.119	3380.51
714.306	3521.82
714.494	3335.46
714.682	3431.71
714.869	3487.01
715.057	3589.41
715.244	3396.9
715.432	3470.62
715.619	3570.97
715.807	3343.65
715.994	3392.8
716.182	3525.92
716.369	3487.01
716.556	3562.78
716.744	3532.06
716.931	3499.3
717.119	3419.43
717.306	3495.2
717.493	3550.5
717.681	3573.02
717.868	3609.89
718.055	3630.37
718.242	3599.65
718.43	3769.63
718.617	3550.5
718.804	3570.97
718.991	3663.13
719.179	3579.17
719.366	3591.45
719.553	3656.99
719.74	3632.41
719.927	3659.04
720.114	3611.93
720.301	3570.97
720.488	3597.6
720.676	3499.3
720.863	3661.09
721.05	3640.61
721.237	3755.29
721.424	3704.09
721.611	3779.87
721.798	3515.68
721.985	3669.28
722.172	3583.26
722.358	3568.93
722.545	3656.99
722.732	3677.47
722.919	3716.38
723.106	3677.47
723.293	3706.14
723.48	3700
723.667	3564.83
723.853	3820.83
724.04	3695.9
724.227	3738.91
724.414	3878.17
724.6	3728.67
724.787	3722.52
724.974	3722.52
725.161	3783.96
725.347	3693.85
725.534	3661.09
725.72	3874.07
725.907	3714.33
726.094	3835.16
726.28	3927.32
726.467	3538.21
726.653	3882.27
726.84	3745.05
727.027	3892.51
727.213	3691.8
727.4	3755.29
727.586	3773.72
727.773	3798.3
727.959	3740.96
728.145	3761.44
728.332	3812.64
728.518	3876.12
728.705	3886.36
728.891	3740.96
729.077	3847.45
729.264	3822.87
729.45	3695.9
729.636	3869.98
729.823	3689.76
730.009	3984.66
730.195	3706.14
730.382	3863.83
730.568	3837.21
730.754	3955.99
730.94	3906.84
731.126	3958.04
731.313	3806.49
731.499	3890.46
731.685	3927.32
731.871	3861.79
732.057	3843.35
732.243	3912.99
732.429	4003.1
732.615	3968.28
732.801	3921.18
732.987	3872.03
733.173	3906.84
733.359	4013.34
733.545	3935.51
733.731	3980.57
733.917	3986.71
734.103	3953.94
734.289	3984.66
734.475	3960.09
734.661	3894.55
734.847	3970.33
735.033	3943.71
735.219	4011.29
735.404	3980.57
735.59	3994.9
735.776	3874.07
735.962	3804.44
736.148	3888.41
736.333	3970.33
736.519	3923.23
736.705	4009.24
736.89	3915.03
737.076	3931.42
737.262	3955.99
737.447	3908.89
737.633	3937.56
737.819	4007.19
738.004	3872.03
738.19	4105.49
738.375	3933.47
738.561	3878.17
738.747	3910.94
738.932	3700
739.118	3992.86
739.303	3826.97
739.489	3890.46
739.674	3843.35
739.859	3841.31
740.045	3896.6
740.23	3951.9
740.416	3912.99
740.601	3794.2
740.786	3818.78
740.972	3677.47
741.157	3855.64
741.342	3820.83
741.528	3753.24
741.713	3618.08
741.898	3697.95
742.084	3933.47
742.269	3730.72
742.454	3652.89
742.639	3876.12
742.824	3687.71
743.01	3642.65
743.195	3685.66
743.38	3767.58
743.565	3722.52
743.75	3732.76
743.935	3710.24
744.12	3710.24
744.305	3661.09
744.49	3550.5
744.675	3632.41
744.86	3659.04
745.045	3611.93
745.23	3444
745.415	3595.55
745.6	3589.41
745.785	3489.06
745.97	3556.64
746.155	3444
746.34	3663.13
746.525	3501.34
746.71	3595.55
746.895	3511.58
747.079	3554.59
747.264	3353.89
747.449	3458.34
747.634	3392.8
747.819	3349.79
748.003	3269.92
748.188	3366.18
748.373	3331.36
748.557	3284.26
748.742	3257.64
748.927	3243.3
749.111	3104.04
749.296	3362.08
749.481	3224.87
749.665	3124.52
749.85	3124.52
750.034	3167.52
750.219	3110.18
750.404	3145
750.588	3093.8
750.773	2999.59
750.957	3122.47
751.141	3005.74
751.326	2891.05
751.51	2993.45
751.695	3009.83
751.879	2960.68
752.064	3085.61
752.248	2968.87
752.432	2946.34
752.617	2858.28
752.801	2845.99
752.985	2743.6
753.17	2850.09
753.354	2874.67
753.538	2782.51
753.722	2751.79
753.907	2735.4
754.091	2721.07
754.275	2792.75
754.459	2682.16
754.643	2608.43
754.828	2686.25
755.012	2575.66
755.196	2612.53
755.38	2745.64
755.564	2518.32
755.748	2665.77
755.932	2657.58
756.116	2555.18
756.3	2463.02
756.484	2485.55
756.668	2452.78
756.852	2374.96
757.036	2397.49
757.22	2338.1
757.404	2411.82
757.588	2227.51
757.772	2399.54
757.956	2450.74
758.14	2403.63
758.323	2247.99
758.507	2362.67
758.691	2313.52
758.875	2266.42
759.059	2305.33
759.242	2164.02
759.426	2356.53
759.61	2258.23
759.794	2233.65
759.977	2225.46
760.161	2297.14
760.345	2106.68
760.528	2129.2
760.712	2202.93
760.895	2155.83
761.079	2114.87
761.263	2063.67
761.446	2190.64
761.63	2069.81
761.813	2032.95
761.997	2071.86
762.18	2047.29
762.364	2049.33
762.547	2026.81
762.731	1979.7
762.914	2116.92
763.098	1996.09
763.281	2002.23
763.464	2086.2
763.648	1996.09
763.831	1975.61
764.015	1965.37
764.198	1975.61
764.381	1951.03
764.564	1905.98
764.748	1989.94
764.931	1975.61
765.114	1865.02
765.297	1934.65
765.481	1776.95
765.664	1768.76
765.847	1774.91
766.03	1862.97
766.213	1795.39
766.397	1754.43
766.58	1809.72
766.763	1783.1
766.946	1873.21
767.129	1748.28
767.312	1822.01
767.495	1848.63
767.678	1836.35
767.861	1779
768.044	1733.95
768.227	1733.95
768.41	1762.62
768.593	1703.23
768.776	1758.52
768.959	1725.75
769.142	1686.84
769.324	1621.31
769.507	1643.84
769.69	1785.15
769.873	1627.45
770.056	1699.13
770.239	1615.16
770.421	1764.67
770.604	1623.36
770.787	1551.68
770.97	1557.82
771.152	1502.53
771.335	1629.5
771.518	1465.66
771.7	1641.79
771.883	1592.64
772.066	1660.22
772.248	1510.72
772.431	1551.68
772.613	1506.62
772.796	1502.53
772.978	1484.09
773.161	1492.29
773.343	1475.9
773.526	1451.33
773.708	1436.99
773.891	1432.9
774.073	1500.48
774.256	1400.13
774.438	1539.39
774.621	1484.09
774.803	1484.09
774.985	1359.17
775.168	1434.94
775.35	1418.56
775.532	1334.59
775.715	1318.21
775.897	1301.83
776.079	1277.25
776.261	1312.07
776.444	1363.26
776.626	1318.21
776.808	1297.73
776.99	1240.39
777.173	1334.59
777.355	1189.19
777.537	1283.39
777.719	1166.66
777.901	1185.09
778.083	1221.95
778.265	1191.24
778.447	1193.28
778.629	1137.99
778.811	1131.84
778.993	1254.72
779.175	1148.23
779.357	1150.28
779.539	1174.85
779.721	1125.7
779.903	1160.52
780.085	1058.12
780.267	1127.75
780.449	1127.75
780.631	1183.04
780.812	1111.36
780.994	994.63
781.176	1099.08
781.358	1011.01
781.54	1103.17
781.721	1004.87
781.903	1041.73
782.085	961.86
782.267	1039.69
782.448	951.62
782.63	955.72
782.812	857.42
782.993	976.2
783.175	988.49
783.357	996.68
783.538	1000.77
783.72	972.1
783.901	953.67
784.083	922.95
784.264	824.65
784.446	877.9
784.627	757.07
784.809	937.29
784.99	914.76
785.172	824.65
785.353	861.51
785.535	824.65
785.716	820.55
785.897	832.84
786.079	834.89
786.26	816.46
786.441	773.45
786.623	800.07
786.804	783.69
786.985	763.21
787.167	828.74
787.348	748.87
787.529	798.03
787.71	802.12
787.891	767.31
788.073	859.46
788.254	621.9
788.435	771.4
788.616	666.96
788.797	671.05
788.978	685.39
789.159	707.91
789.34	734.54
789.522	750.92
789.703	695.63
789.884	628.04
790.065	660.81
790.246	701.77
790.427	634.19
790.607	730.44
790.788	644.43
790.969	724.3
791.15	693.58
791.331	613.71
791.512	693.58
791.693	607.56
791.874	533.84
792.054	658.76
792.235	630.09
792.416	662.86
792.597	601.42
792.778	609.61
792.958	599.37
793.139	613.71
793.32	613.71
793.5	648.52
793.681	605.52
793.862	617.8
794.042	535.89
794.223	453.97
794.404	462.16
794.584	539.98
794.765	628.04
794.945	572.75
795.126	597.32
795.306	572.75
795.487	519.5
795.667	580.94
795.848	539.98
796.028	507.21
796.209	464.21
796.389	570.7
796.57	562.51
796.75	488.78
796.93	537.93
797.111	468.3
797.291	517.45
797.471	468.3
797.652	486.73
797.832	429.39
798.012	542.03
798.192	525.65
798.373	392.53
798.553	515.41
798.733	462.16
798.913	456.01
799.093	456.01
799.274	488.78
799.454	484.69
799.634	513.36
799.814	382.29
799.994	521.55
800.174	496.97
800.354	451.92
800.534	437.58
800.714	447.82
800.894	394.58
801.074	384.34
801.254	484.69
801.434	466.25
801.614	468.3
801.794	445.77
801.974	1131.84
802.154	410.96
802.334	486.73
802.514	390.48
802.693	439.63
802.873	339.28
803.053	382.29
803.233	449.87
803.413	433.49
803.592	392.53
803.772	359.76
803.952	419.15
804.131	386.38
804.311	402.77
804.491	392.53
804.67	351.57
804.85	341.33
805.03	435.53
805.209	380.24
805.389	374.1
805.568	288.08
805.748	310.61
805.928	388.43
806.107	378.19
806.287	347.47
806.466	331.09
806.646	423.25
806.825	355.66
807.004	298.32
807.184	347.47
807.363	314.7
807.543	353.62
807.722	335.18
807.901	374.1
808.081	415.05
808.26	316.75
808.439	365.9
808.619	318.8
808.798	279.89
808.977	314.7
809.156	308.56
809.336	339.28
809.515	320.85
809.694	286.03
809.873	281.94
810.052	353.62
810.231	335.18
810.411	261.46
810.59	345.42
810.769	273.75
810.948	290.13
811.127	283.98
811.306	275.79
811.485	314.7
811.664	318.8
811.843	300.37
812.022	210.26
812.201	326.99
812.38	326.99
812.559	353.62
812.737	226.64
812.916	232.79
813.095	232.79
813.274	292.18
813.453	271.7
813.632	326.99
813.811	378.19
813.989	200.02
814.168	296.27
814.347	232.79
814.526	220.5
814.704	302.42
814.883	222.55
815.062	265.55
815.24	257.36
815.419	279.89
815.598	351.57
815.776	232.79
815.955	238.93
816.133	169.3
816.312	298.32
816.49	185.68
816.669	238.93
816.847	232.79
817.026	212.31
817.204	298.32
817.383	251.22
817.561	218.45
817.74	193.87
817.918	271.7
818.097	157.01
818.275	161.11
818.453	228.69
818.632	218.45
818.81	243.03
818.988	208.21
819.167	251.22
819.345	275.79
819.523	109.91
819.701	212.31
819.879	214.35
820.058	226.64
820.236	200.02
820.414	193.87
820.592	243.03
820.77	290.13
820.948	220.5
821.127	220.5
821.305	234.83
821.483	228.69
821.661	187.73
821.839	144.72
822.017	138.58
822.195	216.4
822.373	210.26
822.551	195.92
822.729	204.11
822.907	222.55
823.085	187.73
823.262	240.98
823.44	161.11
823.618	173.39
823.796	116.05
823.974	89.43
824.152	220.5
824.329	320.85
824.507	226.64
824.685	224.59
824.863	169.3
825.04	150.87
825.218	224.59
825.396	204.11
825.574	163.15
825.751	245.07
825.929	185.68
826.107	138.58
826.284	183.63
826.462	181.59
826.639	85.33
826.817	142.68
826.994	140.63
827.172	128.34
827.349	169.3
827.527	183.63
827.704	175.44
827.882	154.96
828.059	210.26
828.237	101.72
828.414	214.35
828.591	148.82
828.769	177.49
828.946	148.82
829.124	173.39
829.301	140.63
829.478	167.25
829.655	193.87
829.833	109.91
830.01	109.91
830.187	101.72
830.364	187.73
830.542	116.05
830.719	175.44
830.896	236.88
831.073	122.2
831.25	152.91
831.427	212.31
831.604	120.15
831.782	146.77
831.959	169.3
832.136	154.96
832.313	116.05
832.49	167.25
832.667	111.96
832.844	148.82
833.021	159.06
833.198	175.44
833.374	138.58
833.551	140.63
833.728	167.25
833.905	232.79
834.082	173.39
834.259	101.72
834.436	161.11
834.612	159.06
834.789	177.49
834.966	146.77
835.143	114
835.319	64.85
835.496	130.39
835.673	150.87
835.85	126.29
836.026	148.82
836.203	175.44
836.38	77.14
836.556	167.25
836.733	128.34
836.909	191.83
837.086	85.33
837.262	124.24
837.439	116.05
837.616	85.33
837.792	251.22
837.968	91.48
838.145	36.18
838.321	87.38
838.498	138.58
838.674	148.82
838.851	103.76
839.027	138.58
839.203	136.53
839.38	126.29
839.556	85.33
839.732	120.15
839.909	136.53
840.085	111.96
840.261	36.18
840.437	66.9
840.614	40.28
840.79	46.42
840.966	103.76
841.142	87.38
841.318	116.05
841.494	99.67
841.671	124.24
841.847	81.24
842.023	46.42
842.199	87.38
842.375	116.05
842.551	71
842.727	60.76
842.903	111.96
843.079	15.7
843.255	173.39
843.431	124.24
843.607	60.76
843.783	42.32
843.959	101.72
844.134	83.28
844.31	87.38
844.486	60.76
844.662	54.61
844.838	111.96
845.013	122.2
845.189	130.39
845.365	111.96
845.541	56.66
845.716	99.67
845.892	56.66
846.068	1.37
846.244	87.38
846.419	56.66
846.595	13.65
846.77	66.9
846.946	60.76
847.122	56.66
847.297	62.8
847.473	105.81
847.648	-10.92
847.824	52.56
847.999	17.75
848.175	93.52
848.35	25.94
848.526	83.28
848.701	71
848.876	101.72
849.052	146.77
849.227	85.33
849.403	36.18
849.578	3.41
849.753	89.43
849.929	148.82
850.104	25.94
850.279	103.76
850.454	19.8
850.63	52.56
850.805	32.08
850.98	83.28
851.155	-8.87
851.33	120.15
851.505	52.56
851.681	146.77
851.856	42.32
852.031	128.34
852.206	56.66
852.381	34.13
852.556	3.41
852.731	40.28
852.906	46.42
853.081	116.05
853.256	23.89
853.431	114
853.606	21.84
853.781	32.08
853.956	66.9
854.131	30.04
854.305	-2.73
854.48	-10.92
854.655	-0.68
854.83	103.76
855.005	77.14
855.18	32.08
855.354	77.14
855.529	48.47
855.704	81.24
855.879	30.04
856.053	21.84
856.228	111.96
856.403	101.72
856.577	27.99
856.752	13.65
856.926	124.24
857.101	99.67
857.276	7.51
857.45	21.84
857.625	140.63
857.799	64.85
857.974	-21.16
858.148	-60.07
858.323	1.37
858.497	-25.26
858.672	79.19
858.846	-25.26
859.02	52.56
859.195	3.41
859.369	-23.21
859.543	52.56
859.718	56.66
859.892	21.84
860.066	40.28
860.241	-6.83
860.415	-2.73
860.589	-10.92
860.763	-12.97
860.938	34.13
861.112	-2.73
861.286	17.75
861.46	-12.97
861.634	5.46
861.808	107.86
861.982	-43.69
862.157	85.33
862.331	-43.69
862.505	66.9
862.679	-33.45
862.853	60.76
863.027	17.75
863.201	93.52
863.375	27.99
863.549	17.75
863.722	15.7
863.896	52.56
864.07	-15.02
864.244	15.7
864.418	32.08
864.592	36.18
864.766	122.2
864.939	5.46
865.113	50.52
865.287	79.19
865.461	5.46
865.634	79.19
865.808	3.41
865.982	19.8
866.156	13.65
866.329	3.41
866.503	71
866.676	62.8
866.85	81.24
867.024	-8.87
867.197	15.7
867.371	48.47
867.544	58.71
867.718	71
867.891	120.15
868.065	1.37
868.238	56.66
868.412	62.8
868.585	13.65
868.759	-4.78
868.932	40.28
869.105	62.8
869.279	-10.92
869.452	23.89
869.625	-0.68
869.799	3.41
869.972	34.13
870.145	48.47
870.319	103.76
870.492	17.75
870.665	21.84
870.838	52.56
871.011	-8.87
871.185	-17.07
871.358	-33.45
871.531	62.8
871.704	-19.11
871.877	15.7
872.05	-0.68
872.223	23.89
872.396	30.04
872.569	-49.83
872.742	-33.45
872.915	87.38
873.088	62.8
873.261	-41.64
873.434	46.42
873.607	19.8
873.78	-10.92
873.953	-21.16
874.126	27.99
874.299	11.61
874.471	25.94
874.644	21.84
874.817	79.19
874.99	134.48
875.163	73.04
875.335	128.34
875.508	42.32
875.681	77.14
875.853	-29.35
876.026	79.19
876.199	109.91
876.371	-0.68
876.544	54.61
876.717	-4.78
876.889	1.37
877.062	13.65
877.234	60.76
877.407	15.7
877.579	21.84
877.752	48.47
877.924	23.89
878.097	21.84
878.269	15.7
878.442	58.71
878.614	40.28
878.786	-8.87
878.959	52.56
879.131	11.61
879.303	-55.98
879.476	-80.55
879.648	5.46
879.82	73.04
879.993	11.61
880.165	66.9
880.337	1.37
880.509	34.13
880.681	-35.5
880.854	-37.55
881.026	42.32
881.198	93.52
881.37	56.66
881.542	38.23
881.714	-12.97
881.886	5.46
882.058	-2.73
882.23	23.89
882.402	9.56
882.574	46.42
882.746	-12.97
882.918	-2.73
883.09	-27.31
883.262	34.13
883.434	23.89
883.606	95.57
883.778	1.37
883.95	46.42
884.122	34.13
884.293	116.05
884.465	-41.64
884.637	-19.11
884.809	-29.35
884.98	58.71
885.152	15.7
885.324	5.46
885.496	36.18
885.667	-51.88
885.839	-8.87
886.011	13.65
886.182	40.28
886.354	1.37
886.525	7.51
886.697	81.24
886.869	-17.07
887.04	40.28
887.212	95.57
887.383	120.15
887.555	-43.69
887.726	-45.74
887.897	7.51
888.069	77.14
888.24	25.94
888.412	58.71
888.583	30.04
888.754	-12.97
888.926	-37.55
889.097	-19.11
889.268	-39.59
889.44	-17.07
889.611	-8.87
889.782	-8.87
889.953	-0.68
890.125	93.52
890.296	1.37
890.467	-25.26
890.638	-0.68
890.809	-2.73
890.98	34.13
891.151	-8.87
891.323	48.47
891.494	-27.31
891.665	-47.79
891.836	15.7
892.007	40.28
892.178	11.61
892.349	5.46
892.52	60.76
892.691	42.32
892.862	-27.31
893.032	1.37
893.203	7.51
893.374	-21.16
893.545	-6.83
893.716	-66.22
893.887	71
894.057	75.09
894.228	50.52
894.399	-43.69
894.57	148.82
894.74	19.8
894.911	38.23
895.082	32.08
895.253	-21.16
895.423	-47.79
895.594	-12.97
895.764	38.23
895.935	-72.36
896.106	21.84
896.276	-49.83
896.447	36.18
896.617	-29.35
896.788	-27.31
896.958	13.65
897.129	-55.98
897.299	-47.79
897.47	25.94
897.64	-4.78
897.81	38.23
897.981	13.65
898.151	13.65
898.322	75.09
898.492	-33.45
898.662	15.7
898.832	-2.73
899.003	-76.46
899.173	40.28
899.343	-35.5
899.513	19.8
