Data from USB4F104151__98__12-24-58-686.txt Node

Date: Fri Mar 14 12:24:58 EDT 2025
User: louis
Spectrometer: USB4F10415
Trigger mode: 4
Integration Time (sec): 3.500000E-2
Scans to average: 1
Electric dark correction enabled: true
Nonlinearity correction enabled: false
Boxcar width: 0
XAxis mode: Wavelengths
Number of Pixels in Spectrum: 3648
>>>>>Begin Spectral Data<<<<<
178.204	-146.09
178.424	-146.09
178.644	-146.09
178.864	-113.32
179.084	-125.61
179.304	-72.36
179.524	1.37
179.744	-27.31
179.964	-10.92
180.184	73.04
180.404	62.8
180.624	-2.73
180.844	50.52
181.064	-70.31
181.283	-47.79
181.503	-0.68
181.723	44.37
181.943	7.51
182.163	77.14
182.383	32.08
182.602	62.8
182.822	122.2
183.042	32.08
183.262	32.08
183.482	97.62
183.701	5.46
183.921	56.66
184.141	-45.74
184.361	54.61
184.58	32.08
184.8	-10.92
185.02	23.89
185.239	56.66
185.459	50.52
185.679	91.48
185.898	-37.55
186.118	68.95
186.338	3.41
186.557	120.15
186.777	-4.78
186.997	-12.97
187.216	-47.79
187.436	136.53
187.655	-15.02
187.875	66.9
188.095	1.37
188.314	36.18
188.534	62.8
188.753	-25.26
188.973	142.68
189.192	79.19
189.412	40.28
189.631	50.52
189.851	64.85
190.07	40.28
190.29	-51.88
190.509	68.95
190.729	-72.36
190.948	23.89
191.168	140.63
191.387	56.66
191.607	32.08
191.826	60.76
192.045	64.85
192.265	-0.68
192.484	27.99
192.704	73.04
192.923	-31.4
193.142	124.24
193.362	142.68
193.581	136.53
193.8	87.38
194.02	73.04
194.239	36.18
194.458	5.46
194.678	27.99
194.897	64.85
195.116	38.23
195.335	17.75
195.555	56.66
195.774	60.76
195.993	81.24
196.212	126.29
196.432	-19.11
196.651	44.37
196.87	42.32
197.089	85.33
197.308	38.23
197.528	66.9
197.747	-21.16
197.966	-27.31
198.185	116.05
198.404	-19.11
198.623	46.42
198.842	71
199.062	83.28
199.281	62.8
199.5	5.46
199.719	50.52
199.938	118.1
200.157	48.47
200.376	103.76
200.595	58.71
200.814	-10.92
201.033	75.09
201.252	58.71
201.471	103.76
201.69	114
201.909	128.34
202.128	30.04
202.347	48.47
202.566	85.33
202.785	34.13
203.004	11.61
203.223	138.58
203.442	75.09
203.661	101.72
203.879	21.85
204.098	44.37
204.317	66.9
204.536	95.57
204.755	3.41
204.974	101.72
205.193	17.75
205.411	120.15
205.63	68.95
205.849	62.8
206.068	7.51
206.287	38.23
206.505	-17.07
206.724	73.04
206.943	-17.07
207.162	85.33
207.381	71
207.599	44.37
207.818	-10.92
208.037	27.99
208.255	66.9
208.474	-4.78
208.693	9.56
208.911	87.38
209.13	54.61
209.349	83.28
209.567	93.52
209.786	118.1
210.005	36.18
210.223	32.08
210.442	15.7
210.661	-12.97
210.879	5.46
211.098	91.48
211.316	44.37
211.535	116.05
211.753	52.56
211.972	23.89
212.191	-8.87
212.409	116.05
212.628	36.18
212.846	44.37
213.065	15.7
213.283	46.42
213.502	-21.16
213.72	-4.78
213.938	-29.35
214.157	42.32
214.375	23.89
214.594	48.47
214.812	122.2
215.031	38.23
215.249	17.75
215.467	-17.07
215.686	81.24
215.904	1.37
216.122	11.61
216.341	85.33
216.559	66.9
216.778	116.05
216.996	54.61
217.214	13.65
217.432	3.41
217.651	21.85
217.869	21.85
218.087	71
218.306	-2.73
218.524	19.8
218.742	30.04
218.96	36.18
219.179	-4.78
219.397	38.23
219.615	99.67
219.833	25.94
220.051	-60.07
220.27	15.7
220.488	71
220.706	36.18
220.924	85.33
221.142	42.32
221.36	5.46
221.578	101.72
221.796	91.48
222.015	42.32
222.233	36.18
222.451	97.62
222.669	-41.64
222.887	36.18
223.105	-12.97
223.323	15.7
223.541	15.7
223.759	93.52
223.977	73.04
224.195	73.04
224.413	52.56
224.631	73.04
224.849	44.37
225.067	142.68
225.285	68.95
225.503	75.09
225.721	-45.74
225.939	93.52
226.157	48.47
226.375	103.76
226.592	32.08
226.81	-62.12
227.028	165.2
227.246	109.91
227.464	30.04
227.682	95.57
227.9	93.52
228.117	23.89
228.335	21.85
228.553	30.04
228.771	40.28
228.989	97.62
229.206	50.52
229.424	-33.45
229.642	44.37
229.86	5.46
230.077	73.04
230.295	7.51
230.513	93.52
230.731	58.71
230.948	130.39
231.166	118.1
231.384	79.19
231.601	-25.26
231.819	66.9
232.037	40.28
232.254	60.76
232.472	60.76
232.689	1.37
232.907	25.94
233.125	73.04
233.342	-21.16
233.56	19.8
233.777	46.42
233.995	23.89
234.213	66.9
234.43	32.08
234.648	5.46
234.865	71
235.083	116.05
235.3	40.28
235.518	146.77
235.735	42.32
235.953	25.94
236.17	38.23
236.388	71
236.605	19.8
236.822	87.38
237.04	109.91
237.257	99.67
237.475	42.32
237.692	64.85
237.909	93.52
238.127	27.99
238.344	38.23
238.562	81.24
238.779	-33.45
238.996	107.86
239.214	54.61
239.431	30.04
239.648	25.94
239.865	130.39
240.083	32.08
240.3	23.89
240.517	-21.16
240.735	99.67
240.952	-6.83
241.169	25.94
241.386	105.81
241.603	-29.35
241.821	-27.31
242.038	40.28
242.255	93.52
242.472	48.47
242.689	56.66
242.907	27.99
243.124	3.41
243.341	1.37
243.558	15.7
243.775	-12.97
243.992	-0.68
244.209	99.67
244.426	46.42
244.643	132.44
244.86	-39.59
245.078	120.15
245.295	107.86
245.512	34.13
245.729	101.72
245.946	44.37
246.163	77.14
246.38	-6.83
246.597	5.46
246.814	30.04
247.031	40.28
247.248	27.99
247.464	5.46
247.681	23.89
247.898	60.76
248.115	60.76
248.332	34.13
248.549	101.72
248.766	140.63
248.983	75.09
249.2	36.18
249.417	132.44
249.633	68.95
249.85	30.04
250.067	15.7
250.284	87.38
250.501	66.9
250.717	85.33
250.934	25.94
251.151	34.13
251.368	50.52
251.585	15.7
251.801	9.56
252.018	1.37
252.235	75.09
252.451	-62.12
252.668	5.46
252.885	91.48
253.102	44.37
253.318	17.75
253.535	9.56
253.752	56.66
253.968	52.56
254.185	-66.22
254.401	54.61
254.618	27.99
254.835	-19.11
255.051	97.62
255.268	42.32
255.484	17.75
255.701	54.61
255.917	9.56
256.134	52.56
256.351	93.52
256.567	46.42
256.784	48.47
257	-33.45
257.217	23.89
257.433	30.04
257.65	105.81
257.866	95.57
258.082	17.75
258.299	17.75
258.515	32.08
258.732	5.46
258.948	1.37
259.165	30.04
259.381	38.23
259.597	-49.83
259.814	48.47
260.03	-43.69
260.246	-21.16
260.463	68.95
260.679	64.85
260.895	81.24
261.112	87.38
261.328	40.28
261.544	124.24
261.761	103.76
261.977	1.37
262.193	-12.97
262.409	60.76
262.626	103.76
262.842	101.72
263.058	-27.31
263.274	25.94
263.49	13.65
263.707	54.61
263.923	85.33
264.139	71
264.355	21.85
264.571	142.68
264.787	71
265.004	68.95
265.22	66.9
265.436	52.56
265.652	48.47
265.868	91.48
266.084	-31.4
266.3	116.05
266.516	-60.07
266.732	73.04
266.948	66.9
267.164	25.94
267.38	71
267.596	38.23
267.812	128.34
268.028	34.13
268.244	75.09
268.46	85.33
268.676	44.37
268.892	38.23
269.108	36.18
269.324	77.14
269.54	-29.35
269.756	56.66
269.972	-49.83
270.188	71
270.403	-21.16
270.619	-8.87
270.835	83.28
271.051	114
271.267	99.67
271.483	34.13
271.698	52.56
271.914	38.23
272.13	68.95
272.346	48.47
272.562	66.9
272.777	114
272.993	46.42
273.209	46.42
273.425	-2.73
273.64	93.52
273.856	-2.73
274.072	15.7
274.287	25.94
274.503	52.56
274.719	58.71
274.934	42.32
275.15	46.42
275.366	19.8
275.581	73.04
275.797	27.99
276.012	68.95
276.228	64.85
276.444	32.08
276.659	105.81
276.875	120.15
277.09	60.76
277.306	7.51
277.521	103.76
277.737	75.09
277.952	87.38
278.168	116.05
278.383	27.99
278.599	19.8
278.814	32.08
279.03	81.24
279.245	116.05
279.461	79.19
279.676	71
279.892	126.29
280.107	15.7
280.322	32.08
280.538	79.19
280.753	107.86
280.969	-12.97
281.184	50.52
281.399	11.61
281.615	23.89
281.83	-8.87
282.045	68.95
282.26	73.04
282.476	5.46
282.691	95.57
282.906	62.8
283.122	75.09
283.337	-0.68
283.552	34.13
283.767	83.28
283.983	62.8
284.198	25.94
284.413	19.8
284.628	-17.07
284.843	93.52
285.058	64.85
285.274	9.56
285.489	13.65
285.704	36.18
285.919	32.08
286.134	42.32
286.349	23.89
286.564	-60.07
286.779	148.82
286.995	7.51
287.21	27.99
287.425	21.85
287.64	1.37
287.855	97.62
288.07	73.04
288.285	64.85
288.5	36.18
288.715	109.91
288.93	-17.07
289.145	-27.31
289.36	60.76
289.575	-4.78
289.79	103.76
290.004	-49.83
290.219	95.57
290.434	-39.59
290.649	17.75
290.864	111.96
291.079	23.89
291.294	32.08
291.509	66.9
291.724	32.08
291.938	-29.35
292.153	54.61
292.368	48.47
292.583	81.24
292.798	15.7
293.012	66.9
293.227	19.8
293.442	19.8
293.657	-2.73
293.871	93.52
294.086	5.46
294.301	89.43
294.516	89.43
294.73	66.9
294.945	-4.78
295.16	68.95
295.374	68.95
295.589	75.09
295.804	-10.92
296.018	54.61
296.233	95.57
296.447	48.47
296.662	27.99
296.877	128.34
297.091	58.71
297.306	30.04
297.52	7.51
297.735	42.32
297.949	3.41
298.164	9.56
298.378	11.61
298.593	93.52
298.807	62.8
299.022	60.76
299.236	66.9
299.451	3.41
299.665	17.75
299.88	54.61
300.094	71
300.309	-27.31
300.523	75.09
300.737	85.33
300.952	11.61
301.166	-51.88
301.381	73.04
301.595	85.33
301.809	27.99
302.024	32.08
302.238	62.8
302.452	50.52
302.667	-2.73
302.881	101.72
303.095	50.52
303.309	85.33
303.524	-17.07
303.738	101.72
303.952	-17.07
304.166	89.43
304.381	68.95
304.595	107.86
304.809	-12.97
305.023	-29.35
305.237	54.61
305.452	81.24
305.666	107.86
305.88	89.43
306.094	56.66
306.308	75.09
306.522	-33.45
306.736	83.28
306.95	1.37
307.164	25.94
307.379	68.95
307.593	79.19
307.807	34.13
308.021	64.85
308.235	93.52
308.449	9.56
308.663	150.87
308.877	142.68
309.091	-21.16
309.305	38.23
309.519	-51.88
309.733	83.28
309.947	-31.4
310.161	111.96
310.374	58.71
310.588	44.37
310.802	15.7
311.016	15.7
311.23	107.86
311.444	46.42
311.658	56.66
311.872	109.91
312.085	105.81
312.299	38.23
312.513	23.89
312.727	32.08
312.941	58.71
313.154	54.61
313.368	40.28
313.582	62.8
313.796	101.72
314.009	17.75
314.223	73.04
314.437	21.85
314.651	89.43
314.864	50.52
315.078	85.33
315.292	19.8
315.505	13.65
315.719	-15.02
315.933	48.47
316.146	99.67
316.36	60.76
316.573	85.33
316.787	144.72
317.001	109.91
317.214	-12.97
317.428	7.51
317.641	36.18
317.855	75.09
318.068	132.44
318.282	118.1
318.495	93.52
318.709	-6.83
318.922	101.72
319.136	62.8
319.349	83.28
319.563	75.09
319.776	38.23
319.99	11.61
320.203	85.33
320.417	25.94
320.63	52.56
320.843	73.04
321.057	101.72
321.27	58.71
321.483	40.28
321.697	142.68
321.91	93.52
322.124	75.09
322.337	81.24
322.55	89.43
322.763	42.32
322.977	56.66
323.19	-31.4
323.403	-4.78
323.617	109.91
323.83	118.1
324.043	-49.83
324.256	3.41
324.469	75.09
324.683	50.52
324.896	19.8
325.109	122.2
325.322	42.32
325.535	58.71
325.748	60.76
325.962	120.15
326.175	97.62
326.388	-6.83
326.601	99.67
326.814	40.28
327.027	46.42
327.24	105.81
327.453	13.65
327.666	44.37
327.879	11.61
328.092	85.33
328.305	-2.73
328.518	54.61
328.731	17.75
328.944	128.34
329.157	60.76
329.37	34.13
329.583	79.19
329.796	187.73
330.009	62.8
330.222	81.24
330.435	25.94
330.648	50.52
330.861	54.61
331.073	68.95
331.286	111.96
331.499	60.76
331.712	48.47
331.925	11.61
332.138	50.52
332.35	64.85
332.563	-37.55
332.776	120.15
332.989	-19.11
333.202	73.04
333.414	68.95
333.627	54.61
333.84	107.86
334.053	85.33
334.265	44.37
334.478	124.24
334.691	62.8
334.903	34.13
335.116	-12.97
335.329	11.61
335.541	120.15
335.754	89.43
335.966	77.14
336.179	-10.92
336.392	15.7
336.604	54.61
336.817	81.24
337.029	17.75
337.242	21.85
337.454	-12.97
337.667	111.96
337.88	54.61
338.092	62.8
338.305	23.89
338.517	50.52
338.729	60.76
338.942	103.76
339.154	3.41
339.367	46.42
339.579	116.05
339.792	52.56
340.004	103.76
340.217	60.76
340.429	77.14
340.641	5.46
340.854	68.95
341.066	9.56
341.278	62.8
341.491	97.62
341.703	114
341.915	48.47
342.128	19.8
342.34	56.66
342.552	75.09
342.764	75.09
342.977	48.47
343.189	101.72
343.401	107.86
343.613	21.85
343.826	13.65
344.038	66.9
344.25	66.9
344.462	101.72
344.674	-6.83
344.886	71
345.099	27.99
345.311	77.14
345.523	56.66
345.735	42.32
345.947	68.95
346.159	93.52
346.371	77.14
346.583	32.08
346.795	130.39
347.007	21.85
347.219	132.44
347.431	34.13
347.643	40.28
347.855	34.13
348.067	60.76
348.279	42.32
348.491	66.9
348.703	103.76
348.915	9.56
349.127	52.56
349.339	60.76
349.551	54.61
349.763	52.56
349.975	99.67
350.187	132.44
350.399	60.76
350.61	-6.83
350.822	-21.16
351.034	83.28
351.246	34.13
351.458	87.38
351.669	50.52
351.881	52.56
352.093	118.1
352.305	62.8
352.517	83.28
352.728	58.71
352.94	21.85
353.152	36.18
353.363	66.9
353.575	60.76
353.787	38.23
353.999	73.04
354.21	60.76
354.422	19.8
354.633	107.86
354.845	46.42
355.057	58.71
355.268	73.04
355.48	42.32
355.692	15.7
355.903	71
356.115	81.24
356.326	3.41
356.538	89.43
356.749	93.52
356.961	103.76
357.172	50.52
357.384	99.67
357.595	75.09
357.807	150.87
358.018	15.7
358.23	130.39
358.441	173.39
358.653	60.76
358.864	87.38
359.075	71
359.287	38.23
359.498	60.76
359.709	60.76
359.921	62.8
360.132	77.14
360.344	9.56
360.555	66.9
360.766	30.04
360.977	83.28
361.189	60.76
361.4	5.46
361.611	75.09
361.823	93.52
362.034	97.62
362.245	83.28
362.456	58.71
362.667	38.23
362.879	44.37
363.09	85.33
363.301	146.77
363.512	93.52
363.723	58.71
363.935	-6.83
364.146	27.99
364.357	23.89
364.568	85.33
364.779	-4.78
364.99	87.38
365.201	-4.78
365.412	103.76
365.623	17.75
365.834	91.48
366.045	73.04
366.256	77.14
366.467	85.33
366.678	19.8
366.889	56.66
367.1	114
367.311	161.11
367.522	75.09
367.733	136.53
367.944	89.43
368.155	66.9
368.366	73.04
368.577	134.48
368.788	128.34
368.999	66.9
369.209	73.04
369.42	97.62
369.631	93.52
369.842	111.96
370.053	50.52
370.264	142.68
370.474	66.9
370.685	66.9
370.896	73.04
371.107	97.62
371.317	-21.16
371.528	15.7
371.739	77.14
371.95	116.05
372.16	-0.68
372.371	-4.78
372.582	13.65
372.792	38.23
373.003	3.41
373.214	50.52
373.424	142.68
373.635	44.37
373.846	157.01
374.056	50.52
374.267	95.57
374.477	7.51
374.688	32.08
374.898	62.8
375.109	79.19
375.319	64.85
375.53	89.43
375.74	95.57
375.951	79.19
376.161	120.15
376.372	116.05
376.582	1.37
376.793	107.86
377.003	1.37
377.214	44.37
377.424	93.52
377.635	7.51
377.845	48.47
378.055	75.09
378.266	25.94
378.476	58.71
378.686	1.37
378.897	87.38
379.107	101.72
379.317	40.28
379.528	46.42
379.738	25.94
379.948	107.86
380.158	87.38
380.369	73.04
380.579	83.28
380.789	79.19
380.999	93.52
381.21	89.43
381.42	81.24
381.63	-43.69
381.84	105.81
382.05	64.85
382.261	58.71
382.471	120.15
382.681	87.38
382.891	136.53
383.101	46.42
383.311	48.47
383.521	9.56
383.731	130.39
383.941	130.39
384.151	60.76
384.361	95.57
384.571	97.62
384.781	52.56
384.991	154.96
385.201	177.49
385.411	85.33
385.621	85.33
385.831	99.67
386.041	-2.73
386.251	103.76
386.461	85.33
386.671	-6.83
386.881	101.72
387.091	91.48
387.301	99.67
387.511	93.52
387.72	140.63
387.93	103.76
388.14	32.08
388.35	83.28
388.56	109.91
388.769	3.41
388.979	64.85
389.189	77.14
389.399	50.52
389.609	122.2
389.818	154.96
390.028	58.71
390.238	105.81
390.447	124.24
390.657	42.32
390.867	27.99
391.076	27.99
391.286	107.86
391.496	75.09
391.705	85.33
391.915	91.48
392.125	77.14
392.334	-45.74
392.544	75.09
392.753	46.42
392.963	23.89
393.172	19.8
393.382	124.24
393.591	93.52
393.801	95.57
394.01	87.38
394.22	124.24
394.429	109.91
394.639	58.71
394.848	60.76
395.058	73.04
395.267	114
395.477	111.96
395.686	134.48
395.895	212.31
396.105	273.75
396.314	79.19
396.524	21.85
396.733	17.75
396.942	118.1
397.152	134.48
397.361	152.92
397.57	40.28
397.78	159.06
397.989	116.05
398.198	134.48
398.407	105.81
398.617	138.58
398.826	103.76
399.035	130.39
399.244	73.04
399.453	144.72
399.663	93.52
399.872	66.9
400.081	9.56
400.29	218.45
400.499	122.2
400.708	179.54
400.917	-8.87
401.127	75.09
401.336	73.04
401.545	146.77
401.754	224.59
401.963	120.15
402.172	44.37
402.381	36.18
402.59	103.76
402.799	122.2
403.008	171.35
403.217	128.34
403.426	140.63
403.635	140.63
403.844	58.71
404.053	152.92
404.262	107.86
404.471	204.11
404.68	161.11
404.888	157.01
405.097	132.44
405.306	175.44
405.515	181.59
405.724	177.49
405.933	206.16
406.142	169.3
406.35	173.39
406.559	200.02
406.768	144.72
406.977	185.68
407.185	204.11
407.394	267.6
407.603	175.44
407.812	193.87
408.02	306.51
408.229	202.07
408.438	275.79
408.646	126.29
408.855	202.07
409.064	333.14
409.272	296.27
409.481	265.55
409.69	234.83
409.898	292.18
410.107	283.99
410.315	302.42
410.524	304.46
410.733	288.08
410.941	283.99
411.15	294.22
411.358	345.42
411.567	341.33
411.775	355.66
411.984	359.76
412.192	396.62
412.401	404.82
412.609	443.73
412.818	525.65
413.026	398.67
413.234	460.11
413.443	501.07
413.651	482.64
413.86	482.64
414.068	482.64
414.276	566.6
414.485	462.16
414.693	558.41
414.901	621.9
415.11	607.56
415.318	634.19
415.526	601.42
415.734	712.01
415.943	666.96
416.151	783.69
416.359	759.11
416.567	812.36
416.776	714.06
416.984	847.18
417.192	859.46
417.4	881.99
417.608	826.7
417.817	902.47
418.025	1015.11
418.233	1078.6
418.441	1021.25
418.649	984.39
418.857	1137.99
419.065	1037.64
419.273	1152.32
419.481	1203.52
419.689	1262.91
419.897	1375.55
420.105	1271.11
420.313	1320.26
420.521	1353.02
420.729	1361.22
420.937	1400.13
421.145	1463.62
421.353	1572.16
421.561	1692.99
421.769	1631.55
421.977	1795.39
422.185	1652.03
422.393	1824.06
422.601	2049.33
422.809	1932.6
423.017	2006.33
423.224	2047.29
423.432	2114.87
423.64	2164.02
423.848	2290.99
424.056	2280.75
424.263	2397.49
424.471	2534.7
424.679	2360.63
424.887	2458.93
425.094	2796.84
425.302	2596.14
425.51	2866.47
425.718	2921.77
425.925	2925.86
426.133	2977.06
426.341	3208.48
426.548	3249.44
426.756	3263.78
426.964	3409.19
427.171	3454.24
427.379	3581.21
427.586	3620.13
427.794	3757.34
428.001	3919.13
428.209	4136.21
428.417	4111.64
428.624	4384.02
428.832	4482.32
429.039	4404.5
429.247	4435.22
429.454	4867.34
429.662	5059.85
429.869	4826.38
430.076	5063.94
430.284	4959.5
430.491	5074.18
430.699	5444.87
430.906	5532.93
431.114	5524.74
431.321	6040.83
431.528	5844.22
431.736	6280.44
431.943	6448.37
432.15	6460.66
432.358	6474.99
432.565	6839.53
432.772	6798.57
432.979	7128.3
433.187	7390.44
433.394	7359.72
433.601	7767.26
433.808	7752.93
434.016	7642.34
434.223	7967.96
434.43	8604.88
434.637	8389.85
434.844	8905.93
435.052	9004.24
435.259	9088.2
435.466	9137.35
435.673	8965.32
435.88	9686.21
436.087	10353.85
436.294	10327.22
436.501	9870.53
436.708	10038.46
436.915	10507.44
437.122	10892.46
437.329	10945.71
437.537	11338.92
437.743	11396.26
437.95	11101.36
438.157	11805.86
438.364	12358.81
438.571	12352.66
438.778	12346.52
438.985	13544.58
439.192	13008.01
439.399	13460.62
439.606	12936.34
439.813	13741.19
440.02	14558.33
440.227	14470.26
440.433	14201.98
440.64	14861.43
440.847	14453.88
441.054	15232.11
441.261	16059.49
441.467	16000.1
441.674	16211.04
441.881	16817.24
442.088	16718.93
442.294	16528.47
442.501	16985.17
442.708	17265.74
442.914	18132.03
443.121	19002.42
443.328	18240.58
443.534	19637.29
443.741	19135.54
443.948	18721.85
444.154	20106.27
444.361	20061.22
444.568	19936.29
444.774	19899.43
444.981	20626.46
445.187	21175.31
445.394	21818.38
445.6	21683.21
445.807	23653.36
446.013	22621.18
446.22	23233.52
446.426	24155.11
446.633	24310.75
446.839	25062.36
447.046	24277.99
447.252	25273.3
447.459	25506.77
447.665	25246.68
447.871	26237.89
448.078	27743.15
448.284	26063.82
448.491	26909.63
448.697	28543.91
448.903	28429.22
449.11	28740.51
449.316	28390.31
449.522	28717.98
449.728	29586.32
449.935	29576.08
450.141	29866.89
450.347	30176.14
450.553	29504.4
450.76	29907.85
450.966	30800.77
451.172	30399.37
451.378	31105.91
451.584	30561.15
451.791	31665.01
451.997	31329.14
452.203	31730.55
452.409	31757.17
452.615	31900.53
452.821	30567.3
453.027	29987.72
453.233	31798.13
453.44	30563.2
453.646	30884.73
453.852	31247.22
454.058	31415.16
454.264	30421.89
454.47	31591.28
454.676	30399.37
454.882	31234.94
455.088	28887.96
455.294	29127.58
455.5	29586.32
455.705	29606.8
455.911	28591.01
456.117	28154.79
456.323	27939.76
456.529	26332.1
456.735	27356.08
456.941	27005.88
457.147	26301.38
457.352	25736.14
457.558	24951.77
457.764	25617.36
457.97	24871.9
458.176	24333.28
458.381	24142.82
458.587	22979.57
458.793	22871.03
458.999	22029.32
459.204	23239.67
459.41	22705.15
459.616	21138.45
459.821	21154.83
460.027	21373.97
460.233	20755.48
460.438	19743.78
460.644	19872.81
460.85	19260.46
461.055	18629.69
461.261	18842.68
461.466	17296.46
461.672	16768.09
461.878	17867.84
462.083	16987.22
462.289	16456.79
462.494	16157.79
462.7	15250.54
462.905	15271.02
463.111	15791.2
463.316	15830.12
463.522	15357.03
463.727	15305.84
463.932	15438.95
464.138	15109.23
464.343	15346.8
464.549	14795.89
464.754	15330.41
464.959	15117.42
465.165	15086.7
465.37	14445.69
465.575	14017.66
465.781	14777.46
465.986	14474.36
466.191	14236.8
466.397	13753.48
466.602	13104.27
466.807	13833.35
467.012	13796.48
467.218	13698.18
467.423	13358.22
467.628	13479.05
467.833	14136.45
468.038	13573.25
468.244	13233.29
468.449	13913.22
468.654	13270.15
468.859	13370.51
469.064	13147.28
469.269	12553.37
469.474	12696.72
469.679	13081.74
469.885	12618.9
470.09	12922
470.295	12850.32
470.5	12315.8
470.705	12551.32
470.91	12305.56
471.115	11973.79
471.32	12493.97
471.525	12145.82
471.73	12057.76
471.935	11754.66
472.139	11513
472.344	11705.51
472.549	11484.33
472.754	11363.5
472.959	11068.59
473.164	10919.09
473.369	10636.47
473.574	11240.62
473.778	11062.44
473.983	10757.3
474.188	10765.49
474.393	10632.37
474.598	10534.07
474.802	10450.1
475.007	10282.17
475.212	10282.17
475.417	9862.33
475.621	10042.56
475.826	9999.55
476.031	9897.15
476.235	9471.17
476.44	9962.69
476.645	9452.74
476.849	9458.88
477.054	9344.2
477.259	9293
477.463	9202.89
477.668	9161.93
477.872	9338.05
478.077	9051.34
478.282	8973.52
478.486	8774.86
478.691	8574.16
478.895	8856.78
479.1	8633.55
479.304	8619.22
479.509	8246.49
479.713	8733.9
479.918	8334.55
480.122	8133.85
480.326	8393.94
480.531	8324.31
480.735	8391.89
480.94	8223.96
481.144	8432.85
481.348	7900.38
481.553	8264.92
481.757	8088.79
481.961	8090.84
482.166	8125.66
482.37	8137.95
482.574	7984.35
482.778	7785.69
482.983	8076.51
483.187	7959.77
483.391	8139.99
483.595	8056.03
483.8	8019.16
484.004	8037.59
484.208	7894.24
484.412	7990.49
484.616	8172.76
484.821	7939.29
485.025	7828.7
485.229	7992.54
485.433	7970.01
485.637	7961.82
485.841	8013.02
486.045	7800.03
486.249	8031.45
486.453	7892.19
486.657	8002.78
486.861	7857.37
487.065	7920.86
487.269	8099.03
487.473	7789.79
487.677	7918.81
487.881	7970.01
488.085	7961.82
488.289	7890.14
488.493	7990.49
488.697	8133.85
488.901	8010.97
489.105	8146.14
489.309	8039.64
489.512	8062.17
489.716	8099.03
489.92	8183
490.124	8148.19
490.328	8266.97
490.531	8217.82
490.735	8006.88
490.939	8045.79
491.143	8275.16
491.346	8117.47
491.55	8281.3
491.754	8375.51
491.958	8373.46
492.161	8348.89
492.365	8475.86
492.569	8406.23
492.772	8357.08
492.976	8604.88
493.18	8512.72
493.383	8606.93
493.587	8746.19
493.79	8916.17
493.994	8627.41
494.197	8703.18
494.401	8785.1
494.605	8844.49
494.808	8928.46
495.012	9020.62
495.215	9043.15
495.419	9157.83
495.622	9163.98
495.825	9430.21
496.029	9258.18
496.232	9446.6
496.436	9202.89
496.639	9727.17
496.843	9688.26
497.046	9868.48
497.249	9878.72
497.453	9837.76
497.656	10073.28
497.859	10208.44
498.063	10190.01
498.266	10386.61
498.469	10349.75
498.673	10562.74
498.876	10683.57
499.079	10800.3
499.282	10771.63
499.485	11330.73
499.689	11027.63
499.892	11142.32
500.095	11183.27
500.298	11543.72
500.501	11472.04
500.705	11695.27
500.908	12063.9
501.111	12065.95
501.314	12108.96
501.517	12137.63
501.72	12412.06
501.923	12137.63
502.126	12817.55
502.329	12995.73
502.532	13110.41
502.735	13194.38
502.938	13345.93
503.141	13249.68
503.344	13618.31
503.547	13528.2
503.75	13739.14
503.953	13913.22
504.156	14206.08
504.359	14472.31
504.562	14306.43
504.765	14705.78
504.968	14703.73
505.17	15098.99
505.373	14967.92
505.576	15359.08
505.779	15324.27
505.982	15455.34
506.185	15787.11
506.387	15758.44
506.59	16016.48
506.793	16462.94
506.996	16327.77
507.198	17161.3
507.401	16882.77
507.604	16817.24
507.807	17110.1
508.009	17351.76
508.212	17370.19
508.415	17552.46
508.617	18017.35
508.82	18066.5
509.022	18015.3
509.225	18693.18
509.428	18693.18
509.63	18975.8
509.833	18709.56
510.035	19270.7
510.238	19383.34
510.44	19563.56
510.643	19780.65
510.845	20231.2
511.048	19981.35
511.25	20237.34
511.453	20718.62
511.655	21185.55
511.858	21099.54
512.06	21279.76
512.262	21699.59
512.465	21521.42
512.667	22049.8
512.87	21943.3
513.072	22285.31
513.274	22897.66
513.477	23028.73
513.679	23022.58
513.881	23366.64
514.084	23751.66
514.286	23718.89
514.488	23847.91
514.69	24267.75
514.893	24460.26
515.095	24732.64
515.297	25029.59
515.499	25064.41
515.701	25367.51
515.904	25953.23
516.106	25746.38
516.308	26125.25
516.51	26794.94
516.712	26538.94
516.914	26659.77
517.116	27423.67
517.318	27415.47
517.52	27730.86
517.722	27653.04
517.925	28160.94
518.127	28697.5
518.329	28578.72
518.531	28672.93
518.733	29402
518.935	29506.45
519.136	29668.24
519.338	30086.03
519.54	30487.43
519.742	30747.52
519.944	30700.42
520.146	31058.81
520.348	31411.06
520.55	31638.39
520.752	31484.79
520.954	32392.04
521.155	32062.32
521.357	32934.75
521.559	33280.86
521.761	33487.7
521.963	33518.42
522.164	33612.63
522.366	33846.1
522.568	34085.71
522.77	34143.05
522.971	34767.68
523.173	34884.42
523.375	34788.16
523.576	34902.85
523.778	35529.53
523.98	36045.62
524.181	35857.2
524.383	36084.53
524.584	36567.85
524.786	36897.57
524.988	36442.92
525.189	37550.87
525.391	37473.05
525.592	37339.93
525.794	37499.67
525.995	38028.05
526.197	37919.51
526.398	38081.3
526.6	38376.2
526.801	38501.13
527.003	38703.88
527.204	38914.82
527.406	39000.83
527.607	39234.3
527.808	39543.55
528.01	39105.28
528.211	39062.27
528.412	40092.4
528.614	40133.36
528.815	40168.18
529.016	40243.95
529.218	39897.84
529.419	39930.61
529.62	40456.94
529.822	40422.12
530.023	40420.08
530.224	40557.29
530.425	40932.07
530.626	40202.99
530.828	40112.88
531.029	41345.76
531.23	41245.41
531.431	41110.24
531.632	40876.77
531.833	40985.32
532.035	41417.44
532.236	41532.12
532.437	41722.58
532.638	41163.49
532.839	41564.89
533.04	41784.02
533.241	41505.5
533.442	42203.86
533.643	41718.49
533.844	41603.8
534.045	41988.82
534.246	41521.88
534.447	42042.07
534.648	41720.54
534.849	42189.52
535.05	41902.81
535.251	41919.19
535.451	41773.78
535.652	42300.11
535.853	41956.05
536.054	42353.36
536.255	42242.77
536.456	42222.29
536.657	42584.78
536.857	41509.6
537.058	41607.9
537.259	42642.12
537.46	42351.31
537.66	41980.63
537.861	42361.55
538.062	42320.59
538.263	42361.55
538.463	41788.12
538.664	41999.06
538.865	42369.74
539.065	42410.7
539.266	42123.99
539.466	42312.4
539.667	41913.05
539.868	42455.76
540.068	41849.56
540.269	42099.41
540.469	42017.49
540.67	41974.48
540.87	41892.57
541.071	41886.42
541.271	42160.85
541.472	42093.27
541.672	42064.6
541.873	41837.27
542.073	41501.4
542.274	42476.24
542.474	41931.48
542.675	41992.92
542.875	41986.77
543.075	41896.66
543.276	41188.06
543.476	42195.67
543.676	41446.11
543.877	42054.36
544.077	42234.58
544.277	42142.42
544.478	41710.3
544.678	42199.76
544.878	41632.47
545.078	42080.98
545.279	41665.24
545.479	41622.23
545.679	42179.28
545.879	41706.2
546.079	41683.67
546.28	41902.81
546.48	41452.25
546.68	42017.49
546.88	42013.4
547.08	41898.71
547.28	41779.93
547.48	41145.06
547.68	41796.31
547.88	42017.49
548.081	41908.95
548.281	42035.92
548.481	41655
548.681	41947.86
548.881	42083.03
549.081	41675.48
549.28	41335.52
549.48	42117.84
549.68	41454.3
549.88	42351.31
550.08	41386.72
550.28	41458.4
550.48	41906.9
550.68	42150.61
550.88	41652.95
551.08	41732.82
551.279	41515.74
551.479	41476.83
551.679	41650.91
551.879	41284.32
552.079	41794.26
552.278	41517.79
552.478	41528.03
552.678	41347.81
552.878	41706.2
553.077	41458.4
553.277	41335.52
553.477	41571.03
553.676	41233.12
553.876	41532.12
554.076	40942.31
554.275	41134.82
554.475	41063.14
554.674	41196.26
554.874	41224.93
555.074	41132.77
555.273	41276.13
555.473	41312.99
555.672	40639.21
555.872	41128.67
556.071	41212.64
556.271	40921.83
556.47	40350.45
556.67	40545
556.869	40966.88
557.068	40665.83
557.268	40551.15
557.467	40475.37
557.667	40485.61
557.866	40694.5
558.065	40084.21
558.265	40706.79
558.464	40018.67
558.663	40594.15
558.863	40073.97
559.062	40583.91
559.261	39957.24
559.461	40182.51
559.66	39576.31
559.859	40186.61
560.058	39508.73
560.258	39797.49
560.457	39435
560.656	39643.9
560.855	39453.44
561.054	39680.76
561.253	39228.16
561.453	39523.07
561.652	39101.18
561.851	39373.56
562.05	39052.03
562.249	38988.55
562.448	38873.86
562.647	39004.93
562.846	39045.89
563.045	38931.2
563.244	38241.04
563.443	38548.23
563.642	38183.69
563.841	38732.55
564.04	38261.52
564.239	38499.08
564.438	37884.69
564.637	38433.55
564.836	38013.71
565.035	37651.22
565.234	38028.05
565.432	37632.79
565.631	37479.19
565.83	37716.76
566.029	37403.42
566.228	37266.2
566.427	37458.71
566.625	37014.3
566.824	36766.5
567.023	37327.64
567.222	36588.33
567.42	37110.56
567.619	36799.27
567.818	36645.67
568.016	36430.63
568.215	36559.66
568.414	36512.55
568.612	36537.13
568.811	36358.95
569.01	36375.34
569.208	35689.27
569.407	36125.49
569.605	35343.16
569.804	35947.31
570.002	35625.78
570.201	35840.82
570.4	35334.97
570.598	35136.32
570.797	34931.52
570.995	35208
571.193	34456.39
571.392	34784.07
571.59	34648.9
571.789	34448.2
571.987	34429.77
572.186	34276.17
572.384	33930.06
572.582	34464.58
572.781	34507.59
572.979	33839.95
573.177	34153.29
573.376	34229.07
573.574	33690.45
573.772	33669.97
573.971	33590.1
574.169	33266.52
574.367	33387.35
574.565	33348.44
574.763	33129.31
574.962	32981.85
575.16	32443.24
575.358	32940.89
575.556	32596.84
575.754	32979.81
575.952	32433
576.151	32787.3
576.349	32412.52
576.547	32234.35
576.745	32152.43
576.943	32213.87
577.141	31957.87
577.339	32107.37
577.537	31787.89
577.735	31607.67
577.933	31687.54
578.131	31535.99
578.329	31482.74
578.527	31306.62
578.725	31067
578.923	31069.05
579.121	31077.24
579.319	30980.99
579.516	31181.69
579.714	31007.61
579.912	30813.06
580.11	30559.11
580.308	30595.97
580.506	30235.53
580.704	30178.18
580.901	30595.97
581.099	30329.73
581.297	29995.92
581.495	29821.84
581.692	30114.7
581.89	29760.4
582.088	30098.31
582.285	29803.41
582.483	29569.94
582.681	29457.3
582.878	29297.56
583.076	29283.22
583.274	29893.52
583.471	28619.68
583.669	29141.91
583.866	29025.18
584.064	29219.74
584.262	28335.01
584.459	28967.84
584.657	28302.25
584.854	29033.37
585.052	28441.51
585.249	28730.27
585.447	28257.19
585.644	28234.66
585.841	28418.98
586.039	28597.15
586.236	27583.41
586.434	27747.25
586.631	27933.61
586.828	27788.21
587.026	27825.07
587.223	27675.57
587.42	27681.71
587.618	27362.23
587.815	27306.93
588.012	27268.02
588.21	26954.68
588.407	27308.98
588.604	27038.65
588.801	27059.13
588.999	26940.35
589.196	26749.89
589.393	27227.06
589.59	26379.2
589.787	26342.34
589.984	26969.02
590.182	26078.15
590.379	26571.71
590.576	26139.59
590.773	26362.82
590.97	26112.97
591.167	26215.37
591.364	25717.71
591.561	25924.55
591.758	25594.83
591.955	25807.82
592.152	25922.51
592.349	25371.6
592.546	25678.8
592.743	25410.51
592.94	25332.69
593.137	25308.12
593.334	25271.25
593.531	24949.72
593.727	25033.69
593.924	25256.92
594.121	24871.9
594.318	24898.52
594.515	24642.53
594.712	24890.33
594.908	24794.08
595.105	24767.45
595.302	24417.25
595.499	24544.22
595.696	24517.6
595.892	24277.99
596.089	24171.49
596.286	24155.11
596.482	24030.18
596.679	24003.56
596.876	24040.42
597.072	23761.9
597.269	23837.67
597.466	23718.89
597.662	23763.95
597.859	23432.18
598.055	23493.61
598.252	23358.45
598.448	23362.54
598.645	23288.82
598.841	23344.11
599.038	23309.3
599.234	23057.4
599.431	22873.08
599.627	22893.56
599.824	22932.47
600.02	22453.25
600.217	22600.7
600.413	22598.65
600.609	22512.64
600.806	22217.73
601.002	22545.41
601.198	22342.66
601.395	22027.27
601.591	22316.03
601.787	22395.9
601.984	21810.18
602.18	22432.77
602.376	22023.17
602.572	22062.08
602.769	21908.49
602.965	21509.13
603.161	21408.78
603.357	21607.44
603.553	21619.72
603.75	21812.23
603.946	21384.21
604.142	21535.76
604.338	20974.61
604.534	21298.19
604.73	21101.59
604.926	20988.95
605.122	21337.1
605.318	21019.67
605.514	20884.5
605.71	20569.12
605.906	21052.44
606.102	20491.29
606.298	20732.95
606.494	20620.31
606.69	20747.29
606.886	20583.45
607.082	20395.04
607.278	20417.57
607.474	20446.24
607.67	20425.76
607.866	19823.65
608.062	20255.78
608.257	19903.53
608.453	20216.86
608.649	20083.75
608.845	19817.51
609.041	20063.27
609.236	20102.18
609.432	19831.85
609.628	19788.84
609.824	19696.68
610.019	19569.71
610.215	19698.73
610.411	19745.83
610.606	19731.5
610.802	19852.33
610.998	19409.97
611.193	19545.13
611.389	19326
611.584	19354.67
611.78	19031.09
611.976	19534.89
612.171	19252.27
612.367	19012.66
612.562	19094.58
612.758	19043.38
612.953	18674.74
613.149	19172.4
613.344	18701.37
613.539	19055.67
613.735	19125.3
613.93	18940.98
614.126	18799.67
614.321	19084.34
614.517	18910.26
614.712	18926.64
614.907	18445.37
615.103	18549.82
615.298	18789.43
615.493	18711.61
615.688	18385.98
615.884	18453.56
616.079	18230.34
616.274	18373.69
616.47	18422.84
616.665	18322.49
616.86	18185.28
617.055	18132.03
617.25	17970.24
617.445	18297.92
617.641	17845.32
617.836	18224.19
618.031	17972.29
618.226	18230.34
618.421	17572.94
618.616	17982.53
618.811	17493.07
619.006	17790.02
619.201	17648.71
619.396	17650.76
619.591	17122.38
619.786	17632.33
619.981	16985.17
620.176	17472.59
620.371	17226.83
620.566	17155.15
620.761	17394.76
620.956	17081.42
621.151	16850
621.346	17036.37
621.541	16622.68
621.735	16692.31
621.93	16573.53
622.125	16600.15
622.32	16442.46
622.515	16233.57
622.709	16356.44
622.904	16168.03
623.099	15977.57
623.294	16155.74
623.488	15936.61
623.683	15977.57
623.878	15627.37
624.072	15926.37
624.267	15451.24
624.462	15610.98
624.656	15602.79
624.851	15469.67
625.046	15346.8
625.24	15467.63
625.435	15221.87
625.629	15029.36
625.824	15039.6
626.018	14863.47
626.213	14621.81
626.407	14904.43
626.602	14382.2
626.796	14634.1
626.991	14429.31
627.185	14556.28
627.38	14259.32
627.574	14183.55
627.768	14036.1
627.963	13941.89
628.157	14025.86
628.352	14042.24
628.546	13788.29
628.74	13821.06
628.935	13751.43
629.129	13763.72
629.323	13302.92
629.517	13401.22
629.712	13409.42
629.906	13354.12
630.1	13286.54
630.294	13124.75
630.489	12991.63
630.683	13030.54
630.877	13034.64
631.071	12926.1
631.265	12987.54
631.459	12680.34
631.653	12623
631.848	12674.2
632.042	12584.09
632.236	12500.12
632.43	12483.73
632.624	12551.32
632.818	12424.34
633.012	12272.79
633.206	12039.33
633.4	12119.2
633.594	11904.16
633.788	12166.3
633.982	11965.6
634.176	11994.27
634.369	11721.89
634.563	11699.36
634.757	11732.13
634.951	11601.06
635.145	11947.17
635.339	11695.27
635.533	11549.86
635.726	11295.91
635.92	11191.47
636.114	11388.07
636.308	11254.95
636.501	11181.23
636.695	11230.38
636.889	10941.61
637.083	11240.62
637.276	10933.42
637.47	10853.55
637.664	10730.67
637.857	10929.33
638.051	10607.8
638.244	10702
638.438	10519.73
638.632	10724.53
638.825	10384.57
639.019	10376.37
639.212	10157.24
639.406	10210.49
639.599	10208.44
639.793	10212.54
639.986	10169.53
640.18	10224.83
640.373	10003.64
640.567	9878.72
640.76	10042.56
640.954	9653.44
641.147	9714.88
641.34	9610.43
641.534	9643.2
641.727	9659.59
641.92	9663.68
642.114	9592
642.307	9399.49
642.5	9460.93
642.694	9456.84
642.887	9235.66
643.08	9385.16
643.273	9284.81
643.467	9415.88
643.66	9092.3
643.853	9145.55
644.046	9022.67
644.239	8893.65
644.432	9004.24
644.626	8813.77
644.819	8852.69
645.012	8717.52
645.205	8817.87
645.398	8725.71
645.591	8627.41
645.784	8568.02
645.977	8543.44
646.17	8629.46
646.363	8520.92
646.556	8352.98
646.749	8283.35
646.942	8441.04
647.135	8252.63
647.328	8262.87
647.521	8207.58
647.714	8144.09
647.907	8142.04
648.099	7961.82
648.292	8166.62
648.485	7922.91
648.678	7814.37
648.871	7775.45
649.064	7935.2
649.256	7800.03
649.449	7740.64
649.642	7677.15
649.835	7589.09
650.027	7615.71
650.22	7630.05
650.413	7591.14
650.605	7564.51
650.798	7455.97
650.991	7355.62
651.183	7507.17
651.376	7339.24
651.568	7343.33
651.761	7322.85
651.954	7193.83
652.146	7308.52
652.339	7238.89
652.531	7199.98
652.724	6976.75
652.916	6991.08
653.109	7103.72
653.301	6946.03
653.494	7091.43
653.686	6882.54
653.879	7062.76
654.071	6898.92
654.263	6884.59
654.456	6812.91
654.648	6796.53
654.84	6630.64
655.033	6671.6
655.225	6520.05
655.417	6657.26
655.61	6681.84
655.802	6544.63
655.994	6470.9
656.186	6450.42
656.379	6333.68
656.571	6468.85
656.763	6477.04
656.955	6417.65
657.148	6276.34
657.34	6251.77
657.532	6036.73
657.724	6155.51
657.916	6114.55
658.108	6253.81
658.3	6102.26
658.492	6219
658.684	6167.8
658.876	5989.63
659.068	5977.34
659.26	5819.64
659.452	6128.89
659.644	6059.26
659.836	5887.23
660.028	5799.16
660.22	5930.23
660.412	5649.66
660.604	5756.16
660.796	5756.16
660.988	5926.14
661.18	5772.54
661.372	5586.18
661.563	5653.76
661.755	5412.1
661.947	5618.94
662.139	5487.87
662.331	5477.63
662.522	5545.22
662.714	5491.97
662.906	5307.65
663.097	5397.76
663.289	5295.36
663.481	5414.15
663.673	5434.63
663.864	5389.57
664.056	5307.65
664.247	5223.69
664.439	5201.16
664.631	5215.49
664.822	5268.74
665.014	5225.73
665.205	5041.42
665.397	5133.57
665.588	5000.46
665.78	5129.48
665.971	5057.8
666.163	5022.98
666.354	4988.17
666.546	5065.99
666.737	5000.46
666.929	5002.51
667.12	4812.04
667.311	4957.45
667.503	4838.67
667.694	4924.68
667.885	4881.67
668.077	4982.03
668.268	4932.87
668.459	4805.9
668.651	4805.9
668.842	4723.98
669.033	4922.63
669.224	4592.91
669.416	4799.76
669.607	4771.08
669.798	4648.21
669.989	4644.11
670.18	4615.44
670.371	4629.77
670.563	4568.34
670.754	4629.77
670.945	4689.17
671.136	4537.62
671.327	4547.86
671.518	4570.38
671.709	4533.52
671.9	4594.96
672.091	4447.51
672.282	4551.95
672.473	4515.09
672.664	4472.08
672.855	4564.24
673.046	4457.75
673.237	4510.99
673.428	4406.55
673.619	4543.76
673.809	4467.99
674	4343.06
674.191	4406.55
674.382	4453.65
674.573	4310.29
674.764	4285.72
674.954	4494.61
675.145	4236.56
675.336	4281.62
675.527	4140.31
675.717	4418.83
675.908	4314.39
676.099	4142.36
676.289	4328.72
676.48	4279.57
676.671	4318.48
676.861	4195.61
677.052	4166.93
677.243	4195.61
677.433	4300.05
677.624	4222.23
677.814	4242.71
678.005	4230.42
678.195	4308.24
678.386	4371.73
678.576	4226.32
678.767	4289.81
678.957	4218.13
679.148	4271.38
679.338	4392.21
679.529	4181.27
679.719	4222.23
679.909	4193.56
680.1	4113.69
680.29	4220.18
680.481	4134.17
680.671	4113.69
680.861	4289.81
681.052	4171.03
681.242	4154.65
681.432	4187.41
681.622	4177.17
681.813	4134.17
682.003	4171.03
682.193	4078.87
682.383	4228.37
682.573	4003.1
682.764	4244.76
682.954	4211.99
683.144	4261.14
683.334	4107.54
683.524	3949.85
683.714	4168.98
683.904	3988.76
684.094	4234.52
684.284	4027.67
684.474	4252.95
684.664	4158.74
684.854	4091.16
685.044	4093.21
685.234	4087.06
685.424	4058.39
685.614	4066.58
685.804	4027.67
685.994	4070.68
686.184	3904.79
686.374	4062.49
686.564	3955.99
686.753	3833.11
686.943	3935.51
687.133	3859.74
687.323	3939.61
687.513	3908.89
687.702	3898.65
687.892	3849.5
688.082	3853.59
688.272	3767.58
688.461	3921.18
688.651	3779.87
688.841	3826.97
689.03	3775.77
689.22	3708.19
689.41	3726.62
689.599	3656.99
689.789	3669.28
689.979	3806.49
690.168	3712.28
690.358	3570.97
690.547	3648.8
690.737	3681.57
690.926	3583.26
691.116	3579.17
691.305	3599.65
691.495	3632.41
691.684	3589.41
691.874	3591.45
692.063	3550.5
692.252	3575.07
692.442	3618.08
692.631	3390.75
692.82	3491.1
693.01	3411.23
693.199	3495.2
693.388	3562.78
693.578	3398.95
693.767	3347.75
693.956	3343.65
694.146	3251.49
694.335	3247.4
694.524	3450.14
694.713	3355.94
694.902	3284.26
695.092	3304.74
695.281	3304.74
695.47	3183.91
695.659	3247.4
695.848	3196.2
696.037	3392.8
696.226	3286.31
696.415	3228.96
696.604	3235.11
696.793	3167.53
696.982	3128.61
697.171	3212.58
697.36	3138.85
697.549	3243.3
697.738	3208.48
697.927	3083.56
698.116	3249.44
698.305	3061.03
698.494	3161.38
698.683	3134.76
698.872	3177.76
699.061	3274.02
699.25	3243.3
699.438	3167.53
699.627	3179.81
699.816	3101.99
700.005	3206.44
700.193	3157.29
700.382	3095.85
700.571	3181.86
700.76	3173.67
700.948	3190.05
701.137	3136.81
701.326	3104.04
701.514	3110.18
701.703	3044.65
701.892	3149.09
702.08	3161.38
702.269	3173.67
702.457	3118.37
702.646	3167.53
702.834	3132.71
703.023	3052.84
703.212	3163.43
703.4	3108.13
703.589	3112.23
703.777	3173.67
703.965	3163.43
704.154	3163.43
704.342	3173.67
704.531	3104.04
704.719	3022.12
704.907	3130.66
705.096	3052.84
705.284	3147.05
705.472	2989.35
705.661	3202.34
705.849	3274.02
706.037	3194.15
706.226	3095.85
706.414	3190.05
706.602	2968.87
706.79	3190.05
706.979	3165.48
707.167	3179.81
707.355	3114.28
707.543	3079.46
707.731	3198.24
707.919	3165.48
708.107	3124.52
708.296	3167.53
708.484	3071.27
708.672	3173.67
708.86	3175.72
709.048	3167.53
709.236	3239.2
709.424	3196.2
709.612	3181.86
709.8	3063.08
709.988	3110.18
710.176	3284.26
710.364	3155.24
710.551	3173.67
710.739	3138.85
710.927	2987.3
711.115	3224.87
711.303	3171.62
711.491	3167.53
711.679	3099.94
711.866	3247.4
712.054	3280.16
712.242	3249.44
712.43	3163.43
712.617	3169.57
712.805	3183.91
712.993	3296.55
713.181	3104.04
713.368	3210.53
713.556	3274.02
713.744	3050.79
713.931	3263.78
714.119	3274.02
714.306	3294.5
714.494	3396.9
714.682	3327.27
714.869	3310.88
715.057	3286.31
715.244	3142.95
715.432	3351.84
715.619	3319.07
715.807	3192.1
715.994	3261.73
716.182	3235.11
716.369	3355.94
716.556	3343.65
716.744	3157.29
716.931	3349.79
717.119	3386.66
717.306	3396.9
717.493	3292.45
717.681	3319.07
717.868	3376.42
718.055	3425.57
718.242	3491.1
718.43	3439.9
718.617	3321.12
718.804	3427.62
718.991	3378.47
719.179	3519.78
719.366	3329.31
719.553	3392.8
719.74	3376.42
719.927	3374.37
720.114	3392.8
720.301	3382.56
720.488	3325.22
720.676	3396.9
720.863	3368.23
721.05	3505.44
721.237	3566.88
721.424	3403.04
721.611	3382.56
721.798	3390.75
721.985	3335.46
722.172	3444
722.358	3415.33
722.545	3499.3
722.732	3364.13
722.919	3441.95
723.106	3374.37
723.293	3507.49
723.48	3448.1
723.667	3499.3
723.853	3505.44
724.04	3603.74
724.227	3468.58
724.414	3376.42
724.6	3425.57
724.787	3411.23
724.974	3382.56
725.161	3435.81
725.347	3546.4
725.534	3595.55
725.72	3562.78
725.907	3542.3
726.094	3415.33
726.28	3642.65
726.467	3581.21
726.653	3482.91
726.84	3484.96
727.027	3673.37
727.213	3454.24
727.4	3491.1
727.586	3470.62
727.773	3644.7
727.959	3501.34
728.145	3505.44
728.332	3417.38
728.518	3667.23
728.705	3458.34
728.891	3517.73
729.077	3530.02
729.264	3601.69
729.45	3548.45
729.636	3534.11
729.823	3601.69
730.009	3616.03
730.195	3624.22
730.382	3646.75
730.568	3695.9
730.754	3624.22
730.94	3487.01
731.126	3644.7
731.313	3624.22
731.499	3685.66
731.685	3786.01
731.871	3783.96
732.057	3765.53
732.243	3734.81
732.429	3685.66
732.615	3738.91
732.801	3640.61
732.987	3804.44
733.173	3693.85
733.359	3724.57
733.545	3620.13
733.731	3591.45
733.917	3519.78
734.103	3751.2
734.289	3626.27
734.475	3556.64
734.661	3736.86
734.847	3683.61
735.033	3630.37
735.219	3644.7
735.404	3697.95
735.59	3767.58
735.776	3562.78
735.962	3644.7
736.148	3673.37
736.333	3589.41
736.519	3503.39
736.705	3622.17
736.89	3550.5
737.076	3691.81
737.262	3642.65
737.447	3527.97
737.633	3544.35
737.819	3646.75
738.004	3730.72
738.19	3663.13
738.375	3605.79
738.561	3642.65
738.747	3517.73
738.932	3570.97
739.118	3618.08
739.303	3679.52
739.489	3656.99
739.674	3591.45
739.859	3603.74
740.045	3599.65
740.23	3616.03
740.416	3519.78
740.601	3497.25
740.786	3675.42
740.972	3456.29
741.157	3431.71
741.342	3460.38
741.528	3458.34
741.713	3450.14
741.898	3476.77
742.084	3429.66
742.269	3407.14
742.454	3400.99
742.639	3400.99
742.824	3439.9
743.01	3384.61
743.195	3444
743.38	3411.23
743.565	3321.12
743.75	3378.47
743.935	3398.95
744.12	3509.54
744.305	3341.6
744.49	3357.99
744.675	3286.31
744.86	3245.35
745.045	3255.59
745.23	3304.74
745.415	3337.51
745.6	3355.94
745.785	3290.4
745.97	3210.53
746.155	3312.93
746.34	3382.56
746.525	3108.13
746.71	3228.96
746.895	3145
747.079	3222.82
747.264	3220.77
747.449	3233.06
747.634	3126.57
747.819	3153.19
748.003	3233.06
748.188	3120.42
748.373	3124.52
748.557	3128.61
748.742	3009.83
748.927	3147.05
749.111	2999.59
749.296	2991.4
749.481	2911.53
749.665	3063.08
749.85	2886.95
750.034	2936.1
750.219	2809.13
750.404	2860.33
750.588	2790.7
750.773	2809.13
750.957	2856.23
751.141	2798.89
751.326	2800.94
751.51	2729.26
751.695	2633.01
751.879	2676.01
752.064	2723.12
752.248	2590
752.432	2676.01
752.617	2600.24
752.801	2626.86
752.985	2569.52
753.17	2585.9
753.354	2559.28
753.538	2577.71
753.722	2600.24
753.907	2587.95
754.091	2434.35
754.275	2477.36
754.459	2479.41
754.643	2538.8
754.828	2479.41
755.012	2452.78
755.196	2348.34
755.38	2422.06
755.564	2473.26
755.748	2305.33
755.932	2469.17
756.116	2420.02
756.3	2284.85
756.484	2211.12
756.668	2270.51
756.852	2207.03
757.036	2360.63
757.22	2217.27
757.404	2256.18
757.588	2131.25
757.772	2258.23
757.956	2153.78
758.14	2272.56
758.323	2143.54
758.507	2125.11
758.691	2110.77
758.875	2112.82
759.059	2151.73
759.242	2157.88
759.426	2016.57
759.61	2069.81
759.794	2166.07
759.977	2067.77
760.161	2041.14
760.345	2016.57
760.528	1940.79
760.712	1973.56
760.895	2039.09
761.079	1971.51
761.263	2037.05
761.446	1905.98
761.63	1865.02
761.813	2057.53
761.997	1955.13
762.18	1981.75
762.364	1881.4
762.547	1822.01
762.731	1731.9
762.914	1871.16
763.098	1852.73
763.281	1842.49
763.464	1916.22
763.648	1852.73
763.831	1709.37
764.015	1828.15
764.198	1819.96
764.381	1899.83
764.564	1727.8
764.748	1774.91
764.931	1729.85
765.114	1772.86
765.297	1822.01
765.481	1670.46
765.664	1717.56
765.847	1656.12
766.03	1768.76
766.213	1725.76
766.397	1660.22
766.58	1668.41
766.763	1690.94
766.946	1678.65
767.129	1625.4
767.312	1682.75
767.495	1652.03
767.678	1684.8
767.861	1676.6
768.044	1695.04
768.227	1572.16
768.41	1656.12
768.593	1647.93
768.776	1586.49
768.959	1566.01
769.142	1678.65
769.324	1543.49
769.507	1543.49
769.69	1510.72
769.873	1541.44
770.056	1684.8
770.239	1494.33
770.421	1590.59
770.604	1592.64
770.787	1539.39
770.97	1514.81
771.152	1502.53
771.335	1506.62
771.518	1441.09
771.7	1477.95
771.883	1510.72
772.066	1494.33
772.248	1420.61
772.431	1359.17
772.613	1426.75
772.796	1428.8
772.978	1402.18
773.161	1430.85
773.343	1316.16
773.526	1375.55
773.708	1324.35
773.891	1334.59
774.073	1365.31
774.256	1262.91
774.438	1273.15
774.621	1359.17
774.803	1332.55
774.985	1310.02
775.168	1275.2
775.35	1355.07
775.532	1391.94
775.715	1293.63
775.897	1277.25
776.079	1252.67
776.261	1320.26
776.444	1258.82
776.626	1232.19
776.808	1252.67
776.99	1158.47
777.173	1178.95
777.355	1238.34
777.537	1215.81
777.719	1105.22
777.901	1191.24
778.083	1064.26
778.265	1047.88
778.447	1187.14
778.629	1123.65
778.811	1094.98
778.993	1129.8
779.175	1088.84
779.357	1109.32
779.539	1088.84
779.721	1023.3
779.903	1140.04
780.085	998.73
780.267	1070.4
780.449	1084.74
780.631	1021.25
780.812	1099.08
780.994	968.01
781.176	996.68
781.358	939.34
781.54	998.73
781.721	984.39
781.903	1006.92
782.085	955.72
782.267	1015.11
782.448	861.51
782.63	881.99
782.812	945.48
782.993	951.62
783.175	980.29
783.357	898.38
783.538	927.05
783.72	945.48
783.901	955.72
784.083	847.18
784.264	871.75
784.446	834.89
784.627	808.27
784.809	830.79
784.99	779.59
785.172	832.84
785.353	838.98
785.535	832.84
785.716	873.8
785.897	816.46
786.079	712.01
786.26	744.78
786.441	722.25
786.623	734.54
786.804	804.17
786.985	828.74
787.167	748.87
787.348	703.82
787.529	662.86
787.71	759.11
787.891	724.3
788.073	691.53
788.254	595.28
788.435	709.96
788.616	783.69
788.797	662.86
788.978	701.77
789.159	693.58
789.34	621.9
789.522	669
789.703	660.81
789.884	623.95
790.065	707.91
790.246	701.77
790.427	595.28
790.607	755.02
790.788	689.48
790.969	591.18
791.15	714.06
791.331	560.46
791.512	644.43
791.693	603.47
791.874	591.18
792.054	646.48
792.235	683.34
792.416	556.36
792.597	552.27
792.778	599.37
792.958	638.28
793.139	576.84
793.32	566.6
793.5	554.32
793.681	609.61
793.862	546.13
794.042	533.84
794.223	548.17
794.404	515.41
794.584	374.1
794.765	550.22
794.945	585.04
795.126	507.21
795.306	548.17
795.487	466.25
795.667	451.92
795.848	480.59
796.028	521.55
796.209	484.69
796.389	589.13
796.57	509.26
796.75	374.1
796.93	566.6
797.111	451.92
797.291	501.07
797.471	494.93
797.652	501.07
797.832	365.9
798.012	535.89
798.192	470.35
798.373	476.49
798.553	453.97
798.733	519.5
798.913	447.82
799.093	456.01
799.274	562.51
799.454	470.35
799.634	496.97
799.814	486.73
799.994	472.4
800.174	353.62
800.354	431.44
800.534	376.14
800.714	445.77
800.894	402.77
801.074	370
801.254	333.14
801.434	310.61
801.614	451.92
801.794	408.91
801.974	1172.8
802.154	445.77
802.334	415.06
802.514	384.34
802.693	316.75
802.873	372.05
803.053	419.15
803.233	386.38
803.413	372.05
803.592	326.99
803.772	343.38
803.952	429.39
804.131	333.14
804.311	451.92
804.491	496.97
804.67	316.75
804.85	316.75
805.03	396.62
805.209	378.19
805.389	324.94
805.568	376.14
805.748	478.54
805.928	396.62
806.107	357.71
806.287	361.81
806.466	322.9
806.646	380.24
806.825	296.27
807.004	314.7
807.184	320.85
807.363	312.66
807.543	304.46
807.722	316.75
807.901	386.38
808.081	353.62
808.26	314.7
808.439	372.05
808.619	243.03
808.798	226.64
808.977	320.85
809.156	421.2
809.336	320.85
809.515	279.89
809.694	273.75
809.873	257.36
810.052	308.56
810.231	290.13
810.411	347.47
810.59	365.9
810.769	277.84
810.948	279.89
811.127	214.35
811.306	271.7
811.485	326.99
811.664	384.34
811.843	286.03
812.022	277.84
812.201	273.75
812.38	296.27
812.559	189.78
812.737	263.51
812.916	232.79
813.095	216.4
813.274	288.08
813.453	200.02
813.632	339.28
813.811	273.75
813.989	157.01
814.168	251.22
814.347	294.22
814.526	263.51
814.704	365.9
814.883	343.38
815.062	267.6
815.24	312.66
815.419	243.03
815.598	308.56
815.776	269.65
815.955	265.55
816.133	224.59
816.312	230.74
816.49	228.69
816.669	226.64
816.847	97.62
817.026	257.36
817.204	263.51
817.383	220.5
817.561	234.83
817.74	296.27
817.918	269.65
818.097	224.59
818.275	120.15
818.453	216.4
818.632	204.11
818.81	251.22
818.988	218.45
819.167	275.79
819.345	197.97
819.523	187.73
819.701	298.32
819.879	261.46
820.058	187.73
820.236	230.74
820.414	200.02
820.592	204.11
820.77	243.03
820.948	189.78
821.127	171.35
821.305	261.46
821.483	222.55
821.661	265.55
821.839	216.4
822.017	130.39
822.195	195.92
822.373	259.41
822.551	240.98
822.729	167.25
822.907	148.82
823.085	189.78
823.262	183.63
823.44	177.49
823.618	216.4
823.796	175.44
823.974	189.78
824.152	191.83
824.329	150.87
824.507	224.59
824.685	253.27
824.863	210.26
825.04	132.44
825.218	208.21
825.396	267.6
825.574	212.31
825.751	204.11
825.929	214.35
826.107	177.49
826.284	163.15
826.462	175.44
826.639	138.58
826.817	191.83
826.994	175.44
827.172	150.87
827.349	179.54
827.527	167.25
827.704	163.15
827.882	228.69
828.059	154.96
828.237	152.92
828.414	210.26
828.591	103.76
828.769	124.24
828.946	181.59
829.124	193.87
829.301	142.68
829.478	163.15
829.655	136.53
829.833	130.39
830.01	138.58
830.187	181.59
830.364	103.76
830.542	150.87
830.719	152.92
830.896	157.01
831.073	124.24
831.25	169.3
831.427	95.57
831.604	202.07
831.782	97.62
831.959	128.34
832.136	97.62
832.313	142.68
832.49	118.1
832.667	132.44
832.844	77.14
833.021	165.2
833.198	150.87
833.374	157.01
833.551	175.44
833.728	132.44
833.905	189.78
834.082	77.14
834.259	200.02
834.436	152.92
834.612	81.24
834.789	105.81
834.966	89.43
835.143	157.01
835.319	140.63
835.496	146.77
835.673	105.81
835.85	140.63
836.026	181.59
836.203	175.44
836.38	52.56
836.556	36.18
836.733	81.24
836.909	202.07
837.086	181.59
837.262	50.52
837.439	124.24
837.616	95.57
837.792	91.48
837.968	163.15
838.145	95.57
838.321	75.09
838.498	183.63
838.674	130.39
838.851	97.62
839.027	75.09
839.203	148.82
839.38	163.15
839.556	73.04
839.732	183.63
839.909	91.48
840.085	138.58
840.261	126.29
840.437	136.53
840.614	60.76
840.79	77.14
840.966	99.67
841.142	148.82
841.318	54.61
841.494	75.09
841.671	138.58
841.847	27.99
842.023	32.08
842.199	126.29
842.375	126.29
842.551	48.47
842.727	79.19
842.903	116.05
843.079	52.56
843.255	161.11
843.431	77.14
843.607	189.78
843.783	-10.92
843.959	95.57
844.134	120.15
844.31	99.67
844.486	40.28
844.662	126.29
844.838	103.76
845.013	132.44
845.189	126.29
845.365	60.76
845.541	130.39
845.716	118.1
845.892	111.96
846.068	118.1
846.244	183.63
846.419	87.38
846.595	142.68
846.77	111.96
846.946	177.49
847.122	91.48
847.297	68.95
847.473	146.77
847.648	13.65
847.824	66.9
847.999	21.85
848.175	66.9
848.35	114
848.526	175.44
848.701	95.57
848.876	126.29
849.052	150.87
849.227	142.68
849.403	44.37
849.578	150.87
849.753	75.09
849.929	101.72
850.104	-4.78
850.279	87.38
850.454	66.9
850.63	66.9
850.805	93.52
850.98	44.37
851.155	-6.83
851.33	114
851.505	17.75
851.681	38.23
851.856	89.43
852.031	73.04
852.206	48.47
852.381	66.9
852.556	62.8
852.731	73.04
852.906	68.95
853.081	81.24
853.256	89.43
853.431	177.49
853.606	68.95
853.781	66.9
853.956	77.14
854.131	38.23
854.305	36.18
854.48	27.99
854.655	93.52
854.83	48.47
855.005	66.9
855.18	52.56
855.354	163.15
855.529	48.47
855.704	-15.02
855.879	42.32
856.053	146.77
856.228	146.77
856.403	7.51
856.577	75.09
856.752	105.81
856.926	34.13
857.101	118.1
857.276	-17.07
857.45	126.29
857.625	134.48
857.799	83.28
857.974	46.42
858.148	32.08
858.323	83.28
858.497	-12.97
858.672	38.23
858.846	56.66
859.02	140.63
859.195	48.47
859.369	83.28
859.543	32.08
859.718	62.8
859.892	-29.35
860.066	107.86
860.241	50.52
860.415	-4.78
860.589	40.28
860.763	-0.68
860.938	83.28
861.112	75.09
861.286	-0.68
861.46	54.61
861.634	97.62
861.808	105.81
861.982	-0.68
862.157	64.85
862.331	93.52
862.505	62.8
862.679	77.14
862.853	109.91
863.027	77.14
863.201	60.76
863.375	75.09
863.549	91.48
863.722	68.95
863.896	128.34
864.07	13.65
864.244	89.43
864.418	60.76
864.592	9.56
864.766	-27.31
864.939	42.32
865.113	-19.11
865.287	79.19
865.461	-15.02
865.634	111.96
865.808	58.71
865.982	27.99
866.156	7.51
866.329	-33.45
866.503	46.42
866.676	58.71
866.85	64.85
867.024	23.89
867.197	183.63
867.371	150.87
867.544	36.18
867.718	83.28
867.891	105.81
868.065	-49.83
868.238	48.47
868.412	40.28
868.585	19.8
868.759	-21.16
868.932	101.72
869.105	-6.83
869.279	19.8
869.452	19.8
869.625	95.57
869.799	25.94
869.972	1.37
870.145	101.72
870.319	152.92
870.492	1.37
870.665	9.56
870.838	-6.83
871.011	11.61
871.185	-0.68
871.358	44.37
871.531	73.04
871.704	75.09
871.877	50.52
872.05	83.28
872.223	-31.4
872.396	79.19
872.569	48.47
872.742	11.61
872.915	95.57
873.088	7.51
873.261	40.28
873.434	75.09
873.607	32.08
873.78	109.91
873.953	19.8
874.126	-6.83
874.299	42.32
874.471	25.94
874.644	109.91
874.817	-17.07
874.99	91.48
875.163	19.8
875.335	56.66
875.508	62.8
875.681	44.37
875.853	23.89
876.026	64.85
876.199	3.41
876.371	56.66
876.544	27.99
876.717	68.95
876.889	27.99
877.062	87.38
877.234	-17.07
877.407	-41.64
877.579	1.37
877.752	85.33
877.924	64.85
878.097	44.37
878.269	11.61
878.442	89.43
878.614	-15.02
878.786	83.28
878.959	21.85
879.131	50.52
879.303	30.04
879.476	-0.68
879.648	19.8
879.82	58.71
879.993	-21.16
880.165	-37.55
880.337	85.33
880.509	38.23
880.681	17.75
880.854	-51.88
881.026	7.51
881.198	105.81
881.37	58.71
881.542	-39.59
881.714	32.08
881.886	9.56
882.058	19.8
882.23	19.8
882.402	-21.16
882.574	97.62
882.746	77.14
882.918	107.86
883.09	91.48
883.262	56.66
883.434	50.52
883.606	-53.93
883.778	-19.11
883.95	95.57
884.122	21.85
884.293	42.32
884.465	-49.83
884.637	30.04
884.809	17.75
884.98	38.23
885.152	30.04
885.324	111.96
885.496	-47.79
885.667	3.41
885.839	52.56
886.011	54.61
886.182	27.99
886.354	40.28
886.525	25.94
886.697	11.61
886.869	-41.64
887.04	101.72
887.212	40.28
887.383	87.38
887.555	36.18
887.726	-8.87
887.897	81.24
888.069	34.13
888.24	58.71
888.412	-53.93
888.583	15.7
888.754	3.41
888.926	15.7
889.097	40.28
889.268	-10.92
889.44	30.04
889.611	-25.26
889.782	-8.87
889.953	-107.18
890.125	79.19
890.296	9.56
890.467	-33.45
890.638	-19.11
890.809	5.46
890.98	13.65
891.151	34.13
891.323	124.24
891.494	27.99
891.665	21.85
891.836	1.37
892.007	75.09
892.178	46.42
892.349	42.32
892.52	-33.45
892.691	38.23
892.862	95.57
893.032	-6.83
893.203	-55.98
893.374	30.04
893.545	64.85
893.716	-0.68
893.887	34.13
894.057	15.7
894.228	-15.02
894.399	60.76
894.57	42.32
894.74	56.66
894.911	15.7
895.082	-8.87
895.253	-31.4
895.423	15.7
895.594	42.32
895.764	40.28
895.935	21.85
896.106	58.71
896.276	38.23
896.447	32.08
896.617	-43.69
896.788	38.23
896.958	21.85
897.129	-33.45
897.299	36.18
897.47	107.86
897.64	3.41
897.81	32.08
897.981	-0.68
898.151	-29.35
898.322	15.7
898.492	17.75
898.662	1.37
898.832	23.89
899.003	56.66
899.173	30.04
899.343	-19.11
899.513	-4.78
