Data from USB4F104151__47__12-23-57-199.txt Node

Date: Fri Mar 14 12:23:57 EDT 2025
User: louis
Spectrometer: USB4F10415
Trigger mode: 4
Integration Time (sec): 3.500000E-2
Scans to average: 1
Electric dark correction enabled: true
Nonlinearity correction enabled: false
Boxcar width: 0
XAxis mode: Wavelengths
Number of Pixels in Spectrum: 3648
>>>>>Begin Spectral Data<<<<<
178.204	-113.83
178.424	-113.83
178.644	-113.83
178.864	-93.35
179.084	-91.31
179.304	17.24
179.524	-23.72
179.744	-70.83
179.964	45.91
180.184	25.43
180.404	0.85
180.624	19.29
180.844	-33.96
181.064	-52.39
181.283	105.3
181.503	-56.49
181.723	23.38
181.943	21.33
182.163	37.72
182.383	9.05
182.602	86.87
182.822	72.53
183.042	9.05
183.262	58.2
183.482	58.2
183.701	21.33
183.921	50
184.141	19.29
184.361	54.1
184.58	19.29
184.8	33.62
185.02	50
185.239	97.11
185.459	78.68
185.679	70.48
185.898	9.05
186.118	54.1
186.338	45.91
186.557	50
186.777	17.24
186.997	97.11
187.216	60.24
187.436	80.72
187.655	90.96
187.875	86.87
188.095	4.95
188.314	127.83
188.534	76.63
188.753	-9.39
188.973	47.96
189.192	37.72
189.412	21.33
189.631	37.72
189.851	72.53
190.07	23.38
190.29	13.14
190.509	23.38
190.729	50
190.948	90.96
191.168	66.39
191.387	123.73
191.607	50
191.826	93.01
192.045	-52.39
192.265	66.39
192.484	95.06
192.704	93.01
192.923	45.91
193.142	111.44
193.362	117.59
193.581	105.3
193.8	31.57
194.02	86.87
194.239	60.24
194.458	101.2
194.678	47.96
194.897	-17.58
195.116	82.77
195.335	31.57
195.555	78.68
195.774	33.62
195.993	101.2
196.212	-31.91
196.432	19.29
196.651	25.43
196.87	62.29
197.089	74.58
197.308	64.34
197.528	-7.34
197.747	-33.96
197.966	-29.87
198.185	95.06
198.404	-1.19
198.623	70.48
198.842	41.81
199.062	70.48
199.281	115.54
199.5	-33.96
199.719	95.06
199.938	64.34
200.157	123.73
200.376	45.91
200.595	72.53
200.814	47.96
201.033	74.58
201.252	127.83
201.471	23.38
201.69	78.68
201.909	123.73
202.128	52.05
202.347	33.62
202.566	33.62
202.785	37.72
203.004	43.86
203.223	35.67
203.442	84.82
203.661	88.92
203.879	35.67
204.098	88.92
204.317	17.24
204.536	23.38
204.755	78.68
204.974	47.96
205.193	54.1
205.411	148.31
205.63	78.68
205.849	58.2
206.068	45.91
206.287	60.24
206.505	95.06
206.724	50
206.943	115.54
207.162	64.34
207.381	25.43
207.599	23.38
207.818	68.44
208.037	31.57
208.255	54.1
208.474	121.68
208.693	84.82
208.911	-9.39
209.13	37.72
209.349	-21.67
209.567	60.24
209.786	68.44
210.005	82.77
210.223	-17.58
210.442	9.05
210.661	105.3
210.879	58.2
211.098	58.2
211.316	66.39
211.535	45.91
211.753	-40.11
211.972	115.54
212.191	105.3
212.409	37.72
212.628	66.39
212.846	80.72
213.065	56.15
213.283	113.49
213.502	-33.96
213.72	25.43
213.938	76.63
214.157	-25.77
214.375	13.14
214.594	41.81
214.812	54.1
215.031	68.44
215.249	50
215.467	115.54
215.686	62.29
215.904	33.62
216.122	-15.53
216.341	117.59
216.559	4.95
216.778	35.67
216.996	99.16
217.214	45.91
217.432	-7.34
217.651	-11.43
217.869	129.88
218.087	54.1
218.306	13.14
218.524	31.57
218.742	43.86
218.96	68.44
219.179	68.44
219.397	37.72
219.615	138.07
219.833	80.72
220.051	29.52
220.27	90.96
220.488	21.33
220.706	31.57
220.924	54.1
221.142	31.57
221.36	21.33
221.578	39.76
221.796	50
222.015	68.44
222.233	115.54
222.451	93.01
222.669	15.19
222.887	62.29
223.105	29.52
223.323	19.29
223.541	-5.29
223.759	107.35
223.977	29.52
224.195	95.06
224.413	56.15
224.631	43.86
224.849	58.2
225.067	138.07
225.285	21.33
225.503	31.57
225.721	41.81
225.939	7
226.157	50
226.375	60.24
226.592	82.77
226.81	-23.72
227.028	54.1
227.246	86.87
227.464	93.01
227.682	138.07
227.9	80.72
228.117	154.45
228.335	88.92
228.553	9.05
228.771	111.44
228.989	88.92
229.206	80.72
229.424	35.67
229.642	25.43
229.86	31.57
230.077	7
230.295	66.39
230.513	86.87
230.731	54.1
230.948	45.91
231.166	54.1
231.384	86.87
231.601	86.87
231.819	97.11
232.037	25.43
232.254	31.57
232.472	29.52
232.689	45.91
232.907	95.06
233.125	-15.53
233.342	15.19
233.56	11.09
233.777	82.77
233.995	93.01
234.213	129.88
234.43	31.57
234.648	72.53
234.865	138.07
235.083	31.57
235.3	47.96
235.518	107.35
235.735	70.48
235.953	82.77
236.17	-3.24
236.388	74.58
236.605	9.05
236.822	74.58
237.04	41.81
237.257	78.68
237.475	-13.48
237.692	68.44
237.909	50
238.127	35.67
238.344	95.06
238.562	84.82
238.779	-25.77
238.996	45.91
239.214	43.86
239.431	74.58
239.648	9.05
239.865	107.35
240.083	136.02
240.3	39.76
240.517	99.16
240.735	125.78
240.952	131.92
241.169	78.68
241.386	29.52
241.603	2.9
241.821	-23.72
242.038	62.29
242.255	103.25
242.472	140.12
242.689	9.05
242.907	99.16
243.124	80.72
243.341	90.96
243.558	56.15
243.775	25.43
243.992	37.72
244.209	97.11
244.426	66.39
244.643	66.39
244.86	56.15
245.078	119.64
245.295	17.24
245.512	86.87
245.729	23.38
245.946	84.82
246.163	54.1
246.38	95.06
246.597	7
246.814	62.29
247.031	29.52
247.248	105.3
247.464	29.52
247.681	93.01
247.898	15.19
248.115	123.73
248.332	-27.82
248.549	54.1
248.766	123.73
248.983	43.86
249.2	111.44
249.417	58.2
249.633	15.19
249.85	64.34
250.067	54.1
250.284	43.86
250.501	101.2
250.717	41.81
250.934	-1.19
251.151	76.63
251.368	-31.91
251.585	47.96
251.801	23.38
252.018	17.24
252.235	52.05
252.451	-44.2
252.668	43.86
252.885	-62.63
253.102	25.43
253.318	0.85
253.535	68.44
253.752	-17.58
253.968	45.91
254.185	23.38
254.401	56.15
254.618	107.35
254.835	45.91
255.051	105.3
255.268	27.48
255.484	62.29
255.701	68.44
255.917	88.92
256.134	111.44
256.351	66.39
256.567	-33.96
256.784	35.67
257	-103.59
257.217	111.44
257.433	82.77
257.65	29.52
257.866	86.87
258.082	-7.34
258.299	23.38
258.515	138.07
258.732	50
258.948	80.72
259.165	-15.53
259.381	45.91
259.597	-46.25
259.814	-9.39
260.03	21.33
260.246	54.1
260.463	76.63
260.679	133.97
260.895	103.25
261.112	50
261.328	47.96
261.544	80.72
261.761	111.44
261.977	50
262.193	-7.34
262.409	39.76
262.626	25.43
262.842	56.15
263.058	52.05
263.274	29.52
263.49	54.1
263.707	31.57
263.923	-3.24
264.139	52.05
264.355	76.63
264.571	131.92
264.787	80.72
265.004	125.78
265.22	13.14
265.436	43.86
265.652	66.39
265.868	43.86
266.084	-29.87
266.3	58.2
266.516	72.53
266.732	21.33
266.948	29.52
267.164	50
267.38	76.63
267.596	37.72
267.812	68.44
268.028	93.01
268.244	23.38
268.46	-23.72
268.676	11.09
268.892	88.92
269.108	4.95
269.324	111.44
269.54	70.48
269.756	117.59
269.972	17.24
270.188	113.49
270.403	15.19
270.619	35.67
270.835	60.24
271.051	19.29
271.267	-1.19
271.483	58.2
271.698	33.62
271.914	52.05
272.13	27.48
272.346	23.38
272.562	-27.82
272.777	103.25
272.993	84.82
273.209	52.05
273.425	105.3
273.64	39.76
273.856	-21.67
274.072	43.86
274.287	0.85
274.503	52.05
274.719	99.16
274.934	45.91
275.15	-13.48
275.366	56.15
275.581	-1.19
275.797	95.06
276.012	99.16
276.228	41.81
276.444	19.29
276.659	113.49
276.875	-36.01
277.09	129.88
277.306	58.2
277.521	66.39
277.737	7
277.952	105.3
278.168	11.09
278.383	103.25
278.599	-3.24
278.814	142.16
279.03	11.09
279.245	95.06
279.461	4.95
279.676	82.77
279.892	-19.63
280.107	78.68
280.322	-5.29
280.538	101.2
280.753	11.09
280.969	35.67
281.184	62.29
281.399	58.2
281.615	35.67
281.83	-1.19
282.045	62.29
282.26	68.44
282.476	2.9
282.691	74.58
282.906	74.58
283.122	90.96
283.337	33.62
283.552	146.26
283.767	52.05
283.983	39.76
284.198	21.33
284.413	-11.43
284.628	95.06
284.843	78.68
285.058	31.57
285.274	123.73
285.489	19.29
285.704	58.2
285.919	93.01
286.134	52.05
286.349	43.86
286.564	78.68
286.779	37.72
286.995	50
287.21	13.14
287.425	78.68
287.64	29.52
287.855	54.1
288.07	27.48
288.285	72.53
288.5	27.48
288.715	-46.25
288.93	52.05
289.145	103.25
289.36	45.91
289.575	60.24
289.79	68.44
290.004	21.33
290.219	115.54
290.434	21.33
290.649	43.86
290.864	-11.43
291.079	101.2
291.294	47.96
291.509	52.05
291.724	4.95
291.938	15.19
292.153	174.93
292.368	43.86
292.583	99.16
292.798	105.3
293.012	103.25
293.227	93.01
293.442	41.81
293.657	90.96
293.871	133.97
294.086	105.3
294.301	107.35
294.516	140.12
294.73	119.64
294.945	27.48
295.16	35.67
295.374	82.77
295.589	103.25
295.804	11.09
296.018	146.26
296.233	117.59
296.447	47.96
296.662	54.1
296.877	78.68
297.091	76.63
297.306	84.82
297.52	11.09
297.735	62.29
297.949	80.72
298.164	35.67
298.378	52.05
298.593	-5.29
298.807	60.24
299.022	37.72
299.236	41.81
299.451	43.86
299.665	90.96
299.88	15.19
300.094	111.44
300.309	86.87
300.523	-23.72
300.737	25.43
300.952	-9.39
301.166	68.44
301.381	70.48
301.595	80.72
301.809	25.43
302.024	27.48
302.238	56.15
302.452	52.05
302.667	54.1
302.881	119.64
303.095	82.77
303.309	80.72
303.524	21.33
303.738	-11.43
303.952	19.29
304.166	62.29
304.381	47.96
304.595	111.44
304.809	66.39
305.023	70.48
305.237	21.33
305.452	29.52
305.666	56.15
305.88	74.58
306.094	138.07
306.308	68.44
306.522	84.82
306.736	103.25
306.95	99.16
307.164	43.86
307.379	45.91
307.593	90.96
307.807	64.34
308.021	47.96
308.235	64.34
308.449	-42.15
308.663	2.9
308.877	72.53
309.091	74.58
309.305	52.05
309.519	19.29
309.733	129.88
309.947	9.05
310.161	90.96
310.374	90.96
310.588	133.97
310.802	37.72
311.016	27.48
311.23	144.21
311.444	62.29
311.658	66.39
311.872	174.93
312.085	17.24
312.299	64.34
312.513	80.72
312.727	37.72
312.941	15.19
313.154	101.2
313.368	111.44
313.582	-3.24
313.796	50
314.009	52.05
314.223	58.2
314.437	115.54
314.651	117.59
314.864	45.91
315.078	88.92
315.292	35.67
315.505	58.2
315.719	62.29
315.933	101.2
316.146	52.05
316.36	21.33
316.573	84.82
316.787	82.77
317.001	56.15
317.214	-29.87
317.428	62.29
317.641	52.05
317.855	29.52
318.068	93.01
318.282	70.48
318.495	99.16
318.709	97.11
318.922	25.43
319.136	62.29
319.349	136.02
319.563	47.96
319.776	7
319.99	64.34
320.203	35.67
320.417	-9.39
320.63	84.82
320.843	95.06
321.057	70.48
321.27	68.44
321.483	78.68
321.697	117.59
321.91	88.92
322.124	13.14
322.337	11.09
322.55	33.62
322.763	37.72
322.977	54.1
323.19	64.34
323.403	35.67
323.617	90.96
323.83	160.59
324.043	60.24
324.256	101.2
324.469	-17.58
324.683	140.12
324.896	31.57
325.109	56.15
325.322	74.58
325.535	45.91
325.748	27.48
325.962	-11.43
326.175	37.72
326.388	13.14
326.601	76.63
326.814	78.68
327.027	29.52
327.24	144.21
327.453	-11.43
327.666	54.1
327.879	33.62
328.092	56.15
328.305	99.16
328.518	-1.19
328.731	23.38
328.944	43.86
329.157	84.82
329.37	21.33
329.583	58.2
329.796	164.69
330.009	35.67
330.222	84.82
330.435	80.72
330.648	39.76
330.861	47.96
331.073	70.48
331.286	64.34
331.499	21.33
331.712	15.19
331.925	52.05
332.138	43.86
332.35	41.81
332.563	54.1
332.776	52.05
332.989	82.77
333.202	-13.48
333.414	82.77
333.627	41.81
333.84	9.05
334.053	76.63
334.265	9.05
334.478	19.29
334.691	47.96
334.903	113.49
335.116	29.52
335.329	111.44
335.541	41.81
335.754	168.79
335.966	56.15
336.179	99.16
336.392	43.86
336.604	15.19
336.817	113.49
337.029	70.48
337.242	-3.24
337.454	45.91
337.667	54.1
337.88	158.55
338.092	62.29
338.305	33.62
338.517	80.72
338.729	121.68
338.942	152.4
339.154	68.44
339.367	45.91
339.579	111.44
339.792	78.68
340.004	84.82
340.217	-13.48
340.429	99.16
340.641	66.39
340.854	-5.29
341.066	131.92
341.278	41.81
341.491	23.38
341.703	4.95
341.915	11.09
342.128	105.3
342.34	33.62
342.552	27.48
342.764	74.58
342.977	68.44
343.189	47.96
343.401	-1.19
343.613	9.05
343.826	45.91
344.038	35.67
344.25	168.79
344.462	50
344.674	45.91
344.886	84.82
345.099	54.1
345.311	39.76
345.523	109.4
345.735	19.29
345.947	70.48
346.159	70.48
346.371	-1.19
346.583	-5.29
346.795	82.77
347.007	-17.58
347.219	129.88
347.431	41.81
347.643	62.29
347.855	113.49
348.067	68.44
348.279	-9.39
348.491	154.45
348.703	86.87
348.915	95.06
349.127	50
349.339	9.05
349.551	11.09
349.763	158.55
349.975	-17.58
350.187	60.24
350.399	45.91
350.61	68.44
350.822	47.96
351.034	82.77
351.246	29.52
351.458	64.34
351.669	33.62
351.881	78.68
352.093	131.92
352.305	115.54
352.517	62.29
352.728	129.88
352.94	41.81
353.152	80.72
353.363	50
353.575	136.02
353.787	93.01
353.999	35.67
354.21	152.4
354.422	86.87
354.633	80.72
354.845	136.02
355.057	52.05
355.268	35.67
355.48	121.68
355.692	109.4
355.903	70.48
356.115	13.14
356.326	-17.58
356.538	123.73
356.749	72.53
356.961	86.87
357.172	56.15
357.384	70.48
357.595	74.58
357.807	45.91
358.018	68.44
358.23	15.19
358.441	97.11
358.653	66.39
358.864	80.72
359.075	86.87
359.287	121.68
359.498	115.54
359.709	60.24
359.921	43.86
360.132	29.52
360.344	66.39
360.555	70.48
360.766	131.92
360.977	41.81
361.189	111.44
361.4	101.2
361.611	121.68
361.823	150.36
362.034	119.64
362.245	-36.01
362.456	35.67
362.667	105.3
362.879	95.06
363.09	125.78
363.301	123.73
363.512	74.58
363.723	25.43
363.935	62.29
364.146	90.96
364.357	86.87
364.568	39.76
364.779	123.73
364.99	45.91
365.201	97.11
365.412	80.72
365.623	-40.11
365.834	103.25
366.045	56.15
366.256	160.59
366.467	-3.24
366.678	41.81
366.889	41.81
367.1	35.67
367.311	86.87
367.522	62.29
367.733	37.72
367.944	148.31
368.155	88.92
368.366	90.96
368.577	97.11
368.788	140.12
368.999	-17.58
369.209	72.53
369.42	129.88
369.631	228.18
369.842	125.78
370.053	66.39
370.264	158.55
370.474	21.33
370.685	41.81
370.896	56.15
371.107	66.39
371.317	39.76
371.528	29.52
371.739	105.3
371.95	97.11
372.16	80.72
372.371	47.96
372.582	80.72
372.792	103.25
373.003	183.12
373.214	29.52
373.424	33.62
373.635	41.81
373.846	138.07
374.056	70.48
374.267	56.15
374.477	185.17
374.688	62.29
374.898	93.01
375.109	54.1
375.319	76.63
375.53	117.59
375.74	99.16
375.951	35.67
376.161	76.63
376.372	117.59
376.582	0.85
376.793	170.83
377.003	74.58
377.214	25.43
377.424	107.35
377.635	103.25
377.845	-7.34
378.055	123.73
378.266	66.39
378.476	88.92
378.686	95.06
378.897	80.72
379.107	64.34
379.317	-11.43
379.528	45.91
379.738	64.34
379.948	43.86
380.158	86.87
380.369	136.02
380.579	115.54
380.789	97.11
380.999	62.29
381.21	72.53
381.42	74.58
381.63	66.39
381.84	74.58
382.05	142.16
382.261	119.64
382.471	97.11
382.681	82.77
382.891	115.54
383.101	187.22
383.311	9.05
383.521	52.05
383.731	117.59
383.941	95.06
384.151	113.49
384.361	50
384.571	47.96
384.781	156.5
384.991	150.36
385.201	152.4
385.411	105.3
385.621	93.01
385.831	111.44
386.041	142.16
386.251	72.53
386.461	123.73
386.671	99.16
386.881	41.81
387.091	93.01
387.301	95.06
387.511	99.16
387.72	144.21
387.93	150.36
388.14	4.95
388.35	107.35
388.56	123.73
388.769	60.24
388.979	37.72
389.189	136.02
389.399	90.96
389.609	93.01
389.818	138.07
390.028	74.58
390.238	129.88
390.447	-13.48
390.657	172.88
390.867	109.4
391.076	84.82
391.286	125.78
391.496	93.01
391.705	146.26
391.915	62.29
392.125	58.2
392.334	129.88
392.544	93.01
392.753	93.01
392.963	84.82
393.172	113.49
393.382	150.36
393.591	164.69
393.801	113.49
394.01	146.26
394.22	125.78
394.429	125.78
394.639	111.44
394.848	164.69
395.058	117.59
395.267	129.88
395.477	82.77
395.686	37.72
395.895	142.16
396.105	181.07
396.314	123.73
396.524	160.59
396.733	103.25
396.942	150.36
397.152	103.25
397.361	215.89
397.57	142.16
397.78	93.01
397.989	174.93
398.198	140.12
398.407	170.83
398.617	74.58
398.826	111.44
399.035	150.36
399.244	170.83
399.453	127.83
399.663	187.22
399.872	164.69
400.081	136.02
400.29	236.37
400.499	150.36
400.708	142.16
400.917	166.74
401.127	164.69
401.336	201.55
401.545	209.75
401.754	189.27
401.963	179.03
402.172	172.88
402.381	170.83
402.59	187.22
402.799	136.02
403.008	260.95
403.217	152.4
403.426	129.88
403.635	127.83
403.844	207.7
404.053	209.75
404.262	140.12
404.471	267.09
404.68	205.65
404.888	189.27
405.097	219.99
405.306	219.99
405.515	183.12
405.724	203.6
405.933	279.38
406.142	160.59
406.35	277.33
406.559	199.51
406.768	277.33
406.977	234.32
407.185	219.99
407.394	262.99
407.603	123.73
407.812	279.38
408.02	314.19
408.229	324.43
408.438	299.86
408.646	301.9
408.855	293.71
409.064	318.29
409.272	310.1
409.481	353.1
409.69	410.45
409.898	318.29
410.107	439.12
410.315	336.72
410.524	301.9
410.733	473.93
410.941	451.41
411.15	439.12
411.358	471.89
411.567	570.19
411.775	496.46
411.984	486.22
412.192	498.51
412.401	592.72
412.609	615.24
412.818	576.33
413.026	621.39
413.234	643.92
413.443	617.29
413.651	639.82
413.86	693.07
414.068	838.47
414.276	815.94
414.485	758.6
414.693	807.75
414.901	834.38
415.11	799.56
415.318	881.48
415.526	947.01
415.734	916.3
415.943	1061.7
416.151	1088.32
416.359	942.92
416.567	998.21
416.776	1239.87
416.984	1209.15
417.192	1295.17
417.4	1231.68
417.608	1282.88
417.817	1264.45
418.025	1356.61
418.233	1479.49
418.441	1405.76
418.649	1428.29
418.857	1624.89
419.065	1692.48
419.273	1577.79
419.481	1731.39
419.689	1749.82
419.897	1864.5
420.105	1917.75
420.313	2001.72
420.521	2044.73
420.729	2177.84
420.937	2118.45
421.145	2181.94
421.353	2341.68
421.561	2425.65
421.769	2499.38
421.977	2571.05
422.185	2573.1
422.393	2759.47
422.601	2915.11
422.809	2861.87
423.017	2857.77
423.224	3076.9
423.432	3126.05
423.64	3242.79
423.848	3437.34
424.056	3349.28
424.263	3468.06
424.471	3470.11
424.679	3736.35
424.887	3832.6
425.094	3898.14
425.302	4080.41
425.51	4250.39
425.718	4373.27
425.925	4414.23
426.133	4606.74
426.341	4694.8
426.548	5006.09
426.756	4870.92
426.964	4924.17
427.171	5055.24
427.379	5382.92
427.586	5640.96
427.794	5726.97
428.001	6062.84
428.209	6179.58
428.417	6007.55
428.624	6638.32
428.832	6411
429.039	6509.3
429.247	6552.31
429.454	7105.26
429.662	7549.67
429.869	7121.64
430.076	7559.91
430.284	7396.07
430.491	7848.67
430.699	8170.2
430.906	8211.16
431.114	8458.96
431.321	8649.43
431.528	8770.26
431.736	9425.61
431.943	9714.37
432.15	9536.2
432.358	9626.31
432.565	10189.5
432.772	9870.01
432.979	10644.15
433.187	10730.16
433.394	10826.42
433.601	11623.08
433.808	11416.23
434.016	11549.35
434.223	12266.14
434.43	12731.03
434.637	12690.07
434.844	13333.13
435.052	13443.72
435.259	13365.9
435.466	13740.68
435.673	13619.85
435.88	14381.69
436.087	15108.72
436.294	15211.12
436.501	14643.83
436.708	14979.7
436.915	15678.05
437.122	16331.36
437.329	16245.34
437.537	17099.34
437.743	16955.99
437.95	17199.69
438.157	17627.72
438.364	18233.92
438.571	18156.1
438.778	18432.57
438.985	20402.72
439.192	19577.39
439.399	20017.7
439.606	19741.22
439.813	20709.91
440.02	21983.75
440.227	21654.03
440.433	21328.4
440.64	22125.06
440.847	21946.89
441.054	22561.28
441.261	23964.14
441.467	23620.08
441.674	24152.55
441.881	25430.48
442.088	25076.18
442.294	24994.26
442.501	25268.69
442.708	26184.13
442.914	27003.32
443.121	27890.09
443.328	27474.35
443.534	29387.16
443.741	28909.98
443.948	27908.52
444.154	30318.98
444.361	30120.33
444.568	30224.78
444.774	30550.4
444.981	30534.02
445.187	31226.23
445.394	32889.18
445.6	32409.96
445.807	35434.81
446.013	33759.57
446.22	34333
446.426	36122.93
446.633	36436.27
446.839	37216.54
447.046	35946.8
447.252	38076.69
447.459	38140.18
447.665	37980.43
447.871	39493.88
448.078	41437.41
448.284	39321.85
448.491	40247.54
448.697	41791.7
448.903	42393.81
449.11	42539.21
449.316	41842.9
449.522	43028.68
449.728	44103.86
449.935	44382.38
450.141	43956.41
450.347	45066.41
450.553	44003.51
450.76	44556.46
450.966	45770.91
451.172	45121.7
451.378	46422.16
451.584	45590.69
451.791	46303.38
451.997	46119.06
452.203	47315.08
452.409	47141
452.615	46637.2
452.821	45060.26
453.027	44652.72
453.233	46682.25
453.44	45127.84
453.646	45826.2
453.852	45682.84
454.058	46280.85
454.264	45017.25
454.47	45863.07
454.676	44710.06
454.882	46753.93
455.088	42604.75
455.294	42676.43
455.5	43710.65
455.705	43778.23
455.911	42361.04
456.117	41408.73
456.323	40976.61
456.529	38969.6
456.735	40548.59
456.941	39487.74
457.147	38793.48
457.352	37538.07
457.558	37239.07
457.764	37134.62
457.97	36497.7
458.176	36069.68
458.381	35719.48
458.587	33644.88
458.793	33620.31
458.999	32137.58
459.204	34357.58
459.41	33827.15
459.616	31068.54
459.821	31402.36
460.027	31355.25
460.233	30380.42
460.438	29301.14
460.644	29196.7
460.85	28017.07
461.055	27384.24
461.261	27503.03
461.466	25569.74
461.672	24719.84
461.878	26565.06
462.083	24898.01
462.289	24056.29
462.494	24041.96
462.7	22972.92
462.905	22219.27
463.111	23259.63
463.316	23007.73
463.522	22753.79
463.727	22974.97
463.932	22919.67
464.138	22462.97
464.343	22456.83
464.549	22077.96
464.754	22886.9
464.959	22481.41
465.165	22360.58
465.37	21443.09
465.575	20750.87
465.781	21445.13
465.986	21772.81
466.191	20851.22
466.397	20726.3
466.602	19231.28
466.807	20173.35
467.012	20191.78
467.218	20253.22
467.423	20163.11
467.628	20052.52
467.833	21008.92
468.038	20046.37
468.244	19649.07
468.449	20179.49
468.654	19620.39
468.859	19370.54
469.064	19278.38
469.269	18559.55
469.474	19034.67
469.679	19036.72
469.885	18690.62
470.09	19049.01
470.295	19030.58
470.5	18301.5
470.705	18512.44
470.91	17896
471.115	17955.4
471.32	18278.97
471.525	18025.03
471.73	17418.83
471.935	17476.17
472.139	16808.53
472.344	16992.85
472.549	16767.57
472.754	16818.77
472.959	16507.48
473.164	16046.69
473.369	16032.35
473.574	16458.33
473.778	16454.23
473.983	16114.27
474.188	15987.3
474.393	15344.24
474.598	15469.16
474.802	15368.81
475.007	15147.63
475.212	15223.41
475.417	14547.58
475.621	14635.64
475.826	14629.49
476.031	14129.79
476.235	14123.65
476.44	14293.63
476.645	13931.14
476.849	14000.77
477.054	13800.07
477.259	13740.68
477.463	13554.31
477.668	13171.34
477.872	13126.29
478.077	12958.35
478.282	13083.28
478.486	12853.91
478.691	12593.81
478.895	12810.9
479.1	12788.37
479.304	12720.79
479.509	12145.31
479.713	12501.65
479.918	12169.88
480.122	12126.88
480.326	12380.82
480.531	12290.71
480.735	12102.3
480.94	12141.21
481.144	12520.09
481.348	11612.84
481.553	11774.63
481.757	11649.7
481.961	11731.62
482.166	11934.37
482.37	11856.54
482.574	11629.22
482.778	11674.28
482.983	11807.39
483.187	11670.18
483.391	11825.82
483.595	11776.67
483.8	11520.68
484.004	11936.42
484.208	11930.27
484.412	11770.53
484.616	11653.8
484.821	11977.37
485.025	11492.01
485.229	11840.16
485.433	11866.78
485.637	11704.99
485.841	11623.08
486.045	11606.69
486.249	11733.67
486.453	11733.67
486.657	11907.74
486.861	11817.63
487.065	11483.81
487.269	11860.64
487.473	11334.31
487.677	11676.32
487.881	11793.06
488.085	11877.02
488.289	11829.92
488.493	11764.39
488.697	11907.74
488.901	12042.91
489.105	11766.43
489.309	11594.4
489.512	11932.32
489.716	11821.73
489.92	11823.78
490.124	11813.54
490.328	12044.96
490.531	11883.17
490.735	11993.76
490.939	11985.57
491.143	11860.64
491.346	12120.73
491.55	12393.11
491.754	12110.49
491.958	12128.92
492.161	12235.42
492.365	12212.89
492.569	12241.56
492.772	12247.71
492.976	12384.92
493.18	12429.98
493.383	12702.36
493.587	12868.24
493.79	12999.31
493.994	12530.33
494.197	12774.03
494.401	12833.43
494.605	13023.89
494.808	13101.71
495.012	13169.29
495.215	13390.47
495.419	13660.8
495.622	13333.13
495.825	13529.73
496.029	13546.12
496.232	13855.36
496.436	13968
496.639	14228.09
496.843	14023.3
497.046	14398.07
497.249	14537.34
497.453	14760.56
497.656	14922.35
497.859	14854.77
498.063	15010.42
498.266	15389.29
498.469	15348.33
498.673	15110.77
498.876	15645.29
499.079	15817.32
499.282	15661.67
499.485	16292.44
499.689	16351.84
499.892	16491.1
500.095	16474.71
500.298	16927.32
500.501	16820.82
500.705	17404.49
500.908	17211.98
501.111	17429.07
501.314	17762.89
501.517	18008.64
501.72	18074.18
501.923	18274.88
502.126	18408
502.329	18858.55
502.532	18717.24
502.735	19171.89
502.938	19382.83
503.141	19421.74
503.344	19741.22
503.547	19870.25
503.75	19974.69
503.953	20353.57
504.156	20392.48
504.359	20662.81
504.562	21025.3
504.765	21166.61
504.968	21518.86
505.17	21525
505.373	21852.68
505.576	22135.3
505.779	22438.4
505.982	22344.19
506.185	23089.65
506.387	23034.36
506.59	23089.65
506.793	23714.28
506.996	23988.71
507.198	24447.46
507.401	24244.71
507.604	24478.18
507.807	25049.56
508.009	25178.58
508.212	25477.58
508.415	25711.05
508.617	25850.31
508.82	26186.18
509.022	25688.53
509.225	26716.61
509.428	27058.62
509.63	27087.29
509.833	27230.65
510.035	28015.02
510.238	27730.35
510.44	27978.15
510.643	28627.36
510.845	29100.44
511.048	28592.55
511.25	29200.79
511.453	29335.96
511.655	30691.71
511.858	30183.82
512.06	30314.89
512.262	30699.9
512.465	30724.48
512.667	31519.09
512.87	31601.01
513.072	32072.04
513.274	32649.57
513.477	32436.58
513.679	32526.69
513.881	33153.37
514.084	33577.3
514.286	33618.26
514.488	33927.5
514.69	34627.91
514.893	34865.47
515.095	34787.65
515.297	35379.51
515.499	35367.23
515.701	36000.05
515.904	36319.53
516.106	36542.76
516.308	36981.03
516.51	37353.76
516.712	37667.09
516.914	38041.87
517.116	38932.74
517.318	38449.42
517.52	39100.67
517.722	38902.02
517.925	39379.2
518.127	40298.73
518.329	40261.87
518.531	40014.07
518.733	40900.84
518.935	41320.67
519.136	41347.29
519.338	41748.7
519.54	42234.06
519.742	42369.23
519.944	42715.34
520.146	43354.3
520.348	43712.7
520.55	43794.62
520.752	44228.79
520.954	44703.92
521.155	44454.06
521.357	45310.11
521.559	45629.6
521.761	46272.66
521.963	46239.89
522.164	46231.7
522.366	46735.5
522.568	46743.69
522.77	47024.26
522.971	47968.38
523.173	47841.4
523.375	47921.27
523.576	48101.5
523.778	48334.96
523.98	48973.93
524.181	49391.72
524.383	49471.59
524.584	49866.84
524.786	49752.16
524.988	50028.63
525.189	50380.88
525.391	50524.24
525.592	51097.67
525.794	50851.92
525.995	51124.3
526.197	51351.62
526.398	51542.08
526.6	51855.42
526.801	52144.19
527.003	52762.67
527.204	52252.73
527.406	52963.37
527.607	53030.96
527.808	53299.24
528.01	52457.52
528.211	53022.76
528.412	53555.24
528.614	53708.83
528.815	53559.33
529.016	54374.42
529.218	53925.92
529.419	54192.15
529.62	53882.91
529.822	54224.92
530.023	54247.45
530.224	54468.63
530.425	54661.14
530.626	53964.83
530.828	54169.63
531.029	55574.53
531.23	54845.46
531.431	54794.26
531.632	55330.83
531.833	55085.07
532.035	55115.79
532.236	55549.96
532.437	55674.88
532.638	55328.78
532.839	55629.83
533.04	55390.22
533.241	54949.9
533.442	55816.19
533.643	55865.34
533.844	55857.15
534.045	55711.75
534.246	55287.82
534.447	55597.06
534.648	55824.39
534.849	55906.3
535.05	55271.43
535.251	56010.75
535.451	55799.81
535.652	55375.88
535.853	55349.26
536.054	55769.09
536.255	56141.82
536.456	55744.51
536.657	55992.32
536.857	55781.38
537.058	55496.71
537.259	55973.89
537.46	56338.43
537.66	55824.39
537.861	55934.98
538.062	56213.5
538.263	55971.84
538.463	55529.48
538.664	55629.83
538.865	55808
539.065	56037.37
539.266	55275.53
539.466	55937.02
539.667	55023.63
539.868	56326.14
540.068	55830.53
540.269	55758.85
540.469	55871.49
540.67	55777.28
540.87	55564.29
541.071	55578.63
541.271	55201.8
541.472	55783.43
541.672	55422.98
541.873	55533.57
542.073	55259.15
542.274	55805.95
542.474	55394.31
542.675	54947.85
542.875	55633.92
543.075	55625.73
543.276	55009.29
543.476	55783.43
543.676	55005.2
543.877	55607.3
544.077	55930.88
544.277	55871.49
544.478	54771.73
544.678	55721.99
544.878	55355.4
545.078	55506.95
545.279	55261.19
545.479	55205.9
545.679	55947.26
545.879	55293.96
546.079	55169.04
546.28	54999.05
546.48	54841.36
546.68	55359.5
546.88	55822.34
547.08	55502.85
547.28	55093.26
547.48	54937.62
547.68	55066.64
547.88	54958.09
548.081	55554.05
548.281	55412.74
548.481	55422.98
548.681	55214.09
548.881	54845.46
549.081	55183.37
549.28	54585.36
549.48	55293.96
549.68	55132.17
549.88	55885.82
550.08	54829.07
550.28	54806.55
550.48	54831.12
550.68	55392.26
550.88	54951.95
551.08	55140.36
551.279	55023.63
551.479	54804.5
551.679	54833.17
551.879	54693.91
552.079	55388.17
552.278	54855.7
552.478	55074.83
552.678	55115.79
552.878	54921.23
553.077	54597.65
553.277	54351.9
553.477	55449.61
553.676	54521.88
553.876	54501.4
554.076	54222.87
554.275	54294.55
554.475	53983.26
554.674	54589.46
554.874	54632.47
555.074	54245.4
555.273	54757.39
555.473	54763.54
555.672	53999.65
555.872	53981.21
556.071	53940.25
556.271	54558.74
556.47	53858.34
556.67	53708.83
556.869	53594.15
557.068	54028.32
557.268	53594.15
557.467	53768.22
557.667	53289
557.866	53813.28
558.065	53342.25
558.265	53342.25
558.464	53530.66
558.663	53723.17
558.863	52934.7
559.062	53770.27
559.261	52887.6
559.461	53180.46
559.66	52539.44
559.859	52750.38
560.058	52469.81
560.258	52711.47
560.457	52785.2
560.656	52871.21
560.855	52451.38
561.054	52832.3
561.253	52117.56
561.453	52541.49
561.652	52435
561.851	52088.89
562.05	51753.02
562.249	51896.38
562.448	52254.78
562.647	52027.45
562.846	51974.2
563.045	51689.54
563.244	51472.45
563.443	52043.84
563.642	51116.11
563.841	51335.24
564.04	50745.42
564.239	51658.82
564.438	50505.81
564.637	50954.32
564.836	50929.74
565.035	50348.12
565.234	50671.7
565.432	50661.46
565.631	50329.69
565.83	50241.62
566.029	49821.79
566.228	49870.94
566.427	50096.22
566.625	49827.93
566.824	49608.8
567.023	49664.1
567.222	48781.42
567.42	49969.24
567.619	49279.08
567.818	49211.49
568.016	48941.16
568.215	49666.14
568.414	48906.35
568.612	49311.84
568.811	48644.21
569.01	49027.18
569.208	48177.27
569.407	48734.32
569.605	47685.76
569.804	48646.26
570.002	47966.33
570.201	48228.47
570.4	47683.71
570.598	47593.6
570.797	47124.61
570.995	47319.17
571.193	46602.38
571.392	47550.59
571.59	46831.75
571.789	47028.36
571.987	47304.84
572.186	46852.23
572.384	46702.73
572.582	46786.7
572.781	46801.04
572.979	46098.58
573.177	46264.47
573.376	46370.96
573.574	45805.72
573.772	46358.67
573.971	45826.2
574.169	45334.69
574.367	45496.48
574.565	45373.6
574.763	45080.74
574.962	45424.8
575.16	45025.45
575.358	44806.31
575.556	44083.38
575.754	44908.71
575.952	44558.51
576.151	44546.22
576.349	44032.18
576.547	44302.51
576.745	44400.82
576.943	44245.17
577.141	43866.3
577.339	43782.33
577.537	43669.69
577.735	43864.25
577.933	43167.94
578.131	43471.04
578.329	43382.98
578.527	42563.79
578.725	43073.73
578.923	43204.8
579.121	42557.64
579.319	42997.96
579.516	42838.22
579.714	42242.26
579.912	42254.54
580.11	42234.06
580.308	42348.75
580.506	42166.48
580.704	41203.94
580.901	41801.94
581.099	41851.09
581.297	41558.24
581.495	41568.48
581.692	41517.28
581.89	41222.37
582.088	40960.23
582.285	41306.34
582.483	41251.04
582.681	40833.25
582.878	40972.52
583.076	40714.47
583.274	40755.43
583.471	40255.73
583.669	40347.89
583.866	40153.33
584.064	40429.8
584.262	39491.83
584.459	40075.51
584.657	39895.28
584.854	39956.72
585.052	39526.65
585.249	39465.21
585.447	39317.76
585.644	39207.17
585.841	38973.7
586.039	39305.47
586.236	38816.01
586.434	38758.66
586.631	38994.18
586.828	38668.55
587.026	39084.29
587.223	38430.99
587.42	38283.53
587.618	38258.96
587.815	38005.01
588.012	38033.68
588.21	37861.65
588.407	37806.36
588.604	37527.83
588.801	37486.87
588.999	37114.14
589.196	37513.5
589.393	37302.56
589.59	36966.69
589.787	36985.12
589.984	36806.95
590.182	36866.34
590.379	37243.17
590.576	36831.52
590.773	36704.55
590.97	36174.13
591.167	36655.4
591.364	35686.71
591.561	36282.67
591.758	35557.69
591.955	35705.14
592.152	36030.77
592.349	35477.82
592.546	35655.99
592.743	35834.16
592.94	35246.4
593.137	35430.71
593.334	35658.04
593.531	34855.23
593.727	34703.68
593.924	35029.31
594.121	34373.96
594.318	35195.2
594.515	34646.34
594.712	34488.65
594.908	34369.86
595.105	34351.43
595.302	34013.52
595.499	34353.48
595.696	33810.77
595.892	33911.12
596.089	34091.34
596.286	33743.19
596.482	33450.33
596.679	33524.05
596.876	33579.35
597.072	33182.04
597.269	33132.89
597.466	32993.63
597.662	33239.39
597.859	33042.78
598.055	32858.46
598.252	32760.16
598.448	32934.24
598.645	32530.79
598.841	32387.43
599.038	31988.08
599.234	32340.33
599.431	32053.61
599.627	32061.8
599.824	32100.72
600.02	31809.9
600.217	31734.13
600.413	31670.64
600.609	31611.25
600.806	31297.91
601.002	31312.25
601.198	31256.95
601.395	31478.13
601.591	31048.06
601.787	31000.96
601.984	30734.72
602.18	30998.91
602.376	30499.2
602.572	30237.06
602.769	30482.82
602.965	30220.68
603.161	30423.43
603.357	29925.77
603.553	29806.99
603.75	30161.29
603.946	30130.57
604.142	30052.75
604.338	29716.88
604.534	29837.71
604.73	29245.85
604.926	29503.89
605.122	29526.42
605.318	29249.94
605.514	29104.54
605.71	29258.13
605.906	29247.9
606.102	28791.2
606.298	29016.47
606.494	28836.25
606.69	28952.99
606.886	28930.46
607.082	28361.12
607.278	28531.11
607.474	28217.77
607.67	28914.08
607.866	27996.59
608.062	28307.88
608.257	28252.58
608.453	27881.9
608.649	28064.17
608.845	27640.24
609.041	27777.45
609.236	28084.65
609.432	28268.97
609.628	27949.48
609.824	27564.46
610.019	27582.9
610.215	27439.54
610.411	27642.29
610.606	27496.88
610.802	27531.7
610.998	27638.19
611.193	27376.05
611.389	27406.77
611.584	26913.21
611.78	27281.85
611.976	27095.48
612.171	27316.66
612.367	26816.96
612.562	26964.41
612.758	26585.54
612.953	26739.13
613.149	26763.71
613.344	26307.01
613.539	26810.81
613.735	26841.53
613.93	26579.39
614.126	25909.71
614.321	26880.44
614.517	26364.36
614.712	26433.99
614.907	26071.5
615.103	26276.29
615.298	26102.22
615.493	26565.06
615.688	25729.48
615.884	26458.56
616.079	25694.67
616.274	25913.8
616.47	25725.39
616.665	26016.2
616.86	25659.85
617.055	25487.82
617.25	25682.38
617.445	25524.69
617.641	24941.02
617.836	25653.71
618.031	24961.5
618.226	25407.95
618.421	25063.89
618.616	25125.33
618.811	24986.07
619.006	25219.54
619.201	24754.65
619.396	24639.97
619.591	24373.73
619.786	24642.01
619.981	24117.73
620.176	24529.38
620.371	24115.69
620.566	24257
620.761	23818.73
620.956	24320.48
621.151	23302.64
621.346	23556.59
621.541	23372.27
621.735	23546.35
621.93	23013.88
622.125	23546.35
622.32	22764.03
622.515	23032.31
622.709	22874.62
622.904	22903.29
623.099	22993.4
623.294	22448.64
623.488	22432.26
623.683	22442.49
623.878	22247.94
624.072	22112.77
624.267	22139.4
624.462	21797.38
624.656	21631.5
624.851	21541.39
625.046	21623.31
625.24	21332.5
625.435	21160.47
625.629	21338.64
625.824	21064.21
626.018	20906.52
626.213	20859.42
626.407	20746.78
626.602	20398.62
626.796	20546.08
626.991	20494.88
627.185	20328.99
627.38	20279.84
627.574	20103.71
627.768	19765.8
627.963	19757.61
628.157	19730.98
628.352	19714.6
628.546	19522.09
628.74	19665.45
628.935	19200.56
629.129	19515.95
629.323	19161.65
629.517	18928.18
629.712	18971.19
629.906	18801.21
630.1	18602.55
630.294	18827.83
630.489	18647.61
630.683	18637.37
630.877	18489.92
631.071	18233.92
631.265	18141.76
631.459	18119.23
631.653	17885.76
631.848	17648.2
632.042	18055.75
632.236	17597
632.43	17408.59
632.624	17836.61
632.818	17318.48
633.012	17218.13
633.206	17230.41
633.4	17453.64
633.594	16937.55
633.788	16968.27
633.982	16757.33
634.176	16851.54
634.369	16616.02
634.563	16386.65
634.757	16462.43
634.951	16527.96
635.145	16515.67
635.339	16259.68
635.533	16142.94
635.726	16245.34
635.92	15977.06
636.114	15927.91
636.308	15868.52
636.501	15725.16
636.695	15669.86
636.889	15710.82
637.083	15538.79
637.276	15235.69
637.47	15426.15
637.664	15331.95
637.857	15321.71
638.051	15225.45
638.244	15225.45
638.438	14994.03
638.632	14815.86
638.825	14899.83
639.019	14832.24
639.212	14619.25
639.406	14561.91
639.599	14590.58
639.793	14533.24
639.986	14336.63
640.18	14328.44
640.373	14264.96
640.567	13910.66
640.76	14170.75
640.954	14062.21
641.147	13822.59
641.34	13605.51
641.534	13734.53
641.727	13675.14
641.92	13656.71
642.114	13456.01
642.307	13302.41
642.5	13404.81
642.694	13251.21
642.887	13257.36
643.08	13222.54
643.273	13218.44
643.467	13073.04
643.66	12958.35
643.853	12790.42
644.046	12630.68
644.239	12931.73
644.432	12708.5
644.626	12432.02
644.819	12483.22
645.012	12393.11
645.205	12384.92
645.398	12782.23
645.591	12270.23
645.784	12368.54
645.977	12135.07
646.17	12018.33
646.363	11791.01
646.556	11938.46
646.749	11915.94
646.942	11674.28
647.135	11848.35
647.328	11842.21
647.521	11475.62
647.714	11664.04
647.907	11295.4
648.099	11414.18
648.292	11438.76
648.485	11330.22
648.678	11100.84
648.871	11254.44
649.064	11172.52
649.256	11156.14
649.449	10918.57
649.642	10969.77
649.835	10945.2
650.027	10756.79
650.22	10785.46
650.413	10619.57
650.605	10635.96
650.798	10746.55
650.991	10465.97
651.183	10650.29
651.376	10375.86
651.568	10320.57
651.761	10756.79
651.954	10355.38
652.146	10422.97
652.339	10029.76
652.531	10283.7
652.724	10119.87
652.916	10013.37
653.109	9876.16
653.301	10013.37
653.494	9951.93
653.686	9798.34
653.879	10031.8
654.071	9767.62
654.263	9587.4
654.456	9616.07
654.648	9579.2
654.84	9571.01
655.033	9306.82
655.225	9628.35
655.417	9286.34
655.61	9366.21
655.802	9319.11
655.994	9384.65
656.186	9278.15
656.379	9179.85
656.571	9071.31
656.763	8932.05
656.955	9089.74
657.148	9022.16
657.34	9065.16
657.532	8694.48
657.724	8927.95
657.916	8876.75
658.108	8772.3
658.3	8813.26
658.492	8762.06
658.684	8524.5
658.876	8573.65
659.068	8430.29
659.26	8438.48
659.452	8569.55
659.644	8389.33
659.836	8233.69
660.028	8401.62
660.22	8164.06
660.412	8051.42
660.604	8188.63
660.796	8116.95
660.988	8127.19
661.18	7963.36
661.372	7920.35
661.563	8082.14
661.755	7842.53
661.947	7930.59
662.139	7875.29
662.331	7844.57
662.522	7682.78
662.714	7887.58
662.906	7650.02
663.097	7449.32
663.289	7480.04
663.481	7678.69
663.673	7566.05
663.864	7566.05
664.056	7473.89
664.247	7351.01
664.439	7326.44
664.631	7463.65
664.822	7262.95
665.014	7394.02
665.205	7265
665.397	7408.36
665.588	7367.4
665.78	7072.49
665.971	7023.34
666.163	7148.26
666.354	7105.26
666.546	7027.43
666.737	7082.73
666.929	6939.37
667.12	6957.8
667.311	6978.28
667.503	6800.11
667.694	6902.51
667.885	6839.02
668.077	6968.04
668.268	6648.56
668.459	6808.3
668.651	6742.77
668.842	6613.74
669.033	6595.31
669.224	6634.22
669.416	6603.5
669.607	6679.28
669.798	6451.95
669.989	6540.02
670.18	6593.26
670.371	6306.55
670.563	6372.08
670.754	6447.86
670.945	6212.34
671.136	6304.5
671.327	6245.11
671.518	6392.56
671.709	6275.83
671.9	6284.02
672.091	6247.16
672.282	6320.88
672.473	6175.48
672.664	6107.9
672.855	6009.59
673.046	6193.91
673.237	6095.61
673.428	6122.23
673.619	6189.81
673.809	6103.8
674	6038.27
674.191	6107.9
674.382	5974.78
674.573	5999.35
674.764	5952.25
674.954	6052.6
675.145	5978.87
675.336	5856
675.527	5896.96
675.717	5909.24
675.908	5921.53
676.099	5942.01
676.289	5759.74
676.48	5790.46
676.671	5862.14
676.861	5851.9
677.052	5694.21
677.243	5788.41
677.433	5827.32
677.624	5890.81
677.814	5724.93
678.005	5823.23
678.195	5831.42
678.386	5712.64
678.576	5643.01
678.767	5618.43
678.957	5468.93
679.148	5679.87
679.338	5759.74
679.529	5753.6
679.719	5778.17
679.909	5686.01
680.1	5571.33
680.29	5657.34
680.481	5665.53
680.671	5661.44
680.861	5526.27
681.052	5569.28
681.242	5675.77
681.432	5604.1
681.622	5522.18
681.813	5495.55
682.003	5563.14
682.193	5546.75
682.383	5559.04
682.573	5542.66
682.764	5524.23
682.954	5407.49
683.144	5384.96
683.334	5303.04
683.524	5346.05
683.714	5501.7
683.904	5528.32
684.094	5360.39
684.284	5401.35
684.474	5487.36
684.664	5460.74
684.854	5391.11
685.044	5446.4
685.234	5448.45
685.424	5294.85
685.614	5182.21
685.804	5264.13
685.994	5274.37
686.184	5421.83
686.374	5292.8
686.564	5174.02
686.753	5190.41
686.943	5212.93
687.133	5114.63
687.323	5102.34
687.513	5143.3
687.702	4999.95
687.892	5131.02
688.082	4977.42
688.272	5059.34
688.461	5001.99
688.651	5088.01
688.841	5077.77
689.03	4936.46
689.22	4901.64
689.41	4915.98
689.599	4870.92
689.789	4936.46
689.979	4875.02
690.168	4719.37
690.358	4750.09
690.547	4731.66
690.737	4698.89
690.926	4639.5
691.116	4471.57
691.305	4694.8
691.495	4623.12
691.684	4582.16
691.874	4555.54
692.063	4606.74
692.252	4512.53
692.442	4668.17
692.631	4487.95
692.82	4735.76
693.01	4502.29
693.199	4426.51
693.388	4438.8
693.578	4315.92
693.767	4346.64
693.956	4459.28
694.146	4369.17
694.335	4395.79
694.524	4311.83
694.713	4350.74
694.902	4305.68
695.092	4348.69
695.281	4291.35
695.47	4223.76
695.659	4299.54
695.848	4219.67
696.037	4193.05
696.226	4209.43
696.415	4109.08
696.604	4127.51
696.793	4096.79
696.982	4162.33
697.171	4256.53
697.36	4227.86
697.549	4113.17
697.738	4127.51
697.927	3996.44
698.116	4107.03
698.305	3963.67
698.494	4182.81
698.683	4039.45
698.872	4113.17
699.061	4053.78
699.25	4010.78
699.438	4168.47
699.627	4027.16
699.816	4004.63
700.005	4082.46
700.193	4064.02
700.382	3959.58
700.571	3965.72
700.76	3992.34
700.948	4025.11
701.137	4053.78
701.326	3945.24
701.514	3914.52
701.703	3951.39
701.892	3996.44
702.08	4027.16
702.269	3961.62
702.457	3828.51
702.646	4025.11
702.834	3937.05
703.023	3916.57
703.212	3848.99
703.4	3967.77
703.589	3834.65
703.777	3992.34
703.965	3785.5
704.154	3967.77
704.342	3820.32
704.531	3836.7
704.719	3775.26
704.907	3967.77
705.096	3859.23
705.284	3904.28
705.472	3910.43
705.661	3848.99
705.849	3812.12
706.037	3961.62
706.226	3873.56
706.414	3967.77
706.602	3863.32
706.79	3871.51
706.979	3750.68
707.167	3902.23
707.355	3969.82
707.543	3842.84
707.731	3873.56
707.919	3875.61
708.107	3814.17
708.296	3971.86
708.484	3810.08
708.672	3814.17
708.86	3982.1
709.048	3945.24
709.236	3748.64
709.424	3967.77
709.612	3935
709.8	3871.51
709.988	3932.95
710.176	3881.75
710.364	3928.86
710.551	3840.79
710.739	3830.55
710.927	3656.48
711.115	3894.04
711.303	3928.86
711.491	3898.14
711.679	3744.54
711.866	4010.78
712.054	3937.05
712.242	3844.89
712.43	3924.76
712.617	3900.19
712.805	3818.27
712.993	3963.67
713.181	3674.91
713.368	3896.09
713.556	3783.45
713.744	3816.22
713.931	3967.77
714.119	3926.81
714.306	3861.27
714.494	3775.26
714.682	3879.71
714.869	3803.93
715.057	3818.27
715.244	3914.52
715.432	3887.9
715.619	3906.33
715.807	3816.22
715.994	3840.79
716.182	3838.75
716.369	3889.95
716.556	3990.3
716.744	3834.65
716.931	3898.14
717.119	3869.47
717.306	3971.86
717.493	3912.47
717.681	3959.58
717.868	3937.05
718.055	3910.43
718.242	3855.13
718.43	3951.39
718.617	3955.48
718.804	3873.56
718.991	3902.23
719.179	3969.82
719.366	3871.51
719.553	3906.33
719.74	3926.81
719.927	3883.8
720.114	3998.49
720.301	3896.09
720.488	3848.99
720.676	3898.14
720.863	3848.99
721.05	3937.05
721.237	4002.58
721.424	3865.37
721.611	3961.62
721.798	3947.29
721.985	3894.04
722.172	3982.1
722.358	4066.07
722.545	4088.6
722.732	3945.24
722.919	4051.74
723.106	4055.83
723.293	4076.31
723.48	4000.54
723.667	3928.86
723.853	3912.47
724.04	4088.6
724.227	3953.43
724.414	4064.02
724.6	4043.54
724.787	4086.55
724.974	4074.26
725.161	3988.25
725.347	4041.5
725.534	4096.79
725.72	4000.54
725.907	4064.02
726.094	3996.44
726.28	3975.96
726.467	4059.93
726.653	4041.5
726.84	4078.36
727.027	4186.9
727.213	3920.67
727.4	4145.94
727.586	3998.49
727.773	4047.64
727.959	4023.06
728.145	4125.46
728.332	4131.61
728.518	4098.84
728.705	4053.78
728.891	4139.8
729.077	4078.36
729.264	3971.86
729.45	3986.2
729.636	4184.85
729.823	4066.07
730.009	4111.13
730.195	4123.41
730.382	4135.7
730.568	4107.03
730.754	4061.98
730.94	4035.35
731.126	4213.53
731.313	4221.72
731.499	4139.8
731.685	4274.96
731.871	4025.11
732.057	4176.66
732.243	4191
732.429	4092.69
732.615	4090.65
732.801	4176.66
732.987	4041.5
733.173	3994.39
733.359	4016.92
733.545	4119.32
733.731	4045.59
733.917	4270.87
734.103	4188.95
734.289	4201.24
734.475	4141.85
734.661	4268.82
734.847	4272.92
735.033	4164.37
735.219	3978.01
735.404	3994.39
735.59	4107.03
735.776	4064.02
735.962	4051.74
736.148	4307.73
736.333	4104.98
736.519	4115.22
736.705	4174.61
736.89	4029.21
737.076	4012.82
737.262	4041.5
737.447	4027.16
737.633	4113.17
737.819	3996.44
738.004	4023.06
738.19	4059.93
738.375	4096.79
738.561	4127.51
738.747	4059.93
738.932	3973.91
739.118	4094.74
739.303	4129.56
739.489	4076.31
739.674	4074.26
739.859	3994.39
740.045	4092.69
740.23	3967.77
740.416	4070.17
740.601	4047.64
740.786	4061.98
740.972	3992.34
741.157	4016.92
741.342	3904.28
741.528	3978.01
741.713	4008.73
741.898	4004.63
742.084	3953.43
742.269	4012.82
742.454	3959.58
742.639	3967.77
742.824	3857.18
743.01	3859.23
743.195	3812.12
743.38	3824.41
743.565	3820.32
743.75	3930.91
743.935	3756.83
744.12	3838.75
744.305	3687.2
744.49	3822.36
744.675	3830.55
744.86	3836.7
745.045	3812.12
745.23	3670.81
745.415	3771.16
745.6	3726.11
745.785	3597.09
745.97	3740.44
746.155	3515.17
746.34	3701.53
746.525	3504.93
746.71	3576.61
746.895	3474.21
747.079	3531.55
747.264	3478.3
747.449	3590.94
747.634	3496.74
747.819	3560.22
748.003	3400.48
748.188	3439.39
748.373	3396.39
748.557	3414.82
748.742	3396.39
748.927	3355.43
749.111	3377.95
749.296	3437.34
749.481	3218.21
749.665	3293.99
749.85	3263.27
750.034	3316.51
750.219	3146.53
750.404	3236.64
750.588	3193.64
750.773	3074.85
750.957	3238.69
751.141	3117.86
751.326	3097.38
751.51	3162.92
751.695	3029.8
751.879	3142.44
752.064	3005.22
752.248	3007.27
752.432	3062.57
752.617	3048.23
752.801	2913.06
752.985	2863.91
753.17	2741.04
753.354	2827.05
753.538	2958.12
753.722	2925.35
753.907	2810.67
754.091	2794.28
754.275	2839.34
754.459	2853.67
754.643	2888.49
754.828	2722.6
755.012	2777.9
755.196	2808.62
755.38	2700.08
755.564	2687.79
755.748	2693.93
755.932	2620.21
756.116	2614.06
756.3	2667.31
756.484	2603.82
756.668	2612.01
756.852	2472.75
757.036	2607.92
757.22	2460.46
757.404	2519.85
757.588	2450.22
757.772	2448.18
757.956	2401.07
758.14	2552.62
758.323	2511.66
758.507	2480.94
758.691	2358.07
758.875	2534.19
759.059	2335.54
759.242	2429.74
759.426	2390.83
759.61	2493.23
759.794	2284.34
759.977	2274.1
760.161	2403.12
760.345	2413.36
760.528	2212.66
760.712	2349.87
760.895	2177.84
761.079	2130.74
761.263	2233.14
761.446	2122.55
761.63	2183.99
761.813	2167.6
761.997	2220.85
762.18	2173.75
762.364	2210.61
762.547	2116.41
762.731	2120.5
762.914	2030.39
763.098	2030.39
763.281	2085.69
763.464	2073.4
763.648	2014.01
763.831	1895.22
764.015	1997.62
764.198	2032.44
764.381	1925.94
764.564	1952.57
764.748	2054.97
764.931	2071.35
765.114	1921.85
765.297	2110.26
765.481	1946.42
765.664	1987.38
765.847	1882.94
766.03	1997.62
766.213	1954.62
766.397	1860.41
766.58	1960.76
766.763	1921.85
766.946	1868.6
767.129	1979.19
767.312	1782.59
767.495	1921.85
767.678	1864.5
767.861	1907.51
768.044	1792.83
768.227	1854.27
768.41	1778.49
768.593	1823.55
768.776	1813.31
768.959	1790.78
769.142	1866.55
769.324	1792.83
769.507	1725.24
769.69	1719.1
769.873	1731.39
770.056	1829.69
770.239	1719.1
770.421	1780.54
770.604	1745.72
770.787	1600.32
770.97	1712.96
771.152	1581.89
771.335	1651.52
771.518	1604.41
771.7	1641.28
771.883	1698.62
772.066	1551.17
772.248	1581.89
772.431	1512.25
772.613	1600.32
772.796	1420.1
772.978	1610.56
773.161	1631.04
773.343	1565.5
773.526	1450.82
773.708	1495.87
773.891	1542.97
774.073	1504.06
774.256	1489.73
774.438	1512.25
774.621	1477.44
774.803	1557.31
774.985	1368.9
775.168	1555.26
775.35	1442.62
775.532	1520.45
775.715	1375.04
775.897	1446.72
776.079	1338.18
776.261	1424.19
776.444	1358.66
776.626	1444.67
776.808	1409.86
776.99	1321.79
777.173	1405.76
777.355	1329.99
777.537	1325.89
777.719	1358.66
777.901	1286.98
778.083	1332.03
778.265	1221.44
778.447	1315.65
778.629	1221.44
778.811	1301.31
778.993	1364.8
779.175	1358.66
779.357	1262.4
779.539	1127.24
779.721	1155.91
779.903	1168.2
780.085	1233.73
780.267	1137.48
780.449	1121.09
780.631	1246.02
780.812	1182.53
780.994	1102.66
781.176	1082.18
781.358	1047.37
781.54	1112.9
781.721	1018.69
781.903	1137.48
782.085	1108.8
782.267	1071.94
782.448	1080.13
782.63	1082.18
782.812	1063.75
782.993	1047.37
783.175	981.83
783.357	1102.66
783.538	1078.08
783.72	979.78
783.901	934.73
784.083	957.25
784.264	1012.55
784.446	979.78
784.627	861
784.809	996.17
784.99	996.17
785.172	969.54
785.353	914.25
785.535	924.49
785.716	934.73
785.897	883.53
786.079	910.15
786.26	944.97
786.441	811.85
786.623	826.18
786.804	774.99
786.985	881.48
787.167	777.03
787.348	844.62
787.529	811.85
787.71	889.67
787.891	873.29
788.073	809.8
788.254	756.55
788.435	791.37
788.616	828.23
788.797	777.03
788.978	740.17
789.159	758.6
789.34	793.42
789.522	699.21
789.703	777.03
789.884	754.51
790.065	807.75
790.246	803.66
790.427	723.79
790.607	805.71
790.788	697.16
790.969	672.59
791.15	680.78
791.331	695.11
791.512	697.16
791.693	695.11
791.874	699.21
792.054	779.08
792.235	682.83
792.416	723.79
792.597	562
792.778	736.07
792.958	756.55
793.139	641.87
793.32	652.11
793.5	693.07
793.681	727.88
793.862	660.3
794.042	594.76
794.223	590.67
794.404	525.13
794.584	588.62
794.765	590.67
794.945	607.05
795.126	676.68
795.306	701.26
795.487	578.38
795.667	619.34
795.848	570.19
796.028	605
796.209	623.44
796.389	609.1
796.57	578.38
796.75	555.85
796.93	602.96
797.111	527.18
797.291	539.47
797.471	496.46
797.652	586.57
797.832	457.55
798.012	609.1
798.192	551.76
798.373	545.61
798.553	547.66
798.733	512.85
798.913	518.99
799.093	484.17
799.274	492.37
799.454	531.28
799.634	514.89
799.814	504.65
799.994	586.57
800.174	555.85
800.354	547.66
800.534	467.79
800.714	551.76
800.894	447.31
801.074	498.51
801.254	416.59
801.434	510.8
801.614	494.41
801.794	473.93
801.974	1168.2
802.154	449.36
802.334	473.93
802.514	467.79
802.693	385.87
802.873	467.79
803.053	480.08
803.233	387.92
803.413	420.69
803.592	402.26
803.772	365.39
803.952	469.84
804.131	451.41
804.311	371.54
804.491	484.17
804.67	408.4
804.85	387.92
805.03	373.58
805.209	424.78
805.389	437.07
805.568	467.79
805.748	361.3
805.928	465.74
806.107	383.82
806.287	406.35
806.466	445.26
806.646	385.87
806.825	371.54
807.004	371.54
807.184	383.82
807.363	430.93
807.543	400.21
807.722	359.25
807.901	459.6
808.081	389.97
808.26	349.01
808.439	381.78
808.619	320.34
808.798	357.2
808.977	394.06
809.156	457.55
809.336	349.01
809.515	334.67
809.694	383.82
809.873	408.4
810.052	359.25
810.231	340.82
810.411	359.25
810.59	447.31
810.769	392.02
810.948	367.44
811.127	267.09
811.306	363.34
811.485	310.1
811.664	328.53
811.843	301.9
812.022	353.1
812.201	277.33
812.38	338.77
812.559	285.52
812.737	328.53
812.916	254.8
813.095	355.15
813.274	346.96
813.453	318.29
813.632	369.49
813.811	375.63
813.989	242.51
814.168	359.25
814.347	207.7
814.526	293.71
814.704	308.05
814.883	373.58
815.062	211.79
815.24	344.91
815.419	240.47
815.598	250.71
815.776	291.66
815.955	312.14
816.133	205.65
816.312	248.66
816.49	250.71
816.669	316.24
816.847	244.56
817.026	289.62
817.204	281.43
817.383	322.38
817.561	271.19
817.74	211.79
817.918	228.18
818.097	285.52
818.275	285.52
818.453	281.43
818.632	361.3
818.81	246.61
818.988	242.51
819.167	308.05
819.345	299.86
819.523	299.86
819.701	287.57
819.879	314.19
820.058	213.84
820.236	248.66
820.414	236.37
820.592	291.66
820.77	219.99
820.948	203.6
821.127	236.37
821.305	240.47
821.483	193.36
821.661	250.71
821.839	217.94
822.017	201.55
822.195	234.32
822.373	283.47
822.551	199.51
822.729	310.1
822.907	109.4
823.085	252.75
823.262	209.75
823.44	195.41
823.618	191.31
823.796	189.27
823.974	174.93
824.152	252.75
824.329	197.46
824.507	224.08
824.685	244.56
824.863	170.83
825.04	148.31
825.218	164.69
825.396	191.31
825.574	236.37
825.751	201.55
825.929	236.37
826.107	203.6
826.284	244.56
826.462	154.45
826.639	125.78
826.817	125.78
826.994	189.27
827.172	148.31
827.349	240.47
827.527	193.36
827.704	179.03
827.882	179.03
828.059	199.51
828.237	156.5
828.414	199.51
828.591	183.12
828.769	179.03
828.946	215.89
829.124	224.08
829.301	215.89
829.478	152.4
829.655	195.41
829.833	187.22
830.01	140.12
830.187	207.7
830.364	140.12
830.542	207.7
830.719	201.55
830.896	215.89
831.073	183.12
831.25	172.88
831.427	170.83
831.604	164.69
831.782	121.68
831.959	224.08
832.136	201.55
832.313	121.68
832.49	140.12
832.667	172.88
832.844	129.88
833.021	152.4
833.198	170.83
833.374	201.55
833.551	217.94
833.728	172.88
833.905	162.64
834.082	170.83
834.259	123.73
834.436	179.03
834.612	129.88
834.789	242.51
834.966	211.79
835.143	197.46
835.319	123.73
835.496	289.62
835.673	107.35
835.85	142.16
836.026	179.03
836.203	170.83
836.38	119.64
836.556	181.07
836.733	99.16
836.909	224.08
837.086	99.16
837.262	70.48
837.439	113.49
837.616	160.59
837.792	136.02
837.968	127.83
838.145	99.16
838.321	103.25
838.498	166.74
838.674	88.92
838.851	152.4
839.027	133.97
839.203	117.59
839.38	189.27
839.556	60.24
839.732	152.4
839.909	17.24
840.085	156.5
840.261	54.1
840.437	84.82
840.614	80.72
840.79	215.89
840.966	119.64
841.142	176.98
841.318	93.01
841.494	160.59
841.671	156.5
841.847	125.78
842.023	142.16
842.199	205.65
842.375	150.36
842.551	11.09
842.727	25.43
842.903	168.79
843.079	52.05
843.255	115.54
843.431	117.59
843.607	121.68
843.783	86.87
843.959	121.68
844.134	70.48
844.31	174.93
844.486	62.29
844.662	140.12
844.838	148.31
845.013	115.54
845.189	115.54
845.365	176.98
845.541	138.07
845.716	88.92
845.892	144.21
846.068	97.11
846.244	95.06
846.419	138.07
846.595	101.2
846.77	74.58
846.946	142.16
847.122	72.53
847.297	56.15
847.473	52.05
847.648	144.21
847.824	78.68
847.999	80.72
848.175	41.81
848.35	115.54
848.526	78.68
848.701	140.12
848.876	121.68
849.052	93.01
849.227	127.83
849.403	45.91
849.578	123.73
849.753	52.05
849.929	193.36
850.104	70.48
850.279	123.73
850.454	70.48
850.63	127.83
850.805	111.44
850.98	123.73
851.155	84.82
851.33	144.21
851.505	52.05
851.681	113.49
851.856	56.15
852.031	164.69
852.206	78.68
852.381	84.82
852.556	47.96
852.731	72.53
852.906	76.63
853.081	136.02
853.256	113.49
853.431	80.72
853.606	-1.19
853.781	-17.58
853.956	41.81
854.131	181.07
854.305	111.44
854.48	39.76
854.655	54.1
854.83	47.96
855.005	68.44
855.18	125.78
855.354	76.63
855.529	138.07
855.704	13.14
855.879	142.16
856.053	31.57
856.228	56.15
856.403	17.24
856.577	82.77
856.752	93.01
856.926	138.07
857.101	58.2
857.276	86.87
857.45	41.81
857.625	125.78
857.799	50
857.974	62.29
858.148	2.9
858.323	76.63
858.497	7
858.672	97.11
858.846	50
859.02	60.24
859.195	31.57
859.369	127.83
859.543	37.72
859.718	47.96
859.892	99.16
860.066	140.12
860.241	107.35
860.415	90.96
860.589	50
860.763	-17.58
860.938	60.24
861.112	80.72
861.286	107.35
861.46	152.4
861.634	39.76
861.808	41.81
861.982	58.2
862.157	37.72
862.331	93.01
862.505	50
862.679	64.34
862.853	-19.63
863.027	95.06
863.201	127.83
863.375	29.52
863.549	74.58
863.722	45.91
863.896	103.25
864.07	-29.87
864.244	37.72
864.418	33.62
864.592	43.86
864.766	9.05
864.939	29.52
865.113	76.63
865.287	33.62
865.461	0.85
865.634	68.44
865.808	68.44
865.982	17.24
866.156	-27.82
866.329	9.05
866.503	60.24
866.676	54.1
866.85	119.64
867.024	97.11
867.197	86.87
867.371	33.62
867.544	-9.39
867.718	99.16
867.891	103.25
868.065	-3.24
868.238	86.87
868.412	109.4
868.585	43.86
868.759	-3.24
868.932	-36.01
869.105	21.33
869.279	84.82
869.452	39.76
869.625	115.54
869.799	2.9
869.972	39.76
870.145	43.86
870.319	107.35
870.492	138.07
870.665	43.86
870.838	129.88
871.011	15.19
871.185	58.2
871.358	-1.19
871.531	39.76
871.704	33.62
871.877	166.74
872.05	121.68
872.223	0.85
872.396	41.81
872.569	47.96
872.742	41.81
872.915	43.86
873.088	-1.19
873.261	93.01
873.434	2.9
873.607	105.3
873.78	82.77
873.953	9.05
874.126	41.81
874.299	101.2
874.471	23.38
874.644	7
874.817	156.5
874.99	66.39
875.163	-62.63
875.335	41.81
875.508	-11.43
875.681	43.86
875.853	-50.35
876.026	19.29
876.199	78.68
876.371	-13.48
876.544	47.96
876.717	15.19
876.889	62.29
877.062	78.68
877.234	13.14
877.407	23.38
877.579	43.86
877.752	66.39
877.924	25.43
878.097	58.2
878.269	2.9
878.442	72.53
878.614	-11.43
878.786	50
878.959	29.52
879.131	43.86
879.303	-58.54
879.476	47.96
879.648	31.57
879.82	64.34
879.993	56.15
880.165	58.2
880.337	4.95
880.509	72.53
880.681	-66.73
880.854	66.39
881.026	-5.29
881.198	50
881.37	45.91
881.542	-33.96
881.714	50
881.886	29.52
882.058	33.62
882.23	47.96
882.402	17.24
882.574	119.64
882.746	56.15
882.918	54.1
883.09	64.34
883.262	37.72
883.434	31.57
883.606	-40.11
883.778	33.62
883.95	43.86
884.122	58.2
884.293	56.15
884.465	21.33
884.637	52.05
884.809	4.95
884.98	105.3
885.152	-13.48
885.324	29.52
885.496	-11.43
885.667	0.85
885.839	35.67
886.011	23.38
886.182	19.29
886.354	31.57
886.525	-23.72
886.697	2.9
886.869	43.86
887.04	-3.24
887.212	25.43
887.383	90.96
887.555	-38.06
887.726	25.43
887.897	11.09
888.069	-7.34
888.24	43.86
888.412	4.95
888.583	2.9
888.754	17.24
888.926	90.96
889.097	50
889.268	-13.48
889.44	58.2
889.611	62.29
889.782	-3.24
889.953	37.72
890.125	99.16
890.296	0.85
890.467	56.15
890.638	17.24
890.809	70.48
890.98	19.29
891.151	50
891.323	60.24
891.494	33.62
891.665	52.05
891.836	78.68
892.007	21.33
892.178	107.35
892.349	76.63
892.52	13.14
892.691	-19.63
892.862	-54.44
893.032	13.14
893.203	27.48
893.374	-33.96
893.545	29.52
893.716	56.15
893.887	37.72
894.057	-54.44
894.228	31.57
894.399	23.38
894.57	95.06
894.74	29.52
894.911	29.52
895.082	-9.39
895.253	95.06
895.423	-19.63
895.594	-9.39
895.764	52.05
895.935	31.57
896.106	23.38
896.276	15.19
896.447	56.15
896.617	19.29
896.788	-3.24
896.958	35.67
897.129	-74.92
897.299	31.57
897.47	0.85
897.64	56.15
897.81	33.62
897.981	13.14
898.151	27.48
898.322	45.91
898.492	58.2
898.662	-31.91
898.832	39.76
899.003	99.16
899.173	21.33
899.343	-3.24
899.513	-31.91
