Data from USB4F104151__99__12-24-58-967.txt Node

Date: Fri Mar 14 12:24:58 EDT 2025
User: louis
Spectrometer: USB4F10415
Trigger mode: 4
Integration Time (sec): 3.500000E-2
Scans to average: 1
Electric dark correction enabled: true
Nonlinearity correction enabled: false
Boxcar width: 0
XAxis mode: Wavelengths
Number of Pixels in Spectrum: 3648
>>>>>Begin Spectral Data<<<<<
178.204	-173.22
178.424	-173.22
178.644	-173.22
178.864	-183.46
179.084	-158.89
179.304	2.9
179.524	-21.67
179.744	13.14
179.964	33.62
180.184	66.39
180.404	21.33
180.624	-36.01
180.844	-56.49
181.064	-29.87
181.283	11.09
181.503	9.05
181.723	-13.48
181.943	-70.83
182.163	95.06
182.383	-54.44
182.602	88.92
182.822	15.19
183.042	0.85
183.262	-62.63
183.482	-56.49
183.701	39.76
183.921	62.29
184.141	-130.22
184.361	97.11
184.58	80.72
184.8	66.39
185.02	47.96
185.239	47.96
185.459	103.25
185.679	23.38
185.898	-81.07
186.118	15.19
186.338	45.91
186.557	19.29
186.777	4.95
186.997	66.39
187.216	66.39
187.436	21.33
187.655	19.29
187.875	127.83
188.095	74.58
188.314	-17.58
188.534	33.62
188.753	-38.06
188.973	-54.44
189.192	78.68
189.412	50
189.631	45.91
189.851	-17.58
190.07	21.33
190.29	-19.63
190.509	72.53
190.729	13.14
190.948	101.2
191.168	113.49
191.387	66.39
191.607	-83.11
191.826	41.81
192.045	90.96
192.265	13.14
192.484	13.14
192.704	21.33
192.923	86.87
193.142	74.58
193.362	66.39
193.581	74.58
193.8	33.62
194.02	9.05
194.239	15.19
194.458	56.15
194.678	56.15
194.897	21.33
195.116	15.19
195.335	11.09
195.555	0.85
195.774	31.57
195.993	150.36
196.212	29.52
196.432	-48.3
196.651	-38.06
196.87	-25.77
197.089	107.35
197.308	19.29
197.528	64.34
197.747	-36.01
197.966	-5.29
198.185	117.59
198.404	-48.3
198.623	21.33
198.842	62.29
199.062	19.29
199.281	62.29
199.5	80.72
199.719	-11.43
199.938	47.96
200.157	50
200.376	29.52
200.595	82.77
200.814	19.29
201.033	13.14
201.252	101.2
201.471	2.9
201.69	37.72
201.909	64.34
202.128	23.38
202.347	-7.34
202.566	41.81
202.785	47.96
203.004	-48.3
203.223	88.92
203.442	152.4
203.661	0.85
203.879	47.96
204.098	33.62
204.317	66.39
204.536	54.1
204.755	27.48
204.974	-27.82
205.193	4.95
205.411	111.44
205.63	13.14
205.849	76.63
206.068	90.96
206.287	39.76
206.505	50
206.724	-7.34
206.943	86.87
207.162	25.43
207.381	-7.34
207.599	74.58
207.818	50
208.037	23.38
208.255	7
208.474	117.59
208.693	125.78
208.911	25.43
209.13	43.86
209.349	-52.39
209.567	-27.82
209.786	35.67
210.005	68.44
210.223	27.48
210.442	-48.3
210.661	47.96
210.879	131.92
211.098	21.33
211.316	50
211.535	31.57
211.753	60.24
211.972	70.48
212.191	13.14
212.409	58.2
212.628	101.2
212.846	29.52
213.065	-13.48
213.283	119.64
213.502	47.96
213.72	41.81
213.938	11.09
214.157	-1.19
214.375	31.57
214.594	9.05
214.812	109.4
215.031	99.16
215.249	70.48
215.467	-5.29
215.686	47.96
215.904	35.67
216.122	41.81
216.341	54.1
216.559	23.38
216.778	84.82
216.996	187.22
217.214	19.29
217.432	56.15
217.651	0.85
217.869	13.14
218.087	31.57
218.306	33.62
218.524	60.24
218.742	-21.67
218.96	2.9
219.179	52.05
219.397	45.91
219.615	133.97
219.833	41.81
220.051	-31.91
220.27	41.81
220.488	-13.48
220.706	56.15
220.924	72.53
221.142	4.95
221.36	29.52
221.578	-42.15
221.796	27.48
222.015	-7.34
222.233	11.09
222.451	101.2
222.669	-33.96
222.887	131.92
223.105	0.85
223.323	-15.53
223.541	54.1
223.759	13.14
223.977	-29.87
224.195	35.67
224.413	138.07
224.631	97.11
224.849	99.16
225.067	50
225.285	11.09
225.503	-3.24
225.721	-17.58
225.939	29.52
226.157	99.16
226.375	113.49
226.592	-38.06
226.81	-13.48
227.028	72.53
227.246	78.68
227.464	17.24
227.682	43.86
227.9	52.05
228.117	9.05
228.335	56.15
228.553	52.05
228.771	138.07
228.989	52.05
229.206	35.67
229.424	-3.24
229.642	70.48
229.86	4.95
230.077	-5.29
230.295	4.95
230.513	41.81
230.731	66.39
230.948	41.81
231.166	78.68
231.384	-3.24
231.601	-9.39
231.819	72.53
232.037	-25.77
232.254	-36.01
232.472	-72.87
232.689	33.62
232.907	-3.24
233.125	-7.34
233.342	27.48
233.56	72.53
233.777	58.2
233.995	11.09
234.213	47.96
234.43	-15.53
234.648	15.19
234.865	37.72
235.083	111.44
235.3	29.52
235.518	52.05
235.735	62.29
235.953	93.01
236.17	41.81
236.388	-7.34
236.605	37.72
236.822	64.34
237.04	35.67
237.257	43.86
237.475	-89.26
237.692	52.05
237.909	-33.96
238.127	37.72
238.344	-5.29
238.562	60.24
238.779	-66.73
238.996	4.95
239.214	-5.29
239.431	-17.58
239.648	7
239.865	90.96
240.083	19.29
240.3	-11.43
240.517	-21.67
240.735	-38.06
240.952	93.01
241.169	70.48
241.386	-13.48
241.603	-60.59
241.821	-44.2
242.038	66.39
242.255	11.09
242.472	-83.11
242.689	-68.78
242.907	80.72
243.124	2.9
243.341	-3.24
243.558	37.72
243.775	-5.29
243.992	-44.2
244.209	90.96
244.426	111.44
244.643	111.44
244.86	60.24
245.078	86.87
245.295	21.33
245.512	31.57
245.729	31.57
245.946	84.82
246.163	41.81
246.38	52.05
246.597	50
246.814	-5.29
247.031	0.85
247.248	15.19
247.464	41.81
247.681	-1.19
247.898	33.62
248.115	62.29
248.332	17.24
248.549	113.49
248.766	31.57
248.983	90.96
249.2	113.49
249.417	72.53
249.633	-23.72
249.85	31.57
250.067	27.48
250.284	58.2
250.501	29.52
250.717	33.62
250.934	-9.39
251.151	62.29
251.368	-46.25
251.585	7
251.801	117.59
252.018	-11.43
252.235	62.29
252.451	41.81
252.668	-19.63
252.885	60.24
253.102	70.48
253.318	-23.72
253.535	-25.77
253.752	-27.82
253.968	13.14
254.185	-19.63
254.401	23.38
254.618	31.57
254.835	7
255.051	121.68
255.268	47.96
255.484	97.11
255.701	33.62
255.917	17.24
256.134	-19.63
256.351	68.44
256.567	19.29
256.784	23.38
257	11.09
257.217	60.24
257.433	64.34
257.65	21.33
257.866	78.68
258.082	-29.87
258.299	13.14
258.515	56.15
258.732	23.38
258.948	2.9
259.165	-44.2
259.381	15.19
259.597	41.81
259.814	39.76
260.03	-23.72
260.246	109.4
260.463	29.52
260.679	37.72
260.895	52.05
261.112	25.43
261.328	-38.06
261.544	-21.67
261.761	60.24
261.977	-7.34
262.193	-7.34
262.409	-9.39
262.626	58.2
262.842	93.01
263.058	25.43
263.274	88.92
263.49	47.96
263.707	31.57
263.923	121.68
264.139	-5.29
264.355	41.81
264.571	101.2
264.787	31.57
265.004	43.86
265.22	7
265.436	84.82
265.652	21.33
265.868	15.19
266.084	-29.87
266.3	-1.19
266.516	47.96
266.732	95.06
266.948	-9.39
267.164	-9.39
267.38	41.81
267.596	29.52
267.812	54.1
268.028	78.68
268.244	-25.77
268.46	21.33
268.676	15.19
268.892	54.1
269.108	25.43
269.324	90.96
269.54	-25.77
269.756	66.39
269.972	-42.15
270.188	17.24
270.403	23.38
270.619	56.15
270.835	17.24
271.051	88.92
271.267	25.43
271.483	15.19
271.698	86.87
271.914	70.48
272.13	19.29
272.346	-27.82
272.562	50
272.777	66.39
272.993	-25.77
273.209	-40.11
273.425	47.96
273.64	70.48
273.856	84.82
274.072	-11.43
274.287	2.9
274.503	-5.29
274.719	15.19
274.934	21.33
275.15	-56.49
275.366	41.81
275.581	-46.25
275.797	56.15
276.012	25.43
276.228	33.62
276.444	31.57
276.659	74.58
276.875	50
277.09	-19.63
277.306	-38.06
277.521	23.38
277.737	78.68
277.952	56.15
278.168	80.72
278.383	9.05
278.599	56.15
278.814	43.86
279.03	7
279.245	31.57
279.461	13.14
279.676	-56.49
279.892	-5.29
280.107	13.14
280.322	9.05
280.538	56.15
280.753	-5.29
280.969	29.52
281.184	15.19
281.399	64.34
281.615	37.72
281.83	78.68
282.045	-1.19
282.26	72.53
282.476	35.67
282.691	37.72
282.906	39.76
283.122	25.43
283.337	11.09
283.552	111.44
283.767	-81.07
283.983	58.2
284.198	11.09
284.413	-42.15
284.628	-58.54
284.843	35.67
285.058	23.38
285.274	23.38
285.489	-15.53
285.704	-1.19
285.919	58.2
286.134	9.05
286.349	-15.53
286.564	9.05
286.779	101.2
286.995	25.43
287.21	-11.43
287.425	23.38
287.64	35.67
287.855	-27.82
288.07	23.38
288.285	60.24
288.5	37.72
288.715	31.57
288.93	33.62
289.145	-13.48
289.36	142.16
289.575	62.29
289.79	43.86
290.004	-52.39
290.219	54.1
290.434	47.96
290.649	33.62
290.864	37.72
291.079	27.48
291.294	64.34
291.509	13.14
291.724	15.19
291.938	27.48
292.153	-19.63
292.368	-11.43
292.583	39.76
292.798	47.96
293.012	13.14
293.227	33.62
293.442	19.29
293.657	80.72
293.871	109.4
294.086	54.1
294.301	80.72
294.516	70.48
294.73	76.63
294.945	15.19
295.16	29.52
295.374	47.96
295.589	103.25
295.804	2.9
296.018	4.95
296.233	78.68
296.447	39.76
296.662	-27.82
296.877	90.96
297.091	-19.63
297.306	25.43
297.52	-38.06
297.735	19.29
297.949	58.2
298.164	68.44
298.378	13.14
298.593	56.15
298.807	-5.29
299.022	64.34
299.236	41.81
299.451	9.05
299.665	56.15
299.88	47.96
300.094	52.05
300.309	84.82
300.523	-1.19
300.737	15.19
300.952	54.1
301.166	-1.19
301.381	29.52
301.595	7
301.809	88.92
302.024	68.44
302.238	31.57
302.452	47.96
302.667	-5.29
302.881	58.2
303.095	19.29
303.309	37.72
303.524	121.68
303.738	-25.77
303.952	11.09
304.166	54.1
304.381	15.19
304.595	-29.87
304.809	4.95
305.023	56.15
305.237	-38.06
305.452	11.09
305.666	35.67
305.88	9.05
306.094	64.34
306.308	29.52
306.522	50
306.736	27.48
306.95	56.15
307.164	29.52
307.379	15.19
307.593	109.4
307.807	82.77
308.021	52.05
308.235	58.2
308.449	27.48
308.663	-60.59
308.877	136.02
309.091	-64.68
309.305	103.25
309.519	-17.58
309.733	103.25
309.947	-29.87
310.161	-21.67
310.374	123.73
310.588	41.81
310.802	74.58
311.016	2.9
311.23	105.3
311.444	23.38
311.658	23.38
311.872	119.64
312.085	43.86
312.299	13.14
312.513	60.24
312.727	0.85
312.941	29.52
313.154	66.39
313.368	-7.34
313.582	-36.01
313.796	19.29
314.009	19.29
314.223	93.01
314.437	93.01
314.651	99.16
314.864	31.57
315.078	103.25
315.292	-58.54
315.505	-21.67
315.719	56.15
315.933	72.53
316.146	-38.06
316.36	9.05
316.573	74.58
316.787	84.82
317.001	25.43
317.214	-58.54
317.428	37.72
317.641	21.33
317.855	25.43
318.068	4.95
318.282	66.39
318.495	174.93
318.709	43.86
318.922	-7.34
319.136	29.52
319.349	-1.19
319.563	78.68
319.776	-15.53
319.99	56.15
320.203	58.2
320.417	45.91
320.63	37.72
320.843	154.45
321.057	4.95
321.27	37.72
321.483	70.48
321.697	62.29
321.91	50
322.124	33.62
322.337	52.05
322.55	19.29
322.763	-23.72
322.977	31.57
323.19	88.92
323.403	144.21
323.617	144.21
323.83	117.59
324.043	90.96
324.256	17.24
324.469	-27.82
324.683	72.53
324.896	37.72
325.109	50
325.322	64.34
325.535	17.24
325.748	64.34
325.962	47.96
326.175	-1.19
326.388	23.38
326.601	47.96
326.814	66.39
327.027	35.67
327.24	105.3
327.453	58.2
327.666	19.29
327.879	84.82
328.092	31.57
328.305	68.44
328.518	-64.68
328.731	27.48
328.944	-3.24
329.157	88.92
329.37	-23.72
329.583	90.96
329.796	47.96
330.009	-7.34
330.222	39.76
330.435	50
330.648	54.1
330.861	56.15
331.073	62.29
331.286	0.85
331.499	31.57
331.712	56.15
331.925	19.29
332.138	27.48
332.35	74.58
332.563	-9.39
332.776	23.38
332.989	64.34
333.202	29.52
333.414	9.05
333.627	127.83
333.84	13.14
334.053	68.44
334.265	-40.11
334.478	76.63
334.691	15.19
334.903	78.68
335.116	-66.73
335.329	50
335.541	60.24
335.754	127.83
335.966	27.48
336.179	-40.11
336.392	-1.19
336.604	21.33
336.817	11.09
337.029	54.1
337.242	78.68
337.454	66.39
337.667	25.43
337.88	62.29
338.092	-29.87
338.305	76.63
338.517	13.14
338.729	80.72
338.942	95.06
339.154	-23.72
339.367	-11.43
339.579	41.81
339.792	-48.3
340.004	76.63
340.217	21.33
340.429	62.29
340.641	-7.34
340.854	-21.67
341.066	25.43
341.278	62.29
341.491	74.58
341.703	-29.87
341.915	62.29
342.128	19.29
342.34	70.48
342.552	37.72
342.764	52.05
342.977	23.38
343.189	41.81
343.401	58.2
343.613	-25.77
343.826	23.38
344.038	-48.3
344.25	62.29
344.462	39.76
344.674	84.82
344.886	35.67
345.099	-17.58
345.311	43.86
345.523	19.29
345.735	68.44
345.947	47.96
346.159	43.86
346.371	60.24
346.583	95.06
346.795	97.11
347.007	45.91
347.219	-9.39
347.431	-15.53
347.643	70.48
347.855	43.86
348.067	154.45
348.279	21.33
348.491	29.52
348.703	23.38
348.915	41.81
349.127	39.76
349.339	0.85
349.551	11.09
349.763	23.38
349.975	117.59
350.187	80.72
350.399	62.29
350.61	84.82
350.822	7
351.034	66.39
351.246	72.53
351.458	45.91
351.669	-7.34
351.881	119.64
352.093	68.44
352.305	88.92
352.517	99.16
352.728	41.81
352.94	93.01
353.152	95.06
353.363	23.38
353.575	33.62
353.787	39.76
353.999	47.96
354.21	86.87
354.422	50
354.633	27.48
354.845	66.39
355.057	31.57
355.268	76.63
355.48	131.92
355.692	-7.34
355.903	25.43
356.115	47.96
356.326	19.29
356.538	74.58
356.749	62.29
356.961	29.52
357.172	90.96
357.384	-31.91
357.595	74.58
357.807	90.96
358.018	45.91
358.23	31.57
358.441	80.72
358.653	78.68
358.864	45.91
359.075	-19.63
359.287	-3.24
359.498	90.96
359.709	70.48
359.921	-13.48
360.132	19.29
360.344	-19.63
360.555	50
360.766	-3.24
360.977	25.43
361.189	76.63
361.4	33.62
361.611	66.39
361.823	111.44
362.034	-11.43
362.245	-11.43
362.456	115.54
362.667	43.86
362.879	62.29
363.09	-7.34
363.301	-15.53
363.512	23.38
363.723	33.62
363.935	56.15
364.146	56.15
364.357	54.1
364.568	99.16
364.779	41.81
364.99	66.39
365.201	41.81
365.412	37.72
365.623	-1.19
365.834	4.95
366.045	95.06
366.256	21.33
366.467	78.68
366.678	31.57
366.889	50
367.1	4.95
367.311	37.72
367.522	15.19
367.733	-19.63
367.944	33.62
368.155	66.39
368.366	35.67
368.577	39.76
368.788	58.2
368.999	21.33
369.209	54.1
369.42	93.01
369.631	111.44
369.842	84.82
370.053	2.9
370.264	113.49
370.474	47.96
370.685	50
370.896	21.33
371.107	99.16
371.317	70.48
371.528	-23.72
371.739	88.92
371.95	84.82
372.16	103.25
372.371	4.95
372.582	-62.63
372.792	-3.24
373.003	11.09
373.214	-1.19
373.424	72.53
373.635	-42.15
373.846	72.53
374.056	27.48
374.267	33.62
374.477	17.24
374.688	17.24
374.898	-3.24
375.109	97.11
375.319	107.35
375.53	23.38
375.74	25.43
375.951	-15.53
376.161	64.34
376.372	62.29
376.582	-13.48
376.793	78.68
377.003	13.14
377.214	52.05
377.424	7
377.635	-1.19
377.845	74.58
378.055	-3.24
378.266	60.24
378.476	60.24
378.686	93.01
378.897	9.05
379.107	86.87
379.317	39.76
379.528	-27.82
379.738	62.29
379.948	50
380.158	101.2
380.369	50
380.579	70.48
380.789	56.15
380.999	162.64
381.21	27.48
381.42	90.96
381.63	78.68
381.84	45.91
382.05	113.49
382.261	109.4
382.471	109.4
382.681	-81.07
382.891	84.82
383.101	52.05
383.311	50
383.521	52.05
383.731	-5.29
383.941	80.72
384.151	47.96
384.361	31.57
384.571	97.11
384.781	-19.63
384.991	74.58
385.201	138.07
385.411	37.72
385.621	86.87
385.831	27.48
386.041	-15.53
386.251	27.48
386.461	101.2
386.671	64.34
386.881	113.49
387.091	84.82
387.301	56.15
387.511	99.16
387.72	50
387.93	25.43
388.14	-7.34
388.35	86.87
388.56	129.88
388.769	90.96
388.979	41.81
389.189	86.87
389.399	9.05
389.609	70.48
389.818	136.02
390.028	47.96
390.238	29.52
390.447	43.86
390.657	41.81
390.867	37.72
391.076	-15.53
391.286	97.11
391.496	58.2
391.705	90.96
391.915	172.88
392.125	58.2
392.334	74.58
392.544	111.44
392.753	43.86
392.963	103.25
393.172	50
393.382	90.96
393.591	76.63
393.801	0.85
394.01	50
394.22	76.63
394.429	60.24
394.639	76.63
394.848	150.36
395.058	109.4
395.267	37.72
395.477	111.44
395.686	70.48
395.895	103.25
396.105	140.12
396.314	45.91
396.524	152.4
396.733	125.78
396.942	144.21
397.152	76.63
397.361	160.59
397.57	99.16
397.78	52.05
397.989	68.44
398.198	170.83
398.407	101.2
398.617	97.11
398.826	82.77
399.035	109.4
399.244	160.59
399.453	125.78
399.663	140.12
399.872	101.2
400.081	29.52
400.29	88.92
400.499	17.24
400.708	54.1
400.917	146.26
401.127	129.88
401.336	23.38
401.545	144.21
401.754	148.31
401.963	148.31
402.172	78.68
402.381	-3.24
402.59	97.11
402.799	129.88
403.008	164.69
403.217	115.54
403.426	140.12
403.635	140.12
403.844	144.21
404.053	131.92
404.262	121.68
404.471	138.07
404.68	164.69
404.888	97.11
405.097	121.68
405.306	115.54
405.515	201.55
405.724	150.36
405.933	158.55
406.142	187.22
406.35	168.79
406.559	162.64
406.768	207.7
406.977	195.41
407.185	193.36
407.394	185.17
407.603	131.92
407.812	189.27
408.02	262.99
408.229	154.45
408.438	217.94
408.646	222.03
408.855	226.13
409.064	219.99
409.272	244.56
409.481	187.22
409.69	209.75
409.898	203.6
410.107	287.57
410.315	283.47
410.524	224.08
410.733	326.48
410.941	228.18
411.15	336.72
411.358	240.47
411.567	377.68
411.775	346.96
411.984	291.66
412.192	394.06
412.401	416.59
412.609	346.96
412.818	422.73
413.026	457.55
413.234	383.82
413.443	408.4
413.651	443.21
413.86	480.08
414.068	543.57
414.276	545.61
414.485	465.74
414.693	506.7
414.901	621.39
415.11	514.89
415.318	584.52
415.526	607.05
415.734	752.46
415.943	668.49
416.151	748.36
416.359	660.3
416.567	693.07
416.776	699.21
416.984	822.09
417.192	883.53
417.4	824.14
417.608	854.86
417.817	861
418.025	832.33
418.233	1084.23
418.441	1035.08
418.649	897.86
418.857	1020.74
419.065	1022.79
419.273	942.92
419.481	1182.53
419.689	1217.35
419.897	1250.11
420.105	1239.87
420.313	1319.75
420.521	1436.48
420.729	1434.43
420.937	1440.58
421.145	1487.68
421.353	1631.04
421.561	1614.65
421.769	1731.39
421.977	1727.29
422.185	1803.07
422.393	1780.54
422.601	2040.63
422.809	1876.79
423.017	1983.29
423.224	2110.26
423.432	2233.14
423.64	2059.06
423.848	2345.78
424.056	2186.04
424.263	2358.07
424.471	2362.16
424.679	2401.07
424.887	2665.26
425.094	2741.04
425.302	2683.69
425.51	2685.74
425.718	2825
425.925	2986.79
426.133	2913.06
426.341	3263.27
426.548	3312.42
426.756	3365.67
426.964	3324.71
427.171	3504.93
427.379	3541.79
427.586	3709.72
427.794	3885.85
428.001	3912.47
428.209	4176.66
428.417	4102.93
428.624	4446.99
428.832	4569.87
429.039	4277.01
429.247	4418.32
429.454	4811.53
429.662	4997.9
429.869	4772.62
430.076	5171.97
430.284	4961.03
430.491	5174.02
430.699	5458.69
430.906	5374.72
431.114	5581.57
431.321	5649.15
431.528	5882.62
431.736	6050.55
431.943	6388.47
432.15	6298.36
432.358	6466.29
432.565	6863.6
432.772	6689.52
432.979	7201.51
433.187	7215.85
433.394	7252.71
433.601	7903.96
433.808	7584.48
434.016	7666.4
434.223	7959.26
434.43	8581.84
434.637	8397.53
434.844	8983.24
435.052	9040.59
435.259	8970.96
435.466	9173.71
435.673	8829.65
435.88	9579.2
436.087	10119.87
436.294	10179.26
436.501	9906.88
436.708	10109.63
436.915	10605.24
437.122	10891.95
437.329	10646.19
437.537	10961.58
437.743	11379.37
437.95	11330.22
438.157	11838.11
438.364	12216.99
438.571	12137.12
438.778	12294.81
438.985	13843.07
439.192	12882.58
439.399	13320.84
439.606	13075.09
439.813	13761.16
440.02	14684.79
440.227	14611.06
440.433	14176.89
440.64	14705.27
440.847	14828.15
441.054	15102.57
441.261	15929.95
441.467	15604.33
441.674	16134.75
441.881	16894.55
442.088	16478.81
442.294	16499.29
442.501	17052.24
442.708	17310.29
442.914	17979.97
443.121	18727.48
443.328	18244.16
443.534	19352.11
443.741	19241.52
443.948	18874.93
444.154	20228.64
444.361	20273.7
444.568	20154.91
444.774	19952.16
444.981	20427.29
445.187	20961.81
445.394	21891.59
445.6	21592.59
445.807	23597.55
446.013	22854.14
446.22	23095.8
446.426	24351.2
446.633	24250.85
446.839	25129.43
447.046	23859.69
447.252	25375.19
447.459	25283.03
447.665	25453.01
447.871	26710.46
448.078	27644.34
448.284	26139.08
448.491	27277.75
448.697	27752.88
448.903	28555.68
449.11	29055.39
449.316	28111.27
449.522	28613.02
449.728	29677.97
449.935	29639.06
450.141	29772.18
450.347	30482.82
450.553	29182.36
450.76	29741.46
450.966	30890.37
451.172	30351.75
451.378	31314.3
451.584	30716.29
451.791	31490.42
451.997	31082.88
452.203	31750.51
452.409	31713.65
452.615	31566.2
452.821	30527.88
453.027	30155.15
453.233	31996.27
453.44	30558.6
453.646	31123.83
453.852	30894.46
454.058	31705.46
454.264	30151.05
454.47	31353.21
454.676	29905.29
454.882	31334.78
455.088	28352.93
455.294	28979.61
455.5	29411.73
455.705	29962.64
455.911	28410.28
456.117	27918.76
456.323	27697.58
456.529	26212.81
456.735	27345.33
456.941	26526.14
457.147	26286.53
457.352	25278.93
457.558	25180.63
457.764	25330.13
457.97	24846.81
458.176	24279.52
458.381	24275.43
458.587	22964.73
458.793	23165.43
458.999	22069.76
459.204	23405.04
459.41	22678.01
459.616	21244.43
459.821	21158.42
460.027	21099.03
460.233	20605.47
460.438	19499.56
460.644	19843.62
460.85	18952.76
461.055	19001.91
461.261	18608.7
461.466	17252.94
461.672	16857.68
461.878	17939.01
462.083	16855.64
462.289	16280.16
462.494	16314.97
462.7	15649.38
462.905	15317.61
463.111	15712.87
463.316	15649.38
463.522	15532.65
463.727	15440.49
463.932	15340.14
464.138	15428.2
464.343	15368.81
464.549	15112.81
464.754	15307.37
464.959	15266.41
465.165	15196.78
465.37	14502.52
465.575	13984.38
465.781	14656.12
465.986	14742.13
466.191	14260.86
466.397	13822.59
466.602	13226.64
466.807	13703.81
467.012	13650.57
467.218	13681.28
467.423	13429.38
467.628	13470.34
467.833	14330.49
468.038	13845.12
468.244	13165.2
468.449	13695.62
468.654	13396.62
468.859	13083.28
469.064	13068.94
469.269	12532.37
469.474	12935.82
469.679	13093.52
469.885	12634.77
470.09	12720.79
470.295	12575.38
470.5	12522.13
470.705	12309.15
470.91	12186.27
471.115	12094.11
471.32	12276.38
471.525	12210.84
471.73	11725.47
471.935	11612.84
472.139	11428.52
472.344	11764.39
472.549	11434.66
472.754	11479.72
472.959	11162.28
473.164	10840.75
473.369	10930.86
473.574	10902.19
473.778	10977.97
473.983	10975.92
474.188	10789.55
474.393	10414.77
474.598	10785.46
474.802	10293.94
475.007	10244.79
475.212	10404.53
475.417	9980.61
475.621	9908.93
475.826	9890.49
476.031	9786.05
476.235	9667.27
476.44	9685.7
476.645	9534.15
476.849	9597.63
477.054	9396.93
477.259	9310.92
477.463	9333.45
477.668	8964.81
477.872	9237.19
478.077	8948.43
478.282	8819.41
478.486	8749.78
478.691	8739.54
478.895	8786.64
479.1	8594.13
479.304	8620.75
479.509	8358.61
479.713	8497.88
479.918	8309.46
480.122	8276.7
480.326	8366.81
480.531	8321.75
480.735	8231.64
480.94	8139.48
481.144	8424.15
481.348	8129.24
481.553	8088.28
481.757	7820
481.961	8133.34
482.166	7994.08
482.37	8069.85
482.574	8004.32
482.778	8065.75
482.983	8069.85
483.187	8032.99
483.391	8104.67
483.595	7903.96
483.8	7826.14
484.004	8116.95
484.208	8114.91
484.412	7924.44
484.616	7842.53
484.821	8110.81
485.025	7895.77
485.229	7881.44
485.433	7926.49
485.637	7940.83
485.841	7860.96
486.045	7934.68
486.249	7895.77
486.453	7856.86
486.657	7926.49
486.861	8178.39
487.065	7615.2
487.269	8030.94
487.473	7666.4
487.677	7971.55
487.881	8205.02
488.085	7949.02
488.289	8065.75
488.493	7977.69
488.697	8057.56
488.901	8094.43
489.105	8100.57
489.309	8082.14
489.512	8250.07
489.716	8162.01
489.92	7969.5
490.124	8260.31
490.328	8372.95
490.531	8092.38
490.735	8192.73
490.939	8188.63
491.143	8108.76
491.346	8121.05
491.55	8434.39
491.754	8192.73
491.958	8657.62
492.161	8415.96
492.365	8491.73
492.569	8151.77
492.772	8422.1
492.976	8635.09
493.18	8532.69
493.383	8583.89
493.587	8581.84
493.79	8755.92
493.994	8747.73
494.197	8717.01
494.401	8874.7
494.605	8915.66
494.808	8925.9
495.012	8927.95
495.215	9147.08
495.419	9173.71
495.622	9093.83
495.825	9218.76
496.029	9380.55
496.232	9544.39
496.436	9437.89
496.639	9525.96
496.843	9646.79
497.046	9732.8
497.249	9906.88
497.453	9933.5
497.656	10156.73
497.859	10103.48
498.063	10128.06
498.266	10511.03
498.469	10115.77
498.673	10461.88
498.876	10678.96
499.079	10922.67
499.282	10797.74
499.485	11006.64
499.689	11055.79
499.892	11188.91
500.095	11252.39
500.298	11543.21
500.501	11365.03
500.705	11666.08
500.908	12083.87
501.111	12112.54
501.314	12210.84
501.517	12206.75
501.72	12495.51
501.923	12239.51
502.126	12737.17
502.329	12915.34
502.532	12911.25
502.735	13089.42
502.938	13265.55
503.141	13402.76
503.344	13636.23
503.547	13687.43
503.75	13795.97
503.953	13990.53
504.156	14017.15
504.359	14140.03
504.562	14342.78
504.765	14867.06
504.968	14914.16
505.17	15016.56
505.373	15088.24
505.576	15352.43
505.779	15563.37
505.982	15348.33
506.185	15774.31
506.387	16056.93
506.59	16245.34
506.793	16226.91
506.996	16263.77
507.198	16810.58
507.401	16683.61
507.604	16777.81
507.807	17035.86
508.009	17363.53
508.212	17549.9
508.415	17762.89
508.617	17865.28
508.82	18108.99
509.022	18022.98
509.225	18465.34
509.428	18592.31
509.63	18801.21
509.833	19057.2
510.035	19352.11
510.238	19462.7
510.44	19628.59
510.643	19935.78
510.845	19952.16
511.048	19946.02
511.25	20437.53
511.453	20482.59
511.655	20951.57
511.858	21074.45
512.06	21473.81
512.262	21375.5
512.465	21484.05
512.667	22002.18
512.87	22159.88
513.072	22327.81
513.274	22770.17
513.477	22952.44
513.679	23091.7
513.881	23630.32
514.084	23747.05
514.286	23579.12
514.488	23728.62
514.69	24533.47
514.893	24437.22
515.095	24572.38
515.297	25113.05
515.499	25115.09
515.701	25561.55
515.904	25977.29
516.106	25991.62
516.308	26356.16
516.51	26331.59
516.712	26472.9
516.914	26782.14
517.116	27343.28
517.318	27732.4
517.52	27763.12
517.722	27931.05
517.925	27976.11
518.127	28619.17
518.329	28795.29
518.531	28574.11
518.733	29499.8
518.935	29557.14
519.136	29776.27
519.338	30222.73
519.54	29917.58
519.742	30534.02
519.944	31134.07
520.146	31353.21
520.348	31451.51
520.55	31527.28
520.752	31801.71
520.954	32325.99
521.155	32455.01
521.357	32397.67
521.559	32737.63
521.761	33503.57
521.963	33349.98
522.164	33806.67
522.366	33968.46
522.568	34058.57
522.77	34658.63
522.971	34963.78
523.173	34459.98
523.375	35322.17
523.576	35303.74
523.778	35531.06
523.98	35684.66
524.181	35979.57
524.383	35969.33
524.584	36534.57
524.786	36778.28
524.988	36507.94
525.189	37126.43
525.391	37585.18
525.592	37873.94
525.794	37505.31
525.995	38377.74
526.197	38011.15
526.398	37962
526.6	38414.6
526.801	38703.37
527.003	38848.77
527.204	38629.64
527.406	39026.95
527.607	39373.05
527.808	39366.91
528.01	39362.81
528.211	38992.13
528.412	39901.43
528.614	40087.79
528.815	40147.18
529.016	40476.91
529.218	39745.78
529.419	40208.62
529.62	40438
529.822	40765.67
530.023	40116.47
530.224	40663.27
530.425	40780.01
530.626	40503.53
530.828	40394.99
531.029	41816.28
531.23	40915.17
531.431	40997.09
531.632	41294.05
531.833	41504.99
532.035	41185.5
532.236	41240.8
532.437	41470.17
532.638	41343.2
532.839	41742.55
533.04	41933.01
533.241	41201.89
533.442	42031.32
533.643	41677.02
533.844	41881.81
534.045	41650.39
534.246	41574.62
534.447	42039.51
534.648	41611.48
534.849	42293.46
535.05	41808.09
535.251	41736.41
535.451	42174.67
535.652	41947.35
535.853	42012.88
536.054	42168.53
536.255	41947.35
536.456	41869.53
536.657	42789.06
536.857	42016.98
537.058	41912.53
537.259	42203.35
537.46	42281.17
537.66	42213.59
537.861	42485.97
538.062	41949.4
538.263	42154.19
538.463	41640.15
538.664	42033.36
538.865	42340.56
539.065	42481.87
539.266	41638.11
539.466	42272.98
539.667	41830.62
539.868	42606.8
540.068	42227.92
540.269	41525.47
540.469	42072.28
540.67	41990.36
540.87	42201.3
541.071	42275.02
541.271	42084.56
541.472	42315.98
541.672	42125.52
541.873	42272.98
542.073	41343.2
542.274	42358.99
542.474	41914.58
542.675	41679.07
542.875	42266.83
543.075	41900.25
543.276	41439.45
543.476	42086.61
543.676	41863.38
543.877	41724.12
544.077	41949.4
544.277	42229.97
544.478	42090.71
544.678	42285.26
544.878	42000.6
545.078	41650.39
545.279	41679.07
545.479	41832.66
545.679	42041.56
545.879	41789.66
546.079	41461.98
546.28	41863.38
546.48	41341.15
546.68	42156.24
546.88	41910.49
547.08	41953.49
547.28	41756.89
547.48	41910.49
547.68	42072.28
547.88	41591
548.081	42021.08
548.281	41371.87
548.481	41623.77
548.681	42021.08
548.881	41314.53
549.081	41713.88
549.28	41668.83
549.48	41746.65
549.68	41967.83
549.88	42004.69
550.08	41402.59
550.28	41859.29
550.48	41285.86
550.68	41980.12
550.88	41652.44
551.08	41455.84
551.279	41857.24
551.479	41181.41
551.679	41662.68
551.879	41375.97
552.079	41726.17
552.278	41355.49
552.478	41840.85
552.678	41410.78
552.878	41814.23
553.077	41384.16
553.277	41193.7
553.477	41918.68
553.676	41707.74
553.876	41259.23
554.076	41273.57
554.275	41484.51
554.475	41033.96
554.674	41308.38
554.874	41361.63
555.074	41261.28
555.273	41107.68
555.473	41158.88
555.672	40861.93
555.872	40900.84
556.071	40990.95
556.271	41177.31
556.47	40841.45
556.67	40476.91
556.869	40628.46
557.068	40952.04
557.268	40808.68
557.467	40567.02
557.667	40620.27
557.866	40448.24
558.065	40542.44
558.265	40059.12
558.464	39946.48
558.663	40626.41
558.863	39883
559.062	40458.48
559.261	39692.54
559.461	40526.06
559.66	40038.64
559.859	39768.31
560.058	39323.9
560.258	39686.39
560.457	39428.35
560.656	39778.55
560.855	39463.16
561.054	39776.5
561.253	38969.6
561.453	39244.03
561.652	39653.62
561.851	39393.53
562.05	39321.85
562.249	38639.88
562.448	39344.38
562.647	39037.19
562.846	39239.93
563.045	38807.81
563.244	38617.35
563.443	39028.99
563.642	38185.23
563.841	38439.18
564.04	37998.87
564.239	38344.97
564.438	38248.72
564.637	38508.81
564.836	38052.11
565.035	37716.25
565.234	38254.86
565.432	37712.15
565.631	37421.34
565.83	37566.74
566.029	37519.64
566.228	37298.46
566.427	37400.86
566.625	36929.83
566.824	36823.33
567.023	37050.66
567.222	36516.14
567.42	37165.34
567.619	36892.96
567.818	36614.44
568.016	36223.28
568.215	36827.43
568.414	36415.79
568.612	36466.98
568.811	36102.45
569.01	36102.45
569.208	35680.56
569.407	36049.2
569.605	35389.75
569.804	35823.92
570.002	35703.09
570.201	35993.9
570.4	34980.16
570.598	35211.58
570.797	35039.55
570.995	35260.73
571.193	34718.02
571.392	35260.73
571.59	34728.26
571.789	34410.82
571.987	34478.41
572.186	34156.88
572.384	34328.91
572.582	34478.41
572.781	34083.15
572.979	33943.89
573.177	34074.96
573.376	33628.5
573.574	33544.53
573.772	33894.74
573.971	33446.23
574.169	33126.75
574.367	33352.02
574.565	33460.57
574.763	33368.41
574.962	33063.26
575.16	32792.93
575.358	33069.4
575.556	32629.09
575.754	32874.85
575.952	32606.56
576.151	32751.97
576.349	32145.77
576.547	32231.79
576.745	32303.46
576.943	32455.01
577.141	32477.54
577.339	32051.56
577.537	31904.11
577.735	31770.99
577.933	31527.28
578.131	31811.95
578.329	31140.22
578.527	31361.4
578.725	31277.43
578.923	31252.86
579.121	30990.72
579.319	30884.22
579.516	31000.96
579.714	30808.45
579.912	30718.34
580.11	30685.57
580.308	30757.25
580.506	30566.79
580.704	29680.02
580.901	30441.86
581.099	30157.19
581.297	29905.29
581.495	30196.1
581.692	30435.72
581.89	29602.19
582.088	30081.42
582.285	29763.98
582.483	29868.43
582.681	29522.32
582.878	29251.99
583.076	29153.69
583.274	29190.55
583.471	29112.73
583.669	29309.33
583.866	29194.65
584.064	29065.63
584.262	28559.78
584.459	28903.84
584.657	28813.73
584.854	29088.15
585.052	28223.91
585.249	28461.48
585.447	28273.06
585.644	28275.11
585.841	28203.43
586.039	28494.24
586.236	28178.86
586.434	27726.25
586.631	27728.3
586.828	27503.03
587.026	27756.97
587.223	28027.31
587.42	27668.91
587.618	27668.91
587.815	27322.8
588.012	27042.23
588.21	27068.86
588.407	27543.99
588.604	26966.46
588.801	26755.52
588.999	26900.92
589.196	26741.18
589.393	26399.17
589.59	26474.95
589.787	26835.39
589.984	26276.29
590.182	26386.88
590.379	26421.7
590.576	26225.09
590.773	26118.6
590.97	25907.66
591.167	26286.53
591.364	25604.56
591.561	26036.68
591.758	26083.78
591.955	25864.65
592.152	25973.19
592.349	25604.56
592.546	25518.54
592.743	25512.4
592.94	24984.02
593.137	25287.12
593.334	25350.61
593.531	24756.7
593.727	25192.92
593.924	25000.41
594.121	24891.87
594.318	24967.64
594.515	24408.54
594.712	25000.41
594.908	24670.68
595.105	24861.15
595.302	24224.23
595.499	24570.33
595.696	24365.54
595.892	24297.95
596.089	24443.36
596.286	24048.1
596.482	24146.4
596.679	23888.36
596.876	23945.7
597.072	23888.36
597.269	23650.8
597.466	23505.39
597.662	23749.1
597.859	23570.93
598.055	23579.12
598.252	23513.58
598.448	23280.11
598.645	23454.19
598.841	23159.28
599.038	23321.07
599.234	23235.06
599.431	22858.23
599.627	23091.7
599.824	23142.9
600.02	22878.71
600.217	22856.18
600.413	22538.75
600.609	22475.26
600.806	22532.61
601.002	22628.86
601.198	22389.25
601.395	22204.93
601.591	22202.88
601.787	22227.46
601.984	22100.48
602.18	22231.55
602.376	22049.28
602.572	21830.15
602.769	22139.4
602.965	21643.79
603.161	21787.14
603.357	21641.74
603.553	21633.55
603.75	21482
603.946	21379.6
604.142	21453.33
604.338	21082.64
604.534	21152.27
604.73	21066.26
604.926	20812.31
605.122	21168.66
605.318	20972.05
605.514	20847.13
605.71	20853.27
605.906	20685.34
606.102	20918.81
606.298	20877.85
606.494	20568.6
606.69	20474.4
606.886	20711.96
607.082	20062.76
607.278	20443.68
607.474	20169.25
607.67	20281.89
607.866	20214.3
608.062	20232.74
608.257	19999.27
608.453	20263.46
608.649	20171.3
608.845	19726.89
609.041	19880.49
609.236	19759.66
609.432	19776.04
609.628	19995.17
609.824	19634.73
610.019	19518
610.215	19790.38
610.411	19544.62
610.606	19370.54
610.802	19593.77
610.998	19327.53
611.193	19380.78
611.389	19317.29
611.584	19190.32
611.78	19241.52
611.976	19190.32
612.171	19280.43
612.367	19110.45
612.562	19079.73
612.758	18903.6
612.953	18762.3
613.149	19008.05
613.344	19153.46
613.539	19032.63
613.735	19112.5
613.93	18989.62
614.126	18741.82
614.321	18987.57
614.517	18946.61
614.712	18770.49
614.907	18541.11
615.103	18577.98
615.298	18596.41
615.493	18528.83
615.688	18256.45
615.884	18590.27
616.079	18344.51
616.274	18520.63
616.47	18309.69
616.665	18356.8
616.86	18408
617.055	18268.73
617.25	17986.11
617.445	18174.53
617.641	17957.44
617.836	18186.82
618.031	17695.3
618.226	18068.03
618.421	17883.72
618.616	18092.61
618.811	17519.18
619.006	17934.92
619.201	17644.1
619.396	17398.35
619.591	17443.4
619.786	17803.85
619.981	17218.13
620.176	17478.22
620.371	17021.52
620.566	17011.28
620.761	17119.82
620.956	17117.78
621.151	16833.11
621.346	16978.51
621.541	16708.18
621.735	16708.18
621.93	16466.52
622.125	16679.51
622.32	16188
622.515	16390.75
622.709	16298.59
622.904	16202.33
623.099	16278.11
623.294	16116.32
623.488	15895.14
623.683	15954.53
623.878	15886.95
624.072	15739.49
624.267	15786.6
624.462	15522.41
624.656	15518.31
624.851	15440.49
625.046	15252.08
625.24	15272.56
625.435	15118.96
625.629	14983.79
625.824	14983.79
626.018	15092.34
626.213	14885.49
626.407	14602.87
626.602	14410.36
626.796	14561.91
626.991	14373.5
627.185	14422.65
627.38	14338.68
627.574	14058.11
627.768	14119.55
627.963	14023.3
628.157	14015.1
628.352	13939.33
628.546	13843.07
628.74	13884.03
628.935	13720.2
629.129	13714.05
629.323	13406.86
629.517	13398.66
629.712	13636.23
629.906	13400.71
630.1	13144.72
630.294	13300.36
630.489	13011.6
630.683	13204.11
630.877	12800.66
631.071	13017.74
631.265	12841.62
631.459	12751.51
631.653	12673.68
631.848	12771.99
632.042	12432.02
632.236	12520.09
632.43	12526.23
632.624	12520.09
632.818	12348.06
633.012	12446.36
633.206	12110.49
633.4	12018.33
633.594	12047.01
633.788	12042.91
633.982	11874.98
634.176	11920.03
634.369	12098.2
634.563	11823.78
634.757	11674.28
634.951	11627.17
635.145	11782.82
635.339	11362.98
635.533	11446.95
635.726	11481.77
635.92	11322.02
636.114	11332.26
636.308	11236.01
636.501	11059.88
636.695	11213.48
636.889	10990.25
637.083	10996.4
637.276	10830.51
637.47	10875.57
637.664	10574.52
637.857	10912.43
638.051	10746.55
638.244	10787.5
638.438	10701.49
638.632	10511.03
638.825	10441.4
639.019	10271.42
639.212	10195.64
639.406	10279.61
639.599	10386.1
639.793	10150.59
639.986	10007.23
640.18	10019.52
640.373	9820.86
640.567	9738.94
640.76	9943.74
640.954	9878.21
641.147	9792.19
641.34	9380.55
641.534	9634.5
641.727	9718.47
641.92	9605.83
642.114	9472.71
642.307	9734.85
642.5	9571.01
642.694	9374.41
642.887	9427.65
643.08	9419.46
643.273	9216.71
643.467	9136.84
643.66	8999.63
643.853	9095.88
644.046	9009.87
644.239	9091.79
644.432	8864.46
644.626	8903.37
644.819	8760.02
645.012	9032.4
645.205	8762.06
645.398	8723.15
645.591	8714.96
645.784	8387.29
645.977	8375
646.17	8633.04
646.363	8344.28
646.556	8202.97
646.749	8549.07
646.942	8575.7
647.135	8243.93
647.328	8209.11
647.521	8311.51
647.714	8039.13
647.907	8067.8
648.099	8004.32
648.292	7955.16
648.485	8194.78
648.678	7789.28
648.871	7756.51
649.064	7895.77
649.256	7953.12
649.449	7813.85
649.642	7899.87
649.835	7467.75
650.027	7559.91
650.22	7525.09
650.413	7701.22
650.605	7455.46
650.798	7557.86
650.991	7410.4
651.183	7361.25
651.376	7441.12
651.568	7537.38
651.761	7236.33
651.954	7297.77
652.146	7396.07
652.339	7146.22
652.531	7144.17
652.724	7090.92
652.916	7047.91
653.109	7099.11
653.301	6978.28
653.494	6902.51
653.686	6851.31
653.879	6814.45
654.071	6857.45
654.263	6699.76
654.456	6769.39
654.648	6865.64
654.84	6755.05
655.033	6591.22
655.225	6494.96
655.417	6488.82
655.61	6621.94
655.802	6535.92
655.994	6499.06
656.186	6605.55
656.379	6533.87
656.571	6462.19
656.763	6337.27
656.955	6423.28
657.148	6202.1
657.34	6230.77
657.532	6136.57
657.724	6265.59
657.916	6083.32
658.108	6216.44
658.3	6228.73
658.492	6077.18
658.684	6081.27
658.876	6028.03
659.068	5929.72
659.26	5927.67
659.452	6056.7
659.644	5913.34
659.836	5681.92
660.028	5845.76
660.22	5798.65
660.412	5786.37
660.604	5741.31
660.796	5810.94
660.988	5831.42
661.18	5530.37
661.372	5595.9
661.563	5530.37
661.755	5563.14
661.947	5638.91
662.139	5587.71
662.331	5475.07
662.522	5344
662.714	5499.65
662.906	5397.25
663.097	5614.34
663.289	5460.74
663.481	5364.48
663.673	5274.37
663.864	5370.63
664.056	5120.78
664.247	5270.28
664.439	5370.63
664.631	5135.11
664.822	5098.25
665.014	5118.73
665.205	5040.9
665.397	5042.95
665.588	5069.58
665.78	5245.7
665.971	5229.32
666.163	5112.58
666.354	5161.73
666.546	4975.37
666.737	4926.22
666.929	4936.46
667.12	5028.62
667.311	4780.81
667.503	4895.5
667.694	4909.83
667.885	4944.65
668.077	4858.64
668.268	4772.62
668.459	4920.07
668.651	4848.4
668.842	4897.55
669.033	4729.61
669.224	4731.66
669.416	4719.37
669.607	4711.18
669.798	4754.19
669.989	4610.83
670.18	4641.55
670.371	4553.49
670.563	4590.35
670.754	4649.74
670.945	4621.07
671.136	4623.12
671.327	4571.92
671.518	4621.07
671.709	4571.92
671.9	4707.09
672.091	4455.19
672.282	4389.65
672.473	4422.42
672.664	4508.43
672.855	4424.47
673.046	4719.37
673.237	4446.99
673.428	4463.38
673.619	4385.55
673.809	4373.27
674	4401.94
674.191	4328.21
674.382	4395.79
674.573	4242.2
674.764	4279.06
674.954	4377.36
675.145	4281.11
675.336	4326.16
675.527	4344.6
675.717	4301.59
675.908	4260.63
676.099	4154.13
676.289	4141.85
676.48	4320.02
676.671	4291.35
676.861	4346.64
677.052	4252.44
677.243	4496.14
677.433	4205.33
677.624	4100.89
677.814	4324.12
678.005	4268.82
678.195	4254.48
678.386	4178.71
678.576	4193.05
678.767	4154.13
678.957	4334.36
679.148	4152.09
679.338	4221.72
679.529	4236.05
679.719	4164.37
679.909	4195.09
680.1	4281.11
680.29	4051.74
680.481	4197.14
680.671	4084.5
680.861	4086.55
681.052	4254.48
681.242	4184.85
681.432	4207.38
681.622	4129.56
681.813	4176.66
682.003	4127.51
682.193	4096.79
682.383	4236.05
682.573	4234
682.764	4125.46
682.954	4191
683.144	4113.17
683.334	4084.5
683.524	4203.29
683.714	4109.08
683.904	4102.93
684.094	4098.84
684.284	4166.42
684.474	4137.75
684.664	4098.84
684.854	4068.12
685.044	4057.88
685.234	3951.39
685.424	3994.39
685.614	4014.87
685.804	4066.07
685.994	3943.19
686.184	3949.34
686.374	4057.88
686.564	3887.9
686.753	3902.23
686.943	3793.69
687.133	3930.91
687.323	3834.65
687.513	3861.27
687.702	4004.63
687.892	3756.83
688.082	3900.19
688.272	3988.25
688.461	3894.04
688.651	3808.03
688.841	3791.64
689.03	3769.12
689.22	3820.32
689.41	3793.69
689.599	3795.74
689.789	3744.54
689.979	3636
690.168	3623.71
690.358	3482.4
690.547	3715.87
690.737	3547.94
690.926	3586.85
691.116	3461.92
691.305	3650.33
691.495	3529.5
691.684	3498.78
691.874	3482.4
692.063	3509.02
692.252	3605.28
692.442	3560.22
692.631	3433.25
692.82	3447.58
693.01	3580.7
693.199	3425.06
693.388	3308.32
693.578	3437.34
693.767	3466.02
693.956	3332.9
694.146	3359.52
694.335	3365.67
694.524	3404.58
694.713	3343.14
694.902	3420.96
695.092	3336.99
695.281	3234.6
695.47	3285.8
695.659	3263.27
695.848	3289.89
696.037	3253.03
696.226	3324.71
696.415	3238.69
696.604	3332.9
696.793	3156.77
696.982	3152.68
697.171	3224.36
697.36	3238.69
697.549	3220.26
697.738	3207.97
697.927	3169.06
698.116	3001.13
698.305	3189.54
698.494	3179.3
698.683	3136.29
698.872	3115.81
699.061	3037.99
699.25	3259.17
699.438	3121.96
699.627	3078.95
699.816	3240.74
700.005	3193.64
700.193	3115.81
700.382	3113.77
700.571	3091.24
700.76	3113.77
700.948	3111.72
701.137	3212.07
701.326	3156.77
701.514	3220.26
701.703	3101.48
701.892	3234.6
702.08	3259.17
702.269	3115.81
702.457	3238.69
702.646	3148.58
702.834	3203.88
703.023	3134.25
703.212	3076.9
703.4	3136.29
703.589	3074.85
703.777	3179.3
703.965	3150.63
704.154	3121.96
704.342	3011.37
704.531	3066.66
704.719	3058.47
704.907	3195.68
705.096	3062.57
705.284	3164.97
705.472	3046.18
705.661	3072.81
705.849	3253.03
706.037	3105.57
706.226	3105.57
706.414	3050.28
706.602	3078.95
706.79	3128.1
706.979	3048.23
707.167	3126.05
707.355	3103.53
707.543	3146.53
707.731	3136.29
707.919	3154.73
708.107	3078.95
708.296	3078.95
708.484	2992.94
708.672	3250.98
708.86	3183.4
709.048	3304.23
709.236	3224.36
709.424	3222.31
709.612	3134.25
709.8	3117.86
709.988	3173.16
710.176	3203.88
710.364	3064.61
710.551	3156.77
710.739	3212.07
710.927	3236.64
711.115	3177.25
711.303	3210.02
711.491	3203.88
711.679	3228.45
711.866	3117.86
712.054	3185.44
712.242	3128.1
712.43	3242.79
712.617	3293.99
712.805	3277.6
712.993	3142.44
713.181	3124.01
713.368	3205.92
713.556	3318.56
713.744	3183.4
713.931	3369.76
714.119	3287.84
714.306	3304.23
714.494	3246.88
714.682	3334.95
714.869	3152.68
715.057	3234.6
715.244	3259.17
715.432	3283.75
715.619	3175.2
715.807	3285.8
715.994	3283.75
716.182	3214.12
716.369	3296.04
716.556	3300.13
716.744	3199.78
716.931	3336.99
717.119	3418.91
717.306	3261.22
717.493	3281.7
717.681	3250.98
717.868	3349.28
718.055	3371.81
718.242	3320.61
718.43	3435.3
718.617	3408.67
718.804	3373.86
718.991	3365.67
719.179	3339.04
719.366	3359.52
719.553	3351.33
719.74	3453.73
719.927	3437.34
720.114	3330.85
720.301	3453.73
720.488	3357.47
720.676	3222.31
720.863	3466.02
721.05	3400.48
721.237	3343.14
721.424	3429.15
721.611	3392.29
721.798	3312.42
721.985	3490.59
722.172	3556.13
722.358	3377.95
722.545	3545.89
722.732	3339.04
722.919	3388.19
723.106	3506.98
723.293	3531.55
723.48	3498.78
723.667	3441.44
723.853	3345.19
724.04	3588.89
724.227	3392.29
724.414	3472.16
724.6	3437.34
724.787	3511.07
724.974	3439.39
725.161	3398.43
725.347	3394.34
725.534	3552.03
725.72	3605.28
725.907	3463.97
726.094	3472.16
726.28	3445.54
726.467	3527.46
726.653	3570.46
726.84	3613.47
727.027	3672.86
727.213	3502.88
727.4	3558.18
727.586	3539.74
727.773	3558.18
727.959	3572.51
728.145	3554.08
728.332	3535.65
728.518	3560.22
728.705	3513.12
728.891	3519.26
729.077	3468.06
729.264	3521.31
729.45	3644.19
729.636	3646.24
729.823	3535.65
730.009	3803.93
730.195	3543.84
730.382	3730.2
730.568	3459.87
730.754	3623.71
730.94	3662.62
731.126	3564.32
731.313	3685.15
731.499	3488.54
731.685	3679.01
731.871	3613.47
732.057	3572.51
732.243	3537.7
732.429	3799.84
732.615	3654.43
732.801	3779.36
732.987	3699.48
733.173	3631.9
733.359	3636
733.545	3664.67
733.731	3629.85
733.917	3744.54
734.103	3664.67
734.289	3756.83
734.475	3689.25
734.661	3828.51
734.847	3689.25
735.033	3738.4
735.219	3654.43
735.404	3638.05
735.59	3814.17
735.776	3644.19
735.962	3545.89
736.148	3846.94
736.333	3826.46
736.519	3722.01
736.705	3674.91
736.89	3713.82
737.076	3590.94
737.262	3685.15
737.447	3629.85
737.633	3715.87
737.819	3615.52
738.004	3650.33
738.19	3527.46
738.375	3758.88
738.561	3697.44
738.747	3646.24
738.932	3762.97
739.118	3664.67
739.303	3605.28
739.489	3511.07
739.674	3676.96
739.859	3687.2
740.045	3586.85
740.23	3625.76
740.416	3500.83
740.601	3681.05
740.786	3648.29
740.972	3576.61
741.157	3521.31
741.342	3433.25
741.528	3564.32
741.713	3418.91
741.898	3484.45
742.084	3592.99
742.269	3527.46
742.454	3515.17
742.639	3631.9
742.824	3470.11
743.01	3527.46
743.195	3443.49
743.38	3420.96
743.565	3496.74
743.75	3334.95
743.935	3382.05
744.12	3517.22
744.305	3345.19
744.49	3410.72
744.675	3349.28
744.86	3341.09
745.045	3355.43
745.23	3187.49
745.415	3220.26
745.6	3437.34
745.785	3236.64
745.97	3310.37
746.155	3271.46
746.34	3250.98
746.525	3214.12
746.71	3287.84
746.895	3244.84
747.079	3081
747.264	3033.9
747.449	3158.82
747.634	3210.02
747.819	3062.57
748.003	3070.76
748.188	3072.81
748.373	3093.29
748.557	2949.93
748.742	3142.44
748.927	2876.2
749.111	2960.17
749.296	2974.5
749.481	2874.15
749.665	2917.16
749.85	2820.91
750.034	2917.16
750.219	2900.78
750.404	2958.12
750.588	2859.82
750.773	2798.38
750.957	2820.91
751.141	2831.15
751.326	2763.56
751.51	2792.23
751.695	2751.28
751.879	2837.29
752.064	2675.5
752.248	2648.88
752.432	2683.69
752.617	2663.21
752.801	2558.77
752.985	2485.04
753.17	2526
753.354	2530.09
753.538	2450.22
753.722	2587.44
753.907	2587.44
754.091	2390.83
754.275	2526
754.459	2558.77
754.643	2358.07
754.828	2409.26
755.012	2433.84
755.196	2448.18
755.38	2462.51
755.564	2308.91
755.748	2419.5
755.932	2374.45
756.116	2353.97
756.3	2378.55
756.484	2212.66
756.668	2251.57
756.852	2280.24
757.036	2272.05
757.22	2253.62
757.404	2224.95
757.588	2175.8
757.772	2110.26
757.956	2306.87
758.14	2175.8
758.323	2046.77
758.507	2169.65
758.691	2071.35
758.875	2214.71
759.059	2067.25
759.242	2210.61
759.426	2052.92
759.61	2091.83
759.794	1975.1
759.977	2143.03
760.161	2104.12
760.345	2130.74
760.528	1975.1
760.712	2007.86
760.895	2065.21
761.079	1950.52
761.263	1813.31
761.446	1927.99
761.63	1932.09
761.813	1989.43
761.997	1913.66
762.18	1956.66
762.364	1866.55
762.547	1981.24
762.731	1954.62
762.914	1940.28
763.098	1790.78
763.281	1841.98
763.464	1909.56
763.648	1850.17
763.831	1766.2
764.015	1809.21
764.198	1841.98
764.381	1829.69
764.564	1831.74
764.748	1835.83
764.931	1694.52
765.114	1760.06
765.297	1737.53
765.481	1692.48
765.664	1710.91
765.847	1745.72
766.03	1760.06
766.213	1647.42
766.397	1745.72
766.58	1678.14
766.763	1758.01
766.946	1684.28
767.129	1653.56
767.312	1649.47
767.495	1653.56
767.678	1520.45
767.861	1594.17
768.044	1676.09
768.227	1690.43
768.41	1655.61
768.593	1598.27
768.776	1620.8
768.959	1653.56
769.142	1665.85
769.324	1518.4
769.507	1581.89
769.69	1596.22
769.873	1653.56
770.056	1610.56
770.239	1581.89
770.421	1608.51
770.604	1606.46
770.787	1475.39
770.97	1514.3
771.152	1545.02
771.335	1444.67
771.518	1432.38
771.7	1536.83
771.883	1487.68
772.066	1495.87
772.248	1313.6
772.431	1418.05
772.613	1364.8
772.796	1399.62
772.978	1342.27
773.161	1444.67
773.343	1352.51
773.526	1432.38
773.708	1383.23
773.891	1278.79
774.073	1366.85
774.256	1309.51
774.438	1307.46
774.621	1315.65
774.803	1340.22
774.985	1282.88
775.168	1368.9
775.35	1344.32
775.532	1289.03
775.715	1190.72
775.897	1252.16
776.079	1350.46
776.261	1243.97
776.444	1309.51
776.626	1272.64
776.808	1180.48
776.99	1178.44
777.173	1268.55
777.355	1196.87
777.537	1213.25
777.719	1098.56
777.901	1133.38
778.083	1264.45
778.265	1106.76
778.447	1205.06
778.629	1076.04
778.811	1162.05
778.993	1117
779.175	1127.24
779.357	1106.76
779.539	965.45
779.721	1092.42
779.903	1047.37
780.085	1061.7
780.267	1055.56
780.449	1033.03
780.631	969.54
780.812	1055.56
780.994	1016.65
781.176	987.97
781.358	1022.79
781.54	895.82
781.721	953.16
781.903	1076.04
782.085	926.54
782.267	861
782.448	861
782.63	977.73
782.812	1030.98
782.993	852.81
783.175	865.1
783.357	865.1
783.538	910.15
783.72	795.47
783.901	897.86
784.083	858.95
784.264	908.1
784.446	856.9
784.627	830.28
784.809	871.24
784.99	791.37
785.172	789.32
785.353	850.76
785.535	754.51
785.716	768.84
785.897	793.42
786.079	801.61
786.26	734.03
786.441	815.94
786.623	693.07
786.804	686.92
786.985	697.16
787.167	686.92
787.348	760.65
787.529	686.92
787.71	709.45
787.891	652.11
788.073	668.49
788.254	643.92
788.435	791.37
788.616	705.35
788.797	643.92
788.978	635.72
789.159	674.64
789.34	643.92
789.522	594.76
789.703	617.29
789.884	729.93
790.065	711.5
790.246	648.01
790.427	615.24
790.607	678.73
790.788	650.06
790.969	521.04
791.15	695.11
791.331	650.06
791.512	691.02
791.693	572.24
791.874	660.3
792.054	631.63
792.235	580.43
792.416	555.85
792.597	609.1
792.778	600.91
792.958	566.09
793.139	576.33
793.32	559.95
793.5	564.04
793.681	490.32
793.862	631.63
794.042	539.47
794.223	541.52
794.404	475.98
794.584	568.14
794.765	482.13
794.945	492.37
795.126	490.32
795.306	602.96
795.487	441.17
795.667	514.89
795.848	543.57
796.028	490.32
796.209	469.84
796.389	592.72
796.57	555.85
796.75	523.09
796.93	469.84
797.111	486.22
797.291	494.41
797.471	424.78
797.652	441.17
797.832	424.78
798.012	514.89
798.192	422.73
798.373	432.97
798.553	457.55
798.733	510.8
798.913	457.55
799.093	408.4
799.274	451.41
799.454	471.89
799.634	408.4
799.814	430.93
799.994	359.25
800.174	467.79
800.354	408.4
800.534	498.51
800.714	383.82
800.894	373.58
801.074	385.87
801.254	387.92
801.434	432.97
801.614	412.5
801.794	312.14
801.974	1127.24
802.154	342.86
802.334	422.73
802.514	365.39
802.693	301.9
802.873	416.59
803.053	435.02
803.233	365.39
803.413	414.54
803.592	332.62
803.772	326.48
803.952	416.59
804.131	359.25
804.311	420.69
804.491	404.3
804.67	408.4
804.85	310.1
805.03	392.02
805.209	418.64
805.389	324.43
805.568	336.72
805.748	310.1
805.928	387.92
806.107	359.25
806.287	359.25
806.466	361.3
806.646	336.72
806.825	334.67
807.004	287.57
807.184	359.25
807.363	346.96
807.543	418.64
807.722	306
807.901	322.38
808.081	279.38
808.26	299.86
808.439	326.48
808.619	299.86
808.798	316.24
808.977	303.95
809.156	310.1
809.336	312.14
809.515	318.29
809.694	265.04
809.873	234.32
810.052	291.66
810.231	236.37
810.411	273.23
810.59	285.52
810.769	256.85
810.948	281.43
811.127	185.17
811.306	262.99
811.485	310.1
811.664	369.49
811.843	217.94
812.022	293.71
812.201	342.86
812.38	248.66
812.559	230.23
812.737	262.99
812.916	269.14
813.095	215.89
813.274	287.57
813.453	301.9
813.632	197.46
813.811	387.92
813.989	230.23
814.168	183.12
814.347	215.89
814.526	250.71
814.704	215.89
814.883	265.04
815.062	230.23
815.24	258.9
815.419	275.28
815.598	283.47
815.776	160.59
815.955	349.01
816.133	183.12
816.312	252.75
816.49	219.99
816.669	195.41
816.847	260.95
817.026	295.76
817.204	228.18
817.383	166.74
817.561	156.5
817.74	183.12
817.918	244.56
818.097	224.08
818.275	197.46
818.453	244.56
818.632	191.31
818.81	211.79
818.988	144.21
819.167	193.36
819.345	316.24
819.523	228.18
819.701	226.13
819.879	201.55
820.058	191.31
820.236	207.7
820.414	367.44
820.592	209.75
820.77	260.95
820.948	244.56
821.127	226.13
821.305	168.79
821.483	213.84
821.661	172.88
821.839	226.13
822.017	185.17
822.195	129.88
822.373	168.79
822.551	115.54
822.729	209.75
822.907	168.79
823.085	142.16
823.262	213.84
823.44	156.5
823.618	125.78
823.796	207.7
823.974	197.46
824.152	127.83
824.329	185.17
824.507	179.03
824.685	117.59
824.863	211.79
825.04	254.8
825.218	195.41
825.396	162.64
825.574	142.16
825.751	267.09
825.929	185.17
826.107	133.97
826.284	154.45
826.462	226.13
826.639	131.92
826.817	140.12
826.994	162.64
827.172	160.59
827.349	213.84
827.527	162.64
827.704	136.02
827.882	146.26
828.059	166.74
828.237	90.96
828.414	213.84
828.591	84.82
828.769	93.01
828.946	84.82
829.124	234.32
829.301	209.75
829.478	97.11
829.655	142.16
829.833	160.59
830.01	97.11
830.187	146.26
830.364	181.07
830.542	86.87
830.719	168.79
830.896	146.26
831.073	117.59
831.25	105.3
831.427	142.16
831.604	144.21
831.782	127.83
831.959	95.06
832.136	27.48
832.313	152.4
832.49	82.77
832.667	62.29
832.844	140.12
833.021	203.6
833.198	148.31
833.374	105.3
833.551	45.91
833.728	105.3
833.905	121.68
834.082	41.81
834.259	127.83
834.436	76.63
834.612	144.21
834.789	148.31
834.966	117.59
835.143	129.88
835.319	74.58
835.496	195.41
835.673	162.64
835.85	64.34
836.026	142.16
836.203	76.63
836.38	144.21
836.556	47.96
836.733	101.2
836.909	162.64
837.086	31.57
837.262	27.48
837.439	129.88
837.616	138.07
837.792	41.81
837.968	131.92
838.145	117.59
838.321	76.63
838.498	68.44
838.674	138.07
838.851	146.26
839.027	95.06
839.203	140.12
839.38	183.12
839.556	107.35
839.732	136.02
839.909	131.92
840.085	168.79
840.261	54.1
840.437	152.4
840.614	84.82
840.79	136.02
840.966	160.59
841.142	133.97
841.318	86.87
841.494	144.21
841.671	142.16
841.847	86.87
842.023	66.39
842.199	154.45
842.375	131.92
842.551	62.29
842.727	47.96
842.903	111.44
843.079	105.3
843.255	156.5
843.431	45.91
843.607	43.86
843.783	-56.49
843.959	56.15
844.134	72.53
844.31	144.21
844.486	43.86
844.662	97.11
844.838	-3.24
845.013	56.15
845.189	72.53
845.365	25.43
845.541	25.43
845.716	82.77
845.892	62.29
846.068	52.05
846.244	86.87
846.419	101.2
846.595	105.3
846.77	27.48
846.946	72.53
847.122	39.76
847.297	47.96
847.473	140.12
847.648	-7.34
847.824	103.25
847.999	37.72
848.175	107.35
848.35	37.72
848.526	129.88
848.701	86.87
848.876	90.96
849.052	62.29
849.227	50
849.403	72.53
849.578	54.1
849.753	86.87
849.929	74.58
850.104	66.39
850.279	47.96
850.454	82.77
850.63	27.48
850.805	58.2
850.98	103.25
851.155	82.77
851.33	17.24
851.505	-25.77
851.681	84.82
851.856	125.78
852.031	66.39
852.206	64.34
852.381	19.29
852.556	133.97
852.731	70.48
852.906	60.24
853.081	56.15
853.256	72.53
853.431	74.58
853.606	35.67
853.781	23.38
853.956	47.96
854.131	72.53
854.305	13.14
854.48	25.43
854.655	-19.63
854.83	31.57
855.005	21.33
855.18	82.77
855.354	27.48
855.529	33.62
855.704	78.68
855.879	95.06
856.053	2.9
856.228	86.87
856.403	15.19
856.577	43.86
856.752	4.95
856.926	107.35
857.101	123.73
857.276	23.38
857.45	41.81
857.625	56.15
857.799	-11.43
857.974	-15.53
858.148	-36.01
858.323	33.62
858.497	39.76
858.672	74.58
858.846	-50.35
859.02	0.85
859.195	15.19
859.369	7
859.543	93.01
859.718	37.72
859.892	103.25
860.066	88.92
860.241	-29.87
860.415	43.86
860.589	95.06
860.763	-7.34
860.938	-46.25
861.112	-15.53
861.286	76.63
861.46	74.58
861.634	23.38
861.808	80.72
861.982	39.76
862.157	31.57
862.331	-1.19
862.505	97.11
862.679	-9.39
862.853	37.72
863.027	11.09
863.201	129.88
863.375	107.35
863.549	31.57
863.722	33.62
863.896	41.81
864.07	54.1
864.244	82.77
864.418	121.68
864.592	45.91
864.766	-23.72
864.939	39.76
865.113	84.82
865.287	56.15
865.461	0.85
865.634	13.14
865.808	43.86
865.982	43.86
866.156	-3.24
866.329	41.81
866.503	-38.06
866.676	78.68
866.85	86.87
867.024	19.29
867.197	45.91
867.371	29.52
867.544	23.38
867.718	23.38
867.891	52.05
868.065	23.38
868.238	-38.06
868.412	99.16
868.585	7
868.759	-7.34
868.932	56.15
869.105	-1.19
869.279	13.14
869.452	43.86
869.625	50
869.799	-23.72
869.972	7
870.145	72.53
870.319	15.19
870.492	43.86
870.665	54.1
870.838	-64.68
871.011	-13.48
871.185	-13.48
871.358	17.24
871.531	41.81
871.704	-38.06
871.877	41.81
872.05	0.85
872.223	19.29
872.396	103.25
872.569	97.11
872.742	-5.29
872.915	52.05
873.088	7
873.261	25.43
873.434	21.33
873.607	25.43
873.78	-7.34
873.953	-25.77
874.126	31.57
874.299	103.25
874.471	50
874.644	-5.29
874.817	31.57
874.99	123.73
875.163	9.05
875.335	58.2
875.508	23.38
875.681	11.09
875.853	-27.82
876.026	56.15
876.199	41.81
876.371	35.67
876.544	-54.44
876.717	52.05
876.889	11.09
877.062	4.95
877.234	-17.58
877.407	-15.53
877.579	23.38
877.752	-17.58
877.924	62.29
878.097	60.24
878.269	4.95
878.442	109.4
878.614	-7.34
878.786	4.95
878.959	-19.63
879.131	54.1
879.303	-5.29
879.476	-31.91
879.648	17.24
879.82	19.29
879.993	-27.82
880.165	-5.29
880.337	-54.44
880.509	33.62
880.681	47.96
880.854	-38.06
881.026	19.29
881.198	123.73
881.37	11.09
881.542	9.05
881.714	52.05
881.886	-11.43
882.058	-27.82
882.23	-64.68
882.402	7
882.574	29.52
882.746	-19.63
882.918	78.68
883.09	41.81
883.262	54.1
883.434	4.95
883.606	-40.11
883.778	31.57
883.95	52.05
884.122	39.76
884.293	4.95
884.465	21.33
884.637	93.01
884.809	-23.72
884.98	11.09
885.152	72.53
885.324	35.67
885.496	-17.58
885.667	4.95
885.839	41.81
886.011	62.29
886.182	50
886.354	64.34
886.525	-27.82
886.697	-27.82
886.869	-5.29
887.04	43.86
887.212	97.11
887.383	31.57
887.555	68.44
887.726	19.29
887.897	41.81
888.069	68.44
888.24	39.76
888.412	-27.82
888.583	-7.34
888.754	-27.82
888.926	13.14
889.097	76.63
889.268	27.48
889.44	52.05
889.611	-91.31
889.782	13.14
889.953	-9.39
890.125	31.57
890.296	-3.24
890.467	47.96
890.638	-25.77
890.809	4.95
890.98	-23.72
891.151	54.1
891.323	31.57
891.494	105.3
891.665	39.76
891.836	39.76
892.007	17.24
892.178	-3.24
892.349	31.57
892.52	31.57
892.691	31.57
892.862	-7.34
893.032	-15.53
893.203	31.57
893.374	-7.34
893.545	43.86
893.716	2.9
893.887	58.2
894.057	-9.39
894.228	25.43
894.399	-70.83
894.57	25.43
894.74	-15.53
894.911	86.87
895.082	-38.06
895.253	56.15
895.423	4.95
895.594	17.24
895.764	13.14
895.935	-62.63
896.106	2.9
896.276	-23.72
896.447	-27.82
896.617	-74.92
896.788	-1.19
896.958	-50.35
897.129	-60.59
897.299	-81.07
897.47	66.39
897.64	45.91
897.81	88.92
897.981	11.09
898.151	-44.2
898.322	-21.67
898.492	-5.29
898.662	31.57
898.832	27.48
899.003	-56.49
899.173	4.95
899.343	-33.96
899.513	-25.77
