Data from USB4F104151__37__12-23-48-449.txt Node

Date: Fri Mar 14 12:23:48 EDT 2025
User: louis
Spectrometer: USB4F10415
Trigger mode: 4
Integration Time (sec): 3.500000E-2
Scans to average: 1
Electric dark correction enabled: true
Nonlinearity correction enabled: false
Boxcar width: 0
XAxis mode: Wavelengths
Number of Pixels in Spectrum: 3648
>>>>>Begin Spectral Data<<<<<
178.204	-90.11
178.424	-90.11
178.644	-90.11
178.864	-137.21
179.084	-116.73
179.304	-22.53
179.524	-63.49
179.744	22.53
179.964	38.91
180.184	4.1
180.404	8.19
180.624	-8.19
180.844	2.05
181.064	2.05
181.283	-26.62
181.503	65.53
181.723	-22.53
181.943	-59.39
182.163	86.01
182.383	-2.05
182.602	28.67
182.822	75.77
183.042	-12.29
183.262	22.53
183.482	53.25
183.701	-40.96
183.921	-12.29
184.141	-36.86
184.361	10.24
184.58	-65.54
184.8	49.15
185.02	18.43
185.239	81.92
185.459	24.58
185.679	92.16
185.898	-36.86
186.118	47.1
186.338	16.38
186.557	22.53
186.777	-16.38
186.997	2.05
187.216	-36.86
187.436	47.1
187.655	6.14
187.875	-24.58
188.095	-14.34
188.314	-6.14
188.534	69.63
188.753	-43.01
188.973	34.82
189.192	43.01
189.412	36.86
189.631	-36.86
189.851	49.15
190.07	106.49
190.29	-38.91
190.509	65.53
190.729	-30.72
190.948	-8.19
191.168	161.79
191.387	16.38
191.607	10.24
191.826	34.82
192.045	-22.53
192.265	18.43
192.484	12.29
192.704	43.01
192.923	59.39
193.142	106.49
193.362	14.34
193.581	63.49
193.8	36.86
194.02	75.77
194.239	137.21
194.458	-4.1
194.678	-45.06
194.897	-40.96
195.116	-45.06
195.335	-22.53
195.555	90.11
195.774	-6.14
195.993	49.15
196.212	-12.29
196.432	2.05
196.651	-57.34
196.87	-0
197.089	8.19
197.308	10.24
197.528	47.1
197.747	-12.29
197.966	20.48
198.185	73.73
198.404	57.34
198.623	-0
198.842	47.1
199.062	36.86
199.281	-43.01
199.5	55.3
199.719	51.2
199.938	102.4
200.157	112.64
200.376	38.91
200.595	88.06
200.814	-45.06
201.033	-45.06
201.252	6.14
201.471	38.91
201.69	106.49
201.909	-43.01
202.128	51.2
202.347	-43.01
202.566	-30.72
202.785	-63.49
203.004	-14.34
203.223	149.5
203.442	34.82
203.661	-24.58
203.879	26.62
204.098	104.45
204.317	-28.67
204.536	79.87
204.755	6.14
204.974	49.15
205.193	77.82
205.411	112.64
205.63	-30.72
205.849	12.29
206.068	38.91
206.287	12.29
206.505	75.77
206.724	30.72
206.943	6.14
207.162	75.77
207.381	30.72
207.599	20.48
207.818	2.05
208.037	-63.49
208.255	57.34
208.474	24.58
208.693	45.06
208.911	57.34
209.13	65.53
209.349	75.77
209.567	38.91
209.786	73.73
210.005	45.06
210.223	77.82
210.442	-69.63
210.661	40.96
210.879	14.34
211.098	-22.53
211.316	100.35
211.535	36.86
211.753	-22.53
211.972	-6.14
212.191	16.38
212.409	12.29
212.628	36.86
212.846	-30.72
213.065	-8.19
213.283	94.21
213.502	-40.96
213.72	47.1
213.938	47.1
214.157	30.72
214.375	49.15
214.594	79.87
214.812	57.34
215.031	61.44
215.249	-51.2
215.467	51.2
215.686	53.25
215.904	55.3
216.122	22.53
216.341	40.96
216.559	-8.19
216.778	16.38
216.996	40.96
217.214	14.34
217.432	-4.1
217.651	-0
217.869	65.53
218.087	20.48
218.306	4.1
218.524	49.15
218.742	8.19
218.96	118.78
219.179	14.34
219.397	77.82
219.615	55.3
219.833	-59.39
220.051	-63.49
220.27	2.05
220.488	24.58
220.706	10.24
220.924	100.35
221.142	2.05
221.36	2.05
221.578	-4.1
221.796	34.82
222.015	45.06
222.233	94.21
222.451	24.58
222.669	81.92
222.887	81.92
223.105	34.82
223.323	88.06
223.541	92.16
223.759	49.15
223.977	28.67
224.195	79.87
224.413	53.25
224.631	-8.19
224.849	8.19
225.067	61.44
225.285	-4.1
225.503	57.34
225.721	-63.49
225.939	65.53
226.157	-18.43
226.375	110.59
226.592	-34.82
226.81	28.67
227.028	-34.82
227.246	96.25
227.464	-55.3
227.682	18.43
227.9	10.24
228.117	65.53
228.335	43.01
228.553	32.77
228.771	77.82
228.989	47.1
229.206	20.48
229.424	-4.1
229.642	36.86
229.86	-73.73
230.077	45.06
230.295	57.34
230.513	77.82
230.731	88.06
230.948	63.49
231.166	26.62
231.384	-0
231.601	-32.77
231.819	75.77
232.037	-0
232.254	36.86
232.472	40.96
232.689	-38.91
232.907	88.06
233.125	57.34
233.342	-2.05
233.56	40.96
233.777	38.91
233.995	90.11
234.213	106.49
234.43	67.58
234.648	-22.53
234.865	-94.21
235.083	-26.62
235.3	47.1
235.518	92.16
235.735	16.38
235.953	18.43
236.17	-12.29
236.388	67.58
236.605	32.77
236.822	38.91
237.04	43.01
237.257	28.67
237.475	-6.14
237.692	61.44
237.909	-6.14
238.127	2.05
238.344	49.15
238.562	-20.48
238.779	-67.58
238.996	28.67
239.214	63.49
239.431	49.15
239.648	51.2
239.865	14.34
240.083	100.35
240.3	-6.14
240.517	32.77
240.735	8.19
240.952	77.82
241.169	-0
241.386	6.14
241.603	16.38
241.821	28.67
242.038	22.53
242.255	77.82
242.472	-28.67
242.689	22.53
242.907	43.01
243.124	12.29
243.341	34.82
243.558	-32.77
243.775	16.38
243.992	-20.48
244.209	-40.96
244.426	26.62
244.643	-24.58
244.86	-12.29
245.078	47.1
245.295	73.73
245.512	-30.72
245.729	22.53
245.946	51.2
246.163	-2.05
246.38	28.67
246.597	55.3
246.814	-18.43
247.031	71.68
247.248	67.58
247.464	-18.43
247.681	10.24
247.898	-28.67
248.115	114.69
248.332	-16.38
248.549	71.68
248.766	100.35
248.983	88.06
249.2	75.77
249.417	149.5
249.633	6.14
249.85	20.48
250.067	-77.82
250.284	49.15
250.501	10.24
250.717	32.77
250.934	28.67
251.151	-40.96
251.368	45.06
251.585	51.2
251.801	67.58
252.018	4.1
252.235	81.92
252.451	18.43
252.668	-26.62
252.885	126.97
253.102	-26.62
253.318	43.01
253.535	-43.01
253.752	75.77
253.968	16.38
254.185	-4.1
254.401	-18.43
254.618	4.1
254.835	-51.2
255.051	-34.82
255.268	20.48
255.484	36.86
255.701	51.2
255.917	38.91
256.134	16.38
256.351	8.19
256.567	14.34
256.784	47.1
257	-67.58
257.217	104.45
257.433	26.62
257.65	24.58
257.866	106.49
258.082	73.73
258.299	-2.05
258.515	43.01
258.732	22.53
258.948	57.34
259.165	73.73
259.381	83.97
259.597	-14.34
259.814	59.39
260.03	43.01
260.246	73.73
260.463	116.73
260.679	51.2
260.895	38.91
261.112	6.14
261.328	8.19
261.544	-55.3
261.761	83.97
261.977	36.86
262.193	-14.34
262.409	102.4
262.626	59.39
262.842	55.3
263.058	-83.97
263.274	32.77
263.49	2.05
263.707	81.92
263.923	53.25
264.139	-55.3
264.355	59.39
264.571	57.34
264.787	61.44
265.004	55.3
265.22	79.87
265.436	-6.14
265.652	12.29
265.868	63.49
266.084	-12.29
266.3	22.53
266.516	-63.49
266.732	51.2
266.948	-10.24
267.164	-12.29
267.38	51.2
267.596	81.92
267.812	65.53
268.028	32.77
268.244	30.72
268.46	12.29
268.676	-63.49
268.892	24.58
269.108	26.62
269.324	59.39
269.54	-32.77
269.756	-26.62
269.972	6.14
270.188	49.15
270.403	-26.62
270.619	59.39
270.835	71.68
271.051	12.29
271.267	26.62
271.483	4.1
271.698	73.73
271.914	36.86
272.13	53.25
272.346	63.49
272.562	6.14
272.777	28.67
272.993	40.96
273.209	86.01
273.425	-18.43
273.64	-6.14
273.856	22.53
274.072	-45.06
274.287	-22.53
274.503	81.92
274.719	49.15
274.934	-0
275.15	20.48
275.366	49.15
275.581	-71.68
275.797	79.87
276.012	20.48
276.228	36.86
276.444	8.19
276.659	36.86
276.875	47.1
277.09	43.01
277.306	-4.1
277.521	8.19
277.737	16.38
277.952	98.3
278.168	45.06
278.383	75.77
278.599	92.16
278.814	40.96
279.03	-8.19
279.245	40.96
279.461	16.38
279.676	90.11
279.892	-0
280.107	71.68
280.322	-32.77
280.538	32.77
280.753	38.91
280.969	45.06
281.184	-2.05
281.399	-6.14
281.615	12.29
281.83	69.63
282.045	22.53
282.26	59.39
282.476	12.29
282.691	36.86
282.906	26.62
283.122	-40.96
283.337	-0
283.552	61.44
283.767	47.1
283.983	126.97
284.198	94.21
284.413	90.11
284.628	-18.43
284.843	30.72
285.058	79.87
285.274	45.06
285.489	2.05
285.704	55.3
285.919	-40.96
286.134	18.43
286.349	24.58
286.564	43.01
286.779	116.73
286.995	-6.14
287.21	-36.86
287.425	79.87
287.64	71.68
287.855	69.63
288.07	-28.67
288.285	40.96
288.5	77.82
288.715	40.96
288.93	34.82
289.145	53.25
289.36	88.06
289.575	71.68
289.79	102.4
290.004	96.25
290.219	20.48
290.434	18.43
290.649	16.38
290.864	22.53
291.079	22.53
291.294	10.24
291.509	51.2
291.724	32.77
291.938	-12.29
292.153	40.96
292.368	12.29
292.583	51.2
292.798	71.68
293.012	40.96
293.227	-16.38
293.442	-28.67
293.657	98.3
293.871	73.73
294.086	-59.39
294.301	16.38
294.516	59.39
294.73	8.19
294.945	6.14
295.16	30.72
295.374	22.53
295.589	86.01
295.804	77.82
296.018	16.38
296.233	69.63
296.447	79.87
296.662	4.1
296.877	34.82
297.091	43.01
297.306	28.67
297.52	24.58
297.735	-26.62
297.949	65.53
298.164	28.67
298.378	-71.68
298.593	61.44
298.807	-34.82
299.022	14.34
299.236	47.1
299.451	36.86
299.665	40.96
299.88	32.77
300.094	83.97
300.309	2.05
300.523	71.68
300.737	-28.67
300.952	-16.38
301.166	28.67
301.381	-18.43
301.595	24.58
301.809	55.3
302.024	-59.39
302.238	-6.14
302.452	20.48
302.667	90.11
302.881	104.45
303.095	92.16
303.309	-16.38
303.524	-34.82
303.738	-28.67
303.952	22.53
304.166	57.34
304.381	-30.72
304.595	88.06
304.809	20.48
305.023	79.87
305.237	28.67
305.452	36.86
305.666	22.53
305.88	43.01
306.094	77.82
306.308	90.11
306.522	22.53
306.736	36.86
306.95	47.1
307.164	57.34
307.379	67.58
307.593	73.73
307.807	106.49
308.021	2.05
308.235	59.39
308.449	34.82
308.663	22.53
308.877	90.11
309.091	-49.15
309.305	38.91
309.519	-2.05
309.733	67.58
309.947	6.14
310.161	51.2
310.374	18.43
310.588	83.97
310.802	2.05
311.016	2.05
311.23	-22.53
311.444	-24.58
311.658	-71.68
311.872	92.16
312.085	65.53
312.299	53.25
312.513	16.38
312.727	43.01
312.941	-30.72
313.154	71.68
313.368	12.29
313.582	-4.1
313.796	16.38
314.009	2.05
314.223	32.77
314.437	12.29
314.651	12.29
314.864	22.53
315.078	26.62
315.292	57.34
315.505	53.25
315.719	18.43
315.933	61.44
316.146	-30.72
316.36	-32.77
316.573	47.1
316.787	86.01
317.001	40.96
317.214	8.19
317.428	100.35
317.641	63.49
317.855	83.97
318.068	20.48
318.282	-22.53
318.495	94.21
318.709	75.77
318.922	53.25
319.136	116.73
319.349	-2.05
319.563	20.48
319.776	-16.38
319.99	-26.62
320.203	38.91
320.417	20.48
320.63	45.06
320.843	88.06
321.057	4.1
321.27	-6.14
321.483	49.15
321.697	67.58
321.91	51.2
322.124	-28.67
322.337	98.3
322.55	4.1
322.763	38.91
322.977	73.73
323.19	26.62
323.403	49.15
323.617	32.77
323.83	75.77
324.043	2.05
324.256	59.39
324.469	53.25
324.683	20.48
324.896	40.96
325.109	45.06
325.322	-12.29
325.535	86.01
325.748	8.19
325.962	-4.1
326.175	88.06
326.388	28.67
326.601	-0
326.814	88.06
327.027	10.24
327.24	137.21
327.453	30.72
327.666	63.49
327.879	53.25
328.092	32.77
328.305	79.87
328.518	-32.77
328.731	-26.62
328.944	81.92
329.157	20.48
329.37	16.38
329.583	49.15
329.796	94.21
330.009	4.1
330.222	67.58
330.435	59.39
330.648	45.06
330.861	36.86
331.073	67.58
331.286	32.77
331.499	45.06
331.712	-32.77
331.925	30.72
332.138	67.58
332.35	-0
332.563	53.25
332.776	-2.05
332.989	8.19
333.202	-34.82
333.414	98.3
333.627	73.73
333.84	28.67
334.053	55.3
334.265	32.77
334.478	-22.53
334.691	8.19
334.903	67.58
335.116	8.19
335.329	-28.67
335.541	73.73
335.754	98.3
335.966	-12.29
336.179	49.15
336.392	36.86
336.604	43.01
336.817	30.72
337.029	47.1
337.242	96.25
337.454	49.15
337.667	-28.67
337.88	104.45
338.092	45.06
338.305	-12.29
338.517	43.01
338.729	-12.29
338.942	71.68
339.154	51.2
339.367	-2.05
339.579	-2.05
339.792	16.38
340.004	81.92
340.217	34.82
340.429	4.1
340.641	-96.25
340.854	-14.34
341.066	51.2
341.278	14.34
341.491	102.4
341.703	65.53
341.915	-16.38
342.128	133.12
342.34	-10.24
342.552	10.24
342.764	-10.24
342.977	53.25
343.189	108.54
343.401	38.91
343.613	-30.72
343.826	38.91
344.038	26.62
344.25	108.54
344.462	77.82
344.674	-16.38
344.886	40.96
345.099	81.92
345.311	16.38
345.523	16.38
345.735	-20.48
345.947	34.82
346.159	67.58
346.371	90.11
346.583	59.39
346.795	90.11
347.007	47.1
347.219	40.96
347.431	24.58
347.643	141.31
347.855	8.19
348.067	147.45
348.279	47.1
348.491	-69.63
348.703	65.53
348.915	45.06
349.127	43.01
349.339	45.06
349.551	-16.38
349.763	112.64
349.975	-4.1
350.187	69.63
350.399	69.63
350.61	24.58
350.822	10.24
351.034	26.62
351.246	47.1
351.458	-24.58
351.669	20.48
351.881	49.15
352.093	102.4
352.305	57.34
352.517	-40.96
352.728	137.21
352.94	18.43
353.152	-4.1
353.363	59.39
353.575	59.39
353.787	38.91
353.999	63.49
354.21	61.44
354.422	16.38
354.633	18.43
354.845	81.92
355.057	81.92
355.268	47.1
355.48	34.82
355.692	-12.29
355.903	55.3
356.115	18.43
356.326	-49.15
356.538	16.38
356.749	81.92
356.961	36.86
357.172	-40.96
357.384	16.38
357.595	67.58
357.807	-0
358.018	45.06
358.23	92.16
358.441	96.25
358.653	88.06
358.864	73.73
359.075	34.82
359.287	110.59
359.498	57.34
359.709	43.01
359.921	94.21
360.132	47.1
360.344	36.86
360.555	-30.72
360.766	90.11
360.977	53.25
361.189	40.96
361.4	-0
361.611	75.77
361.823	40.96
362.034	86.01
362.245	6.14
362.456	6.14
362.667	10.24
362.879	-26.62
363.09	20.48
363.301	-10.24
363.512	26.62
363.723	22.53
363.935	96.25
364.146	49.15
364.357	30.72
364.568	43.01
364.779	24.58
364.99	133.12
365.201	20.48
365.412	98.3
365.623	-59.39
365.834	34.82
366.045	75.77
366.256	69.63
366.467	63.49
366.678	77.82
366.889	12.29
367.1	-16.38
367.311	8.19
367.522	71.68
367.733	26.62
367.944	75.77
368.155	40.96
368.366	53.25
368.577	81.92
368.788	79.87
368.999	-4.1
369.209	108.54
369.42	96.25
369.631	106.49
369.842	83.97
370.053	24.58
370.264	67.58
370.474	75.77
370.685	51.2
370.896	36.86
371.107	-0
371.317	65.53
371.528	53.25
371.739	40.96
371.95	-16.38
372.16	65.53
372.371	-26.62
372.582	98.3
372.792	26.62
373.003	-18.43
373.214	75.77
373.424	59.39
373.635	59.39
373.846	227.32
374.056	30.72
374.267	57.34
374.477	79.87
374.688	40.96
374.898	-22.53
375.109	38.91
375.319	45.06
375.53	47.1
375.74	14.34
375.951	-4.1
376.161	73.73
376.372	124.93
376.582	92.16
376.793	83.97
377.003	22.53
377.214	-16.38
377.424	69.63
377.635	28.67
377.845	16.38
378.055	114.69
378.266	6.14
378.476	8.19
378.686	57.34
378.897	18.43
379.107	51.2
379.317	112.64
379.528	26.62
379.738	108.54
379.948	-28.67
380.158	26.62
380.369	38.91
380.579	34.82
380.789	4.1
380.999	32.77
381.21	57.34
381.42	32.77
381.63	2.05
381.84	4.1
382.05	57.34
382.261	63.49
382.471	110.59
382.681	22.53
382.891	57.34
383.101	22.53
383.311	28.67
383.521	100.35
383.731	147.45
383.941	2.05
384.151	79.87
384.361	86.01
384.571	79.87
384.781	141.31
384.991	137.21
385.201	206.84
385.411	59.39
385.621	36.86
385.831	14.34
386.041	40.96
386.251	10.24
386.461	67.58
386.671	88.06
386.881	20.48
387.091	12.29
387.301	106.49
387.511	57.34
387.72	81.92
387.93	69.63
388.14	12.29
388.35	-12.29
388.56	71.68
388.769	112.64
388.979	49.15
389.189	-75.77
389.399	-4.1
389.609	61.44
389.818	81.92
390.028	30.72
390.238	83.97
390.447	30.72
390.657	24.58
390.867	-0
391.076	24.58
391.286	12.29
391.496	73.73
391.705	81.92
391.915	28.67
392.125	34.82
392.334	18.43
392.544	53.25
392.753	94.21
392.963	47.1
393.172	63.49
393.382	14.34
393.591	122.88
393.801	20.48
394.01	143.36
394.22	36.86
394.429	131.07
394.639	112.64
394.848	131.07
395.058	116.73
395.267	96.25
395.477	137.21
395.686	88.06
395.895	51.2
396.105	38.91
396.314	28.67
396.524	104.45
396.733	16.38
396.942	106.49
397.152	122.88
397.361	98.3
397.57	88.06
397.78	67.58
397.989	100.35
398.198	126.97
398.407	90.11
398.617	108.54
398.826	141.31
399.035	75.77
399.244	155.65
399.453	83.97
399.663	143.36
399.872	114.69
400.081	36.86
400.29	112.64
400.499	57.34
400.708	167.93
400.917	32.77
401.127	135.17
401.336	88.06
401.545	139.26
401.754	100.35
401.963	118.78
402.172	104.45
402.381	43.01
402.59	167.93
402.799	116.73
403.008	114.69
403.217	153.6
403.426	118.78
403.635	69.63
403.844	73.73
404.053	106.49
404.262	155.65
404.471	108.54
404.68	151.55
404.888	124.93
405.097	116.73
405.306	157.69
405.515	126.97
405.724	88.06
405.933	221.18
406.142	81.92
406.35	190.46
406.559	149.5
406.768	176.13
406.977	200.7
407.185	217.08
407.394	215.04
407.603	172.03
407.812	215.04
408.02	217.08
408.229	198.65
408.438	262.14
408.646	133.12
408.855	239.61
409.064	299
409.272	339.96
409.481	256
409.69	268.28
409.898	202.75
410.107	307.2
410.315	264.19
410.524	309.24
410.733	315.39
410.941	212.99
411.15	258.04
411.358	319.48
411.567	446.46
411.775	350.2
411.984	366.59
412.192	362.49
412.401	387.07
412.609	352.25
412.818	403.45
413.026	495.61
413.234	530.42
413.443	466.94
413.651	481.27
413.86	475.13
414.068	526.33
414.276	610.29
414.485	503.8
414.693	598.01
414.901	614.39
415.11	698.36
415.318	602.1
415.526	645.11
415.734	718.84
415.943	675.83
416.151	714.74
416.359	770.04
416.567	735.22
416.776	845.81
416.984	870.39
417.192	856.05
417.4	851.95
417.608	831.48
417.817	978.93
418.025	1013.74
418.233	935.92
418.441	907.25
418.649	1066.99
418.857	1101.81
419.065	1148.91
419.273	1089.52
419.481	1249.26
419.689	1220.59
419.897	1239.02
420.105	1413.1
420.313	1366
420.521	1468.39
420.729	1452.01
420.937	1490.92
421.145	1525.74
421.353	1574.89
421.561	1644.52
421.769	1726.44
421.977	1718.25
422.185	1777.64
422.393	1841.12
422.601	1998.82
422.809	1976.29
423.017	1990.63
423.224	2154.46
423.432	2228.19
423.64	2209.76
423.848	2580.44
424.056	2432.99
424.263	2510.81
424.471	2475.99
424.679	2576.34
424.887	2777.05
425.094	2762.71
425.302	2748.37
425.51	2908.12
425.718	3016.66
425.925	3155.92
426.133	3137.49
426.341	3399.63
426.548	3565.51
426.756	3452.88
426.964	3499.98
427.171	3719.11
427.379	3829.7
427.586	3903.43
427.794	3942.34
428.001	4114.37
428.209	4435.9
428.417	4243.39
428.624	4534.2
428.832	4466.62
429.039	4552.63
429.247	4589.5
429.454	4976.56
429.662	5349.29
429.869	4984.76
430.076	5418.93
430.284	5103.54
430.491	5423.02
430.699	5781.42
430.906	5734.31
431.114	5830.57
431.321	5873.57
431.528	6303.65
431.736	6578.08
431.943	6791.06
432.15	6528.92
432.358	6723.48
432.565	7214.99
432.772	7139.22
432.979	7397.26
433.187	7382.93
433.394	7675.79
433.601	7878.54
433.808	7999.37
434.016	8130.44
434.223	8275.84
434.43	8976.25
434.637	8699.77
434.844	9342.83
435.052	9381.74
435.259	9533.29
435.466	9568.11
435.673	9516.91
435.88	9971.56
436.087	10575.71
436.294	10508.13
436.501	10219.36
436.708	10616.67
436.915	10764.12
437.122	11216.72
437.329	11224.92
437.537	11741
437.743	12042.06
437.95	11992.91
438.157	12255.05
438.364	12822.33
438.571	12732.22
438.778	12955.45
438.985	14063.4
439.192	13363
439.399	13971.24
439.606	13834.03
439.813	14335.78
440.02	15468.31
440.227	15050.52
440.433	14712.61
440.64	15406.87
440.847	15413.01
441.054	15740.69
441.261	16805.63
441.467	16459.52
441.674	16635.65
441.881	17383.16
442.088	17231.61
442.294	17170.17
442.501	17768.18
442.708	18259.69
442.914	18757.35
443.121	19830.48
443.328	19097.31
443.534	20489.93
443.741	19814.1
443.948	19703.51
444.154	21018.3
444.361	20965.06
444.568	21049.02
444.774	21059.26
444.981	21413.56
445.187	22095.53
445.394	23060.13
445.6	22384.3
445.807	24843.91
446.013	23525.02
446.22	24071.82
446.426	25036.42
446.633	25415.29
446.839	26394.22
447.046	25118.34
447.252	26379.89
447.459	26734.18
447.665	26787.43
447.871	27784.79
448.078	28773.96
448.284	27684.44
448.491	28130.9
448.697	29314.62
448.903	29931.06
449.11	29875.77
449.316	29236.8
449.522	30021.17
449.728	30537.26
449.935	30983.72
450.141	30938.66
450.347	31407.65
450.553	30654
450.76	31274.53
450.966	32353.81
451.172	31901.21
451.378	32749.07
451.584	31839.77
451.791	32679.44
451.997	32284.18
452.203	33078.79
452.409	32978.44
452.615	32804.36
452.821	31624.73
453.027	31352.35
453.233	33031.69
453.44	31733.28
453.646	31792.67
453.852	32265.75
454.058	32974.34
454.264	31938.07
454.47	32390.67
454.676	31444.51
454.882	32843.27
455.088	29967.93
455.294	29967.93
455.5	30649.9
455.705	30801.45
455.911	29947.45
456.117	29324.86
456.323	28728.91
456.529	27465.31
456.735	28548.68
456.941	27430.49
457.147	26988.13
457.352	26261.1
457.558	26242.67
457.764	25886.32
457.97	25763.45
458.176	25138.82
458.381	24999.55
458.587	23830.16
458.793	23676.57
458.999	22607.53
459.204	24037.01
459.41	23543.45
459.616	21896.88
459.821	21833.39
460.027	21743.28
460.233	21247.68
460.438	20408.01
460.644	20584.13
460.85	19910.35
461.055	19357.4
461.261	19113.69
461.466	17977.07
461.672	17323.77
461.878	18556.64
462.083	17370.87
462.289	16723.71
462.494	16713.47
462.7	15988.49
462.905	15496.98
463.111	16181
463.316	16369.41
463.522	15757.07
463.727	15752.98
463.932	15650.58
464.138	15587.09
464.343	15712.02
464.549	15316.76
464.754	15931.15
464.959	15621.91
465.165	15644.43
465.37	14894.88
465.575	14391.08
465.781	15058.71
465.986	15263.51
466.191	14493.47
466.397	14294.82
466.602	13621.04
466.807	13969.19
467.012	14176.04
467.218	14087.98
467.423	13862.7
467.628	13958.95
467.833	14585.63
468.038	13889.32
468.244	13842.22
468.449	14081.83
468.654	13637.42
468.859	13672.24
469.064	13514.55
469.269	13135.67
469.474	13178.68
469.679	13348.66
469.885	13133.62
470.09	13383.48
470.295	13037.37
470.5	12859.2
470.705	12617.54
470.91	12398.4
471.115	12560.19
471.32	12592.96
471.525	12607.3
471.73	12296
471.935	12234.57
472.139	11693.9
472.344	11917.13
472.549	11757.39
472.754	11519.82
472.959	11532.11
473.164	11065.18
473.369	11224.92
473.574	11433.81
473.778	11300.69
473.983	11296.6
474.188	11157.33
474.393	10585.95
474.598	10682.2
474.802	10694.49
475.007	10665.82
475.212	10448.74
475.417	10041.19
475.621	10426.21
475.826	10067.81
476.031	10026.85
476.235	9838.44
476.44	10159.97
476.645	9797.48
476.849	9940.84
477.054	9785.19
477.259	9496.43
477.463	9555.82
477.668	9301.87
477.872	9295.73
478.077	9181.04
478.282	9004.92
478.486	9152.37
478.691	8951.67
478.895	8834.94
479.1	8851.32
479.304	8820.6
479.509	8576.89
479.713	8750.97
479.918	8697.72
480.122	8484.73
480.326	8585.08
480.531	8499.07
480.735	8415.1
480.94	8238.98
481.144	8640.38
481.348	8302.47
481.553	8355.71
481.757	8290.18
481.961	8349.57
482.166	8365.95
482.37	8273.79
482.574	8030.09
482.778	8177.54
482.983	8241.03
483.187	8112
483.391	8183.68
483.595	8099.72
483.8	8241.03
484.004	8130.44
484.208	8130.44
484.412	8284.03
484.616	8333.18
484.821	8431.49
485.025	8175.49
485.229	8273.79
485.433	7919.5
485.637	8112
485.841	8241.03
486.045	8140.68
486.249	8191.87
486.453	8093.57
486.657	8228.74
486.861	8140.68
487.065	7909.26
487.269	8173.44
487.473	8191.87
487.677	8349.57
487.881	8308.61
488.085	8150.92
488.289	8273.79
488.493	8253.31
488.697	8265.6
488.901	8187.78
489.105	8374.14
489.309	8306.56
489.512	8431.49
489.716	8308.61
489.92	8494.97
490.124	8216.45
490.328	8398.72
490.531	8218.5
490.735	8515.45
490.939	8392.58
491.143	8497.02
491.346	8286.08
491.55	8603.52
491.754	8550.27
491.958	8568.7
492.161	8431.49
492.365	8589.18
492.569	8535.93
492.772	8529.79
492.976	8511.36
493.18	8773.5
493.383	9064.31
493.587	9064.31
493.79	9070.45
493.994	9009.01
494.197	9162.61
494.401	9052.02
494.605	9162.61
494.808	9389.94
495.012	9140.08
495.215	9502.58
495.419	9402.22
495.622	9529.2
495.825	9631.6
496.029	9496.43
496.232	9850.73
496.436	9863.02
496.639	10051.43
496.843	9949.03
497.046	10162.02
497.249	10329.95
497.453	10084.2
497.656	10301.28
497.859	10485.6
498.063	10223.46
498.266	10710.88
498.469	10762.08
498.673	10725.21
498.876	10852.19
499.079	10973.02
499.282	11214.68
499.485	11452.24
499.689	11550.54
499.892	11609.93
500.095	11718.48
500.298	11898.7
500.501	11593.55
500.705	12185.41
500.908	12218.18
501.111	12371.78
501.314	12275.52
501.517	12693.31
501.72	12904.25
501.923	12808
502.126	13027.13
502.329	13311.8
502.532	13508.4
502.735	13307.7
502.938	13612.85
503.141	13932.33
503.344	14194.47
503.547	14102.31
503.75	14210.86
503.953	14434.08
504.156	14692.13
504.359	14661.41
504.562	14763.81
504.765	15042.33
504.968	15169.3
505.17	15447.83
505.373	15359.77
505.576	15957.77
505.779	16135.95
505.982	16219.91
506.185	16256.78
506.387	16520.96
506.59	16482.05
506.793	17010.43
506.996	17045.24
507.198	17329.91
507.401	17164.03
507.604	17614.58
507.807	17774.32
508.009	18102
508.212	18110.19
508.415	18263.79
508.617	18624.23
508.82	18519.78
509.022	18788.07
509.225	19259.1
509.428	19193.56
509.63	19650.26
509.833	19418.84
510.035	20014.8
510.238	19875.54
510.44	20365
510.643	20555.46
510.845	20659.91
511.048	20786.88
511.25	21176
511.453	21499.58
511.655	22023.86
511.858	21667.51
512.06	21798.58
512.262	22214.32
512.465	22316.72
512.667	22695.59
512.87	22937.25
513.072	23049.89
513.274	23164.57
513.477	23678.61
513.679	23828.12
513.881	24155.79
514.084	24286.86
514.286	24565.39
514.488	24446.6
514.69	25396.86
514.893	25163.39
515.095	25400.96
515.297	25845.37
515.499	25851.51
515.701	26138.23
515.904	26766.95
516.106	26648.17
516.308	27348.57
516.51	27098.72
516.712	27174.5
516.914	27360.86
517.116	28036.69
517.318	28153.43
517.52	28753.48
517.722	28692.04
517.925	28935.75
518.127	29607.48
518.329	29654.59
518.531	29607.48
518.733	30322.23
518.935	30477.87
519.136	30846.51
519.338	31030.82
519.54	30844.46
519.742	31469.09
519.944	31768.09
520.146	32177.68
520.348	32534.03
520.55	32886.28
520.752	32515.6
520.954	33240.58
521.155	33224.2
521.357	33754.62
521.559	34127.35
521.761	34498.03
521.963	34641.39
522.164	34729.45
522.366	35200.49
522.568	35378.66
522.77	35657.18
522.971	36109.79
523.173	36187.61
523.375	36261.33
523.576	36113.88
523.778	36677.07
523.98	37051.85
524.181	37023.18
524.383	37209.54
524.584	37639.62
524.786	37494.21
524.988	38002.11
525.189	38266.3
525.391	38419.89
525.592	38763.95
525.794	38491.57
525.995	39118.25
526.197	39087.53
526.398	39486.89
526.6	39194.03
526.801	39669.15
527.003	40039.84
527.204	40072.6
527.406	40304.03
527.607	40394.14
527.808	40643.99
528.01	40170.91
528.211	40570.26
528.412	41440.65
528.614	41125.26
528.815	41608.58
529.016	41837.95
529.218	41031.05
529.419	41522.57
529.62	41608.58
529.822	42192.25
530.023	41602.44
530.224	41696.64
530.425	42098.05
530.626	41753.99
530.828	41774.47
531.029	42626.42
531.23	42061.18
531.431	42401.14
531.632	42438.01
531.833	42700.15
532.035	42851.7
532.236	42761.59
532.437	43162.99
532.638	42878.32
532.839	42833.27
533.04	43027.82
533.241	42841.46
533.442	43418.99
533.643	42876.27
533.844	42990.96
534.045	43449.71
534.246	42993.01
534.447	43455.85
534.648	43433.32
534.849	43568.49
535.05	43042.16
535.251	43527.53
535.451	43359.59
535.652	43855.2
535.853	43402.6
536.054	43613.54
536.255	43384.17
536.456	43271.53
536.657	43736.42
536.857	43554.15
537.058	43236.72
537.259	43570.54
537.46	43175.28
537.66	43113.84
537.861	43533.67
538.062	43445.61
538.263	43806.05
538.463	43398.51
538.664	43337.07
538.865	43550.06
539.065	43523.43
539.266	43326.83
539.466	44131.68
539.667	43140.46
539.868	43834.72
540.068	43521.38
540.269	43142.51
540.469	43490.66
540.67	43249
540.87	43345.26
541.071	43535.72
541.271	43693.41
541.472	43111.79
541.672	43179.37
541.873	43453.8
542.073	42669.43
542.274	43631.97
542.474	43468.14
542.675	42759.54
542.875	43838.82
543.075	43445.61
543.276	42937.71
543.476	43668.84
543.676	43060.59
543.877	43236.72
544.077	43648.36
544.277	43224.43
544.478	43068.78
544.678	43365.74
544.878	43543.91
545.078	43582.82
545.279	42950
545.479	43183.47
545.679	43130.22
545.879	42990.96
546.079	43314.54
546.28	43089.26
546.48	43027.82
546.68	43523.43
546.88	43015.54
547.08	43488.62
547.28	43072.88
547.48	42851.7
547.68	43390.31
547.88	42941.81
548.081	43259.24
548.281	43302.25
548.481	43042.16
548.681	43412.84
548.881	43054.45
549.081	43021.68
549.28	42831.22
549.48	43132.27
549.68	42913.14
549.88	43402.6
550.08	42964.34
550.28	43212.14
550.48	42966.38
550.68	42947.95
550.88	43087.21
551.08	43267.44
551.279	43095.41
551.479	42702.2
551.679	43105.65
551.879	42659.19
552.079	43089.26
552.278	42591.61
552.478	42870.13
552.678	42863.99
552.878	43392.36
553.077	42958.19
553.277	42544.5
553.477	43326.83
553.676	42671.48
553.876	42753.4
554.076	42755.44
554.275	42069.37
554.475	42212.73
554.674	42706.29
554.874	42419.58
555.074	42411.38
555.273	42691.96
555.473	42431.86
555.672	42040.7
555.872	42354.04
556.071	42376.57
556.271	42329.47
556.47	41993.6
556.67	41622.92
556.869	41946.5
557.068	41907.58
557.268	41725.32
557.467	42018.17
557.667	41500.04
557.866	41837.95
558.065	41745.79
558.265	41338.25
558.464	41655.68
558.663	41997.7
558.863	41299.34
559.062	41985.41
559.261	41297.29
559.461	41532.81
559.66	40766.87
559.859	41409.93
560.058	41149.84
560.258	41098.64
560.457	40553.88
560.656	41336.2
560.855	40709.52
561.054	41004.43
561.253	40906.13
561.453	40623.51
561.652	40508.82
561.851	40490.39
562.05	40195.48
562.249	40064.41
562.448	40762.77
562.647	40340.89
562.846	40306.07
563.045	39871.9
563.244	39611.81
563.443	39962.01
563.642	39374.25
563.841	39443.88
564.04	39665.06
564.239	40123.8
564.438	39099.82
564.637	39505.32
564.836	39415.21
565.035	38657.46
565.234	39372.2
565.432	38954.41
565.631	38448.57
565.83	39116.2
566.029	38348.21
566.228	38475.19
566.427	38245.82
566.625	38223.29
566.824	37699.01
567.023	38012.35
567.222	37250.5
567.42	38116.79
567.619	37768.64
567.818	37449.16
568.016	37488.07
568.215	38141.37
568.414	37592.51
568.612	37584.32
568.811	36894.16
569.01	37404.1
569.208	36902.35
569.407	37139.91
569.605	36558.29
569.804	37211.59
570.002	36431.32
570.201	37053.9
570.4	36365.78
570.598	36089.31
570.797	35843.55
570.995	36046.3
571.193	35243.49
571.392	35648.99
571.59	35524.07
571.789	35659.23
571.987	35505.63
572.186	35655.14
572.384	35333.6
572.582	35243.49
572.781	35296.74
572.979	34403.83
573.177	34868.72
573.376	34577.9
573.574	34868.72
573.772	34967.02
573.971	34393.59
574.169	34352.63
574.367	34096.63
574.565	34504.18
574.763	33783.29
574.962	34051.58
575.16	33349.12
575.358	33803.77
575.556	33195.53
575.754	33922.55
575.952	32908.81
576.151	33097.22
576.349	33338.88
576.547	33504.77
576.745	33216.01
576.943	32966.15
577.141	32759.31
577.339	32804.36
577.537	32628.24
577.735	32349.71
577.933	31964.7
578.131	32486.93
578.329	32308.75
578.527	31890.97
578.725	31903.26
578.923	32185.88
579.121	31997.46
579.319	31716.89
579.516	31956.5
579.714	31434.27
579.912	31634.97
580.11	31620.64
580.308	31442.46
580.506	31393.31
580.704	30975.53
580.901	31118.89
581.099	31104.55
581.297	30930.47
581.495	30758.44
581.692	30998.05
581.89	30643.76
582.088	30514.73
582.285	30520.88
582.483	30553.65
582.681	30453.3
582.878	30240.31
583.076	29890.1
583.274	29996.6
583.471	29789.75
583.669	29812.28
583.866	29576.76
584.064	29910.58
584.262	29140.55
584.459	29439.55
584.657	29861.43
584.854	29775.42
585.052	28837.45
585.249	29097.54
585.447	29107.78
585.644	28939.85
585.841	28767.82
586.039	29064.77
586.236	28698.19
586.434	28642.89
586.631	28577.36
586.828	28411.47
587.026	28190.29
587.223	28341.84
587.42	28364.37
587.618	28214.87
587.815	27489.88
588.012	27719.26
588.21	27952.73
588.407	28155.47
588.604	27780.7
588.801	27188.83
588.999	27719.26
589.196	27655.77
589.393	27493.98
589.59	27264.61
589.787	27111.01
589.984	27176.55
590.182	26723.94
590.379	27078.24
590.576	26809.96
590.773	26687.08
590.97	26580.59
591.167	26529.39
591.364	26611.31
591.561	26699.37
591.758	26420.84
591.955	26402.41
592.152	26066.55
592.349	26183.28
592.546	25859.7
592.743	26388.08
592.94	25710.2
593.137	25704.06
593.334	25886.32
593.531	25587.32
593.727	25462.4
593.924	25740.92
594.121	25179.78
594.318	25314.94
594.515	25173.63
594.712	25591.42
594.908	25087.62
595.105	25411.2
595.302	24856.2
595.499	24882.82
595.696	24929.92
595.892	24796.81
596.089	24884.87
596.286	24700.55
596.482	24293.01
596.679	24553.1
596.876	24362.64
597.072	24342.16
597.269	24186.51
597.466	23965.33
597.662	24137.36
597.859	24278.67
598.055	23850.64
598.252	24067.73
598.448	24065.68
598.645	23815.83
598.841	23271.07
599.038	23563.93
599.234	23410.33
599.431	23533.21
599.627	23236.25
599.824	23314.08
600.02	22924.96
600.217	23090.85
600.413	23180.96
600.609	23074.46
600.806	22834.85
601.002	23117.47
601.198	22611.62
601.395	22742.69
601.591	22300.33
601.787	22509.22
601.984	22623.91
602.18	22488.74
602.376	22437.55
602.572	22421.16
602.769	22275.76
602.965	21833.39
603.161	21960.37
603.357	21880.5
603.553	21862.07
603.75	22079.15
603.946	21653.17
604.142	21745.33
604.338	21245.63
604.534	21526.2
604.73	21431.99
604.926	21378.75
605.122	21741.24
605.318	21460.66
605.514	21479.1
605.71	21155.52
605.906	21141.18
606.102	21171.9
606.298	21307.07
606.494	20991.68
606.69	20739.78
606.886	21032.64
607.082	20891.33
607.278	20774.59
607.474	20270.79
607.67	20668.1
607.866	20174.54
608.062	20768.45
608.257	20164.3
608.453	20434.63
608.649	20428.49
608.845	20092.62
609.041	20149.96
609.236	20514.5
609.432	20109.01
609.628	20139.72
609.824	20209.36
610.019	19979.98
610.215	19801.81
610.411	19889.87
610.606	19773.14
610.802	19896.02
610.998	19701.46
611.193	19926.74
611.389	19549.91
611.584	19740.37
611.78	19470.04
611.976	19511
612.171	19531.48
612.367	19650.26
612.562	19484.37
612.758	18886.37
612.953	19302.11
613.149	19402.46
613.344	18806.5
613.539	19138.27
613.735	19095.26
613.93	19314.39
614.126	18964.19
614.321	19132.12
614.517	19252.95
614.712	18816.74
614.907	18869.98
615.103	19076.83
615.298	18657
615.493	18808.54
615.688	18591.46
615.884	18822.88
616.079	18345.7
616.274	18515.69
616.47	18478.82
616.665	18497.25
616.86	18501.35
617.055	18429.67
617.25	18251.5
617.445	18382.57
617.641	18218.73
617.836	18271.98
618.031	18063.08
618.226	18108.14
618.421	18241.26
618.616	18042.6
618.811	17850.1
619.006	18058.99
619.201	17653.49
619.396	17698.55
619.591	17612.53
619.786	17553.14
619.981	17243.9
620.176	17473.27
620.371	17159.93
620.566	17403.64
620.761	17268.47
620.956	17305.34
621.151	16944.89
621.346	17219.32
621.541	16666.37
621.735	16975.61
621.93	16475.91
622.125	16674.56
622.32	16271.11
622.515	16596.74
622.709	16254.73
622.904	16396.04
623.099	16310.02
623.294	16393.99
623.488	16074.51
623.683	15910.67
623.878	15765.26
624.072	15814.41
624.267	15748.88
624.462	15808.27
624.656	15595.28
624.851	15531.8
625.046	15134.49
625.24	15273.75
625.435	15073.05
625.629	15116.06
625.824	14968.6
626.018	15144.73
626.213	14997.28
626.407	14929.69
626.602	14634.78
626.796	14763.81
626.991	14503.71
627.185	14626.59
627.38	14409.51
627.574	14251.81
627.768	14317.35
627.963	14397.22
628.157	14024.49
628.352	14098.22
628.546	14063.4
628.74	13901.61
628.935	13723.44
629.129	13920.04
629.323	13512.5
629.517	13506.35
629.712	13496.11
629.906	13459.25
630.1	13215.54
630.294	13274.93
630.489	13129.53
630.683	13285.17
630.877	12633.92
631.071	13012.79
631.265	13008.7
631.459	12814.14
631.653	12859.2
631.848	12838.72
632.042	12736.32
632.236	12707.65
632.43	12678.97
632.624	12457.79
632.818	12435.27
633.012	12425.03
633.206	12265.28
633.4	12298.05
633.594	12152.65
633.788	12144.45
633.982	12175.17
634.176	11921.23
634.369	11712.33
634.563	11865.93
634.757	11814.73
634.951	11734.86
635.145	11577.17
635.339	11652.94
635.533	11657.04
635.726	11763.53
635.92	11472.72
636.114	11468.62
636.308	11259.73
636.501	11136.85
636.695	11120.47
636.889	11143
637.083	10682.2
637.276	10841.95
637.47	10813.27
637.664	10702.68
637.857	10762.08
638.051	10887
638.244	10516.32
638.438	10856.28
638.632	10592.09
638.825	10329.95
639.019	10370.91
639.212	10332
639.406	10631.01
639.599	10364.77
639.793	10264.42
639.986	10127.21
640.18	10192.74
640.373	10035.05
640.567	10061.67
640.76	10012.52
640.954	9738.09
641.147	9844.59
641.34	9942.89
641.534	9869.16
641.727	9490.29
641.92	9734
642.114	9561.97
642.307	9500.53
642.5	9725.8
642.694	9637.74
642.887	9168.76
643.08	9396.08
643.273	9320.31
643.467	9078.65
643.66	9056.12
643.853	9033.59
644.046	8888.18
644.239	9015.16
644.432	8871.8
644.626	8730.49
644.819	8818.55
645.012	8845.18
645.205	8802.17
645.398	8777.59
645.591	8535.93
645.784	8843.13
645.977	8529.79
646.17	8675.2
646.363	8419.2
646.556	8378.24
646.749	8232.83
646.942	8439.68
647.135	8361.86
647.328	8335.23
647.521	8376.19
647.714	8185.73
647.907	8077.19
648.099	7915.4
648.292	8148.87
648.485	7980.93
648.678	7882.63
648.871	7804.81
649.064	7913.35
649.256	7882.63
649.449	7815.05
649.642	7612.3
649.835	7729.03
650.027	7735.18
650.22	7712.65
650.413	7419.79
650.605	7479.18
650.798	7483.28
650.991	7315.34
651.183	7452.56
651.376	7258
651.568	7323.54
651.761	7305.1
651.954	7364.5
652.146	7145.36
652.339	7192.47
652.531	7210.9
652.724	6899.61
652.916	6975.38
653.109	7282.58
653.301	7077.78
653.494	7083.92
653.686	6879.13
653.879	6989.72
654.071	6909.85
654.263	6750.1
654.456	6864.79
654.648	6817.69
654.84	6709.15
655.033	6580.12
655.225	6586.27
655.417	6543.26
655.61	6651.8
655.802	6524.83
655.994	6500.25
656.186	6557.6
656.379	6434.72
656.571	6420.38
656.763	6410.14
656.955	6305.7
657.148	6365.09
657.34	6242.21
657.532	6313.89
657.724	6299.55
657.916	5994.4
658.108	6383.52
658.3	6059.94
658.492	6209.44
658.684	6039.46
658.876	6178.72
659.068	6104.99
659.26	5849
659.452	5914.53
659.644	6086.56
659.836	5959.59
660.028	5941.16
660.22	5889.96
660.412	5973.92
660.604	5742.5
660.796	5715.88
660.988	5734.31
661.18	5849
661.372	5541.8
661.563	5810.09
661.755	5590.95
661.947	5439.4
662.139	5476.27
662.331	5535.66
662.522	5533.61
662.714	5328.81
662.906	5521.32
663.097	5420.97
663.289	5392.3
663.481	5367.73
663.673	5377.97
663.864	5361.58
664.056	5246.9
664.247	5267.38
664.439	5294
664.631	5261.23
664.822	5345.2
665.014	5312.43
665.205	5056.43
665.397	5124.02
665.588	5187.5
665.78	5244.85
665.971	5048.24
666.163	5117.87
666.354	5099.44
666.546	5040.05
666.737	4947.89
666.929	4911.03
667.12	4986.8
667.311	4954.04
667.503	5031.86
667.694	5056.43
667.885	4876.21
668.077	4798.39
668.268	4790.2
668.459	4751.29
668.651	4863.93
668.842	4814.77
669.033	4708.28
669.224	4665.27
669.416	4816.82
669.607	4599.74
669.798	4685.75
669.989	4786.1
670.18	4810.68
670.371	4763.58
670.563	4665.27
670.754	4876.21
670.945	4614.07
671.136	4683.7
671.327	4652.98
671.518	4827.06
671.709	4519.87
671.9	4636.6
672.091	4538.3
672.282	4431.8
672.473	4519.87
672.664	4509.63
672.855	4546.49
673.046	4642.75
673.237	4431.8
673.428	4448.19
673.619	4480.96
673.809	4448.19
674	4380.61
674.191	4519.87
674.382	4523.96
674.573	4450.24
674.764	4544.44
674.954	4517.82
675.145	4351.93
675.336	4386.75
675.527	4399.04
675.717	4349.89
675.908	4341.69
676.099	4366.27
676.289	4474.81
676.48	4255.68
676.671	4341.69
676.861	4366.27
677.052	4313.02
677.243	4495.29
677.433	4370.37
677.624	4466.62
677.814	4431.8
678.005	4298.69
678.195	4366.27
678.386	4390.84
678.576	4325.31
678.767	4321.21
678.957	4323.26
679.148	4351.93
679.338	4440
679.529	4231.1
679.719	4351.93
679.909	4483
680.1	4296.64
680.29	4505.53
680.481	4384.7
680.671	4446.14
680.861	4329.41
681.052	4415.42
681.242	4315.07
681.432	4349.89
681.622	4298.69
681.813	4241.34
682.003	4403.13
682.193	4218.82
682.383	4263.87
682.573	4288.45
682.764	4196.29
682.954	4390.84
683.144	4212.67
683.334	4227.01
683.524	4380.61
683.714	4270.01
683.904	4089.79
684.094	4288.45
684.284	4155.33
684.474	4437.95
684.664	4224.96
684.854	4405.18
685.044	4224.96
685.234	4339.65
685.424	4212.67
685.614	4208.58
685.804	4227.01
685.994	4165.57
686.184	4112.32
686.374	4184
686.564	4128.7
686.753	4237.25
686.943	4087.75
687.133	4278.21
687.323	4063.17
687.513	4140.99
687.702	4140.99
687.892	3893.19
688.082	3966.92
688.272	4018.11
688.461	3903.43
688.651	4046.79
688.841	3960.77
689.03	3928
689.22	4014.02
689.41	3925.96
689.599	3905.48
689.789	3979.2
689.979	3942.34
690.168	3790.79
690.358	3755.97
690.547	3876.8
690.737	3885
690.926	3803.08
691.116	3764.17
691.305	3811.27
691.495	3719.11
691.684	3801.03
691.874	3725.26
692.063	3698.63
692.252	3721.16
692.442	3704.78
692.631	3585.99
692.82	3483.59
693.01	3383.24
693.199	3569.61
693.388	3409.87
693.578	3581.9
693.767	3522.51
693.956	3465.16
694.146	3495.88
694.335	3489.74
694.524	3319.76
694.713	3504.07
694.902	3604.42
695.092	3545.03
695.281	3399.63
695.47	3379.15
695.659	3321.81
695.848	3325.9
696.037	3413.96
696.226	3375.05
696.415	3289.04
696.604	3446.73
696.793	3286.99
696.982	3334.09
697.171	3370.96
697.36	3354.57
697.549	3362.76
697.738	3416.01
697.927	3352.52
698.116	3440.59
698.305	3413.96
698.494	3295.18
698.683	3358.67
698.872	3358.67
699.061	3381.2
699.25	3168.21
699.438	3317.71
699.627	3241.93
699.816	3403.72
700.005	3252.17
700.193	3377.1
700.382	3192.78
700.571	3205.07
700.76	3172.3
700.948	3413.96
701.137	3366.86
701.326	3387.34
701.514	3215.31
701.703	3315.66
701.892	3315.66
702.08	3282.89
702.269	3327.95
702.457	3174.35
702.646	3250.13
702.834	3231.69
703.023	3241.93
703.212	3422.16
703.4	3348.43
703.589	3215.31
703.777	3188.69
703.965	3133.39
704.154	3270.61
704.342	3389.39
704.531	3278.8
704.719	3239.89
704.907	3176.4
705.096	3307.47
705.284	3219.41
705.472	3311.57
705.661	3348.43
705.849	3243.98
706.037	3217.36
706.226	3391.44
706.414	3309.52
706.602	3323.85
706.79	3346.38
706.979	3301.33
707.167	3338.19
707.355	3268.56
707.543	3368.91
707.731	3428.3
707.919	3336.14
708.107	3174.35
708.296	3215.31
708.484	3305.42
708.672	3352.52
708.86	3323.85
709.048	3420.11
709.236	3348.43
709.424	3364.81
709.612	3362.76
709.8	3291.09
709.988	3440.59
710.176	3352.52
710.364	3538.89
710.551	3278.8
710.739	3405.77
710.927	3327.95
711.115	3364.81
711.303	3379.15
711.491	3508.17
711.679	3241.93
711.866	3469.26
712.054	3385.29
712.242	3293.13
712.43	3403.72
712.617	3223.5
712.805	3473.35
712.993	3264.46
713.181	3291.09
713.368	3274.7
713.556	3477.45
713.744	3399.63
713.931	3538.89
714.119	3440.59
714.306	3403.72
714.494	3520.46
714.682	3454.92
714.869	3334.09
715.057	3454.92
715.244	3422.16
715.432	3508.17
715.619	3459.02
715.807	3571.66
715.994	3510.22
716.182	3438.54
716.369	3545.03
716.556	3512.27
716.744	3598.28
716.931	3370.96
717.119	3393.48
717.306	3493.83
717.493	3450.83
717.681	3524.55
717.868	3645.38
718.055	3596.23
718.242	3710.92
718.43	3579.85
718.617	3672.01
718.804	3676.1
718.991	3655.62
719.179	3721.16
719.366	3563.47
719.553	3493.83
719.74	3485.64
719.927	3530.7
720.114	3522.51
720.301	3442.64
720.488	3508.17
720.676	3616.71
720.863	3674.06
721.05	3614.66
721.237	3598.28
721.424	3553.23
721.611	3678.15
721.798	3547.08
721.985	3491.79
722.172	3489.74
722.358	3610.57
722.545	3651.53
722.732	3596.23
722.919	3643.34
723.106	3647.43
723.293	3631.05
723.48	3612.62
723.667	3676.1
723.853	3549.13
724.04	3676.1
724.227	3768.26
724.414	3604.42
724.6	3735.49
724.787	3723.21
724.974	3852.23
725.161	3729.35
725.347	3715.02
725.534	3626.95
725.72	3784.65
725.907	3770.31
726.094	3858.37
726.28	3876.8
726.467	3725.26
726.653	3688.39
726.84	3780.55
727.027	3985.35
727.213	3747.78
727.4	3839.94
727.586	3798.98
727.773	3827.65
727.959	3835.85
728.145	3866.56
728.332	4018.11
728.518	3801.03
728.705	3792.84
728.891	3751.88
729.077	3860.42
729.264	3874.76
729.45	3833.8
729.636	4044.74
729.823	3940.29
730.009	3909.57
730.195	3792.84
730.382	3905.48
730.568	3821.51
730.754	3891.14
730.94	3880.9
731.126	3827.65
731.313	3885
731.499	3805.13
731.685	3815.37
731.871	3889.09
732.057	3852.23
732.243	3897.28
732.429	3829.7
732.615	4007.87
732.801	3862.47
732.987	3923.91
733.173	3973.06
733.359	3946.44
733.545	3901.38
733.731	3958.72
733.917	3950.53
734.103	3966.92
734.289	4085.7
734.475	3723.21
734.661	3958.72
734.847	3940.29
735.033	3944.39
735.219	4073.41
735.404	4046.79
735.59	4024.26
735.776	3981.25
735.962	4001.73
736.148	4030.4
736.333	3895.24
736.519	3823.56
736.705	4040.64
736.89	3887.04
737.076	3864.52
737.262	3874.76
737.447	3858.37
737.633	3905.48
737.819	4130.75
738.004	4067.27
738.19	3921.86
738.375	3868.61
738.561	3987.4
738.747	3841.99
738.932	3819.46
739.118	3977.16
739.303	3839.94
739.489	4001.73
739.674	3895.24
739.859	3839.94
740.045	3878.85
740.23	3893.19
740.416	3809.22
740.601	3899.33
740.786	3954.63
740.972	3848.13
741.157	3921.86
741.342	3792.84
741.528	3862.47
741.713	3790.79
741.898	3780.55
742.084	3811.27
742.269	3975.11
742.454	3786.69
742.639	3919.81
742.824	3729.35
743.01	3743.69
743.195	3700.68
743.38	3782.6
743.565	3649.48
743.75	3782.6
743.935	3706.82
744.12	3854.28
744.305	3622.86
744.49	3588.04
744.675	3624.9
744.86	3565.51
745.045	3751.88
745.23	3684.3
745.415	3528.65
745.6	3643.34
745.785	3669.96
745.97	3495.88
746.155	3602.38
746.34	3563.47
746.525	3477.45
746.71	3547.08
746.895	3534.79
747.079	3477.45
747.264	3389.39
747.449	3483.59
747.634	3459.02
747.819	3385.29
748.003	3426.25
748.188	3307.47
748.373	3375.05
748.557	3268.56
748.742	3432.4
748.927	3295.18
749.111	3186.64
749.296	3250.13
749.481	3299.28
749.665	3203.02
749.85	3035.09
750.034	3227.6
750.219	3051.47
750.404	3078.1
750.588	3057.62
750.773	2953.17
750.957	2940.88
751.141	2969.55
751.326	3030.99
751.51	2992.08
751.695	3094.48
751.879	2942.93
752.064	3030.99
752.248	3000.27
752.432	2867.16
752.617	2936.79
752.801	2994.13
752.985	2887.64
753.17	2713.56
753.354	2885.59
753.538	2871.25
753.722	2756.57
753.907	2867.16
754.091	2828.24
754.275	2740.18
754.459	2676.7
754.643	2744.28
754.828	2684.89
755.012	2555.86
755.196	2525.15
755.38	2621.4
755.564	2580.44
755.748	2576.34
755.932	2648.02
756.116	2582.49
756.3	2492.38
756.484	2562.01
756.668	2533.34
756.852	2426.84
757.036	2449.37
757.22	2521.05
757.404	2475.99
757.588	2392.03
757.772	2459.61
757.956	2381.79
758.14	2432.99
758.323	2283.49
758.507	2375.64
758.691	2322.4
758.875	2412.51
759.059	2328.54
759.242	2271.2
759.426	2299.87
759.61	2228.19
759.794	2156.51
759.977	2217.95
760.161	2215.9
760.345	2160.61
760.528	2209.76
760.712	2222.05
760.895	2060.26
761.079	2052.06
761.263	2148.32
761.446	2138.08
761.63	2004.96
761.813	2166.75
761.997	1980.39
762.18	1972.19
762.364	2062.3
762.547	1982.43
762.731	2052.06
762.914	2011.11
763.098	2052.06
763.281	1929.19
763.464	2039.78
763.648	1937.38
763.831	1974.24
764.015	1884.13
764.198	1839.08
764.381	1902.56
764.564	1927.14
764.748	1828.84
764.931	1982.43
765.114	1802.21
765.297	1861.6
765.481	1830.88
765.664	1925.09
765.847	1826.79
766.03	1964
766.213	1761.25
766.397	1728.49
766.58	1779.68
766.763	1888.23
766.946	1787.88
767.129	1773.54
767.312	1763.3
767.495	1837.03
767.678	1687.53
767.861	1773.54
768.044	1763.3
768.227	1787.88
768.41	1732.58
768.593	1753.06
768.776	1808.36
768.959	1636.33
769.142	1642.47
769.324	1673.19
769.507	1595.37
769.69	1640.42
769.873	1693.67
770.056	1744.87
770.239	1630.18
770.421	1697.77
770.604	1603.56
770.787	1609.7
770.97	1675.24
771.152	1503.21
771.335	1603.56
771.518	1556.46
771.7	1609.7
771.883	1587.18
772.066	1484.78
772.248	1531.88
772.431	1540.07
772.613	1613.8
772.796	1433.58
772.978	1578.98
773.161	1513.45
773.343	1501.16
773.526	1460.2
773.708	1511.4
773.891	1546.22
774.073	1439.72
774.256	1425.39
774.438	1499.11
774.621	1341.42
774.803	1384.43
774.985	1339.37
775.168	1413.1
775.35	1345.52
775.532	1304.56
775.715	1370.09
775.897	1361.9
776.079	1286.12
776.261	1337.32
776.444	1236.97
776.626	1181.68
776.808	1339.37
776.99	1259.5
777.173	1343.47
777.355	1230.83
777.537	1251.31
777.719	1284.08
777.901	1228.78
778.083	1191.92
778.265	1034.22
778.447	1169.39
778.629	1144.81
778.811	1173.49
778.993	1204.21
779.175	1224.69
779.357	1161.2
779.539	1011.7
779.721	1050.61
779.903	1058.8
780.085	1048.56
780.267	1023.98
780.449	1048.56
780.631	1159.15
780.812	1066.99
780.994	1112.05
781.176	927.73
781.358	1058.8
781.54	1032.18
781.721	1075.18
781.903	1095.66
782.085	929.78
782.267	978.93
782.448	1007.6
782.63	890.87
782.812	978.93
782.993	952.31
783.175	1019.89
783.357	911.35
783.538	987.12
783.72	901.11
783.901	878.58
784.083	835.57
784.264	884.72
784.446	858.1
784.627	894.96
784.809	933.87
784.99	888.82
785.172	856.05
785.353	823.28
785.535	847.86
785.716	774.13
785.897	731.12
786.079	890.87
786.26	901.11
786.441	827.38
786.623	757.75
786.804	811
786.985	860.15
787.167	757.75
787.348	782.32
787.529	763.89
787.71	796.66
787.891	714.74
788.073	739.32
788.254	688.12
788.435	755.7
788.616	735.22
788.797	673.78
788.978	690.17
789.159	706.55
789.34	696.31
789.522	690.17
789.703	729.08
789.884	663.54
790.065	669.69
790.246	716.79
790.427	667.64
790.607	700.41
790.788	808.95
790.969	688.12
791.15	708.6
791.331	704.5
791.512	571.38
791.693	604.15
791.874	610.29
792.054	653.3
792.235	669.69
792.416	622.58
792.597	511.99
792.778	614.39
792.958	630.77
793.139	583.67
793.32	634.87
793.5	569.34
793.681	598.01
793.862	641.01
794.042	565.24
794.223	495.61
794.404	538.62
794.584	532.47
794.765	555
794.945	548.86
795.126	651.25
795.306	612.34
795.487	583.67
795.667	522.23
795.848	669.69
796.028	485.37
796.209	501.75
796.389	540.66
796.57	511.99
796.75	430.07
796.93	511.99
797.111	567.29
797.291	509.94
797.471	530.42
797.652	563.19
797.832	491.51
798.012	548.86
798.192	454.65
798.373	397.31
798.553	452.6
798.733	503.8
798.913	466.94
799.093	485.37
799.274	409.59
799.454	479.22
799.634	509.94
799.814	501.75
799.994	432.12
800.174	499.7
800.354	468.98
800.534	452.6
800.714	415.74
800.894	415.74
801.074	434.17
801.254	468.98
801.434	454.65
801.614	395.26
801.794	446.46
801.974	1179.63
802.154	301.05
802.334	440.31
802.514	339.96
802.693	425.98
802.873	417.79
803.053	477.18
803.233	389.11
803.413	399.35
803.592	346.11
803.772	425.98
803.952	382.97
804.131	342.01
804.311	405.5
804.491	423.93
804.67	413.69
804.85	423.93
805.03	452.6
805.209	368.63
805.389	385.02
805.568	333.82
805.748	421.88
805.928	327.67
806.107	366.59
806.287	356.35
806.466	356.35
806.646	337.91
806.825	307.2
807.004	370.68
807.184	337.91
807.363	442.36
807.543	331.77
807.722	366.59
807.901	327.67
808.081	419.83
808.26	296.96
808.439	350.2
808.619	337.91
808.798	323.58
808.977	319.48
809.156	358.39
809.336	313.34
809.515	350.2
809.694	305.15
809.873	331.77
810.052	348.15
810.231	360.44
810.411	288.76
810.59	329.72
810.769	344.06
810.948	344.06
811.127	245.76
811.306	264.19
811.485	356.35
811.664	288.76
811.843	395.26
812.022	315.39
812.201	280.57
812.38	294.91
812.559	311.29
812.737	253.95
812.916	256
813.095	215.04
813.274	280.57
813.453	231.42
813.632	292.86
813.811	378.87
813.989	190.46
814.168	229.37
814.347	290.81
814.526	229.37
814.704	354.3
814.883	243.71
815.062	184.32
815.24	333.82
815.419	202.75
815.598	272.38
815.776	243.71
815.955	288.76
816.133	233.47
816.312	270.33
816.49	258.04
816.669	233.47
816.847	290.81
817.026	309.24
817.204	182.27
817.383	208.89
817.561	217.08
817.74	280.57
817.918	194.56
818.097	227.32
818.275	169.98
818.453	221.18
818.632	229.37
818.81	221.18
818.988	210.94
819.167	190.46
819.345	264.19
819.523	262.14
819.701	180.22
819.879	290.81
820.058	237.56
820.236	286.72
820.414	169.98
820.592	145.41
820.77	178.17
820.948	172.03
821.127	106.49
821.305	190.46
821.483	208.89
821.661	178.17
821.839	212.99
822.017	186.37
822.195	83.97
822.373	221.18
822.551	241.66
822.729	182.27
822.907	231.42
823.085	215.04
823.262	227.32
823.44	174.08
823.618	229.37
823.796	190.46
823.974	184.32
824.152	186.37
824.329	212.99
824.507	190.46
824.685	165.89
824.863	186.37
825.04	131.07
825.218	188.41
825.396	223.23
825.574	186.37
825.751	210.94
825.929	239.61
826.107	118.78
826.284	176.13
826.462	208.89
826.639	165.89
826.817	104.45
826.994	186.37
827.172	155.65
827.349	172.03
827.527	139.26
827.704	81.92
827.882	178.17
828.059	151.55
828.237	200.7
828.414	270.33
828.591	112.64
828.769	194.56
828.946	159.74
829.124	237.56
829.301	129.02
829.478	151.55
829.655	118.78
829.833	155.65
830.01	79.87
830.187	221.18
830.364	153.6
830.542	86.01
830.719	139.26
830.896	143.36
831.073	112.64
831.25	184.32
831.427	247.8
831.604	100.35
831.782	157.69
831.959	129.02
832.136	180.22
832.313	141.31
832.49	75.77
832.667	157.69
832.844	96.25
833.021	194.56
833.198	145.41
833.374	141.31
833.551	135.17
833.728	106.49
833.905	135.17
834.082	94.21
834.259	104.45
834.436	169.98
834.612	14.34
834.789	122.88
834.966	106.49
835.143	135.17
835.319	184.32
835.496	204.8
835.673	122.88
835.85	98.3
836.026	163.84
836.203	141.31
836.38	73.73
836.556	176.13
836.733	57.34
836.909	172.03
837.086	139.26
837.262	77.82
837.439	114.69
837.616	143.36
837.792	114.69
837.968	153.6
838.145	94.21
838.321	86.01
838.498	124.93
838.674	178.17
838.851	79.87
839.027	116.73
839.203	69.63
839.38	114.69
839.556	135.17
839.732	210.94
839.909	120.83
840.085	149.5
840.261	98.3
840.437	155.65
840.614	49.15
840.79	86.01
840.966	114.69
841.142	98.3
841.318	92.16
841.494	135.17
841.671	38.91
841.847	67.58
842.023	61.44
842.199	98.3
842.375	131.07
842.551	108.54
842.727	-16.38
842.903	102.4
843.079	108.54
843.255	133.12
843.431	65.53
843.607	34.82
843.783	30.72
843.959	38.91
844.134	92.16
844.31	143.36
844.486	102.4
844.662	22.53
844.838	-28.67
845.013	163.84
845.189	77.82
845.365	-2.05
845.541	139.26
845.716	55.3
845.892	94.21
846.068	51.2
846.244	88.06
846.419	61.44
846.595	55.3
846.77	63.49
846.946	116.73
847.122	63.49
847.297	57.34
847.473	137.21
847.648	-12.29
847.824	51.2
847.999	14.34
848.175	102.4
848.35	139.26
848.526	169.98
848.701	63.49
848.876	71.68
849.052	102.4
849.227	36.86
849.403	43.01
849.578	22.53
849.753	38.91
849.929	34.82
850.104	10.24
850.279	59.39
850.454	90.11
850.63	98.3
850.805	83.97
850.98	83.97
851.155	34.82
851.33	98.3
851.505	-22.53
851.681	129.02
851.856	12.29
852.031	92.16
852.206	47.1
852.381	73.73
852.556	-4.1
852.731	43.01
852.906	98.3
853.081	55.3
853.256	96.25
853.431	112.64
853.606	-6.14
853.781	4.1
853.956	98.3
854.131	63.49
854.305	30.72
854.48	-4.1
854.655	30.72
854.83	-26.62
855.005	75.77
855.18	108.54
855.354	-0
855.529	30.72
855.704	57.34
855.879	118.78
856.053	61.44
856.228	45.06
856.403	8.19
856.577	18.43
856.752	-16.38
856.926	26.62
857.101	49.15
857.276	36.86
857.45	65.53
857.625	63.49
857.799	-12.29
857.974	131.07
858.148	18.43
858.323	75.77
858.497	28.67
858.672	24.58
858.846	55.3
859.02	40.96
859.195	28.67
859.369	110.59
859.543	61.44
859.718	6.14
859.892	18.43
860.066	4.1
860.241	20.48
860.415	36.86
860.589	71.68
860.763	32.77
860.938	92.16
861.112	55.3
861.286	112.64
861.46	59.39
861.634	10.24
861.808	20.48
861.982	49.15
862.157	22.53
862.331	-49.15
862.505	-0
862.679	-4.1
862.853	32.77
863.027	10.24
863.201	129.02
863.375	51.2
863.549	26.62
863.722	28.67
863.896	102.4
864.07	67.58
864.244	61.44
864.418	6.14
864.592	63.49
864.766	24.58
864.939	36.86
865.113	51.2
865.287	71.68
865.461	-4.1
865.634	-6.14
865.808	16.38
865.982	67.58
866.156	43.01
866.329	-0
866.503	-12.29
866.676	94.21
866.85	36.86
867.024	90.11
867.197	34.82
867.371	-10.24
867.544	65.53
867.718	67.58
867.891	63.49
868.065	34.82
868.238	38.91
868.412	43.01
868.585	26.62
868.759	38.91
868.932	-61.44
869.105	16.38
869.279	-38.91
869.452	-4.1
869.625	32.77
869.799	65.53
869.972	-59.39
870.145	40.96
870.319	81.92
870.492	-43.01
870.665	4.1
870.838	22.53
871.011	-28.67
871.185	28.67
871.358	-30.72
871.531	12.29
871.704	-49.15
871.877	57.34
872.05	59.39
872.223	57.34
872.396	-16.38
872.569	65.53
872.742	24.58
872.915	55.3
873.088	-24.58
873.261	-26.62
873.434	16.38
873.607	6.14
873.78	53.25
873.953	-38.91
874.126	14.34
874.299	22.53
874.471	-75.77
874.644	-26.62
874.817	49.15
874.99	71.68
875.163	38.91
875.335	22.53
875.508	43.01
875.681	8.19
875.853	-32.77
876.026	-6.14
876.199	12.29
876.371	43.01
876.544	-30.72
876.717	38.91
876.889	-12.29
877.062	20.48
877.234	18.43
877.407	4.1
877.579	2.05
877.752	75.77
877.924	108.54
878.097	61.44
878.269	-40.96
878.442	57.34
878.614	75.77
878.786	-8.19
878.959	-36.86
879.131	47.1
879.303	32.77
879.476	-36.86
879.648	38.91
879.82	92.16
879.993	-49.15
880.165	-30.72
880.337	-30.72
880.509	-30.72
880.681	20.48
880.854	-0
881.026	8.19
881.198	43.01
881.37	94.21
881.542	20.48
881.714	-49.15
881.886	12.29
882.058	8.19
882.23	-32.77
882.402	-38.91
882.574	18.43
882.746	10.24
882.918	36.86
883.09	-28.67
883.262	18.43
883.434	8.19
883.606	-65.54
883.778	-6.14
883.95	34.82
884.122	20.48
884.293	-12.29
884.465	20.48
884.637	63.49
884.809	-8.19
884.98	-38.91
885.152	71.68
885.324	26.62
885.496	-16.38
885.667	57.34
885.839	-53.25
886.011	43.01
886.182	-24.58
886.354	69.63
886.525	10.24
886.697	30.72
886.869	-45.06
887.04	-8.19
887.212	116.73
887.383	108.54
887.555	22.53
887.726	-18.43
887.897	10.24
888.069	-16.38
888.24	2.05
888.412	10.24
888.583	-73.73
888.754	92.16
888.926	6.14
889.097	57.34
889.268	-38.91
889.44	-2.05
889.611	45.06
889.782	-43.01
889.953	6.14
890.125	38.91
890.296	-32.77
890.467	2.05
890.638	-51.2
890.809	38.91
890.98	-114.69
891.151	-38.91
891.323	32.77
891.494	18.43
891.665	-6.14
891.836	-22.53
892.007	-55.3
892.178	53.25
892.349	-12.29
892.52	-0
892.691	63.49
892.862	-47.1
893.032	-38.91
893.203	90.11
893.374	-2.05
893.545	-8.19
893.716	59.39
893.887	18.43
894.057	57.34
894.228	-28.67
894.399	28.67
894.57	16.38
894.74	36.86
894.911	-26.62
895.082	4.1
895.253	-30.72
895.423	38.91
895.594	38.91
895.764	-51.2
895.935	-6.14
896.106	-0
896.276	28.67
896.447	-8.19
896.617	83.97
896.788	10.24
896.958	-4.1
897.129	63.49
897.299	40.96
897.47	55.3
897.64	12.29
897.81	-0
897.981	32.77
898.151	-38.91
898.322	-6.14
898.492	-26.62
898.662	-83.97
898.832	-16.38
899.003	-22.53
899.173	-30.72
899.343	-18.43
899.513	-2.05
