Data from USB4F104151__0__12-23-14-345.txt Node

Date: Fri Mar 14 12:23:14 EDT 2025
User: louis
Spectrometer: USB4F10415
Trigger mode: 4
Integration Time (sec): 3.500000E-2
Scans to average: 1
Electric dark correction enabled: true
Nonlinearity correction enabled: false
Boxcar width: 0
XAxis mode: Wavelengths
Number of Pixels in Spectrum: 3648
>>>>>Begin Spectral Data<<<<<
178.204	-97.45
178.424	-97.45
178.644	-97.45
178.864	-191.66
179.084	-187.56
179.304	9.05
179.524	-19.63
179.744	13.14
179.964	50
180.184	-29.87
180.404	50
180.624	11.09
180.844	27.48
181.064	-56.49
181.283	-23.72
181.503	-48.3
181.723	17.24
181.943	-91.31
182.163	88.92
182.383	17.24
182.602	129.88
182.822	105.3
183.042	76.63
183.262	0.85
183.482	-23.72
183.701	58.2
183.921	33.62
184.141	-9.39
184.361	7
184.58	-31.91
184.8	70.48
185.02	-44.2
185.239	97.11
185.459	-11.43
185.679	62.29
185.898	-42.15
186.118	27.48
186.338	2.9
186.557	56.15
186.777	-19.63
186.997	58.2
187.216	47.96
187.436	80.72
187.655	58.2
187.875	35.67
188.095	9.05
188.314	58.2
188.534	60.24
188.753	-29.87
188.973	56.15
189.192	52.05
189.412	64.34
189.631	35.67
189.851	-44.2
190.07	72.53
190.29	-52.39
190.509	72.53
190.729	-48.3
190.948	37.72
191.168	146.26
191.387	4.95
191.607	13.14
191.826	-85.16
192.045	17.24
192.265	-29.87
192.484	-7.34
192.704	23.38
192.923	-38.06
193.142	80.72
193.362	31.57
193.581	99.16
193.8	-13.48
194.02	39.76
194.239	-36.01
194.458	4.95
194.678	-17.58
194.897	72.53
195.116	47.96
195.335	25.43
195.555	19.29
195.774	15.19
195.993	-3.24
196.212	56.15
196.432	70.48
196.651	-33.96
196.87	45.91
197.089	105.3
197.308	-19.63
197.528	84.82
197.747	41.81
197.966	-25.77
198.185	152.4
198.404	23.38
198.623	41.81
198.842	41.81
199.062	39.76
199.281	39.76
199.5	109.4
199.719	-5.29
199.938	66.39
200.157	19.29
200.376	80.72
200.595	29.52
200.814	-40.11
201.033	39.76
201.252	29.52
201.471	-46.25
201.69	74.58
201.909	11.09
202.128	-11.43
202.347	11.09
202.566	-19.63
202.785	-36.01
203.004	-17.58
203.223	41.81
203.442	60.24
203.661	4.95
203.879	2.9
204.098	23.38
204.317	-36.01
204.536	50
204.755	68.44
204.974	52.05
205.193	50
205.411	174.93
205.63	17.24
205.849	23.38
206.068	60.24
206.287	4.95
206.505	54.1
206.724	35.67
206.943	-23.72
207.162	-29.87
207.381	17.24
207.599	17.24
207.818	21.33
208.037	9.05
208.255	11.09
208.474	62.29
208.693	50
208.911	-89.26
209.13	35.67
209.349	60.24
209.567	50
209.786	33.62
210.005	-5.29
210.223	7
210.442	-38.06
210.661	37.72
210.879	-23.72
211.098	-1.19
211.316	80.72
211.535	131.92
211.753	84.82
211.972	-11.43
212.191	70.48
212.409	-5.29
212.628	11.09
212.846	84.82
213.065	119.64
213.283	27.48
213.502	54.1
213.72	33.62
213.938	-25.77
214.157	-13.48
214.375	-23.72
214.594	-52.39
214.812	13.14
215.031	-27.82
215.249	-9.39
215.467	37.72
215.686	4.95
215.904	60.24
216.122	-40.11
216.341	97.11
216.559	21.33
216.778	25.43
216.996	60.24
217.214	37.72
217.432	-7.34
217.651	15.19
217.869	-9.39
218.087	-25.77
218.306	11.09
218.524	68.44
218.742	43.86
218.96	78.68
219.179	19.29
219.397	-5.29
219.615	103.25
219.833	119.64
220.051	-50.35
220.27	117.59
220.488	25.43
220.706	66.39
220.924	-17.58
221.142	-11.43
221.36	2.9
221.578	103.25
221.796	19.29
222.015	-3.24
222.233	-1.19
222.451	62.29
222.669	37.72
222.887	76.63
223.105	15.19
223.323	33.62
223.541	21.33
223.759	-1.19
223.977	66.39
224.195	52.05
224.413	60.24
224.631	-19.63
224.849	19.29
225.067	88.92
225.285	52.05
225.503	45.91
225.721	-33.96
225.939	-23.72
226.157	27.48
226.375	109.4
226.592	21.33
226.81	-15.53
227.028	54.1
227.246	72.53
227.464	-25.77
227.682	95.06
227.9	23.38
228.117	47.96
228.335	64.34
228.553	56.15
228.771	54.1
228.989	-21.67
229.206	23.38
229.424	74.58
229.642	-13.48
229.86	58.2
230.077	11.09
230.295	-38.06
230.513	15.19
230.731	80.72
230.948	136.02
231.166	127.83
231.384	-1.19
231.601	50
231.819	74.58
232.037	-105.64
232.254	-19.63
232.472	-33.96
232.689	17.24
232.907	13.14
233.125	47.96
233.342	-5.29
233.56	-3.24
233.777	11.09
233.995	-36.01
234.213	66.39
234.43	68.44
234.648	47.96
234.865	21.33
235.083	7
235.3	4.95
235.518	29.52
235.735	-38.06
235.953	58.2
236.17	54.1
236.388	0.85
236.605	64.34
236.822	84.82
237.04	72.53
237.257	80.72
237.475	-11.43
237.692	13.14
237.909	66.39
238.127	-25.77
238.344	64.34
238.562	84.82
238.779	-15.53
238.996	27.48
239.214	62.29
239.431	-23.72
239.648	-36.01
239.865	84.82
240.083	62.29
240.3	0.85
240.517	-5.29
240.735	11.09
240.952	121.68
241.169	78.68
241.386	2.9
241.603	82.77
241.821	-36.01
242.038	176.98
242.255	70.48
242.472	-81.07
242.689	52.05
242.907	21.33
243.124	64.34
243.341	17.24
243.558	-3.24
243.775	-40.11
243.992	-13.48
244.209	70.48
244.426	123.73
244.643	97.11
244.86	41.81
245.078	121.68
245.295	29.52
245.512	31.57
245.729	82.77
245.946	9.05
246.163	101.2
246.38	29.52
246.597	47.96
246.814	103.25
247.031	-31.91
247.248	35.67
247.464	35.67
247.681	-17.58
247.898	68.44
248.115	60.24
248.332	7
248.549	47.96
248.766	131.92
248.983	123.73
249.2	60.24
249.417	39.76
249.633	-15.53
249.85	25.43
250.067	29.52
250.284	-11.43
250.501	52.05
250.717	37.72
250.934	17.24
251.151	29.52
251.368	-7.34
251.585	7
251.801	2.9
252.018	-31.91
252.235	-19.63
252.451	11.09
252.668	80.72
252.885	78.68
253.102	41.81
253.318	142.16
253.535	-42.15
253.752	39.76
253.968	43.86
254.185	-7.34
254.401	-19.63
254.618	129.88
254.835	72.53
255.051	-9.39
255.268	62.29
255.484	43.86
255.701	15.19
255.917	80.72
256.134	62.29
256.351	31.57
256.567	27.48
256.784	66.39
257	-40.11
257.217	90.96
257.433	35.67
257.65	52.05
257.866	107.35
258.082	-1.19
258.299	-62.63
258.515	56.15
258.732	15.19
258.948	76.63
259.165	-3.24
259.381	45.91
259.597	0.85
259.814	-60.59
260.03	-11.43
260.246	15.19
260.463	41.81
260.679	93.01
260.895	54.1
261.112	15.19
261.328	-31.91
261.544	23.38
261.761	54.1
261.977	31.57
262.193	-48.3
262.409	-38.06
262.626	4.95
262.842	76.63
263.058	-85.16
263.274	82.77
263.49	68.44
263.707	93.01
263.923	29.52
264.139	29.52
264.355	-7.34
264.571	62.29
264.787	-31.91
265.004	105.3
265.22	68.44
265.436	72.53
265.652	-23.72
265.868	39.76
266.084	-1.19
266.3	7
266.516	-91.31
266.732	86.87
266.948	29.52
267.164	43.86
267.38	23.38
267.596	41.81
267.812	56.15
268.028	101.2
268.244	43.86
268.46	66.39
268.676	-40.11
268.892	-15.53
269.108	148.31
269.324	-9.39
269.54	23.38
269.756	39.76
269.972	-36.01
270.188	76.63
270.403	-19.63
270.619	-19.63
270.835	62.29
271.051	37.72
271.267	11.09
271.483	4.95
271.698	23.38
271.914	90.96
272.13	54.1
272.346	23.38
272.562	25.43
272.777	2.9
272.993	21.33
273.209	68.44
273.425	13.14
273.64	-17.58
273.856	0.85
274.072	35.67
274.287	4.95
274.503	93.01
274.719	119.64
274.934	33.62
275.15	13.14
275.366	101.2
275.581	-11.43
275.797	54.1
276.012	19.29
276.228	54.1
276.444	31.57
276.659	82.77
276.875	-21.67
277.09	27.48
277.306	39.76
277.521	43.86
277.737	4.95
277.952	84.82
278.168	13.14
278.383	13.14
278.599	37.72
278.814	17.24
279.03	-21.67
279.245	97.11
279.461	15.19
279.676	136.02
279.892	21.33
280.107	-62.63
280.322	41.81
280.538	56.15
280.753	15.19
280.969	15.19
281.184	50
281.399	17.24
281.615	58.2
281.83	33.62
282.045	25.43
282.26	-33.96
282.476	19.29
282.691	74.58
282.906	9.05
283.122	47.96
283.337	-33.96
283.552	60.24
283.767	39.76
283.983	62.29
284.198	19.29
284.413	-23.72
284.628	78.68
284.843	60.24
285.058	-23.72
285.274	35.67
285.489	60.24
285.704	105.3
285.919	17.24
286.134	43.86
286.349	60.24
286.564	72.53
286.779	80.72
286.995	15.19
287.21	-1.19
287.425	70.48
287.64	27.48
287.855	31.57
288.07	-19.63
288.285	62.29
288.5	47.96
288.715	37.72
288.93	17.24
289.145	35.67
289.36	70.48
289.575	76.63
289.79	29.52
290.004	37.72
290.219	99.16
290.434	29.52
290.649	-11.43
290.864	107.35
291.079	-40.11
291.294	70.48
291.509	-11.43
291.724	13.14
291.938	-23.72
292.153	27.48
292.368	-23.72
292.583	13.14
292.798	27.48
293.012	-15.53
293.227	56.15
293.442	107.35
293.657	47.96
293.871	47.96
294.086	-5.29
294.301	56.15
294.516	43.86
294.73	84.82
294.945	27.48
295.16	-27.82
295.374	80.72
295.589	-15.53
295.804	19.29
296.018	133.97
296.233	58.2
296.447	52.05
296.662	-9.39
296.877	146.26
297.091	68.44
297.306	13.14
297.52	31.57
297.735	43.86
297.949	37.72
298.164	27.48
298.378	29.52
298.593	54.1
298.807	47.96
299.022	-27.82
299.236	-3.24
299.451	31.57
299.665	52.05
299.88	0.85
300.094	58.2
300.309	-29.87
300.523	50
300.737	2.9
300.952	13.14
301.166	-38.06
301.381	-17.58
301.595	62.29
301.809	2.9
302.024	-17.58
302.238	11.09
302.452	-17.58
302.667	39.76
302.881	97.11
303.095	-33.96
303.309	74.58
303.524	68.44
303.738	23.38
303.952	97.11
304.166	7
304.381	-31.91
304.595	4.95
304.809	35.67
305.023	45.91
305.237	50
305.452	62.29
305.666	80.72
305.88	72.53
306.094	105.3
306.308	9.05
306.522	21.33
306.736	45.91
306.95	78.68
307.164	39.76
307.379	33.62
307.593	78.68
307.807	52.05
308.021	11.09
308.235	47.96
308.449	31.57
308.663	41.81
308.877	148.31
309.091	-36.01
309.305	-38.06
309.519	-11.43
309.733	-40.11
309.947	21.33
310.161	27.48
310.374	11.09
310.588	72.53
310.802	13.14
311.016	-46.25
311.23	-33.96
311.444	13.14
311.658	-11.43
311.872	25.43
312.085	50
312.299	45.91
312.513	95.06
312.727	17.24
312.941	45.91
313.154	37.72
313.368	-3.24
313.582	-3.24
313.796	88.92
314.009	29.52
314.223	146.26
314.437	23.38
314.651	70.48
314.864	88.92
315.078	-17.58
315.292	-13.48
315.505	0.85
315.719	2.9
315.933	29.52
316.146	56.15
316.36	-40.11
316.573	76.63
316.787	17.24
317.001	50
317.214	-54.44
317.428	52.05
317.641	72.53
317.855	11.09
318.068	23.38
318.282	2.9
318.495	129.88
318.709	35.67
318.922	27.48
319.136	138.07
319.349	54.1
319.563	13.14
319.776	27.48
319.99	4.95
320.203	58.2
320.417	-13.48
320.63	80.72
320.843	109.4
321.057	15.19
321.27	-3.24
321.483	29.52
321.697	58.2
321.91	-38.06
322.124	25.43
322.337	50
322.55	25.43
322.763	-46.25
322.977	54.1
323.19	35.67
323.403	0.85
323.617	136.02
323.83	45.91
324.043	11.09
324.256	62.29
324.469	-62.63
324.683	95.06
324.896	-44.2
325.109	31.57
325.322	-19.63
325.535	9.05
325.748	17.24
325.962	-11.43
326.175	64.34
326.388	23.38
326.601	-1.19
326.814	47.96
327.027	37.72
327.24	140.12
327.453	-85.16
327.666	97.11
327.879	47.96
328.092	41.81
328.305	47.96
328.518	-25.77
328.731	50
328.944	21.33
329.157	58.2
329.37	9.05
329.583	129.88
329.796	107.35
330.009	-54.44
330.222	50
330.435	4.95
330.648	119.64
330.861	43.86
331.073	11.09
331.286	125.78
331.499	70.48
331.712	-44.2
331.925	99.16
332.138	-29.87
332.35	21.33
332.563	7
332.776	103.25
332.989	17.24
333.202	9.05
333.414	-42.15
333.627	43.86
333.84	45.91
334.053	52.05
334.265	21.33
334.478	15.19
334.691	29.52
334.903	13.14
335.116	58.2
335.329	0.85
335.541	29.52
335.754	52.05
335.966	31.57
336.179	47.96
336.392	4.95
336.604	-44.2
336.817	88.92
337.029	23.38
337.242	90.96
337.454	80.72
337.667	4.95
337.88	45.91
338.092	23.38
338.305	-50.35
338.517	-58.54
338.729	84.82
338.942	88.92
339.154	4.95
339.367	21.33
339.579	19.29
339.792	37.72
340.004	17.24
340.217	-36.01
340.429	62.29
340.641	-15.53
340.854	68.44
341.066	2.9
341.278	52.05
341.491	138.07
341.703	33.62
341.915	-48.3
342.128	56.15
342.34	43.86
342.552	52.05
342.764	43.86
342.977	-7.34
343.189	-31.91
343.401	21.33
343.613	103.25
343.826	11.09
344.038	-3.24
344.25	66.39
344.462	17.24
344.674	45.91
344.886	-11.43
345.099	117.59
345.311	27.48
345.523	15.19
345.735	-36.01
345.947	4.95
346.159	35.67
346.371	4.95
346.583	68.44
346.795	62.29
347.007	103.25
347.219	7
347.431	9.05
347.643	-1.19
347.855	-13.48
348.067	97.11
348.279	-7.34
348.491	68.44
348.703	47.96
348.915	-31.91
349.127	39.76
349.339	-11.43
349.551	4.95
349.763	7
349.975	37.72
350.187	52.05
350.399	-33.96
350.61	43.86
350.822	-5.29
351.034	-11.43
351.246	15.19
351.458	9.05
351.669	50
351.881	70.48
352.093	60.24
352.305	160.59
352.517	60.24
352.728	84.82
352.94	21.33
353.152	62.29
353.363	11.09
353.575	11.09
353.787	58.2
353.999	80.72
354.21	123.73
354.422	-11.43
354.633	13.14
354.845	-5.29
355.057	-21.67
355.268	88.92
355.48	19.29
355.692	-5.29
355.903	27.48
356.115	-5.29
356.326	64.34
356.538	111.44
356.749	11.09
356.961	27.48
357.172	58.2
357.384	-31.91
357.595	82.77
357.807	-9.39
358.018	17.24
358.23	-19.63
358.441	58.2
358.653	82.77
358.864	37.72
359.075	19.29
359.287	13.14
359.498	39.76
359.709	37.72
359.921	117.59
360.132	56.15
360.344	9.05
360.555	-54.44
360.766	-33.96
360.977	84.82
361.189	88.92
361.4	23.38
361.611	119.64
361.823	56.15
362.034	80.72
362.245	-46.25
362.456	-11.43
362.667	99.16
362.879	-48.3
363.09	-11.43
363.301	31.57
363.512	27.48
363.723	70.48
363.935	-13.48
364.146	-9.39
364.357	21.33
364.568	37.72
364.779	-13.48
364.99	84.82
365.201	4.95
365.412	170.83
365.623	27.48
365.834	-1.19
366.045	21.33
366.256	64.34
366.467	-15.53
366.678	105.3
366.889	21.33
367.1	-27.82
367.311	107.35
367.522	58.2
367.733	25.43
367.944	-1.19
368.155	9.05
368.366	29.52
368.577	99.16
368.788	50
368.999	11.09
369.209	60.24
369.42	72.53
369.631	117.59
369.842	60.24
370.053	35.67
370.264	41.81
370.474	31.57
370.685	19.29
370.896	-7.34
371.107	52.05
371.317	54.1
371.528	19.29
371.739	84.82
371.95	7
372.16	56.15
372.371	25.43
372.582	-56.49
372.792	17.24
373.003	29.52
373.214	31.57
373.424	125.78
373.635	66.39
373.846	105.3
374.056	-3.24
374.267	45.91
374.477	15.19
374.688	70.48
374.898	21.33
375.109	54.1
375.319	62.29
375.53	47.96
375.74	54.1
375.951	72.53
376.161	17.24
376.372	76.63
376.582	-3.24
376.793	80.72
377.003	23.38
377.214	-83.11
377.424	50
377.635	31.57
377.845	15.19
378.055	121.68
378.266	11.09
378.476	-42.15
378.686	88.92
378.897	-5.29
379.107	54.1
379.317	62.29
379.528	50
379.738	-17.58
379.948	23.38
380.158	47.96
380.369	23.38
380.579	35.67
380.789	25.43
380.999	-3.24
381.21	111.44
381.42	47.96
381.63	2.9
381.84	74.58
382.05	19.29
382.261	111.44
382.471	107.35
382.681	45.91
382.891	152.4
383.101	109.4
383.311	-38.06
383.521	-29.87
383.731	43.86
383.941	105.3
384.151	88.92
384.361	23.38
384.571	56.15
384.781	15.19
384.991	52.05
385.201	105.3
385.411	27.48
385.621	76.63
385.831	19.29
386.041	11.09
386.251	43.86
386.461	109.4
386.671	35.67
386.881	62.29
387.091	15.19
387.301	23.38
387.511	64.34
387.72	133.97
387.93	88.92
388.14	-52.39
388.35	90.96
388.56	86.87
388.769	170.83
388.979	78.68
389.189	25.43
389.399	33.62
389.609	50
389.818	62.29
390.028	113.49
390.238	76.63
390.447	23.38
390.657	-3.24
390.867	11.09
391.076	31.57
391.286	15.19
391.496	29.52
391.705	-27.82
391.915	123.73
392.125	164.69
392.334	72.53
392.544	121.68
392.753	43.86
392.963	76.63
393.172	4.95
393.382	95.06
393.591	125.78
393.801	-31.91
394.01	62.29
394.22	115.54
394.429	39.76
394.639	23.38
394.848	78.68
395.058	123.73
395.267	41.81
395.477	43.86
395.686	19.29
395.895	162.64
396.105	117.59
396.314	95.06
396.524	95.06
396.733	99.16
396.942	107.35
397.152	78.68
397.361	136.02
397.57	47.96
397.78	15.19
397.989	129.88
398.198	86.87
398.407	56.15
398.617	78.68
398.826	43.86
399.035	86.87
399.244	131.92
399.453	70.48
399.663	58.2
399.872	119.64
400.081	97.11
400.29	121.68
400.499	7
400.708	58.2
400.917	-3.24
401.127	25.43
401.336	54.1
401.545	109.4
401.754	86.87
401.963	105.3
402.172	80.72
402.381	62.29
402.59	99.16
402.799	27.48
403.008	111.44
403.217	105.3
403.426	103.25
403.635	56.15
403.844	52.05
404.053	86.87
404.262	97.11
404.471	207.7
404.68	52.05
404.888	109.4
405.097	56.15
405.306	93.01
405.515	52.05
405.724	138.07
405.933	195.41
406.142	97.11
406.35	183.12
406.559	185.17
406.768	127.83
406.977	197.46
407.185	172.88
407.394	80.72
407.603	84.82
407.812	162.64
408.02	183.12
408.229	166.74
408.438	164.69
408.646	119.64
408.855	172.88
409.064	197.46
409.272	230.23
409.481	201.55
409.69	176.98
409.898	127.83
410.107	201.55
410.315	226.13
410.524	127.83
410.733	234.32
410.941	213.84
411.15	267.09
411.358	252.75
411.567	314.19
411.775	326.48
411.984	232.27
412.192	250.71
412.401	265.04
412.609	301.9
412.818	344.91
413.026	299.86
413.234	306
413.443	426.83
413.651	318.29
413.86	338.77
414.068	381.78
414.276	410.45
414.485	422.73
414.693	430.93
414.901	451.41
415.11	465.74
415.318	463.69
415.526	441.17
415.734	498.51
415.943	461.65
416.151	525.13
416.359	527.18
416.567	553.8
416.776	525.13
416.984	568.14
417.192	654.16
417.4	625.48
417.608	635.72
417.817	658.25
418.025	666.44
418.233	742.22
418.441	795.47
418.649	731.98
418.857	754.51
419.065	893.77
419.273	734.03
419.481	809.8
419.689	840.52
419.897	889.67
420.105	887.62
420.313	990.02
420.521	1024.84
420.729	987.97
420.937	1082.18
421.145	1164.1
421.353	1088.32
421.561	1213.25
421.769	1168.2
421.977	1229.63
422.185	1293.12
422.393	1323.84
422.601	1448.77
422.809	1409.86
423.017	1479.49
423.224	1463.1
423.432	1551.17
423.64	1516.35
423.848	1639.23
424.056	1684.28
424.263	1696.57
424.471	1796.92
424.679	1829.69
424.887	1905.46
425.094	1846.07
425.302	1979.19
425.51	1966.9
425.718	2179.89
425.925	2081.59
426.133	2169.65
426.341	2233.14
426.548	2552.62
426.756	2427.7
426.964	2495.28
427.171	2591.53
427.379	2450.22
427.586	2646.83
427.794	2802.47
428.001	2898.73
428.209	3050.28
428.417	3003.18
428.624	3308.32
428.832	3101.48
429.039	3128.1
429.247	3269.41
429.454	3470.11
429.662	3617.57
429.869	3377.95
430.076	3758.88
430.284	3498.78
430.491	3795.74
430.699	3949.34
430.906	4061.98
431.114	4006.68
431.321	4207.38
431.528	4399.89
431.736	4578.06
431.943	4858.64
432.15	4754.19
432.358	4743.95
432.565	4879.11
432.772	4918.03
432.979	5356.29
433.187	5335.81
433.394	5301
433.601	5763.84
433.808	5833.47
434.016	5663.49
434.223	5888.76
434.43	6224.63
434.637	6116.09
434.844	6466.29
435.052	6695.66
435.259	6583.02
435.466	6722.29
435.673	6671.09
435.88	7023.34
436.087	7234.28
436.294	7465.7
436.501	7305.96
436.708	7287.53
436.915	7527.14
437.122	7983.84
437.329	8039.13
437.537	8200.92
437.743	8282.84
437.95	8266.46
438.157	8604.37
438.364	9024.2
438.571	8948.43
438.778	9153.23
438.985	9974.46
439.192	9380.55
439.399	9734.85
439.606	9614.02
439.813	10175.16
440.02	10982.06
440.227	10580.66
440.433	10347.19
440.64	10990.25
440.847	10840.75
441.054	10988.21
441.261	11887.26
441.467	11602.6
441.674	11625.12
441.881	12333.72
442.088	12075.68
442.294	12130.97
442.501	12266.14
442.708	12753.55
442.914	12995.22
443.121	13808.26
443.328	13230.73
443.534	14406.27
443.741	14101.12
443.948	13705.86
444.154	14944.88
444.361	14924.4
444.568	14957.17
444.774	14951.03
444.981	14899.83
445.187	15358.57
445.394	16132.7
445.6	15825.51
445.807	17474.12
446.013	16585.3
446.22	16869.97
446.426	17881.67
446.633	18018.88
446.839	18520.63
447.046	17527.37
447.252	18659.9
447.459	18610.75
447.665	18725.43
447.871	19253.81
448.078	20566.56
448.284	19282.48
448.491	19978.79
448.697	20646.43
448.903	21047.83
449.11	21068.31
449.316	20750.87
449.522	21228.05
449.728	21660.17
449.935	21795.34
450.141	21971.46
450.347	22395.39
450.553	21619.21
450.76	21850.63
450.966	22761.98
451.172	22356.48
451.378	22997.49
451.584	22673.92
451.791	23296.5
451.997	23071.22
452.203	23425.52
452.409	23341.55
452.615	22983.16
452.821	22514.17
453.027	22110.72
453.233	23538.16
453.44	22288.9
453.646	22759.93
453.852	22587.9
454.058	23130.61
454.264	22397.44
454.47	22895.1
454.676	22428.16
454.882	23091.7
455.088	21318.16
455.294	21506.57
455.5	21656.07
455.705	22129.16
455.911	21191.19
456.117	20619.8
456.323	20308.51
456.529	19249.71
456.735	19915.3
456.941	19831.33
457.147	19558.95
457.352	18870.84
457.558	18451
457.764	18686.52
457.97	18139.71
458.176	17750.6
458.381	17711.69
458.587	16638.55
458.793	16704.09
458.999	15927.91
459.204	17074.77
459.41	16487
459.616	15446.63
459.821	15571.56
460.027	15407.72
460.233	15102.57
460.438	14494.33
460.644	14541.43
460.85	13724.29
461.055	13685.38
461.261	13771.4
461.466	12559
461.672	12196.51
461.878	13140.62
462.083	12139.16
462.289	12008.09
462.494	11893.41
462.7	11539.11
462.905	10957.49
463.111	11502.25
463.316	11457.19
463.522	11219.63
463.727	11066.03
463.932	11225.77
464.138	11117.23
464.343	11164.33
464.549	10910.38
464.754	11150
464.959	10959.53
465.165	11098.8
465.37	10672.82
465.575	10105.53
465.781	10693.3
465.986	10775.22
466.191	10384.05
466.397	10246.84
466.602	9732.8
466.807	9931.45
467.012	9855.68
467.218	10150.59
467.423	9913.02
467.628	9880.25
467.833	10244.79
468.038	9953.98
468.244	9620.16
468.449	9972.41
468.654	9759.42
468.859	9706.18
469.064	9665.22
469.269	9061.07
469.474	9372.36
469.679	9571.01
469.885	9204.42
470.09	9304.78
470.295	9259.72
470.5	8983.24
470.705	9206.47
470.91	8870.61
471.115	8880.85
471.32	9032.4
471.525	8913.61
471.73	8692.43
471.935	8727.25
472.139	8305.37
472.344	8418
472.549	8315.61
472.754	8329.94
472.959	8096.47
473.164	7863.01
473.369	7875.29
473.574	8182.49
473.778	8100.57
473.983	7998.17
474.188	7830.24
474.393	7473.89
474.598	7451.36
474.802	7643.87
475.007	7566.05
475.212	7547.62
475.417	7211.75
475.621	7252.71
475.826	7191.27
476.031	7236.33
476.235	7037.67
476.44	6986.47
476.645	6793.97
476.849	6949.61
477.054	6806.25
477.259	6748.91
477.463	6814.45
477.668	6601.46
477.872	6658.8
478.077	6421.24
478.282	6382.32
478.486	6398.71
478.691	6245.11
478.895	6394.61
479.1	6361.84
479.304	6279.93
479.509	6140.66
479.713	6202.1
479.918	6105.85
480.122	6023.93
480.326	6126.33
480.531	5933.82
480.735	6003.45
480.94	5993.21
481.144	6169.34
481.348	5716.73
481.553	5888.76
481.757	5812.99
481.961	5939.96
482.166	5970.68
482.37	5796.6
482.574	5796.6
482.778	5745.41
482.983	5905.15
483.187	5892.86
483.391	5786.37
483.595	5739.26
483.8	5798.65
484.004	5933.82
484.208	6087.42
484.412	5798.65
484.616	5864.19
484.821	5876.48
485.025	5710.59
485.229	5976.83
485.433	5880.57
485.637	5733.12
485.841	5864.19
486.045	5763.84
486.249	5892.86
486.453	5788.41
486.657	5886.72
486.861	5823.23
487.065	5659.39
487.269	5827.32
487.473	5755.65
487.677	5806.84
487.881	5839.61
488.085	5743.36
488.289	6071.03
488.493	5677.82
488.697	5817.08
488.901	5817.08
489.105	5739.26
489.309	5751.55
489.512	6001.4
489.716	5864.19
489.92	5907.2
490.124	5899
490.328	5946.11
490.531	5921.53
490.735	5976.83
490.939	5903.1
491.143	6044.41
491.346	5923.58
491.55	6175.48
491.754	6075.13
491.958	6118.14
492.161	6136.57
492.365	6060.79
492.569	6146.81
492.772	6030.07
492.976	6413.04
493.18	6269.69
493.383	6273.78
493.587	6402.8
493.79	6435.57
493.994	6327.03
494.197	6454
494.401	6439.67
494.605	6482.67
494.808	6583.02
495.012	6607.6
495.215	6740.72
495.419	6683.38
495.622	6722.29
495.825	6896.36
496.029	6664.94
496.232	7060.2
496.436	6839.02
496.639	7015.15
496.843	6963.95
497.046	7262.95
497.249	7310.05
497.453	7144.17
497.656	7305.96
497.859	7449.32
498.063	7496.42
498.266	7721.7
498.469	7709.41
498.673	7760.61
498.876	7738.08
499.079	7791.33
499.282	8045.27
499.485	8301.27
499.689	8366.81
499.892	8288.98
500.095	8233.69
500.298	8651.47
500.501	8506.07
500.705	8813.26
500.908	8747.73
501.111	8889.04
501.314	8962.76
501.517	9003.72
501.72	9028.3
501.923	9026.25
502.126	9388.74
502.329	9659.07
502.532	9712.32
502.735	9685.7
502.938	9927.36
503.141	9872.06
503.344	9984.7
503.547	10255.03
503.75	10304.18
503.953	10511.03
504.156	10617.52
504.359	10551.99
504.562	10668.72
504.765	10664.63
504.968	10846.9
505.17	10973.87
505.373	10969.77
505.576	11477.67
505.779	11385.51
505.982	11537.06
506.185	11883.17
506.387	11817.63
506.59	11858.59
506.793	12352.15
506.996	12155.55
507.198	12585.62
507.401	12585.62
507.604	12788.37
507.807	12962.45
508.009	13042.32
508.212	13200.01
508.415	13423.24
508.617	13357.71
508.82	13576.84
509.022	13675.14
509.225	13845.12
509.428	14045.82
509.63	14293.63
509.833	14224
510.035	14740.08
510.238	14447.22
510.44	14772.85
510.643	14928.5
510.845	15145.58
511.048	15223.41
511.25	15508.07
511.453	15379.05
511.655	16036.45
511.858	15962.72
512.06	16142.94
512.262	16212.57
512.465	16216.67
512.667	16495.19
512.87	17019.47
513.072	16661.08
513.274	17306.19
513.477	17465.93
513.679	17625.67
513.881	17863.24
514.084	18041.41
514.286	18096.71
514.488	18252.35
514.69	18696.76
514.893	18795.06
515.095	18911.8
515.297	19044.91
515.499	19290.67
515.701	19434.03
515.904	19855.91
516.106	19765.8
516.308	20165.15
516.51	20460.06
516.712	20511.26
516.914	20933.14
517.116	21209.62
517.318	20861.46
517.52	21525
517.722	21375.5
517.925	21989.89
518.127	22190.59
518.329	22372.86
518.531	22211.07
518.733	22784.51
518.935	22807.03
519.136	23077.37
519.338	23405.04
519.54	23769.58
519.742	23663.08
519.944	23798.25
520.146	24416.74
520.348	24549.85
520.55	24623.58
520.752	24914.39
520.954	25176.53
521.155	25379.28
521.357	25758.16
521.559	25647.57
521.761	26159.56
521.963	25926.09
522.164	26472.9
522.366	26286.53
522.568	26923.45
522.77	26978.75
522.971	27324.85
523.173	27482.55
523.375	27822.51
523.576	27857.32
523.778	28258.73
523.98	28594.59
524.181	28637.6
524.383	28326.31
524.584	29049.24
524.786	29071.77
524.988	29112.73
525.189	29395.35
525.391	29454.74
525.592	29634.96
525.794	29634.96
525.995	30044.55
526.197	29936.01
526.398	30181.77
526.6	30804.35
526.801	30482.82
527.003	30798.21
527.204	31113.59
527.406	31160.7
527.607	31353.21
527.808	31545.72
528.01	31250.81
528.211	31390.07
528.412	32252.27
528.614	32205.16
528.815	31998.32
529.016	32409.96
529.218	32059.76
529.419	32514.41
529.62	32350.57
529.822	32412.01
530.023	32348.52
530.224	32756.07
530.425	32567.65
530.626	32633.19
530.828	32493.93
531.029	33399.13
531.23	32797.02
531.431	33032.54
531.632	33366.36
531.833	33198.43
532.035	33352.02
532.236	33075.55
532.437	33438.04
532.638	33220.95
532.839	33347.93
533.04	33718.61
533.241	33479
533.442	34136.4
533.643	33816.91
533.844	33769.81
534.045	33974.61
534.246	33638.74
534.447	34459.98
534.648	33792.34
534.849	34232.65
535.05	33640.79
535.251	33708.37
535.451	34275.66
535.652	34056.53
535.853	34036.05
536.054	34257.23
536.255	34206.03
536.456	33937.74
536.657	34521.41
536.857	33984.85
537.058	33929.55
537.259	33966.42
537.46	34322.76
537.66	34117.96
537.861	34099.53
538.062	34206.03
538.263	34351.43
538.463	33898.83
538.664	34165.07
538.865	34320.71
539.065	34398.54
539.266	33972.56
539.466	34613.57
539.667	34111.82
539.868	34537.8
540.068	34081.1
540.269	33882.45
540.469	34416.97
540.67	34046.29
540.87	34306.38
541.071	34158.92
541.271	34271.56
541.472	34148.68
541.672	33882.45
541.873	34099.53
542.073	33468.76
542.274	34355.53
542.474	34533.7
542.675	33741.14
542.875	34046.29
543.075	34232.65
543.276	33648.98
543.476	34601.29
543.676	33847.63
543.877	34179.4
544.077	34312.52
544.277	34058.57
544.478	34148.68
544.678	34658.63
544.878	33902.93
545.078	34177.36
545.279	33730.9
545.479	33956.18
545.679	34175.31
545.879	34148.68
546.079	34148.68
546.28	34148.68
546.48	33880.4
546.68	33999.18
546.88	33845.58
547.08	33972.56
547.28	34222.41
547.48	34130.25
547.68	34105.68
547.88	33661.27
548.081	34021.71
548.281	34163.02
548.481	34238.79
548.681	34447.69
548.881	34142.54
549.081	34105.68
549.28	33759.57
549.48	34263.37
549.68	33734.99
549.88	34574.66
550.08	33818.96
550.28	34353.48
550.48	33911.12
550.68	34236.75
550.88	33585.49
551.08	33947.98
551.279	33868.11
551.479	33601.88
551.679	33759.57
551.879	33845.58
552.079	33894.74
552.278	33722.71
552.478	33857.87
552.678	34019.66
552.878	34199.88
553.077	33421.66
553.277	33075.55
553.477	34122.06
553.676	33470.81
553.876	33704.28
554.076	33610.07
554.275	33542.49
554.475	33333.59
554.674	33306.97
554.874	33694.04
555.074	33266.01
555.273	33608.02
555.473	33624.4
555.672	33032.54
555.872	33464.66
556.071	33071.45
556.271	33454.42
556.47	33247.58
556.67	33182.04
556.869	33216.86
557.068	33497.43
557.268	32940.38
557.467	32872.8
557.667	32794.98
557.866	32856.42
558.065	32686.43
558.265	32862.56
558.464	32557.41
558.663	32911.71
558.863	32385.38
559.062	33055.07
559.261	32313.7
559.461	32766.31
559.66	32008.56
559.859	32325.99
560.058	32096.62
560.258	32381.29
560.457	31834.48
560.656	32307.56
560.855	31924.59
561.054	32252.27
561.253	31793.52
561.453	31871.34
561.652	31951.21
561.851	32100.72
562.05	31631.73
562.249	31365.49
562.448	32059.76
562.647	31635.83
562.846	31609.2
563.045	31089.02
563.244	31220.09
563.443	31584.63
563.642	30767.49
563.841	31041.92
564.04	30591.36
564.239	31201.66
564.438	30327.17
564.637	30906.75
564.836	30462.34
565.035	30316.93
565.234	30667.14
565.432	30226.82
565.631	30089.61
565.83	30605.7
566.029	30173.58
566.228	30130.57
566.427	30095.75
566.625	29981.07
566.824	29659.54
567.023	29938.06
567.222	29280.66
567.42	29733.26
567.619	29481.36
567.818	29204.89
568.016	29147.54
568.215	29120.92
568.414	28922.27
568.612	29372.82
568.811	28682.66
569.01	28873.12
569.208	28197.29
569.407	28729.76
569.605	28264.87
569.804	28729.76
570.002	28242.34
570.201	28498.34
570.4	27849.13
570.598	27951.53
570.797	28037.55
570.995	28072.36
571.193	27607.47
571.392	28015.02
571.59	27374
571.789	27564.46
571.987	27480.5
572.186	27431.35
572.384	27103.67
572.582	27421.11
572.781	27275.7
572.979	26757.57
573.177	27208.12
573.376	26841.53
573.574	26563.01
573.772	26810.81
573.971	26409.41
574.169	26106.31
574.367	26515.9
574.565	25979.34
574.763	26298.82
574.962	26044.87
575.16	25573.84
575.358	26087.88
575.556	25823.69
575.754	26094.02
575.952	25436.63
576.151	25514.45
576.349	25305.56
576.547	25319.89
576.745	25520.59
576.943	24953.3
577.141	25063.89
577.339	25225.68
577.537	25065.94
577.735	24998.36
577.933	24674.78
578.131	24779.23
578.329	24781.28
578.527	24109.54
578.725	24304.1
578.923	24676.83
579.121	24330.72
579.319	24492.51
579.516	24435.17
579.714	24226.28
579.912	24105.45
580.11	23970.28
580.308	23828.97
580.506	23589.36
580.704	23433.71
580.901	23484.91
581.099	23714.28
581.297	23581.17
581.495	23243.25
581.692	23558.64
581.89	23128.56
582.088	23292.4
582.285	23042.55
582.483	23474.67
582.681	23202.29
582.878	22721.02
583.076	22790.65
583.274	22675.96
583.471	22516.22
583.669	22675.96
583.866	22675.96
584.064	22426.11
584.262	22186.5
584.459	22598.14
584.657	22338.05
584.854	22505.98
585.052	21606.92
585.249	21891.59
585.447	21969.41
585.644	21627.4
585.841	21938.69
586.039	21803.53
586.236	21594.64
586.434	21686.79
586.631	21271.06
586.828	21385.74
587.026	21457.42
587.223	21166.61
587.42	21197.33
587.618	21244.43
587.815	21152.27
588.012	20992.53
588.21	20775.45
588.407	21271.06
588.604	20967.96
588.801	20501.02
588.999	20730.39
589.196	20875.8
589.393	20709.91
589.59	20656.67
589.787	20361.76
589.984	20367.9
590.182	20015.65
590.379	20593.18
590.576	20083.23
590.773	20355.61
590.97	20232.74
591.167	20064.8
591.364	19921.45
591.561	20027.94
591.758	19802.66
591.955	19925.54
592.152	20019.75
592.349	19563.05
592.546	19964.45
592.743	19735.08
592.94	19231.28
593.137	19626.54
593.334	19548.72
593.531	19206.7
593.727	19362.35
593.924	19298.86
594.121	19106.35
594.318	19192.37
594.515	18805.3
594.712	19124.79
594.908	19132.98
595.105	18856.5
595.302	18893.37
595.499	18735.67
595.696	18754.1
595.892	18205.25
596.089	18651.7
596.286	18633.27
596.482	18371.13
596.679	18338.37
596.876	18551.35
597.072	18192.96
597.269	18102.85
597.466	18209.34
597.662	18119.23
597.859	18072.13
598.055	18217.54
598.252	17910.34
598.448	17941.06
598.645	18123.33
598.841	17607.24
599.038	17631.82
599.234	17908.29
599.431	17672.78
599.627	17504.84
599.824	17777.22
600.02	17359.44
600.217	17318.48
600.413	17394.25
600.609	17209.93
600.806	17291.85
601.002	17191.5
601.198	17220.17
601.395	16912.98
601.591	16935.51
601.787	17224.27
601.984	16937.55
602.18	17142.35
602.376	17087.06
602.572	16767.57
602.769	16439.9
602.965	16478.81
603.161	16800.34
603.357	16661.08
603.553	16355.93
603.75	16591.45
603.946	16110.18
604.142	16310.88
604.338	16255.58
604.534	16337.5
604.73	16286.3
604.926	15862.37
605.122	16255.58
605.318	15913.57
605.514	15950.43
605.71	15747.69
605.906	15798.88
606.102	15796.84
606.298	15899.23
606.494	15704.68
606.69	15858.28
606.886	15704.68
607.082	15540.84
607.278	15700.58
607.474	15290.99
607.67	15401.58
607.866	15506.02
608.062	15745.64
608.257	15186.54
608.453	15305.32
608.649	15399.53
608.845	15110.77
609.041	15278.7
609.236	15139.44
609.432	14887.54
609.628	14908.02
609.824	15243.88
610.019	15034.99
610.215	15002.22
610.411	14848.63
610.606	14924.4
610.802	14813.81
610.998	14729.84
611.193	14793.33
611.389	14529.14
611.584	14703.22
611.78	14445.18
611.976	14561.91
612.171	14840.43
612.367	14416.51
612.562	14705.27
612.758	14318.2
612.953	14207.61
613.149	14408.31
613.344	14264.96
613.539	14418.55
613.735	14305.92
613.93	14226.04
614.126	14041.73
614.321	14402.17
614.517	14080.64
614.712	14162.56
614.907	13929.09
615.103	14383.74
615.298	13955.71
615.493	14324.35
615.688	13648.52
615.884	14150.27
616.079	13746.82
616.274	13707.91
616.47	13720.2
616.665	13621.89
616.86	13701.76
617.055	13830.79
617.25	13597.32
617.445	13775.49
617.641	13613.7
617.836	13736.58
618.031	13515.4
618.226	13509.26
618.421	13413
618.616	13560.45
618.811	13357.71
619.006	13339.27
619.201	13111.95
619.396	13376.14
619.591	12989.07
619.786	13267.59
619.981	13062.8
620.176	13087.37
620.371	12636.82
620.566	12798.61
620.761	12827.28
620.956	12905.1
621.151	12718.74
621.346	12862.1
621.541	12475.03
621.735	12530.33
621.93	12229.27
622.125	12366.49
622.32	12040.86
622.515	12444.31
622.709	12161.69
622.904	12216.99
623.099	12173.98
623.294	12233.37
623.488	11963.04
623.683	11997.85
623.878	11836.06
624.072	11661.99
624.267	11672.23
624.462	11713.19
624.656	11696.8
624.851	11616.93
625.046	11369.13
625.24	11387.56
625.435	11160.24
625.629	11319.98
625.824	11158.19
626.018	11334.31
626.213	11070.12
626.407	10980.01
626.602	10803.89
626.796	10906.29
626.991	10896.05
627.185	10939.05
627.38	10832.56
627.574	10816.18
627.768	10717.87
627.963	10476.21
628.157	10445.49
628.352	10433.21
628.546	10257.08
628.74	10330.81
628.935	10257.08
629.129	10265.27
629.323	10295.99
629.517	10261.18
629.712	10433.21
629.906	10173.11
630.1	9958.08
630.294	9935.55
630.489	9996.99
630.683	10025.66
630.877	9611.97
631.071	9765.57
631.265	9665.22
631.459	9431.75
631.653	9421.51
631.848	9523.91
632.042	9382.6
632.236	9507.52
632.43	9497.28
632.624	9562.82
632.818	9372.36
633.012	9140.94
633.206	9169.61
633.4	9165.51
633.594	9013.96
633.788	8970.96
633.982	8958.67
634.176	9052.88
634.369	8919.76
634.563	8897.23
634.757	8809.17
634.951	8764.11
635.145	8757.97
635.339	8815.31
635.533	8741.58
635.726	8626.9
635.92	8467.16
636.114	8405.72
636.308	8434.39
636.501	8428.24
636.695	8346.33
636.889	8235.74
637.083	8331.99
637.276	8194.78
637.47	8116.95
637.664	8235.74
637.857	8213.21
638.051	8088.28
638.244	7871.2
638.438	7893.72
638.632	7869.15
638.825	7826.14
639.019	7883.49
639.212	7508.71
639.406	7690.98
639.599	7641.82
639.793	7551.71
639.986	7715.55
640.18	7549.67
640.373	7592.67
640.567	7410.4
640.76	7580.39
640.954	7373.54
641.147	7209.7
641.34	7277.29
641.534	7310.05
641.727	7226.09
641.92	7254.76
642.114	7127.78
642.307	7113.45
642.5	7066.35
642.694	6988.52
642.887	6963.95
643.08	7054.06
643.273	6824.69
643.467	6935.28
643.66	6941.42
643.853	6578.93
644.046	6533.87
644.239	6730.48
644.432	6595.31
644.626	6398.71
644.819	6650.61
645.012	6515.44
645.205	6578.93
645.398	6558.45
645.591	6388.47
645.784	6626.03
645.977	6359.8
646.17	6351.6
646.363	6216.44
646.556	6116.09
646.749	6050.55
646.942	6202.1
647.135	6232.82
647.328	5993.21
647.521	6054.65
647.714	6013.69
647.907	6062.84
648.099	5954.3
648.292	5862.14
648.485	5956.35
648.678	5950.2
648.871	5864.19
649.064	5651.2
649.256	5952.25
649.449	5608.19
649.642	5583.62
649.835	5671.68
650.027	5612.29
650.22	5552.9
650.413	5602.05
650.605	5661.44
650.798	5595.9
650.991	5612.29
651.183	5569.28
651.376	5520.13
651.568	5430.02
651.761	5387.01
651.954	5329.67
652.146	5337.86
652.339	5135.11
652.531	5223.17
652.724	5239.56
652.916	5110.54
653.109	4948.75
653.301	5251.85
653.494	5257.99
653.686	5167.88
653.879	5325.57
654.071	5159.69
654.263	5102.34
654.456	5042.95
654.648	5126.92
654.84	4897.55
655.033	4936.46
655.225	4840.2
655.417	4864.78
655.61	4879.11
655.802	4858.64
655.994	4862.73
656.186	4883.21
656.379	4717.33
656.571	4887.31
656.763	4686.61
656.955	4705.04
657.148	4721.42
657.34	4635.41
657.532	4563.73
657.724	4576.02
657.916	4666.13
658.108	4707.09
658.3	4557.58
658.492	4623.12
658.684	4526.86
658.876	4533.01
659.068	4461.33
659.26	4332.31
659.452	4371.22
659.644	4444.95
659.836	4344.6
660.028	4403.99
660.22	4272.92
660.412	4365.07
660.604	4272.92
660.796	4307.73
660.988	4438.8
661.18	4238.1
661.372	4215.57
661.563	4168.47
661.755	4127.51
661.947	4178.71
662.139	4191
662.331	3910.43
662.522	3910.43
662.714	4053.78
662.906	4002.58
663.097	4033.3
663.289	4100.89
663.481	3941.15
663.673	4027.16
663.864	3803.93
664.056	4029.21
664.247	3805.98
664.439	3951.39
664.631	3951.39
664.822	3896.09
665.014	3889.95
665.205	3783.45
665.397	3967.77
665.588	3803.93
665.78	3832.6
665.971	3670.81
666.163	3699.48
666.354	3871.51
666.546	3799.84
666.737	3738.4
666.929	3814.17
667.12	3787.55
667.311	3793.69
667.503	3613.47
667.694	3812.12
667.885	3541.79
668.077	3715.87
668.268	3636
668.459	3537.7
668.651	3670.81
668.842	3490.59
669.033	3484.45
669.224	3488.54
669.416	3762.97
669.607	3480.35
669.798	3554.08
669.989	3621.66
670.18	3506.98
670.371	3629.85
670.563	3367.71
670.754	3519.26
670.945	3476.26
671.136	3541.79
671.327	3390.24
671.518	3490.59
671.709	3568.41
671.9	3502.88
672.091	3326.75
672.282	3402.53
672.473	3431.2
672.664	3359.52
672.855	3498.78
673.046	3316.51
673.237	3439.39
673.428	3316.51
673.619	3504.93
673.809	3361.57
674	3463.97
674.191	3408.67
674.382	3351.33
674.573	3539.74
674.764	3353.38
674.954	3449.63
675.145	3459.87
675.336	3386.15
675.527	3463.97
675.717	3369.76
675.908	3341.09
676.099	3418.91
676.289	3232.55
676.48	3314.47
676.671	3267.36
676.861	3406.63
677.052	3214.12
677.243	3279.65
677.433	3343.14
677.624	3435.3
677.814	3199.78
678.005	3271.46
678.195	3326.75
678.386	3367.71
678.576	3375.91
678.767	3269.41
678.957	3343.14
679.148	3242.79
679.338	3386.15
679.529	3418.91
679.719	3244.84
679.909	3451.68
680.1	3382.05
680.29	3287.84
680.481	3433.25
680.671	3328.8
680.861	3472.16
681.052	3355.43
681.242	3388.19
681.432	3336.99
681.622	3390.24
681.813	3259.17
682.003	3257.12
682.193	3384.1
682.383	3396.39
682.573	3304.23
682.764	3296.04
682.954	3459.87
683.144	3394.34
683.334	3443.49
683.524	3388.19
683.714	3373.86
683.904	3375.91
684.094	3312.42
684.284	3384.1
684.474	3361.57
684.664	3328.8
684.854	3377.95
685.044	3369.76
685.234	3240.74
685.424	3218.21
685.614	3199.78
685.804	3285.8
685.994	3310.37
686.184	3367.71
686.374	3314.47
686.564	3420.96
686.753	3273.51
686.943	3273.51
687.133	3212.07
687.323	3259.17
687.513	3244.84
687.702	3189.54
687.892	3199.78
688.082	3212.07
688.272	3253.03
688.461	3144.49
688.651	3263.27
688.841	3128.1
689.03	3191.59
689.22	3160.87
689.41	3074.85
689.599	3130.15
689.789	3052.33
689.979	3042.09
690.168	3042.09
690.358	3072.81
690.547	3021.61
690.737	3121.96
690.926	3015.46
691.116	2988.84
691.305	3128.1
691.495	3027.75
691.684	2927.4
691.874	2800.43
692.063	3013.42
692.252	2865.96
692.442	2970.41
692.631	2900.78
692.82	2820.91
693.01	2960.17
693.199	2915.11
693.388	2847.53
693.578	2886.44
693.767	2943.78
693.956	2808.62
694.146	2892.59
694.335	2882.35
694.524	2857.77
694.713	2806.57
694.902	2843.43
695.092	2853.67
695.281	2882.35
695.47	2722.6
695.659	2763.56
695.848	2812.71
696.037	2810.67
696.226	2747.18
696.415	2702.12
696.604	2902.83
696.793	2851.63
696.982	2779.95
697.171	2749.23
697.36	2769.71
697.549	2708.27
697.738	2734.89
697.927	2802.47
698.116	2693.93
698.305	2677.55
698.494	2736.94
698.683	2868.01
698.872	2728.75
699.061	2714.41
699.25	2851.63
699.438	2794.28
699.627	2767.66
699.816	2931.5
700.005	2685.74
700.193	2763.56
700.382	2888.49
700.571	2781.99
700.76	2753.32
700.948	2843.43
701.137	2747.18
701.326	2751.28
701.514	2765.61
701.703	2781.99
701.892	2798.38
702.08	2757.42
702.269	2790.19
702.457	2818.86
702.646	2765.61
702.834	2732.84
703.023	2757.42
703.212	2773.8
703.4	2732.84
703.589	2812.71
703.777	2839.34
703.965	2810.67
704.154	2751.28
704.342	2790.19
704.531	2816.81
704.719	2833.19
704.907	2849.58
705.096	2781.99
705.284	2734.89
705.472	2812.71
705.661	2773.8
705.849	2970.41
706.037	2876.2
706.226	2851.63
706.414	2868.01
706.602	2759.47
706.79	2788.14
706.979	2771.76
707.167	2970.41
707.355	2845.48
707.543	2898.73
707.731	2794.28
707.919	2941.74
708.107	2802.47
708.296	2958.12
708.484	2986.79
708.672	2898.73
708.86	2988.84
709.048	2964.26
709.236	2874.15
709.424	2994.98
709.612	2839.34
709.8	2732.84
709.988	3015.46
710.176	2919.21
710.364	2966.31
710.551	3021.61
710.739	2937.64
710.927	2974.5
711.115	2966.31
711.303	2906.92
711.491	3019.56
711.679	2902.83
711.866	3109.67
712.054	3013.42
712.242	3066.66
712.43	3001.13
712.617	2966.31
712.805	3005.22
712.993	2949.93
713.181	3011.37
713.368	3091.24
713.556	3052.33
713.744	3050.28
713.931	3076.9
714.119	3044.13
714.306	3105.57
714.494	3054.37
714.682	3011.37
714.869	3005.22
715.057	2982.7
715.244	3001.13
715.432	3179.3
715.619	3078.95
715.807	3035.94
715.994	3199.78
716.182	2997.03
716.369	3113.77
716.556	3119.91
716.744	3117.86
716.931	3109.67
717.119	3158.82
717.306	3115.81
717.493	3095.33
717.681	3142.44
717.868	3203.88
718.055	3269.41
718.242	3244.84
718.43	3257.12
718.617	3050.28
718.804	3226.4
718.991	3072.81
719.179	3261.22
719.366	3154.73
719.553	3210.02
719.74	3236.64
719.927	3250.98
720.114	3179.3
720.301	3181.35
720.488	3205.92
720.676	3238.69
720.863	3240.74
721.05	3359.52
721.237	3390.24
721.424	3255.08
721.611	3136.29
721.798	3232.55
721.985	3255.08
722.172	3248.93
722.358	3205.92
722.545	3259.17
722.732	3240.74
722.919	3320.61
723.106	3304.23
723.293	3283.75
723.48	3277.6
723.667	3111.72
723.853	3326.75
724.04	3377.95
724.227	3343.14
724.414	3427.11
724.6	3373.86
724.787	3490.59
724.974	3363.62
725.161	3304.23
725.347	3238.69
725.534	3347.23
725.72	3433.25
725.907	3371.81
726.094	3406.63
726.28	3324.71
726.467	3382.05
726.653	3359.52
726.84	3373.86
727.027	3496.74
727.213	3349.28
727.4	3406.63
727.586	3474.21
727.773	3410.72
727.959	3339.04
728.145	3470.11
728.332	3404.58
728.518	3322.66
728.705	3416.87
728.891	3386.15
729.077	3447.58
729.264	3488.54
729.45	3543.84
729.636	3523.36
729.823	3552.03
730.009	3447.58
730.195	3439.39
730.382	3533.6
730.568	3418.91
730.754	3380
730.94	3427.11
731.126	3423.01
731.313	3613.47
731.499	3545.89
731.685	3394.34
731.871	3521.31
732.057	3547.94
732.243	3566.37
732.429	3418.91
732.615	3609.37
732.801	3554.08
732.987	3560.22
733.173	3574.56
733.359	3437.34
733.545	3556.13
733.731	3586.85
733.917	3488.54
734.103	3384.1
734.289	3527.46
734.475	3414.82
734.661	3658.53
734.847	3566.37
735.033	3572.51
735.219	3466.02
735.404	3570.46
735.59	3511.07
735.776	3554.08
735.962	3482.4
736.148	3592.99
736.333	3429.15
736.519	3482.4
736.705	3595.04
736.89	3580.7
737.076	3558.18
737.262	3531.55
737.447	3549.98
737.633	3402.53
737.819	3572.51
738.004	3416.87
738.19	3578.65
738.375	3586.85
738.561	3611.42
738.747	3500.83
738.932	3506.98
739.118	3484.45
739.303	3496.74
739.489	3541.79
739.674	3615.52
739.859	3451.68
740.045	3488.54
740.23	3543.84
740.416	3382.05
740.601	3541.79
740.786	3345.19
740.972	3390.24
741.157	3296.04
741.342	3380
741.528	3498.78
741.713	3466.02
741.898	3402.53
742.084	3466.02
742.269	3601.18
742.454	3504.93
742.639	3603.23
742.824	3373.86
743.01	3461.92
743.195	3373.86
743.38	3277.6
743.565	3279.65
743.75	3203.88
743.935	3244.84
744.12	3320.61
744.305	3240.74
744.49	3312.42
744.675	3330.85
744.86	3296.04
745.045	3205.92
745.23	3212.07
745.415	3257.12
745.6	3224.36
745.785	3257.12
745.97	3156.77
746.155	3162.92
746.34	3146.53
746.525	3183.4
746.71	3130.15
746.895	2935.59
747.079	3160.87
747.264	3078.95
747.449	3203.88
747.634	3070.76
747.819	2968.36
748.003	2902.83
748.188	3070.76
748.373	2986.79
748.557	3027.75
748.742	2966.31
748.927	2964.26
749.111	2974.5
749.296	2802.47
749.481	3001.13
749.665	2747.18
749.85	2818.86
750.034	2966.31
750.219	2730.8
750.404	2859.82
750.588	2720.56
750.773	2833.19
750.957	2777.9
751.141	2773.8
751.326	2700.08
751.51	2728.75
751.695	2669.36
751.879	2544.43
752.064	2761.52
752.248	2603.82
752.432	2564.91
752.617	2655.02
752.801	2683.69
752.985	2521.9
753.17	2519.85
753.354	2480.94
753.538	2384.69
753.722	2396.98
753.907	2538.29
754.091	2489.14
754.275	2542.38
754.459	2493.23
754.643	2456.37
754.828	2452.27
755.012	2364.21
755.196	2282.29
755.38	2476.85
755.564	2296.63
755.748	2272.05
755.932	2200.37
756.116	2319.15
756.3	2310.96
756.484	2173.75
756.668	2313.01
756.852	2112.31
757.036	2079.54
757.22	2161.46
757.404	2163.51
757.588	2134.84
757.772	2143.03
757.956	2147.12
758.14	2239.28
758.323	2073.4
758.507	2042.68
758.691	2030.39
758.875	2118.45
759.059	2042.68
759.242	2026.29
759.426	1968.95
759.61	1975.1
759.794	2085.69
759.977	1985.34
760.161	2126.64
760.345	1948.47
760.528	1975.1
760.712	1948.47
760.895	1991.48
761.079	1889.08
761.263	1909.56
761.446	1895.22
761.63	1887.03
761.813	1932.09
761.997	1790.78
762.18	1813.31
762.364	1878.84
762.547	1628.99
762.731	1764.15
762.914	1870.65
763.098	1778.49
763.281	1764.15
763.464	1801.02
763.648	1721.15
763.831	1667.9
764.015	1780.54
764.198	1772.35
764.381	1803.07
764.564	1772.35
764.748	1768.25
764.931	1829.69
765.114	1731.39
765.297	1788.73
765.481	1688.38
765.664	1639.23
765.847	1663.8
766.03	1602.36
766.213	1647.42
766.397	1581.89
766.58	1565.5
766.763	1602.36
766.946	1657.66
767.129	1592.13
767.312	1620.8
767.495	1502.01
767.678	1477.44
767.861	1616.7
768.044	1540.93
768.227	1585.98
768.41	1538.88
768.593	1504.06
768.776	1690.43
768.959	1512.25
769.142	1528.64
769.324	1549.12
769.507	1504.06
769.69	1569.6
769.873	1454.91
770.056	1557.31
770.239	1526.59
770.421	1532.73
770.604	1469.25
770.787	1409.86
770.97	1510.21
771.152	1276.74
771.335	1487.68
771.518	1426.24
771.7	1383.23
771.883	1426.24
772.066	1350.46
772.248	1362.75
772.431	1413.95
772.613	1416
772.796	1397.57
772.978	1444.67
773.161	1350.46
773.343	1309.51
773.526	1336.13
773.708	1258.31
773.891	1254.21
774.073	1260.35
774.256	1227.59
774.438	1323.84
774.621	1299.27
774.803	1250.11
774.985	1211.2
775.168	1317.7
775.35	1260.35
775.532	1280.83
775.715	1221.44
775.897	1280.83
776.079	1119.04
776.261	1235.78
776.444	1192.77
776.626	1178.44
776.808	1117
776.99	1213.25
777.173	1157.96
777.355	1250.11
777.537	1037.13
777.719	1188.68
777.901	1137.48
778.083	1033.03
778.265	957.25
778.447	1114.95
778.629	1053.51
778.811	1108.8
778.993	1092.42
779.175	1053.51
779.357	1020.74
779.539	967.49
779.721	981.83
779.903	1026.89
780.085	981.83
780.267	951.11
780.449	893.77
780.631	1024.84
780.812	1004.36
780.994	1147.72
781.176	994.12
781.358	928.58
781.54	852.81
781.721	940.87
781.903	1004.36
782.085	805.71
782.267	944.97
782.448	926.54
782.63	867.14
782.812	916.3
782.993	867.14
783.175	895.82
783.357	791.37
783.538	850.76
783.72	885.58
783.901	787.27
784.083	858.95
784.264	881.48
784.446	789.32
784.627	768.84
784.809	842.57
784.99	844.62
785.172	875.34
785.353	725.83
785.535	815.94
785.716	715.59
785.897	830.28
786.079	736.07
786.26	736.07
786.441	867.14
786.623	699.21
786.804	691.02
786.985	703.31
787.167	752.46
787.348	711.5
787.529	721.74
787.71	723.79
787.891	709.45
788.073	666.44
788.254	731.98
788.435	705.35
788.616	643.92
788.797	740.17
788.978	594.76
789.159	594.76
789.34	637.77
789.522	578.38
789.703	648.01
789.884	562
790.065	660.3
790.246	645.96
790.427	648.01
790.607	615.24
790.788	676.68
790.969	625.48
791.15	600.91
791.331	594.76
791.512	594.76
791.693	594.76
791.874	545.61
792.054	594.76
792.235	621.39
792.416	504.65
792.597	555.85
792.778	576.33
792.958	555.85
793.139	605
793.32	545.61
793.5	514.89
793.681	588.62
793.862	508.75
794.042	553.8
794.223	435.02
794.404	484.17
794.584	437.07
794.765	512.85
794.945	486.22
795.126	471.89
795.306	570.19
795.487	549.71
795.667	471.89
795.848	516.94
796.028	400.21
796.209	471.89
796.389	471.89
796.57	453.45
796.75	441.17
796.93	467.79
797.111	490.32
797.291	375.63
797.471	492.37
797.652	539.47
797.832	418.64
798.012	498.51
798.192	359.25
798.373	389.97
798.553	439.12
798.733	416.59
798.913	457.55
799.093	478.03
799.274	426.83
799.454	412.5
799.634	451.41
799.814	396.11
799.994	502.61
800.174	445.26
800.354	375.63
800.534	379.73
800.714	365.39
800.894	416.59
801.074	371.54
801.254	371.54
801.434	371.54
801.614	392.02
801.794	336.72
801.974	1071.94
802.154	359.25
802.334	318.29
802.514	418.64
802.693	275.28
802.873	396.11
803.053	394.06
803.233	416.59
803.413	385.87
803.592	330.58
803.772	351.06
803.952	373.58
804.131	416.59
804.311	320.34
804.491	359.25
804.67	349.01
804.85	377.68
805.03	389.97
805.209	351.06
805.389	285.52
805.568	283.47
805.748	287.57
805.928	340.82
806.107	349.01
806.287	332.62
806.466	301.9
806.646	406.35
806.825	322.38
807.004	324.43
807.184	336.72
807.363	392.02
807.543	310.1
807.722	332.62
807.901	369.49
808.081	332.62
808.26	283.47
808.439	308.05
808.619	213.84
808.798	260.95
808.977	277.33
809.156	308.05
809.336	299.86
809.515	340.82
809.694	293.71
809.873	260.95
810.052	357.2
810.231	336.72
810.411	238.42
810.59	271.19
810.769	267.09
810.948	396.11
811.127	226.13
811.306	299.86
811.485	303.95
811.664	371.54
811.843	269.14
812.022	260.95
812.201	213.84
812.38	265.04
812.559	291.66
812.737	291.66
812.916	262.99
813.095	187.22
813.274	203.6
813.453	250.71
813.632	330.58
813.811	265.04
813.989	211.79
814.168	258.9
814.347	265.04
814.526	195.41
814.704	236.37
814.883	236.37
815.062	306
815.24	306
815.419	240.47
815.598	275.28
815.776	142.16
815.955	236.37
816.133	162.64
816.312	238.42
816.49	217.94
816.669	248.66
816.847	203.6
817.026	176.98
817.204	254.8
817.383	211.79
817.561	248.66
817.74	215.89
817.918	170.83
818.097	187.22
818.275	121.68
818.453	240.47
818.632	250.71
818.81	179.03
818.988	142.16
819.167	209.75
819.345	181.07
819.523	166.74
819.701	242.51
819.879	265.04
820.058	248.66
820.236	246.61
820.414	74.58
820.592	189.27
820.77	217.94
820.948	140.12
821.127	232.27
821.305	222.03
821.483	138.07
821.661	234.32
821.839	215.89
822.017	193.36
822.195	185.17
822.373	252.75
822.551	156.5
822.729	129.88
822.907	127.83
823.085	236.37
823.262	162.64
823.44	125.78
823.618	146.26
823.796	172.88
823.974	191.31
824.152	185.17
824.329	172.88
824.507	174.93
824.685	154.45
824.863	156.5
825.04	183.12
825.218	230.23
825.396	187.22
825.574	136.02
825.751	138.07
825.929	138.07
826.107	125.78
826.284	162.64
826.462	197.46
826.639	117.59
826.817	185.17
826.994	129.88
827.172	142.16
827.349	222.03
827.527	168.79
827.704	170.83
827.882	181.07
828.059	113.49
828.237	211.79
828.414	197.46
828.591	58.2
828.769	154.45
828.946	138.07
829.124	158.55
829.301	72.53
829.478	142.16
829.655	154.45
829.833	142.16
830.01	68.44
830.187	213.84
830.364	82.77
830.542	144.21
830.719	150.36
830.896	152.4
831.073	152.4
831.25	113.49
831.427	140.12
831.604	90.96
831.782	164.69
831.959	15.19
832.136	146.26
832.313	88.92
832.49	76.63
832.667	217.94
832.844	76.63
833.021	162.64
833.198	156.5
833.374	148.31
833.551	121.68
833.728	119.64
833.905	80.72
834.082	86.87
834.259	158.55
834.436	136.02
834.612	84.82
834.789	205.65
834.966	138.07
835.143	129.88
835.319	133.97
835.496	127.83
835.673	88.92
835.85	138.07
836.026	113.49
836.203	105.3
836.38	72.53
836.556	142.16
836.733	99.16
836.909	187.22
837.086	47.96
837.262	60.24
837.439	119.64
837.616	52.05
837.792	111.44
837.968	127.83
838.145	78.68
838.321	88.92
838.498	125.78
838.674	125.78
838.851	111.44
839.027	66.39
839.203	80.72
839.38	64.34
839.556	105.3
839.732	121.68
839.909	154.45
840.085	78.68
840.261	70.48
840.437	39.76
840.614	56.15
840.79	119.64
840.966	146.26
841.142	97.11
841.318	82.77
841.494	152.4
841.671	189.27
841.847	50
842.023	86.87
842.199	52.05
842.375	105.3
842.551	2.9
842.727	13.14
842.903	150.36
843.079	21.33
843.255	88.92
843.431	62.29
843.607	72.53
843.783	66.39
843.959	115.54
844.134	72.53
844.31	129.88
844.486	56.15
844.662	99.16
844.838	72.53
845.013	125.78
845.189	60.24
845.365	52.05
845.541	31.57
845.716	97.11
845.892	105.3
846.068	43.86
846.244	15.19
846.419	117.59
846.595	37.72
846.77	103.25
846.946	95.06
847.122	56.15
847.297	84.82
847.473	99.16
847.648	31.57
847.824	47.96
847.999	52.05
848.175	52.05
848.35	60.24
848.526	58.2
848.701	154.45
848.876	101.2
849.052	13.14
849.227	113.49
849.403	41.81
849.578	121.68
849.753	60.24
849.929	142.16
850.104	-5.29
850.279	23.38
850.454	113.49
850.63	95.06
850.805	21.33
850.98	31.57
851.155	86.87
851.33	93.01
851.505	19.29
851.681	33.62
851.856	-11.43
852.031	2.9
852.206	97.11
852.381	17.24
852.556	27.48
852.731	74.58
852.906	11.09
853.081	70.48
853.256	115.54
853.431	58.2
853.606	-5.29
853.781	-5.29
853.956	-52.39
854.131	19.29
854.305	60.24
854.48	-23.72
854.655	52.05
854.83	21.33
855.005	72.53
855.18	27.48
855.354	74.58
855.529	60.24
855.704	0.85
855.879	138.07
856.053	78.68
856.228	62.29
856.403	23.38
856.577	84.82
856.752	-5.29
856.926	76.63
857.101	105.3
857.276	86.87
857.45	33.62
857.625	80.72
857.799	11.09
857.974	11.09
858.148	-85.16
858.323	45.91
858.497	39.76
858.672	37.72
858.846	-38.06
859.02	54.1
859.195	-17.58
859.369	43.86
859.543	56.15
859.718	33.62
859.892	64.34
860.066	33.62
860.241	21.33
860.415	13.14
860.589	68.44
860.763	68.44
860.938	56.15
861.112	-7.34
861.286	56.15
861.46	90.96
861.634	25.43
861.808	64.34
861.982	-1.19
862.157	105.3
862.331	-11.43
862.505	84.82
862.679	-27.82
862.853	13.14
863.027	45.91
863.201	68.44
863.375	-11.43
863.549	-9.39
863.722	-7.34
863.896	39.76
864.07	11.09
864.244	50
864.418	29.52
864.592	47.96
864.766	76.63
864.939	25.43
865.113	-62.63
865.287	88.92
865.461	-29.87
865.634	4.95
865.808	-25.77
865.982	29.52
866.156	-33.96
866.329	-3.24
866.503	-60.59
866.676	4.95
866.85	-3.24
867.024	74.58
867.197	-3.24
867.371	58.2
867.544	0.85
867.718	-7.34
867.891	70.48
868.065	-21.67
868.238	84.82
868.412	-42.15
868.585	31.57
868.759	-5.29
868.932	-1.19
869.105	52.05
869.279	29.52
869.452	13.14
869.625	47.96
869.799	-9.39
869.972	-21.67
870.145	45.91
870.319	39.76
870.492	-13.48
870.665	7
870.838	-33.96
871.011	11.09
871.185	29.52
871.358	68.44
871.531	21.33
871.704	-5.29
871.877	-17.58
872.05	-60.59
872.223	-17.58
872.396	-29.87
872.569	111.44
872.742	-9.39
872.915	74.58
873.088	19.29
873.261	-7.34
873.434	-19.63
873.607	9.05
873.78	-11.43
873.953	-33.96
874.126	-9.39
874.299	101.2
874.471	21.33
874.644	15.19
874.817	27.48
874.99	41.81
875.163	2.9
875.335	-44.2
875.508	50
875.681	29.52
875.853	35.67
876.026	7
876.199	-7.34
876.371	-3.24
876.544	33.62
876.717	-23.72
876.889	-13.48
877.062	41.81
877.234	-42.15
877.407	54.1
877.579	84.82
877.752	54.1
877.924	50
878.097	95.06
878.269	33.62
878.442	-1.19
878.614	-33.96
878.786	0.85
878.959	70.48
879.131	-13.48
879.303	-13.48
879.476	-3.24
879.648	9.05
879.82	39.76
879.993	19.29
880.165	41.81
880.337	-1.19
880.509	-60.59
880.681	45.91
880.854	-5.29
881.026	4.95
881.198	97.11
881.37	27.48
881.542	39.76
881.714	13.14
881.886	13.14
882.058	39.76
882.23	-11.43
882.402	4.95
882.574	2.9
882.746	33.62
882.918	27.48
883.09	19.29
883.262	15.19
883.434	-11.43
883.606	-13.48
883.778	33.62
883.95	47.96
884.122	21.33
884.293	-46.25
884.465	54.1
884.637	33.62
884.809	25.43
884.98	29.52
885.152	-9.39
885.324	19.29
885.496	29.52
885.667	-68.78
885.839	39.76
886.011	31.57
886.182	-9.39
886.354	-38.06
886.525	-13.48
886.697	54.1
886.869	43.86
887.04	-23.72
887.212	39.76
887.383	88.92
887.555	4.95
887.726	109.4
887.897	-9.39
888.069	68.44
888.24	23.38
888.412	58.2
888.583	-7.34
888.754	-60.59
888.926	-11.43
889.097	-50.35
889.268	-17.58
889.44	11.09
889.611	-31.91
889.782	-9.39
889.953	-7.34
890.125	19.29
890.296	-11.43
890.467	-36.01
890.638	-29.87
890.809	21.33
890.98	-9.39
891.151	27.48
891.323	19.29
891.494	27.48
891.665	-46.25
891.836	19.29
892.007	11.09
892.178	33.62
892.349	21.33
892.52	31.57
892.691	-27.82
892.862	-44.2
893.032	-42.15
893.203	13.14
893.374	-7.34
893.545	-3.24
893.716	27.48
893.887	80.72
894.057	27.48
894.228	9.05
894.399	7
894.57	68.44
894.74	13.14
894.911	35.67
895.082	17.24
895.253	-79.02
895.423	27.48
895.594	72.53
895.764	-15.53
895.935	-31.91
896.106	111.44
896.276	7
896.447	15.19
896.617	-50.35
896.788	-21.67
896.958	-7.34
897.129	31.57
897.299	-31.91
897.47	35.67
897.64	-11.43
897.81	-46.25
897.981	19.29
898.151	47.96
898.322	64.34
898.492	-23.72
898.662	-23.72
898.832	-13.48
899.003	21.33
899.173	-62.63
899.343	41.81
899.513	-89.26
