Data from USB4F104151__73__12-24-18-546.txt Node

Date: Fri Mar 14 12:24:18 EDT 2025
User: louis
Spectrometer: USB4F10415
Trigger mode: 4
Integration Time (sec): 3.500000E-2
Scans to average: 1
Electric dark correction enabled: true
Nonlinearity correction enabled: false
Boxcar width: 0
XAxis mode: Wavelengths
Number of Pixels in Spectrum: 3648
>>>>>Begin Spectral Data<<<<<
178.204	-215.04
178.424	-215.04
178.644	-215.04
178.864	-196.61
179.084	-184.32
179.304	-4.1
179.524	-10.24
179.744	-34.82
179.964	47.1
180.184	57.34
180.404	-34.82
180.624	81.92
180.844	12.29
181.064	-20.48
181.283	-32.77
181.503	-47.1
181.723	-14.34
181.943	-43.01
182.163	53.25
182.383	-88.06
182.602	8.19
182.822	-16.38
183.042	-30.72
183.262	-53.25
183.482	-67.58
183.701	-2.05
183.921	-4.1
184.141	-59.39
184.361	-0
184.58	-4.1
184.8	-61.44
185.02	-38.91
185.239	6.14
185.459	20.48
185.679	77.82
185.898	-51.2
186.118	40.96
186.338	-28.67
186.557	12.29
186.777	-36.86
186.997	-22.53
187.216	-6.14
187.436	26.62
187.655	40.96
187.875	-4.1
188.095	-75.77
188.314	18.43
188.534	-40.96
188.753	-40.96
188.973	73.73
189.192	-43.01
189.412	65.53
189.631	-22.53
189.851	2.05
190.07	57.34
190.29	-57.34
190.509	-83.97
190.729	24.58
190.948	-36.86
191.168	131.07
191.387	90.11
191.607	-30.72
191.826	-14.34
192.045	-26.62
192.265	79.87
192.484	6.14
192.704	36.86
192.923	-30.72
193.142	65.53
193.362	49.15
193.581	18.43
193.8	6.14
194.02	71.68
194.239	-36.86
194.458	8.19
194.678	-24.58
194.897	30.72
195.116	-47.1
195.335	-6.14
195.555	-26.62
195.774	-59.39
195.993	28.67
196.212	-32.77
196.432	-10.24
196.651	28.67
196.87	-14.34
197.089	100.35
197.308	24.58
197.528	14.34
197.747	22.53
197.966	-65.54
198.185	83.97
198.404	-55.3
198.623	-26.62
198.842	8.19
199.062	4.1
199.281	16.38
199.5	-55.3
199.719	65.53
199.938	12.29
200.157	6.14
200.376	12.29
200.595	-6.14
200.814	28.67
201.033	73.73
201.252	-10.24
201.471	-92.16
201.69	61.44
201.909	34.82
202.128	-16.38
202.347	-47.1
202.566	71.68
202.785	-36.86
203.004	-51.2
203.223	114.69
203.442	-4.1
203.661	-32.77
203.879	-26.62
204.098	36.86
204.317	-77.82
204.536	10.24
204.755	10.24
204.974	71.68
205.193	-16.38
205.411	49.15
205.63	-0
205.849	16.38
206.068	2.05
206.287	-40.96
206.505	10.24
206.724	14.34
206.943	-16.38
207.162	38.91
207.381	4.1
207.599	4.1
207.818	92.16
208.037	61.44
208.255	-36.86
208.474	-32.77
208.693	24.58
208.911	-40.96
209.13	8.19
209.349	32.77
209.567	-8.19
209.786	22.53
210.005	18.43
210.223	-2.05
210.442	-6.14
210.661	71.68
210.879	-6.14
211.098	6.14
211.316	-18.43
211.535	26.62
211.753	43.01
211.972	-4.1
212.191	-28.67
212.409	-67.58
212.628	22.53
212.846	-14.34
213.065	-4.1
213.283	-53.25
213.502	32.77
213.72	49.15
213.938	-36.86
214.157	-49.15
214.375	16.38
214.594	-57.34
214.812	-38.91
215.031	-28.67
215.249	-18.43
215.467	-65.54
215.686	-12.29
215.904	-18.43
216.122	18.43
216.341	-24.58
216.559	-22.53
216.778	61.44
216.996	49.15
217.214	14.34
217.432	14.34
217.651	6.14
217.869	47.1
218.087	4.1
218.306	-40.96
218.524	4.1
218.742	2.05
218.96	28.67
219.179	-10.24
219.397	61.44
219.615	67.58
219.833	28.67
220.051	-98.3
220.27	40.96
220.488	-22.53
220.706	10.24
220.924	-28.67
221.142	-22.53
221.36	-83.97
221.578	-4.1
221.796	-4.1
222.015	36.86
222.233	-18.43
222.451	32.77
222.669	-40.96
222.887	-47.1
223.105	-10.24
223.323	49.15
223.541	-12.29
223.759	-40.96
223.977	-2.05
224.195	-24.58
224.413	-12.29
224.631	-61.44
224.849	-45.06
225.067	63.49
225.285	-71.68
225.503	-10.24
225.721	2.05
225.939	-16.38
226.157	86.01
226.375	81.92
226.592	-40.96
226.81	53.25
227.028	49.15
227.246	86.01
227.464	75.77
227.682	-36.86
227.9	159.74
228.117	10.24
228.335	28.67
228.553	-24.58
228.771	-53.25
228.989	59.39
229.206	20.48
229.424	4.1
229.642	-40.96
229.86	47.1
230.077	57.34
230.295	-34.82
230.513	43.01
230.731	47.1
230.948	45.06
231.166	-4.1
231.384	-43.01
231.601	43.01
231.819	24.58
232.037	-32.77
232.254	-53.25
232.472	133.12
232.689	-34.82
232.907	63.49
233.125	26.62
233.342	43.01
233.56	16.38
233.777	38.91
233.995	8.19
234.213	6.14
234.43	53.25
234.648	22.53
234.865	16.38
235.083	-2.05
235.3	24.58
235.518	-51.2
235.735	55.3
235.953	2.05
236.17	-18.43
236.388	-24.58
236.605	55.3
236.822	12.29
237.04	-14.34
237.257	61.44
237.475	-30.72
237.692	18.43
237.909	-63.49
238.127	-40.96
238.344	59.39
238.562	-34.82
238.779	-57.34
238.996	-32.77
239.214	-20.48
239.431	45.06
239.648	6.14
239.865	20.48
240.083	-61.44
240.3	38.91
240.517	-26.62
240.735	-43.01
240.952	26.62
241.169	-26.62
241.386	-55.3
241.603	6.14
241.821	-38.91
242.038	30.72
242.255	24.58
242.472	12.29
242.689	22.53
242.907	2.05
243.124	57.34
243.341	63.49
243.558	-81.92
243.775	-49.15
243.992	-36.86
244.209	6.14
244.426	108.54
244.643	-6.14
244.86	45.06
245.078	-10.24
245.295	8.19
245.512	-43.01
245.729	-45.06
245.946	8.19
246.163	10.24
246.38	40.96
246.597	-4.1
246.814	-24.58
247.031	-28.67
247.248	6.14
247.464	16.38
247.681	-16.38
247.898	8.19
248.115	-10.24
248.332	20.48
248.549	-8.19
248.766	14.34
248.983	32.77
249.2	63.49
249.417	24.58
249.633	-8.19
249.85	51.2
250.067	6.14
250.284	34.82
250.501	-20.48
250.717	20.48
250.934	-73.73
251.151	-26.62
251.368	-34.82
251.585	51.2
251.801	-30.72
252.018	-30.72
252.235	-14.34
252.451	-20.48
252.668	-69.63
252.885	-0
253.102	43.01
253.318	-14.34
253.535	-26.62
253.752	28.67
253.968	-28.67
254.185	-10.24
254.401	-6.14
254.618	6.14
254.835	-22.53
255.051	20.48
255.268	-20.48
255.484	30.72
255.701	-40.96
255.917	53.25
256.134	-36.86
256.351	-14.34
256.567	-38.91
256.784	14.34
257	6.14
257.217	49.15
257.433	6.14
257.65	65.53
257.866	45.06
258.082	-4.1
258.299	-38.91
258.515	-0
258.732	-53.25
258.948	-38.91
259.165	-18.43
259.381	-36.86
259.597	-26.62
259.814	30.72
260.03	-2.05
260.246	-8.19
260.463	12.29
260.679	-2.05
260.895	-34.82
261.112	4.1
261.328	47.1
261.544	-38.91
261.761	20.48
261.977	-2.05
262.193	-102.4
262.409	-6.14
262.626	6.14
262.842	14.34
263.058	-71.68
263.274	-28.67
263.49	-4.1
263.707	28.67
263.923	-8.19
264.139	10.24
264.355	-6.14
264.571	79.87
264.787	4.1
265.004	-0
265.22	36.86
265.436	-34.82
265.652	-36.86
265.868	-28.67
266.084	12.29
266.3	-55.3
266.516	-90.11
266.732	-47.1
266.948	51.2
267.164	-12.29
267.38	43.01
267.596	-47.1
267.812	96.25
268.028	32.77
268.244	69.63
268.46	6.14
268.676	-36.86
268.892	30.72
269.108	67.58
269.324	-26.62
269.54	4.1
269.756	61.44
269.972	51.2
270.188	30.72
270.403	10.24
270.619	40.96
270.835	-45.06
271.051	-57.34
271.267	-45.06
271.483	86.01
271.698	22.53
271.914	-104.45
272.13	36.86
272.346	-34.82
272.562	10.24
272.777	83.97
272.993	32.77
273.209	22.53
273.425	63.49
273.64	-4.1
273.856	-90.11
274.072	-30.72
274.287	-8.19
274.503	-22.53
274.719	-6.14
274.934	2.05
275.15	-36.86
275.366	32.77
275.581	-6.14
275.797	12.29
276.012	32.77
276.228	8.19
276.444	30.72
276.659	38.91
276.875	6.14
277.09	43.01
277.306	-43.01
277.521	-26.62
277.737	-28.67
277.952	12.29
278.168	28.67
278.383	-14.34
278.599	-16.38
278.814	-4.1
279.03	22.53
279.245	24.58
279.461	2.05
279.676	18.43
279.892	-26.62
280.107	20.48
280.322	2.05
280.538	-30.72
280.753	69.63
280.969	4.1
281.184	-6.14
281.399	63.49
281.615	12.29
281.83	26.62
282.045	4.1
282.26	24.58
282.476	-10.24
282.691	96.25
282.906	-32.77
283.122	22.53
283.337	-43.01
283.552	-26.62
283.767	-8.19
283.983	20.48
284.198	-18.43
284.413	43.01
284.628	-10.24
284.843	65.53
285.058	18.43
285.274	-4.1
285.489	10.24
285.704	14.34
285.919	6.14
286.134	-18.43
286.349	12.29
286.564	-43.01
286.779	6.14
286.995	-34.82
287.21	10.24
287.425	45.06
287.64	57.34
287.855	-14.34
288.07	-2.05
288.285	-16.38
288.5	4.1
288.715	75.77
288.93	-12.29
289.145	-4.1
289.36	-34.82
289.575	47.1
289.79	12.29
290.004	34.82
290.219	28.67
290.434	-53.25
290.649	-14.34
290.864	16.38
291.079	-4.1
291.294	6.14
291.509	22.53
291.724	2.05
291.938	8.19
292.153	6.14
292.368	-4.1
292.583	71.68
292.798	24.58
293.012	32.77
293.227	6.14
293.442	-6.14
293.657	45.06
293.871	36.86
294.086	16.38
294.301	43.01
294.516	67.58
294.73	-4.1
294.945	38.91
295.16	2.05
295.374	38.91
295.589	2.05
295.804	-30.72
296.018	20.48
296.233	79.87
296.447	45.06
296.662	-49.15
296.877	73.73
297.091	90.11
297.306	2.05
297.52	24.58
297.735	-10.24
297.949	-28.67
298.164	6.14
298.378	-63.49
298.593	10.24
298.807	-22.53
299.022	55.3
299.236	24.58
299.451	-14.34
299.665	-24.58
299.88	6.14
300.094	36.86
300.309	24.58
300.523	-18.43
300.737	-4.1
300.952	26.62
301.166	4.1
301.381	-32.77
301.595	-59.39
301.809	18.43
302.024	-0
302.238	-22.53
302.452	51.2
302.667	-8.19
302.881	-12.29
303.095	-2.05
303.309	-34.82
303.524	-36.86
303.738	-34.82
303.952	34.82
304.166	-28.67
304.381	-36.86
304.595	40.96
304.809	-12.29
305.023	-20.48
305.237	-61.44
305.452	-8.19
305.666	2.05
305.88	2.05
306.094	2.05
306.308	-36.86
306.522	59.39
306.736	63.49
306.95	73.73
307.164	6.14
307.379	-2.05
307.593	32.77
307.807	24.58
308.021	36.86
308.235	-16.38
308.449	-18.43
308.663	-61.44
308.877	49.15
309.091	47.1
309.305	-10.24
309.519	-92.16
309.733	18.43
309.947	6.14
310.161	14.34
310.374	12.29
310.588	65.53
310.802	-61.44
311.016	-16.38
311.23	-18.43
311.444	45.06
311.658	-12.29
311.872	16.38
312.085	-40.96
312.299	45.06
312.513	-24.58
312.727	14.34
312.941	-8.19
313.154	-30.72
313.368	-0
313.582	30.72
313.796	61.44
314.009	-26.62
314.223	-22.53
314.437	-51.2
314.651	-6.14
314.864	16.38
315.078	-2.05
315.292	-4.1
315.505	16.38
315.719	16.38
315.933	-67.58
316.146	-43.01
316.36	-16.38
316.573	61.44
316.787	118.78
317.001	47.1
317.214	-55.3
317.428	49.15
317.641	-16.38
317.855	12.29
318.068	51.2
318.282	63.49
318.495	18.43
318.709	-32.77
318.922	-32.77
319.136	67.58
319.349	-32.77
319.563	-49.15
319.776	-34.82
319.99	30.72
320.203	-14.34
320.417	-36.86
320.63	-30.72
320.843	65.53
321.057	-18.43
321.27	-36.86
321.483	36.86
321.697	65.53
321.91	51.2
322.124	-18.43
322.337	-30.72
322.55	38.91
322.763	-67.58
322.977	-2.05
323.19	16.38
323.403	53.25
323.617	53.25
323.83	-22.53
324.043	-18.43
324.256	-53.25
324.469	-30.72
324.683	32.77
324.896	24.58
325.109	20.48
325.322	-36.86
325.535	14.34
325.748	12.29
325.962	-59.39
326.175	-79.87
326.388	28.67
326.601	34.82
326.814	-28.67
327.027	-34.82
327.24	20.48
327.453	-63.49
327.666	38.91
327.879	-34.82
328.092	57.34
328.305	-6.14
328.518	22.53
328.731	14.34
328.944	6.14
329.157	-38.91
329.37	-67.58
329.583	90.11
329.796	32.77
330.009	-28.67
330.222	43.01
330.435	14.34
330.648	-16.38
330.861	-10.24
331.073	-4.1
331.286	106.49
331.499	14.34
331.712	-65.54
331.925	18.43
332.138	22.53
332.35	-4.1
332.563	28.67
332.776	149.5
332.989	10.24
333.202	-36.86
333.414	-30.72
333.627	61.44
333.84	-2.05
334.053	-43.01
334.265	-98.3
334.478	-32.77
334.691	22.53
334.903	-2.05
335.116	-2.05
335.329	-6.14
335.541	2.05
335.754	26.62
335.966	-18.43
336.179	38.91
336.392	53.25
336.604	22.53
336.817	61.44
337.029	30.72
337.242	-28.67
337.454	-55.3
337.667	2.05
337.88	71.68
338.092	-20.48
338.305	34.82
338.517	-28.67
338.729	26.62
338.942	71.68
339.154	2.05
339.367	-14.34
339.579	8.19
339.792	-65.54
340.004	22.53
340.217	-88.06
340.429	47.1
340.641	-59.39
340.854	-2.05
341.066	-51.2
341.278	-10.24
341.491	-18.43
341.703	12.29
341.915	-12.29
342.128	4.1
342.34	-34.82
342.552	16.38
342.764	-47.1
342.977	-63.49
343.189	51.2
343.401	81.92
343.613	-53.25
343.826	61.44
344.038	26.62
344.25	-51.2
344.462	-75.77
344.674	47.1
344.886	-83.97
345.099	8.19
345.311	18.43
345.523	61.44
345.735	-59.39
345.947	-10.24
346.159	40.96
346.371	-4.1
346.583	71.68
346.795	79.87
347.007	-2.05
347.219	12.29
347.431	28.67
347.643	90.11
347.855	-40.96
348.067	69.63
348.279	-36.86
348.491	2.05
348.703	20.48
348.915	30.72
349.127	-12.29
349.339	-36.86
349.551	22.53
349.763	34.82
349.975	-2.05
350.187	18.43
350.399	-32.77
350.61	24.58
350.822	2.05
351.034	-24.58
351.246	-32.77
351.458	63.49
351.669	30.72
351.881	77.82
352.093	16.38
352.305	59.39
352.517	12.29
352.728	28.67
352.94	20.48
353.152	-2.05
353.363	-49.15
353.575	94.21
353.787	102.4
353.999	-0
354.21	53.25
354.422	20.48
354.633	24.58
354.845	30.72
355.057	20.48
355.268	45.06
355.48	-4.1
355.692	-71.68
355.903	-32.77
356.115	-45.06
356.326	-73.73
356.538	77.82
356.749	-43.01
356.961	63.49
357.172	-10.24
357.384	10.24
357.595	43.01
357.807	-12.29
358.018	20.48
358.23	-4.1
358.441	88.06
358.653	-18.43
358.864	-36.86
359.075	-43.01
359.287	-12.29
359.498	114.69
359.709	-30.72
359.921	-16.38
360.132	-73.73
360.344	-14.34
360.555	-8.19
360.766	59.39
360.977	-57.34
361.189	26.62
361.4	28.67
361.611	18.43
361.823	36.86
362.034	55.3
362.245	-10.24
362.456	36.86
362.667	12.29
362.879	-30.72
363.09	4.1
363.301	30.72
363.512	-57.34
363.723	-47.1
363.935	8.19
364.146	45.06
364.357	86.01
364.568	-36.86
364.779	59.39
364.99	51.2
365.201	-16.38
365.412	32.77
365.623	-30.72
365.834	57.34
366.045	-40.96
366.256	106.49
366.467	16.38
366.678	-12.29
366.889	51.2
367.1	-43.01
367.311	73.73
367.522	30.72
367.733	-47.1
367.944	75.77
368.155	4.1
368.366	20.48
368.577	100.35
368.788	22.53
368.999	-65.54
369.209	-12.29
369.42	92.16
369.631	116.73
369.842	26.62
370.053	-18.43
370.264	40.96
370.474	-20.48
370.685	-12.29
370.896	43.01
371.107	81.92
371.317	38.91
371.528	12.29
371.739	59.39
371.95	-0
372.16	6.14
372.371	-28.67
372.582	-10.24
372.792	32.77
373.003	14.34
373.214	16.38
373.424	38.91
373.635	-104.45
373.846	55.3
374.056	30.72
374.267	-0
374.477	-4.1
374.688	12.29
374.898	18.43
375.109	71.68
375.319	6.14
375.53	59.39
375.74	4.1
375.951	-28.67
376.161	67.58
376.372	12.29
376.582	-36.86
376.793	116.73
377.003	-36.86
377.214	55.3
377.424	-16.38
377.635	-18.43
377.845	-40.96
378.055	61.44
378.266	-6.14
378.476	40.96
378.686	-26.62
378.897	-2.05
379.107	24.58
379.317	-26.62
379.528	-8.19
379.738	63.49
379.948	18.43
380.158	92.16
380.369	30.72
380.579	2.05
380.789	77.82
380.999	24.58
381.21	102.4
381.42	63.49
381.63	-28.67
381.84	61.44
382.05	-22.53
382.261	2.05
382.471	45.06
382.681	-47.1
382.891	-4.1
383.101	57.34
383.311	-14.34
383.521	22.53
383.731	-47.1
383.941	-0
384.151	86.01
384.361	-40.96
384.571	38.91
384.781	-57.34
384.991	40.96
385.201	186.37
385.411	43.01
385.621	34.82
385.831	-4.1
386.041	-22.53
386.251	61.44
386.461	83.97
386.671	-8.19
386.881	-20.48
387.091	-34.82
387.301	26.62
387.511	-8.19
387.72	-36.86
387.93	147.45
388.14	-10.24
388.35	-2.05
388.56	-10.24
388.769	53.25
388.979	100.35
389.189	-8.19
389.399	57.34
389.609	36.86
389.818	65.53
390.028	18.43
390.238	73.73
390.447	-53.25
390.657	38.91
390.867	-18.43
391.076	-61.44
391.286	-12.29
391.496	14.34
391.705	47.1
391.915	-26.62
392.125	108.54
392.334	55.3
392.544	-0
392.753	49.15
392.963	8.19
393.172	43.01
393.382	-16.38
393.591	90.11
393.801	-10.24
394.01	36.86
394.22	47.1
394.429	-16.38
394.639	14.34
394.848	47.1
395.058	45.06
395.267	26.62
395.477	61.44
395.686	45.06
395.895	73.73
396.105	81.92
396.314	40.96
396.524	116.73
396.733	14.34
396.942	53.25
397.152	-16.38
397.361	-14.34
397.57	4.1
397.78	20.48
397.989	30.72
398.198	67.58
398.407	20.48
398.617	-14.34
398.826	57.34
399.035	34.82
399.244	32.77
399.453	20.48
399.663	-16.38
399.872	51.2
400.081	-22.53
400.29	118.78
400.499	53.25
400.708	57.34
400.917	16.38
401.127	86.01
401.336	-26.62
401.545	188.41
401.754	106.49
401.963	96.25
402.172	-24.58
402.381	59.39
402.59	71.68
402.799	18.43
403.008	83.97
403.217	43.01
403.426	34.82
403.635	79.87
403.844	-0
404.053	83.97
404.262	65.53
404.471	165.89
404.68	30.72
404.888	59.39
405.097	45.06
405.306	-57.34
405.515	75.77
405.724	92.16
405.933	81.92
406.142	129.02
406.35	116.73
406.559	106.49
406.768	77.82
406.977	133.12
407.185	92.16
407.394	178.17
407.603	40.96
407.812	131.07
408.02	124.93
408.229	122.88
408.438	79.87
408.646	77.82
408.855	61.44
409.064	169.98
409.272	106.49
409.481	186.37
409.69	104.45
409.898	112.64
410.107	59.39
410.315	217.08
410.524	202.75
410.733	180.22
410.941	190.46
411.15	178.17
411.358	161.79
411.567	253.95
411.775	233.47
411.984	161.79
412.192	350.2
412.401	260.09
412.609	350.2
412.818	290.81
413.026	323.58
413.234	262.14
413.443	276.48
413.651	196.6
413.86	311.29
414.068	356.35
414.276	358.39
414.485	251.9
414.693	348.15
414.901	370.68
415.11	391.16
415.318	471.03
415.526	403.45
415.734	415.74
415.943	464.89
416.151	450.55
416.359	485.37
416.567	446.46
416.776	528.38
416.984	487.42
417.192	544.76
417.4	518.14
417.608	520.18
417.817	600.05
418.025	575.48
418.233	690.17
418.441	624.63
418.649	655.35
418.857	747.51
419.065	724.98
419.273	692.21
419.481	774.13
419.689	794.61
419.897	882.67
420.105	802.8
420.313	905.2
420.521	958.45
420.729	917.49
420.937	1007.6
421.145	950.26
421.353	1056.75
421.561	1073.14
421.769	1105.9
421.977	1165.29
422.185	1148.91
422.393	1191.92
422.601	1339.37
422.809	1214.45
423.017	1275.88
423.224	1376.23
423.432	1531.88
423.64	1427.43
423.848	1615.85
424.056	1470.44
424.263	1564.65
424.471	1517.54
424.679	1669.09
424.887	1779.68
425.094	1806.31
425.302	1867.75
425.51	1837.03
425.718	1957.86
425.925	1867.75
426.133	1976.29
426.341	2150.37
426.548	2189.28
426.756	2293.72
426.964	2277.34
427.171	2469.85
427.379	2562.01
427.586	2635.74
427.794	2684.89
428.001	2627.54
428.209	2666.46
428.417	2734.04
428.624	2971.6
428.832	2879.44
429.039	2887.64
429.247	2895.83
429.454	3076.05
429.662	3579.85
429.869	3225.55
430.076	3477.45
430.284	3330
430.491	3497.93
430.699	3825.61
430.906	3704.78
431.114	3745.73
431.321	3893.19
431.528	3950.53
431.736	4214.72
431.943	4343.74
432.15	4358.08
432.358	4296.64
432.565	4552.63
432.772	4454.33
432.979	4818.87
433.187	4900.79
433.394	4906.93
433.601	5224.37
433.808	5345.2
434.016	5402.54
434.223	5472.17
434.43	5752.74
434.637	5687.21
434.844	5971.88
435.052	6053.8
435.259	6041.51
435.466	6369.18
435.673	6305.7
435.88	6602.65
436.087	7047.06
436.294	6997.91
436.501	6750.1
436.708	6825.88
436.915	7245.71
437.122	7520.14
437.329	7313.3
437.537	7511.95
437.743	7907.21
437.95	7694.22
438.157	8107.91
438.364	8404.86
438.571	8292.23
438.778	8443.78
438.985	9301.87
439.192	8841.08
439.399	9041.78
439.606	8994.68
439.813	9584.49
440.02	10039.14
440.227	9971.56
440.433	9748.33
440.64	10155.88
440.847	9854.83
441.054	10090.34
441.261	11073.37
441.467	10585.95
441.674	11140.95
441.881	11442
442.088	11542.35
442.294	11384.66
442.501	11628.37
442.708	11919.18
442.914	12324.68
443.121	12805.95
443.328	12709.69
443.534	13567.79
443.741	13055.8
443.948	12918.59
444.154	13594.42
444.361	13809.45
444.568	13750.06
444.774	13868.84
444.981	13936.43
445.187	14370.6
445.394	15230.74
445.6	14841.63
445.807	16332.55
446.013	15394.58
446.22	15910.67
446.426	16539.4
446.633	16576.26
446.839	16928.51
447.046	16469.76
447.252	17274.62
447.459	17338.1
447.665	17370.87
447.871	18058.99
448.078	18978.53
448.284	18069.23
448.491	18448.1
448.697	19422.94
448.903	19707.6
449.11	19605.2
449.316	19388.12
449.522	19912.4
449.728	20430.54
449.935	20555.46
450.141	20395.72
450.347	20600.52
450.553	20072.14
450.76	20489.93
450.966	21233.34
451.172	20684.48
451.378	21550.78
451.584	21094.08
451.791	21597.88
451.997	21561.01
452.203	21718.71
452.409	22034.1
452.615	21624.5
452.821	20887.23
453.027	20922.05
453.233	22085.29
453.44	20922.05
453.646	21388.99
453.852	21219
454.058	21401.27
454.264	20979.39
454.47	21251.77
454.676	20870.85
454.882	21657.27
455.088	19619.54
455.294	19998.41
455.5	20242.12
455.705	20340.43
455.911	19699.41
456.117	19044.06
456.323	19134.17
456.529	18110.19
456.735	18636.52
456.941	18345.7
457.147	18179.82
457.352	17620.72
457.558	17417.97
457.764	17239.8
457.97	16762.62
458.176	16756.48
458.381	16652.03
458.587	15826.7
458.793	16000.78
458.999	14894.88
459.204	15798.03
459.41	15871.76
459.616	14497.57
459.821	14507.81
460.027	14516
460.233	13821.74
460.438	13436.72
460.644	13457.2
460.85	12980.03
461.055	12891.96
461.261	12961.59
461.466	11679.57
461.672	11392.85
461.878	12091.21
462.083	11407.19
462.289	11478.86
462.494	11376.47
462.7	10669.92
462.905	10448.74
463.111	10880.86
463.316	10753.88
463.522	10682.2
463.727	10485.6
463.932	10426.21
464.138	10489.7
464.343	10450.78
464.549	10258.28
464.754	10327.91
464.959	10477.41
465.165	10149.73
465.37	9940.84
465.575	9774.95
465.781	9957.22
465.986	10182.5
466.191	9613.17
466.397	9455.47
466.602	8902.52
466.807	9387.89
467.012	9506.67
467.218	9551.73
467.423	9281.39
467.628	9187.19
467.833	9609.07
468.038	9287.54
468.244	8951.67
468.449	9418.61
468.654	9074.55
468.859	9097.08
469.064	8853.37
469.269	8574.85
469.474	8517.5
469.679	8957.82
469.885	8583.04
470.09	8705.92
470.295	8662.91
470.5	8411.01
470.705	8513.41
470.91	8224.64
471.115	8236.93
471.32	8445.82
471.525	8478.59
471.73	8195.97
471.935	7956.36
472.139	7860.1
472.344	7845.77
472.549	7858.06
472.754	7892.87
472.959	7505.81
473.164	7370.64
473.369	7479.18
473.574	7575.44
473.778	7610.25
473.983	7438.22
474.188	7620.49
474.393	7214.99
474.598	7378.83
474.802	7104.4
475.007	7237.52
475.212	7065.49
475.417	6668.19
475.621	6948.76
475.826	6703
476.031	6694.81
476.235	6467.49
476.44	6649.75
476.645	6547.36
476.849	6385.57
477.054	6334.37
477.259	6317.98
477.463	6324.13
477.668	6215.59
477.872	6246.3
478.077	6215.59
478.282	5953.45
478.486	6035.36
478.691	5939.11
478.895	5830.57
479.1	5959.59
479.304	5957.54
479.509	5623.72
479.713	5871.53
479.918	5758.89
480.122	5506.99
480.326	5746.6
480.531	5724.07
480.735	5719.98
480.94	5732.26
481.144	5666.73
481.348	5537.71
481.553	5582.76
481.757	5496.75
481.961	5586.86
482.166	5560.24
482.37	5543.85
482.574	5423.02
482.778	5568.43
482.983	5500.84
483.187	5523.37
483.391	5586.86
483.595	5429.17
483.8	5410.73
484.004	5466.03
484.208	5476.27
484.412	5423.02
484.616	5423.02
484.821	5539.76
485.025	5515.18
485.229	5461.93
485.433	5382.06
485.637	5535.66
485.841	5351.34
486.045	5437.36
486.249	5527.47
486.453	5525.42
486.657	5482.41
486.861	5572.52
487.065	5461.93
487.269	5427.12
487.473	5314.48
487.677	5474.22
487.881	5613.48
488.085	5517.23
488.289	5445.55
488.493	5552.04
488.697	5568.43
488.901	5541.8
489.105	5648.3
489.309	5541.8
489.512	5521.32
489.716	5547.95
489.92	5498.8
490.124	5509.04
490.328	5617.58
490.531	5498.8
490.735	5611.43
490.939	5631.91
491.143	5685.16
491.346	5732.26
491.55	5765.03
491.754	5793.7
491.958	5939.11
492.161	5703.59
492.365	5681.07
492.569	5713.83
492.772	5709.74
492.976	5851.05
493.18	5709.74
493.383	6066.08
493.587	5988.26
493.79	6047.65
493.994	5894.05
494.197	6059.94
494.401	6148
494.605	5939.11
494.808	6219.68
495.012	6231.97
495.215	6201.25
495.419	6174.63
495.622	6379.42
495.825	6455.2
496.029	6297.5
496.232	6627.23
496.436	6500.25
496.639	6819.74
496.843	6647.71
497.046	6854.55
497.249	6858.65
497.453	6983.57
497.656	7128.98
497.859	6971.29
498.063	7088.02
498.266	7196.56
498.469	7133.08
498.673	7184.27
498.876	7419.79
499.079	7266.19
499.282	7470.99
499.485	7606.16
499.689	7577.48
499.892	7667.59
500.095	7798.66
500.298	8195.97
500.501	7989.13
500.705	8034.18
500.908	8187.78
501.111	8275.84
501.314	8411.01
501.517	8597.37
501.72	8525.69
501.923	8404.86
502.126	8816.51
502.329	9107.32
502.532	8966.01
502.735	9103.22
502.938	9252.72
503.141	9359.22
503.344	9559.92
503.547	9445.23
503.75	9582.45
503.953	9807.72
504.156	9785.19
504.359	9969.51
504.562	9766.76
504.765	10227.56
504.968	10327.91
505.17	10268.52
505.373	10393.44
505.576	10594.14
505.779	10792.8
505.982	10923.87
506.185	11136.85
506.387	11050.84
506.59	11194.2
506.793	11409.23
506.996	11509.58
507.198	11665.23
507.401	11716.43
507.604	11976.52
507.807	12046.15
508.009	12074.82
508.212	12226.37
508.415	12494.66
508.617	12490.56
508.82	12656.45
509.022	12795.71
509.225	13000.51
509.428	12908.35
509.63	12891.96
509.833	13258.55
510.035	13469.49
510.238	13592.37
510.44	13842.22
510.643	14092.07
510.845	14001.96
511.048	13907.76
511.25	14393.12
511.453	14409.51
511.655	14821.15
511.858	14812.96
512.06	15126.3
512.262	15097.63
512.465	15337.24
512.667	15587.09
512.87	15847.18
513.072	15843.09
513.274	16027.4
513.477	16195.34
513.679	16183.05
513.881	16416.52
514.084	16918.27
514.286	16666.37
514.488	16824.06
514.69	17319.67
514.893	17553.14
515.095	17639.15
515.297	17544.95
515.499	17897.2
515.701	17981.17
515.904	18063.08
516.106	18534.12
516.308	18624.23
516.51	18855.65
516.712	18894.56
516.914	19164.89
517.116	19742.42
517.318	19308.25
517.52	19726.03
517.722	19834.58
517.925	20321.99
518.127	20522.69
518.329	20776.64
518.531	20563.65
518.733	21120.7
518.935	21448.38
519.136	21397.18
519.338	21722.8
519.54	21995.18
519.742	22030
519.944	22230.7
520.146	22595.24
520.348	22554.28
520.55	22511.27
520.752	23033.5
520.954	23424.67
521.155	23408.28
521.357	23543.45
521.559	23807.64
521.761	24303.25
521.963	24428.17
522.164	24411.79
522.366	24407.69
522.568	25028.23
522.77	25149.06
522.971	25419.39
523.173	25419.39
523.375	25554.55
523.576	25831.03
523.778	25904.76
523.98	26125.94
524.181	26535.53
524.383	26730.09
524.584	26748.52
524.786	26611.31
524.988	26961.51
525.189	27373.15
525.391	27371.1
525.592	27477.6
525.794	27498.08
525.995	27457.12
526.197	27684.44
526.398	28063.32
526.6	28253.78
526.801	28409.42
527.003	28323.41
527.204	28272.21
527.406	28958.28
527.607	29058.63
527.808	29361.73
528.01	28737.1
528.211	28917.32
528.412	29638.2
528.614	29648.44
528.815	29490.75
529.016	29773.37
529.218	29533.76
529.419	29980.21
529.62	30414.38
529.822	29664.83
530.023	29922.87
530.224	29998.65
530.425	29941.3
530.626	30010.93
530.828	29949.49
531.029	30594.61
531.23	30373.42
531.431	30293.55
531.632	30567.98
531.833	30561.84
532.035	30768.68
532.236	30701.1
532.437	30895.66
532.638	30727.72
532.839	30903.85
533.04	31227.43
533.241	30778.92
533.442	31495.71
533.643	30983.72
533.844	30877.22
534.045	31569.44
534.246	30842.41
534.447	31311.39
534.648	31233.57
534.849	31118.89
535.05	31262.24
535.251	31284.77
535.451	31417.89
535.652	31327.78
535.853	31215.14
536.054	31409.7
536.255	31675.93
536.456	30826.03
536.657	31790.62
536.857	31315.49
537.058	31456.8
537.259	31608.35
537.46	31479.33
537.66	31493.66
537.861	31508
538.062	31401.5
538.263	31467.04
538.463	31446.56
538.664	31374.88
538.865	31254.05
539.065	31778.33
539.266	31421.98
539.466	31829.53
539.667	31301.15
539.868	31731.23
540.068	31370.79
540.269	31405.6
540.469	31804.95
540.67	31122.98
540.87	31702.56
541.071	31483.42
541.271	31782.43
541.472	31444.51
541.672	31415.84
541.873	31206.95
542.073	31102.5
542.274	31630.88
542.474	31362.59
542.675	31168.04
542.875	31686.17
543.075	31503.9
543.276	31168.04
543.476	31467.04
543.676	31354.4
543.877	31671.84
544.077	31675.93
544.277	31233.57
544.478	31192.61
544.678	31325.73
544.878	31571.49
545.078	31626.78
545.279	30963.24
545.479	31256.1
545.679	31464.99
545.879	31170.08
546.079	31335.97
546.28	31104.55
546.48	31211.04
546.68	31211.04
546.88	31186.47
547.08	31546.91
547.28	31073.83
547.48	31172.13
547.68	31184.42
547.88	30963.24
548.081	31360.55
548.281	31219.24
548.481	31247.91
548.681	31405.6
548.881	30912.04
549.081	31360.55
549.28	31039.01
549.48	31295.01
549.68	31202.85
549.88	31419.94
550.08	31245.86
550.28	31385.12
550.48	31227.43
550.68	31602.21
550.88	30940.71
551.08	30725.68
551.279	31215.14
551.479	30856.75
551.679	31071.78
551.879	31231.52
552.079	31168.04
552.278	31059.49
552.478	30860.84
552.678	31288.87
552.878	31483.42
553.077	30703.15
553.277	30658.09
553.477	31147.56
553.676	31145.51
553.876	30807.59
554.076	30785.07
554.275	30823.98
554.475	30559.79
554.674	30965.29
554.874	30918.18
555.074	30699.05
555.273	30766.63
555.473	30805.55
555.672	30817.83
555.872	30770.73
556.071	30897.7
556.271	30920.23
556.47	30443.06
556.67	30334.51
556.869	30279.22
557.068	30461.49
557.268	30418.48
557.467	30447.15
557.667	30287.41
557.866	30107.19
558.065	29863.48
558.265	30133.81
558.464	29824.57
558.663	30496.3
558.863	29867.58
559.062	30260.79
559.261	29744.7
559.461	30242.35
559.66	29718.07
559.859	29392.45
560.058	29507.13
560.258	29879.86
560.457	29324.86
560.656	29656.64
560.855	29136.45
561.054	29605.44
561.253	29435.45
561.453	29294.15
561.652	29304.38
561.851	29668.92
562.05	29275.71
562.249	29054.53
562.448	29058.63
562.647	28608.08
562.846	28737.1
563.045	29032
563.244	28452.43
563.443	28870.22
563.642	28130.9
563.841	28620.36
564.04	28194.39
564.239	28780.1
564.438	28190.29
564.637	28520.01
564.836	28341.84
565.035	28053.08
565.234	28374.61
565.432	27590.24
565.631	27682.39
565.83	28075.6
566.029	27811.42
566.228	27485.79
566.427	27684.44
566.625	27231.84
566.824	26809.96
567.023	27106.91
567.222	27033.19
567.42	27094.63
567.619	26936.93
567.818	27059.81
568.016	26656.36
568.215	27049.57
568.414	26404.46
568.612	26658.41
568.811	26445.42
569.01	26709.61
569.208	26351.21
569.407	26490.48
569.605	26158.7
569.804	26574.44
570.002	25810.55
570.201	25820.79
570.4	25747.06
570.598	25777.78
570.797	25751.16
570.995	25849.46
571.193	25298.56
571.392	25552.51
571.59	25319.04
571.789	25400.96
571.987	25138.82
572.186	25206.4
572.384	25384.57
572.582	25097.86
572.781	25015.94
572.979	24397.45
573.177	24837.76
573.376	25255.55
573.574	24397.45
573.772	24573.58
573.971	24446.6
574.169	24082.06
574.367	24231.57
574.565	24462.99
574.763	24069.78
574.962	23875.22
575.16	23561.88
575.358	23987.86
575.556	23332.51
575.754	23844.5
575.952	23301.79
576.151	23838.36
576.349	23361.18
576.547	23350.94
576.745	23301.79
576.943	23516.83
577.141	23340.7
577.339	22953.63
577.537	23056.03
577.735	23035.55
577.933	22554.28
578.131	22769.32
578.329	22814.37
578.527	22331.05
578.725	22562.47
578.923	22359.72
579.121	22245.04
579.319	22249.13
579.516	22132.4
579.714	22226.6
579.912	22038.19
580.11	22144.69
580.308	21986.99
580.506	21878.45
580.704	21536.44
580.901	21995.18
581.099	21890.74
581.297	21538.49
581.495	21761.72
581.692	21704.37
581.89	21352.12
582.088	21765.81
582.285	21411.51
582.483	21245.63
582.681	21184.19
582.878	20981.44
583.076	20899.52
583.274	21024.45
583.471	20887.23
583.669	20764.36
583.866	20807.36
584.064	20807.36
584.262	20307.66
584.459	20672.2
584.657	20496.07
584.854	20823.75
585.052	20039.37
585.249	20510.41
585.447	20240.08
585.644	20119.24
585.841	20289.23
586.039	20399.82
586.236	19846.87
586.434	19734.23
586.631	19984.08
586.828	19824.34
587.026	19678.93
587.223	19703.51
587.42	19723.99
587.618	19406.55
587.815	19699.41
588.012	19433.18
588.21	19326.68
588.407	19547.86
588.604	19205.85
588.801	19160.8
588.999	19226.33
589.196	19271.39
589.393	19005.15
589.59	19173.08
589.787	18755.3
589.984	18767.59
590.182	18605.8
590.379	18933.47
590.576	18511.59
590.773	18558.69
590.97	18552.55
591.167	18700
591.364	18167.53
591.561	18636.52
591.758	18149.1
591.955	18020.08
592.152	18265.83
592.349	17915.63
592.546	18155.24
592.743	17919.73
592.94	17669.87
593.137	17925.87
593.334	18036.46
593.531	17526.52
593.727	17880.82
593.924	18001.65
594.121	17688.31
594.318	17831.66
594.515	17207.03
594.712	17778.42
594.908	17506.04
595.105	17667.83
595.302	17469.17
595.499	17350.39
595.696	17364.73
595.892	17032.96
596.089	17293.05
596.286	16897.79
596.482	17102.59
596.679	16996.09
596.876	16996.09
597.072	16846.59
597.269	17030.91
597.466	16748.29
597.662	16629.51
597.859	16555.78
598.055	16586.5
598.252	16830.21
598.448	16318.22
598.645	16199.43
598.841	16318.22
599.038	16543.49
599.234	16434.95
599.431	16068.36
599.627	16164.62
599.824	16152.33
600.02	15949.58
600.217	16181
600.413	16310.02
600.609	16004.88
600.806	16054.03
601.002	15959.82
601.198	15585.04
601.395	15847.18
601.591	15769.36
601.787	15499.03
601.984	15292.18
602.18	15714.06
602.376	15599.38
602.572	15449.88
602.769	15226.65
602.965	15296.28
603.161	15277.85
603.357	15124.25
603.553	15087.39
603.75	15283.99
603.946	14956.32
604.142	15183.64
604.338	14761.76
604.534	15054.62
604.73	14802.72
604.926	14651.17
605.122	14892.83
605.318	14591.78
605.514	14571.3
605.71	14700.32
605.906	14569.25
606.102	14655.26
606.298	14692.13
606.494	14552.87
606.69	14606.11
606.886	14483.23
607.082	14022.44
607.278	14495.52
607.474	14090.02
607.67	14454.56
607.866	14012.2
608.062	14382.88
608.257	14282.53
608.453	14210.86
608.649	14057.26
608.845	13981.48
609.041	13971.24
609.236	14030.63
609.432	13920.04
609.628	13758.25
609.824	14094.12
610.019	13653.81
610.215	13606.7
610.411	13725.49
610.606	13664.05
610.802	13700.91
610.998	13637.42
611.193	13623.09
611.389	13473.59
611.584	13530.93
611.78	13225.78
611.976	13395.76
612.171	13457.2
612.367	13412.15
612.562	13135.67
612.758	13008.7
612.953	12896.06
613.149	13539.12
613.344	13023.03
613.539	13319.99
613.735	13039.42
613.93	13129.53
614.126	12912.44
614.321	13365.04
614.517	13236.02
614.712	13334.32
614.907	12977.98
615.103	12865.34
615.298	12818.24
615.493	12947.26
615.688	12713.79
615.884	12906.3
616.079	12773.18
616.274	12838.72
616.47	12599.1
616.665	12697.41
616.86	12597.06
617.055	12623.68
617.25	12681.02
617.445	12730.17
617.641	12445.51
617.836	12674.88
618.031	12234.57
618.226	12558.14
618.421	12304.2
618.616	12259.14
618.811	12169.03
619.006	12435.27
619.201	12244.81
619.396	12187.46
619.591	12040.01
619.786	12035.91
619.981	11788.11
620.176	12044.1
620.371	11784.01
620.566	11804.49
620.761	11906.89
620.956	11890.51
621.151	11585.36
621.346	11847.5
621.541	11374.42
621.735	11630.41
621.93	11396.95
622.125	11521.87
622.32	11130.71
622.515	11358.03
622.709	11165.53
622.904	11165.53
623.099	11003.74
623.294	11239.25
623.488	10989.4
623.683	11065.18
623.878	10655.58
624.072	10987.35
624.267	10864.47
624.462	10719.07
624.656	10665.82
624.851	10534.75
625.046	10528.61
625.24	10491.74
625.435	10229.6
625.629	10309.47
625.824	10397.54
626.018	10370.91
626.213	10069.86
626.407	10012.52
626.602	9977.7
626.796	10020.71
626.991	9891.69
627.185	9946.98
627.38	9903.98
627.574	9768.81
627.768	9641.84
627.963	9525.1
628.157	9408.37
628.352	9422.7
628.546	9676.65
628.74	9344.88
628.935	9508.72
629.129	9377.65
629.323	9189.24
629.517	9219.96
629.712	9213.81
629.906	9256.82
630.1	9002.87
630.294	9226.1
630.489	9064.31
630.683	8990.58
630.877	8912.76
631.071	8988.53
631.265	9045.88
631.459	8963.96
631.653	8787.83
631.848	8765.31
632.042	8714.11
632.236	8787.83
632.43	8583.04
632.624	8714.11
632.818	8726.39
633.012	8339.33
633.206	8318.85
633.4	8392.58
633.594	8234.88
633.788	8382.34
633.982	8228.74
634.176	8226.69
634.369	8046.47
634.563	7962.5
634.757	8318.85
634.951	7903.11
635.145	8093.57
635.339	7901.06
635.533	7835.53
635.726	7810.95
635.92	7804.81
636.114	7856.01
636.308	7821.19
636.501	7643.02
636.695	7557
636.889	7571.34
637.083	7612.3
637.276	7354.26
637.47	7362.45
637.664	7292.82
637.857	7378.83
638.051	7208.85
638.244	7520.14
638.438	7311.25
638.632	7217.04
638.825	7090.07
639.019	7151.51
639.212	6918.04
639.406	7096.21
639.599	7045.01
639.793	7163.79
639.986	6930.33
640.18	6756.25
640.373	6885.27
640.567	6746.01
640.76	6700.95
640.954	6823.83
641.147	6659.99
641.34	6625.18
641.534	6885.27
641.727	6664.09
641.92	6731.67
642.114	6547.36
642.307	6350.75
642.5	6627.23
642.694	6391.71
642.887	6340.51
643.08	6295.46
643.273	6277.02
643.467	6381.47
643.66	6143.91
643.853	6125.47
644.046	5994.4
644.239	6289.31
644.432	6051.75
644.626	5924.77
644.819	5869.48
645.012	6092.71
645.205	6131.62
645.398	5973.92
645.591	5722.02
645.784	5748.65
645.977	5679.02
646.17	5681.07
646.363	5695.4
646.556	5758.89
646.749	5722.02
646.942	5683.11
647.135	5613.48
647.328	5486.51
647.521	5466.03
647.714	5463.98
647.907	5603.24
648.099	5545.9
648.292	5564.33
648.485	5488.56
648.678	5371.82
648.871	5291.95
649.064	5250.99
649.256	5328.81
649.449	5234.61
649.642	5113.78
649.835	5199.79
650.027	5185.46
650.22	5384.11
650.413	5210.03
650.605	5197.74
650.798	5054.39
650.991	4960.18
651.183	5062.58
651.376	5076.91
651.568	4831.16
651.761	4962.23
651.954	4939.7
652.146	4937.65
652.339	4982.71
652.531	4790.2
652.724	4874.17
652.916	4695.99
653.109	4794.29
653.301	4835.25
653.494	4845.49
653.686	4536.25
653.879	4726.71
654.071	4624.31
654.263	4612.03
654.456	4573.11
654.648	4632.51
654.84	4585.4
655.033	4427.71
655.225	4513.72
655.417	4401.08
655.61	4612.03
655.802	4689.85
655.994	4593.59
656.186	4306.88
656.379	4552.63
656.571	4405.18
656.763	4358.08
656.955	4339.65
657.148	4413.37
657.34	4317.12
657.532	4233.15
657.724	4253.63
657.916	4251.58
658.108	4155.33
658.3	4261.82
658.492	4206.53
658.684	4075.46
658.876	4069.31
659.068	4050.88
659.26	4052.93
659.452	4030.4
659.644	4079.55
659.836	4044.74
660.028	4296.64
660.22	3946.44
660.412	4171.71
660.604	3987.4
660.796	4112.32
660.988	3807.17
661.18	3901.38
661.372	3960.77
661.563	3938.24
661.755	3923.91
661.947	3790.79
662.139	3858.37
662.331	3815.37
662.522	3602.38
662.714	3807.17
662.906	3686.34
663.097	3737.54
663.289	3727.3
663.481	3596.23
663.673	3758.02
663.864	3704.78
664.056	3626.95
664.247	3645.38
664.439	3520.46
664.631	3553.23
664.822	3674.06
665.014	3610.57
665.205	3473.35
665.397	3563.47
665.588	3461.07
665.78	3418.06
665.971	3409.87
666.163	3485.64
666.354	3561.42
666.546	3444.68
666.737	3383.24
666.929	3387.34
667.12	3334.09
667.311	3340.24
667.503	3182.54
667.694	3241.93
667.885	3354.57
668.077	3475.4
668.268	3309.52
668.459	3379.15
668.651	3184.59
668.842	3393.48
669.033	3286.99
669.224	3266.51
669.416	3350.48
669.607	3330
669.798	3409.87
669.989	3346.38
670.18	3256.27
670.371	3241.93
670.563	3217.36
670.754	3276.75
670.945	3264.46
671.136	3338.19
671.327	3233.74
671.518	3239.89
671.709	3221.45
671.9	3319.76
672.091	3184.59
672.282	3157.97
672.473	3063.76
672.664	3092.43
672.855	3168.21
673.046	3164.11
673.237	3235.79
673.428	3125.2
673.619	3114.96
673.809	2969.55
674	3168.21
674.191	3018.71
674.382	3102.67
674.573	3069.91
674.764	3119.06
674.954	3110.86
675.145	3127.25
675.336	3192.78
675.527	3213.26
675.717	3160.02
675.908	3198.93
676.099	3213.26
676.289	3153.87
676.48	3076.05
676.671	3114.96
676.861	3071.95
677.052	2983.89
677.243	3110.86
677.433	3112.91
677.624	3100.62
677.814	3284.94
678.005	3018.71
678.195	3112.91
678.386	3137.49
678.576	3080.14
678.767	3235.79
678.957	3192.78
679.148	3125.2
679.338	3211.21
679.529	3096.53
679.719	3215.31
679.909	3151.82
680.1	3125.2
680.29	3225.55
680.481	3104.72
680.671	3239.89
680.861	3284.94
681.052	3248.08
681.242	3137.49
681.432	3297.23
681.622	3278.8
681.813	3129.3
682.003	3266.51
682.193	3192.78
682.383	3280.85
682.573	3205.07
682.764	3028.95
682.954	3254.22
683.144	3135.44
683.334	3198.93
683.524	3325.9
683.714	3229.65
683.904	3074
684.094	3219.41
684.284	3184.59
684.474	3225.55
684.664	3200.98
684.854	3108.82
685.044	3117.01
685.234	3094.48
685.424	3235.79
685.614	3141.58
685.804	3200.98
685.994	3129.3
686.184	3157.97
686.374	3117.01
686.564	3117.01
686.753	3063.76
686.943	3080.14
687.133	3096.53
687.323	3123.15
687.513	3100.62
687.702	3051.47
687.892	2914.26
688.082	2904.02
688.272	3102.67
688.461	3010.51
688.651	3084.24
688.841	2930.64
689.03	2967.51
689.22	2981.84
689.41	2975.7
689.599	3030.99
689.789	2936.79
689.979	2981.84
690.168	2891.73
690.358	2875.35
690.547	2920.4
690.737	2805.72
690.926	2799.57
691.116	2678.74
691.305	2949.07
691.495	2818
691.684	2740.18
691.874	2758.61
692.063	2738.13
692.252	2754.52
692.442	2811.86
692.631	2711.51
692.82	2641.88
693.01	2684.89
693.199	2750.42
693.388	2523.1
693.578	2594.78
693.767	2838.48
693.956	2557.91
694.146	2660.31
694.335	2701.27
694.524	2535.39
694.713	2602.97
694.902	2639.83
695.092	2506.71
695.281	2541.53
695.47	2502.62
695.659	2516.95
695.848	2461.66
696.037	2559.96
696.226	2557.91
696.415	2541.53
696.604	2594.78
696.793	2607.06
696.982	2488.28
697.171	2553.82
697.36	2514.91
697.549	2521.05
697.738	2478.04
697.927	2457.56
698.116	2430.94
698.305	2389.98
698.494	2547.67
698.683	2473.95
698.872	2416.6
699.061	2519
699.25	2471.9
699.438	2580.44
699.627	2465.75
699.816	2486.23
700.005	2484.19
700.193	2408.41
700.382	2576.34
700.571	2490.33
700.76	2420.7
700.948	2457.56
701.137	2549.72
701.326	2607.06
701.514	2402.27
701.703	2471.9
701.892	2506.71
702.08	2486.23
702.269	2586.58
702.457	2488.28
702.646	2566.1
702.834	2473.95
703.023	2586.58
703.212	2533.34
703.4	2447.32
703.589	2449.37
703.777	2523.1
703.965	2353.12
704.154	2379.74
704.342	2490.33
704.531	2486.23
704.719	2414.56
704.907	2621.4
705.096	2549.72
705.284	2539.48
705.472	2594.78
705.661	2447.32
705.849	2668.5
706.037	2576.34
706.226	2678.74
706.414	2586.58
706.602	2551.77
706.79	2629.59
706.979	2473.95
707.167	2484.19
707.355	2486.23
707.543	2531.29
707.731	2658.26
707.919	2475.99
708.107	2605.02
708.296	2688.98
708.484	2633.69
708.672	2457.56
708.86	2588.63
709.048	2617.3
709.236	2570.2
709.424	2588.63
709.612	2537.43
709.8	2555.86
709.988	2682.84
710.176	2674.65
710.364	2639.83
710.551	2658.26
710.739	2619.35
710.927	2635.74
711.115	2537.43
711.303	2777.05
711.491	2691.03
711.679	2666.46
711.866	2564.06
712.054	2580.44
712.242	2529.24
712.43	2641.88
712.617	2799.57
712.805	2797.53
712.993	2727.89
713.181	2609.11
713.368	2764.76
713.556	2660.31
713.744	2598.87
713.931	2789.33
714.119	2811.86
714.306	2740.18
714.494	2775
714.682	2723.8
714.869	2695.13
715.057	2701.27
715.244	2738.13
715.432	2844.63
715.619	2641.88
715.807	2725.85
715.994	2770.9
716.182	2813.91
716.369	2758.61
716.556	2873.3
716.744	2752.47
716.931	2822.1
717.119	2844.63
717.306	2844.63
717.493	2731.99
717.681	2867.16
717.868	2881.49
718.055	2922.45
718.242	2953.17
718.43	2787.29
718.617	2920.4
718.804	2863.06
718.991	2832.34
719.179	2879.44
719.366	2848.72
719.553	2832.34
719.74	2826.2
719.927	2944.98
720.114	2844.63
720.301	3008.47
720.488	2805.72
720.676	2899.92
720.863	2908.12
721.05	2996.18
721.237	2846.68
721.424	3043.28
721.611	2932.69
721.798	2901.97
721.985	2893.78
722.172	3059.67
722.358	2938.84
722.545	2951.12
722.732	2973.65
722.919	2947.03
723.106	2975.7
723.293	3022.8
723.48	3110.86
723.667	2918.36
723.853	2973.65
724.04	2992.08
724.227	3139.54
724.414	3008.47
724.6	3082.19
724.787	3174.35
724.974	3114.96
725.161	3026.9
725.347	3026.9
725.534	3104.72
725.72	3223.5
725.907	3205.07
726.094	3059.67
726.28	3086.29
726.467	3084.24
726.653	3047.38
726.84	3180.5
727.027	3233.74
727.213	3100.62
727.4	3258.32
727.586	3160.02
727.773	3000.27
727.959	3241.93
728.145	3043.28
728.332	3131.34
728.518	3094.48
728.705	3200.98
728.891	3200.98
729.077	3133.39
729.264	3344.33
729.45	3141.58
729.636	3276.75
729.823	3110.86
730.009	3364.81
730.195	3227.6
730.382	3186.64
730.568	3129.3
730.754	3315.66
730.94	3237.84
731.126	3268.56
731.313	3284.94
731.499	3270.61
731.685	3266.51
731.871	3225.55
732.057	3284.94
732.243	3319.76
732.429	3217.36
732.615	3366.86
732.801	3305.42
732.987	3270.61
733.173	3301.33
733.359	3383.24
733.545	3225.55
733.731	3203.02
733.917	3416.01
734.103	3323.85
734.289	3237.84
734.475	3305.42
734.661	3383.24
734.847	3375.05
735.033	3479.5
735.219	3336.14
735.404	3456.97
735.59	3276.75
735.776	3327.95
735.962	3313.61
736.148	3454.92
736.333	3452.88
736.519	3252.17
736.705	3289.04
736.89	3297.23
737.076	3442.64
737.262	3276.75
737.447	3270.61
737.633	3383.24
737.819	3295.18
738.004	3284.94
738.19	3248.08
738.375	3375.05
738.561	3215.31
738.747	3293.13
738.932	3248.08
739.118	3291.09
739.303	3356.62
739.489	3469.26
739.674	3348.43
739.859	3252.17
740.045	3250.13
740.23	3321.81
740.416	3145.68
740.601	3299.28
740.786	3291.09
740.972	3200.98
741.157	3411.92
741.342	3342.28
741.528	3178.45
741.713	3295.18
741.898	3147.73
742.084	3286.99
742.269	3155.92
742.454	3127.25
742.639	3223.5
742.824	3160.02
743.01	3274.7
743.195	3184.59
743.38	3286.99
743.565	3182.54
743.75	3235.79
743.935	3233.74
744.12	3305.42
744.305	3168.21
744.49	3053.52
744.675	3055.57
744.86	3084.24
745.045	3096.53
745.23	3155.92
745.415	2992.08
745.6	3184.59
745.785	3000.27
745.97	2961.36
746.155	3100.62
746.34	3037.14
746.525	3020.75
746.71	3098.58
746.895	2979.79
747.079	2920.4
747.264	2938.84
747.449	2922.45
747.634	2824.15
747.819	2889.68
748.003	2901.97
748.188	2865.11
748.373	2899.92
748.557	2832.34
748.742	2848.72
748.927	2820.05
749.111	2750.42
749.296	2766.81
749.481	2766.81
749.665	2734.04
749.85	2686.93
750.034	2662.36
750.219	2670.55
750.404	2691.03
750.588	2766.81
750.773	2645.98
750.957	2721.75
751.141	2607.06
751.326	2500.57
751.51	2648.02
751.695	2541.53
751.879	2519
752.064	2514.91
752.248	2502.62
752.432	2619.35
752.617	2494.43
752.801	2557.91
752.985	2349.02
753.17	2498.52
753.354	2422.75
753.538	2455.51
753.722	2328.54
753.907	2332.64
754.091	2310.11
754.275	2355.16
754.459	2418.65
754.643	2236.38
754.828	2260.96
755.012	2293.72
755.196	2207.71
755.38	2193.37
755.564	2215.9
755.748	2312.16
755.932	2189.28
756.116	2072.54
756.3	2142.18
756.484	2195.42
756.668	1990.63
756.852	2209.76
757.036	2078.69
757.22	2164.7
757.404	1943.52
757.588	1972.19
757.772	1968.1
757.956	2070.5
758.14	1988.58
758.323	2019.3
758.507	1974.24
758.691	2074.59
758.875	2058.21
759.059	2015.2
759.242	1980.39
759.426	1906.66
759.61	1959.91
759.794	1851.36
759.977	1851.36
760.161	1832.93
760.345	1925.09
760.528	1894.37
760.712	1789.92
760.895	1814.5
761.079	1884.13
761.263	1718.25
761.446	1798.12
761.63	1806.31
761.813	1789.92
761.997	1761.25
762.18	1751.01
762.364	1818.6
762.547	1714.15
762.731	1802.21
762.914	1771.49
763.098	1689.57
763.281	1777.64
763.464	1722.34
763.648	1685.48
763.831	1628.14
764.015	1744.87
764.198	1619.94
764.381	1597.42
764.564	1648.61
764.748	1613.8
764.931	1687.53
765.114	1609.7
765.297	1650.66
765.481	1552.36
765.664	1636.33
765.847	1570.79
766.03	1615.85
766.213	1564.65
766.397	1591.27
766.58	1505.26
766.763	1535.98
766.946	1480.68
767.129	1476.59
767.312	1591.27
767.495	1495.02
767.678	1492.97
767.861	1466.35
768.044	1521.64
768.227	1492.97
768.41	1499.11
768.593	1531.88
768.776	1492.97
768.959	1398.76
769.142	1593.32
769.324	1366
769.507	1343.47
769.69	1320.94
769.873	1376.23
770.056	1499.11
770.239	1439.72
770.421	1433.58
770.604	1382.38
770.787	1386.47
770.97	1294.32
771.152	1439.72
771.335	1296.36
771.518	1261.55
771.7	1273.84
771.883	1421.29
772.066	1312.75
772.248	1310.7
772.431	1284.08
772.613	1294.32
772.796	1267.69
772.978	1277.93
773.161	1253.36
773.343	1230.83
773.526	1275.88
773.708	1202.16
773.891	1239.02
774.073	1204.21
774.256	1306.6
774.438	1325.04
774.621	1107.95
774.803	1118.19
774.985	1089.52
775.168	1167.34
775.35	1165.29
775.532	1218.54
775.715	1161.2
775.897	1161.2
776.079	1097.71
776.261	1144.81
776.444	1136.62
776.626	1056.75
776.808	1050.61
776.99	1036.27
777.173	1124.33
777.355	1091.57
777.537	1001.46
777.719	1079.28
777.901	1040.37
778.083	1085.42
778.265	1060.85
778.447	1058.8
778.629	1046.51
778.811	1040.37
778.993	989.17
779.175	980.98
779.357	890.87
779.539	878.58
779.721	933.87
779.903	915.44
780.085	958.45
780.267	919.54
780.449	976.88
780.631	901.11
780.812	931.83
780.994	921.59
781.176	813.04
781.358	923.63
781.54	886.77
781.721	874.48
781.903	804.85
782.085	800.76
782.267	890.87
782.448	780.28
782.63	782.32
782.812	854
782.993	788.47
783.175	813.04
783.357	819.19
783.538	784.37
783.72	761.84
783.901	751.6
784.083	743.41
784.264	753.65
784.446	706.55
784.627	665.59
784.809	806.9
784.99	770.04
785.172	704.5
785.353	774.13
785.535	675.83
785.716	751.6
785.897	710.65
786.079	767.99
786.26	753.65
786.441	563.19
786.623	665.59
786.804	610.29
786.985	704.5
787.167	727.03
787.348	710.65
787.529	573.43
787.71	688.12
787.891	614.39
788.073	593.91
788.254	602.1
788.435	684.02
788.616	581.62
788.797	602.1
788.978	589.81
789.159	542.71
789.34	651.25
789.522	561.14
789.703	598.01
789.884	471.03
790.065	595.96
790.246	632.82
790.427	485.37
790.607	534.52
790.788	538.62
790.969	464.89
791.15	628.73
791.331	600.05
791.512	489.46
791.693	540.66
791.874	559.1
792.054	620.53
792.235	471.03
792.416	477.18
792.597	501.75
792.778	454.65
792.958	569.34
793.139	483.32
793.32	456.7
793.5	501.75
793.681	552.95
793.862	563.19
794.042	493.56
794.223	475.13
794.404	450.55
794.584	409.59
794.765	436.22
794.945	464.89
795.126	471.03
795.306	507.9
795.487	432.12
795.667	382.97
795.848	444.41
796.028	442.36
796.209	440.31
796.389	413.69
796.57	401.4
796.75	448.51
796.93	378.87
797.111	366.59
797.291	413.69
797.471	442.36
797.652	454.65
797.832	362.49
798.012	407.55
798.192	344.06
798.373	346.11
798.553	399.35
798.733	391.16
798.913	444.41
799.093	382.97
799.274	395.26
799.454	358.39
799.634	292.86
799.814	419.83
799.994	438.27
800.174	407.55
800.354	319.48
800.534	378.87
800.714	407.55
800.894	339.96
801.074	374.78
801.254	350.2
801.434	356.35
801.614	303.1
801.794	284.67
801.974	1015.79
802.154	419.83
802.334	286.72
802.514	321.53
802.693	190.46
802.873	292.86
803.053	421.88
803.233	323.58
803.413	292.86
803.592	292.86
803.772	313.34
803.952	270.33
804.131	319.48
804.311	282.62
804.491	364.54
804.67	272.38
804.85	276.48
805.03	256
805.209	296.96
805.389	251.9
805.568	352.25
805.748	280.57
805.928	327.67
806.107	296.96
806.287	301.05
806.466	280.57
806.646	284.67
806.825	266.24
807.004	229.37
807.184	337.91
807.363	317.44
807.543	272.38
807.722	268.28
807.901	256
808.081	221.18
808.26	233.47
808.439	200.7
808.619	223.23
808.798	270.33
808.977	225.28
809.156	315.39
809.336	223.23
809.515	319.48
809.694	180.22
809.873	206.84
810.052	323.58
810.231	278.52
810.411	280.57
810.59	266.24
810.769	309.24
810.948	212.99
811.127	131.07
811.306	186.37
811.485	253.95
811.664	266.24
811.843	237.56
812.022	221.18
812.201	124.93
812.38	206.84
812.559	141.31
812.737	231.42
812.916	229.37
813.095	286.72
813.274	303.1
813.453	260.09
813.632	196.6
813.811	208.89
813.989	219.13
814.168	235.52
814.347	165.89
814.526	288.76
814.704	231.42
814.883	258.04
815.062	249.85
815.24	235.52
815.419	212.99
815.598	208.89
815.776	141.31
815.955	167.93
816.133	110.59
816.312	282.62
816.49	135.17
816.669	223.23
816.847	241.66
817.026	221.18
817.204	231.42
817.383	149.5
817.561	157.69
817.74	135.17
817.918	180.22
818.097	225.28
818.275	126.97
818.453	260.09
818.632	176.13
818.81	223.23
818.988	176.13
819.167	147.45
819.345	163.84
819.523	219.13
819.701	174.08
819.879	202.75
820.058	108.54
820.236	192.51
820.414	145.41
820.592	186.37
820.77	221.18
820.948	167.93
821.127	165.89
821.305	135.17
821.483	133.12
821.661	208.89
821.839	106.49
822.017	92.16
822.195	167.93
822.373	174.08
822.551	192.51
822.729	182.27
822.907	231.42
823.085	198.65
823.262	141.31
823.44	20.48
823.618	73.73
823.796	110.59
823.974	120.83
824.152	120.83
824.329	112.64
824.507	145.41
824.685	135.17
824.863	73.73
825.04	98.3
825.218	126.97
825.396	208.89
825.574	180.22
825.751	135.17
825.929	104.45
826.107	69.63
826.284	186.37
826.462	143.36
826.639	49.15
826.817	75.77
826.994	215.04
827.172	112.64
827.349	178.17
827.527	174.08
827.704	159.74
827.882	94.21
828.059	116.73
828.237	157.69
828.414	167.93
828.591	163.84
828.769	75.77
828.946	96.25
829.124	147.45
829.301	129.02
829.478	159.74
829.655	118.78
829.833	61.44
830.01	-2.05
830.187	167.93
830.364	51.2
830.542	90.11
830.719	186.37
830.896	135.17
831.073	88.06
831.25	165.89
831.427	83.97
831.604	98.3
831.782	100.35
831.959	104.45
832.136	26.62
832.313	139.26
832.49	43.01
832.667	124.93
832.844	55.3
833.021	118.78
833.198	75.77
833.374	120.83
833.551	10.24
833.728	53.25
833.905	122.88
834.082	63.49
834.259	75.77
834.436	106.49
834.612	73.73
834.789	149.5
834.966	98.3
835.143	61.44
835.319	75.77
835.496	67.58
835.673	114.69
835.85	45.06
836.026	135.17
836.203	73.73
836.38	100.35
836.556	24.58
836.733	96.25
836.909	73.73
837.086	77.82
837.262	61.44
837.439	63.49
837.616	22.53
837.792	51.2
837.968	38.91
838.145	-67.58
838.321	-4.1
838.498	61.44
838.674	77.82
838.851	108.54
839.027	49.15
839.203	69.63
839.38	73.73
839.556	135.17
839.732	104.45
839.909	104.45
840.085	75.77
840.261	26.62
840.437	83.97
840.614	32.77
840.79	131.07
840.966	32.77
841.142	104.45
841.318	49.15
841.494	112.64
841.671	104.45
841.847	51.2
842.023	59.39
842.199	145.41
842.375	24.58
842.551	96.25
842.727	-2.05
842.903	67.58
843.079	-38.91
843.255	124.93
843.431	57.34
843.607	71.68
843.783	-14.34
843.959	110.59
844.134	12.29
844.31	90.11
844.486	59.39
844.662	90.11
844.838	61.44
845.013	88.06
845.189	83.97
845.365	83.97
845.541	75.77
845.716	86.01
845.892	36.86
846.068	-20.48
846.244	-63.49
846.419	75.77
846.595	-34.82
846.77	63.49
846.946	98.3
847.122	-36.86
847.297	108.54
847.473	4.1
847.648	28.67
847.824	79.87
847.999	-0
848.175	10.24
848.35	81.92
848.526	43.01
848.701	75.77
848.876	137.21
849.052	16.38
849.227	-38.91
849.403	-43.01
849.578	12.29
849.753	-2.05
849.929	90.11
850.104	14.34
850.279	6.14
850.454	-2.05
850.63	55.3
850.805	45.06
850.98	10.24
851.155	67.58
851.33	45.06
851.505	-24.58
851.681	71.68
851.856	55.3
852.031	8.19
852.206	67.58
852.381	-22.53
852.556	116.73
852.731	61.44
852.906	45.06
853.081	-6.14
853.256	118.78
853.431	20.48
853.606	75.77
853.781	28.67
853.956	-18.43
854.131	-16.38
854.305	-53.25
854.48	-22.53
854.655	-22.53
854.83	53.25
855.005	-47.1
855.18	16.38
855.354	20.48
855.529	-20.48
855.704	-73.73
855.879	71.68
856.053	-49.15
856.228	12.29
856.403	-45.06
856.577	106.49
856.752	-57.34
856.926	4.1
857.101	14.34
857.276	-12.29
857.45	26.62
857.625	10.24
857.799	-43.01
857.974	-0
858.148	-18.43
858.323	24.58
858.497	-79.87
858.672	69.63
858.846	-14.34
859.02	-32.77
859.195	14.34
859.369	-16.38
859.543	12.29
859.718	12.29
859.892	-12.29
860.066	100.35
860.241	49.15
860.415	36.86
860.589	-14.34
860.763	-6.14
860.938	-20.48
861.112	106.49
861.286	-40.96
861.46	20.48
861.634	79.87
861.808	-8.19
861.982	-75.77
862.157	-6.14
862.331	-59.39
862.505	-0
862.679	-96.25
862.853	-55.3
863.027	-2.05
863.201	-86.01
863.375	61.44
863.549	-65.54
863.722	47.1
863.896	57.34
864.07	-61.44
864.244	-12.29
864.418	26.62
864.592	-12.29
864.766	28.67
864.939	2.05
865.113	-0
865.287	34.82
865.461	-61.44
865.634	4.1
865.808	36.86
865.982	-32.77
866.156	-12.29
866.329	-12.29
866.503	-57.34
866.676	65.53
866.85	-67.58
867.024	-12.29
867.197	16.38
867.371	14.34
867.544	-2.05
867.718	-86.01
867.891	51.2
868.065	12.29
868.238	-4.1
868.412	12.29
868.585	20.48
868.759	-6.14
868.932	63.49
869.105	-88.06
869.279	-65.54
869.452	-43.01
869.625	-40.96
869.799	-0
869.972	-51.2
870.145	4.1
870.319	2.05
870.492	-38.91
870.665	-57.34
870.838	-32.77
871.011	-55.3
871.185	30.72
871.358	-12.29
871.531	2.05
871.704	-79.87
871.877	47.1
872.05	12.29
872.223	-38.91
872.396	-34.82
872.569	-45.06
872.742	-57.34
872.915	83.97
873.088	10.24
873.261	-28.67
873.434	57.34
873.607	-40.96
873.78	-20.48
873.953	-16.38
874.126	-24.58
874.299	47.1
874.471	8.19
874.644	-10.24
874.817	-36.86
874.99	45.06
875.163	-71.68
875.335	-36.86
875.508	-34.82
875.681	8.19
875.853	-55.3
876.026	-49.15
876.199	59.39
876.371	40.96
876.544	-55.3
876.717	34.82
876.889	-16.38
877.062	53.25
877.234	-47.1
877.407	-38.91
877.579	26.62
877.752	12.29
877.924	53.25
878.097	-4.1
878.269	83.97
878.442	-47.1
878.614	12.29
878.786	-18.43
878.959	-40.96
879.131	36.86
879.303	-57.34
879.476	40.96
879.648	36.86
879.82	-22.53
879.993	-49.15
880.165	-67.58
880.337	-2.05
880.509	-32.77
880.681	-32.77
880.854	12.29
881.026	-26.62
881.198	36.86
881.37	-18.43
881.542	30.72
881.714	12.29
881.886	-4.1
882.058	-59.39
882.23	32.77
882.402	45.06
882.574	18.43
882.746	22.53
882.918	24.58
883.09	14.34
883.262	-47.1
883.434	-2.05
883.606	-45.06
883.778	-79.87
883.95	20.48
884.122	-4.1
884.293	12.29
884.465	-4.1
884.637	18.43
884.809	-36.86
884.98	-57.34
885.152	45.06
885.324	-4.1
885.496	-12.29
885.667	-28.67
885.839	-14.34
886.011	-34.82
886.182	-0
886.354	-30.72
886.525	-81.92
886.697	-108.54
886.869	-45.06
887.04	-34.82
887.212	49.15
887.383	-43.01
887.555	-2.05
887.726	-79.87
887.897	-10.24
888.069	-40.96
888.24	49.15
888.412	-47.1
888.583	-86.01
888.754	26.62
888.926	18.43
889.097	-36.86
889.268	-36.86
889.44	2.05
889.611	-79.87
889.782	-45.06
889.953	40.96
890.125	12.29
890.296	-47.1
890.467	-0
890.638	-18.43
890.809	10.24
890.98	-47.1
891.151	-24.58
891.323	38.91
891.494	-47.1
891.665	12.29
891.836	8.19
892.007	10.24
892.178	65.53
892.349	-83.97
892.52	-45.06
892.691	-40.96
892.862	-61.44
893.032	-61.44
893.203	-14.34
893.374	-65.54
893.545	-6.14
893.716	-90.11
893.887	-24.58
894.057	-8.19
894.228	-24.58
894.399	-81.92
894.57	4.1
894.74	-83.97
894.911	32.77
895.082	-67.58
895.253	2.05
895.423	2.05
895.594	-14.34
895.764	-12.29
895.935	-26.62
896.106	26.62
896.276	4.1
896.447	26.62
896.617	-69.63
896.788	-28.67
896.958	-47.1
897.129	-69.63
897.299	-20.48
897.47	14.34
897.64	-43.01
897.81	-34.82
897.981	6.14
898.151	2.05
898.322	-32.77
898.492	-79.87
898.662	-14.34
898.832	51.2
899.003	-47.1
899.173	-12.29
899.343	-108.54
899.513	-16.38
