Data from USB4F104151__67__12-24-13-961.txt Node

Date: Fri Mar 14 12:24:13 EDT 2025
User: louis
Spectrometer: USB4F10415
Trigger mode: 4
Integration Time (sec): 3.500000E-2
Scans to average: 1
Electric dark correction enabled: true
Nonlinearity correction enabled: false
Boxcar width: 0
XAxis mode: Wavelengths
Number of Pixels in Spectrum: 3648
>>>>>Begin Spectral Data<<<<<
178.204	-127.66
178.424	-127.66
178.644	-127.66
178.864	-131.75
179.084	-209.58
179.304	-29.35
179.524	42.32
179.744	13.65
179.964	-0.68
180.184	-8.87
180.404	-55.98
180.624	9.56
180.844	62.8
181.064	25.94
181.283	-41.64
181.503	-43.69
181.723	25.94
181.943	-84.65
182.163	79.19
182.383	30.04
182.602	101.72
182.822	77.14
183.042	-4.78
183.262	7.51
183.482	-33.45
183.701	58.71
183.921	-55.98
184.141	23.89
184.361	109.91
184.58	9.56
184.8	36.18
185.02	-27.31
185.239	75.09
185.459	54.61
185.679	27.99
185.898	-17.07
186.118	81.24
186.338	-12.97
186.557	48.47
186.777	13.65
186.997	-21.16
187.216	19.8
187.436	93.52
187.655	7.51
187.875	68.95
188.095	21.85
188.314	171.35
188.534	54.61
188.753	17.75
188.973	34.13
189.192	62.8
189.412	52.56
189.631	38.23
189.851	46.42
190.07	116.05
190.29	46.42
190.509	-25.26
190.729	-43.69
190.948	23.89
191.168	161.11
191.387	44.37
191.607	68.95
191.826	66.9
192.045	-2.73
192.265	-4.78
192.484	-10.92
192.704	-2.73
192.923	-92.84
193.142	107.86
193.362	27.99
193.581	-12.97
193.8	-27.31
194.02	46.42
194.239	-10.92
194.458	23.89
194.678	48.47
194.897	71
195.116	23.89
195.335	56.66
195.555	9.56
195.774	32.08
195.993	83.28
196.212	56.66
196.432	-64.17
196.651	40.28
196.87	5.46
197.089	83.28
197.308	75.09
197.528	81.24
197.747	15.7
197.966	27.99
198.185	38.23
198.404	-62.12
198.623	48.47
198.842	46.42
199.062	54.61
199.281	32.08
199.5	32.08
199.719	42.32
199.938	5.46
200.157	-58.03
200.376	46.42
200.595	52.56
200.814	38.23
201.033	-70.31
201.252	105.81
201.471	3.41
201.69	58.71
201.909	23.89
202.128	19.8
202.347	46.42
202.566	25.94
202.785	-8.87
203.004	-10.92
203.223	126.29
203.442	-4.78
203.661	-8.87
203.879	19.8
204.098	-6.83
204.317	5.46
204.536	62.8
204.755	-21.16
204.974	66.9
205.193	9.56
205.411	9.56
205.63	58.71
205.849	50.52
206.068	62.8
206.287	-25.26
206.505	68.95
206.724	-60.07
206.943	42.32
207.162	42.32
207.381	62.8
207.599	19.8
207.818	30.04
208.037	-19.11
208.255	23.89
208.474	-0.68
208.693	-51.88
208.911	-15.02
209.13	-37.55
209.349	87.38
209.567	54.61
209.786	21.85
210.005	58.71
210.223	66.9
210.442	-17.07
210.661	62.8
210.879	-29.35
211.098	-4.78
211.316	21.85
211.535	38.23
211.753	-29.35
211.972	50.52
212.191	25.94
212.409	23.89
212.628	27.99
212.846	-0.68
213.065	71
213.283	19.8
213.502	83.28
213.72	-2.73
213.938	79.19
214.157	1.37
214.375	91.48
214.594	27.99
214.812	44.37
215.031	3.41
215.249	7.51
215.467	9.56
215.686	11.61
215.904	13.65
216.122	-25.26
216.341	116.05
216.559	-2.73
216.778	83.28
216.996	9.56
217.214	5.46
217.432	-4.78
217.651	-4.78
217.869	17.75
218.087	66.9
218.306	40.28
218.524	-21.16
218.742	-10.92
218.96	50.52
219.179	-41.64
219.397	50.52
219.615	105.81
219.833	62.8
220.051	34.13
220.27	79.19
220.488	54.61
220.706	27.99
220.924	9.56
221.142	1.37
221.36	5.46
221.578	32.08
221.796	15.7
222.015	34.13
222.233	-33.45
222.451	79.19
222.669	-15.02
222.887	13.65
223.105	-6.83
223.323	54.61
223.541	11.61
223.759	79.19
223.977	-21.16
224.195	32.08
224.413	34.13
224.631	107.86
224.849	21.85
225.067	83.28
225.285	-33.45
225.503	-33.45
225.721	-80.55
225.939	21.85
226.157	66.9
226.375	159.06
226.592	-25.26
226.81	13.65
227.028	11.61
227.246	122.2
227.464	50.52
227.682	77.14
227.9	62.8
228.117	15.7
228.335	42.32
228.553	17.75
228.771	93.52
228.989	75.09
229.206	85.33
229.424	-12.97
229.642	3.41
229.86	-2.73
230.077	-12.97
230.295	85.33
230.513	50.52
230.731	52.56
230.948	75.09
231.166	5.46
231.384	75.09
231.601	7.51
231.819	52.56
232.037	50.52
232.254	23.89
232.472	40.28
232.689	1.37
232.907	60.76
233.125	-6.83
233.342	56.66
233.56	-31.4
233.777	-17.07
233.995	19.8
234.213	34.13
234.43	75.09
234.648	46.42
234.865	34.13
235.083	64.85
235.3	11.61
235.518	89.43
235.735	71
235.953	15.7
236.17	25.94
236.388	34.13
236.605	48.47
236.822	48.47
237.04	38.23
237.257	36.18
237.475	56.66
237.692	107.86
237.909	9.56
238.127	9.56
238.344	17.75
238.562	68.95
238.779	-19.11
238.996	-10.92
239.214	46.42
239.431	89.43
239.648	-58.03
239.865	36.18
240.083	34.13
240.3	-25.26
240.517	-15.02
240.735	25.94
240.952	-15.02
241.169	48.47
241.386	-51.88
241.603	-31.4
241.821	9.56
242.038	85.33
242.255	56.66
242.472	13.65
242.689	3.41
242.907	136.53
243.124	-2.73
243.341	32.08
243.558	30.04
243.775	-4.78
243.992	-21.16
244.209	120.15
244.426	97.62
244.643	60.76
244.86	9.56
245.078	103.76
245.295	89.43
245.512	79.19
245.729	-53.93
245.946	42.32
246.163	50.52
246.38	56.66
246.597	46.42
246.814	73.04
247.031	19.8
247.248	9.56
247.464	21.85
247.681	7.51
247.898	-29.35
248.115	9.56
248.332	-53.93
248.549	52.56
248.766	52.56
248.983	36.18
249.2	46.42
249.417	60.76
249.633	62.8
249.85	25.94
250.067	9.56
250.284	40.28
250.501	58.71
250.717	64.85
250.934	-49.83
251.151	54.61
251.368	66.9
251.585	95.57
251.801	38.23
252.018	-6.83
252.235	-2.73
252.451	11.61
252.668	34.13
252.885	103.76
253.102	-2.73
253.318	-41.64
253.535	-6.83
253.752	-70.31
253.968	73.04
254.185	-12.97
254.401	68.95
254.618	34.13
254.835	19.8
255.051	36.18
255.268	-12.97
255.484	83.28
255.701	-29.35
255.917	95.57
256.134	56.66
256.351	11.61
256.567	15.7
256.784	19.8
257	-66.22
257.217	23.89
257.433	79.19
257.65	105.81
257.866	73.04
258.082	40.28
258.299	-2.73
258.515	7.51
258.732	1.37
258.948	34.13
259.165	17.75
259.381	34.13
259.597	34.13
259.814	25.94
260.03	75.09
260.246	77.14
260.463	9.56
260.679	71
260.895	54.61
261.112	56.66
261.328	-27.31
261.544	17.75
261.761	114
261.977	81.24
262.193	-29.35
262.409	52.56
262.626	34.13
262.842	60.76
263.058	-4.78
263.274	77.14
263.49	75.09
263.707	62.8
263.923	46.42
264.139	-68.27
264.355	1.37
264.571	34.13
264.787	5.46
265.004	48.47
265.22	7.51
265.436	3.41
265.652	-15.02
265.868	5.46
266.084	-41.64
266.3	-8.87
266.516	-66.22
266.732	3.41
266.948	54.61
267.164	9.56
267.38	32.08
267.596	21.85
267.812	79.19
268.028	79.19
268.244	25.94
268.46	36.18
268.676	-8.87
268.892	15.7
269.108	68.95
269.324	30.04
269.54	-39.59
269.756	32.08
269.972	-19.11
270.188	27.99
270.403	56.66
270.619	-0.68
270.835	44.37
271.051	42.32
271.267	32.08
271.483	-33.45
271.698	21.85
271.914	124.24
272.13	-4.78
272.346	-51.88
272.562	-76.46
272.777	83.28
272.993	1.37
273.209	13.65
273.425	71
273.64	-4.78
273.856	23.89
274.072	-23.21
274.287	46.42
274.503	17.75
274.719	54.61
274.934	-19.11
275.15	-23.21
275.366	89.43
275.581	11.61
275.797	64.85
276.012	-45.74
276.228	30.04
276.444	85.33
276.659	44.37
276.875	17.75
277.09	48.47
277.306	-19.11
277.521	-45.74
277.737	30.04
277.952	42.32
278.168	46.42
278.383	85.33
278.599	7.51
278.814	54.61
279.03	7.51
279.245	95.57
279.461	13.65
279.676	54.61
279.892	23.89
280.107	-17.07
280.322	-12.97
280.538	68.95
280.753	25.94
280.969	81.24
281.184	48.47
281.399	36.18
281.615	32.08
281.83	62.8
282.045	-27.31
282.26	-29.35
282.476	21.85
282.691	124.24
282.906	40.28
283.122	85.33
283.337	5.46
283.552	5.46
283.767	38.23
283.983	5.46
284.198	-12.97
284.413	-49.83
284.628	13.65
284.843	36.18
285.058	11.61
285.274	-15.02
285.489	21.85
285.704	111.96
285.919	-35.5
286.134	50.52
286.349	60.76
286.564	1.37
286.779	79.19
286.995	40.28
287.21	73.04
287.425	15.7
287.64	46.42
287.855	-21.16
288.07	-6.83
288.285	111.96
288.5	111.96
288.715	42.32
288.93	34.13
289.145	23.89
289.36	64.85
289.575	13.65
289.79	75.09
290.004	60.76
290.219	83.28
290.434	-2.73
290.649	17.75
290.864	-6.83
291.079	23.89
291.294	52.56
291.509	87.38
291.724	-27.31
291.938	25.94
292.153	58.71
292.368	42.32
292.583	27.99
292.798	77.14
293.012	7.51
293.227	60.76
293.442	25.94
293.657	42.32
293.871	60.76
294.086	1.37
294.301	3.41
294.516	30.04
294.73	111.96
294.945	-21.16
295.16	15.7
295.374	97.62
295.589	77.14
295.804	30.04
296.018	93.52
296.233	-8.87
296.447	-0.68
296.662	-51.88
296.877	144.72
297.091	-4.78
297.306	52.56
297.52	-4.78
297.735	-25.26
297.949	71
298.164	150.87
298.378	56.66
298.593	-8.87
298.807	7.51
299.022	36.18
299.236	62.8
299.451	48.47
299.665	-64.17
299.88	52.56
300.094	48.47
300.309	79.19
300.523	19.8
300.737	27.99
300.952	32.08
301.166	30.04
301.381	-31.4
301.595	48.47
301.809	25.94
302.024	32.08
302.238	42.32
302.452	62.8
302.667	9.56
302.881	118.1
303.095	32.08
303.309	42.32
303.524	-39.59
303.738	9.56
303.952	-10.92
304.166	124.24
304.381	-21.16
304.595	75.09
304.809	81.24
305.023	-15.02
305.237	52.56
305.452	66.9
305.666	64.85
305.88	120.15
306.094	42.32
306.308	73.04
306.522	7.51
306.736	7.51
306.95	56.66
307.164	21.85
307.379	101.72
307.593	68.95
307.807	34.13
308.021	68.95
308.235	81.24
308.449	-39.59
308.663	42.32
308.877	79.19
309.091	-39.59
309.305	124.24
309.519	-23.21
309.733	40.28
309.947	-58.03
310.161	105.81
310.374	3.41
310.588	-6.83
310.802	-6.83
311.016	36.18
311.23	62.8
311.444	75.09
311.658	-4.78
311.872	9.56
312.085	11.61
312.299	107.86
312.513	-15.02
312.727	-0.68
312.941	21.85
313.154	23.89
313.368	34.13
313.582	-17.07
313.796	-43.69
314.009	19.8
314.223	66.9
314.437	42.32
314.651	101.72
314.864	34.13
315.078	-10.92
315.292	-21.16
315.505	36.18
315.719	81.24
315.933	-12.97
316.146	-10.92
316.36	-0.68
316.573	52.56
316.787	30.04
317.001	89.43
317.214	-29.35
317.428	19.8
317.641	5.46
317.855	56.66
318.068	19.8
318.282	107.86
318.495	144.72
318.709	7.51
318.922	75.09
319.136	114
319.349	9.56
319.563	60.76
319.776	25.94
319.99	77.14
320.203	66.9
320.417	17.75
320.63	23.89
320.843	101.72
321.057	60.76
321.27	21.85
321.483	30.04
321.697	60.76
321.91	-37.55
322.124	87.38
322.337	30.04
322.55	36.18
322.763	38.23
322.977	81.24
323.19	93.52
323.403	58.71
323.617	38.23
323.83	83.28
324.043	-19.11
324.256	52.56
324.469	40.28
324.683	27.99
324.896	-12.97
325.109	62.8
325.322	15.7
325.535	30.04
325.748	85.33
325.962	19.8
326.175	-2.73
326.388	32.08
326.601	62.8
326.814	58.71
327.027	11.61
327.24	58.71
327.453	32.08
327.666	71
327.879	66.9
328.092	54.61
328.305	-12.97
328.518	-33.45
328.731	25.94
328.944	-12.97
329.157	130.39
329.37	105.81
329.583	114
329.796	83.28
330.009	38.23
330.222	56.66
330.435	25.94
330.648	48.47
330.861	17.75
331.073	42.32
331.286	62.8
331.499	44.37
331.712	50.52
331.925	-31.4
332.138	1.37
332.35	30.04
332.563	15.7
332.776	77.14
332.989	44.37
333.202	-6.83
333.414	87.38
333.627	15.7
333.84	42.32
334.053	62.8
334.265	5.46
334.478	-4.78
334.691	7.51
334.903	25.94
335.116	38.23
335.329	97.62
335.541	46.42
335.754	97.62
335.966	58.71
336.179	36.18
336.392	-10.92
336.604	128.34
336.817	-8.87
337.029	-17.07
337.242	50.52
337.454	30.04
337.667	25.94
337.88	97.62
338.092	68.95
338.305	19.8
338.517	-2.73
338.729	27.99
338.942	122.2
339.154	3.41
339.367	19.8
339.579	48.47
339.792	32.08
340.004	91.48
340.217	-35.5
340.429	109.91
340.641	9.56
340.854	32.08
341.066	124.24
341.278	68.95
341.491	91.48
341.703	64.85
341.915	-12.97
342.128	19.8
342.34	-25.26
342.552	36.18
342.764	46.42
342.977	89.43
343.189	101.72
343.401	34.13
343.613	-74.41
343.826	1.37
344.038	-70.31
344.25	101.72
344.462	73.04
344.674	87.38
344.886	17.75
345.099	77.14
345.311	27.99
345.523	30.04
345.735	3.41
345.947	60.76
346.159	36.18
346.371	46.42
346.583	-15.02
346.795	165.2
347.007	5.46
347.219	13.65
347.431	34.13
347.643	64.85
347.855	23.89
348.067	34.13
348.279	68.95
348.491	42.32
348.703	64.85
348.915	1.37
349.127	-25.26
349.339	17.75
349.551	7.51
349.763	34.13
349.975	64.85
350.187	73.04
350.399	52.56
350.61	15.7
350.822	-27.31
351.034	40.28
351.246	15.7
351.458	-19.11
351.669	77.14
351.881	52.56
352.093	81.24
352.305	71
352.517	21.85
352.728	25.94
352.94	-17.07
353.152	44.37
353.363	15.7
353.575	54.61
353.787	21.85
353.999	46.42
354.21	116.05
354.422	-70.31
354.633	3.41
354.845	71
355.057	36.18
355.268	116.05
355.48	-35.5
355.692	34.13
355.903	-10.92
356.115	-15.02
356.326	36.18
356.538	71
356.749	66.9
356.961	105.81
357.172	58.71
357.384	68.95
357.595	150.87
357.807	77.14
358.018	-23.21
358.23	122.2
358.441	48.47
358.653	75.09
358.864	73.04
359.075	19.8
359.287	36.18
359.498	25.94
359.709	15.7
359.921	107.86
360.132	50.52
360.344	17.75
360.555	-23.21
360.766	58.71
360.977	25.94
361.189	83.28
361.4	40.28
361.611	42.32
361.823	34.13
362.034	11.61
362.245	1.37
362.456	17.75
362.667	3.41
362.879	34.13
363.09	3.41
363.301	7.51
363.512	81.24
363.723	-4.78
363.935	75.09
364.146	15.7
364.357	60.76
364.568	95.57
364.779	58.71
364.99	122.2
365.201	34.13
365.412	142.68
365.623	-2.73
365.834	66.9
366.045	-27.31
366.256	107.86
366.467	30.04
366.678	71
366.889	91.48
367.1	36.18
367.311	23.89
367.522	-17.07
367.733	-4.78
367.944	42.32
368.155	52.56
368.366	62.8
368.577	87.38
368.788	58.71
368.999	109.91
369.209	-12.97
369.42	5.46
369.631	136.53
369.842	9.56
370.053	3.41
370.264	107.86
370.474	81.24
370.685	93.52
370.896	-8.87
371.107	116.05
371.317	58.71
371.528	7.51
371.739	163.15
371.95	21.85
372.16	68.95
372.371	42.32
372.582	23.89
372.792	79.19
373.003	40.28
373.214	7.51
373.424	144.72
373.635	1.37
373.846	103.76
374.056	46.42
374.267	-0.68
374.477	62.8
374.688	60.76
374.898	32.08
375.109	36.18
375.319	-0.68
375.53	71
375.74	77.14
375.951	5.46
376.161	30.04
376.372	38.23
376.582	-21.16
376.793	40.28
377.003	-33.45
377.214	44.37
377.424	36.18
377.635	23.89
377.845	77.14
378.055	79.19
378.266	30.04
378.476	-4.78
378.686	60.76
378.897	-2.73
379.107	95.57
379.317	87.38
379.528	-21.16
379.738	130.39
379.948	-0.68
380.158	68.95
380.369	42.32
380.579	107.86
380.789	128.34
380.999	62.8
381.21	54.61
381.42	118.1
381.63	60.76
381.84	165.2
382.05	23.89
382.261	56.66
382.471	56.66
382.681	52.56
382.891	132.44
383.101	68.95
383.311	48.47
383.521	-2.73
383.731	89.43
383.941	36.18
384.151	62.8
384.361	75.09
384.571	11.61
384.781	46.42
384.991	99.67
385.201	62.8
385.411	34.13
385.621	99.67
385.831	68.95
386.041	105.81
386.251	-23.21
386.461	46.42
386.671	-27.31
386.881	40.28
387.091	-17.07
387.301	19.8
387.511	97.62
387.72	38.23
387.93	91.48
388.14	25.94
388.35	5.46
388.56	91.48
388.769	40.28
388.979	38.23
389.189	66.9
389.399	91.48
389.609	66.9
389.818	68.95
390.028	79.19
390.238	48.47
390.447	42.32
390.657	46.42
390.867	-10.92
391.076	97.62
391.286	122.2
391.496	212.31
391.705	62.8
391.915	71
392.125	75.09
392.334	93.52
392.544	152.92
392.753	89.43
392.963	99.67
393.172	93.52
393.382	66.9
393.591	122.2
393.801	17.75
394.01	130.39
394.22	116.05
394.429	40.28
394.639	3.41
394.848	116.05
395.058	136.53
395.267	99.67
395.477	126.29
395.686	120.15
395.895	109.91
396.105	130.39
396.314	105.81
396.524	107.86
396.733	36.18
396.942	189.78
397.152	152.92
397.361	99.67
397.57	48.47
397.78	146.77
397.989	144.72
398.198	171.35
398.407	73.04
398.617	114
398.826	73.04
399.035	124.24
399.244	124.24
399.453	68.95
399.663	109.91
399.872	89.43
400.081	32.08
400.29	169.3
400.499	87.38
400.708	75.09
400.917	144.72
401.127	85.33
401.336	83.28
401.545	210.26
401.754	161.11
401.963	157.01
402.172	109.91
402.381	7.51
402.59	42.32
402.799	75.09
403.008	118.1
403.217	138.58
403.426	50.52
403.635	126.29
403.844	89.43
404.053	138.58
404.262	50.52
404.471	118.1
404.68	157.01
404.888	56.66
405.097	101.72
405.306	140.63
405.515	191.83
405.724	183.63
405.933	142.68
406.142	120.15
406.35	175.44
406.559	204.11
406.768	144.72
406.977	197.97
407.185	175.44
407.394	165.2
407.603	165.2
407.812	91.48
408.02	224.59
408.229	173.39
408.438	228.69
408.646	124.24
408.855	265.55
409.064	279.89
409.272	163.15
409.481	245.07
409.69	257.36
409.898	130.39
410.107	238.93
410.315	386.38
410.524	279.89
410.733	320.85
410.941	228.69
411.15	265.55
411.358	322.9
411.567	326.99
411.775	259.41
411.984	449.87
412.192	421.2
412.401	372.05
412.609	456.01
412.818	431.44
413.026	482.64
413.234	402.77
413.443	492.88
413.651	427.34
413.86	566.6
414.068	570.7
414.276	621.9
414.485	568.65
414.693	621.9
414.901	677.19
415.11	626
415.318	644.43
415.526	630.09
415.734	648.52
415.943	681.29
416.151	720.2
416.359	705.87
416.567	752.97
416.776	746.83
416.984	822.6
417.192	861.51
417.4	896.33
417.608	894.28
417.817	851.27
418.025	892.23
418.233	1004.87
418.441	1000.77
418.649	1004.87
418.857	1160.52
419.065	1170.76
419.273	1133.89
419.481	1158.47
419.689	1191.24
419.897	1256.77
420.105	1383.74
420.313	1367.36
420.521	1498.43
420.729	1508.67
420.937	1500.48
421.145	1516.86
421.353	1680.7
421.561	1744.19
421.769	1768.76
421.977	1797.43
422.185	1805.63
422.393	1865.02
422.601	2114.87
422.809	2149.68
423.017	1963.32
423.224	2057.53
423.432	2172.21
423.64	2250.03
423.848	2434.35
424.056	2319.67
424.263	2563.37
424.471	2442.54
424.679	2657.58
424.887	2825.51
425.094	2870.57
425.302	2802.99
425.51	2995.5
425.718	3054.89
425.925	3061.03
426.133	3011.88
426.341	3452.19
426.548	3400.99
426.756	3419.43
426.964	3431.71
427.171	3716.38
427.379	3786.01
427.586	3880.22
427.794	3908.89
428.001	4177.17
428.209	4302.1
428.417	4203.8
428.624	4609.3
428.832	4560.14
429.039	4508.94
429.247	4558.1
429.454	5104.9
429.662	5272.84
429.869	5217.54
430.076	5278.98
430.284	5203.21
430.491	5412.1
430.699	5735.68
430.906	5723.39
431.114	5815.55
431.321	5997.82
431.528	6089.98
431.736	6591.73
431.943	6878.44
432.15	6628.59
432.358	6796.53
432.565	7056.62
432.772	7085.29
432.979	7595.23
433.187	7503.07
433.394	7830.75
433.601	8035.55
433.808	8150.23
434.016	8135.9
434.223	8520.92
434.43	8778.96
434.637	8848.59
434.844	9313.48
435.052	9409.73
435.259	9311.43
435.466	9518.28
435.673	9266.38
435.88	10040.51
436.087	10636.47
436.294	10607.8
436.501	10259.64
436.708	10693.81
436.915	11078.83
437.122	11408.55
437.329	11134.12
437.537	11777.19
437.743	11748.51
437.95	11519.14
438.157	12412.06
438.364	12942.48
438.571	12696.72
438.778	13051.02
438.985	14019.71
439.192	13671.56
439.399	13880.45
439.606	13694.08
439.813	14447.74
440.02	15389.8
440.227	15082.61
440.433	14863.47
440.64	15297.64
440.847	15336.56
441.054	15627.37
441.261	16659.54
441.467	16428.12
441.674	16952.4
441.881	17306.7
442.088	17411.15
442.294	17155.15
442.501	17724.49
442.708	18336.83
442.914	18871.35
443.121	19495.98
443.328	19008.56
443.534	20218.91
443.741	19975.2
443.948	19729.45
444.154	21507.09
444.361	21085.2
444.568	21218.32
444.774	21296.14
444.981	21474.32
445.187	22170.63
445.394	23124.98
445.6	22420.48
445.807	24906.71
446.013	23774.19
446.22	24245.22
446.426	25267.16
446.633	25349.07
446.839	26254.28
447.046	25158.61
447.252	26811.32
447.459	26715.07
447.665	26377.15
447.871	27829.16
448.078	28685.22
448.284	27351.99
448.491	28224.42
448.697	29215.64
448.903	29911.95
449.11	30188.42
449.316	29514.64
449.522	29766.54
449.728	30722.94
449.935	30612.35
450.141	30679.94
450.347	31771.5
450.553	30477.19
450.76	31228.79
450.966	32506.73
451.172	32201.58
451.378	32473.96
451.584	31744.88
451.791	32492.39
451.997	32899.94
452.203	33264.47
452.409	32992.09
452.615	33145.69
452.821	31818.61
453.027	31511.41
453.233	33041.25
453.44	31783.79
453.646	32301.93
453.852	32449.38
454.058	32564.07
454.264	31701.87
454.47	32328.55
454.676	31464.31
454.882	32801.63
455.088	29719.44
455.294	30296.97
455.5	30831.49
455.705	30847.87
455.911	29918.09
456.117	29109.15
456.323	28724.13
456.529	27171.77
456.735	28545.95
456.941	27519.92
457.147	27489.2
457.352	26735.55
457.558	26272.71
457.764	26231.75
457.97	25844.68
458.176	25074.65
458.381	25418.71
458.587	23997.42
458.793	23919.59
458.999	22821.88
459.204	24323.04
459.41	23553.01
459.616	21986.31
459.821	22002.69
460.027	22135.81
460.233	21707.79
460.438	20280.35
460.644	20565.02
460.85	19780.65
461.055	19565.61
461.261	19422.25
461.466	18009.15
461.672	17697.86
461.878	18881.59
462.083	17421.39
462.289	17124.43
462.494	16968.79
462.7	16147.55
462.905	15733.86
463.111	16415.83
463.316	16360.54
463.522	15942.75
463.727	15952.99
463.932	16088.16
464.138	15866.98
464.343	15834.21
464.549	15473.77
464.754	15975.52
464.959	15680.61
465.165	15678.57
465.37	15086.7
465.575	14742.64
465.781	15234.16
465.986	15215.73
466.191	14802.04
466.397	14425.21
466.602	13984.9
466.807	14251.13
467.012	13907.07
467.218	14087.29
467.423	14013.57
467.628	14138.49
467.833	14507.13
468.038	14107.77
468.244	13767.81
468.449	14011.52
468.654	13683.84
468.859	13417.61
469.064	13550.73
469.269	13061.26
469.474	13059.21
469.679	13520.01
469.885	13110.41
470.09	13266.06
470.295	13003.92
470.5	13022.35
470.705	12864.66
470.91	12780.69
471.115	12436.63
471.32	12924.05
471.525	12414.1
471.73	12356.76
471.935	12098.72
472.139	11973.79
472.344	12096.67
472.549	11789.47
472.754	11754.66
472.959	11732.13
473.164	11490.47
473.369	11144.36
473.574	11629.73
473.778	11379.88
473.983	11506.85
474.188	11383.98
474.393	10892.46
474.598	11183.27
474.802	10634.42
475.007	10820.78
475.212	10800.3
475.417	10413.24
475.621	10181.82
475.826	10384.57
476.031	10157.24
476.235	9938.11
476.44	10284.22
476.645	9829.57
476.849	9741.5
477.054	9831.62
477.259	9551.04
477.463	9667.78
477.668	9297.1
477.872	9479.36
478.077	9354.44
478.282	8776.91
478.486	9123.02
478.691	9002.19
478.895	9034.96
479.1	8957.13
479.304	8838.35
479.509	8631.51
479.713	8684.75
479.918	8539.35
480.122	8443.09
480.326	8680.66
480.531	8701.14
480.735	8426.71
480.94	8379.61
481.144	8719.57
481.348	8309.97
481.553	8320.21
481.757	8254.68
481.961	8269.02
482.166	8428.76
482.37	8416.47
482.574	8256.73
482.778	8377.56
482.983	8244.44
483.187	8195.29
483.391	8408.28
483.595	8234.2
483.8	8242.39
484.004	8094.94
484.208	8406.23
484.412	8293.59
484.616	8455.38
484.821	8283.35
485.025	8101.08
485.229	8187.1
485.433	7972.06
485.637	8211.67
485.841	8049.88
486.045	8066.27
486.249	8115.42
486.453	8109.27
486.657	8176.86
486.861	8271.06
487.065	8010.97
487.269	8230.1
487.473	8170.71
487.677	8185.05
487.881	8330.45
488.085	8203.48
488.289	8477.91
488.493	8242.39
488.697	8461.52
488.901	8346.84
489.105	8250.58
489.309	8361.17
489.512	8299.73
489.716	8377.56
489.92	8252.63
490.124	8395.99
490.328	8412.37
490.531	8504.53
490.735	8342.74
490.939	8471.76
491.143	8426.71
491.346	8518.87
491.55	8651.99
491.754	8504.53
491.958	8662.23
492.161	8672.46
492.365	8660.18
492.569	8539.35
492.772	8813.77
492.976	8727.76
493.18	8789.2
493.383	8864.97
493.587	8932.56
493.79	9188.55
493.994	8797.39
494.197	9045.2
494.401	9172.17
494.605	9096.39
494.808	9243.85
495.012	9168.07
495.215	9493.7
495.419	9538.76
495.622	9362.63
495.825	9512.13
496.029	9581.76
496.232	9667.78
496.436	9659.59
496.639	9977.02
496.843	9796.8
497.046	10128.57
497.249	10159.29
497.453	10310.84
497.656	10212.54
497.859	10470.58
498.063	10601.65
498.266	10908.85
498.469	10626.23
498.673	10871.98
498.876	10949.81
499.079	11019.44
499.282	11183.27
499.485	11248.81
499.689	11564.2
499.892	11586.72
500.095	11699.36
500.298	11984.03
500.501	11887.78
500.705	12319.9
500.908	12276.89
501.111	12496.02
501.314	12356.76
501.517	12663.96
501.72	12645.52
501.923	12602.52
502.126	13294.73
502.329	13259.91
502.532	13575.3
502.735	13358.22
502.938	13747.33
503.141	13675.65
503.344	13730.95
503.547	13866.11
503.75	14218.36
503.953	14367.87
504.156	14609.53
504.359	14507.13
504.562	14777.46
504.765	15244.4
504.968	15447.15
505.17	15596.65
505.373	15311.98
505.576	15844.45
505.779	15930.47
505.982	15836.26
506.185	16196.7
506.387	16268.38
506.59	16651.35
506.793	16874.58
506.996	17097.81
507.198	17253.45
507.401	17153.1
507.604	17640.52
507.807	17695.82
508.009	17794.12
508.212	17843.27
508.415	18236.48
508.617	18584.63
508.82	18740.28
509.022	18416.7
509.225	19194.93
509.428	19086.39
509.63	19270.7
509.833	19668.01
510.035	20104.23
510.238	19776.55
510.44	20126.75
510.643	20614.17
510.845	20620.31
511.048	20565.02
511.25	20757.53
511.453	21085.2
511.655	21781.51
511.858	21640.2
512.06	21681.16
512.262	22014.98
512.465	22295.55
512.667	22670.33
512.87	22658.04
513.072	22807.55
513.274	23299.06
513.477	23129.08
513.679	23423.98
513.881	24013.8
514.084	23933.93
514.286	24253.41
514.488	24165.35
514.69	25103.32
514.893	25076.69
515.095	25123.8
515.297	25676.75
515.499	25893.83
515.701	26112.97
515.904	25988.04
516.106	26665.92
516.308	27055.03
516.51	27067.32
516.712	27341.75
516.914	27663.28
517.116	28085.16
517.318	27972.52
517.52	28179.37
517.722	28517.28
517.925	28980.12
518.127	29062.04
518.329	29707.15
518.531	29008.79
518.733	30073.74
518.935	30000.01
519.136	30149.51
519.338	30460.8
519.54	30888.83
519.742	31064.96
519.944	31095.67
520.146	31634.29
520.348	31949.68
520.55	31998.83
520.752	32340.84
520.954	32750.43
521.155	32752.48
521.357	33182.56
521.559	33696.6
521.761	33928.02
521.963	34036.56
522.164	34138.96
522.366	34896.7
522.568	34503.49
522.77	34857.79
522.971	35463.99
523.173	35361.59
523.375	36148.01
523.576	35867.44
523.778	36068.14
523.98	36195.12
524.181	36602.66
524.383	36266.8
524.584	37176.09
524.786	36920.1
524.988	36819.75
525.189	37118.75
525.391	37919.51
525.592	38073.1
525.794	38517.51
525.995	38157.07
526.197	38253.33
526.398	38537.99
526.6	38480.65
526.801	38953.73
527.003	39324.41
527.204	39103.23
527.406	39607.03
527.607	39619.32
527.808	39840.5
528.01	39545.59
528.211	39580.41
528.412	40571.63
528.614	40145.65
528.815	40323.82
529.016	40696.55
529.218	40618.73
529.419	40778.47
529.62	40837.86
529.822	40815.33
530.023	40561.39
530.224	41030.37
530.425	40977.12
530.626	41327.33
530.828	40606.44
531.029	41892.57
531.23	41102.05
531.431	41401.05
531.632	41419.49
531.833	41945.81
532.035	41786.07
532.236	41917.14
532.437	42025.68
532.638	41480.92
532.839	42089.17
533.04	41933.53
533.241	41544.41
533.442	42646.22
533.643	41917.14
533.844	42117.84
534.045	42009.3
534.246	42072.79
534.447	42160.85
534.648	42007.25
534.849	42275.54
535.05	41855.7
535.251	42220.24
535.451	42091.22
535.652	42271.44
535.853	42210
536.054	42154.71
536.255	42298.06
536.456	42017.49
536.657	42525.39
536.857	42109.65
537.058	42126.03
537.259	42855.11
537.46	42478.29
537.66	42582.73
537.861	42824.39
538.062	42302.16
538.263	42439.37
538.463	42435.28
538.664	42406.61
538.865	42877.64
539.065	42734.28
539.266	41915.09
539.466	42670.79
539.667	41984.72
539.868	42793.67
540.068	42541.77
540.269	42142.42
540.469	42539.72
540.67	42289.87
540.87	42228.43
541.071	41816.79
541.271	42019.54
541.472	42324.69
541.672	42169.04
541.873	42058.45
542.073	41663.19
542.274	42478.29
542.474	42035.92
542.675	41839.32
542.875	42375.89
543.075	42148.56
543.276	41876.18
543.476	42554.06
543.676	41933.53
543.877	42447.57
544.077	42091.22
544.277	42298.06
544.478	41931.48
544.678	42529.48
544.878	41876.18
545.078	42355.41
545.279	41661.15
545.479	41917.14
545.679	42392.27
545.879	42027.73
546.079	41812.7
546.28	41732.82
546.48	41626.33
546.68	41931.48
546.88	42062.55
547.08	41937.62
547.28	41806.55
547.48	41579.23
547.68	41915.09
547.88	41818.84
548.081	42404.56
548.281	41829.08
548.481	41501.4
548.681	42052.31
548.881	41681.63
549.081	41792.22
549.28	41618.14
549.48	42113.75
549.68	41603.8
549.88	42027.73
550.08	41640.67
550.28	41626.33
550.48	41312.99
550.68	41759.45
550.88	41710.3
551.08	41425.63
551.279	41777.88
551.479	41460.44
551.679	41587.42
551.879	41405.15
552.079	41872.09
552.278	41310.94
552.478	41669.34
552.678	41741.02
552.878	41755.35
553.077	41550.56
553.277	41212.64
553.477	42003.16
553.676	41499.36
553.876	41468.64
554.076	41089.76
554.275	41175.78
554.475	41212.64
554.674	41591.51
554.874	41687.77
555.074	41140.96
555.273	41267.94
555.473	41507.55
555.672	40778.47
555.872	41083.62
556.071	41003.75
556.271	41032.42
556.47	40915.68
556.67	40557.29
556.869	40606.44
557.068	40762.09
557.268	40426.22
557.467	40581.87
557.667	40891.11
557.866	40819.43
558.065	40499.95
558.265	40184.56
558.464	39846.65
558.663	40805.09
558.863	39729.91
559.062	40573.67
559.261	39895.8
559.461	40383.21
559.66	39858.93
559.859	39981.81
560.058	39516.92
560.258	39531.26
560.457	39774.97
560.656	39744.25
560.855	39426.81
561.054	39656.18
561.253	39371.52
561.453	39351.04
561.652	39375.61
561.851	39672.57
562.05	38849.28
562.249	39080.71
562.448	39676.66
562.647	39228.16
562.846	39056.13
563.045	38882.05
563.244	38890.24
563.443	38894.34
563.642	38425.36
563.841	38628.1
564.04	38202.13
564.239	38638.34
564.438	37950.23
564.637	38245.13
564.836	38282
565.035	37960.47
565.234	38021.91
565.432	37690.13
565.631	37798.68
565.83	37982.99
566.029	37479.19
566.228	37485.34
566.427	37659.41
566.625	37153.57
566.824	37094.18
567.023	37186.33
567.222	36807.46
567.42	37284.64
567.619	36979.49
567.818	36809.51
568.016	36778.79
568.215	37004.06
568.414	36512.55
568.612	36672.29
568.811	35930.93
569.01	36363.05
569.208	35617.59
569.407	36215.6
569.605	35474.23
569.804	36332.33
570.002	35380.03
570.201	35664.69
570.4	35251
570.598	34966.34
570.797	34995.01
570.995	35212.09
571.193	34884.42
571.392	35216.19
571.59	34675.52
571.789	34876.23
571.987	34700.1
572.186	34388.81
572.384	34274.12
572.582	34870.08
572.781	34667.33
572.979	33979.21
573.177	34208.59
573.376	34106.19
573.574	33946.45
573.772	34077.52
573.971	33669.97
574.169	33665.88
574.367	33213.27
574.565	33801.04
574.763	33082.2
574.962	33295.19
575.16	32908.13
575.358	33141.6
575.556	32910.18
575.754	33039.2
575.952	32775.01
576.151	32764.77
576.349	32293.74
576.547	32113.52
576.745	32342.89
576.943	32271.21
577.141	32056.17
577.339	31927.15
577.537	31916.91
577.735	31929.2
577.933	31849.33
578.131	31669.11
578.329	31474.55
578.527	31327.1
578.725	31398.77
578.923	31566.71
579.121	31323
579.319	30757.76
579.516	31355.77
579.714	31050.62
579.912	30983.04
580.11	30794.62
580.308	30985.08
580.506	30866.3
580.704	30206.86
580.901	30681.99
581.099	30561.15
581.297	30235.53
581.495	30014.35
581.692	30206.86
581.89	30268.3
582.088	30186.38
582.285	29674.38
582.483	29967.24
582.681	30026.64
582.878	29602.71
583.076	29404.05
583.274	29686.67
583.471	29373.33
583.669	29154.2
583.866	28961.69
584.064	29109.15
584.262	28478.37
584.459	29168.54
584.657	28652.45
584.854	29275.03
585.052	28273.57
585.249	28830.62
585.447	28685.22
585.644	28500.9
585.841	28750.75
586.039	28613.54
586.236	28296.1
586.434	27816.88
586.631	27706.29
586.828	27976.62
587.026	28089.26
587.223	27577.26
587.42	27642.8
587.618	27622.32
587.815	27089.85
588.012	27548.59
588.21	27534.26
588.407	27704.24
588.604	27325.36
588.801	26860.48
588.999	27089.85
589.196	27116.47
589.393	27055.03
589.59	26631.1
589.787	26751.93
589.984	26627.01
590.182	26289.09
590.379	26704.83
590.576	26373.06
590.773	26414.02
590.97	26092.49
591.167	26389.44
591.364	26194.89
591.561	26102.73
591.758	25594.83
591.955	25684.94
592.152	25885.64
592.349	25582.54
592.546	25883.59
592.743	25607.12
592.94	25211.86
593.137	25408.47
593.334	25592.78
593.531	25054.17
593.727	25189.33
593.924	25441.23
594.121	24810.46
594.318	25127.89
594.515	24677.34
594.712	24941.53
594.908	24804.31
595.105	24640.48
595.302	24384.48
595.499	24722.4
595.696	24421.34
595.892	24579.04
596.089	24671.2
596.286	24361.95
596.482	24226.79
596.679	23874.54
596.876	24255.46
597.072	24007.65
597.269	23874.54
597.466	23679.98
597.662	23852.01
597.859	23596.01
598.055	23913.45
598.252	23393.26
598.448	23147.51
598.645	23151.6
598.841	23223.28
599.038	23139.32
599.234	23217.14
599.431	22828.02
599.627	22752.25
599.824	23077.88
600.02	22557.69
600.217	22721.53
600.413	22717.43
600.609	22578.17
600.806	22350.85
601.002	22270.98
601.198	22125.57
601.395	22250.5
601.591	22062.08
601.787	22215.68
601.984	22035.46
602.18	22406.14
602.376	22074.37
602.572	21906.44
602.769	22109.19
602.965	21564.43
603.161	21797.9
603.357	21773.32
603.553	21543.95
603.75	21572.62
603.946	21120.02
604.142	21341.2
604.338	21357.58
604.534	21607.44
604.73	20853.78
604.926	20890.65
605.122	21271.57
605.318	20954.13
605.514	20839.45
605.71	20710.43
605.906	20739.1
606.102	20677.66
606.298	20829.21
606.494	20395.04
606.69	20763.67
606.886	20497.44
607.082	20710.43
607.278	20802.58
607.474	19895.33
607.67	20499.48
607.866	20327.46
608.062	20417.57
608.257	20053.03
608.453	20030.5
608.649	20075.55
608.845	19876.9
609.041	19827.75
609.236	19948.58
609.432	19862.57
609.628	19541.04
609.824	19657.77
610.019	19692.58
610.215	19674.15
610.411	19866.66
610.606	19414.06
610.802	19387.44
610.998	19389.49
611.193	19414.06
611.389	19248.18
611.584	19577.9
611.78	19022.9
611.976	19289.13
612.171	19070
612.367	19403.82
612.562	18996.28
612.758	18859.06
612.953	18873.4
613.149	19139.63
613.344	18926.64
613.539	19096.63
613.735	19049.52
613.93	19121.2
614.126	18713.66
614.321	18891.83
614.517	18693.18
614.712	18850.87
614.907	18527.29
615.103	18631.74
615.298	18248.77
615.493	18435.13
615.688	18283.58
615.884	18922.55
616.079	18095.17
616.274	18453.56
616.47	18283.58
616.665	18498.62
616.86	18209.86
617.055	18150.46
617.25	17994.82
617.445	18277.44
617.641	17763.4
617.836	18189.38
618.031	17638.47
618.226	17738.82
618.421	17626.18
618.616	17693.77
618.811	17830.98
619.006	17714.25
619.201	17466.44
619.396	17503.31
619.591	17181.78
619.786	17491.02
619.981	17157.2
620.176	17216.59
620.371	17110.1
620.566	17138.77
620.761	16970.83
620.956	16985.17
621.151	16573.53
621.346	16729.17
621.541	16641.11
621.735	16712.79
621.93	16311.39
622.125	16591.96
622.32	16143.45
622.515	16174.17
622.709	16247.9
622.904	16168.03
623.099	15930.47
623.294	15969.38
623.488	15742.05
623.683	16053.34
623.878	15750.24
624.072	15922.27
624.267	15445.1
624.462	15785.06
624.656	15412.33
624.851	15391.85
625.046	15281.26
625.24	15354.99
625.435	15086.7
625.629	14824.56
625.824	15160.43
626.018	14724.21
626.213	14390.39
626.407	14761.08
626.602	14492.79
626.796	14572.66
626.991	14539.9
627.185	14425.21
627.38	14013.57
627.574	14183.55
627.768	14120.06
627.963	13884.55
628.157	13749.38
628.352	13718.66
628.546	13812.87
628.74	13782.15
628.935	13548.68
629.129	13513.86
629.323	13347.98
629.517	13380.75
629.712	13059.21
629.906	13098.13
630.1	12948.62
630.294	13272.2
630.489	13167.76
630.683	13327.5
630.877	12838.03
631.071	12672.15
631.265	12776.59
631.459	12831.89
631.653	12752.02
631.848	12493.97
632.042	12719.25
632.236	12526.74
632.43	12493.97
632.624	12555.41
632.818	12283.03
633.012	12055.71
633.206	12154.01
633.4	12293.27
633.594	11879.58
633.788	12147.87
633.982	11975.84
634.176	11732.13
634.369	11662.5
634.563	11588.77
634.757	11531.43
634.951	11607.2
635.145	11543.72
635.339	11500.71
635.533	11476.13
635.726	11562.15
635.92	11201.71
636.114	11158.7
636.308	11009.2
636.501	11297.96
636.695	11039.92
636.889	10994.86
637.083	11058.35
637.276	10593.46
637.47	10921.13
637.664	10710.19
637.857	10818.74
638.051	10427.57
638.244	10396.85
638.438	10462.39
638.632	10466.49
638.825	10364.09
639.019	10161.34
639.212	10220.73
639.406	10142.91
639.599	10359.99
639.793	10183.87
639.986	10052.8
640.18	10171.58
640.373	10009.79
640.567	9786.56
640.76	9952.45
640.954	9714.88
641.147	9768.13
641.34	9516.23
641.534	9915.58
641.727	9780.42
641.92	9544.9
642.114	9493.7
642.307	9352.39
642.5	9526.47
642.694	9086.15
642.887	9247.94
643.08	9327.81
643.273	9182.41
643.467	9018.57
643.66	8846.54
643.853	8989.9
644.046	8871.12
644.239	8912.08
644.432	8854.73
644.626	8719.57
644.819	8756.43
645.012	8748.24
645.205	8682.7
645.398	8680.66
645.591	8799.44
645.784	8422.61
645.977	8387.8
646.17	8395.99
646.363	8336.6
646.556	8365.27
646.749	8305.88
646.942	8408.28
647.135	8119.51
647.328	7982.3
647.521	8139.99
647.714	8099.03
647.907	8035.55
648.099	7994.59
648.292	7974.11
648.485	7943.39
648.678	7765.21
648.871	7826.65
649.064	7673.06
649.256	7884
649.449	7820.51
649.642	7593.19
649.835	7507.17
650.027	7562.47
650.22	7400.68
650.413	7519.46
650.605	7560.42
650.798	7384.29
650.991	7220.46
651.183	7380.2
651.376	7134.44
651.568	7214.31
651.761	7091.43
651.954	7341.29
652.146	7214.31
652.339	7177.45
652.531	7148.78
652.724	6829.29
652.916	6884.59
653.109	6943.98
653.301	6814.96
653.494	6878.44
653.686	6915.31
653.879	6882.54
654.071	6794.48
654.263	6700.27
654.456	6780.14
654.648	6753.52
654.84	6524.15
655.033	6593.78
655.225	6786.29
655.417	6530.29
655.61	6438.13
655.802	6446.32
655.994	6571.25
656.186	6487.28
656.379	6333.68
656.571	6587.63
656.763	6182.14
656.955	6290.68
657.148	6182.14
657.34	6155.51
657.532	6057.21
657.724	6104.31
657.916	6108.41
658.108	6249.72
658.3	6065.4
658.492	6118.65
658.684	5870.84
658.876	5973.24
659.068	5958.91
659.26	5719.29
659.452	5768.45
659.644	5930.23
659.836	5680.38
660.028	5768.45
660.22	5833.98
660.412	5768.45
660.604	5745.92
660.796	5666.05
660.988	5782.78
661.18	5485.83
661.372	5367.04
661.563	5612.8
661.755	5569.79
661.947	5477.63
662.139	5457.15
662.331	5461.25
662.522	5432.58
662.714	5367.04
662.906	5463.3
663.097	5539.07
663.289	5258.5
663.481	5164.29
663.673	5260.55
663.864	5369.09
664.056	5203.21
664.247	5240.07
664.439	5168.39
664.631	5229.83
664.822	5217.54
665.014	5139.72
665.205	5246.21
665.397	5170.44
665.588	4977.93
665.78	5072.14
665.971	5051.66
666.163	5133.57
666.354	4861.2
666.546	4955.4
666.737	4982.03
666.929	5004.55
667.12	4793.61
667.311	4883.72
667.503	4896.01
667.694	4898.06
667.885	4676.88
668.077	4828.43
668.268	4795.66
668.459	4769.04
668.651	4654.35
668.842	4785.42
669.033	4674.83
669.224	4838.67
669.416	4891.91
669.607	4678.93
669.798	4576.53
669.989	4697.36
670.18	4558.1
670.371	4545.81
670.563	4588.82
670.754	4637.97
670.945	4588.82
671.136	4435.22
671.327	4494.61
671.518	4494.61
671.709	4570.38
671.9	4627.73
672.091	4437.27
672.282	4619.53
672.473	4338.96
672.664	4545.81
672.855	4400.4
673.046	4476.18
673.237	4461.84
673.428	4381.97
673.619	4404.5
673.809	4494.61
674	4435.22
674.191	4420.88
674.382	4345.11
674.573	4328.72
674.764	4386.07
674.954	4484.37
675.145	4427.03
675.336	4216.09
675.527	4334.87
675.717	4316.44
675.908	4320.53
676.099	4357.39
676.289	4318.48
676.48	4400.4
676.671	4220.18
676.861	4279.57
677.052	4263.19
677.243	4273.43
677.433	4330.77
677.624	4322.58
677.814	4209.94
678.005	4261.14
678.195	4291.86
678.386	4267.28
678.576	4168.98
678.767	4242.71
678.957	4218.13
679.148	4201.75
679.338	4363.54
679.529	4154.65
679.719	4367.63
679.909	4279.57
680.1	4250.9
680.29	4162.84
680.481	4152.6
680.671	4166.93
680.861	4218.13
681.052	4205.85
681.242	4123.93
681.432	4201.75
681.622	4168.98
681.813	4199.7
682.003	4240.66
682.193	4148.5
682.383	4175.13
682.573	4138.26
682.764	4156.69
682.954	4103.45
683.144	4080.92
683.334	4171.03
683.524	4123.93
683.714	4125.97
683.904	4078.87
684.094	4089.11
684.284	4099.35
684.474	4144.41
684.664	4060.44
684.854	4039.96
685.044	3990.81
685.234	4005.14
685.424	4015.38
685.614	3917.08
685.804	4101.4
685.994	3984.66
686.184	4003.1
686.374	4080.92
686.564	3980.57
686.753	4113.69
686.943	4072.73
687.133	3855.64
687.323	3927.32
687.513	4017.43
687.702	4029.72
687.892	3939.61
688.082	3816.73
688.272	3896.6
688.461	3843.35
688.651	3912.99
688.841	3769.63
689.03	3693.85
689.22	3820.83
689.41	3634.46
689.599	3853.59
689.789	3724.57
689.979	3804.44
690.168	3695.9
690.358	3644.7
690.547	3691.81
690.737	3732.76
690.926	3558.69
691.116	3532.06
691.305	3609.89
691.495	3536.16
691.684	3536.16
691.874	3618.08
692.063	3478.82
692.252	3550.5
692.442	3505.44
692.631	3300.64
692.82	3437.86
693.01	3411.23
693.199	3368.23
693.388	3321.12
693.578	3362.08
693.767	3306.79
693.956	3323.17
694.146	3339.55
694.335	3286.31
694.524	3325.22
694.713	3294.5
694.902	3235.11
695.092	3317.03
695.281	3261.73
695.47	3298.6
695.659	3159.33
695.848	3300.64
696.037	3198.24
696.226	3169.57
696.415	3077.41
696.604	3155.24
696.793	3136.81
696.982	3077.41
697.171	3169.57
697.36	3202.34
697.549	3097.89
697.738	3101.99
697.927	3245.35
698.116	3163.43
698.305	3124.52
698.494	3116.33
698.683	3140.9
698.872	3224.87
699.061	3089.7
699.25	3126.57
699.438	3007.78
699.627	3116.33
699.816	3048.74
700.005	3040.55
700.193	3249.44
700.382	3136.81
700.571	3042.6
700.76	2938.15
700.948	3052.84
701.137	3063.08
701.326	3034.41
701.514	3151.14
701.703	3185.96
701.892	3009.83
702.08	3216.68
702.269	3136.81
702.457	2944.3
702.646	2991.4
702.834	3069.22
703.023	3130.66
703.212	3069.22
703.4	3136.81
703.589	2952.49
703.777	3003.69
703.965	3095.85
704.154	3091.75
704.342	2942.25
704.531	3061.03
704.719	3040.55
704.907	3073.32
705.096	3038.5
705.284	3011.88
705.472	3067.17
705.661	3030.31
705.849	2921.77
706.037	3106.09
706.226	3024.17
706.414	3067.17
706.602	3124.52
706.79	3061.03
706.979	2970.92
707.167	3048.74
707.355	3005.74
707.543	3003.69
707.731	3126.57
707.919	3042.6
708.107	2985.26
708.296	3026.22
708.484	3030.31
708.672	3073.32
708.86	3075.37
709.048	3052.84
709.236	3091.75
709.424	3190.05
709.612	3081.51
709.8	3138.85
709.988	3022.12
710.176	3128.61
710.364	3046.69
710.551	3073.32
710.739	3142.95
710.927	3032.36
711.115	2948.39
711.303	3091.75
711.491	3022.12
711.679	3110.18
711.866	3134.76
712.054	3167.53
712.242	3091.75
712.43	3261.73
712.617	3087.65
712.805	3120.42
712.993	3159.33
713.181	2968.87
713.368	3198.24
713.556	3202.34
713.744	3101.99
713.931	3056.93
714.119	3190.05
714.306	3145
714.494	3253.54
714.682	3118.37
714.869	3075.37
715.057	3153.19
715.244	3173.67
715.432	3226.92
715.619	3136.81
715.807	3179.81
715.994	3206.44
716.182	3153.19
716.369	3198.24
716.556	3052.84
716.744	3142.95
716.931	3192.1
717.119	3247.4
717.306	3228.96
717.493	3235.11
717.681	3300.64
717.868	3155.24
718.055	3263.78
718.242	3190.05
718.43	3245.35
718.617	3226.92
718.804	3276.07
718.991	3159.33
719.179	3163.43
719.366	3188
719.553	3304.74
719.74	3120.42
719.927	3128.61
720.114	3259.68
720.301	3261.73
720.488	3261.73
720.676	3194.15
720.863	3382.56
721.05	3343.65
721.237	3362.08
721.424	3271.97
721.611	3319.07
721.798	3112.23
721.985	3212.58
722.172	3241.25
722.358	3231.01
722.545	3376.42
722.732	3235.11
722.919	3306.79
723.106	3310.88
723.293	3190.05
723.48	3245.35
723.667	3321.12
723.853	3294.5
724.04	3298.6
724.227	3245.35
724.414	3304.74
724.6	3400.99
724.787	3376.42
724.974	3394.85
725.161	3423.52
725.347	3245.35
725.534	3362.08
725.72	3319.07
725.907	3450.14
726.094	3317.03
726.28	3396.9
726.467	3284.26
726.653	3372.32
726.84	3419.43
727.027	3499.3
727.213	3329.31
727.4	3396.9
727.586	3450.14
727.773	3495.2
727.959	3382.56
728.145	3421.47
728.332	3374.37
728.518	3269.92
728.705	3622.17
728.891	3331.36
729.077	3525.92
729.264	3400.99
729.45	3362.08
729.636	3519.78
729.823	3337.51
730.009	3503.39
730.195	3444
730.382	3452.19
730.568	3425.57
730.754	3439.9
730.94	3448.1
731.126	3595.55
731.313	3562.78
731.499	3345.7
731.685	3419.43
731.871	3276.07
732.057	3429.66
732.243	3546.4
732.429	3499.3
732.615	3439.9
732.801	3425.57
732.987	3427.62
733.173	3527.97
733.359	3497.25
733.545	3403.04
733.731	3636.51
733.917	3523.87
734.103	3581.21
734.289	3593.5
734.475	3505.44
734.661	3589.41
734.847	3566.88
735.033	3454.24
735.219	3523.87
735.404	3636.51
735.59	3472.67
735.776	3519.78
735.962	3495.2
736.148	3515.68
736.333	3616.03
736.519	3505.44
736.705	3570.97
736.89	3607.84
737.076	3546.4
737.262	3507.49
737.447	3507.49
737.633	3517.73
737.819	3480.86
738.004	3380.51
738.19	3411.23
738.375	3511.58
738.561	3484.96
738.747	3560.74
738.932	3448.1
739.118	3511.58
739.303	3460.38
739.489	3398.95
739.674	3472.67
739.859	3415.33
740.045	3417.38
740.23	3517.73
740.416	3521.82
740.601	3415.33
740.786	3339.55
740.972	3298.6
741.157	3376.42
741.342	3413.28
741.528	3429.66
741.713	3366.18
741.898	3364.13
742.084	3417.38
742.269	3519.78
742.454	3327.27
742.639	3380.51
742.824	3302.69
743.01	3370.27
743.195	3544.35
743.38	3257.64
743.565	3202.34
743.75	3366.18
743.935	3206.44
744.12	3237.16
744.305	3257.64
744.49	3228.96
744.675	3280.16
744.86	3171.62
745.045	3239.2
745.23	3366.18
745.415	3095.85
745.6	3282.21
745.785	3118.37
745.97	2979.11
746.155	3056.93
746.34	3056.93
746.525	3091.75
746.71	3093.8
746.895	2958.63
747.079	3095.85
747.264	3007.78
747.449	2979.11
747.634	2999.59
747.819	2997.54
748.003	2954.54
748.188	2999.59
748.373	2889
748.557	3015.98
748.742	2968.87
748.927	2942.25
749.111	2897.19
749.296	2798.89
749.481	2807.08
749.665	2970.92
749.85	2768.17
750.034	2784.55
750.219	2854.19
750.404	2809.13
750.588	2833.71
750.773	2817.32
750.957	2676.01
751.141	2737.45
751.326	2647.34
751.51	2719.02
751.695	2637.1
751.879	2673.96
752.064	2637.1
752.248	2757.93
752.432	2637.1
752.617	2602.29
752.801	2596.14
752.985	2489.65
753.17	2573.61
753.354	2546.99
753.538	2471.22
753.722	2432.3
753.907	2506.03
754.091	2510.13
754.275	2370.87
754.459	2370.87
754.643	2247.99
754.828	2350.39
755.012	2293.04
755.196	2348.34
755.38	2430.26
755.564	2336.05
755.748	2356.53
755.932	2241.84
756.116	2288.95
756.3	2270.51
756.484	2164.02
756.668	2204.98
756.852	2118.97
757.036	2274.61
757.22	2198.84
757.404	2088.25
757.588	2157.88
757.772	2102.58
757.956	2112.82
758.14	2159.92
758.323	1998.13
758.507	2168.12
758.691	2067.77
758.875	2049.33
759.059	2114.87
759.242	2075.96
759.426	1942.84
759.61	2035
759.794	1971.51
759.977	1926.46
760.161	2086.2
760.345	2008.37
760.528	1860.92
760.712	1787.19
760.895	1969.46
761.079	1873.21
761.263	1985.85
761.446	1754.43
761.63	1959.22
761.813	1881.4
761.997	1817.91
762.18	1842.49
762.364	1838.39
762.547	1774.91
762.731	1746.23
762.914	1891.64
763.098	1768.76
763.281	1807.67
763.464	1787.19
763.648	1813.82
763.831	1721.66
764.015	1709.37
764.198	1664.32
764.381	1746.23
764.564	1678.65
764.748	1699.13
764.931	1719.61
765.114	1692.99
765.297	1635.64
765.481	1598.78
765.664	1637.69
765.847	1664.32
766.03	1735.99
766.213	1590.59
766.397	1574.21
766.58	1600.83
766.763	1670.46
766.946	1541.44
767.129	1570.11
767.312	1672.51
767.495	1547.58
767.678	1627.45
767.861	1621.31
768.044	1551.68
768.227	1484.09
768.41	1543.49
768.593	1643.84
768.776	1647.93
768.959	1576.25
769.142	1537.34
769.324	1492.29
769.507	1586.49
769.69	1420.61
769.873	1424.7
770.056	1512.77
770.239	1426.75
770.421	1547.58
770.604	1414.46
770.787	1428.8
770.97	1377.6
771.152	1350.98
771.335	1471.81
771.518	1369.41
771.7	1518.91
771.883	1518.91
772.066	1416.51
772.248	1484.09
772.431	1363.26
772.613	1291.59
772.796	1295.68
772.978	1318.21
773.161	1414.46
773.343	1336.64
773.526	1260.87
773.708	1191.24
773.891	1264.96
774.073	1244.48
774.256	1217.86
774.438	1373.5
774.621	1187.14
774.803	1199.43
774.985	1289.54
775.168	1187.14
775.35	1324.35
775.532	1219.91
775.715	1314.11
775.897	1234.24
776.079	1168.71
776.261	1115.46
776.444	1238.34
776.626	1164.61
776.808	1160.52
776.99	1213.76
777.173	1133.89
777.355	1051.97
777.537	1121.6
777.719	1160.52
777.901	1029.45
778.083	1076.55
778.265	1097.03
778.447	1078.6
778.629	1000.77
778.811	1088.84
778.993	1088.84
779.175	1068.36
779.357	974.15
779.539	974.15
779.721	1025.35
779.903	1004.87
780.085	984.39
780.267	927.05
780.449	949.57
780.631	1004.87
780.812	869.7
780.994	970.05
781.176	937.29
781.358	871.75
781.54	859.46
781.721	920.9
781.903	902.47
782.085	894.28
782.267	920.9
782.448	847.18
782.63	894.28
782.812	800.07
782.993	828.74
783.175	918.86
783.357	808.27
783.538	896.33
783.72	808.27
783.901	845.13
784.083	732.49
784.264	718.15
784.446	740.68
784.627	787.79
784.809	818.5
784.99	877.9
785.172	705.87
785.353	755.02
785.535	730.44
785.716	787.79
785.897	767.31
786.079	777.55
786.26	818.5
786.441	773.45
786.623	587.08
786.804	679.24
786.985	779.59
787.167	730.44
787.348	638.28
787.529	582.99
787.71	744.78
787.891	718.15
788.073	517.45
788.254	591.18
788.435	666.96
788.616	666.96
788.797	634.19
788.978	578.89
789.159	621.9
789.34	662.86
789.522	644.43
789.703	695.63
789.884	615.76
790.065	679.24
790.246	669
790.427	576.84
790.607	607.56
790.788	607.56
790.969	628.04
791.15	560.46
791.331	613.71
791.512	578.89
791.693	433.49
791.874	605.52
792.054	587.08
792.235	593.23
792.416	421.2
792.597	564.56
792.778	537.93
792.958	521.55
793.139	509.26
793.32	511.31
793.5	511.31
793.681	503.12
793.862	494.93
794.042	550.22
794.223	445.77
794.404	480.59
794.584	447.82
794.765	537.93
794.945	509.26
795.126	458.06
795.306	492.88
795.487	550.22
795.667	419.15
795.848	507.21
796.028	476.49
796.209	445.77
796.389	496.97
796.57	466.25
796.75	386.38
796.93	392.53
797.111	478.54
797.291	443.73
797.471	517.45
797.652	390.48
797.832	367.95
798.012	480.59
798.192	408.91
798.373	378.19
798.553	402.77
798.733	384.34
798.913	388.43
799.093	406.86
799.274	410.96
799.454	490.83
799.634	486.73
799.814	478.54
799.994	437.58
800.174	388.43
800.354	496.97
800.534	423.25
800.714	408.91
800.894	408.91
801.074	370
801.254	359.76
801.434	400.72
801.614	400.72
801.794	406.86
801.974	1080.64
802.154	353.62
802.334	410.96
802.514	308.56
802.693	370
802.873	404.82
803.053	410.96
803.233	365.9
803.413	386.38
803.592	322.9
803.772	367.95
803.952	298.32
804.131	326.99
804.311	413.01
804.491	349.52
804.67	386.38
804.85	331.09
805.03	349.52
805.209	380.24
805.389	337.23
805.568	355.66
805.748	279.89
805.928	318.8
806.107	392.53
806.287	339.28
806.466	324.94
806.646	265.55
806.825	324.94
807.004	335.18
807.184	292.18
807.363	296.27
807.543	353.62
807.722	322.9
807.901	339.28
808.081	312.66
808.26	220.5
808.439	308.56
808.619	275.79
808.798	181.59
808.977	281.94
809.156	288.08
809.336	343.38
809.515	275.79
809.694	269.65
809.873	296.27
810.052	263.51
810.231	281.94
810.411	300.37
810.59	294.22
810.769	251.22
810.948	316.75
811.127	195.92
811.306	283.99
811.485	173.39
811.664	279.89
811.843	286.03
812.022	275.79
812.201	312.66
812.38	214.35
812.559	275.79
812.737	255.31
812.916	236.88
813.095	273.75
813.274	255.31
813.453	337.23
813.632	257.36
813.811	269.65
813.989	159.06
814.168	247.12
814.347	240.98
814.526	288.08
814.704	277.84
814.883	277.84
815.062	236.88
815.24	181.59
815.419	206.16
815.598	259.41
815.776	146.77
815.955	333.14
816.133	171.35
816.312	179.54
816.49	238.93
816.669	240.98
816.847	175.44
817.026	279.89
817.204	261.46
817.383	202.07
817.561	247.12
817.74	279.89
817.918	204.11
818.097	152.92
818.275	232.79
818.453	154.96
818.632	236.88
818.81	189.78
818.988	228.69
819.167	181.59
819.345	206.16
819.523	134.48
819.701	197.97
819.879	122.2
820.058	245.07
820.236	228.69
820.414	167.25
820.592	157.01
820.77	204.11
820.948	154.96
821.127	195.92
821.305	193.87
821.483	159.06
821.661	208.21
821.839	144.72
822.017	167.25
822.195	122.2
822.373	197.97
822.551	154.96
822.729	216.4
822.907	165.2
823.085	200.02
823.262	101.72
823.44	138.58
823.618	111.96
823.796	165.2
823.974	87.38
824.152	165.2
824.329	240.98
824.507	154.96
824.685	159.06
824.863	148.82
825.04	138.58
825.218	191.83
825.396	132.44
825.574	185.68
825.751	177.49
825.929	189.78
826.107	120.15
826.284	187.73
826.462	183.63
826.639	95.57
826.817	224.59
826.994	101.72
827.172	169.3
827.349	132.44
827.527	146.77
827.704	142.68
827.882	146.77
828.059	183.63
828.237	118.1
828.414	183.63
828.591	118.1
828.769	195.92
828.946	54.61
829.124	195.92
829.301	175.44
829.478	142.68
829.655	124.24
829.833	128.34
830.01	114
830.187	154.96
830.364	101.72
830.542	146.77
830.719	197.97
830.896	19.8
831.073	177.49
831.25	134.48
831.427	183.63
831.604	159.06
831.782	99.67
831.959	132.44
832.136	128.34
832.313	128.34
832.49	36.18
832.667	83.28
832.844	79.19
833.021	169.3
833.198	142.68
833.374	91.48
833.551	13.65
833.728	120.15
833.905	208.21
834.082	46.42
834.259	150.87
834.436	148.82
834.612	85.33
834.789	154.96
834.966	60.76
835.143	128.34
835.319	34.13
835.496	134.48
835.673	116.05
835.85	134.48
836.026	185.68
836.203	91.48
836.38	87.38
836.556	167.25
836.733	97.62
836.909	101.72
837.086	109.91
837.262	111.96
837.439	99.67
837.616	91.48
837.792	142.68
837.968	54.61
838.145	54.61
838.321	138.58
838.498	85.33
838.674	97.62
838.851	54.61
839.027	101.72
839.203	116.05
839.38	99.67
839.556	-0.68
839.732	120.15
839.909	44.37
840.085	66.9
840.261	64.85
840.437	99.67
840.614	71
840.79	48.47
840.966	83.28
841.142	132.44
841.318	107.86
841.494	73.04
841.671	79.19
841.847	79.19
842.023	52.56
842.199	97.62
842.375	114
842.551	52.56
842.727	66.9
842.903	189.78
843.079	38.23
843.255	83.28
843.431	144.72
843.607	118.1
843.783	36.18
843.959	62.8
844.134	68.95
844.31	50.52
844.486	48.47
844.662	66.9
844.838	1.37
845.013	146.77
845.189	118.1
845.365	68.95
845.541	-2.73
845.716	60.76
845.892	122.2
846.068	44.37
846.244	9.56
846.419	58.71
846.595	5.46
846.77	-6.83
846.946	58.71
847.122	50.52
847.297	25.94
847.473	157.01
847.648	5.46
847.824	85.33
847.999	-58.03
848.175	87.38
848.35	15.7
848.526	103.76
848.701	83.28
848.876	142.68
849.052	87.38
849.227	71
849.403	58.71
849.578	44.37
849.753	66.9
849.929	79.19
850.104	93.52
850.279	124.24
850.454	95.57
850.63	83.28
850.805	21.85
850.98	64.85
851.155	54.61
851.33	11.61
851.505	64.85
851.681	34.13
851.856	75.09
852.031	40.28
852.206	79.19
852.381	73.04
852.556	97.62
852.731	48.47
852.906	118.1
853.081	58.71
853.256	38.23
853.431	15.7
853.606	66.9
853.781	79.19
853.956	66.9
854.131	71
854.305	-8.87
854.48	64.85
854.655	-27.31
854.83	30.04
855.005	-29.35
855.18	62.8
855.354	48.47
855.529	81.24
855.704	99.67
855.879	64.85
856.053	60.76
856.228	87.38
856.403	-47.79
856.577	19.8
856.752	15.7
856.926	23.89
857.101	25.94
857.276	19.8
857.45	175.44
857.625	36.18
857.799	87.38
857.974	77.14
858.148	11.61
858.323	85.33
858.497	7.51
858.672	13.65
858.846	19.8
859.02	81.24
859.195	25.94
859.369	11.61
859.543	3.41
859.718	68.95
859.892	15.7
860.066	73.04
860.241	7.51
860.415	66.9
860.589	75.09
860.763	83.28
860.938	56.66
861.112	13.65
861.286	19.8
861.46	23.89
861.634	89.43
861.808	38.23
861.982	73.04
862.157	60.76
862.331	-25.26
862.505	19.8
862.679	7.51
862.853	7.51
863.027	79.19
863.201	64.85
863.375	25.94
863.549	7.51
863.722	40.28
863.896	81.24
864.07	-74.41
864.244	64.85
864.418	60.76
864.592	-4.78
864.766	75.09
864.939	38.23
865.113	-35.5
865.287	52.56
865.461	-19.11
865.634	23.89
865.808	-31.4
865.982	17.75
866.156	-58.03
866.329	15.7
866.503	9.56
866.676	50.52
866.85	25.94
867.024	91.48
867.197	83.28
867.371	73.04
867.544	-19.11
867.718	27.99
867.891	17.75
868.065	15.7
868.238	7.51
868.412	42.32
868.585	34.13
868.759	42.32
868.932	-68.27
869.105	-33.45
869.279	-31.4
869.452	89.43
869.625	60.76
869.799	-15.02
869.972	3.41
870.145	38.23
870.319	23.89
870.492	-29.35
870.665	-15.02
870.838	-12.97
871.011	-72.36
871.185	42.32
871.358	1.37
871.531	99.67
871.704	-0.68
871.877	48.47
872.05	-33.45
872.223	-29.35
872.396	19.8
872.569	25.94
872.742	1.37
872.915	99.67
873.088	-19.11
873.261	-8.87
873.434	58.71
873.607	93.52
873.78	75.09
873.953	-33.45
874.126	15.7
874.299	71
874.471	1.37
874.644	13.65
874.817	30.04
874.99	107.86
875.163	40.28
875.335	32.08
875.508	-41.64
875.681	-15.02
875.853	19.8
876.026	68.95
876.199	7.51
876.371	25.94
876.544	23.89
876.717	101.72
876.889	-25.26
877.062	38.23
877.234	-33.45
877.407	-10.92
877.579	40.28
877.752	38.23
877.924	5.46
878.097	15.7
878.269	-62.12
878.442	17.75
878.614	1.37
878.786	-0.68
878.959	91.48
879.131	95.57
879.303	-19.11
879.476	40.28
879.648	50.52
879.82	-19.11
879.993	-19.11
880.165	42.32
880.337	-17.07
880.509	15.7
880.681	-17.07
880.854	1.37
881.026	81.24
881.198	91.48
881.37	-25.26
881.542	-25.26
881.714	-33.45
881.886	25.94
882.058	58.71
882.23	38.23
882.402	7.51
882.574	54.61
882.746	71
882.918	21.85
883.09	64.85
883.262	66.9
883.434	52.56
883.606	-27.31
883.778	-12.97
883.95	46.42
884.122	-33.45
884.293	38.23
884.465	36.18
884.637	97.62
884.809	-27.31
884.98	-41.64
885.152	-72.36
885.324	40.28
885.496	-12.97
885.667	-98.99
885.839	19.8
886.011	1.37
886.182	-27.31
886.354	-25.26
886.525	52.56
886.697	42.32
886.869	-43.69
887.04	-17.07
887.212	34.13
887.383	58.71
887.555	17.75
887.726	5.46
887.897	-4.78
888.069	71
888.24	52.56
888.412	-10.92
888.583	-23.21
888.754	68.95
888.926	-27.31
889.097	-8.87
889.268	-4.78
889.44	36.18
889.611	-96.94
889.782	-25.26
889.953	-84.65
890.125	-39.59
890.296	-8.87
890.467	36.18
890.638	-21.16
890.809	27.99
890.98	-43.69
891.151	25.94
891.323	60.76
891.494	-23.21
891.665	-4.78
891.836	56.66
892.007	13.65
892.178	-12.97
892.349	-6.83
892.52	-15.02
892.691	-4.78
892.862	-8.87
893.032	-12.97
893.203	42.32
893.374	-21.16
893.545	42.32
893.716	40.28
893.887	25.94
894.057	5.46
894.228	-41.64
894.399	11.61
894.57	19.8
894.74	13.65
894.911	25.94
895.082	21.85
895.253	27.99
895.423	-10.92
895.594	-15.02
895.764	-2.73
895.935	56.66
896.106	-29.35
896.276	-72.36
896.447	44.37
896.617	83.28
896.788	-43.69
896.958	-27.31
897.129	-17.07
897.299	21.85
897.47	56.66
897.64	97.62
897.81	-31.4
897.981	-2.73
898.151	3.41
898.322	-4.78
898.492	19.8
898.662	13.65
898.832	-10.92
899.003	-27.31
899.173	62.8
899.343	1.37
899.513	-62.12
