Data from USB4F104151__58__13-05-41-281.txt Node

Date: Fri Mar 14 13:05:41 EDT 2025
User: louis
Spectrometer: USB4F10415
Trigger mode: 4
Integration Time (sec): 4.000000E-2
Scans to average: 1
Electric dark correction enabled: true
Nonlinearity correction enabled: false
Boxcar width: 0
XAxis mode: Wavelengths
Number of Pixels in Spectrum: 3648
>>>>>Begin Spectral Data<<<<<
178.204	-129.36
178.424	-129.36
178.644	-129.36
178.864	-258.39
179.084	-100.69
179.304	-33.11
179.524	22.19
179.744	44.71
179.964	40.62
180.184	-16.73
180.404	13.99
180.624	46.76
180.844	-47.44
181.064	-31.06
181.283	11.95
181.503	-69.97
181.723	18.09
181.943	-37.2
182.163	108.2
182.383	5.8
182.602	95.91
182.822	-10.58
183.042	71.34
183.262	40.62
183.482	30.38
183.701	-18.77
183.921	22.19
184.141	-4.44
184.361	104.11
184.58	32.43
184.8	65.19
185.02	50.86
185.239	83.63
185.459	-39.25
185.679	22.19
185.898	-35.16
186.118	57
186.338	79.53
186.557	54.95
186.777	-0.34
186.997	61.1
187.216	20.14
187.436	59.05
187.655	22.19
187.875	140.97
188.095	11.95
188.314	83.63
188.534	126.63
188.753	9.9
188.973	42.67
189.192	73.39
189.412	32.43
189.631	13.99
189.851	16.04
190.07	42.67
190.29	-18.77
190.509	46.76
190.729	40.62
190.948	128.68
191.168	118.44
191.387	65.19
191.607	-18.77
191.826	5.8
192.045	26.28
192.265	24.23
192.484	77.48
192.704	28.33
192.923	40.62
193.142	73.39
193.362	34.47
193.581	128.68
193.8	71.34
194.02	59.05
194.239	20.14
194.458	52.91
194.678	5.8
194.897	-41.3
195.116	153.26
195.335	52.91
195.555	38.57
195.774	-16.73
195.993	81.58
196.212	71.34
196.432	36.52
196.651	13.99
196.87	-16.73
197.089	163.5
197.308	136.87
197.528	128.68
197.747	-14.68
197.966	93.87
198.185	132.78
198.404	79.53
198.623	59.05
198.842	106.15
199.062	65.19
199.281	28.33
199.5	1.71
199.719	145.06
199.938	102.06
200.157	73.39
200.376	95.91
200.595	73.39
200.814	52.91
201.033	54.95
201.252	75.43
201.471	1.71
201.69	1.71
201.909	75.43
202.128	54.95
202.347	59.05
202.566	26.28
202.785	13.99
203.004	18.09
203.223	57
203.442	79.53
203.661	5.8
203.879	26.28
204.098	89.77
204.317	7.85
204.536	11.95
204.755	54.95
204.974	122.54
205.193	40.62
205.411	102.06
205.63	112.3
205.849	69.29
206.068	40.62
206.287	16.04
206.505	61.1
206.724	42.67
206.943	73.39
207.162	11.95
207.381	40.62
207.599	-8.53
207.818	44.71
208.037	5.8
208.255	-55.64
208.474	9.9
208.693	73.39
208.911	-67.92
209.13	44.71
209.349	-2.39
209.567	65.19
209.786	13.99
210.005	93.87
210.223	36.52
210.442	-43.35
210.661	34.47
210.879	97.96
211.098	24.23
211.316	-29.01
211.535	52.91
211.753	85.67
211.972	-20.82
212.191	13.99
212.409	87.72
212.628	61.1
212.846	-18.77
213.065	114.34
213.283	63.15
213.502	34.47
213.72	5.8
213.938	1.71
214.157	36.52
214.375	136.87
214.594	42.67
214.812	89.77
215.031	106.15
215.249	7.85
215.467	40.62
215.686	79.53
215.904	28.33
216.122	28.33
216.341	122.54
216.559	34.47
216.778	97.96
216.996	-10.58
217.214	-55.64
217.432	30.38
217.651	16.04
217.869	-2.39
218.087	63.15
218.306	-4.44
218.524	71.34
218.742	50.86
218.96	36.52
219.179	75.43
219.397	50.86
219.615	128.68
219.833	71.34
220.051	44.71
220.27	95.91
220.488	50.86
220.706	71.34
220.924	104.11
221.142	5.8
221.36	50.86
221.578	54.95
221.796	63.15
222.015	7.85
222.233	54.95
222.451	69.29
222.669	77.48
222.887	120.49
223.105	5.8
223.323	106.15
223.541	1.71
223.759	81.58
223.977	-8.53
224.195	104.11
224.413	81.58
224.631	112.3
224.849	7.85
225.067	163.5
225.285	26.28
225.503	-10.58
225.721	-57.68
225.939	40.62
226.157	57
226.375	179.88
226.592	34.47
226.81	38.57
227.028	79.53
227.246	138.92
227.464	22.19
227.682	102.06
227.9	97.96
228.117	93.87
228.335	52.91
228.553	-37.2
228.771	65.19
228.989	73.39
229.206	95.91
229.424	38.57
229.642	-12.63
229.86	13.99
230.077	128.68
230.295	30.38
230.513	54.95
230.731	61.1
230.948	104.11
231.166	11.95
231.384	57
231.601	100.01
231.819	83.63
232.037	13.99
232.254	22.19
232.472	67.24
232.689	44.71
232.907	112.3
233.125	13.99
233.342	5.8
233.56	46.76
233.777	-65.88
233.995	11.95
234.213	104.11
234.43	40.62
234.648	-6.49
234.865	18.09
235.083	71.34
235.3	44.71
235.518	100.01
235.735	120.49
235.953	104.11
236.17	-6.49
236.388	63.15
236.605	46.76
236.822	147.11
237.04	42.67
237.257	83.63
237.475	50.86
237.692	149.16
237.909	22.19
238.127	48.81
238.344	120.49
238.562	79.53
238.779	13.99
238.996	-26.96
239.214	28.33
239.431	112.3
239.648	-14.68
239.865	169.64
240.083	18.09
240.3	40.62
240.517	7.85
240.735	54.95
240.952	124.58
241.169	32.43
241.386	63.15
241.603	-12.63
241.821	52.91
242.038	104.11
242.255	71.34
242.472	-18.77
242.689	30.38
242.907	79.53
243.124	32.43
243.341	59.05
243.558	71.34
243.775	36.52
243.992	9.9
244.209	89.77
244.426	22.19
244.643	124.58
244.86	5.8
245.078	124.58
245.295	28.33
245.512	126.63
245.729	-8.53
245.946	63.15
246.163	100.01
246.38	85.67
246.597	9.9
246.814	63.15
247.031	73.39
247.248	69.29
247.464	32.43
247.681	100.01
247.898	11.95
248.115	100.01
248.332	79.53
248.549	91.82
248.766	63.15
248.983	71.34
249.2	67.24
249.417	63.15
249.633	-6.49
249.85	97.96
250.067	1.71
250.284	71.34
250.501	79.53
250.717	13.99
250.934	3.75
251.151	52.91
251.368	28.33
251.585	18.09
251.801	59.05
252.018	32.43
252.235	42.67
252.451	-14.68
252.668	5.8
252.885	97.96
253.102	87.72
253.318	81.58
253.535	-45.4
253.752	44.71
253.968	52.91
254.185	65.19
254.401	52.91
254.618	71.34
254.835	5.8
255.051	108.2
255.268	50.86
255.484	38.57
255.701	-39.25
255.917	87.72
256.134	87.72
256.351	20.14
256.567	7.85
256.784	50.86
257	1.71
257.217	36.52
257.433	73.39
257.65	65.19
257.866	87.72
258.082	22.19
258.299	104.11
258.515	89.77
258.732	52.91
258.948	5.8
259.165	179.88
259.381	38.57
259.597	59.05
259.814	59.05
260.03	54.95
260.246	54.95
260.463	57
260.679	54.95
260.895	38.57
261.112	18.09
261.328	-47.44
261.544	1.71
261.761	171.69
261.977	-8.53
262.193	9.9
262.409	48.81
262.626	67.24
262.842	13.99
263.058	3.75
263.274	67.24
263.49	36.52
263.707	87.72
263.923	20.14
264.139	-18.77
264.355	42.67
264.571	95.91
264.787	9.9
265.004	40.62
265.22	24.23
265.436	5.8
265.652	57
265.868	77.48
266.084	-2.39
266.3	26.28
266.516	48.81
266.732	-4.44
266.948	38.57
267.164	79.53
267.38	71.34
267.596	52.91
267.812	177.83
268.028	1.71
268.244	9.9
268.46	26.28
268.676	26.28
268.892	112.3
269.108	-12.63
269.324	-6.49
269.54	-4.44
269.756	108.2
269.972	-14.68
270.188	-29.01
270.403	65.19
270.619	79.53
270.835	69.29
271.051	161.45
271.267	46.76
271.483	63.15
271.698	95.91
271.914	91.82
272.13	34.47
272.346	61.1
272.562	20.14
272.777	138.92
272.993	22.19
273.209	7.85
273.425	32.43
273.64	-72.02
273.856	-6.49
274.072	3.75
274.287	7.85
274.503	3.75
274.719	26.28
274.934	-2.39
275.15	-90.45
275.366	42.67
275.581	13.99
275.797	40.62
276.012	63.15
276.228	63.15
276.444	-2.39
276.659	46.76
276.875	40.62
277.09	63.15
277.306	-8.53
277.521	102.06
277.737	50.86
277.952	79.53
278.168	52.91
278.383	112.3
278.599	34.47
278.814	9.9
279.03	-35.16
279.245	38.57
279.461	57
279.676	102.06
279.892	-10.58
280.107	38.57
280.322	30.38
280.538	85.67
280.753	42.67
280.969	120.49
281.184	40.62
281.399	71.34
281.615	97.96
281.83	65.19
282.045	-10.58
282.26	73.39
282.476	89.77
282.691	61.1
282.906	42.67
283.122	40.62
283.337	46.76
283.552	40.62
283.767	50.86
283.983	40.62
284.198	34.47
284.413	159.4
284.628	26.28
284.843	48.81
285.058	-0.34
285.274	40.62
285.489	65.19
285.704	95.91
285.919	28.33
286.134	-2.39
286.349	46.76
286.564	108.2
286.779	67.24
286.995	-0.34
287.21	-18.77
287.425	61.1
287.64	24.23
287.855	34.47
288.07	5.8
288.285	122.54
288.5	22.19
288.715	57
288.93	9.9
289.145	20.14
289.36	75.43
289.575	69.29
289.79	97.96
290.004	61.1
290.219	44.71
290.434	44.71
290.649	48.81
290.864	9.9
291.079	26.28
291.294	116.39
291.509	-18.77
291.724	30.38
291.938	54.95
292.153	124.58
292.368	20.14
292.583	87.72
292.798	77.48
293.012	100.01
293.227	65.19
293.442	95.91
293.657	36.52
293.871	48.81
294.086	22.19
294.301	67.24
294.516	116.39
294.73	57
294.945	73.39
295.16	16.04
295.374	130.73
295.589	87.72
295.804	22.19
296.018	100.01
296.233	104.11
296.447	145.06
296.662	7.85
296.877	155.3
297.091	44.71
297.306	122.54
297.52	89.77
297.735	28.33
297.949	-2.39
298.164	44.71
298.378	52.91
298.593	32.43
298.807	-22.87
299.022	71.34
299.236	61.1
299.451	24.23
299.665	-8.53
299.88	77.48
300.094	97.96
300.309	5.8
300.523	26.28
300.737	24.23
300.952	100.01
301.166	79.53
301.381	-0.34
301.595	87.72
301.809	50.86
302.024	-35.16
302.238	-8.53
302.452	136.87
302.667	18.09
302.881	104.11
303.095	97.96
303.309	22.19
303.524	36.52
303.738	71.34
303.952	36.52
304.166	85.67
304.381	73.39
304.595	179.88
304.809	-16.73
305.023	110.25
305.237	75.43
305.452	18.09
305.666	-41.3
305.88	75.43
306.094	112.3
306.308	13.99
306.522	71.34
306.736	54.95
306.95	50.86
307.164	18.09
307.379	34.47
307.593	155.3
307.807	71.34
308.021	69.29
308.235	97.96
308.449	-43.35
308.663	13.99
308.877	104.11
309.091	67.24
309.305	106.15
309.519	-12.63
309.733	63.15
309.947	-14.68
310.161	61.1
310.374	52.91
310.588	77.48
310.802	-14.68
311.016	54.95
311.23	-43.35
311.444	-26.96
311.658	32.43
311.872	75.43
312.085	87.72
312.299	-22.87
312.513	32.43
312.727	73.39
312.941	-43.35
313.154	38.57
313.368	46.76
313.582	63.15
313.796	132.78
314.009	-22.87
314.223	104.11
314.437	73.39
314.651	59.05
314.864	54.95
315.078	95.91
315.292	24.23
315.505	48.81
315.719	104.11
315.933	32.43
316.146	48.81
316.36	9.9
316.573	138.92
316.787	83.63
317.001	114.34
317.214	63.15
317.428	54.95
317.641	79.53
317.855	-16.73
318.068	48.81
318.282	100.01
318.495	145.06
318.709	11.95
318.922	-29.01
319.136	75.43
319.349	112.3
319.563	-0.34
319.776	124.58
319.99	26.28
320.203	81.58
320.417	-2.39
320.63	73.39
320.843	186.02
321.057	24.23
321.27	3.75
321.483	63.15
321.697	161.45
321.91	110.25
322.124	114.34
322.337	57
322.55	1.71
322.763	75.43
322.977	81.58
323.19	-8.53
323.403	32.43
323.617	40.62
323.83	130.73
324.043	54.95
324.256	46.76
324.469	73.39
324.683	149.16
324.896	22.19
325.109	1.71
325.322	26.28
325.535	85.67
325.748	46.76
325.962	71.34
326.175	-6.49
326.388	169.64
326.601	128.68
326.814	-22.87
327.027	69.29
327.24	81.58
327.453	-14.68
327.666	138.92
327.879	106.15
328.092	71.34
328.305	91.82
328.518	24.23
328.731	97.96
328.944	52.91
329.157	40.62
329.37	97.96
329.583	71.34
329.796	95.91
330.009	13.99
330.222	114.34
330.435	91.82
330.648	67.24
330.861	128.68
331.073	54.95
331.286	100.01
331.499	71.34
331.712	16.04
331.925	11.95
332.138	26.28
332.35	106.15
332.563	44.71
332.776	5.8
332.989	-24.92
333.202	42.67
333.414	120.49
333.627	38.57
333.84	48.81
334.053	11.95
334.265	54.95
334.478	5.8
334.691	38.57
334.903	69.29
335.116	18.09
335.329	63.15
335.541	30.38
335.754	59.05
335.966	69.29
336.179	102.06
336.392	77.48
336.604	36.52
336.817	81.58
337.029	63.15
337.242	32.43
337.454	155.3
337.667	-2.39
337.88	65.19
338.092	32.43
338.305	91.82
338.517	108.2
338.729	77.48
338.942	108.2
339.154	38.57
339.367	38.57
339.579	-10.58
339.792	46.76
340.004	54.95
340.217	11.95
340.429	40.62
340.641	46.76
340.854	69.29
341.066	26.28
341.278	179.88
341.491	151.21
341.703	50.86
341.915	24.23
342.128	48.81
342.34	85.67
342.552	54.95
342.764	65.19
342.977	52.91
343.189	36.52
343.401	-4.44
343.613	26.28
343.826	30.38
344.038	13.99
344.25	126.63
344.462	46.76
344.674	50.86
344.886	65.19
345.099	32.43
345.311	89.77
345.523	5.8
345.735	40.62
345.947	46.76
346.159	106.15
346.371	61.1
346.583	-10.58
346.795	95.91
347.007	5.8
347.219	89.77
347.431	40.62
347.643	63.15
347.855	34.47
348.067	155.3
348.279	128.68
348.491	87.72
348.703	116.39
348.915	13.99
349.127	-6.49
349.339	59.05
349.551	30.38
349.763	59.05
349.975	30.38
350.187	104.11
350.399	130.73
350.61	50.86
350.822	18.09
351.034	106.15
351.246	32.43
351.458	65.19
351.669	95.91
351.881	30.38
352.093	157.35
352.305	24.23
352.517	54.95
352.728	81.58
352.94	34.47
353.152	38.57
353.363	87.72
353.575	63.15
353.787	85.67
353.999	16.04
354.21	95.91
354.422	-20.82
354.633	61.1
354.845	100.01
355.057	3.75
355.268	22.19
355.48	136.87
355.692	34.47
355.903	30.38
356.115	50.86
356.326	-53.59
356.538	40.62
356.749	110.25
356.961	93.87
357.172	-4.44
357.384	-24.92
357.595	147.11
357.807	38.57
358.018	46.76
358.23	30.38
358.441	153.26
358.653	87.72
358.864	73.39
359.075	112.3
359.287	95.91
359.498	83.63
359.709	20.14
359.921	75.43
360.132	124.58
360.344	54.95
360.555	93.87
360.766	104.11
360.977	28.33
361.189	93.87
361.4	-4.44
361.611	120.49
361.823	87.72
362.034	85.67
362.245	16.04
362.456	69.29
362.667	100.01
362.879	5.8
363.09	59.05
363.301	-0.34
363.512	67.24
363.723	50.86
363.935	69.29
364.146	-26.96
364.357	69.29
364.568	97.96
364.779	48.81
364.99	116.39
365.201	42.67
365.412	85.67
365.623	22.19
365.834	130.73
366.045	71.34
366.256	132.78
366.467	83.63
366.678	-8.53
366.889	106.15
367.1	104.11
367.311	202.41
367.522	46.76
367.733	208.55
367.944	87.72
368.155	50.86
368.366	67.24
368.577	69.29
368.788	149.16
368.999	-35.16
369.209	1.71
369.42	73.39
369.631	198.31
369.842	54.95
370.053	75.43
370.264	59.05
370.474	22.19
370.685	-2.39
370.896	1.71
371.107	83.63
371.317	48.81
371.528	38.57
371.739	83.63
371.95	81.58
372.16	30.38
372.371	-4.44
372.582	57
372.792	83.63
373.003	44.71
373.214	50.86
373.424	30.38
373.635	67.24
373.846	87.72
374.056	136.87
374.267	54.95
374.477	81.58
374.688	65.19
374.898	46.76
375.109	77.48
375.319	83.63
375.53	34.47
375.74	130.73
375.951	65.19
376.161	124.58
376.372	54.95
376.582	-10.58
376.793	128.68
377.003	71.34
377.214	81.58
377.424	102.06
377.635	42.67
377.845	48.81
378.055	147.11
378.266	32.43
378.476	46.76
378.686	-0.34
378.897	93.87
379.107	67.24
379.317	138.92
379.528	57
379.738	100.01
379.948	-0.34
380.158	112.3
380.369	34.47
380.579	46.76
380.789	-10.58
380.999	120.49
381.21	147.11
381.42	114.34
381.63	24.23
381.84	104.11
382.05	59.05
382.261	97.96
382.471	83.63
382.681	38.57
382.891	212.65
383.101	59.05
383.311	50.86
383.521	42.67
383.731	91.82
383.941	151.21
384.151	161.45
384.361	61.1
384.571	73.39
384.781	93.87
384.991	128.68
385.201	157.35
385.411	83.63
385.621	40.62
385.831	75.43
386.041	63.15
386.251	57
386.461	136.87
386.671	95.91
386.881	79.53
387.091	71.34
387.301	54.95
387.511	69.29
387.72	87.72
387.93	54.95
388.14	-49.49
388.35	95.91
388.56	112.3
388.769	100.01
388.979	38.57
389.189	22.19
389.399	44.71
389.609	79.53
389.818	59.05
390.028	38.57
390.238	93.87
390.447	59.05
390.657	73.39
390.867	128.68
391.076	143.02
391.286	48.81
391.496	18.09
391.705	59.05
391.915	95.91
392.125	122.54
392.334	30.38
392.544	132.78
392.753	122.54
392.963	-4.44
393.172	81.58
393.382	22.19
393.591	153.26
393.801	79.53
394.01	153.26
394.22	124.58
394.429	110.25
394.639	106.15
394.848	57
395.058	157.35
395.267	83.63
395.477	136.87
395.686	145.06
395.895	145.06
396.105	282.28
396.314	108.2
396.524	89.77
396.733	108.2
396.942	143.02
397.152	54.95
397.361	134.82
397.57	128.68
397.78	95.91
397.989	126.63
398.198	206.5
398.407	151.21
398.617	134.82
398.826	128.68
399.035	97.96
399.244	175.78
399.453	106.15
399.663	157.35
399.872	114.34
400.081	65.19
400.29	181.93
400.499	116.39
400.708	218.79
400.917	132.78
401.127	100.01
401.336	138.92
401.545	237.22
401.754	163.5
401.963	91.82
402.172	114.34
402.381	104.11
402.59	108.2
402.799	171.69
403.008	233.13
403.217	132.78
403.426	165.54
403.635	126.63
403.844	91.82
404.053	118.44
404.262	63.15
404.471	220.84
404.68	116.39
404.888	186.02
405.097	192.17
405.306	130.73
405.515	202.41
405.724	179.88
405.933	194.22
406.142	214.7
406.35	229.03
406.559	177.83
406.768	173.74
406.977	298.66
407.185	229.03
407.394	224.94
407.603	171.69
407.812	235.18
408.02	296.61
408.229	284.33
408.438	210.6
408.646	177.83
408.855	235.18
409.064	302.76
409.272	255.65
409.481	335.53
409.69	366.25
409.898	366.25
410.107	315.05
410.315	356.01
410.524	300.71
410.733	345.77
410.941	325.29
411.15	429.73
411.358	480.93
411.567	495.27
411.775	466.6
411.984	538.27
412.192	550.56
412.401	462.5
412.609	597.67
412.818	607.91
413.026	595.62
413.234	655.01
413.443	609.95
413.651	550.56
413.86	661.15
414.068	652.96
414.276	589.47
414.485	648.86
414.693	781.98
414.901	726.69
415.11	792.22
415.318	741.02
415.526	788.13
415.734	851.61
415.943	874.14
416.151	958.11
416.359	935.58
416.567	1009.31
416.776	1017.5
416.984	1050.27
417.192	1130.14
417.4	999.07
417.608	1107.61
417.817	1142.43
418.025	1218.2
418.233	1388.18
418.441	1277.59
418.649	1283.74
418.857	1472.15
419.065	1463.96
419.273	1521.3
419.481	1541.78
419.689	1592.98
419.897	1588.88
420.105	1623.7
420.313	1779.34
420.521	1826.45
420.729	1902.22
420.937	1992.33
421.145	1894.03
421.353	2061.96
421.561	2225.8
421.769	2217.61
421.977	2367.11
422.185	2383.49
422.393	2299.53
422.601	2637.44
422.809	2596.48
423.017	2500.23
423.224	2797.18
423.432	2840.19
423.64	2807.42
423.848	3069.56
424.056	3022.46
424.263	3219.07
424.471	3253.88
424.679	3237.5
424.887	3393.14
425.094	3636.85
425.302	3620.47
425.51	3708.53
425.718	3823.22
425.925	3898.99
426.133	4003.44
426.341	4204.14
426.548	4302.44
426.756	4456.04
426.964	4384.36
427.171	4791.91
427.379	4720.23
427.586	4929.12
427.794	5086.81
428.001	5363.29
428.209	5525.08
428.417	5609.05
428.624	5760.59
428.832	5893.71
429.039	5641.81
429.247	5809.75
429.454	6434.38
429.662	6757.96
429.869	6495.82
430.076	6811.2
430.284	6815.3
430.491	6968.9
430.699	7319.1
430.906	7390.78
431.114	7384.63
431.321	7673.4
431.528	7673.4
431.736	8265.26
431.943	8605.22
432.15	8447.53
432.358	8635.94
432.565	9119.26
432.772	8941.09
432.979	9608.73
433.187	9594.39
433.394	9760.28
433.601	10384.91
433.808	10427.92
434.016	10348.04
434.223	10690.06
434.43	11273.73
434.637	11116.03
434.844	11865.59
435.052	12092.91
435.259	12180.98
435.466	12080.63
435.673	12086.77
435.88	12760.55
436.087	13342.18
436.294	13653.47
436.501	13137.38
436.708	13452.77
436.915	14015.96
437.122	14583.24
437.329	14652.88
437.537	15087.04
437.743	15279.55
437.95	15113.67
438.157	16094.65
438.364	16393.65
438.571	16428.46
438.778	16256.43
438.985	18060.7
439.192	17159.59
439.399	17816.99
439.606	17243.56
439.813	18339.22
440.02	19398.02
440.227	19281.28
440.433	19096.97
440.64	19613.06
440.847	19453.31
441.054	20245.88
441.261	21329.25
441.467	20845.93
441.674	21458.28
441.881	22467.92
442.088	22125.91
442.294	22064.47
442.501	22949.2
442.708	23248.2
442.914	23829.82
443.121	25105.71
443.328	24345.91
443.534	26287.39
443.741	25251.11
443.948	25199.91
444.154	27073.81
444.361	26412.31
444.568	26815.76
444.774	26809.62
444.981	27090.19
445.187	27936
445.394	28964.08
445.6	28908.79
445.807	31864
446.013	30092.51
446.22	30909.65
446.426	32117.95
446.633	32144.58
446.839	33379.5
447.046	31931.59
447.252	34016.42
447.459	33930.4
447.665	33930.4
447.871	35417.23
448.078	36627.58
448.284	34798.74
448.491	36105.35
448.697	37262.45
448.903	37928.04
449.11	38276.19
449.316	37489.77
449.522	38425.7
449.728	39244.88
449.935	39504.98
450.141	39656.53
450.347	40567.87
450.553	39255.12
450.76	39750.73
450.966	41423.92
451.172	40647.74
451.378	41434.16
451.584	40936.51
451.791	41733.17
451.997	41720.88
452.203	42515.49
452.409	42775.58
452.615	42339.36
452.821	40703.04
453.027	40383.55
453.233	42390.56
453.44	41131.06
453.646	40959.03
453.852	41659.44
454.058	42337.32
454.264	41006.14
454.47	41741.36
454.676	40666.17
454.882	42069.03
455.088	38730.84
455.294	39074.9
455.5	39359.57
455.705	40006.73
455.911	38845.53
456.117	37764.2
456.323	37135.48
456.529	35513.48
456.735	37028.98
456.941	36193.41
457.147	35720.33
457.352	34198.69
457.558	34223.26
457.764	34569.37
457.97	33682.6
458.176	32994.48
458.381	32879.8
458.587	31427.79
458.793	31184.08
458.999	29809.89
459.204	31583.43
459.41	30923.99
459.616	28853.49
459.821	29031.66
460.027	28611.83
460.233	27706.63
460.438	26995.98
460.644	26873.1
460.85	25935.13
461.055	25564.45
461.261	25427.24
461.466	23461.19
461.672	22809.93
461.878	24149.31
462.083	22455.64
462.289	22406.48
462.494	22127.96
462.7	21351.78
462.905	20200.82
463.111	21042.54
463.316	21626.21
463.522	20839.79
463.727	20788.59
463.932	21063.02
464.138	20690.29
464.343	20665.71
464.549	20264.31
464.754	20923.76
464.959	20534.64
465.165	20342.13
465.37	19717.5
465.575	19062.15
465.781	19842.43
465.986	19815.8
466.191	19115.4
466.397	18810.25
466.602	17880.47
466.807	18785.68
467.012	18584.98
467.218	18423.19
467.423	18218.39
467.628	18453.91
467.833	18982.28
468.038	18300.31
468.244	17880.47
468.449	18681.23
468.654	17886.62
468.859	17677.72
469.064	18120.09
469.269	17204.64
469.474	17280.42
469.679	17704.35
469.885	17083.81
470.09	17198.5
470.295	16962.98
470.5	16768.43
470.705	17094.05
470.91	16528.81
471.115	16678.32
471.32	16930.22
471.525	16520.62
471.73	16367.02
471.935	16121.27
472.139	15697.34
472.344	15615.42
472.549	15578.56
472.754	15414.72
472.959	15185.35
473.164	15007.17
473.369	14624.2
473.574	14919.11
473.778	14794.18
473.983	15007.17
474.188	14663.11
474.393	14015.96
474.598	14233.04
474.802	14024.15
475.007	14052.82
475.212	14204.37
475.417	13542.88
475.621	13485.53
475.826	13630.94
476.031	13424.09
476.235	12940.77
476.44	13221.34
476.645	12862.95
476.849	13069.8
477.054	12996.07
477.259	12518.89
477.463	12656.11
477.668	12412.4
477.872	12584.43
478.077	12215.79
478.282	11693.56
478.486	11619.83
478.691	12015.09
478.895	11773.43
479.1	11771.38
479.304	11781.62
479.509	11400.7
479.713	11705.85
479.918	11294.21
480.122	11290.11
480.326	11163.14
480.531	11406.84
480.735	11165.18
480.94	11046.4
481.144	11654.65
481.348	10933.76
481.553	11095.55
481.757	10651.14
481.961	10784.26
482.166	11021.83
482.37	10823.17
482.574	10819.08
482.778	10710.54
482.983	11177.47
483.187	10632.71
483.391	10917.38
483.595	10612.23
483.8	10645
484.004	10882.56
484.208	10782.21
484.412	10640.9
484.616	10649.1
484.821	10872.32
485.025	10647.05
485.229	10819.08
485.433	10507.79
485.637	10665.48
485.841	10685.96
486.045	10784.26
486.249	10984.96
486.453	10407.44
486.657	10839.56
486.861	10954.24
487.065	10440.2
487.269	10591.75
487.473	10657.29
487.677	10761.73
487.881	10972.68
488.085	10661.38
488.289	10733.06
488.493	10825.22
488.697	11118.08
488.901	10921.48
489.105	10903.04
489.309	10948.1
489.512	10810.89
489.716	10907.14
489.92	10780.17
490.124	10702.34
490.328	11181.57
490.531	10839.56
490.735	11122.18
490.939	11218.43
491.143	10917.38
491.346	10819.08
491.55	11417.08
491.754	11204.1
491.958	11259.39
492.161	11167.23
492.365	11296.25
492.569	11421.18
492.772	11261.44
492.976	11380.22
493.18	11404.8
493.383	11748.86
493.587	11951.6
493.79	11609.59
493.994	11480.57
494.197	11838.97
494.401	12000.76
494.605	12064.24
494.808	12084.72
495.012	12060.15
495.215	12439.02
495.419	12324.33
495.622	12193.26
495.825	12467.69
496.029	12414.45
496.232	12568.04
496.436	12635.63
496.639	13170.15
496.843	12951.01
497.046	13172.19
497.249	13102.56
497.453	13102.56
497.656	13223.39
497.859	13385.18
498.063	13585.88
498.266	14065.11
498.469	13907.41
498.673	13907.41
498.876	14044.63
499.079	14550.48
499.282	14212.56
499.485	14769.61
499.689	14806.47
499.892	15220.16
500.095	15152.58
500.298	15527.36
500.501	15072.71
500.705	15486.4
500.908	15707.58
501.111	15990.2
501.314	16207.28
501.517	16364.98
501.72	16612.78
501.923	16352.69
502.126	16862.63
502.329	17051.05
502.532	17227.17
502.735	17126.82
502.938	17849.75
503.141	17530.27
503.344	17972.63
503.547	17909.15
503.75	18367.89
503.953	18460.05
504.156	18873.74
504.359	18714
504.562	18738.57
504.765	19178.89
504.968	19527.04
505.17	19539.33
505.373	19535.23
505.576	20315.51
505.779	20094.33
505.982	20168.05
506.185	20745.58
506.387	20708.72
506.59	21343.59
506.793	21347.68
506.996	21370.21
507.198	22158.68
507.401	21929.31
507.604	21945.69
507.807	22461.78
508.009	22426.96
508.212	22867.28
508.415	23115.08
508.617	23477.57
508.82	23635.27
509.022	23225.67
509.225	24059.2
509.428	24085.82
509.63	24309.05
509.833	24454.45
510.035	24991.02
510.238	24661.3
510.44	25206.06
510.643	25697.57
510.845	25771.3
511.048	25767.2
511.25	26080.54
511.453	26191.13
511.655	27225.36
511.858	26553.62
512.06	27092.24
512.262	27215.12
512.465	27342.09
512.667	27948.29
512.87	28040.45
513.072	28093.69
513.274	28876.02
513.477	28720.37
513.679	29002.99
513.881	29062.38
514.084	29611.24
514.286	29781.22
514.488	30164.19
514.69	30944.47
514.893	31130.83
515.095	30919.89
515.297	31534.28
515.499	31395.02
515.701	31937.73
515.904	31935.68
516.106	32249.02
516.308	32892.08
516.51	33031.35
516.712	32908.47
516.914	33232.05
517.116	33985.7
517.318	33997.99
517.52	34270.37
517.722	34143.39
517.925	35179.67
518.127	35165.33
518.329	35484.81
518.531	35062.93
518.733	36125.83
518.935	36193.41
519.136	36039.81
519.338	36674.68
519.54	36998.26
519.742	37579.89
519.944	37418.1
520.146	38194.28
520.348	37911.66
520.55	38485.09
520.752	38421.6
520.954	38835.29
521.155	38923.35
521.357	39640.14
521.559	39566.41
521.761	40281.16
521.963	40473.67
522.164	40488
522.366	40629.31
522.568	40993.85
522.77	41675.82
522.971	41720.88
523.173	41073.72
523.375	42042.41
523.576	41856.04
523.778	42236.97
523.98	42529.83
524.181	42982.43
524.383	43164.7
524.584	43242.52
524.786	43637.78
524.988	43684.88
525.189	43731.98
525.391	44319.75
525.592	44295.17
525.794	44393.48
525.995	44542.98
526.197	44499.97
526.398	45018.11
526.6	45077.5
526.801	44936.19
527.003	45452.28
527.204	45472.76
527.406	46222.31
527.607	46019.56
527.808	46435.3
528.01	45958.13
528.211	46136.3
528.412	47072.22
528.614	46531.56
528.815	46949.34
529.016	47184.86
529.218	47113.18
529.419	47477.72
529.62	47227.87
529.822	47049.69
530.023	47061.98
530.224	46855.14
530.425	47274.97
530.626	47244.25
530.828	47139.8
531.029	48114.64
531.23	47309.78
531.431	47666.13
531.632	48042.96
531.833	47940.56
532.035	48135.12
532.236	48456.65
532.437	48702.4
532.638	48184.27
532.839	48188.36
533.04	48284.62
533.241	47920.08
533.442	48866.24
533.643	48669.64
533.844	48456.65
534.045	49081.28
534.246	48034.77
534.447	48993.22
534.648	48563.14
534.849	48567.24
535.05	48382.92
535.251	48509.89
535.451	48415.69
535.652	48718.79
535.853	48645.06
536.054	48982.98
536.255	48853.95
536.456	48348.1
536.657	49302.46
536.857	48509.89
537.058	48718.79
537.259	48841.67
537.46	48675.78
537.66	48528.33
537.861	48694.21
538.062	49007.55
538.263	49044.41
538.463	48270.28
538.664	48769.99
538.865	48679.88
539.065	48999.36
539.266	48427.98
539.466	49339.32
539.667	48065.49
539.868	49050.56
540.068	48552.9
540.269	48733.12
540.469	48999.36
540.67	48311.24
540.87	48552.9
541.071	49040.32
541.271	48952.26
541.472	48542.66
541.672	48231.37
541.873	48214.99
542.073	48192.46
542.274	48843.71
542.474	48847.81
542.675	48374.73
542.875	48812.99
543.075	48305.1
543.276	48008.14
543.476	48546.76
543.676	48337.87
543.877	48901.06
544.077	48819.14
544.277	48520.13
544.478	48700.36
544.678	48942.02
544.878	48292.81
545.078	48376.78
545.279	48401.35
545.479	48030.67
545.679	48479.17
545.879	48591.81
546.079	48606.15
546.28	48171.98
546.48	47766.48
546.68	48376.78
546.88	47969.23
547.08	48022.48
547.28	48059.34
547.48	47657.94
547.68	47969.23
547.88	47631.32
548.081	48083.92
548.281	48028.62
548.481	48018.38
548.681	48139.21
548.881	48116.68
549.081	48387.02
549.28	48077.77
549.48	48120.78
549.68	47938.51
549.88	48604.1
550.08	47514.58
550.28	47827.92
550.48	48139.21
550.68	48745.41
550.88	47756.24
551.08	47367.13
551.279	47885.26
551.479	47795.15
551.679	47813.59
551.879	47801.3
552.079	47969.23
552.278	47592.4
552.478	47594.45
552.678	47883.22
552.878	47612.88
553.077	47676.37
553.277	47449.05
553.477	47780.82
553.676	47520.73
553.876	47496.15
554.076	47494.1
554.275	47483.86
554.475	46902.24
554.674	47258.59
554.874	47236.06
555.074	47018.97
555.273	47320.02
555.473	47637.46
555.672	47104.99
555.872	47465.43
556.071	46961.63
556.271	47508.44
556.47	46973.92
556.67	46738.4
556.869	46801.89
557.068	47291.35
557.268	46525.41
557.467	46744.55
557.667	46810.08
557.866	46668.77
558.065	46760.93
558.265	46097.39
558.464	46232.55
558.663	46466.02
558.863	46463.97
559.062	47258.59
559.261	45908.97
559.461	46681.06
559.66	45706.23
559.859	45755.38
560.058	45691.89
560.258	46003.18
560.457	45519.86
560.656	46107.63
560.855	45394.93
561.054	45845.49
561.253	45392.89
561.453	45636.59
561.652	45839.34
561.851	45579.25
562.05	44858.37
562.249	45415.41
562.448	45376.5
562.647	45036.54
562.846	45067.26
563.045	45435.89
563.244	44448.77
563.443	45126.65
563.642	44299.27
563.841	44551.17
564.04	44577.79
564.239	44962.81
564.438	44413.96
564.637	44327.94
564.836	44479.49
565.035	43961.36
565.234	44235.78
565.432	43854.86
565.631	43877.39
565.83	43758.61
566.029	43856.91
566.228	43709.46
566.427	43856.91
566.625	42996.76
566.824	43133.98
567.023	43330.58
567.222	42454.05
567.42	43467.8
567.619	42941.47
567.818	43512.85
568.016	42818.59
568.215	42888.22
568.414	42660.9
568.612	42882.08
568.811	42646.56
569.01	42339.36
569.208	41761.84
569.407	42564.64
569.605	42136.62
569.804	42052.65
570.002	41821.23
570.201	42298.41
570.4	42005.55
570.598	41501.75
570.797	41397.3
570.995	41821.23
571.193	41233.46
571.392	41595.95
571.59	40864.83
571.789	40969.27
571.987	41034.81
572.186	40780.86
572.384	40813.63
572.582	41006.14
572.781	40547.39
572.979	39812.17
573.177	40528.96
573.376	40672.32
573.574	40127.56
573.772	40506.43
573.971	39887.95
574.169	39943.24
574.367	39513.17
574.565	40000.58
574.763	39408.72
574.962	39756.88
575.16	39066.71
575.358	39472.21
575.556	39076.95
575.754	39689.29
575.952	38745.18
576.151	39021.66
576.349	38696.03
576.547	38902.87
576.745	38648.92
576.943	38659.16
577.141	38411.36
577.339	38601.82
577.537	38571.1
577.735	38194.28
577.933	37975.14
578.131	38163.56
578.329	38069.35
578.527	37831.79
578.725	37626.99
578.923	37543.02
579.121	37573.74
579.319	37682.28
579.516	37561.45
579.714	37487.73
579.912	37102.71
580.11	37303.41
580.308	37313.65
580.506	37078.13
580.704	36553.85
580.901	36959.35
581.099	36832.38
581.297	36580.48
581.495	36537.47
581.692	36789.37
581.89	36449.41
582.088	36611.2
582.285	36418.69
582.483	36539.52
582.681	36179.07
582.878	35896.45
583.076	35818.63
583.274	35931.27
583.471	35722.38
583.669	35701.9
583.866	35341.46
584.064	35400.85
584.262	34995.35
584.459	35445.9
584.657	35273.87
584.854	35013.78
585.052	34655.39
585.249	35026.07
585.447	34690.2
585.644	34389.15
585.841	34800.79
586.039	34692.25
586.236	34340
586.434	34456.73
586.631	34014.37
586.828	34258.08
587.026	34026.66
587.223	33813.67
587.42	33768.62
587.618	33717.42
587.815	33760.42
588.012	33547.43
588.21	33236.14
588.407	33995.94
588.604	33268.91
588.801	32816.31
588.999	33162.42
589.196	32820.41
589.393	33029.3
589.59	32738.49
589.787	32922.8
589.984	32439.48
590.182	32079.04
590.379	32105.66
590.576	32298.17
590.773	32095.42
590.97	31876.29
591.167	31868.1
591.364	31904.96
591.561	31796.42
591.758	31821
591.955	31761.61
592.152	32007.36
592.349	31524.04
592.546	31261.9
592.743	31456.46
592.94	30940.37
593.137	31202.51
593.334	31388.88
593.531	30754.01
593.727	30782.68
593.924	31053.01
594.121	30547.16
594.318	30805.2
594.515	30592.22
594.712	30590.17
594.908	30500.06
595.105	30242.01
595.302	29881.57
595.499	30268.64
595.696	29848.8
595.892	29838.56
596.089	29990.11
596.286	30055.65
596.482	29752.55
596.679	29707.49
596.876	29455.59
597.072	29175.02
597.269	29185.26
597.466	29177.07
597.662	29156.59
597.859	29150.45
598.055	29134.06
598.252	28876.02
598.448	28943.6
598.645	28603.64
598.841	28499.19
599.038	28351.74
599.234	28855.54
599.431	28280.06
599.627	28062.97
599.824	28579.06
600.02	28263.68
600.217	28022.02
600.413	28009.73
600.609	28001.54
600.806	27747.59
601.002	28024.06
601.198	27884.8
601.395	27645.19
601.591	27530.5
601.787	27542.79
601.984	27227.4
602.18	27731.2
602.376	27311.37
602.572	27071.76
602.769	26973.46
602.965	26973.46
603.161	26785.04
603.357	26631.44
603.553	26807.57
603.75	26955.02
603.946	26545.43
604.142	26600.72
604.338	26463.51
604.534	26578.2
604.73	26195.23
604.926	26172.7
605.122	26336.54
605.318	25824.54
605.514	25879.84
605.71	25746.72
605.906	25681.19
606.102	25683.23
606.298	25556.26
606.494	25842.98
606.69	25722.15
606.886	25488.68
607.082	25310.5
607.278	25533.73
607.474	25220.39
607.67	25550.12
607.866	25105.71
608.062	25339.18
608.257	24894.77
608.453	25212.2
608.649	25060.65
608.845	24837.42
609.041	24818.99
609.236	25208.11
609.432	24884.53
609.628	24839.47
609.824	24345.91
610.019	24544.56
610.215	24608.05
610.411	24681.78
610.606	24241.46
610.802	24442.17
610.998	24417.59
611.193	24237.37
611.389	24237.37
611.584	23956.8
611.78	24157.5
611.976	23901.5
612.171	24276.28
612.367	23926.08
612.562	23924.03
612.758	23496
612.953	23530.82
613.149	23897.41
613.344	23643.46
613.539	23938.37
613.735	23698.75
613.93	23518.53
614.126	23582.02
614.321	23799.1
614.517	23729.47
614.712	23676.23
614.907	23600.45
615.103	23326.02
615.298	23084.36
615.493	23405.89
615.688	23063.88
615.884	23506.24
616.079	23115.08
616.274	22865.23
616.47	23043.4
616.665	23012.68
616.86	22586.71
617.055	22822.22
617.25	22650.19
617.445	22654.29
617.641	22500.69
617.836	22662.48
618.031	22373.72
618.226	22510.93
618.421	22560.08
618.616	22584.66
618.811	22216.02
619.006	22416.72
619.201	21951.84
619.396	22093.15
619.591	21661.02
619.786	21978.46
619.981	21644.64
620.176	21871.96
620.371	21425.51
620.566	21560.67
620.761	21534.05
620.956	21620.06
621.151	20981.1
621.346	21183.85
621.541	20991.34
621.735	20962.67
621.93	20655.47
622.125	20796.78
622.32	20587.89
622.515	20544.88
622.709	20153.72
622.904	20364.66
623.099	20325.75
623.294	20151.67
623.488	20039.03
623.683	19871.1
623.878	19697.02
624.072	19576.19
624.267	19957.11
624.462	19639.68
624.656	19101.06
624.851	19510.66
625.046	19150.21
625.24	19314.05
625.435	19064.2
625.629	18998.66
625.824	18939.27
626.018	18853.26
626.213	18169.24
626.407	18476.43
626.602	18396.56
626.796	18564.5
626.991	18036.12
627.185	18318.74
627.38	18089.37
627.574	18054.55
627.768	17827.23
627.963	17898.91
628.157	17593.76
628.352	17704.35
628.546	17241.51
628.74	17548.7
628.935	17194.4
629.129	17472.93
629.323	16821.67
629.517	16965.03
629.712	17044.9
629.906	17096.1
630.1	16930.22
630.294	16725.42
630.489	16598.45
630.683	16416.18
630.877	16270.77
631.071	16405.94
631.265	16231.86
631.459	16238
631.653	16051.64
631.848	16063.93
632.042	15857.08
632.236	15846.84
632.43	15769.02
632.624	15777.21
632.818	15697.34
633.012	15488.45
633.206	15490.49
633.4	15429.06
633.594	15500.73
633.788	15386.05
633.982	15027.65
634.176	15158.72
634.369	14794.18
634.563	14984.65
634.757	15050.18
634.951	14763.47
635.145	14761.42
635.339	14745.03
635.533	14693.83
635.726	14568.91
635.92	14325.2
636.114	14206.42
636.308	14173.65
636.501	13960.66
636.695	14230.99
636.889	13882.84
637.083	13856.22
637.276	13821.4
637.47	13901.27
637.664	13600.22
637.857	13688.28
638.051	13448.67
638.244	13657.56
638.438	13350.37
638.632	13350.37
638.825	13510.11
639.019	13204.96
639.212	13286.88
639.406	13094.37
639.599	13034.98
639.793	12903.91
639.986	12903.91
640.18	12910.05
640.373	12854.76
640.567	12443.12
640.76	12791.27
640.954	12471.79
641.147	12574.19
641.34	12404.21
641.534	12402.16
641.727	12545.52
641.92	12264.94
642.114	12117.49
642.307	12244.46
642.5	11963.89
642.694	11664.89
642.887	11814.39
643.08	12023.28
643.273	11838.97
643.467	11628.03
643.66	11865.59
643.853	11556.35
644.046	11453.95
644.239	11605.5
644.432	11281.92
644.626	11367.93
644.819	11224.58
645.012	11392.51
645.205	11159.04
645.398	10952.2
645.591	11060.74
645.784	10853.89
645.977	10892.8
646.17	10978.82
646.363	10909.19
646.556	10745.35
646.749	10884.61
646.942	10718.73
647.135	10649.1
647.328	10645
647.521	10622.47
647.714	10280.46
647.907	10518.03
648.099	10274.32
648.292	10362.38
648.485	10292.75
648.678	10198.54
648.871	10214.93
649.064	10042.9
649.256	9934.36
649.449	10081.81
649.642	10020.37
649.835	9838.1
650.027	9786.9
650.22	10067.47
650.413	9827.86
650.605	9713.17
650.798	9791
650.991	9539.1
651.183	9643.54
651.376	9422.36
651.568	9414.17
651.761	9426.46
651.954	9375.26
652.146	9356.83
652.339	9283.1
652.531	9342.49
652.724	8994.34
652.916	9203.23
653.109	9070.11
653.301	9113.12
653.494	9172.51
653.686	9014.82
653.879	8961.57
654.071	8902.18
654.263	8707.62
654.456	8789.54
654.648	9055.78
654.84	8652.33
655.033	8599.08
655.225	8320.56
655.417	8343.08
655.61	8457.77
655.802	8435.24
655.994	8480.3
656.186	8457.77
656.379	8332.84
656.571	8314.41
656.763	8359.47
656.955	8136.24
657.148	8353.32
657.34	8298.03
657.532	8150.57
657.724	7865.91
657.916	8009.26
658.108	8052.27
658.3	7919.15
658.492	8017.46
658.684	7839.28
658.876	7814.71
659.068	7673.4
659.26	7761.46
659.452	7761.46
659.644	7898.67
659.836	7595.57
660.028	7669.3
660.22	7560.76
660.412	7517.75
660.604	7362.11
660.796	7497.27
660.988	7384.63
661.18	7321.15
661.372	7222.84
661.563	7470.65
661.755	7259.71
661.947	7185.98
662.139	7161.41
662.331	7009.86
662.522	7278.14
662.714	7007.81
662.906	6893.12
663.097	7190.08
663.289	6993.47
663.481	6723.14
663.673	6788.68
663.864	6825.54
664.056	6809.15
664.247	7093.82
664.439	6903.36
664.631	6831.68
664.822	6993.47
665.014	6684.23
665.205	6798.91
665.397	6657.61
665.588	6770.24
665.78	6501.96
665.971	6637.13
666.163	6770.24
666.354	6571.59
666.546	6569.54
666.737	6381.13
666.929	6417.99
667.12	6393.42
667.311	6485.58
667.503	6374.99
667.694	6385.23
667.885	6307.4
668.077	6391.37
668.268	6272.59
668.459	6184.52
668.651	6272.59
668.842	6356.55
669.033	6127.18
669.224	6067.79
669.416	6356.55
669.607	6125.13
669.798	6184.52
669.989	6147.66
670.18	6002.26
670.371	6002.26
670.563	5930.58
670.754	6196.81
670.945	5944.91
671.136	5889.62
671.327	5989.97
671.518	5961.3
671.709	6043.21
671.9	6022.73
672.091	5957.2
672.282	5895.76
672.473	5756.5
672.664	5987.92
672.855	5922.38
673.046	5813.84
673.237	6002.26
673.428	5850.71
673.619	5703.25
673.809	5916.24
674	5865.04
674.191	5779.03
674.382	5797.46
674.573	5779.03
674.764	5678.68
674.954	5725.78
675.145	5656.15
675.336	5754.45
675.527	5512.79
675.717	5733.97
675.908	5686.87
676.099	5656.15
676.289	5666.39
676.48	5736.02
676.671	5477.98
676.861	5633.62
677.052	5563.99
677.243	5645.91
677.433	5492.31
677.624	5613.14
677.814	5545.56
678.005	5604.95
678.195	5568.09
678.386	5473.88
678.576	5500.5
678.767	5563.99
678.957	5523.03
679.148	5715.54
679.338	5613.14
679.529	5576.28
679.719	5582.42
679.909	5658.2
680.1	5482.07
680.29	5697.11
680.481	5459.54
680.671	5650
680.861	5496.41
681.052	5496.41
681.242	5385.82
681.432	5652.05
681.622	5361.24
681.813	5529.17
682.003	5498.45
682.193	5314.14
682.383	5504.6
682.573	5580.37
682.764	5389.91
682.954	5449.3
683.144	5639.76
683.334	5426.78
683.524	5250.65
683.714	5422.68
683.904	5371.48
684.094	5322.33
684.284	5439.06
684.474	5377.62
684.664	5516.89
684.854	5396.06
685.044	5457.5
685.234	5228.12
685.424	5240.41
685.614	5375.58
685.804	5248.6
685.994	5203.55
686.184	5264.99
686.374	5178.97
686.564	5252.7
686.753	5215.84
686.943	5066.33
687.133	5166.68
687.323	5052
687.513	5181.02
687.702	5117.53
687.892	5006.94
688.082	5113.44
688.272	4986.46
688.461	4982.37
688.651	5039.71
688.841	5000.8
689.03	4873.82
689.22	4804.19
689.41	4970.08
689.599	4675.17
689.789	4787.81
689.979	4783.71
690.168	4773.47
690.358	4814.43
690.547	4697.7
690.737	4626.02
690.926	4681.32
691.116	4705.89
691.305	4654.69
691.495	4585.06
691.684	4447.85
691.874	4613.73
692.063	4503.14
692.252	4646.5
692.442	4535.91
692.631	4382.31
692.82	4456.04
693.01	4413.03
693.199	4351.59
693.388	4398.7
693.578	4333.16
693.767	4398.7
693.956	4365.93
694.146	4300.39
694.335	4265.58
694.524	4271.72
694.713	4335.21
694.902	4253.29
695.092	4122.22
695.281	4193.9
695.47	4175.47
695.659	4105.84
695.848	4101.74
696.037	4271.72
696.226	4177.51
696.415	4011.63
696.604	4064.88
696.793	4040.3
696.982	4116.08
697.171	4025.97
697.36	4179.56
697.549	4025.97
697.738	4028.01
697.927	3952.24
698.116	4017.77
698.305	4032.11
698.494	3985.01
698.683	4044.4
698.872	3972.72
699.061	3876.46
699.25	4038.25
699.438	3847.79
699.627	4036.21
699.816	4064.88
700.005	4103.79
700.193	3864.18
700.382	3954.29
700.571	3980.91
700.76	4003.44
700.948	4023.92
701.137	4046.44
701.326	4044.4
701.514	3917.42
701.703	3782.26
701.892	3956.33
702.08	3982.96
702.269	3966.57
702.457	4021.87
702.646	3991.15
702.834	3919.47
703.023	3858.03
703.212	3925.61
703.4	3786.35
703.589	3774.07
703.777	3870.32
703.965	3782.26
704.154	3790.45
704.342	3880.56
704.531	3901.04
704.719	3833.46
704.907	3905.14
705.096	3890.8
705.284	3989.1
705.472	3890.8
705.661	3907.18
705.849	3911.28
706.037	3884.66
706.226	3853.94
706.414	3872.37
706.602	3839.6
706.79	3898.99
706.979	3794.54
707.167	3993.2
707.355	3819.12
707.543	3937.9
707.731	3972.72
707.919	3894.9
708.107	3933.81
708.296	3927.66
708.484	3864.18
708.672	3882.61
708.86	3774.07
709.048	3894.9
709.236	3839.6
709.424	4068.97
709.612	4079.21
709.8	3950.19
709.988	4015.73
710.176	4077.16
710.364	4087.4
710.551	3954.29
710.739	3874.42
710.927	3968.62
711.115	3919.47
711.303	4013.68
711.491	3823.22
711.679	3796.59
711.866	4036.21
712.054	3896.94
712.242	3995.25
712.43	4093.55
712.617	4066.92
712.805	3972.72
712.993	3970.67
713.181	3792.5
713.368	4023.92
713.556	4087.4
713.744	3987.05
713.931	4044.4
714.119	4058.73
714.306	4042.35
714.494	4042.35
714.682	3880.56
714.869	3985.01
715.057	4023.92
715.244	3903.09
715.432	4048.49
715.619	4081.26
715.807	4130.41
715.994	4071.02
716.182	4013.68
716.369	4068.97
716.556	4101.74
716.744	3999.34
716.931	3890.8
717.119	4136.56
717.306	4005.49
717.493	4062.83
717.681	4087.4
717.868	4073.07
718.055	4052.59
718.242	4044.4
718.43	4144.75
718.617	4140.65
718.804	4204.14
718.991	4093.55
719.179	4134.51
719.366	4179.56
719.553	4144.75
719.74	3985.01
719.927	4114.03
720.114	4111.98
720.301	4195.95
720.488	3952.24
720.676	4097.64
720.863	4095.6
721.05	4234.86
721.237	4095.6
721.424	4228.71
721.611	4257.39
721.798	4169.32
721.985	4021.87
722.172	4095.6
722.358	4085.36
722.545	4228.71
722.732	4187.75
722.919	4202.09
723.106	4132.46
723.293	4093.55
723.48	4197.99
723.667	4171.37
723.853	4255.34
724.04	4226.67
724.227	4163.18
724.414	4171.37
724.6	4177.51
724.787	4167.28
724.974	4140.65
725.161	4269.67
725.347	4200.04
725.534	4191.85
725.72	4128.36
725.907	4259.43
726.094	4357.74
726.28	4253.29
726.467	4109.93
726.653	4116.08
726.84	4200.04
727.027	4218.47
727.213	4216.43
727.4	4277.87
727.586	4138.6
727.773	4161.13
727.959	4273.77
728.145	4257.39
728.332	4132.46
728.518	4249.19
728.705	4232.81
728.891	4314.73
729.077	4228.71
729.264	4306.54
729.45	4028.01
729.636	4320.87
729.823	4208.23
730.009	4271.72
730.195	4294.25
730.382	4380.26
730.568	4232.81
730.754	4284.01
730.94	4249.19
731.126	4290.15
731.313	4191.85
731.499	4241
731.685	4175.47
731.871	4241
732.057	4195.95
732.243	4343.4
732.429	4255.34
732.615	4253.29
732.801	4341.35
732.987	4220.52
733.173	4306.54
733.359	4286.06
733.545	4384.36
733.731	4216.43
733.917	4300.39
734.103	4347.5
734.289	4339.3
734.475	4163.18
734.661	4470.37
734.847	4339.3
735.033	4253.29
735.219	4226.67
735.404	4167.28
735.59	4269.67
735.776	4173.42
735.962	4355.69
736.148	4458.09
736.333	4396.65
736.519	4300.39
736.705	4255.34
736.89	4152.94
737.076	4195.95
737.262	4191.85
737.447	4165.23
737.633	4171.37
737.819	4273.77
738.004	4120.17
738.19	4208.23
738.375	4161.13
738.561	4126.32
738.747	4111.98
738.932	4089.45
739.118	4183.66
739.303	4183.66
739.489	4077.16
739.674	4349.54
739.859	4157.04
740.045	4040.3
740.23	4134.51
740.416	4066.92
740.601	4109.93
740.786	4126.32
740.972	4001.39
741.157	3890.8
741.342	3966.57
741.528	4034.16
741.713	3987.05
741.898	4032.11
742.084	4187.75
742.269	4126.32
742.454	3962.48
742.639	4044.4
742.824	3845.74
743.01	3884.66
743.195	3970.67
743.38	3890.8
743.565	3845.74
743.75	3907.18
743.935	3780.21
744.12	3995.25
744.305	3808.88
744.49	3927.66
744.675	3823.22
744.86	3696.24
745.045	3675.76
745.23	3843.7
745.415	3675.76
745.6	3737.2
745.785	3659.38
745.97	3788.4
746.155	3614.32
746.34	3643
746.525	3663.47
746.71	3534.45
746.895	3481.21
747.079	3561.08
747.264	3554.93
747.449	3593.84
747.634	3538.55
747.819	3497.59
748.003	3329.66
748.188	3503.73
748.373	3393.14
748.557	3346.04
748.742	3323.51
748.927	3352.18
749.111	3245.69
749.296	3241.59
749.481	3356.28
749.665	3311.22
749.85	3176.06
750.034	3268.22
750.219	3339.9
750.404	3204.73
750.588	3245.69
750.773	3120.76
750.957	3133.05
751.141	3032.7
751.326	3044.99
751.51	2983.55
751.695	3102.33
751.879	3004.03
752.064	3096.19
752.248	2926.21
752.432	2940.54
752.617	3024.51
752.801	2999.93
752.985	2979.45
753.17	2848.38
753.354	2885.25
753.538	2881.15
753.722	2731.65
753.907	2670.21
754.091	2653.83
754.275	2813.57
754.459	2598.53
754.643	2596.48
754.828	2821.76
755.012	2645.63
755.196	2602.63
755.38	2571.91
755.564	2547.33
755.748	2481.8
755.932	2631.3
756.116	2516.61
756.3	2635.39
756.484	2578.05
756.668	2584.2
756.852	2469.51
757.036	2496.13
757.22	2475.65
757.404	2420.36
757.588	2455.17
757.772	2422.41
757.956	2598.53
758.14	2338.44
758.323	2279.05
758.507	2324.1
758.691	2315.91
758.875	2397.83
759.059	2338.44
759.242	2178.7
759.426	2231.94
759.61	2076.3
759.794	2285.19
759.977	2203.27
760.161	2367.11
760.345	2274.95
760.528	2215.56
760.712	2135.69
760.895	2186.89
761.079	2049.68
761.263	2119.31
761.446	1978
761.63	2041.48
761.813	2182.79
761.997	2111.11
762.18	1994.38
762.364	1998.48
762.547	1978
762.731	1965.71
762.914	2016.91
763.098	1914.51
763.281	2082.44
763.464	1937.04
763.648	1973.9
763.831	1992.33
764.015	1965.71
764.198	1928.85
764.381	1961.61
764.564	1848.97
764.748	1939.09
764.931	1857.17
765.114	1902.22
765.297	1963.66
765.481	1826.45
765.664	1842.83
765.847	1732.24
766.03	1767.06
766.213	1752.72
766.397	1900.17
766.58	1664.66
766.763	1922.7
766.946	1691.28
767.129	1787.54
767.312	1791.63
767.495	1869.45
767.678	1730.19
767.861	1785.49
768.044	1822.35
768.227	1797.78
768.41	1654.42
768.593	1781.39
768.776	1689.23
768.959	1771.15
769.142	1744.53
769.324	1672.85
769.507	1685.14
769.69	1754.77
769.873	1597.07
770.056	1666.71
770.239	1623.7
770.421	1664.66
770.604	1629.84
770.787	1681.04
770.97	1547.92
771.152	1496.72
771.335	1564.31
771.518	1468.05
771.7	1537.68
771.883	1652.37
772.066	1537.68
772.248	1552.02
772.431	1506.96
772.613	1533.59
772.796	1441.43
772.978	1578.64
773.161	1496.72
773.343	1480.34
773.526	1439.38
773.708	1427.09
773.891	1382.04
774.073	1400.47
774.256	1431.19
774.438	1521.3
774.621	1435.28
774.803	1427.09
774.985	1296.02
775.168	1353.37
775.35	1283.74
775.532	1431.19
775.715	1384.09
775.897	1345.17
776.079	1308.31
776.261	1212.06
776.444	1201.82
776.626	1304.21
776.808	1267.35
776.99	1185.43
777.173	1259.16
777.355	1234.58
777.537	1236.63
777.719	1296.02
777.901	1134.23
778.083	1187.48
778.265	1164.95
778.447	1189.53
778.629	1177.24
778.811	1212.06
778.993	1197.72
779.175	1130.14
779.357	1132.19
779.539	1111.71
779.721	1048.22
779.903	1119.9
780.085	1078.94
780.267	1111.71
780.449	1080.99
780.631	1111.71
780.812	1087.13
780.994	1019.55
781.176	1078.94
781.358	1013.4
781.54	999.07
781.721	915.1
781.903	1046.17
782.085	1005.21
782.267	960.16
782.448	923.29
782.63	990.88
782.812	779.93
782.993	1064.6
783.175	976.54
783.357	1001.12
783.538	980.64
783.72	921.24
783.901	863.9
784.083	917.15
784.264	927.39
784.446	874.14
784.627	796.32
784.809	878.24
784.99	763.55
785.172	939.68
785.353	859.81
785.535	863.9
785.716	810.65
785.897	800.41
786.079	796.32
786.26	827.04
786.441	951.96
786.623	751.26
786.804	775.84
786.985	757.41
787.167	763.55
787.348	827.04
787.529	800.41
787.71	837.28
787.891	718.5
788.073	720.54
788.254	648.86
788.435	761.5
788.616	720.54
788.797	632.48
788.978	734.88
789.159	734.88
789.34	800.41
789.522	655.01
789.703	652.96
789.884	722.59
790.065	695.97
790.246	767.65
790.427	657.06
790.607	738.98
790.788	689.82
790.969	603.81
791.15	679.58
791.331	659.1
791.512	693.92
791.693	700.06
791.874	669.34
792.054	681.63
792.235	640.67
792.416	593.57
792.597	603.81
792.778	566.95
792.958	612
793.139	571.04
793.32	718.5
793.5	493.22
793.681	564.9
793.862	587.43
794.042	579.23
794.223	505.51
794.404	538.27
794.584	521.89
794.765	554.66
794.945	577.19
795.126	566.95
795.306	665.25
795.487	497.32
795.667	554.66
795.848	509.6
796.028	562.85
796.209	568.99
796.389	581.28
796.57	497.32
796.75	523.94
796.93	562.85
797.111	487.08
797.291	485.03
797.471	495.27
797.652	458.4
797.832	431.78
798.012	566.95
798.192	452.26
798.373	415.4
798.553	382.63
798.733	497.32
798.913	417.44
799.093	513.7
799.274	474.79
799.454	509.6
799.634	480.93
799.814	489.12
799.994	497.32
800.174	474.79
800.354	431.78
800.534	394.92
800.714	466.6
800.894	415.4
801.074	360.1
801.254	454.31
801.434	474.79
801.614	407.2
801.794	390.82
801.974	1287.83
802.154	360.1
802.334	482.98
802.514	347.81
802.693	401.06
802.873	376.48
803.053	452.26
803.233	439.97
803.413	444.07
803.592	370.34
803.772	345.77
803.952	257.7
804.131	403.11
804.311	446.12
804.491	382.63
804.67	366.25
804.85	286.37
805.03	378.53
805.209	351.91
805.389	306.85
805.568	345.77
805.748	308.9
805.928	376.48
806.107	337.57
806.287	374.44
806.466	425.64
806.646	349.86
806.825	321.19
807.004	278.18
807.184	372.39
807.363	384.68
807.543	335.53
807.722	292.52
807.901	368.29
808.081	378.53
808.26	286.37
808.439	337.57
808.619	333.48
808.798	294.57
808.977	269.99
809.156	313
809.336	390.82
809.515	392.87
809.694	308.9
809.873	345.77
810.052	298.66
810.231	376.48
810.411	267.94
810.59	276.13
810.769	284.33
810.948	333.48
811.127	251.56
811.306	317.09
811.485	319.14
811.664	382.63
811.843	292.52
812.022	327.33
812.201	362.15
812.38	323.24
812.559	272.04
812.737	294.57
812.916	233.13
813.095	349.86
813.274	337.57
813.453	304.81
813.632	335.53
813.811	278.18
813.989	319.14
814.168	249.51
814.347	267.94
814.526	218.79
814.704	298.66
814.883	333.48
815.062	265.89
815.24	243.37
815.419	161.45
815.598	251.56
815.776	220.84
815.955	198.31
816.133	204.46
816.312	259.75
816.49	218.79
816.669	280.23
816.847	247.46
817.026	319.14
817.204	145.06
817.383	222.89
817.561	302.76
817.74	237.22
817.918	263.85
818.097	206.5
818.275	255.65
818.453	243.37
818.632	259.75
818.81	157.35
818.988	196.26
819.167	157.35
819.345	237.22
819.523	198.31
819.701	251.56
819.879	243.37
820.058	229.03
820.236	280.23
820.414	220.84
820.592	95.91
820.77	239.27
820.948	140.97
821.127	173.74
821.305	183.98
821.483	183.98
821.661	200.36
821.839	157.35
822.017	91.82
822.195	145.06
822.373	231.08
822.551	206.5
822.729	245.41
822.907	206.5
823.085	175.78
823.262	140.97
823.44	153.26
823.618	102.06
823.796	171.69
823.974	179.88
824.152	212.65
824.329	198.31
824.507	220.84
824.685	163.5
824.863	181.93
825.04	231.08
825.218	186.02
825.396	263.85
825.574	155.3
825.751	284.33
825.929	235.18
826.107	120.49
826.284	290.47
826.462	186.02
826.639	173.74
826.817	130.73
826.994	204.46
827.172	157.35
827.349	177.83
827.527	173.74
827.704	153.26
827.882	278.18
828.059	147.11
828.237	175.78
828.414	171.69
828.591	77.48
828.769	163.5
828.946	210.6
829.124	196.26
829.301	198.31
829.478	151.21
829.655	165.54
829.833	196.26
830.01	100.01
830.187	161.45
830.364	153.26
830.542	204.46
830.719	140.97
830.896	183.98
831.073	138.92
831.25	138.92
831.427	222.89
831.604	132.78
831.782	61.1
831.959	214.7
832.136	108.2
832.313	104.11
832.49	116.39
832.667	177.83
832.844	97.96
833.021	212.65
833.198	149.16
833.374	145.06
833.551	216.74
833.728	104.11
833.905	48.81
834.082	87.72
834.259	147.11
834.436	163.5
834.612	190.12
834.789	175.78
834.966	143.02
835.143	112.3
835.319	81.58
835.496	120.49
835.673	128.68
835.85	153.26
836.026	65.19
836.203	210.6
836.38	140.97
836.556	67.24
836.733	59.05
836.909	163.5
837.086	112.3
837.262	28.33
837.439	110.25
837.616	69.29
837.792	132.78
837.968	120.49
838.145	30.38
838.321	112.3
838.498	77.48
838.674	102.06
838.851	140.97
839.027	143.02
839.203	130.73
839.38	93.87
839.556	91.82
839.732	81.58
839.909	110.25
840.085	106.15
840.261	61.1
840.437	143.02
840.614	114.34
840.79	104.11
840.966	112.3
841.142	130.73
841.318	79.53
841.494	106.15
841.671	165.54
841.847	22.19
842.023	67.24
842.199	151.21
842.375	196.26
842.551	71.34
842.727	87.72
842.903	194.22
843.079	114.34
843.255	165.54
843.431	79.53
843.607	132.78
843.783	5.8
843.959	85.67
844.134	77.48
844.31	165.54
844.486	116.39
844.662	83.63
844.838	61.1
845.013	108.2
845.189	114.34
845.365	153.26
845.541	38.57
845.716	71.34
845.892	59.05
846.068	42.67
846.244	116.39
846.419	120.49
846.595	67.24
846.77	112.3
846.946	67.24
847.122	157.35
847.297	57
847.473	175.78
847.648	32.43
847.824	122.54
847.999	-31.06
848.175	114.34
848.35	57
848.526	106.15
848.701	155.3
848.876	161.45
849.052	124.58
849.227	130.73
849.403	42.67
849.578	38.57
849.753	71.34
849.929	79.53
850.104	54.95
850.279	52.91
850.454	77.48
850.63	122.54
850.805	120.49
850.98	24.23
851.155	50.86
851.33	87.72
851.505	5.8
851.681	128.68
851.856	24.23
852.031	83.63
852.206	97.96
852.381	26.28
852.556	63.15
852.731	48.81
852.906	59.05
853.081	83.63
853.256	171.69
853.431	42.67
853.606	59.05
853.781	59.05
853.956	7.85
854.131	120.49
854.305	22.19
854.48	91.82
854.655	91.82
854.83	50.86
855.005	100.01
855.18	95.91
855.354	65.19
855.529	73.39
855.704	16.04
855.879	18.09
856.053	-6.49
856.228	16.04
856.403	34.47
856.577	57
856.752	40.62
856.926	46.76
857.101	57
857.276	71.34
857.45	145.06
857.625	57
857.799	48.81
857.974	65.19
858.148	9.9
858.323	59.05
858.497	20.14
858.672	52.91
858.846	28.33
859.02	24.23
859.195	59.05
859.369	40.62
859.543	122.54
859.718	69.29
859.892	34.47
860.066	145.06
860.241	54.95
860.415	-22.87
860.589	26.28
860.763	63.15
860.938	67.24
861.112	46.76
861.286	-29.01
861.46	30.38
861.634	-59.73
861.808	-6.49
861.982	16.04
862.157	30.38
862.331	104.11
862.505	13.99
862.679	-10.58
862.853	79.53
863.027	40.62
863.201	118.44
863.375	13.99
863.549	50.86
863.722	69.29
863.896	104.11
864.07	-16.73
864.244	97.96
864.418	26.28
864.592	-0.34
864.766	132.78
864.939	110.25
865.113	44.71
865.287	73.39
865.461	20.14
865.634	110.25
865.808	-37.2
865.982	-8.53
866.156	-49.49
866.329	18.09
866.503	24.23
866.676	87.72
866.85	40.62
867.024	52.91
867.197	67.24
867.371	128.68
867.544	126.63
867.718	22.19
867.891	32.43
868.065	30.38
868.238	153.26
868.412	97.96
868.585	22.19
868.759	42.67
868.932	-45.4
869.105	65.19
869.279	18.09
869.452	52.91
869.625	67.24
869.799	-26.96
869.972	7.85
870.145	16.04
870.319	104.11
870.492	-10.58
870.665	30.38
870.838	-4.44
871.011	-43.35
871.185	30.38
871.358	34.47
871.531	-20.82
871.704	30.38
871.877	73.39
872.05	-76.12
872.223	-26.96
872.396	26.28
872.569	-20.82
872.742	-37.2
872.915	97.96
873.088	-26.96
873.261	20.14
873.434	-31.06
873.607	61.1
873.78	67.24
873.953	5.8
874.126	42.67
874.299	63.15
874.471	-14.68
874.644	-43.35
874.817	69.29
874.99	128.68
875.163	38.57
875.335	65.19
875.508	-69.97
875.681	32.43
875.853	18.09
876.026	30.38
876.199	67.24
876.371	59.05
876.544	30.38
876.717	24.23
876.889	22.19
877.062	-24.92
877.234	20.14
877.407	-2.39
877.579	79.53
877.752	24.23
877.924	61.1
878.097	102.06
878.269	11.95
878.442	-22.87
878.614	-37.2
878.786	-65.88
878.959	48.81
879.131	30.38
879.303	-127.32
879.476	124.58
879.648	97.96
879.82	11.95
879.993	34.47
880.165	32.43
880.337	-67.92
880.509	36.52
880.681	28.33
880.854	57
881.026	59.05
881.198	110.25
881.37	3.75
881.542	89.77
881.714	9.9
881.886	50.86
882.058	-2.39
882.23	38.57
882.402	-35.16
882.574	87.72
882.746	40.62
882.918	71.34
883.09	34.47
883.262	22.19
883.434	79.53
883.606	-67.92
883.778	3.75
883.95	20.14
884.122	-49.49
884.293	52.91
884.465	38.57
884.637	57
884.809	22.19
884.98	40.62
885.152	3.75
885.324	63.15
885.496	-20.82
885.667	-14.68
885.839	-76.12
886.011	75.43
886.182	16.04
886.354	-16.73
886.525	-2.39
886.697	30.38
886.869	-14.68
887.04	50.86
887.212	63.15
887.383	120.49
887.555	54.95
887.726	-8.53
887.897	40.62
888.069	71.34
888.24	108.2
888.412	18.09
888.583	13.99
888.754	-12.63
888.926	-2.39
889.097	-35.16
889.268	50.86
889.44	44.71
889.611	54.95
889.782	-47.44
889.953	-22.87
890.125	38.57
890.296	-37.2
890.467	24.23
890.638	46.76
890.809	20.14
890.98	-8.53
891.151	79.53
891.323	26.28
891.494	9.9
891.665	28.33
891.836	-10.58
892.007	1.71
892.178	-14.68
892.349	16.04
892.52	1.71
892.691	11.95
892.862	30.38
893.032	-33.11
893.203	42.67
893.374	-33.11
893.545	112.3
893.716	-12.63
893.887	9.9
894.057	-51.54
894.228	26.28
894.399	-31.06
894.57	93.87
894.74	20.14
894.911	-0.34
895.082	-55.64
895.253	-61.78
895.423	30.38
895.594	112.3
895.764	-33.11
895.935	-115.03
896.106	16.04
896.276	30.38
896.447	106.15
896.617	-61.78
896.788	-6.49
896.958	3.75
897.129	-6.49
897.299	-26.96
897.47	100.01
897.64	73.39
897.81	59.05
897.981	-47.44
898.151	1.71
898.322	16.04
898.492	28.33
898.662	-0.34
898.832	28.33
899.003	-8.53
899.173	-2.39
899.343	-29.01
899.513	-47.44
