Data from USB4F104151__31__13-04-50-368.txt Node

Date: Fri Mar 14 13:04:50 EDT 2025
User: louis
Spectrometer: USB4F10415
Trigger mode: 4
Integration Time (sec): 4.000000E-2
Scans to average: 1
Electric dark correction enabled: true
Nonlinearity correction enabled: false
Boxcar width: 0
XAxis mode: Wavelengths
Number of Pixels in Spectrum: 3648
>>>>>Begin Spectral Data<<<<<
178.204	-167.93
178.424	-167.93
178.644	-167.93
178.864	-180.22
179.084	-190.46
179.304	38.91
179.524	20.48
179.744	-18.43
179.964	28.67
180.184	-40.96
180.404	-26.62
180.624	-4.1
180.844	8.19
181.064	-69.63
181.283	-28.67
181.503	12.29
181.723	79.87
181.943	-32.77
182.163	59.39
182.383	-12.29
182.602	45.06
182.822	77.82
183.042	0
183.262	-12.29
183.482	-2.05
183.701	-69.63
183.921	65.54
184.141	-12.29
184.361	55.3
184.58	8.19
184.8	-34.82
185.02	16.38
185.239	67.58
185.459	88.06
185.679	77.82
185.898	-28.67
186.118	157.69
186.338	71.68
186.557	59.39
186.777	-69.63
186.997	141.31
187.216	30.72
187.436	36.86
187.655	49.15
187.875	16.38
188.095	20.48
188.314	65.54
188.534	57.34
188.753	-4.1
188.973	51.2
189.192	106.49
189.412	129.02
189.631	16.38
189.851	51.2
190.07	57.34
190.29	-57.34
190.509	38.91
190.729	16.38
190.948	59.39
191.168	194.56
191.387	120.83
191.607	22.53
191.826	24.58
192.045	34.82
192.265	-22.53
192.484	34.82
192.704	38.91
192.923	-12.29
193.142	169.98
193.362	49.15
193.581	20.48
193.8	36.86
194.02	118.78
194.239	36.86
194.458	83.97
194.678	71.68
194.897	-26.62
195.116	0
195.335	102.4
195.555	43.01
195.774	100.35
195.993	32.77
196.212	4.1
196.432	22.53
196.651	0
196.87	24.58
197.089	96.25
197.308	71.68
197.528	-22.53
197.747	-61.44
197.966	86.01
198.185	71.68
198.404	-51.2
198.623	120.83
198.842	38.91
199.062	108.54
199.281	34.82
199.5	6.14
199.719	75.77
199.938	77.82
200.157	139.26
200.376	65.54
200.595	143.36
200.814	-2.05
201.033	28.67
201.252	139.26
201.471	28.67
201.69	114.69
201.909	40.96
202.128	28.67
202.347	63.49
202.566	38.91
202.785	-65.53
203.004	30.72
203.223	102.4
203.442	49.15
203.661	-40.96
203.879	55.3
204.098	22.53
204.317	61.44
204.536	110.59
204.755	55.3
204.974	69.63
205.193	4.1
205.411	120.83
205.63	43.01
205.849	43.01
206.068	47.1
206.287	16.38
206.505	65.54
206.724	47.1
206.943	47.1
207.162	2.05
207.381	81.92
207.599	75.77
207.818	36.86
208.037	22.53
208.255	28.67
208.474	71.68
208.693	12.29
208.911	4.1
209.13	69.63
209.349	45.06
209.567	32.77
209.786	32.77
210.005	24.58
210.223	47.1
210.442	14.34
210.661	73.73
210.879	34.82
211.098	2.05
211.316	71.68
211.535	57.34
211.753	61.44
211.972	53.25
212.191	28.67
212.409	20.48
212.628	55.3
212.846	36.86
213.065	114.69
213.283	30.72
213.502	59.39
213.72	57.34
213.938	38.91
214.157	-18.43
214.375	90.11
214.594	12.29
214.812	114.69
215.031	45.06
215.249	40.96
215.467	14.34
215.686	22.53
215.904	12.29
216.122	-16.38
216.341	114.69
216.559	22.53
216.778	75.77
216.996	112.64
217.214	34.82
217.432	-59.39
217.651	63.49
217.869	26.62
218.087	83.97
218.306	-2.05
218.524	14.34
218.742	-22.53
218.96	86.01
219.179	55.3
219.397	0
219.615	63.49
219.833	20.48
220.051	16.38
220.27	92.16
220.488	26.62
220.706	8.19
220.924	6.14
221.142	45.06
221.36	40.96
221.578	0
221.796	-4.1
222.015	24.58
222.233	120.83
222.451	120.83
222.669	28.67
222.887	47.1
223.105	0
223.323	-4.1
223.541	53.25
223.759	61.44
223.977	45.06
224.195	40.96
224.413	57.34
224.631	8.19
224.849	63.49
225.067	92.16
225.285	14.34
225.503	-53.25
225.721	-73.73
225.939	12.29
226.157	34.82
226.375	172.03
226.592	-49.15
226.81	24.58
227.028	38.91
227.246	98.3
227.464	75.77
227.682	65.54
227.9	59.39
228.117	40.96
228.335	59.39
228.553	38.91
228.771	2.05
228.989	69.63
229.206	38.91
229.424	20.48
229.642	-26.62
229.86	-10.24
230.077	69.63
230.295	53.25
230.513	49.15
230.731	69.63
230.948	126.97
231.166	94.21
231.384	45.06
231.601	14.34
231.819	96.25
232.037	-10.24
232.254	28.67
232.472	65.54
232.689	30.72
232.907	96.25
233.125	22.53
233.342	34.82
233.56	-16.38
233.777	59.39
233.995	-49.15
234.213	43.01
234.43	34.82
234.648	34.82
234.865	6.14
235.083	43.01
235.3	49.15
235.518	12.29
235.735	108.54
235.953	63.49
236.17	53.25
236.388	47.1
236.605	104.45
236.822	118.78
237.04	51.2
237.257	73.73
237.475	43.01
237.692	55.3
237.909	59.39
238.127	-14.34
238.344	55.3
238.562	55.3
238.779	-14.34
238.996	-32.77
239.214	26.62
239.431	90.11
239.648	83.97
239.865	43.01
240.083	65.54
240.3	73.73
240.517	24.58
240.735	51.2
240.952	135.17
241.169	126.97
241.386	38.91
241.603	-2.05
241.821	34.82
242.038	122.88
242.255	0
242.472	43.01
242.689	49.15
242.907	77.82
243.124	-4.1
243.341	40.96
243.558	-8.19
243.775	-16.38
243.992	-12.29
244.209	40.96
244.426	73.73
244.643	75.77
244.86	49.15
245.078	69.63
245.295	32.77
245.512	34.82
245.729	-32.77
245.946	53.25
246.163	49.15
246.38	86.01
246.597	10.24
246.814	102.4
247.031	40.96
247.248	79.87
247.464	77.82
247.681	57.34
247.898	90.11
248.115	28.67
248.332	-28.67
248.549	81.92
248.766	88.06
248.983	65.54
249.2	51.2
249.417	110.59
249.633	28.67
249.85	18.43
250.067	4.1
250.284	69.63
250.501	57.34
250.717	147.45
250.934	32.77
251.151	65.54
251.368	43.01
251.585	63.49
251.801	45.06
252.018	12.29
252.235	75.77
252.451	34.82
252.668	38.91
252.885	40.96
253.102	47.1
253.318	28.67
253.535	0
253.752	92.16
253.968	-26.62
254.185	-24.58
254.401	55.3
254.618	24.58
254.835	-12.29
255.051	139.26
255.268	32.77
255.484	40.96
255.701	14.34
255.917	55.3
256.134	4.1
256.351	47.1
256.567	8.19
256.784	49.15
257	8.19
257.217	69.63
257.433	90.11
257.65	94.21
257.866	32.77
258.082	-22.53
258.299	-26.62
258.515	135.17
258.732	55.3
258.948	20.48
259.165	69.63
259.381	16.38
259.597	192.51
259.814	49.15
260.03	-24.58
260.246	69.63
260.463	69.63
260.679	90.11
260.895	40.96
261.112	57.34
261.328	57.34
261.544	-12.29
261.761	116.73
261.977	-6.14
262.193	57.34
262.409	71.68
262.626	28.67
262.842	4.1
263.058	36.86
263.274	88.06
263.49	94.21
263.707	71.68
263.923	100.35
264.139	10.24
264.355	30.72
264.571	49.15
264.787	38.91
265.004	36.86
265.22	32.77
265.436	28.67
265.652	90.11
265.868	53.25
266.084	-8.19
266.3	20.48
266.516	-18.43
266.732	96.25
266.948	65.54
267.164	12.29
267.38	47.1
267.596	61.44
267.812	184.32
268.028	2.05
268.244	43.01
268.46	77.82
268.676	110.59
268.892	102.4
269.108	-6.14
269.324	-24.58
269.54	0
269.756	75.77
269.972	36.86
270.188	18.43
270.403	-43.01
270.619	83.97
270.835	47.1
271.051	-16.38
271.267	92.16
271.483	92.16
271.698	36.86
271.914	65.54
272.13	63.49
272.346	49.15
272.562	20.48
272.777	61.44
272.993	32.77
273.209	43.01
273.425	28.67
273.64	63.49
273.856	81.92
274.072	63.49
274.287	6.14
274.503	69.63
274.719	49.15
274.934	45.06
275.15	-61.44
275.366	86.01
275.581	-47.1
275.797	30.72
276.012	90.11
276.228	34.82
276.444	49.15
276.659	100.35
276.875	75.77
277.09	0
277.306	65.54
277.521	51.2
277.737	-6.14
277.952	49.15
278.168	59.39
278.383	61.44
278.599	53.25
278.814	38.91
279.03	96.25
279.245	49.15
279.461	-22.53
279.676	-12.29
279.892	16.38
280.107	-4.1
280.322	-12.29
280.538	69.63
280.753	-8.19
280.969	61.44
281.184	14.34
281.399	124.93
281.615	-22.53
281.83	49.15
282.045	24.58
282.26	0
282.476	86.01
282.691	137.21
282.906	102.4
283.122	77.82
283.337	26.62
283.552	20.48
283.767	-4.1
283.983	77.82
284.198	4.1
284.413	59.39
284.628	-24.58
284.843	8.19
285.058	77.82
285.274	-30.72
285.489	-16.38
285.704	108.54
285.919	-4.1
286.134	77.82
286.349	-2.05
286.564	8.19
286.779	108.54
286.995	110.59
287.21	77.82
287.425	102.4
287.64	8.19
287.855	12.29
288.07	-63.49
288.285	57.34
288.5	79.87
288.715	4.1
288.93	12.29
289.145	24.58
289.36	92.16
289.575	-38.91
289.79	-4.1
290.004	47.1
290.219	100.35
290.434	-34.82
290.649	122.88
290.864	36.86
291.079	63.49
291.294	47.1
291.509	102.4
291.724	-69.63
291.938	-36.86
292.153	96.25
292.368	24.58
292.583	-6.14
292.798	120.83
293.012	-8.19
293.227	57.34
293.442	-10.24
293.657	98.3
293.871	63.49
294.086	40.96
294.301	69.63
294.516	71.68
294.73	67.58
294.945	47.1
295.16	55.3
295.374	65.54
295.589	69.63
295.804	83.97
296.018	43.01
296.233	114.69
296.447	16.38
296.662	-16.38
296.877	104.45
297.091	-10.24
297.306	49.15
297.52	69.63
297.735	6.14
297.949	0
298.164	55.3
298.378	49.15
298.593	-4.1
298.807	16.38
299.022	30.72
299.236	55.3
299.451	65.54
299.665	4.1
299.88	57.34
300.094	79.87
300.309	61.44
300.523	10.24
300.737	36.86
300.952	69.63
301.166	106.49
301.381	26.62
301.595	-81.92
301.809	69.63
302.024	53.25
302.238	-55.3
302.452	110.59
302.667	-12.29
302.881	104.45
303.095	104.45
303.309	120.83
303.524	4.1
303.738	61.44
303.952	-32.77
304.166	-16.38
304.381	-53.25
304.595	98.3
304.809	14.34
305.023	43.01
305.237	-28.67
305.452	-47.1
305.666	67.58
305.88	112.64
306.094	88.06
306.308	73.73
306.522	129.02
306.736	83.97
306.95	104.45
307.164	22.53
307.379	118.78
307.593	86.01
307.807	61.44
308.021	126.97
308.235	59.39
308.449	-26.62
308.663	53.25
308.877	135.17
309.091	61.44
309.305	43.01
309.519	-14.34
309.733	69.63
309.947	30.72
310.161	96.25
310.374	47.1
310.588	96.25
310.802	26.62
311.016	32.77
311.23	96.25
311.444	8.19
311.658	83.97
311.872	45.06
312.085	116.73
312.299	36.86
312.513	139.26
312.727	88.06
312.941	30.72
313.154	45.06
313.368	10.24
313.582	104.45
313.796	122.88
314.009	114.69
314.223	90.11
314.437	112.64
314.651	-4.1
314.864	-10.24
315.078	10.24
315.292	-24.58
315.505	34.82
315.719	71.68
315.933	47.1
316.146	-12.29
316.36	-59.39
316.573	34.82
316.787	69.63
317.001	24.58
317.214	36.86
317.428	24.58
317.641	-26.62
317.855	24.58
318.068	81.92
318.282	30.72
318.495	57.34
318.709	38.91
318.922	-4.1
319.136	94.21
319.349	45.06
319.563	14.34
319.776	61.44
319.99	-20.48
320.203	77.82
320.417	73.73
320.63	34.82
320.843	169.98
321.057	18.43
321.27	47.1
321.483	86.01
321.697	77.82
321.91	71.68
322.124	110.59
322.337	-24.58
322.55	26.62
322.763	79.87
322.977	-28.67
323.19	-24.58
323.403	69.63
323.617	106.49
323.83	141.31
324.043	-51.2
324.256	18.43
324.469	-79.87
324.683	131.07
324.896	-10.24
325.109	86.01
325.322	-40.96
325.535	100.35
325.748	149.5
325.962	43.01
326.175	51.2
326.388	108.54
326.601	94.21
326.814	38.91
327.027	55.3
327.24	79.87
327.453	-20.48
327.666	77.82
327.879	94.21
328.092	98.3
328.305	30.72
328.518	-28.67
328.731	18.43
328.944	49.15
329.157	34.82
329.37	53.25
329.583	104.45
329.796	129.02
330.009	81.92
330.222	135.17
330.435	26.62
330.648	143.36
330.861	65.54
331.073	110.59
331.286	67.58
331.499	28.67
331.712	-8.19
331.925	63.49
332.138	55.3
332.35	112.64
332.563	14.34
332.776	86.01
332.989	8.19
333.202	-28.67
333.414	63.49
333.627	65.54
333.84	69.63
334.053	69.63
334.265	28.67
334.478	20.48
334.691	90.11
334.903	6.14
335.116	-10.24
335.329	20.48
335.541	71.68
335.754	110.59
335.966	-12.29
336.179	77.82
336.392	36.86
336.604	24.58
336.817	71.68
337.029	43.01
337.242	32.77
337.454	77.82
337.667	79.87
337.88	126.97
338.092	-14.34
338.305	61.44
338.517	-26.62
338.729	116.73
338.942	124.93
339.154	-12.29
339.367	51.2
339.579	36.86
339.792	20.48
340.004	106.49
340.217	49.15
340.429	67.58
340.641	77.82
340.854	14.34
341.066	45.06
341.278	49.15
341.491	143.36
341.703	53.25
341.915	67.58
342.128	65.54
342.34	65.54
342.552	71.68
342.764	63.49
342.977	118.78
343.189	55.3
343.401	118.78
343.613	-57.34
343.826	53.25
344.038	-2.05
344.25	47.1
344.462	-14.34
344.674	61.44
344.886	65.54
345.099	104.45
345.311	75.77
345.523	100.35
345.735	-2.05
345.947	45.06
346.159	92.16
346.371	22.53
346.583	57.34
346.795	73.73
347.007	65.54
347.219	75.77
347.431	75.77
347.643	81.92
347.855	94.21
348.067	139.26
348.279	-40.96
348.491	69.63
348.703	77.82
348.915	-28.67
349.127	49.15
349.339	73.73
349.551	69.63
349.763	96.25
349.975	77.82
350.187	79.87
350.399	163.84
350.61	28.67
350.822	45.06
351.034	135.17
351.246	159.74
351.458	147.45
351.669	61.44
351.881	98.3
352.093	143.36
352.305	38.91
352.517	88.06
352.728	174.08
352.94	129.02
353.152	57.34
353.363	49.15
353.575	108.54
353.787	106.49
353.999	26.62
354.21	100.35
354.422	36.86
354.633	8.19
354.845	141.31
355.057	67.58
355.268	57.34
355.48	106.49
355.692	12.29
355.903	24.58
356.115	-67.58
356.326	-49.15
356.538	114.69
356.749	88.06
356.961	153.6
357.172	-26.62
357.384	98.3
357.595	118.78
357.807	-4.1
358.018	55.3
358.23	53.25
358.441	69.63
358.653	120.83
358.864	-10.24
359.075	14.34
359.287	79.87
359.498	88.06
359.709	96.25
359.921	63.49
360.132	59.39
360.344	24.58
360.555	51.2
360.766	83.97
360.977	-14.34
361.189	81.92
361.4	108.54
361.611	163.84
361.823	67.58
362.034	43.01
362.245	47.1
362.456	34.82
362.667	34.82
362.879	16.38
363.09	69.63
363.301	4.1
363.512	28.67
363.723	-12.29
363.935	69.63
364.146	32.77
364.357	86.01
364.568	86.01
364.779	53.25
364.99	131.07
365.201	36.86
365.412	118.78
365.623	-47.1
365.834	77.82
366.045	47.1
366.256	30.72
366.467	102.4
366.678	88.06
366.889	79.87
367.1	43.01
367.311	92.16
367.522	4.1
367.733	65.54
367.944	55.3
368.155	36.86
368.366	86.01
368.577	188.41
368.788	100.35
368.999	75.77
369.209	51.2
369.42	116.73
369.631	100.35
369.842	86.01
370.053	45.06
370.264	98.3
370.474	8.19
370.685	0
370.896	-4.1
371.107	126.97
371.317	163.84
371.528	24.58
371.739	88.06
371.95	120.83
372.16	100.35
372.371	53.25
372.582	36.86
372.792	69.63
373.003	122.88
373.214	104.45
373.424	126.97
373.635	77.82
373.846	90.11
374.056	55.3
374.267	118.78
374.477	63.49
374.688	49.15
374.898	34.82
375.109	79.87
375.319	69.63
375.53	194.56
375.74	110.59
375.951	36.86
376.161	71.68
376.372	61.44
376.582	0
376.793	73.73
377.003	34.82
377.214	45.06
377.424	163.84
377.635	-22.53
377.845	-8.19
378.055	83.97
378.266	40.96
378.476	12.29
378.686	96.25
378.897	43.01
379.107	6.14
379.317	75.77
379.528	65.54
379.738	112.64
379.948	32.77
380.158	116.73
380.369	61.44
380.579	59.39
380.789	69.63
380.999	77.82
381.21	114.69
381.42	131.07
381.63	53.25
381.84	45.06
382.05	98.3
382.261	141.31
382.471	26.62
382.681	36.86
382.891	61.44
383.101	30.72
383.311	43.01
383.521	-20.48
383.731	133.12
383.941	118.78
384.151	94.21
384.361	53.25
384.571	24.58
384.781	38.91
384.991	141.31
385.201	180.22
385.411	32.77
385.621	96.25
385.831	90.11
386.041	49.15
386.251	86.01
386.461	49.15
386.671	167.93
386.881	114.69
387.091	32.77
387.301	110.59
387.511	126.97
387.72	122.88
387.93	120.83
388.14	92.16
388.35	131.07
388.56	61.44
388.769	10.24
388.979	81.92
389.189	83.97
389.399	77.82
389.609	149.5
389.818	104.45
390.028	47.1
390.238	102.4
390.447	94.21
390.657	49.15
390.867	73.73
391.076	-4.1
391.286	126.97
391.496	71.68
391.705	47.1
391.915	159.74
392.125	118.78
392.334	151.55
392.544	178.17
392.753	104.45
392.963	26.62
393.172	163.84
393.382	69.63
393.591	131.07
393.801	100.35
394.01	190.46
394.22	126.97
394.429	90.11
394.639	32.77
394.848	38.91
395.058	77.82
395.267	18.43
395.477	90.11
395.686	149.5
395.895	98.3
396.105	202.75
396.314	69.63
396.524	131.07
396.733	124.93
396.942	225.28
397.152	147.45
397.361	122.88
397.57	147.45
397.78	67.58
397.989	186.37
398.198	172.03
398.407	96.25
398.617	194.56
398.826	135.17
399.035	96.25
399.244	176.13
399.453	186.37
399.663	116.73
399.872	178.17
400.081	98.3
400.29	241.66
400.499	151.55
400.708	141.31
400.917	167.93
401.127	122.88
401.336	126.97
401.545	202.75
401.754	131.07
401.963	167.93
402.172	153.6
402.381	110.59
402.59	169.98
402.799	206.84
403.008	210.94
403.217	155.65
403.426	114.69
403.635	151.55
403.844	176.13
404.053	176.13
404.262	110.59
404.471	268.28
404.68	239.61
404.888	206.84
405.097	126.97
405.306	145.41
405.515	256
405.724	167.93
405.933	223.23
406.142	151.55
406.35	253.95
406.559	212.99
406.768	145.41
406.977	233.47
407.185	243.71
407.394	204.8
407.603	204.8
407.812	280.57
408.02	315.39
408.229	301.05
408.438	256
408.646	217.08
408.855	299
409.064	282.62
409.272	309.24
409.481	356.35
409.69	333.82
409.898	286.72
410.107	366.59
410.315	428.03
410.524	362.49
410.733	423.93
410.941	368.63
411.15	446.46
411.358	495.61
411.567	546.81
411.775	536.57
411.984	540.66
412.192	624.63
412.401	520.18
412.609	573.43
412.818	581.62
413.026	663.54
413.234	706.55
413.443	641.01
413.651	724.98
413.86	675.83
414.068	692.21
414.276	749.56
414.485	727.03
414.693	808.95
414.901	856.05
415.11	813.04
415.318	841.72
415.526	935.92
415.734	950.26
415.943	923.63
416.151	1030.13
416.359	1015.79
416.567	1019.89
416.776	1089.52
416.984	1263.6
417.192	1241.07
417.4	1060.85
417.608	1142.77
417.817	1277.93
418.025	1411.05
418.233	1388.52
418.441	1363.95
418.649	1476.59
418.857	1460.2
419.065	1699.81
419.273	1484.78
419.481	1621.99
419.689	1708.01
419.897	1855.46
420.105	1937.38
420.313	1863.65
420.521	1918.95
420.729	2021.35
420.937	1998.82
421.145	2074.59
421.353	2277.34
421.561	2277.34
421.769	2306.01
421.977	2447.32
422.185	2445.27
422.393	2609.11
422.601	2734.04
422.809	2783.19
423.017	2777.05
423.224	2830.29
423.432	3117.01
423.64	3121.1
423.848	3233.74
424.056	3282.89
424.263	3616.71
424.471	3368.91
424.679	3592.14
424.887	3819.46
425.094	3854.28
425.302	3751.88
425.51	3913.67
425.718	4167.62
425.925	4165.57
426.133	4366.27
426.341	4388.8
426.548	4763.58
426.756	4837.3
426.964	4870.07
427.171	5283.76
427.379	5142.45
427.586	5375.92
427.794	5423.02
428.001	5687.21
428.209	5904.29
428.417	5873.57
428.624	6205.35
428.832	6303.65
429.039	6303.65
429.247	6426.53
429.454	6961.05
429.662	7425.93
429.869	6938.52
430.076	7260.05
430.284	7112.6
430.491	7460.75
430.699	7905.16
430.906	7677.83
431.114	7825.29
431.321	8396.67
431.528	8263.55
431.736	8871.8
431.943	9410.42
432.15	8976.25
432.358	9361.27
432.565	9854.83
432.772	9736.04
432.979	10307.43
433.187	10487.65
433.394	10293.09
433.601	11229.01
433.808	11237.2
434.016	11032.41
434.223	11462.48
434.43	12078.92
434.637	12011.34
434.844	12846.91
435.052	13250.36
435.259	12975.93
435.466	13086.52
435.673	12990.27
435.88	13938.48
436.087	14700.32
436.294	14309.16
436.501	14303.01
436.708	14366.5
436.915	14888.73
437.122	15900.43
437.329	15314.71
437.537	16168.71
437.743	16662.27
437.95	16285.45
438.157	17188.6
438.364	17520.37
438.571	17682.16
438.778	17755.89
438.985	19424.98
439.192	18632.42
439.399	19152.6
439.606	18872.03
439.813	19984.08
440.02	21006.02
440.227	20889.28
440.433	20672.2
440.64	21145.28
440.847	21120.7
441.054	21892.79
441.261	22845.09
441.467	22859.43
441.674	23115.42
441.881	24049.3
442.088	23821.97
442.294	23772.82
442.501	24542.86
442.708	25032.32
442.914	25980.53
443.121	26836.58
443.328	26410.6
443.534	28280.4
443.741	27178.59
443.948	26934.88
444.154	29232.71
444.361	28937.8
444.568	29036.1
444.774	29177.41
444.981	29191.75
445.187	30246.45
445.394	31514.14
445.6	30834.22
445.807	34008.57
446.013	32906.76
446.22	32937.48
446.426	34592.24
446.633	35098.09
446.839	36068.83
447.046	34498.03
447.252	36543.95
447.459	36550.1
447.665	36500.95
447.871	37940.67
448.078	39452.07
448.284	37744.06
448.491	38942.13
448.697	40629.65
448.903	40873.36
449.11	40844.69
449.316	40734.1
449.522	41495.94
449.728	42358.14
449.935	42673.52
450.141	42542.45
450.347	43799.91
450.553	42069.37
450.76	42671.48
450.966	43937.12
451.172	43881.83
451.378	44713.3
451.584	43650.41
451.791	44850.52
451.997	45116.75
452.203	45681.99
452.409	45768.01
452.615	45243.73
452.821	43865.44
453.027	43472.23
453.233	45329.74
453.44	44053.86
453.646	44432.73
453.852	44440.92
454.058	45692.23
454.264	43828.58
454.47	44934.48
454.676	43679.08
454.882	44799.32
455.088	41315.72
455.294	42120.57
455.5	42743.16
455.705	43142.51
455.911	41526.66
456.117	40555.93
456.323	40101.28
456.529	37815.74
456.735	39919.01
456.941	38530.48
457.147	38235.58
457.352	36922.83
457.558	36365.78
457.764	36810.19
457.97	36056.54
458.176	35038.7
458.381	35149.29
458.587	33689.09
458.793	33377.79
458.999	31850.01
459.204	33963.51
459.41	32980.49
459.616	30666.28
459.821	30922.28
460.027	30654
460.233	30447.15
460.438	28780.1
460.644	28911.17
460.85	27760.22
461.055	27557.47
461.261	27180.64
461.466	25241.21
461.672	24530.57
461.878	25939.57
462.083	24450.7
462.289	23897.75
462.494	23686.81
462.7	22517.42
462.905	22054.58
463.111	22890.15
463.316	22703.78
463.522	22283.95
463.727	22519.46
463.932	22431.4
464.138	22503.08
464.343	22505.13
464.549	21636.79
464.754	22154.93
464.959	22167.21
465.165	22085.29
465.37	21151.42
465.575	20309.71
465.781	21360.31
465.986	21651.13
466.191	20719.3
466.397	20127.44
466.602	19424.98
466.807	19945.17
467.012	20149.96
467.218	19691.22
467.423	19498.71
467.628	19752.66
467.833	20410.06
468.038	19947.22
468.244	19427.03
468.449	19992.27
468.654	19416.79
468.859	19320.54
469.064	19150.56
469.269	18384.62
469.474	18532.07
469.679	19033.82
469.885	18292.46
470.09	18679.52
470.295	18312.94
470.5	18298.6
470.705	18296.55
470.91	17827.57
471.115	17372.92
471.32	17764.08
471.525	17688.31
471.73	17542.9
471.935	17229.56
472.139	16314.12
472.344	16924.41
472.549	16602.88
472.754	16873.21
472.959	16277.26
473.164	15996.68
473.369	15867.66
473.574	16377.61
473.778	16187.15
473.983	15877.9
474.188	15908.62
474.393	15413.01
474.598	15173.4
474.802	15075.1
475.007	14909.21
475.212	15087.39
475.417	14626.59
475.621	14249.77
475.826	14536.48
476.031	14044.97
476.235	14143.27
476.44	14083.88
476.645	13848.36
476.849	13807.41
477.054	13627.18
477.259	13504.31
477.463	13426.48
477.668	13291.32
477.872	13330.23
478.077	13203.25
478.282	12795.71
478.486	12771.13
478.691	12449.6
478.895	12662.59
479.1	12465.99
479.304	12500.8
479.509	11997
479.713	12373.83
479.918	12007.24
480.122	11808.59
480.326	12113.74
480.531	12091.21
480.735	11874.12
480.94	11870.03
481.144	12195.65
481.348	11802.44
481.553	11910.99
481.757	11556.69
481.961	11790.16
482.166	11800.4
482.37	11519.82
482.574	11661.13
482.778	11349.84
482.983	11661.13
483.187	11671.37
483.391	11720.53
483.595	11624.27
483.8	11528.02
484.004	11679.57
484.208	11798.35
484.412	11712.33
484.616	11695.95
484.821	11405.14
485.025	11380.56
485.229	11611.98
485.433	11372.37
485.637	11702.09
485.841	11591.5
486.045	11251.54
486.249	11566.93
486.453	11360.08
486.657	11622.22
486.861	11345.75
487.065	11417.43
487.269	11493.2
487.473	11298.64
487.677	11351.89
487.881	11462.48
488.085	11616.08
488.289	11501.39
488.493	11444.05
488.697	11687.76
488.901	11685.71
489.105	11536.21
489.309	11761.48
489.512	11751.24
489.716	11661.13
489.92	11456.34
490.124	11638.61
490.328	11818.83
490.531	11714.38
490.735	11980.62
490.939	11738.96
491.143	11736.91
491.346	11741
491.55	12037.96
491.754	12058.44
491.958	11994.95
492.161	12152.65
492.365	12185.41
492.569	12300.1
492.772	12205.89
492.976	12224.33
493.18	12484.42
493.383	12500.8
493.587	12654.4
493.79	12822.33
493.994	12447.55
494.197	12734.27
494.401	12805.95
494.605	12719.93
494.808	13055.8
495.012	13201.21
495.215	13164.34
495.419	13317.94
495.622	13162.3
495.825	13381.43
496.029	13281.08
496.232	13662
496.436	13449.01
496.639	13975.34
496.843	13805.36
497.046	13993.77
497.249	14241.57
497.453	14165.8
497.656	14456.61
497.859	14780.19
498.063	14604.07
498.266	14964.51
498.469	14860.06
498.673	15210.26
498.876	15240.98
499.079	15283.99
499.282	15445.78
499.485	15765.26
499.689	15771.41
499.892	15976.2
500.095	16213.77
500.298	16531.2
500.501	16267.02
500.705	16797.44
500.908	17067.77
501.111	17116.92
501.314	17155.83
501.517	17260.28
501.72	17657.59
501.923	17639.15
502.126	18009.84
502.329	18425.57
502.532	18499.3
502.735	18308.84
502.938	19275.48
503.141	18927.33
503.344	19171.04
503.547	19130.08
503.75	19922.64
503.953	19883.73
504.156	19611.35
504.359	19920.59
504.562	20152.01
504.765	20414.15
504.968	20805.31
505.17	21229.24
505.373	21135.04
505.576	21657.27
505.779	21606.07
505.982	21761.72
506.185	22519.46
506.387	22257.32
506.59	22726.31
506.793	23092.9
506.996	22982.31
507.198	23410.33
507.401	23365.28
507.604	23821.97
507.807	24153.74
508.009	24268.43
508.212	24620.68
508.415	25011.84
508.617	24792.71
508.82	25124.48
509.022	25017.99
509.225	25771.64
509.428	26220.14
509.63	26078.83
509.833	26308.21
510.035	26986.08
510.238	26703.46
510.44	27188.83
510.643	27385.44
510.845	27879
511.048	27596.38
511.25	27983.44
511.453	28290.64
511.655	28894.79
511.858	28640.84
512.06	29343.3
512.262	29464.13
512.465	29140.55
512.667	29683.26
512.87	30135.86
513.072	30033.46
513.274	30799.4
513.477	31026.73
513.679	31149.6
513.881	31671.84
514.084	31905.31
514.286	31960.6
514.488	31974.94
514.69	32835.08
514.893	32908.81
515.095	33308.16
515.297	33553.92
515.499	33492.48
515.701	33586.69
515.904	34467.31
516.106	34739.69
516.308	34975.21
516.51	35053.03
516.712	35450.34
516.914	35888.6
517.116	36271.57
517.318	36169.18
517.52	36726.22
517.722	36695.5
517.925	37195.21
518.127	37512.64
518.329	37985.72
518.531	37918.14
518.733	38751.66
518.935	38829.49
519.136	38632.88
519.338	39503.27
519.54	39749.03
519.742	39808.42
519.944	40224.15
520.146	41004.43
520.348	40629.65
520.55	40994.19
520.752	41383.3
520.954	41901.44
521.155	41858.43
521.357	42108.29
521.559	42442.1
521.761	43007.34
521.963	43203.95
522.164	42823.03
522.366	43548.01
522.568	43967.84
522.77	44051.81
522.971	44539.22
523.173	44494.17
523.375	44967.25
523.576	44850.52
523.778	44696.92
523.98	45636.94
524.181	45856.07
524.383	46292.29
524.584	46456.12
524.786	46669.11
524.988	46255.42
525.189	46830.9
525.391	47549.74
525.592	47443.24
525.794	47424.81
525.995	47406.38
526.197	47803.69
526.398	48012.58
526.6	47996.2
526.801	48362.78
527.003	48645.4
527.204	48721.18
527.406	48940.31
527.607	49243.41
527.808	49136.91
528.01	48665.88
528.211	49351.95
528.412	50081.03
528.614	49861.9
528.815	50003.21
529.016	50590.97
529.218	49919.24
529.419	50400.51
529.62	50396.42
529.822	50181.38
530.023	50388.22
530.224	50595.07
530.425	50734.33
530.626	50586.88
530.828	49962.25
531.029	51756.27
531.23	51209.46
531.431	50883.83
531.632	51004.66
531.833	51150.07
532.035	51422.45
532.236	51252.47
532.437	51399.92
532.638	51369.2
532.839	51289.33
533.04	51676.4
533.241	51387.63
533.442	51924.2
533.643	51436.78
533.844	51723.5
534.045	52249.83
534.246	51522.8
534.447	51696.88
534.648	51492.08
534.849	51725.55
535.05	51297.52
535.251	51639.53
535.451	51680.49
535.652	51791.08
535.853	51870.95
536.054	51909.86
536.255	51836.14
536.456	51655.92
536.657	51922.15
536.857	52092.13
537.058	51361.01
537.259	52452.58
537.46	51928.3
537.66	51694.83
537.861	52458.72
538.062	51700.97
538.263	52401.38
538.463	51619.05
538.664	51727.59
538.865	51803.37
539.065	52083.94
539.266	51528.94
539.466	52421.86
539.667	51381.49
539.868	52303.07
540.068	51997.93
540.269	51688.68
540.469	52092.13
540.67	51539.18
540.87	51694.83
541.071	51645.68
541.271	52468.96
541.472	51905.77
541.672	51770.6
541.873	51588.33
542.073	51154.16
542.274	52225.25
542.474	52059.37
542.675	51207.41
542.875	51916.01
543.075	51551.47
543.276	51332.34
543.476	51920.1
543.676	51584.24
543.877	51846.38
544.077	51721.45
544.277	51246.32
544.478	51459.31
544.678	51729.64
544.878	51342.58
545.078	51393.78
545.279	51346.67
545.479	51381.49
545.679	51514.61
545.879	51821.8
546.079	51522.8
546.28	51406.06
546.48	51326.19
546.68	52057.32
546.88	51563.76
547.08	51295.47
547.28	51461.36
547.48	50902.26
547.68	51358.96
547.88	51346.67
548.081	51584.24
548.281	51356.91
548.481	51115.25
548.681	51299.57
548.881	51150.07
549.081	51035.38
549.28	50885.88
549.48	51213.55
549.68	51559.66
549.88	51799.27
550.08	50803.96
550.28	51473.65
550.48	50832.63
550.68	51328.24
550.88	51012.85
551.08	50685.18
551.279	51383.54
551.479	50464
551.679	50945.27
551.879	51170.55
552.079	51119.35
552.278	50529.53
552.478	51387.63
552.678	51201.27
552.878	51021.05
553.077	50633.98
553.277	50392.32
553.477	51346.67
553.676	50392.32
553.876	50566.4
554.076	50906.36
554.275	50418.94
554.475	49999.11
554.674	50781.43
554.874	50689.27
555.074	50009.35
555.273	50652.41
555.473	50513.15
555.672	50203.91
555.872	50359.55
556.071	50767.1
556.271	50621.69
556.47	50070.79
556.67	50109.7
556.869	50062.6
557.068	50162.95
557.268	49706.25
557.467	49845.51
557.667	49990.92
557.866	49689.87
558.065	49988.87
558.265	49714.44
558.464	49308.94
558.663	49618.19
558.863	49083.67
559.062	49929.48
559.261	49399.05
559.461	49437.97
559.66	49134.87
559.859	49128.72
560.058	49116.43
560.258	49147.15
560.457	48489.76
560.656	48985.36
560.855	48737.56
561.054	48637.21
561.253	48041.25
561.453	48565.53
561.652	48319.77
561.851	48780.57
562.05	48305.44
562.249	48209.18
562.448	48254.24
562.647	48545.05
562.846	48459.04
563.045	48452.89
563.244	47621.42
563.443	48186.66
563.642	47375.66
563.841	47762.73
564.04	47613.23
564.239	47510.83
564.438	47316.27
564.637	47586.6
564.836	47449.39
565.035	46525.75
565.234	47066.42
565.432	46742.84
565.631	46632.25
565.83	47324.46
566.029	46607.67
566.228	46816.57
566.427	46468.41
566.625	46204.22
566.824	46069.06
567.023	46327.1
567.222	45571.4
567.42	46564.67
567.619	46165.31
567.818	45968.71
568.016	45847.88
568.215	46058.82
568.414	45575.5
568.612	46050.63
568.811	45229.39
569.01	45583.69
569.208	45034.83
569.407	45182.29
569.605	44739.93
569.804	45131.09
570.002	44385.63
570.201	44737.88
570.4	44275.04
570.598	44453.21
570.797	44256.6
570.995	44594.52
571.193	43455.85
571.392	44496.22
571.59	43904.35
571.789	43709.8
571.987	43849.06
572.186	43900.26
572.384	43687.27
572.582	43421.03
572.781	43687.27
572.979	43326.83
573.177	43185.52
573.376	43439.47
573.574	42968.43
573.772	43193.71
573.971	42902.9
574.169	42538.36
574.367	42644.85
574.565	42554.74
574.763	42497.4
574.962	42298.75
575.16	41645.44
575.358	42210.68
575.556	41551.24
575.754	42505.59
575.952	41868.67
576.151	42096
576.349	41643.4
576.547	41870.72
576.745	41780.61
576.943	41430.41
577.141	41387.4
577.339	41489.8
577.537	40916.37
577.735	40936.85
577.933	40476.05
578.131	40578.45
578.329	40639.89
578.527	40267.16
578.725	40349.08
578.923	40109.47
579.121	40347.03
579.319	40091.04
579.516	40408.47
579.714	39988.64
579.912	40275.35
580.11	40191.39
580.308	39808.42
580.506	39724.45
580.704	38983.09
580.901	39361.96
581.099	39828.9
581.297	39042.48
581.495	39165.35
581.692	39462.31
581.89	39030.19
582.088	39015.85
582.285	38919.6
582.483	39065
582.681	38571.44
582.878	38596.02
583.076	38286.78
583.274	38665.65
583.471	37778.88
583.669	38278.58
583.866	37711.3
584.064	38290.87
584.262	37535.17
584.459	37930.43
584.657	37557.7
584.854	37563.84
585.052	37262.79
585.249	37174.73
585.447	37268.94
585.644	36996.56
585.841	37287.37
586.039	37449.16
586.236	36912.59
586.434	36867.53
586.631	36113.88
586.828	36699.6
587.026	36603.35
587.223	36580.82
587.42	36388.31
587.618	36228.57
587.815	35806.69
588.012	35917.28
588.21	35722.72
588.407	36103.64
588.604	35339.75
588.801	35145.19
588.999	35517.92
589.196	35171.82
589.393	35311.08
589.59	35251.69
589.787	34891.24
589.984	34989.55
590.182	34622.96
590.379	35112.42
590.576	34776.56
590.773	34620.91
590.97	34369.01
591.167	34364.92
591.364	34096.63
591.561	34264.57
591.758	33900.03
591.955	34057.72
592.152	33553.92
592.349	33818.11
592.546	33764.86
592.743	34147.83
592.94	33394.18
593.137	33558.02
593.334	33539.58
593.531	32824.84
593.727	32845.32
593.924	33156.61
594.121	32964.11
594.318	33009.16
594.515	32656.91
594.712	33111.56
594.908	32476.69
595.105	32462.35
595.302	32173.59
595.499	32499.22
595.696	32437.78
595.892	31804.95
596.089	32499.22
596.286	31698.46
596.482	31946.26
596.679	32140.82
596.876	31784.47
597.072	31424.03
597.269	31909.4
597.466	31448.61
597.662	31387.17
597.859	31516.19
598.055	31315.49
598.252	31122.98
598.448	30987.82
598.645	31067.69
598.841	30484.01
599.038	30819.88
599.234	30703.15
599.431	30441.01
599.627	30363.18
599.824	30475.82
600.02	30211.63
600.217	30201.4
600.413	29924.92
600.609	30148.15
600.806	29957.69
601.002	30111.28
601.198	29687.35
601.395	29240.9
601.591	29648.44
601.787	29535.81
601.984	29267.52
602.18	29537.85
602.376	28939.85
602.572	28776.01
602.769	29195.84
602.965	28554.83
603.161	29292.1
603.357	28759.63
603.553	28628.56
603.75	28837.45
603.946	28311.12
604.142	28495.44
604.338	27809.37
604.534	28470.86
604.73	28120.66
604.926	28393.04
605.122	28317.26
605.318	27885.14
605.514	27819.61
605.71	27752.02
605.906	27842.14
606.102	27629.15
606.298	27489.88
606.494	27491.93
606.69	27919.96
606.886	27719.26
607.082	27350.62
607.278	27479.64
607.474	26799.72
607.67	27240.03
607.866	26621.55
608.062	27283.04
608.257	26840.68
608.453	27061.86
608.649	26961.51
608.845	26601.07
609.041	26826.34
609.236	26725.99
609.432	26467.95
609.628	26439.28
609.824	26351.21
610.019	26355.31
610.215	26304.11
610.411	26504.81
610.606	25779.83
610.802	26396.27
610.998	26160.75
611.193	26037.87
611.389	26140.27
611.584	26134.13
611.78	25536.12
611.976	25894.52
612.171	25644.66
612.367	26021.49
612.562	25644.66
612.758	25321.09
612.953	25249.41
613.149	25554.55
613.344	25470.59
613.539	25818.74
613.735	25269.89
613.93	25695.86
614.126	25212.54
614.321	25382.52
614.517	25202.3
614.712	25038.47
614.907	25040.51
615.103	25253.5
615.298	25091.71
615.493	25468.54
615.688	24637.06
615.884	25167.49
616.079	24579.72
616.274	24989.31
616.47	24817.29
616.665	24929.92
616.86	24573.58
617.055	24565.39
617.25	24663.69
617.445	24888.96
617.641	24147.6
617.836	24399.5
618.031	24143.5
618.226	24340.11
618.421	24233.61
618.616	24247.95
618.811	23738.01
619.006	24080.02
619.201	23547.54
619.396	23897.75
619.591	23412.38
619.786	23848.6
619.981	23152.29
620.176	23574.17
620.371	23123.62
620.566	23185.05
620.761	23039.65
620.956	23377.56
621.151	22830.76
621.346	22822.56
621.541	22550.18
621.735	22869.67
621.93	22372.01
622.125	22367.91
622.32	21892.79
622.515	22292.14
622.709	22286
622.904	21962.42
623.099	21812.92
623.294	21958.32
623.488	21489.34
623.683	21388.99
623.878	21024.45
624.072	21477.05
624.267	21069.5
624.462	20829.89
624.656	20874.95
624.851	20958.91
625.046	20635.33
625.24	20629.19
625.435	20262.6
625.629	20438.73
625.824	20188.88
626.018	20270.79
626.213	19816.15
626.407	19902.16
626.602	19769.04
626.796	19898.06
626.991	19691.22
627.185	19556.05
627.38	19291.87
627.574	19381.98
627.768	19310.3
627.963	19304.15
628.157	19146.46
628.352	19042.01
628.546	18644.71
628.74	19197.66
628.935	18659.04
629.129	18708.19
629.323	18226.92
629.517	18040.56
629.712	18058.99
629.906	18249.45
630.1	18011.89
630.294	18421.48
630.489	17964.78
630.683	17831.66
630.877	17628.91
631.071	17592.05
631.265	17460.98
631.459	17495.8
631.653	17422.07
631.848	17194.75
632.042	17321.72
632.236	17391.35
632.43	16944.89
632.624	17110.78
632.818	16809.73
633.012	16539.4
633.206	16531.2
633.4	16674.56
633.594	16371.46
633.788	16527.11
633.982	16330.5
634.176	16322.31
634.369	16019.21
634.563	16013.07
634.757	15759.12
634.951	15925
635.145	15935.24
635.339	15789.84
635.533	15482.64
635.726	15423.25
635.92	15357.72
636.114	15400.72
636.308	15576.85
636.501	15175.45
636.695	15189.78
636.889	14901.02
637.083	15202.07
637.276	14821.15
637.47	14921.5
637.664	14589.73
637.857	14655.26
638.051	14614.3
638.244	14651.17
638.438	14655.26
638.632	14307.11
638.825	14253.86
639.019	14145.32
639.212	14219.05
639.406	14157.61
639.599	14190.38
639.793	14130.98
639.986	13854.51
640.18	13786.93
640.373	13780.78
640.567	13748.01
640.76	13733.68
640.954	13803.31
641.147	13594.42
641.34	13209.4
641.534	13283.13
641.727	13262.65
641.92	13416.24
642.114	13111.1
642.307	13086.52
642.5	12924.73
642.694	12889.92
642.887	12736.32
643.08	12947.26
643.273	12713.79
643.467	12922.68
643.66	12408.64
643.853	12539.71
644.046	12537.66
644.239	12564.29
644.432	12416.83
644.626	12146.5
644.819	12040.01
645.012	12115.78
645.205	12158.79
645.398	12009.29
645.591	11683.66
645.784	11790.16
645.977	11798.35
646.17	11925.32
646.363	11650.89
646.556	11403.09
646.749	11687.76
646.942	11585.36
647.135	11421.52
647.328	11517.78
647.521	11407.19
647.714	11280.21
647.907	11396.95
648.099	11038.55
648.292	11198.29
648.485	10993.5
648.678	10825.56
648.871	11151.19
649.064	10927.96
649.256	11054.94
649.449	10698.59
649.642	10522.46
649.835	10772.32
650.027	10426.21
650.22	10874.71
650.413	10547.04
650.605	10536.8
650.798	10409.83
650.991	10352.48
651.183	10383.2
651.376	10153.83
651.568	10241.89
651.761	10014.57
651.954	10037.09
652.146	9928.55
652.339	9998.18
652.531	9844.59
652.724	9914.22
652.916	9631.6
653.109	9740.14
653.301	9893.74
653.494	9758.57
653.686	9500.53
653.879	9752.43
654.071	9383.79
654.263	9459.57
654.456	9494.38
654.648	9445.23
654.84	9289.59
655.033	9348.98
655.225	9297.78
655.417	8970.1
655.61	9293.68
655.802	9144.18
655.994	9191.28
656.186	9101.17
656.379	9103.22
656.571	8923
656.763	8920.95
656.955	8898.42
657.148	8763.26
657.34	8882.04
657.532	8630.14
657.724	8687.48
657.916	8513.41
658.108	8527.74
658.3	8505.21
658.492	8306.56
658.684	8390.53
658.876	8421.25
659.068	8277.89
659.26	8267.65
659.452	8384.38
659.644	8341.38
659.836	8277.89
660.028	8150.92
660.22	8021.89
660.412	8091.52
660.604	8083.33
660.796	8048.52
660.988	8155.01
661.18	7673.74
661.372	7982.98
661.563	7964.55
661.755	7821.19
661.947	7968.65
662.139	7813
662.331	7784.33
662.522	7526.29
662.714	7622.54
662.906	7733.13
663.097	7522.19
663.289	7505.81
663.481	7511.95
663.673	7448.46
663.864	7456.65
664.056	7360.4
664.247	7399.31
664.439	7395.22
664.631	7247.76
664.822	7421.84
665.014	7335.82
665.205	7270.29
665.397	7114.64
665.588	7139.22
665.78	7221.14
665.971	7247.76
666.163	7106.45
666.354	7081.88
666.546	6948.76
666.737	7047.06
666.929	6983.57
667.12	7028.63
667.311	6881.18
667.503	6698.91
667.694	6807.45
667.885	6825.88
668.077	6875.03
668.268	6850.46
668.459	6819.74
668.651	6864.79
668.842	6703
669.033	6590.36
669.224	6514.59
669.416	6729.63
669.607	6604.7
669.798	6522.78
669.989	6825.88
670.18	6631.32
670.371	6336.42
670.563	6377.37
670.754	6608.8
670.945	6391.71
671.136	6377.37
671.327	6401.95
671.518	6510.49
671.709	6492.06
671.9	6471.58
672.091	6356.9
672.282	6137.76
672.473	6334.37
672.664	6274.98
672.855	6156.19
673.046	6277.02
673.237	6344.61
673.428	6274.98
673.619	6320.03
673.809	6064.04
674	6193.06
674.191	6166.43
674.382	6162.34
674.573	6180.77
674.764	6033.32
674.954	6164.39
675.145	6033.32
675.336	6004.64
675.527	6113.19
675.717	6061.99
675.908	5961.64
676.099	6100.9
676.289	6117.28
676.48	6061.99
676.671	6045.6
676.861	5996.45
677.052	5939.11
677.243	5871.53
677.433	5941.16
677.624	5967.78
677.814	5982.12
678.005	6012.84
678.195	5975.97
678.386	5916.58
678.576	5828.52
678.767	5715.88
678.957	5842.85
679.148	6227.87
679.338	5877.67
679.529	5773.22
679.719	6051.75
679.909	5971.88
680.1	5873.57
680.29	5851.05
680.481	5910.44
680.671	5961.64
680.861	5863.33
681.052	5756.84
681.242	5910.44
681.432	5986.21
681.622	5799.85
681.813	5904.29
682.003	5871.53
682.193	5910.44
682.383	5855.14
682.573	5627.82
682.764	5926.82
682.954	5756.84
683.144	5898.15
683.334	5894.05
683.524	5803.94
683.714	5754.79
683.904	5750.7
684.094	5672.87
684.284	5547.95
684.474	5769.13
684.664	5681.07
684.854	5646.25
685.044	5535.66
685.234	5496.75
685.424	5445.55
685.614	5570.48
685.804	5719.98
685.994	5484.46
686.184	5588.91
686.374	5474.22
686.564	5619.63
686.753	5429.17
686.943	5271.47
687.133	5605.29
687.323	5353.39
687.513	5365.68
687.702	5289.9
687.892	5451.69
688.082	5087.15
688.272	5304.24
688.461	5224.37
688.651	5310.38
688.841	5081.01
689.03	5246.9
689.22	5044.15
689.41	5124.02
689.599	5068.72
689.789	5169.07
689.979	5121.97
690.168	4972.47
690.358	5003.19
690.547	4997.04
690.737	4921.27
690.926	5021.62
691.116	4904.89
691.305	4958.13
691.495	4837.3
691.684	4896.69
691.874	4665.27
692.063	4841.4
692.252	4724.66
692.442	4564.92
692.631	4704.18
692.82	4634.55
693.01	4626.36
693.199	4579.26
693.388	4644.79
693.578	4579.26
693.767	4618.17
693.956	4495.29
694.146	4622.27
694.335	4530.11
694.524	4513.72
694.713	4562.87
694.902	4427.71
695.092	4356.03
695.281	4313.02
695.47	4392.89
695.659	4399.04
695.848	4335.55
696.037	4319.17
696.226	4511.68
696.415	4417.47
696.604	4448.19
696.793	4257.73
696.982	4253.63
697.171	4536.25
697.36	4339.65
697.549	4349.89
697.738	4356.03
697.927	4132.8
698.116	4265.92
698.305	4124.61
698.494	4136.9
698.683	4231.1
698.872	4329.41
699.061	4093.89
699.25	4366.27
699.438	4083.65
699.627	4059.07
699.816	4179.9
700.005	4018.11
700.193	4280.25
700.382	4272.06
700.571	4177.86
700.76	4239.3
700.948	4290.49
701.137	4210.62
701.326	4108.23
701.514	4186.05
701.703	3997.64
701.892	3989.44
702.08	4274.11
702.269	4186.05
702.457	4011.97
702.646	4220.86
702.834	4235.2
703.023	4257.73
703.212	4120.51
703.4	3985.35
703.589	4114.37
703.777	4091.84
703.965	4057.03
704.154	4179.9
704.342	4118.47
704.531	4112.32
704.719	4075.46
704.907	4216.77
705.096	4175.81
705.284	4132.8
705.472	4169.66
705.661	4331.45
705.849	4319.17
706.037	4272.06
706.226	4151.23
706.414	4067.27
706.602	4140.99
706.79	4194.24
706.979	4083.65
707.167	4220.86
707.355	4126.66
707.543	4108.23
707.731	4024.26
707.919	4032.45
708.107	4208.58
708.296	3977.16
708.484	4067.27
708.672	4181.95
708.86	4071.36
709.048	4231.1
709.236	4134.85
709.424	4073.41
709.612	4210.62
709.8	3960.77
709.988	4227.01
710.176	4280.25
710.364	4118.47
710.551	4136.9
710.739	4153.28
710.927	4128.7
711.115	4061.12
711.303	4128.7
711.491	4210.62
711.679	4003.78
711.866	4267.97
712.054	4173.76
712.242	4171.71
712.43	4231.1
712.617	4192.19
712.805	4192.19
712.993	4235.2
713.181	4116.42
713.368	4161.47
713.556	4108.23
713.744	4231.1
713.931	4249.54
714.119	4190.14
714.306	4253.63
714.494	4196.29
714.682	4059.07
714.869	4243.39
715.057	4210.62
715.244	4227.01
715.432	4294.59
715.619	4198.34
715.807	4222.91
715.994	4345.79
716.182	4188.1
716.369	4280.25
716.556	4325.31
716.744	4134.85
716.931	4192.19
717.119	4284.35
717.306	4222.91
717.493	4259.78
717.681	4376.51
717.868	4364.22
718.055	4214.72
718.242	4356.03
718.43	4296.64
718.617	4270.01
718.804	4216.77
718.991	4241.34
719.179	4327.36
719.366	4339.65
719.553	4388.8
719.74	4407.23
719.927	4222.91
720.114	4333.5
720.301	4224.96
720.488	4325.31
720.676	4313.02
720.863	4435.9
721.05	4325.31
721.237	4370.37
721.424	4495.29
721.611	4390.85
721.798	4372.41
721.985	4343.74
722.172	4343.74
722.358	4413.37
722.545	4255.68
722.732	4345.79
722.919	4251.58
723.106	4327.36
723.293	4319.17
723.48	4263.87
723.667	4347.84
723.853	4351.93
724.04	4417.47
724.227	4470.72
724.414	4427.71
724.6	4413.37
724.787	4376.51
724.974	4407.23
725.161	4435.9
725.347	4386.75
725.534	4384.7
725.72	4448.19
725.907	4405.18
726.094	4413.37
726.28	4521.91
726.467	4433.85
726.653	4343.74
726.84	4411.32
727.027	4513.72
727.213	4423.61
727.4	4538.3
727.586	4417.47
727.773	4323.26
727.959	4448.19
728.145	4485.05
728.332	4435.9
728.518	4612.03
728.705	4534.2
728.891	4587.45
729.077	4431.8
729.264	4503.48
729.45	4501.44
729.636	4624.31
729.823	4452.28
730.009	4663.22
730.195	4429.76
730.382	4485.05
730.568	4542.39
730.754	4648.89
730.94	4550.59
731.126	4534.2
731.313	4536.25
731.499	4444.09
731.685	4538.3
731.871	4534.2
732.057	4542.39
732.243	4480.96
732.429	4429.76
732.615	4462.52
732.801	4513.72
732.987	4394.94
733.173	4403.13
733.359	4513.72
733.545	4571.07
733.731	4456.38
733.917	4460.48
734.103	4532.15
734.289	4552.63
734.475	4429.76
734.661	4396.99
734.847	4552.63
735.033	4396.99
735.219	4601.79
735.404	4306.88
735.59	4263.87
735.776	4378.56
735.962	4429.76
736.148	4558.78
736.333	4515.77
736.519	4419.52
736.705	4380.61
736.89	4544.44
737.076	4456.38
737.262	4282.3
737.447	4308.93
737.633	4347.84
737.819	4323.26
738.004	4399.04
738.19	4276.16
738.375	4323.26
738.561	4380.61
738.747	4421.56
738.932	4431.8
739.118	4374.46
739.303	4372.41
739.489	4235.2
739.674	4378.56
739.859	4296.64
740.045	4163.52
740.23	4401.08
740.416	4263.87
740.601	4243.39
740.786	4155.33
740.972	4247.49
741.157	4253.63
741.342	4192.19
741.528	4247.49
741.713	4188.1
741.898	4188.1
742.084	4194.24
742.269	4181.95
742.454	4192.19
742.639	4216.77
742.824	4007.87
743.01	4136.9
743.195	4110.27
743.38	4003.78
743.565	3911.62
743.75	4100.03
743.935	4026.31
744.12	4130.75
744.305	3897.28
744.49	4011.97
744.675	4007.87
744.86	3864.52
745.045	3934.15
745.23	3870.66
745.415	3778.5
745.6	3973.06
745.785	3854.28
745.97	3747.78
746.155	3774.41
746.34	3798.98
746.525	3667.91
746.71	3796.93
746.895	3633.1
747.079	3637.19
747.264	3676.1
747.449	3717.06
747.634	3590.09
747.819	3682.25
748.003	3547.08
748.188	3573.71
748.373	3649.48
748.557	3590.09
748.742	3651.53
748.927	3446.73
749.111	3422.16
749.296	3407.82
749.481	3299.28
749.665	3411.92
749.85	3243.98
750.034	3356.62
750.219	3432.4
750.404	3366.86
750.588	3239.89
750.773	3280.85
750.957	3321.81
751.141	3184.59
751.326	3190.74
751.51	3149.78
751.695	3059.67
751.879	3102.67
752.064	3205.07
752.248	3076.05
752.432	3008.47
752.617	2951.12
752.801	3104.72
752.985	3127.25
753.17	2967.51
753.354	2863.06
753.538	2953.17
753.722	2838.48
753.907	2824.15
754.091	2863.06
754.275	2736.09
754.459	2861.01
754.643	2863.06
754.828	2772.95
755.012	2772.95
755.196	2826.2
755.38	2668.5
755.564	2742.23
755.748	2711.51
755.932	2752.47
756.116	2674.65
756.3	2572.25
756.484	2707.41
756.668	2578.39
756.852	2584.54
757.036	2531.29
757.22	2439.13
757.404	2398.17
757.588	2467.8
757.772	2408.41
757.956	2480.09
758.14	2543.58
758.323	2385.88
758.507	2469.85
758.691	2283.49
758.875	2516.95
759.059	2332.64
759.242	2254.81
759.426	2285.53
759.61	2408.41
759.794	2176.99
759.977	2500.57
760.161	2387.93
760.345	2367.45
760.528	2265.05
760.712	2248.67
760.895	2197.47
761.079	2228.19
761.263	2127.84
761.446	2070.5
761.63	2236.38
761.813	2111.46
761.997	2117.6
762.18	2076.64
762.364	2119.65
762.547	2037.73
762.731	2117.6
762.914	2142.18
763.098	2002.91
763.281	2101.22
763.464	1970.15
763.648	2054.11
763.831	1970.15
764.015	1998.82
764.198	2009.06
764.381	1931.23
764.564	2035.68
764.748	1908.71
764.931	1920.99
765.114	1929.19
765.297	1996.77
765.481	1984.48
765.664	1935.33
765.847	1822.69
766.03	2031.59
766.213	1890.28
766.397	2037.73
766.58	1816.55
766.763	1783.78
766.946	1886.18
767.129	1783.78
767.312	1783.78
767.495	1867.75
767.678	1828.84
767.861	1740.77
768.044	1800.16
768.227	1873.89
768.41	1746.92
768.593	1773.54
768.776	1691.62
768.959	1660.9
769.142	1781.73
769.324	1726.44
769.507	1720.29
769.69	1644.52
769.873	1665
770.056	1744.87
770.239	1796.07
770.421	1708.01
770.604	1779.68
770.787	1691.62
770.97	1708.01
771.152	1617.9
771.335	1617.9
771.518	1593.32
771.7	1681.38
771.883	1728.49
772.066	1638.38
772.248	1636.33
772.431	1626.09
772.613	1554.41
772.796	1499.11
772.978	1593.32
773.161	1591.27
773.343	1503.21
773.526	1460.2
773.708	1447.91
773.891	1486.83
774.073	1542.12
774.256	1490.92
774.438	1495.02
774.621	1394.67
774.803	1484.78
774.985	1415.15
775.168	1431.53
775.35	1355.76
775.532	1366
775.715	1413.1
775.897	1421.29
776.079	1374.19
776.261	1404.91
776.444	1318.89
776.626	1312.75
776.808	1228.78
776.99	1333.23
777.173	1310.7
777.355	1273.84
777.537	1224.69
777.719	1257.45
777.901	1212.4
778.083	1282.03
778.265	1300.46
778.447	1245.17
778.629	1257.45
778.811	1226.73
778.993	1232.88
779.175	1257.45
779.357	1120.24
779.539	1048.56
779.721	1204.21
779.903	1204.21
780.085	1124.33
780.267	1198.06
780.449	1105.9
780.631	1257.45
780.812	1052.66
780.994	1054.7
781.176	1136.62
781.358	966.64
781.54	970.74
781.721	1052.66
781.903	1120.24
782.085	1038.32
782.267	1030.13
782.448	1007.6
782.63	884.72
782.812	1118.19
782.993	1066.99
783.175	989.17
783.357	1048.56
783.538	1019.89
783.72	970.74
783.901	921.59
784.083	995.31
784.264	847.86
784.446	888.82
784.627	964.59
784.809	962.55
784.99	905.2
785.172	948.21
785.353	923.63
785.535	788.47
785.716	880.63
785.897	856.05
786.079	866.29
786.26	907.25
786.441	811
786.623	802.8
786.804	806.9
786.985	804.85
787.167	798.71
787.348	864.24
787.529	815.09
787.71	870.39
787.891	700.41
788.073	792.56
788.254	722.93
788.435	835.57
788.616	811
788.797	759.8
788.978	743.41
789.159	735.22
789.34	708.6
789.522	835.57
789.703	708.6
789.884	722.93
790.065	651.25
790.246	741.36
790.427	655.35
790.607	696.31
790.788	696.31
790.969	712.69
791.15	630.77
791.331	602.1
791.512	696.31
791.693	651.25
791.874	587.77
792.054	729.08
792.235	686.07
792.416	694.26
792.597	636.92
792.778	690.17
792.958	638.97
793.139	608.25
793.32	663.54
793.5	614.39
793.681	620.53
793.862	542.71
794.042	546.81
794.223	526.33
794.404	563.19
794.584	450.55
794.765	595.96
794.945	677.88
795.126	612.34
795.306	673.78
795.487	565.24
795.667	567.29
795.848	593.91
796.028	581.62
796.209	657.4
796.389	475.13
796.57	507.9
796.75	528.38
796.93	511.99
797.111	536.57
797.291	595.96
797.471	532.47
797.652	520.18
797.832	460.79
798.012	481.27
798.192	526.33
798.373	430.07
798.553	479.22
798.733	450.55
798.913	493.56
799.093	448.51
799.274	446.46
799.454	577.53
799.634	425.98
799.814	489.46
799.994	454.65
800.174	497.66
800.354	538.62
800.534	438.27
800.714	452.6
800.894	339.96
801.074	511.99
801.254	358.39
801.434	524.28
801.614	495.61
801.794	471.03
801.974	1339.37
802.154	526.33
802.334	423.93
802.514	411.64
802.693	448.51
802.873	378.87
803.053	450.55
803.233	430.07
803.413	389.11
803.592	366.59
803.772	333.82
803.952	456.7
804.131	358.39
804.311	407.55
804.491	442.36
804.67	364.54
804.85	339.96
805.03	438.27
805.209	464.89
805.389	421.88
805.568	421.88
805.748	346.11
805.928	327.68
806.107	368.63
806.287	344.06
806.466	403.45
806.646	354.3
806.825	374.78
807.004	385.02
807.184	331.77
807.363	421.88
807.543	382.97
807.722	315.39
807.901	358.39
808.081	430.07
808.26	245.76
808.439	290.81
808.619	339.96
808.798	290.81
808.977	364.54
809.156	405.5
809.336	380.92
809.515	327.68
809.694	339.96
809.873	325.63
810.052	368.63
810.231	362.49
810.411	294.91
810.59	407.55
810.769	268.28
810.948	348.15
811.127	251.9
811.306	274.43
811.485	307.2
811.664	317.44
811.843	282.62
812.022	247.8
812.201	288.76
812.38	284.67
812.559	309.24
812.737	301.05
812.916	169.98
813.095	276.48
813.274	327.68
813.453	266.24
813.632	258.04
813.811	348.15
813.989	274.43
814.168	264.19
814.347	231.42
814.526	278.52
814.704	303.1
814.883	301.05
815.062	299
815.24	333.82
815.419	212.99
815.598	284.67
815.776	212.99
815.955	260.09
816.133	194.56
816.312	194.56
816.49	299
816.669	268.28
816.847	241.66
817.026	208.89
817.204	231.42
817.383	317.44
817.561	208.89
817.74	198.65
817.918	272.38
818.097	280.57
818.275	217.08
818.453	247.8
818.632	268.28
818.81	206.84
818.988	266.24
819.167	251.9
819.345	282.62
819.523	210.94
819.701	219.13
819.879	227.32
820.058	206.84
820.236	237.56
820.414	206.84
820.592	227.32
820.77	124.93
820.948	237.56
821.127	231.42
821.305	178.17
821.483	233.47
821.661	282.62
821.839	299
822.017	249.85
822.195	249.85
822.373	237.56
822.551	176.13
822.729	282.62
822.907	184.32
823.085	247.8
823.262	202.75
823.44	169.98
823.618	114.69
823.796	208.89
823.974	206.84
824.152	198.65
824.329	178.17
824.507	233.47
824.685	268.28
824.863	104.45
825.04	143.36
825.218	243.71
825.396	212.99
825.574	161.79
825.751	192.51
825.929	276.48
826.107	174.08
826.284	77.82
826.462	217.08
826.639	139.26
826.817	206.84
826.994	126.97
827.172	196.61
827.349	247.8
827.527	217.08
827.704	124.93
827.882	212.99
828.059	243.71
828.237	149.5
828.414	192.51
828.591	202.75
828.769	282.62
828.946	102.4
829.124	231.42
829.301	243.71
829.478	176.13
829.655	118.78
829.833	147.45
830.01	110.59
830.187	126.97
830.364	235.52
830.542	92.16
830.719	186.37
830.896	176.13
831.073	167.93
831.25	169.98
831.427	126.97
831.604	122.88
831.782	149.5
831.959	161.79
832.136	122.88
832.313	153.6
832.49	163.84
832.667	137.21
832.844	172.03
833.021	288.76
833.198	104.45
833.374	194.56
833.551	182.27
833.728	145.41
833.905	180.22
834.082	114.69
834.259	208.89
834.436	210.94
834.612	129.02
834.789	196.61
834.966	149.5
835.143	135.17
835.319	120.83
835.496	114.69
835.673	202.75
835.85	137.21
836.026	36.86
836.203	169.98
836.38	139.26
836.556	114.69
836.733	108.54
836.909	284.67
837.086	98.3
837.262	75.77
837.439	167.93
837.616	88.06
837.792	86.01
837.968	131.07
838.145	8.19
838.321	124.93
838.498	145.41
838.674	55.3
838.851	120.83
839.027	81.92
839.203	98.3
839.38	167.93
839.556	153.6
839.732	126.97
839.909	92.16
840.085	114.69
840.261	45.06
840.437	81.92
840.614	75.77
840.79	120.83
840.966	108.54
841.142	81.92
841.318	102.4
841.494	106.49
841.671	120.83
841.847	149.5
842.023	-40.96
842.199	151.55
842.375	86.01
842.551	116.73
842.727	-8.19
842.903	100.35
843.079	45.06
843.255	176.13
843.431	45.06
843.607	120.83
843.783	53.25
843.959	129.02
844.134	94.21
844.31	126.97
844.486	69.63
844.662	61.44
844.838	126.97
845.013	59.39
845.189	73.73
845.365	114.69
845.541	116.73
845.716	69.63
845.892	176.13
846.068	57.34
846.244	81.92
846.419	28.67
846.595	61.44
846.77	47.1
846.946	77.82
847.122	83.97
847.297	106.49
847.473	163.84
847.648	65.54
847.824	55.3
847.999	-26.62
848.175	2.05
848.35	67.58
848.526	172.03
848.701	110.59
848.876	143.36
849.052	77.82
849.227	36.86
849.403	47.1
849.578	16.38
849.753	124.93
849.929	53.25
850.104	79.87
850.279	49.15
850.454	59.39
850.63	32.77
850.805	122.88
850.98	96.25
851.155	51.2
851.33	104.45
851.505	57.34
851.681	137.21
851.856	59.39
852.031	45.06
852.206	79.87
852.381	53.25
852.556	86.01
852.731	71.68
852.906	110.59
853.081	83.97
853.256	229.37
853.431	92.16
853.606	63.49
853.781	94.21
853.956	18.43
854.131	2.05
854.305	24.58
854.48	47.1
854.655	-20.48
854.83	18.43
855.005	92.16
855.18	61.44
855.354	57.34
855.529	53.25
855.704	0
855.879	28.67
856.053	45.06
856.228	65.54
856.403	18.43
856.577	20.48
856.752	28.67
856.926	69.63
857.101	69.63
857.276	-18.43
857.45	96.25
857.625	135.17
857.799	32.77
857.974	45.06
858.148	-55.3
858.323	28.67
858.497	38.91
858.672	-2.05
858.846	2.05
859.02	126.97
859.195	-79.87
859.369	6.14
859.543	61.44
859.718	47.1
859.892	32.77
860.066	65.54
860.241	77.82
860.415	-2.05
860.589	4.1
860.763	-12.29
860.938	8.19
861.112	143.36
861.286	86.01
861.46	120.83
861.634	83.97
861.808	20.48
861.982	-65.53
862.157	18.43
862.331	26.62
862.505	28.67
862.679	-26.62
862.853	38.91
863.027	12.29
863.201	69.63
863.375	-24.58
863.549	77.82
863.722	12.29
863.896	55.3
864.07	32.77
864.244	22.53
864.418	49.15
864.592	28.67
864.766	20.48
864.939	4.1
865.113	-47.1
865.287	73.73
865.461	-10.24
865.634	-8.19
865.808	104.45
865.982	49.15
866.156	16.38
866.329	-16.38
866.503	61.44
866.676	49.15
866.85	-2.05
867.024	10.24
867.197	32.77
867.371	83.97
867.544	65.54
867.718	-24.58
867.891	79.87
868.065	4.1
868.238	86.01
868.412	79.87
868.585	90.11
868.759	4.1
868.932	-2.05
869.105	8.19
869.279	36.86
869.452	-20.48
869.625	38.91
869.799	-32.77
869.972	-6.14
870.145	45.06
870.319	47.1
870.492	4.1
870.665	10.24
870.838	18.43
871.011	-55.3
871.185	20.48
871.358	-53.25
871.531	67.58
871.704	-26.62
871.877	73.73
872.05	45.06
872.223	-34.82
872.396	-10.24
872.569	-20.48
872.742	34.82
872.915	36.86
873.088	10.24
873.261	10.24
873.434	6.14
873.607	2.05
873.78	112.64
873.953	12.29
874.126	-10.24
874.299	100.35
874.471	-12.29
874.644	20.48
874.817	65.54
874.99	135.17
875.163	16.38
875.335	-28.67
875.508	30.72
875.681	159.74
875.853	30.72
876.026	14.34
876.199	28.67
876.371	71.68
876.544	-8.19
876.717	-2.05
876.889	6.14
877.062	75.77
877.234	-57.34
877.407	-26.62
877.579	4.1
877.752	36.86
877.924	24.58
878.097	114.69
878.269	14.34
878.442	55.3
878.614	20.48
878.786	16.38
878.959	-6.14
879.131	12.29
879.303	-61.44
879.476	-8.19
879.648	22.53
879.82	-26.62
879.993	57.34
880.165	36.86
880.337	-53.25
880.509	26.62
880.681	-92.16
880.854	49.15
881.026	22.53
881.198	100.35
881.37	-4.1
881.542	38.91
881.714	18.43
881.886	-10.24
882.058	-4.1
882.23	30.72
882.402	-16.38
882.574	57.34
882.746	45.06
882.918	40.96
883.09	-4.1
883.262	-20.48
883.434	55.3
883.606	-32.77
883.778	38.91
883.95	69.63
884.122	-28.67
884.293	20.48
884.465	36.86
884.637	-4.1
884.809	-32.77
884.98	16.38
885.152	43.01
885.324	36.86
885.496	-8.19
885.667	38.91
885.839	24.58
886.011	110.59
886.182	61.44
886.354	86.01
886.525	-4.1
886.697	20.48
886.869	4.1
887.04	45.06
887.212	108.54
887.383	139.26
887.555	20.48
887.726	79.87
887.897	22.53
888.069	-32.77
888.24	49.15
888.412	-55.3
888.583	-12.29
888.754	96.25
888.926	61.44
889.097	-6.14
889.268	-10.24
889.44	49.15
889.611	-22.53
889.782	-34.82
889.953	-69.63
890.125	81.92
890.296	14.34
890.467	-53.25
890.638	61.44
890.809	20.48
890.98	2.05
891.151	-12.29
891.323	16.38
891.494	69.63
891.665	55.3
891.836	-59.39
892.007	22.53
892.178	59.39
892.349	-18.43
892.52	12.29
892.691	0
892.862	-36.86
893.032	22.53
893.203	-18.43
893.374	28.67
893.545	22.53
893.716	-53.25
893.887	38.91
894.057	16.38
894.228	14.34
894.399	-18.43
894.57	145.41
894.74	73.73
894.911	79.87
895.082	-8.19
895.253	-16.38
895.423	51.2
895.594	20.48
895.764	34.82
895.935	-10.24
896.106	20.48
896.276	30.72
896.447	-4.1
896.617	-59.39
896.788	-77.82
896.958	57.34
897.129	-61.44
897.299	-59.39
897.47	32.77
897.64	36.86
897.81	43.01
897.981	61.44
898.151	-65.53
898.322	16.38
898.492	-6.14
898.662	-69.63
898.832	-30.72
899.003	14.34
899.173	-43.01
899.343	6.14
899.513	-18.43
